Data from USB4F104151__17__10-21-15-532.txt Node

Date: Wed Mar 12 10:21:15 EDT 2025
User: louis
Spectrometer: USB4F10415
Trigger mode: 4
Integration Time (sec): 3.000000E-2
Scans to average: 1
Electric dark correction enabled: true
Nonlinearity correction enabled: false
Boxcar width: 0
XAxis mode: Wavelengths
Number of Pixels in Spectrum: 3648
>>>>>Begin Spectral Data<<<<<
178.204	-140.97
178.424	-140.97
178.644	-140.97
178.864	-54.95
179.084	-83.63
179.304	2.39
179.524	22.87
179.744	-73.39
179.964	8.53
180.184	-18.09
180.404	63.83
180.624	4.44
180.844	-20.14
181.064	-48.81
181.283	2.39
181.503	12.63
181.723	43.35
181.943	-42.67
182.163	51.54
182.383	-18.09
182.602	123.22
182.822	63.83
183.042	92.5
183.262	115.03
183.482	88.4
183.701	41.3
183.921	41.3
184.141	-5.8
184.361	125.27
184.58	35.16
184.8	51.54
185.02	88.4
185.239	67.92
185.459	49.49
185.679	115.03
185.898	-32.43
186.118	67.92
186.338	35.16
186.557	61.78
186.777	100.69
186.997	55.64
187.216	76.12
187.436	90.45
187.655	67.92
187.875	35.16
188.095	108.88
188.314	72.02
188.534	88.4
188.753	53.59
188.973	43.35
189.192	108.88
189.412	76.12
189.631	51.54
189.851	-7.85
190.07	49.49
190.29	72.02
190.509	49.49
190.729	67.92
190.948	29.01
191.168	203.09
191.387	72.02
191.607	65.88
191.826	59.73
192.045	31.06
192.265	121.17
192.484	49.49
192.704	10.58
192.923	41.3
193.142	115.03
193.362	129.36
193.581	117.08
193.8	10.58
194.02	133.46
194.239	72.02
194.458	78.16
194.678	51.54
194.897	47.44
195.116	-3.75
195.335	31.06
195.555	72.02
195.774	-3.75
195.993	45.4
196.212	108.88
196.432	-11.95
196.651	84.31
196.87	84.31
197.089	43.35
197.308	94.55
197.528	45.4
197.747	59.73
197.966	43.35
198.185	39.25
198.404	57.68
198.623	55.64
198.842	158.03
199.062	117.08
199.281	-24.23
199.5	-3.75
199.719	98.64
199.938	96.6
200.157	69.97
200.376	41.3
200.595	-9.9
200.814	16.73
201.033	-13.99
201.252	53.59
201.471	57.68
201.69	90.45
201.909	100.69
202.128	59.73
202.347	117.08
202.566	24.92
202.785	51.54
203.004	47.44
203.223	29.01
203.442	14.68
203.661	2.39
203.879	55.64
204.098	90.45
204.317	-5.8
204.536	31.06
204.755	20.82
204.974	117.08
205.193	112.98
205.411	45.4
205.63	125.27
205.849	45.4
206.068	55.64
206.287	-46.76
206.505	80.21
206.724	47.44
206.943	-7.85
207.162	16.73
207.381	67.92
207.599	65.88
207.818	49.49
208.037	6.49
208.255	24.92
208.474	22.87
208.693	55.64
208.911	76.12
209.13	45.4
209.349	49.49
209.567	125.27
209.786	39.25
210.005	26.96
210.223	84.31
210.442	-3.75
210.661	84.31
210.879	12.63
211.098	24.92
211.316	43.35
211.535	59.73
211.753	-9.9
211.972	41.3
212.191	-5.8
212.409	98.64
212.628	108.88
212.846	53.59
213.065	-22.19
213.283	98.64
213.502	117.08
213.72	47.44
213.938	45.4
214.157	139.6
214.375	106.84
214.594	-24.23
214.812	100.69
215.031	55.64
215.249	96.6
215.467	74.07
215.686	26.96
215.904	106.84
216.122	2.39
216.341	72.02
216.559	-3.75
216.778	47.44
216.996	67.92
217.214	16.73
217.432	39.25
217.651	43.35
217.869	82.26
218.087	-36.52
218.306	49.49
218.524	31.06
218.742	35.16
218.96	39.25
219.179	84.31
219.397	84.31
219.615	29.01
219.833	80.21
220.051	41.3
220.27	123.22
220.488	43.35
220.706	61.78
220.924	115.03
221.142	98.64
221.36	-9.9
221.578	26.96
221.796	74.07
222.015	24.92
222.233	-13.99
222.451	166.23
222.669	-16.04
222.887	135.51
223.105	86.36
223.323	74.07
223.541	76.12
223.759	43.35
223.977	-5.8
224.195	112.98
224.413	67.92
224.631	59.73
224.849	22.87
225.067	45.4
225.285	125.27
225.503	57.68
225.721	47.44
225.939	96.6
226.157	37.2
226.375	149.84
226.592	16.73
226.81	35.16
227.028	37.2
227.246	158.03
227.464	57.68
227.682	49.49
227.9	65.88
228.117	63.83
228.335	59.73
228.553	112.98
228.771	33.11
228.989	69.97
229.206	59.73
229.424	61.78
229.642	-7.85
229.86	86.36
230.077	92.5
230.295	59.73
230.513	98.64
230.731	67.92
230.948	104.79
231.166	80.21
231.384	59.73
231.601	74.07
231.819	104.79
232.037	57.68
232.254	33.11
232.472	117.08
232.689	-22.19
232.907	67.92
233.125	47.44
233.342	67.92
233.56	67.92
233.777	76.12
233.995	72.02
234.213	100.69
234.43	43.35
234.648	31.06
234.865	2.39
235.083	74.07
235.3	76.12
235.518	86.36
235.735	47.44
235.953	59.73
236.17	35.16
236.388	43.35
236.605	-1.71
236.822	90.45
237.04	45.4
237.257	69.97
237.475	-22.19
237.692	98.64
237.909	18.77
238.127	18.77
238.344	43.35
238.562	76.12
238.779	78.16
238.996	49.49
239.214	47.44
239.431	72.02
239.648	96.6
239.865	55.64
240.083	35.16
240.3	18.77
240.517	72.02
240.735	102.74
240.952	141.65
241.169	49.49
241.386	4.44
241.603	39.25
241.821	-67.24
242.038	84.31
242.255	72.02
242.472	94.55
242.689	74.07
242.907	55.64
243.124	22.87
243.341	33.11
243.558	16.73
243.775	43.35
243.992	-30.38
244.209	-13.99
244.426	53.59
244.643	98.64
244.86	76.12
245.078	84.31
245.295	-48.81
245.512	72.02
245.729	33.11
245.946	22.87
246.163	102.74
246.38	-28.33
246.597	72.02
246.814	69.97
247.031	43.35
247.248	8.53
247.464	82.26
247.681	41.3
247.898	-3.75
248.115	104.79
248.332	67.92
248.549	84.31
248.766	182.61
248.983	53.59
249.2	4.44
249.417	41.3
249.633	49.49
249.85	74.07
250.067	2.39
250.284	47.44
250.501	112.98
250.717	84.31
250.934	37.2
251.151	53.59
251.368	41.3
251.585	49.49
251.801	59.73
252.018	90.45
252.235	131.41
252.451	-1.71
252.668	26.96
252.885	18.77
253.102	12.63
253.318	31.06
253.535	12.63
253.752	0.34
253.968	43.35
254.185	-16.04
254.401	106.84
254.618	88.4
254.835	-7.85
255.051	18.77
255.268	26.96
255.484	26.96
255.701	37.2
255.917	41.3
256.134	20.82
256.351	45.4
256.567	61.78
256.784	63.83
257	45.4
257.217	90.45
257.433	31.06
257.65	-3.75
257.866	63.83
258.082	26.96
258.299	65.88
258.515	76.12
258.732	41.3
258.948	18.77
259.165	86.36
259.381	106.84
259.597	72.02
259.814	82.26
260.03	96.6
260.246	61.78
260.463	41.3
260.679	98.64
260.895	47.44
261.112	84.31
261.328	53.59
261.544	98.64
261.761	162.13
261.977	-18.09
262.193	26.96
262.409	26.96
262.626	59.73
262.842	84.31
263.058	72.02
263.274	10.58
263.49	57.68
263.707	84.31
263.923	39.25
264.139	-26.28
264.355	78.16
264.571	63.83
264.787	41.3
265.004	129.36
265.22	12.63
265.436	45.4
265.652	-9.9
265.868	51.54
266.084	-3.75
266.3	35.16
266.516	24.92
266.732	-11.95
266.948	18.77
267.164	51.54
267.38	41.3
267.596	41.3
267.812	117.08
268.028	141.65
268.244	51.54
268.46	88.4
268.676	2.39
268.892	82.26
269.108	0.34
269.324	92.5
269.54	-5.8
269.756	59.73
269.972	37.2
270.188	76.12
270.403	63.83
270.619	31.06
270.835	67.92
271.051	98.64
271.267	76.12
271.483	22.87
271.698	43.35
271.914	4.44
272.13	-11.95
272.346	22.87
272.562	74.07
272.777	61.78
272.993	51.54
273.209	69.97
273.425	31.06
273.64	26.96
273.856	119.12
274.072	51.54
274.287	-11.95
274.503	72.02
274.719	119.12
274.934	84.31
275.15	-18.09
275.366	94.55
275.581	43.35
275.797	84.31
276.012	96.6
276.228	41.3
276.444	10.58
276.659	92.5
276.875	69.97
277.09	35.16
277.306	131.41
277.521	72.02
277.737	84.31
277.952	86.36
278.168	0.34
278.383	22.87
278.599	35.16
278.814	10.58
279.03	55.64
279.245	31.06
279.461	33.11
279.676	106.84
279.892	57.68
280.107	-32.43
280.322	14.68
280.538	35.16
280.753	35.16
280.969	147.8
281.184	47.44
281.399	117.08
281.615	61.78
281.83	33.11
282.045	43.35
282.26	86.36
282.476	102.74
282.691	98.64
282.906	123.22
283.122	8.53
283.337	2.39
283.552	110.93
283.767	18.77
283.983	104.79
284.198	78.16
284.413	104.79
284.628	33.11
284.843	49.49
285.058	65.88
285.274	53.59
285.489	108.88
285.704	102.74
285.919	35.16
286.134	94.55
286.349	35.16
286.564	119.12
286.779	92.5
286.995	90.45
287.21	67.92
287.425	51.54
287.64	57.68
287.855	53.59
288.07	43.35
288.285	29.01
288.5	43.35
288.715	8.53
288.93	92.5
289.145	35.16
289.36	84.31
289.575	67.92
289.79	10.58
290.004	61.78
290.219	98.64
290.434	51.54
290.649	53.59
290.864	24.92
291.079	84.31
291.294	137.56
291.509	39.25
291.724	39.25
291.938	-48.81
292.153	92.5
292.368	67.92
292.583	57.68
292.798	41.3
293.012	65.88
293.227	33.11
293.442	53.59
293.657	80.21
293.871	39.25
294.086	-40.62
294.301	84.31
294.516	80.21
294.73	47.44
294.945	76.12
295.16	41.3
295.374	141.65
295.589	86.36
295.804	45.4
296.018	74.07
296.233	47.44
296.447	88.4
296.662	18.77
296.877	135.51
297.091	82.26
297.306	35.16
297.52	110.93
297.735	59.73
297.949	33.11
298.164	26.96
298.378	29.01
298.593	47.44
298.807	47.44
299.022	51.54
299.236	92.5
299.451	47.44
299.665	4.44
299.88	41.3
300.094	94.55
300.309	53.59
300.523	59.73
300.737	104.79
300.952	20.82
301.166	108.88
301.381	41.3
301.595	100.69
301.809	59.73
302.024	-3.75
302.238	22.87
302.452	51.54
302.667	84.31
302.881	119.12
303.095	26.96
303.309	49.49
303.524	41.3
303.738	80.21
303.952	59.73
304.166	63.83
304.381	33.11
304.595	125.27
304.809	106.84
305.023	12.63
305.237	86.36
305.452	20.82
305.666	59.73
305.88	43.35
306.094	166.23
306.308	129.36
306.522	78.16
306.736	45.4
306.95	69.97
307.164	41.3
307.379	47.44
307.593	90.45
307.807	98.64
308.021	145.75
308.235	47.44
308.449	51.54
308.663	31.06
308.877	147.8
309.091	90.45
309.305	117.08
309.519	-24.23
309.733	149.84
309.947	26.96
310.161	69.97
310.374	24.92
310.588	166.23
310.802	35.16
311.016	33.11
311.23	100.69
311.444	35.16
311.658	80.21
311.872	110.93
312.085	10.58
312.299	33.11
312.513	55.64
312.727	69.97
312.941	65.88
313.154	35.16
313.368	76.12
313.582	88.4
313.796	49.49
314.009	86.36
314.223	43.35
314.437	45.4
314.651	84.31
314.864	24.92
315.078	-3.75
315.292	33.11
315.505	12.63
315.719	104.79
315.933	53.59
316.146	123.22
316.36	102.74
316.573	88.4
316.787	-30.38
317.001	67.92
317.214	43.35
317.428	47.44
317.641	57.68
317.855	69.97
318.068	26.96
318.282	96.6
318.495	125.27
318.709	35.16
318.922	80.21
319.136	82.26
319.349	57.68
319.563	8.53
319.776	92.5
319.99	57.68
320.203	57.68
320.417	80.21
320.63	18.77
320.843	119.12
321.057	72.02
321.27	61.78
321.483	78.16
321.697	100.69
321.91	22.87
322.124	158.03
322.337	63.83
322.55	47.44
322.763	141.65
322.977	137.56
323.19	20.82
323.403	45.4
323.617	137.56
323.83	35.16
324.043	53.59
324.256	76.12
324.469	18.77
324.683	53.59
324.896	67.92
325.109	106.84
325.322	55.64
325.535	121.17
325.748	88.4
325.962	129.36
326.175	112.98
326.388	59.73
326.601	63.83
326.814	24.92
327.027	49.49
327.24	147.8
327.453	43.35
327.666	47.44
327.879	131.41
328.092	33.11
328.305	-32.43
328.518	-52.91
328.731	76.12
328.944	112.98
329.157	35.16
329.37	35.16
329.583	61.78
329.796	65.88
330.009	20.82
330.222	117.08
330.435	72.02
330.648	16.73
330.861	41.3
331.073	76.12
331.286	94.55
331.499	51.54
331.712	0.34
331.925	139.6
332.138	90.45
332.35	43.35
332.563	47.44
332.776	153.94
332.989	-11.95
333.202	33.11
333.414	88.4
333.627	55.64
333.84	106.84
334.053	110.93
334.265	133.46
334.478	33.11
334.691	-36.52
334.903	51.54
335.116	-5.8
335.329	53.59
335.541	153.94
335.754	76.12
335.966	49.49
336.179	104.79
336.392	82.26
336.604	108.88
336.817	119.12
337.029	8.53
337.242	104.79
337.454	117.08
337.667	26.96
337.88	94.55
338.092	84.31
338.305	88.4
338.517	143.7
338.729	43.35
338.942	55.64
339.154	49.49
339.367	26.96
339.579	49.49
339.792	26.96
340.004	59.73
340.217	39.25
340.429	104.79
340.641	39.25
340.854	78.16
341.066	41.3
341.278	37.2
341.491	84.31
341.703	61.78
341.915	2.39
342.128	63.83
342.34	106.84
342.552	-36.52
342.764	90.45
342.977	45.4
343.189	-1.71
343.401	20.82
343.613	43.35
343.826	90.45
344.038	57.68
344.25	129.36
344.462	57.68
344.674	67.92
344.886	-9.9
345.099	92.5
345.311	59.73
345.523	80.21
345.735	35.16
345.947	110.93
346.159	45.4
346.371	22.87
346.583	-22.19
346.795	78.16
347.007	78.16
347.219	133.46
347.431	49.49
347.643	125.27
347.855	-13.99
348.067	84.31
348.279	-11.95
348.491	39.25
348.703	98.64
348.915	35.16
349.127	90.45
349.339	63.83
349.551	65.88
349.763	65.88
349.975	12.63
350.187	57.68
350.399	41.3
350.61	76.12
350.822	57.68
351.034	55.64
351.246	49.49
351.458	115.03
351.669	53.59
351.881	104.79
352.093	90.45
352.305	72.02
352.517	88.4
352.728	104.79
352.94	26.96
353.152	84.31
353.363	65.88
353.575	106.84
353.787	72.02
353.999	102.74
354.21	43.35
354.422	67.92
354.633	59.73
354.845	84.31
355.057	112.98
355.268	51.54
355.48	88.4
355.692	45.4
355.903	121.17
356.115	74.07
356.326	72.02
356.538	112.98
356.749	31.06
356.961	29.01
357.172	74.07
357.384	-16.04
357.595	100.69
357.807	96.6
358.018	43.35
358.23	10.58
358.441	162.13
358.653	100.69
358.864	10.58
359.075	115.03
359.287	121.17
359.498	55.64
359.709	96.6
359.921	16.73
360.132	139.6
360.344	67.92
360.555	29.01
360.766	133.46
360.977	106.84
361.189	39.25
361.4	100.69
361.611	98.64
361.823	47.44
362.034	125.27
362.245	24.92
362.456	98.64
362.667	59.73
362.879	74.07
363.09	76.12
363.301	47.44
363.512	18.77
363.723	90.45
363.935	72.02
364.146	84.31
364.357	115.03
364.568	112.98
364.779	47.44
364.99	178.51
365.201	18.77
365.412	145.75
365.623	-22.19
365.834	49.49
366.045	20.82
366.256	88.4
366.467	57.68
366.678	72.02
366.889	51.54
367.1	141.65
367.311	121.17
367.522	92.5
367.733	94.55
367.944	100.69
368.155	18.77
368.366	69.97
368.577	65.88
368.788	151.89
368.999	2.39
369.209	63.83
369.42	137.56
369.631	102.74
369.842	35.16
370.053	76.12
370.264	57.68
370.474	153.94
370.685	45.4
370.896	39.25
371.107	35.16
371.317	67.92
371.528	65.88
371.739	112.98
371.95	119.12
372.16	65.88
372.371	63.83
372.582	4.44
372.792	155.99
373.003	102.74
373.214	82.26
373.424	67.92
373.635	94.55
373.846	49.49
374.056	57.68
374.267	59.73
374.477	57.68
374.688	78.16
374.898	72.02
375.109	84.31
375.319	53.59
375.53	129.36
375.74	90.45
375.951	59.73
376.161	49.49
376.372	115.03
376.582	65.88
376.793	74.07
377.003	74.07
377.214	41.3
377.424	39.25
377.635	88.4
377.845	29.01
378.055	106.84
378.266	10.58
378.476	166.23
378.686	2.39
378.897	125.27
379.107	47.44
379.317	102.74
379.528	0.34
379.738	65.88
379.948	65.88
380.158	37.2
380.369	35.16
380.579	90.45
380.789	-32.43
380.999	90.45
381.21	106.84
381.42	198.99
381.63	22.87
381.84	131.41
382.05	61.78
382.261	117.08
382.471	69.97
382.681	8.53
382.891	123.22
383.101	12.63
383.311	26.96
383.521	67.92
383.731	129.36
383.941	108.88
384.151	72.02
384.361	84.31
384.571	88.4
384.781	119.12
384.991	84.31
385.201	158.03
385.411	43.35
385.621	125.27
385.831	35.16
386.041	121.17
386.251	82.26
386.461	72.02
386.671	92.5
386.881	65.88
387.091	51.54
387.301	115.03
387.511	69.97
387.72	108.88
387.93	141.65
388.14	115.03
388.35	69.97
388.56	86.36
388.769	133.46
388.979	88.4
389.189	57.68
389.399	82.26
389.609	108.88
389.818	115.03
390.028	119.12
390.238	16.73
390.447	88.4
390.657	110.93
390.867	98.64
391.076	110.93
391.286	82.26
391.496	76.12
391.705	69.97
391.915	74.07
392.125	92.5
392.334	133.46
392.544	133.46
392.753	63.83
392.963	74.07
393.172	117.08
393.382	121.17
393.591	92.5
393.801	112.98
394.01	94.55
394.22	137.56
394.429	145.75
394.639	102.74
394.848	67.92
395.058	26.96
395.267	145.75
395.477	188.75
395.686	74.07
395.895	145.75
396.105	162.13
396.314	106.84
396.524	162.13
396.733	31.06
396.942	164.18
397.152	133.46
397.361	117.08
397.57	127.32
397.78	153.94
397.989	215.38
398.198	145.75
398.407	84.31
398.617	108.88
398.826	149.84
399.035	141.65
399.244	172.37
399.453	133.46
399.663	117.08
399.872	170.32
400.081	47.44
400.29	174.42
400.499	102.74
400.708	133.46
400.917	182.61
401.127	158.03
401.336	162.13
401.545	158.03
401.754	217.43
401.963	174.42
402.172	106.84
402.381	160.08
402.59	121.17
402.799	143.7
403.008	174.42
403.217	151.89
403.426	131.41
403.635	115.03
403.844	162.13
404.053	131.41
404.262	92.5
404.471	219.47
404.68	262.48
404.888	158.03
405.097	80.21
405.306	170.32
405.515	215.38
405.724	233.81
405.933	264.53
406.142	209.23
406.35	280.91
406.559	184.66
406.768	276.82
406.977	215.38
407.185	178.51
407.394	280.91
407.603	209.23
407.812	293.2
408.02	311.63
408.229	307.54
408.438	182.61
408.646	239.95
408.855	274.77
409.064	301.39
409.272	305.49
409.481	328.02
409.69	231.76
409.898	315.73
410.107	336.21
410.315	330.06
410.524	340.3
410.733	450.89
410.941	407.89
411.15	373.07
411.358	411.98
411.567	440.65
411.775	448.85
411.984	469.33
412.192	473.42
412.401	465.23
412.609	512.33
412.818	604.49
413.026	620.88
413.234	588.11
413.443	575.82
413.651	538.96
413.86	629.07
414.068	715.08
414.276	751.95
414.485	749.9
414.693	688.46
414.901	731.47
415.11	809.29
415.318	805.19
415.526	883.02
415.734	897.35
415.943	870.73
416.151	825.67
416.359	921.93
416.567	917.83
416.776	1091.91
416.984	1134.92
417.192	1057.09
417.4	1206.59
417.608	1063.24
417.817	1175.88
418.025	1171.78
418.233	1274.18
418.441	1298.75
418.649	1341.76
418.857	1339.71
419.065	1497.41
419.273	1446.21
419.481	1413.44
419.689	1534.27
419.897	1624.38
420.105	1706.3
420.313	1636.67
420.521	1773.88
420.729	1714.49
420.937	1947.96
421.145	1954.1
421.353	1974.58
421.561	2115.89
421.769	2199.86
421.977	2214.2
422.185	2154.8
422.393	2296.11
422.601	2607.41
422.809	2375.99
423.017	2480.43
423.224	2588.97
423.432	2779.43
423.64	2693.42
423.848	2969.9
424.056	2836.78
424.263	3158.31
424.471	3051.81
424.679	3205.41
424.887	3244.32
425.094	3430.69
425.302	3500.32
425.51	3643.68
425.718	3619.1
425.925	3680.54
426.133	3787.04
426.341	4182.29
426.548	4270.36
426.756	4266.26
426.964	4258.07
427.171	4518.16
427.379	4589.84
427.586	4925.71
427.794	4849.93
428.001	5312.77
428.209	5370.12
428.417	5337.35
428.624	5579.01
428.832	5650.69
429.039	5581.06
429.247	5597.44
429.454	6029.56
429.662	6461.68
429.869	6097.14
430.076	6361.33
430.284	6367.48
430.491	6693.1
430.699	7067.88
430.906	7006.44
431.114	6975.72
431.321	7399.65
431.528	7538.91
431.736	7938.27
431.943	8364.25
432.15	8009.95
432.358	8239.32
432.565	8687.82
432.772	8612.05
432.979	8966.35
433.187	9437.38
433.394	9259.21
433.601	9824.45
433.808	9748.67
434.016	9691.33
434.223	10287.29
434.43	10924.21
434.637	10365.11
434.844	11268.27
435.052	11393.19
435.259	11231.4
435.466	11673.76
435.673	11266.22
435.88	12017.82
436.087	12816.53
436.294	12648.6
436.501	12628.12
436.708	12742.8
436.915	13267.08
437.122	13684.87
437.329	13715.59
437.537	14311.55
437.743	14516.34
437.95	14211.2
438.157	14811.25
438.364	15538.28
438.571	15480.94
438.778	15597.67
438.985	16851.03
439.192	16173.15
439.399	16541.78
439.606	16613.46
439.813	17608.78
440.02	18405.44
440.227	18188.35
440.433	17827.91
440.64	18430.01
440.847	18344
441.054	18909.24
441.261	20318.24
441.467	19836.97
441.674	20221.98
441.881	21047.32
442.088	20736.02
442.294	20684.83
442.501	21389.33
442.708	21710.86
442.914	22745.08
443.121	23420.91
443.328	22665.21
443.534	24674.27
443.741	23867.37
443.948	23742.44
444.154	25059.29
444.361	24639.45
444.568	25235.41
444.774	25350.1
444.981	25704.4
445.187	26161.09
445.394	27486.13
445.6	26539.97
445.807	29290.39
446.013	28229.54
446.22	28661.66
446.426	29527.95
446.633	29888.4
446.839	30764.93
447.046	29642.64
447.252	31170.43
447.459	31510.39
447.665	31242.1
447.871	32599.91
448.078	33650.52
448.284	32139.11
448.491	33185.63
448.697	34623.3
448.903	35217.21
449.11	34850.63
449.316	34342.73
449.522	34867.01
449.728	35751.73
449.935	35999.54
450.141	35835.7
450.347	37060.38
450.553	35557.17
450.76	36153.13
450.966	37101.34
451.172	36452.14
451.378	37586.71
451.584	36736.8
451.791	37424.92
451.997	37775.12
452.203	38129.42
452.409	38162.19
452.615	37781.27
452.821	36648.74
453.027	35596.09
453.233	37998.35
453.44	36280.11
453.646	36888.35
453.852	36818.72
454.058	37400.35
454.264	35991.34
454.47	37074.72
454.676	36425.51
454.882	36945.7
455.088	33687.38
455.294	34361.16
455.5	34918.21
455.705	35084.09
455.911	33632.08
456.117	33273.69
456.323	32712.55
456.529	30871.42
456.735	32288.62
456.941	31092.6
457.147	30904.19
457.352	29767.57
457.558	29536.15
457.764	29810.57
457.97	28774.3
458.176	28391.33
458.381	28393.38
458.587	26777.53
458.793	26994.62
458.999	25227.22
459.204	27637.68
459.41	26671.04
459.616	25200.6
459.821	24766.43
460.027	24645.6
460.233	24389.6
460.438	23093.24
460.644	23431.15
460.85	22237.19
461.055	21641.23
461.261	21964.81
461.466	20242.46
461.672	19664.94
461.878	21106.71
462.083	19896.36
462.289	19568.68
462.494	19263.54
462.7	18288.7
462.905	17922.12
463.111	18358.33
463.316	18599.99
463.522	18059.33
463.727	18190.4
463.932	18147.39
464.138	17895.49
464.343	18266.17
464.549	17465.42
464.754	18210.88
464.959	17791.05
465.165	17827.91
465.37	16887.89
465.575	16480.35
465.781	17109.07
465.986	17238.09
466.191	16693.33
466.397	16511.07
466.602	15911.01
466.807	16365.66
467.012	16365.66
467.218	16230.49
467.423	16029.79
467.628	15990.88
467.833	16570.46
468.038	16320.6
468.244	15810.66
468.449	16263.26
468.654	15667.3
468.859	15456.36
469.064	15595.62
469.269	14784.63
469.474	15147.12
469.679	15482.99
469.885	14755.96
470.09	15050.86
470.295	15036.53
470.5	14766.2
470.705	14751.86
470.91	14231.68
471.115	13867.14
471.32	14440.57
471.525	14385.27
471.73	14035.07
471.935	14061.69
472.139	13502.6
472.344	13691.01
472.549	13688.96
472.754	13504.65
472.959	13176.97
473.164	12947.6
473.369	12660.88
473.574	13217.93
473.778	13054.09
473.983	12841.11
474.188	12820.63
474.393	12411.03
474.598	12564.63
474.802	12171.42
475.007	12261.53
475.212	12157.08
475.417	11690.15
475.621	11706.53
475.826	11634.85
476.031	11622.56
476.235	11296.94
476.44	11538.6
476.645	11208.87
476.849	11212.97
477.054	10959.02
477.259	11186.35
477.463	11053.23
477.668	10805.42
477.872	10891.44
478.077	10743.99
478.282	10344.63
478.486	10217.66
478.691	10391.73
478.895	10168.51
479.1	10102.97
479.304	10414.26
479.509	10010.81
479.713	10250.42
479.918	9955.52
480.122	9742.53
480.326	9875.65
480.531	10082.49
480.735	9865.41
480.94	9754.82
481.144	9992.38
481.348	9457.86
481.553	9449.67
481.757	9525.44
481.961	9451.72
482.166	9715.91
482.37	9668.8
482.574	9347.27
482.778	9633.99
482.983	9861.31
483.187	9353.41
483.391	9685.19
483.595	9513.16
483.8	9480.39
484.004	9760.96
484.208	9607.36
484.412	9283.78
484.616	9392.33
484.821	9578.69
485.025	9449.67
485.229	9539.78
485.433	9556.16
485.637	9496.77
485.841	9517.25
486.045	9492.68
486.249	9406.66
486.453	9492.68
486.657	9519.3
486.861	9521.35
487.065	9396.42
487.269	9517.25
487.473	9504.96
487.677	9595.07
487.881	9652.42
488.085	9547.97
488.289	9812.16
488.493	9486.53
488.697	9554.12
488.901	9543.88
489.105	9625.79
489.309	9760.96
489.512	9666.75
489.716	9734.34
489.92	9640.13
490.124	9861.31
490.328	9752.77
490.531	9674.95
490.735	9883.84
490.939	9851.07
491.143	9668.8
491.346	9818.3
491.55	9994.43
491.754	9971.9
491.958	9824.45
492.161	10086.59
492.365	10184.89
492.569	10117.31
492.772	9994.43
492.976	10430.65
493.18	10328.25
493.383	10385.59
493.587	10504.37
493.79	10526.9
493.994	10453.17
494.197	10643.63
494.401	10703.03
494.605	10600.63
494.808	10811.57
495.012	10799.28
495.215	10897.58
495.419	10924.21
495.622	10858.67
495.825	11202.73
496.029	11155.63
496.232	11430.05
496.436	11413.67
496.639	11741.35
496.843	11798.69
497.046	12001.44
497.249	12083.36
497.453	11905.18
497.656	12079.26
497.859	12097.69
498.063	12249.24
498.266	12531.86
498.469	12505.24
498.673	12642.45
498.876	12832.91
499.079	13093.01
499.282	12980.37
499.485	13230.22
499.689	13246.6
499.892	13576.33
500.095	13486.22
500.298	13641.86
500.501	13860.99
500.705	14170.24
500.908	14243.96
501.111	14418.04
501.314	14663.8
501.517	14725.24
501.72	14911.6
501.923	14846.07
502.126	15259.76
502.329	15718.5
502.532	15618.15
502.735	15622.25
502.938	15982.69
503.141	15906.91
503.344	16382.04
503.547	16330.84
503.75	16519.26
503.953	16887.89
504.156	16930.9
504.359	17088.59
504.562	17250.38
504.765	17551.43
504.968	17696.84
505.17	18040.9
505.373	17991.75
505.576	18327.61
505.779	18452.54
505.982	18626.62
506.185	18843.7
506.387	19068.98
506.59	19165.23
506.793	19720.23
506.996	19546.16
507.198	19939.37
507.401	19845.16
507.604	19820.58
507.807	20508.7
508.009	20951.06
508.212	21108.76
508.415	21145.62
508.617	21336.08
508.82	21399.57
509.022	21393.42
509.225	22032.39
509.428	22005.77
509.63	22032.39
509.833	22429.7
510.035	23152.63
510.238	22910.97
510.44	23459.82
510.643	23283.7
510.845	23732.2
511.048	23877.61
511.25	23924.71
511.453	23965.67
511.655	24754.14
511.858	24881.11
512.06	24866.78
512.262	25321.43
512.465	25436.11
512.667	25761.74
512.87	25882.57
513.072	25931.72
513.274	26568.64
513.477	26814.4
513.679	26937.27
513.881	27385.78
514.084	27396.02
514.286	27414.45
514.488	27746.22
514.69	28460.96
514.893	28475.3
515.095	28563.36
515.297	29138.84
515.499	29101.98
515.701	29306.77
515.904	30072.71
516.106	29994.89
516.308	30041.99
516.51	30459.78
516.712	30529.41
516.914	31047.55
517.116	31631.22
517.318	31686.51
517.52	31723.38
517.722	31803.25
517.925	32515.94
518.127	32925.53
518.329	33070.94
518.531	32896.86
518.733	33361.75
518.935	33994.57
519.136	33789.78
519.338	34281.29
519.54	34168.65
519.742	34858.82
519.944	34758.47
520.146	35288.89
520.348	35270.46
520.55	35477.3
520.752	35897.14
520.954	36402.99
521.155	36273.96
521.357	36503.34
521.559	37320.48
521.761	37617.43
521.963	37779.22
522.164	37637.91
522.366	37877.52
522.568	38493.96
522.77	38473.48
522.971	38709
523.173	38735.62
523.375	39182.08
523.576	39433.98
523.778	39534.33
523.98	39909.11
524.181	40060.66
524.383	40206.06
524.584	40394.48
524.786	40414.96
524.988	40599.27
525.189	41324.25
525.391	41518.81
525.592	41336.54
525.794	41848.53
525.995	41846.49
526.197	41762.52
526.398	42045.14
526.6	42137.3
526.801	42409.68
527.003	42563.28
527.204	42708.68
527.406	43073.22
527.607	43044.55
527.808	43732.67
528.01	43099.84
528.211	43335.36
528.412	44701.36
528.614	44201.65
528.815	44324.53
529.016	44289.71
529.218	43681.47
529.419	44508.85
529.62	44228.27
529.822	44652.2
530.023	44388.02
530.224	44447.41
530.425	44635.82
530.626	44504.75
530.828	44203.7
531.029	45301.41
531.23	45055.65
531.431	44742.31
531.632	44801.71
531.833	45260.45
532.035	45506.21
532.236	45407.9
532.437	45756.06
532.638	45436.58
532.839	45543.07
533.04	45162.15
533.241	45407.9
533.442	46020.25
533.643	45756.06
533.844	45864.6
534.045	45715.1
534.246	45121.19
534.447	45977.24
534.648	45641.37
534.849	45731.48
535.05	45622.94
535.251	45547.17
535.451	45600.41
535.652	46030.49
535.853	46034.58
536.054	46134.93
536.255	46046.87
536.456	45790.87
536.657	46587.53
536.857	46282.39
537.058	45946.52
537.259	46093.97
537.46	46059.16
537.66	46288.53
537.861	46157.46
538.062	45737.63
538.263	45952.66
538.463	45813.4
538.664	45971.1
538.865	45964.95
539.065	46231.19
539.266	45510.3
539.466	46612.11
539.667	45694.62
539.868	46132.89
540.068	45969.05
540.269	45975.19
540.469	46196.37
540.67	45989.53
540.87	46282.39
541.071	46132.89
541.271	46280.34
541.472	46102.17
541.672	45510.3
541.873	45864.6
542.073	45338.27
542.274	46634.64
542.474	45835.93
542.675	45348.51
542.875	45979.29
543.075	45946.52
543.276	45657.76
543.476	46139.03
543.676	45477.54
543.877	46255.76
544.077	46169.75
544.277	45735.58
544.478	45688.48
544.678	46184.08
544.878	46024.34
545.078	45876.89
545.279	45520.54
545.479	45444.77
545.679	45768.35
545.879	45577.89
546.079	45741.72
546.28	45418.14
546.48	45323.94
546.68	46184.08
546.88	45794.97
547.08	45936.28
547.28	45348.51
547.48	45471.39
547.68	45913.75
547.88	45409.95
548.081	45739.68
548.281	45577.89
548.481	45414.05
548.681	45866.65
548.881	45598.37
549.081	45459.1
549.28	45211.3
549.48	45467.3
549.68	45418.14
549.88	45668
550.08	45295.27
550.28	45459.1
550.48	45125.28
550.68	45940.38
550.88	45280.93
551.08	45313.7
551.279	45502.11
551.479	44891.82
551.679	45647.52
551.879	45432.48
552.079	45768.35
552.278	45430.43
552.478	45156
552.678	45311.65
552.878	45655.71
553.077	45244.07
553.277	45098.66
553.477	45635.23
553.676	44807.85
553.876	45272.74
554.076	45117.09
554.275	44768.94
554.475	44508.85
554.674	45043.37
554.874	45110.95
555.074	44801.71
555.273	44893.86
555.473	44873.38
555.672	44488.37
555.872	44605.1
556.071	44830.38
556.271	44994.21
556.47	44514.99
556.67	44523.18
556.869	44363.44
557.068	44521.13
557.268	44390.06
557.467	44611.24
557.667	44244.66
557.866	44338.86
558.065	44240.56
558.265	44011.19
558.464	43742.91
558.663	44189.36
558.863	43650.75
559.062	44357.3
559.261	43622.08
559.461	44033.72
559.66	43640.51
559.859	44109.49
560.058	43122.37
560.258	43630.27
560.457	43054.79
560.656	43736.76
560.855	43548.35
561.054	44273.33
561.253	43298.5
561.453	43501.25
561.652	43372.22
561.851	43476.67
562.05	42852.04
562.249	42868.42
562.448	43452.09
562.647	43212.48
562.846	42784.46
563.045	42942.15
563.244	42319.57
563.443	43200.19
563.642	42063.57
563.841	42106.58
564.04	42376.91
564.239	42577.61
564.438	42079.96
564.637	42163.92
564.836	42028.76
565.035	41942.74
565.234	42233.55
565.432	41797.34
565.631	42043.09
565.83	41651.93
566.029	41840.34
566.228	41397.98
566.427	41721.56
566.625	41228
566.824	40877.8
567.023	41756.38
567.222	40541.93
567.42	41402.08
567.619	40881.89
567.818	41101.03
568.016	40468.2
568.215	40998.63
568.414	40330.99
568.612	40722.15
568.811	40120.05
569.01	40374
569.208	40079.09
569.407	40214.26
569.605	39941.88
569.804	40351.47
570.002	39841.53
570.201	40189.68
570.4	39696.12
570.598	39489.27
570.797	39313.15
570.995	39030.53
571.193	38813.45
571.392	39513.85
571.59	38932.23
571.789	38964.99
571.987	38919.94
572.186	38772.49
572.384	38627.08
572.582	38991.62
572.781	38911.75
572.979	38323.98
573.177	38440.71
573.376	38559.5
573.574	38539.02
573.772	38108.94
573.971	38022.93
574.169	37801.75
574.367	37445.4
574.565	38022.93
574.763	37498.65
574.962	37830.42
575.16	36886.31
575.358	37293.85
575.556	37132.06
575.754	37453.59
575.952	37070.62
576.151	37218.08
576.349	36996.9
576.547	36931.36
576.745	36775.72
576.943	36894.5
577.141	36552.49
577.339	36751.14
577.537	36120.37
577.735	36194.09
577.933	36083.5
578.131	36026.16
578.329	35974.96
578.527	36370.22
578.725	35999.54
578.923	36146.99
579.121	35942.19
579.319	35747.64
579.516	35923.76
579.714	35497.78
579.912	35123.01
580.11	35379
580.308	35411.77
580.506	35458.87
580.704	34694.98
580.901	35254.08
581.099	35174.2
581.297	34541.38
581.495	34522.95
581.692	34912.06
581.89	34352.97
582.088	34785.09
582.285	34709.32
582.483	34717.51
582.681	34236.23
582.878	34359.11
583.076	34015.05
583.274	34199.37
583.471	33738.58
583.669	33843.02
583.866	33867.6
584.064	33744.72
584.262	33541.97
584.459	33892.18
584.657	33462.1
584.854	33736.53
585.052	32644.96
585.249	33423.19
585.447	33042.27
585.644	32757.6
585.841	33099.61
586.039	33021.79
586.236	32405.35
586.434	32604
586.631	32434.02
586.828	32470.89
587.026	32561
587.223	32483.17
587.42	32302.95
587.618	32266.09
587.815	32051.05
588.012	32108.4
588.21	31766.38
588.407	31860.59
588.604	31659.89
588.801	31696.75
588.999	31451
589.196	31846.26
589.393	31754.1
589.59	31324.02
589.787	31244.15
589.984	30963.58
590.182	30908.29
590.379	30975.87
590.576	30709.63
590.773	31106.94
590.97	30560.13
591.167	30658.43
591.364	30414.73
591.561	30478.21
591.758	30107.53
591.955	30119.82
592.152	30341
592.349	29972.36
592.546	29931.4
592.743	30058.38
592.94	29454.23
593.137	29818.77
593.334	29831.05
593.531	29466.52
593.727	29826.96
593.924	29585.3
594.121	29028.25
594.318	29650.83
594.515	29134.74
594.712	29308.82
594.908	28862.36
595.105	28737.44
595.302	29028.25
595.499	29228.95
595.696	28725.15
595.892	28313.51
596.089	28762.01
596.286	28659.62
596.482	28850.08
596.679	28506.02
596.876	28344.23
597.072	28784.54
597.269	28155.82
597.466	28290.98
597.662	27723.69
597.859	28059.56
598.055	28104.62
598.252	27623.34
598.448	27848.62
598.645	27467.7
598.841	27086.78
599.038	27566
599.234	27422.64
599.431	26994.62
599.627	27316.15
599.824	27522.99
600.02	26679.23
600.217	27287.48
600.413	26857.4
600.609	26681.28
600.806	26619.84
601.002	26707.9
601.198	26304.45
601.395	26419.14
601.591	26517.44
601.787	26509.25
601.984	26185.67
602.18	26122.18
602.376	26316.74
602.572	26091.46
602.769	26382.27
602.965	25747.4
603.161	25745.36
603.357	25481.17
603.553	25726.92
603.75	25661.39
603.946	25460.69
604.142	25704.4
604.338	25188.31
604.534	25325.52
604.73	25122.77
604.926	24862.68
605.122	24979.42
605.318	24829.91
605.514	24836.06
605.71	24565.73
605.906	24971.22
606.102	24860.63
606.298	24670.17
606.494	24436.7
606.69	24301.54
606.886	24578.01
607.082	24080.36
607.278	24651.74
607.474	24086.5
607.67	24287.2
607.866	23965.67
608.062	24672.22
608.257	23916.52
608.453	24031.21
608.649	24096.74
608.845	23982.06
609.041	23631.85
609.236	23930.86
609.432	23810.03
609.628	23859.18
609.824	23488.49
610.019	23355.38
610.215	23492.59
610.411	23554.03
610.606	23511.02
610.802	23437.3
610.998	23113.72
611.193	23379.95
611.389	23285.75
611.584	23033.85
611.78	23121.91
611.976	23074.81
612.171	22976.5
612.367	23042.04
612.562	23011.32
612.758	22644.73
612.953	22636.54
613.149	23054.33
613.344	22622.2
613.539	22951.93
613.735	22917.11
613.93	22521.85
614.126	22460.41
614.321	22597.63
614.517	22452.22
614.712	22269.95
614.907	22325.25
615.103	22638.59
615.298	22130.69
615.493	22738.94
615.688	22228.99
615.884	22536.19
616.079	21751.82
616.274	22362.11
616.47	22198.27
616.665	21950.47
616.86	21776.39
617.055	21948.42
617.25	21731.34
617.445	21698.57
617.641	21485.58
617.836	21461.01
618.031	21352.46
618.226	21669.9
618.421	21495.82
618.616	21575.69
618.811	20834.33
619.006	21325.84
619.201	20836.38
619.396	21319.7
619.591	20961.3
619.786	21014.55
619.981	20631.58
620.176	20975.64
620.371	20592.67
620.566	20559.9
620.761	20424.73
620.956	20688.92
621.151	20351.01
621.346	20271.14
621.541	19894.31
621.735	20221.98
621.93	19861.54
622.125	20013.09
622.32	19558.44
622.515	19882.02
622.709	19666.99
622.904	19564.59
623.099	19599.4
623.294	19138.61
623.488	19191.86
623.683	19351.6
623.878	18710.58
624.072	18864.18
624.267	19025.97
624.462	18593.85
624.656	18440.25
624.851	18587.71
625.046	18655.29
625.24	18556.99
625.435	18229.31
625.629	18366.53
625.824	18108.48
626.018	17758.28
626.213	17508.43
626.407	17721.41
626.602	17582.15
626.796	17799.24
626.991	17508.43
627.185	17428.56
627.38	17387.6
627.574	17287.25
627.768	17002.58
627.963	17168.46
628.157	17078.35
628.352	16996.43
628.546	16496.73
628.74	16785.49
628.935	16490.59
629.129	16695.38
629.323	16371.8
629.517	16253.02
629.712	16121.95
629.906	16281.69
630.1	16054.37
630.294	16058.46
630.489	15714.41
630.683	15808.61
630.877	15736.93
631.071	15448.17
631.265	15458.41
631.459	15218.8
631.653	15349.87
631.848	15362.15
632.042	15327.34
632.236	15247.47
632.43	14878.83
632.624	14897.27
632.818	15016.05
633.012	14698.61
633.206	14766.2
633.4	14846.07
633.594	14602.36
633.788	14612.6
633.982	14444.66
634.176	14596.21
634.369	14219.39
634.563	14231.68
634.757	14139.52
634.951	14209.15
635.145	14018.69
635.339	14000.26
635.533	13811.84
635.726	13832.32
635.92	13623.43
636.114	13594.76
636.308	13701.25
636.501	13635.72
636.695	13408.39
636.889	13209.74
637.083	13330.57
637.276	13256.84
637.47	13097.1
637.664	13043.85
637.857	13037.71
638.051	12914.83
638.244	12822.67
638.438	12746.9
638.632	13027.47
638.825	12478.61
639.019	12632.21
639.212	12488.85
639.406	12521.62
639.599	12470.42
639.793	12347.54
639.986	12290.2
640.18	12288.15
640.373	12056.73
640.567	11948.19
640.76	12169.37
640.954	11888.8
641.147	11862.18
641.34	11602.08
641.534	11882.66
641.727	11825.31
641.92	11610.28
642.114	11651.24
642.307	11489.45
642.5	11352.23
642.694	11323.56
642.887	11536.55
643.08	11407.53
643.273	11258.03
643.467	11094.19
643.66	11196.59
643.853	10979.5
644.046	10731.7
644.239	10743.99
644.432	10741.94
644.626	10870.96
644.819	10676.4
645.012	10629.3
645.205	10582.2
645.398	10531
645.591	10428.6
645.784	10453.17
645.977	10293.43
646.17	10377.4
646.363	10154.17
646.556	10139.83
646.749	10123.45
646.942	10078.4
647.135	10352.82
647.328	9984.19
647.521	9828.54
647.714	9722.05
647.907	9869.5
648.099	9865.41
648.292	9871.55
648.485	9730.24
648.678	9611.46
648.871	9414.85
649.064	9547.97
649.256	9447.62
649.449	9365.7
649.642	9341.13
649.835	9349.32
650.027	9269.45
650.22	9136.33
650.413	8878.29
650.605	9242.82
650.798	8982.73
650.991	9078.99
651.183	9111.75
651.376	8775.89
651.568	8878.29
651.761	8759.5
651.954	8812.75
652.146	8952.01
652.339	8739.02
652.531	8767.7
652.724	8550.61
652.916	8526.04
653.109	8548.56
653.301	8558.8
653.494	8556.75
653.686	8327.38
653.879	8411.35
654.071	8374.49
654.263	8184.02
654.456	8204.5
654.648	8177.88
654.84	8063.19
655.033	7940.32
655.225	8087.77
655.417	7823.58
655.61	8061.15
655.802	7833.82
655.994	7776.48
656.186	7784.67
656.379	7811.29
656.571	7727.33
656.763	7592.16
656.955	7756
657.148	7682.27
657.34	7631.07
657.532	7463.14
657.724	7442.66
657.916	7446.76
658.108	7457
658.3	7221.48
658.492	7268.58
658.684	7192.81
658.876	7176.42
659.068	7133.42
659.26	7235.81
659.452	7244.01
659.644	7143.66
659.836	7110.89
660.028	7119.08
660.22	6908.14
660.412	7096.55
660.604	6818.03
660.796	6953.2
660.988	6871.28
661.18	6785.26
661.372	6643.95
661.563	6723.82
661.755	6625.52
661.947	6668.53
662.139	6531.31
662.331	6594.8
662.522	6516.98
662.714	6551.79
662.906	6396.15
663.097	6473.97
663.289	6480.11
663.481	6473.97
663.673	6484.21
663.864	6357.24
664.056	6324.47
664.247	6181.11
664.439	6189.3
664.631	5972.22
664.822	6338.8
665.014	6056.18
665.205	6091
665.397	6174.97
665.588	5984.51
665.78	5945.59
665.971	6007.03
666.163	5966.07
666.354	5906.68
666.546	5751.04
666.737	5880.06
666.929	5841.15
667.12	5828.86
667.311	5841.15
667.503	5826.81
667.694	5873.92
667.885	5855.48
668.077	5675.26
668.268	5654.78
668.459	5716.22
668.651	5648.64
668.842	5630.21
669.033	5615.87
669.224	5568.77
669.416	5628.16
669.607	5523.71
669.798	5429.51
669.989	5693.69
670.18	5302.53
670.371	5474.56
670.563	5396.74
670.754	5415.17
670.945	5413.12
671.136	5269.76
671.327	5320.96
671.518	5271.81
671.709	5247.24
671.9	5306.63
672.091	5468.42
672.282	5218.57
672.473	5314.82
672.664	5189.89
672.855	5185.8
673.046	5112.07
673.237	5251.33
673.428	5005.58
673.619	5064.97
673.809	5130.5
674	4954.38
674.191	5136.65
674.382	4981
674.573	5056.78
674.764	4874.51
674.954	4960.52
675.145	4950.28
675.336	4708.62
675.527	4833.55
675.717	4811.02
675.908	4911.37
676.099	4792.59
676.289	4821.26
676.48	4952.33
676.671	4827.4
676.861	4774.16
677.052	4716.81
677.243	4649.23
677.433	4684.05
677.624	4860.17
677.814	4702.48
678.005	4827.4
678.195	4614.41
678.386	4763.92
678.576	4659.47
678.767	4600.08
678.957	4671.76
679.148	4657.42
679.338	4620.56
679.529	4587.79
679.719	4757.77
679.909	4563.22
680.1	4641.04
680.29	4817.16
680.481	4557.07
680.671	4622.61
680.861	4481.3
681.052	4530.45
681.242	4512.02
681.432	4688.14
681.622	4512.02
681.813	4577.55
682.003	4534.54
682.193	4466.96
682.383	4438.29
682.573	4378.9
682.764	4452.63
682.954	4563.22
683.144	4380.95
683.334	4481.3
683.524	4452.63
683.714	4364.56
683.904	4348.18
684.094	4507.92
684.284	4479.25
684.474	4413.71
684.664	4329.75
684.854	4342.04
685.044	4378.9
685.234	4319.51
685.424	4352.27
685.614	4290.84
685.804	4272.4
685.994	4366.61
686.184	4172.05
686.374	4174.1
686.564	4129.05
686.753	4258.07
686.943	4141.33
687.133	4145.43
687.323	4153.62
687.513	4280.6
687.702	3963.16
687.892	4163.86
688.082	4167.96
688.272	4163.86
688.461	3989.78
688.651	4118.81
688.841	4092.18
689.03	4096.28
689.22	4028.7
689.41	3981.59
689.599	4040.98
689.789	3989.78
689.979	3936.54
690.168	4045.08
690.358	3901.72
690.547	3862.81
690.737	4020.5
690.926	3997.98
691.116	3823.9
691.305	3905.82
691.495	3793.18
691.684	3881.24
691.874	3834.14
692.063	3641.63
692.252	3803.42
692.442	3772.7
692.631	3744.03
692.82	3858.71
693.01	3672.35
693.199	3809.56
693.388	3684.64
693.578	3678.49
693.767	3688.73
693.956	3598.62
694.146	3645.73
694.335	3662.11
694.524	3694.88
694.713	3721.5
694.902	3594.53
695.092	3662.11
695.281	3572
695.47	3623.2
695.659	3481.89
695.848	3524.9
696.037	3488.03
696.226	3516.7
696.415	3561.76
696.604	3539.23
696.793	3580.19
696.982	3410.21
697.171	3496.22
697.36	3514.66
697.549	3471.65
697.738	3381.54
697.927	3408.16
698.116	3500.32
698.305	3531.04
698.494	3576.09
698.683	3455.26
698.872	3557.66
699.061	3447.07
699.25	3432.74
699.438	3418.4
699.627	3467.55
699.816	3361.06
700.005	3451.17
700.193	3377.44
700.382	3422.5
700.571	3457.31
700.76	3379.49
700.948	3455.26
701.137	3424.55
701.326	3524.9
701.514	3293.48
701.703	3367.2
701.892	3256.61
702.08	3324.19
702.269	3307.81
702.457	3383.59
702.646	3316
702.834	3397.92
703.023	3391.78
703.212	3350.82
703.4	3324.19
703.589	3258.66
703.777	3455.26
703.965	3406.11
704.154	3313.95
704.342	3291.43
704.531	3318.05
704.719	3287.33
704.907	3229.99
705.096	3256.61
705.284	3356.96
705.472	3250.47
705.661	3379.49
705.849	3371.3
706.037	3221.8
706.226	3348.77
706.414	3211.56
706.602	3340.58
706.79	3311.91
706.979	3311.91
707.167	3330.34
707.355	3297.57
707.543	3146.02
707.731	3350.82
707.919	3256.61
708.107	3348.77
708.296	3234.08
708.484	3240.23
708.672	3377.44
708.86	3184.93
709.048	3440.93
709.236	3316
709.424	3348.77
709.612	3313.95
709.8	3377.44
709.988	3352.87
710.176	3295.52
710.364	3176.74
710.551	3254.56
710.739	3209.51
710.927	3418.4
711.115	3279.14
711.303	3254.56
711.491	3242.28
711.679	3127.59
711.866	3332.39
712.054	3348.77
712.242	3266.85
712.43	3365.15
712.617	3238.18
712.805	3334.43
712.993	3213.6
713.181	3139.88
713.368	3248.42
713.556	3291.43
713.744	3178.79
713.931	3356.96
714.119	3201.32
714.306	3344.67
714.494	3254.56
714.682	3342.63
714.869	3266.85
715.057	3193.12
715.244	3189.03
715.432	3334.43
715.619	3246.37
715.807	3229.99
715.994	3311.91
716.182	3281.19
716.369	3279.14
716.556	3371.3
716.744	3217.7
716.931	3328.29
717.119	3234.08
717.306	3414.31
717.493	3258.66
717.681	3262.76
717.868	3154.21
718.055	3334.43
718.242	3256.61
718.43	3342.63
718.617	3262.76
718.804	3281.19
718.991	3330.34
719.179	3244.32
719.366	3297.57
719.553	3217.7
719.74	3193.12
719.927	3305.76
720.114	3172.64
720.301	3068.2
720.488	3359.01
720.676	3178.79
720.863	3232.04
721.05	3295.52
721.237	3250.47
721.424	3121.45
721.611	3156.26
721.798	3098.92
721.985	3283.24
722.172	3078.44
722.358	3168.55
722.545	3316
722.732	3182.88
722.919	3250.47
723.106	3148.07
723.293	3189.03
723.48	3311.91
723.667	3137.83
723.853	3139.88
724.04	3254.56
724.227	3252.52
724.414	3232.04
724.6	3068.2
724.787	3090.73
724.974	3227.94
725.161	3299.62
725.347	3123.49
725.534	3238.18
725.72	3164.45
725.907	3168.55
726.094	3139.88
726.28	3023.14
726.467	3172.64
726.653	3168.55
726.84	3117.35
727.027	3117.35
727.213	3207.46
727.4	3070.25
727.586	3127.59
727.773	3057.96
727.959	3148.07
728.145	3156.26
728.332	3232.04
728.518	3176.74
728.705	3184.93
728.891	3060.01
729.077	3186.98
729.264	3006.76
729.45	3172.64
729.636	3107.11
729.823	3121.45
730.009	3113.25
730.195	2971.94
730.382	3119.4
730.568	3135.78
730.754	3098.92
730.94	3182.88
731.126	3047.72
731.313	3092.77
731.499	3035.43
731.685	2963.75
731.871	3006.76
732.057	3031.34
732.243	3006.76
732.429	2959.66
732.615	3156.26
732.801	3090.73
732.987	3041.57
733.173	3105.06
733.359	2939.18
733.545	3035.43
733.731	3002.66
733.917	3082.53
734.103	3019.05
734.289	2994.47
734.475	3006.76
734.661	3031.34
734.847	3041.57
735.033	2871.59
735.219	3014.95
735.404	2826.54
735.59	2906.41
735.776	2959.66
735.962	2969.9
736.148	2947.37
736.333	3037.48
736.519	2918.7
736.705	2959.66
736.89	2984.23
737.076	2945.32
737.262	2851.11
737.447	2939.18
737.633	2941.22
737.819	2865.45
738.004	2830.63
738.19	2902.31
738.375	2935.08
738.561	2918.7
738.747	2832.68
738.932	2902.31
739.118	2865.45
739.303	2763.05
739.489	2808.11
739.674	2769.2
739.859	2816.3
740.045	2666.8
740.23	2816.3
740.416	2695.47
740.601	2724.14
740.786	2758.96
740.972	2648.36
741.157	2801.96
741.342	2840.87
741.528	2677.04
741.713	2801.96
741.898	2775.34
742.084	2699.56
742.269	2674.99
742.454	2734.38
742.639	2683.18
742.824	2646.32
743.01	2709.8
743.195	2527.53
743.38	2543.92
743.565	2584.88
743.75	2746.67
743.935	2556.21
744.12	2613.55
744.305	2478.38
744.49	2490.67
744.675	2472.24
744.86	2523.44
745.045	2539.82
745.23	2410.8
745.415	2496.82
745.6	2474.29
745.785	2416.94
745.97	2421.04
746.155	2369.84
746.34	2457.9
746.525	2324.79
746.71	2513.2
746.895	2382.13
747.079	2482.48
747.264	2373.94
747.449	2384.18
747.634	2320.69
747.819	2263.35
748.003	2277.68
748.188	2246.96
748.373	2208.05
748.557	2337.07
748.742	2091.32
748.927	2242.87
749.111	2187.57
749.296	2099.51
749.481	2142.52
749.665	2103.61
749.85	2148.66
750.034	2128.18
750.219	2138.42
750.404	2105.65
750.588	2042.17
750.773	2089.27
750.957	2130.23
751.141	2060.6
751.326	1993.01
751.51	2048.31
751.695	2029.88
751.879	1935.67
752.064	1995.06
752.248	1997.11
752.432	1960.25
752.617	1929.53
752.801	2066.74
752.985	1870.14
753.17	1972.54
753.354	1841.47
753.538	1997.11
753.722	1882.42
753.907	1890.62
754.091	1769.79
754.275	1888.57
754.459	1851.71
754.643	1808.7
754.828	1788.22
755.012	1765.69
755.196	1788.22
755.38	1689.92
755.564	1673.53
755.748	1653.05
755.932	1706.3
756.116	1644.86
756.3	1720.64
756.484	1632.57
756.668	1665.34
756.852	1558.85
757.036	1610.04
757.22	1706.3
757.404	1636.67
757.588	1511.74
757.772	1665.34
757.956	1739.07
758.14	1564.99
758.323	1581.37
758.507	1499.45
758.691	1540.41
758.875	1583.42
759.059	1542.46
759.242	1513.79
759.426	1472.83
759.61	1429.82
759.794	1497.41
759.977	1456.45
760.161	1464.64
760.345	1485.12
760.528	1474.88
760.712	1468.73
760.895	1464.64
761.079	1423.68
761.263	1243.46
761.446	1327.43
761.63	1464.64
761.813	1335.62
761.997	1368.38
762.18	1315.14
762.364	1401.15
762.547	1335.62
762.731	1360.19
762.914	1341.76
763.098	1341.76
763.281	1343.81
763.464	1237.31
763.648	1399.1
763.831	1292.61
764.015	1308.99
764.198	1384.77
764.381	1308.99
764.564	1345.86
764.748	1327.43
764.931	1255.75
765.114	1306.95
765.297	1325.38
765.481	1165.64
765.664	1188.16
765.847	1231.17
766.03	1157.44
766.213	1165.64
766.397	1259.84
766.58	1243.46
766.763	1216.83
766.946	1163.59
767.129	1161.54
767.312	1073.48
767.495	1284.42
767.678	1208.64
767.861	1165.64
768.044	1169.73
768.227	1229.12
768.41	1126.72
768.593	1165.64
768.776	1182.02
768.959	1153.35
769.142	1192.26
769.324	1120.58
769.507	1124.68
769.69	1126.72
769.873	1048.9
770.056	1210.69
770.239	1071.43
770.421	1157.44
770.604	1087.81
770.787	1071.43
770.97	1071.43
771.152	1044.81
771.335	1038.66
771.518	1032.52
771.7	1108.29
771.883	1130.82
772.066	1038.66
772.248	1024.33
772.431	1034.57
772.613	1139.01
772.796	928.07
772.978	1003.85
773.161	1071.43
773.343	944.45
773.526	952.65
773.708	919.88
773.891	985.41
774.073	960.84
774.256	901.45
774.438	901.45
774.621	1009.99
774.803	917.83
774.985	911.69
775.168	833.86
775.35	966.98
775.532	987.46
775.715	948.55
775.897	958.79
776.079	842.06
776.261	919.88
776.444	854.34
776.626	858.44
776.808	880.97
776.99	817.48
777.173	805.19
777.355	858.44
777.537	883.02
777.719	844.1
777.901	819.53
778.083	860.49
778.265	729.42
778.447	835.91
778.629	780.62
778.811	743.75
778.993	815.43
779.175	891.21
779.357	721.23
779.539	735.56
779.721	772.43
779.903	919.88
780.085	731.47
780.267	735.56
780.449	776.52
780.631	698.7
780.812	710.99
780.994	745.8
781.176	694.6
781.358	717.13
781.54	743.75
781.721	678.22
781.903	741.71
782.085	659.79
782.267	721.23
782.448	702.79
782.63	708.94
782.812	600.4
782.993	629.07
783.175	788.81
783.357	608.59
783.538	624.97
783.72	588.11
783.901	659.79
784.083	629.07
784.264	618.83
784.446	594.25
784.627	516.43
784.809	592.2
784.99	641.36
785.172	602.44
785.353	602.44
785.535	600.4
785.716	624.97
785.897	543.05
786.079	575.82
786.26	610.64
786.441	551.24
786.623	518.48
786.804	575.82
786.985	545.1
787.167	579.92
787.348	647.5
787.529	528.72
787.71	602.44
787.891	541.01
788.073	543.05
788.254	465.23
788.435	504.14
788.616	467.28
788.797	426.32
788.978	485.71
789.159	469.33
789.34	518.48
789.522	450.89
789.703	510.29
789.884	428.37
790.065	407.89
790.246	467.28
790.427	422.22
790.607	436.56
790.788	502.09
790.969	485.71
791.15	510.29
791.331	452.94
791.512	399.7
791.693	485.71
791.874	471.37
792.054	467.28
792.235	395.6
792.416	510.29
792.597	422.22
792.778	481.61
792.958	379.22
793.139	418.13
793.32	383.31
793.5	368.98
793.681	487.76
793.862	403.79
794.042	420.17
794.223	375.12
794.404	469.33
794.584	358.74
794.765	379.22
794.945	418.13
795.126	440.65
795.306	381.26
795.487	442.7
795.667	393.55
795.848	356.69
796.028	368.98
796.209	407.89
796.389	401.74
796.57	391.5
796.75	313.68
796.93	366.93
797.111	303.44
797.291	373.07
797.471	334.16
797.652	395.6
797.832	360.78
798.012	342.35
798.192	366.93
798.373	289.1
798.553	371.02
798.733	291.15
798.913	346.45
799.093	295.25
799.274	364.88
799.454	366.93
799.634	285.01
799.814	354.64
799.994	360.78
800.174	323.92
800.354	358.74
800.534	315.73
800.714	313.68
800.894	348.5
801.074	321.87
801.254	268.63
801.434	305.49
801.614	358.74
801.794	317.78
801.974	854.34
802.154	262.48
802.334	285.01
802.514	225.62
802.693	299.34
802.873	229.71
803.053	358.74
803.233	334.16
803.413	252.24
803.592	307.54
803.772	289.1
803.952	280.91
804.131	321.87
804.311	336.21
804.491	293.2
804.67	276.82
804.85	244.05
805.03	252.24
805.209	270.67
805.389	287.06
805.568	342.35
805.748	166.23
805.928	244.05
806.107	248.15
806.287	246.1
806.466	356.69
806.646	260.43
806.825	250.19
807.004	307.54
807.184	282.96
807.363	219.47
807.543	233.81
807.722	215.38
807.901	309.58
808.081	280.91
808.26	276.82
808.439	194.9
808.619	223.57
808.798	215.38
808.977	231.76
809.156	313.68
809.336	242
809.515	293.2
809.694	209.23
809.873	293.2
810.052	260.43
810.231	174.42
810.411	252.24
810.59	299.34
810.769	313.68
810.948	293.2
811.127	215.38
811.306	211.28
811.485	287.06
811.664	198.99
811.843	194.9
812.022	260.43
812.201	166.23
812.38	262.48
812.559	266.58
812.737	229.71
812.916	180.56
813.095	272.72
813.274	305.49
813.453	176.47
813.632	219.47
813.811	293.2
813.989	211.28
814.168	244.05
814.347	201.04
814.526	186.71
814.704	225.62
814.883	252.24
815.062	213.33
815.24	211.28
815.419	242
815.598	258.39
815.776	127.32
815.955	244.05
816.133	168.27
816.312	164.18
816.49	254.29
816.669	182.61
816.847	207.19
817.026	147.8
817.204	205.14
817.383	272.72
817.561	172.37
817.74	217.43
817.918	186.71
818.097	155.99
818.275	209.23
818.453	258.39
818.632	231.76
818.81	221.52
818.988	186.71
819.167	155.99
819.345	166.23
819.523	158.03
819.701	176.47
819.879	110.93
820.058	192.85
820.236	162.13
820.414	172.37
820.592	158.03
820.77	196.95
820.948	164.18
821.127	178.51
821.305	188.75
821.483	164.18
821.661	213.33
821.839	196.95
822.017	147.8
822.195	121.17
822.373	203.09
822.551	155.99
822.729	198.99
822.907	133.46
823.085	137.56
823.262	196.95
823.44	112.98
823.618	201.04
823.796	174.42
823.974	141.65
824.152	143.7
824.329	141.65
824.507	258.39
824.685	205.14
824.863	170.32
825.04	162.13
825.218	213.33
825.396	166.23
825.574	133.46
825.751	166.23
825.929	207.19
826.107	16.73
826.284	104.79
826.462	176.47
826.639	57.68
826.817	78.16
826.994	139.6
827.172	153.94
827.349	139.6
827.527	172.37
827.704	188.75
827.882	125.27
828.059	198.99
828.237	26.96
828.414	272.72
828.591	41.3
828.769	182.61
828.946	39.25
829.124	221.52
829.301	76.12
829.478	69.97
829.655	96.6
829.833	100.69
830.01	115.03
830.187	110.93
830.364	172.37
830.542	55.64
830.719	98.64
830.896	162.13
831.073	82.26
831.25	141.65
831.427	149.84
831.604	112.98
831.782	104.79
831.959	72.02
832.136	100.69
832.313	115.03
832.49	47.44
832.667	176.47
832.844	90.45
833.021	147.8
833.198	80.21
833.374	141.65
833.551	61.78
833.728	129.36
833.905	174.42
834.082	108.88
834.259	129.36
834.436	147.8
834.612	51.54
834.789	174.42
834.966	131.41
835.143	188.75
835.319	72.02
835.496	80.21
835.673	76.12
835.85	131.41
836.026	76.12
836.203	137.56
836.38	108.88
836.556	37.2
836.733	80.21
836.909	131.41
837.086	41.3
837.262	115.03
837.439	110.93
837.616	69.97
837.792	55.64
837.968	96.6
838.145	63.83
838.321	90.45
838.498	51.54
838.674	178.51
838.851	47.44
839.027	47.44
839.203	29.01
839.38	92.5
839.556	45.4
839.732	164.18
839.909	125.27
840.085	158.03
840.261	55.64
840.437	115.03
840.614	117.08
840.79	149.84
840.966	117.08
841.142	43.35
841.318	53.59
841.494	86.36
841.671	119.12
841.847	67.92
842.023	72.02
842.199	104.79
842.375	133.46
842.551	78.16
842.727	55.64
842.903	131.41
843.079	88.4
843.255	84.31
843.431	127.32
843.607	96.6
843.783	67.92
843.959	53.59
844.134	106.84
844.31	155.99
844.486	41.3
844.662	59.73
844.838	117.08
845.013	112.98
845.189	39.25
845.365	125.27
845.541	112.98
845.716	100.69
845.892	115.03
846.068	106.84
846.244	76.12
846.419	76.12
846.595	69.97
846.77	29.01
846.946	69.97
847.122	108.88
847.297	129.36
847.473	82.26
847.648	-16.04
847.824	22.87
847.999	31.06
848.175	8.53
848.35	106.84
848.526	106.84
848.701	86.36
848.876	84.31
849.052	96.6
849.227	108.88
849.403	100.69
849.578	141.65
849.753	82.26
849.929	26.96
850.104	72.02
850.279	121.17
850.454	98.64
850.63	59.73
850.805	18.77
850.98	74.07
851.155	76.12
851.33	33.11
851.505	49.49
851.681	121.17
851.856	84.31
852.031	84.31
852.206	90.45
852.381	37.2
852.556	104.79
852.731	59.73
852.906	92.5
853.081	96.6
853.256	121.17
853.431	86.36
853.606	49.49
853.781	57.68
853.956	8.53
854.131	121.17
854.305	72.02
854.48	100.69
854.655	2.39
854.83	90.45
855.005	35.16
855.18	49.49
855.354	74.07
855.529	-16.04
855.704	57.68
855.879	102.74
856.053	55.64
856.228	135.51
856.403	0.34
856.577	119.12
856.752	74.07
856.926	117.08
857.101	35.16
857.276	102.74
857.45	92.5
857.625	57.68
857.799	39.25
857.974	69.97
858.148	31.06
858.323	72.02
858.497	51.54
858.672	-26.28
858.846	20.82
859.02	141.65
859.195	80.21
859.369	102.74
859.543	59.73
859.718	51.54
859.892	47.44
860.066	20.82
860.241	92.5
860.415	31.06
860.589	22.87
860.763	90.45
860.938	-5.8
861.112	82.26
861.286	33.11
861.46	24.92
861.634	121.17
861.808	80.21
861.982	82.26
862.157	115.03
862.331	57.68
862.505	41.3
862.679	0.34
862.853	67.92
863.027	22.87
863.201	80.21
863.375	112.98
863.549	92.5
863.722	59.73
863.896	90.45
864.07	0.34
864.244	78.16
864.418	41.3
864.592	100.69
864.766	14.68
864.939	29.01
865.113	49.49
865.287	117.08
865.461	0.34
865.634	108.88
865.808	6.49
865.982	63.83
866.156	29.01
866.329	78.16
866.503	-5.8
866.676	119.12
866.85	74.07
867.024	47.44
867.197	59.73
867.371	22.87
867.544	-7.85
867.718	-13.99
867.891	-9.9
868.065	100.69
868.238	8.53
868.412	-36.52
868.585	63.83
868.759	2.39
868.932	47.44
869.105	49.49
869.279	74.07
869.452	67.92
869.625	117.08
869.799	2.39
869.972	65.88
870.145	29.01
870.319	33.11
870.492	67.92
870.665	4.44
870.838	-18.09
871.011	-36.52
871.185	35.16
871.358	18.77
871.531	69.97
871.704	14.68
871.877	10.58
872.05	16.73
872.223	41.3
872.396	47.44
872.569	139.6
872.742	0.34
872.915	145.75
873.088	-34.47
873.261	49.49
873.434	-5.8
873.607	53.59
873.78	45.4
873.953	26.96
874.126	80.21
874.299	67.92
874.471	6.49
874.644	-18.09
874.817	72.02
874.99	49.49
875.163	12.63
875.335	84.31
875.508	26.96
875.681	47.44
875.853	24.92
876.026	35.16
876.199	61.78
876.371	53.59
876.544	29.01
876.717	-11.95
876.889	33.11
877.062	-46.76
877.234	14.68
877.407	76.12
877.579	-11.95
877.752	6.49
877.924	88.4
878.097	55.64
878.269	31.06
878.442	0.34
878.614	22.87
878.786	47.44
878.959	-30.38
879.131	39.25
879.303	-46.76
879.476	-1.71
879.648	49.49
879.82	41.3
879.993	47.44
880.165	2.39
880.337	2.39
880.509	80.21
880.681	-42.67
880.854	92.5
881.026	18.77
881.198	55.64
881.37	-1.71
881.542	26.96
881.714	-7.85
881.886	92.5
882.058	0.34
882.23	59.73
882.402	39.25
882.574	53.59
882.746	84.31
882.918	8.53
883.09	20.82
883.262	57.68
883.434	-30.38
883.606	39.25
883.778	43.35
883.95	117.08
884.122	-20.14
884.293	82.26
884.465	108.88
884.637	92.5
884.809	-57
884.98	92.5
885.152	26.96
885.324	55.64
885.496	51.54
885.667	65.88
885.839	22.87
886.011	86.36
886.182	49.49
886.354	10.58
886.525	2.39
886.697	18.77
886.869	-5.8
887.04	119.12
887.212	59.73
887.383	145.75
887.555	39.25
887.726	6.49
887.897	24.92
888.069	2.39
888.24	-1.71
888.412	26.96
888.583	-22.19
888.754	0.34
888.926	26.96
889.097	53.59
889.268	-28.33
889.44	22.87
889.611	-91.82
889.782	8.53
889.953	43.35
890.125	41.3
890.296	18.77
890.467	33.11
890.638	-5.8
890.809	84.31
890.98	78.16
891.151	96.6
891.323	47.44
891.494	45.4
891.665	33.11
891.836	31.06
892.007	14.68
892.178	57.68
892.349	33.11
892.52	26.96
892.691	84.31
892.862	-13.99
893.032	12.63
893.203	51.54
893.374	-1.71
893.545	6.49
893.716	84.31
893.887	37.2
894.057	88.4
894.228	55.64
894.399	43.35
894.57	80.21
894.74	14.68
894.911	43.35
895.082	-7.85
895.253	8.53
895.423	-16.04
895.594	78.16
895.764	10.58
895.935	41.3
896.106	74.07
896.276	22.87
896.447	-13.99
896.617	-3.75
896.788	4.44
896.958	47.44
897.129	33.11
897.299	-36.52
897.47	108.88
897.64	74.07
897.81	92.5
897.981	49.49
898.151	12.63
898.322	49.49
898.492	43.35
898.662	0.34
898.832	53.59
899.003	51.54
899.173	33.11
899.343	-26.28
899.513	24.92
