Data from USB4F104151__120__10-25-04-715.txt Node

Date: Wed Mar 12 10:25:04 EDT 2025
User: louis
Spectrometer: USB4F10415
Trigger mode: 4
Integration Time (sec): 3.000000E-2
Scans to average: 1
Electric dark correction enabled: true
Nonlinearity correction enabled: false
Boxcar width: 0
XAxis mode: Wavelengths
Number of Pixels in Spectrum: 3648
>>>>>Begin Spectral Data<<<<<
178.204	-98.47
178.424	-98.47
178.644	-98.47
178.864	-49.32
179.084	-88.23
179.304	-123.05
179.524	-16.55
179.744	3.93
179.964	75.6
180.184	8.02
180.404	71.51
180.624	20.31
180.844	-10.41
181.064	-45.23
181.283	28.5
181.503	12.12
181.723	-24.75
181.943	-37.03
182.163	55.12
182.383	12.12
182.602	36.69
182.822	3.93
183.042	53.08
183.262	12.12
183.482	81.75
183.701	20.31
183.921	44.88
184.141	-22.7
184.361	36.69
184.58	32.6
184.8	12.12
185.02	-20.65
185.239	22.36
185.459	36.69
185.679	67.41
185.898	32.6
186.118	26.45
186.338	40.79
186.557	61.27
186.777	-49.32
186.997	79.7
187.216	16.21
187.436	51.03
187.655	57.17
187.875	153.43
188.095	-18.6
188.314	30.55
188.534	96.08
188.753	-28.84
188.973	34.64
189.192	85.84
189.412	-16.55
189.631	55.12
189.851	32.6
190.07	85.84
190.29	-43.18
190.509	67.41
190.729	44.88
190.948	20.31
191.168	171.86
191.387	71.51
191.607	-6.31
191.826	40.79
192.045	28.5
192.265	8.02
192.484	-26.79
192.704	57.17
192.923	20.31
193.142	79.7
193.362	36.69
193.581	-2.22
193.8	83.8
194.02	44.88
194.239	112.47
194.458	8.02
194.678	75.6
194.897	-2.22
195.116	12.12
195.335	48.98
195.555	32.6
195.774	48.98
195.993	77.65
196.212	48.98
196.432	40.79
196.651	77.65
196.87	-45.23
197.089	83.8
197.308	40.79
197.528	57.17
197.747	42.84
197.966	-24.75
198.185	87.89
198.404	3.93
198.623	-12.46
198.842	22.36
199.062	110.42
199.281	36.69
199.5	-6.31
199.719	-0.17
199.938	46.93
200.157	-6.31
200.376	51.03
200.595	79.7
200.814	73.56
201.033	-39.08
201.252	44.88
201.471	32.6
201.69	59.22
201.909	40.79
202.128	-20.65
202.347	67.41
202.566	-16.55
202.785	-20.65
203.004	59.22
203.223	98.13
203.442	79.7
203.661	34.64
203.879	102.23
204.098	87.89
204.317	-16.55
204.536	57.17
204.755	18.26
204.974	1.88
205.193	3.93
205.411	63.32
205.63	26.45
205.849	40.79
206.068	-22.7
206.287	28.5
206.505	51.03
206.724	79.7
206.943	-20.65
207.162	51.03
207.381	53.08
207.599	-12.46
207.818	16.21
208.037	53.08
208.255	53.08
208.474	53.08
208.693	-6.31
208.911	98.13
209.13	34.64
209.349	122.71
209.567	53.08
209.786	67.41
210.005	44.88
210.223	-53.42
210.442	14.17
210.661	26.45
210.879	42.84
211.098	18.26
211.316	61.27
211.535	69.46
211.753	77.65
211.972	1.88
212.191	34.64
212.409	-8.36
212.628	51.03
212.846	51.03
213.065	36.69
213.283	48.98
213.502	-4.27
213.72	46.93
213.938	10.07
214.157	48.98
214.375	-24.75
214.594	10.07
214.812	57.17
215.031	40.79
215.249	28.5
215.467	44.88
215.686	40.79
215.904	55.12
216.122	36.69
216.341	-20.65
216.559	40.79
216.778	83.8
216.996	61.27
217.214	44.88
217.432	22.36
217.651	40.79
217.869	18.26
218.087	22.36
218.306	12.12
218.524	81.75
218.742	48.98
218.96	53.08
219.179	3.93
219.397	38.74
219.615	110.42
219.833	61.27
220.051	51.03
220.27	40.79
220.488	75.6
220.706	73.56
220.924	-8.36
221.142	36.69
221.36	55.12
221.578	59.22
221.796	3.93
222.015	75.6
222.233	51.03
222.451	48.98
222.669	-4.27
222.887	69.46
223.105	-53.42
223.323	20.31
223.541	-90.28
223.759	40.79
223.977	69.46
224.195	124.76
224.413	10.07
224.631	22.36
224.849	-22.7
225.067	57.17
225.285	-65.71
225.503	-0.17
225.721	-18.6
225.939	48.98
226.157	12.12
226.375	221.01
226.592	-12.46
226.81	46.93
227.028	44.88
227.246	-0.17
227.464	-45.23
227.682	55.12
227.9	3.93
228.117	65.36
228.335	38.74
228.553	26.45
228.771	-34.99
228.989	77.65
229.206	-4.27
229.424	44.88
229.642	24.4
229.86	-6.31
230.077	51.03
230.295	30.55
230.513	24.4
230.731	38.74
230.948	145.24
231.166	67.41
231.384	-14.51
231.601	96.08
231.819	77.65
232.037	42.84
232.254	42.84
232.472	12.12
232.689	77.65
232.907	106.32
233.125	61.27
233.342	-4.27
233.56	20.31
233.777	100.18
233.995	57.17
234.213	51.03
234.43	44.88
234.648	3.93
234.865	16.21
235.083	12.12
235.3	12.12
235.518	63.32
235.735	24.4
235.953	34.64
236.17	57.17
236.388	16.21
236.605	75.6
236.822	102.23
237.04	71.51
237.257	57.17
237.475	-16.55
237.692	69.46
237.909	65.36
238.127	34.64
238.344	16.21
238.562	48.98
238.779	108.37
238.996	48.98
239.214	67.41
239.431	51.03
239.648	44.88
239.865	55.12
240.083	14.17
240.3	81.75
240.517	96.08
240.735	-8.36
240.952	22.36
241.169	53.08
241.386	59.22
241.603	106.32
241.821	28.5
242.038	-0.17
242.255	28.5
242.472	69.46
242.689	75.6
242.907	42.84
243.124	46.93
243.341	-0.17
243.558	36.69
243.775	46.93
243.992	-41.13
244.209	118.61
244.426	91.99
244.643	102.23
244.86	40.79
245.078	57.17
245.295	-12.46
245.512	57.17
245.729	44.88
245.946	87.89
246.163	73.56
246.38	48.98
246.597	20.31
246.814	-6.31
247.031	26.45
247.248	96.08
247.464	53.08
247.681	12.12
247.898	71.51
248.115	-47.27
248.332	-43.18
248.549	28.5
248.766	61.27
248.983	89.94
249.2	-4.27
249.417	18.26
249.633	57.17
249.85	16.21
250.067	75.6
250.284	73.56
250.501	28.5
250.717	3.93
250.934	85.84
251.151	-20.65
251.368	81.75
251.585	143.19
251.801	57.17
252.018	-12.46
252.235	100.18
252.451	-22.7
252.668	69.46
252.885	51.03
253.102	69.46
253.318	48.98
253.535	-55.47
253.752	-14.51
253.968	-47.27
254.185	36.69
254.401	12.12
254.618	-10.41
254.835	20.31
255.051	126.8
255.268	40.79
255.484	36.69
255.701	-14.51
255.917	-8.36
256.134	81.75
256.351	55.12
256.567	77.65
256.784	20.31
257	-37.03
257.217	44.88
257.433	89.94
257.65	77.65
257.866	57.17
258.082	16.21
258.299	48.98
258.515	59.22
258.732	61.27
258.948	34.64
259.165	22.36
259.381	36.69
259.597	18.26
259.814	83.8
260.03	28.5
260.246	145.24
260.463	3.93
260.679	48.98
260.895	57.17
261.112	46.93
261.328	75.6
261.544	24.4
261.761	85.84
261.977	24.4
262.193	-4.27
262.409	10.07
262.626	28.5
262.842	42.84
263.058	-22.7
263.274	65.36
263.49	34.64
263.707	48.98
263.923	30.55
264.139	28.5
264.355	28.5
264.571	42.84
264.787	73.56
265.004	36.69
265.22	61.27
265.436	20.31
265.652	53.08
265.868	16.21
266.084	-41.13
266.3	83.8
266.516	-18.6
266.732	48.98
266.948	91.99
267.164	94.04
267.38	20.31
267.596	-39.08
267.812	42.84
268.028	10.07
268.244	53.08
268.46	79.7
268.676	44.88
268.892	57.17
269.108	116.56
269.324	-10.41
269.54	-65.71
269.756	-4.27
269.972	-39.08
270.188	38.74
270.403	5.97
270.619	20.31
270.835	44.88
271.051	118.61
271.267	20.31
271.483	28.5
271.698	116.56
271.914	48.98
272.13	53.08
272.346	12.12
272.562	20.31
272.777	130.9
272.993	40.79
273.209	3.93
273.425	77.65
273.64	16.21
273.856	79.7
274.072	28.5
274.287	28.5
274.503	65.36
274.719	46.93
274.934	44.88
275.15	3.93
275.366	20.31
275.581	24.4
275.797	-22.7
276.012	18.26
276.228	57.17
276.444	61.27
276.659	-4.27
276.875	-22.7
277.09	30.55
277.306	85.84
277.521	32.6
277.737	28.5
277.952	128.85
278.168	42.84
278.383	18.26
278.599	75.6
278.814	34.64
279.03	-37.03
279.245	57.17
279.461	40.79
279.676	81.75
279.892	-41.13
280.107	12.12
280.322	36.69
280.538	106.32
280.753	-47.27
280.969	44.88
281.184	108.37
281.399	159.57
281.615	75.6
281.83	108.37
282.045	-24.75
282.26	48.98
282.476	-28.84
282.691	57.17
282.906	34.64
283.122	61.27
283.337	3.93
283.552	44.88
283.767	63.32
283.983	3.93
284.198	122.71
284.413	116.56
284.628	53.08
284.843	57.17
285.058	53.08
285.274	22.36
285.489	24.4
285.704	67.41
285.919	28.5
286.134	44.88
286.349	-4.27
286.564	-8.36
286.779	89.94
286.995	81.75
287.21	59.22
287.425	24.4
287.64	77.65
287.855	51.03
288.07	-18.6
288.285	100.18
288.5	116.56
288.715	24.4
288.93	14.17
289.145	83.8
289.36	83.8
289.575	36.69
289.79	42.84
290.004	85.84
290.219	67.41
290.434	91.99
290.649	24.4
290.864	69.46
291.079	51.03
291.294	65.36
291.509	51.03
291.724	12.12
291.938	18.26
292.153	53.08
292.368	59.22
292.583	67.41
292.798	44.88
293.012	77.65
293.227	-20.65
293.442	83.8
293.657	85.84
293.871	32.6
294.086	55.12
294.301	96.08
294.516	5.97
294.73	18.26
294.945	18.26
295.16	106.32
295.374	57.17
295.589	147.28
295.804	-20.65
296.018	40.79
296.233	40.79
296.447	44.88
296.662	3.93
296.877	42.84
297.091	38.74
297.306	40.79
297.52	40.79
297.735	12.12
297.949	-6.31
298.164	94.04
298.378	34.64
298.593	69.46
298.807	-41.13
299.022	20.31
299.236	40.79
299.451	110.42
299.665	26.45
299.88	53.08
300.094	94.04
300.309	18.26
300.523	-28.84
300.737	40.79
300.952	46.93
301.166	106.32
301.381	8.02
301.595	69.46
301.809	55.12
302.024	59.22
302.238	-12.46
302.452	126.8
302.667	65.36
302.881	75.6
303.095	94.04
303.309	85.84
303.524	-0.17
303.738	-12.46
303.952	1.88
304.166	114.52
304.381	-20.65
304.595	87.89
304.809	59.22
305.023	12.12
305.237	26.45
305.452	-47.27
305.666	63.32
305.88	100.18
306.094	51.03
306.308	112.47
306.522	57.17
306.736	135
306.95	61.27
307.164	24.4
307.379	-12.46
307.593	102.23
307.807	34.64
308.021	28.5
308.235	100.18
308.449	-41.13
308.663	69.46
308.877	147.28
309.091	79.7
309.305	77.65
309.519	-2.22
309.733	-8.36
309.947	36.69
310.161	53.08
310.374	20.31
310.588	116.56
310.802	-20.65
311.016	32.6
311.23	36.69
311.444	91.99
311.658	26.45
311.872	85.84
312.085	24.4
312.299	18.26
312.513	77.65
312.727	-0.17
312.941	18.26
313.154	-20.65
313.368	81.75
313.582	102.23
313.796	-47.27
314.009	36.69
314.223	67.41
314.437	44.88
314.651	28.5
314.864	34.64
315.078	40.79
315.292	53.08
315.505	40.79
315.719	98.13
315.933	128.85
316.146	116.56
316.36	98.13
316.573	36.69
316.787	59.22
317.001	48.98
317.214	57.17
317.428	48.98
317.641	96.08
317.855	67.41
318.068	22.36
318.282	110.42
318.495	53.08
318.709	53.08
318.922	18.26
319.136	104.28
319.349	12.12
319.563	38.74
319.776	87.89
319.99	-2.22
320.203	-4.27
320.417	-22.7
320.63	40.79
320.843	73.56
321.057	79.7
321.27	96.08
321.483	36.69
321.697	91.99
321.91	46.93
322.124	57.17
322.337	77.65
322.55	65.36
322.763	65.36
322.977	100.18
323.19	3.93
323.403	18.26
323.617	69.46
323.83	94.04
324.043	83.8
324.256	34.64
324.469	-16.55
324.683	77.65
324.896	10.07
325.109	36.69
325.322	-6.31
325.535	30.55
325.748	102.23
325.962	51.03
326.175	-0.17
326.388	42.84
326.601	85.84
326.814	42.84
327.027	73.56
327.24	116.56
327.453	-4.27
327.666	-4.27
327.879	114.52
328.092	20.31
328.305	1.88
328.518	91.99
328.731	32.6
328.944	46.93
329.157	81.75
329.37	40.79
329.583	151.38
329.796	42.84
330.009	77.65
330.222	46.93
330.435	32.6
330.648	114.52
330.861	79.7
331.073	75.6
331.286	65.36
331.499	20.31
331.712	69.46
331.925	18.26
332.138	1.88
332.35	69.46
332.563	18.26
332.776	34.64
332.989	1.88
333.202	3.93
333.414	-6.31
333.627	81.75
333.84	-37.03
334.053	8.02
334.265	26.45
334.478	8.02
334.691	42.84
334.903	59.22
335.116	65.36
335.329	130.9
335.541	57.17
335.754	67.41
335.966	48.98
336.179	-12.46
336.392	149.33
336.604	40.79
336.817	34.64
337.029	51.03
337.242	36.69
337.454	34.64
337.667	91.99
337.88	32.6
338.092	59.22
338.305	22.36
338.517	1.88
338.729	69.46
338.942	149.33
339.154	10.07
339.367	5.97
339.579	12.12
339.792	110.42
340.004	44.88
340.217	18.26
340.429	55.12
340.641	12.12
340.854	40.79
341.066	69.46
341.278	73.56
341.491	61.27
341.703	71.51
341.915	61.27
342.128	53.08
342.34	-41.13
342.552	114.52
342.764	59.22
342.977	57.17
343.189	53.08
343.401	48.98
343.613	85.84
343.826	77.65
344.038	122.71
344.25	100.18
344.462	51.03
344.674	44.88
344.886	40.79
345.099	-2.22
345.311	57.17
345.523	-14.51
345.735	12.12
345.947	40.79
346.159	24.4
346.371	137.04
346.583	51.03
346.795	132.95
347.007	81.75
347.219	51.03
347.431	40.79
347.643	36.69
347.855	12.12
348.067	55.12
348.279	10.07
348.491	67.41
348.703	59.22
348.915	-20.65
349.127	34.64
349.339	34.64
349.551	81.75
349.763	126.8
349.975	34.64
350.187	77.65
350.399	22.36
350.61	18.26
350.822	77.65
351.034	91.99
351.246	55.12
351.458	51.03
351.669	59.22
351.881	98.13
352.093	94.04
352.305	83.8
352.517	51.03
352.728	67.41
352.94	53.08
353.152	38.74
353.363	94.04
353.575	36.69
353.787	139.09
353.999	96.08
354.21	34.64
354.422	36.69
354.633	10.07
354.845	46.93
355.057	28.5
355.268	65.36
355.48	42.84
355.692	59.22
355.903	108.37
356.115	36.69
356.326	5.97
356.538	112.47
356.749	77.65
356.961	81.75
357.172	8.02
357.384	-32.94
357.595	85.84
357.807	137.04
358.018	53.08
358.23	40.79
358.441	100.18
358.653	46.93
358.864	85.84
359.075	69.46
359.287	81.75
359.498	124.76
359.709	120.66
359.921	28.5
360.132	-0.17
360.344	65.36
360.555	36.69
360.766	85.84
360.977	-4.27
361.189	128.85
361.4	61.27
361.611	46.93
361.823	96.08
362.034	155.47
362.245	-12.46
362.456	106.32
362.667	57.17
362.879	85.84
363.09	26.45
363.301	-28.84
363.512	-20.65
363.723	1.88
363.935	69.46
364.146	89.94
364.357	102.23
364.568	36.69
364.779	18.26
364.99	112.47
365.201	77.65
365.412	67.41
365.623	-24.75
365.834	94.04
366.045	77.65
366.256	75.6
366.467	110.42
366.678	89.94
366.889	44.88
367.1	-28.84
367.311	94.04
367.522	-16.55
367.733	30.55
367.944	124.76
368.155	-53.42
368.366	57.17
368.577	69.46
368.788	122.71
368.999	61.27
369.209	46.93
369.42	126.8
369.631	118.61
369.842	-10.41
370.053	85.84
370.264	85.84
370.474	-32.94
370.685	126.8
370.896	87.89
371.107	57.17
371.317	112.47
371.528	73.56
371.739	130.9
371.95	102.23
372.16	108.37
372.371	10.07
372.582	71.51
372.792	57.17
373.003	30.55
373.214	40.79
373.424	51.03
373.635	28.5
373.846	120.66
374.056	26.45
374.267	110.42
374.477	34.64
374.688	-41.13
374.898	44.88
375.109	122.71
375.319	-24.75
375.53	42.84
375.74	69.46
375.951	32.6
376.161	42.84
376.372	81.75
376.582	40.79
376.793	116.56
377.003	48.98
377.214	69.46
377.424	108.37
377.635	81.75
377.845	57.17
378.055	67.41
378.266	40.79
378.476	20.31
378.686	79.7
378.897	42.84
379.107	147.28
379.317	91.99
379.528	12.12
379.738	38.74
379.948	-26.79
380.158	65.36
380.369	42.84
380.579	10.07
380.789	46.93
380.999	61.27
381.21	98.13
381.42	108.37
381.63	61.27
381.84	151.38
382.05	61.27
382.261	57.17
382.471	24.4
382.681	59.22
382.891	53.08
383.101	63.32
383.311	-8.36
383.521	53.08
383.731	69.46
383.941	171.86
384.151	110.42
384.361	36.69
384.571	51.03
384.781	89.94
384.991	167.76
385.201	139.09
385.411	40.79
385.621	110.42
385.831	69.46
386.041	18.26
386.251	40.79
386.461	147.28
386.671	65.36
386.881	96.08
387.091	89.94
387.301	73.56
387.511	94.04
387.72	126.8
387.93	85.84
388.14	96.08
388.35	94.04
388.56	106.32
388.769	122.71
388.979	112.47
389.189	61.27
389.399	-43.18
389.609	94.04
389.818	96.08
390.028	85.84
390.238	69.46
390.447	24.4
390.657	102.23
390.867	44.88
391.076	-6.31
391.286	102.23
391.496	124.76
391.705	85.84
391.915	122.71
392.125	139.09
392.334	94.04
392.544	98.13
392.753	53.08
392.963	40.79
393.172	137.04
393.382	91.99
393.591	96.08
393.801	51.03
394.01	91.99
394.22	55.12
394.429	53.08
394.639	126.8
394.848	126.8
395.058	108.37
395.267	26.45
395.477	85.84
395.686	87.89
395.895	151.38
396.105	118.61
396.314	116.56
396.524	79.7
396.733	96.08
396.942	94.04
397.152	87.89
397.361	104.28
397.57	122.71
397.78	79.7
397.989	108.37
398.198	163.67
398.407	149.33
398.617	130.9
398.826	91.99
399.035	81.75
399.244	89.94
399.453	67.41
399.663	116.56
399.872	124.76
400.081	122.71
400.29	141.14
400.499	110.42
400.708	135
400.917	77.65
401.127	91.99
401.336	139.09
401.545	132.95
401.754	184.15
401.963	143.19
402.172	100.18
402.381	118.61
402.59	89.94
402.799	151.38
403.008	120.66
403.217	126.8
403.426	132.95
403.635	114.52
403.844	167.76
404.053	157.52
404.262	155.47
404.471	165.71
404.68	171.86
404.888	225.11
405.097	67.41
405.306	175.95
405.515	145.24
405.724	151.38
405.933	110.42
406.142	139.09
406.35	161.62
406.559	188.24
406.768	151.38
406.977	178
407.185	182.1
407.394	178
407.603	135
407.812	118.61
408.02	266.07
408.229	182.1
408.438	239.44
408.646	200.53
408.855	229.2
409.064	175.95
409.272	229.2
409.481	245.59
409.69	167.76
409.898	198.48
410.107	259.92
410.315	313.17
410.524	315.22
410.733	376.66
410.941	347.98
411.15	360.27
411.358	298.83
411.567	446.29
411.775	386.9
411.984	405.33
412.192	460.62
412.401	374.61
412.609	386.9
412.818	452.43
413.026	419.66
413.234	434
413.443	474.96
413.651	536.4
413.86	487.25
414.068	503.63
414.276	548.68
414.485	628.56
414.693	569.16
414.901	706.38
415.11	667.47
415.318	681.8
415.526	651.08
415.734	745.29
415.943	685.9
416.151	708.43
416.359	769.87
416.567	825.16
416.776	823.11
416.984	831.3
417.192	905.03
417.4	927.56
417.608	794.44
417.817	939.85
418.025	902.98
418.233	1163.08
418.441	937.8
418.649	1099.59
418.857	1204.03
419.065	1230.66
419.273	1140.55
419.481	1265.47
419.689	1331.01
419.897	1281.86
420.105	1396.54
420.313	1355.58
420.521	1474.37
420.729	1464.13
420.937	1544
421.145	1630.01
421.353	1656.64
421.561	1713.98
421.769	1724.22
421.977	1814.33
422.185	1793.85
422.393	1892.15
422.601	1931.06
422.809	2076.47
423.017	1929.02
423.224	2238.26
423.432	2307.89
423.64	2182.96
423.848	2449.2
424.056	2326.32
424.263	2467.63
424.471	2524.97
424.679	2594.61
424.887	2789.16
425.094	2750.25
425.302	2940.71
425.51	2938.66
425.718	2940.71
425.925	3092.26
426.133	3264.29
426.341	3419.94
426.548	3526.43
426.756	3544.86
426.964	3526.43
427.171	3663.65
427.379	3880.73
427.586	3993.37
427.794	4077.34
428.001	4296.47
428.209	4382.48
428.417	4300.56
428.624	4718.35
428.832	4568.85
429.039	4595.47
429.247	4505.36
429.454	4974.35
429.662	5304.07
429.869	5046.02
430.076	5371.65
430.284	5205.77
430.491	5353.22
430.699	5740.29
430.906	5641.98
431.114	5793.53
431.321	5983.99
431.528	6250.23
431.736	6532.85
431.943	6704.88
432.15	6694.64
432.358	6747.89
432.565	7014.12
432.772	7120.62
432.979	7450.34
433.187	7491.3
433.394	7587.55
433.601	8165.08
433.808	8097.5
434.016	8101.59
434.223	8464.08
434.43	8963.79
434.637	8808.14
434.844	9184.97
435.052	9608.9
435.259	9473.73
435.466	9328.33
435.673	9383.62
435.88	10041.02
436.087	10387.13
436.294	10702.51
436.501	10454.71
436.708	10399.41
436.915	10806.96
437.122	11239.08
437.329	11355.82
437.537	11720.35
437.743	11706.02
437.95	11558.56
438.157	12154.52
438.364	12689.04
438.571	12760.72
438.778	12781.2
438.985	13766.28
439.192	13266.57
439.399	13766.28
439.606	13518.47
439.813	14372.47
440.02	14988.91
440.227	14730.87
440.433	15029.87
440.64	15461.99
440.847	15347.31
441.054	15560.3
441.261	16402.01
441.467	16330.33
441.674	16633.43
441.881	17198.67
442.088	17133.14
442.294	17045.07
442.501	17798.73
442.708	17692.23
442.914	18454.08
443.121	19344.94
443.328	18839.09
443.534	20014.63
443.741	19406.38
443.948	19144.24
444.154	20860.44
444.361	20753.94
444.568	20377.12
444.774	20995.6
444.981	20878.87
445.187	21757.45
445.394	22621.69
445.6	22328.83
445.807	24384.99
446.013	22945.27
446.22	23621.1
446.426	24722.91
446.633	24813.02
446.839	25368.02
447.046	24194.53
447.252	26066.38
447.459	25705.93
447.665	25572.82
447.871	26789.31
448.078	27784.62
448.284	26557.89
448.491	27198.9
448.697	28448.16
448.903	28816.8
449.11	28796.32
449.316	28136.87
449.522	28986.78
449.728	29734.29
449.935	29998.48
450.141	29357.46
450.347	30578.05
450.553	29218.2
450.76	29797.77
450.966	30926.21
451.172	30221.7
451.378	31022.46
451.584	30375.3
451.791	31311.22
451.997	30909.82
452.203	31749.49
452.409	31352.18
452.615	31159.67
452.821	30111.11
453.027	30199.18
453.233	31837.55
453.44	30059.91
453.646	30600.58
453.852	30401.93
454.058	31042.94
454.264	29928.84
454.47	30666.11
454.676	29662.61
454.882	31163.77
455.088	28331.43
455.294	28562.85
455.5	28872.09
455.705	29154.71
455.911	27958.7
456.117	27454.9
456.323	27147.7
456.529	25728.46
456.735	26774.97
456.941	26015.18
457.147	25746.89
457.352	24577.5
457.558	24514.02
457.764	24557.02
457.97	24016.36
458.176	23692.78
458.381	23518.7
458.587	22617.6
458.793	22144.52
458.999	21235.22
459.204	22736.38
459.41	22318.59
459.616	20622.87
459.821	20608.54
460.027	20698.65
460.233	20114.98
460.438	18884.15
460.644	19351.09
460.85	18466.36
461.055	18271.81
461.261	18187.84
461.466	16709.21
461.672	16402.01
461.878	17546.83
462.083	16488.03
462.289	16213.6
462.494	16037.47
462.7	15285.87
462.905	14587.51
463.111	15447.66
463.316	15363.69
463.522	14958.19
463.727	14943.86
463.932	15144.56
464.138	14722.68
464.343	14882.42
464.549	14288.51
464.754	14880.37
464.959	14888.56
465.165	14526.07
465.37	14141.05
465.575	14005.89
465.781	14392.95
465.986	14253.69
466.191	13868.67
466.397	13411.98
466.602	12994.19
466.807	13448.84
467.012	13354.63
467.218	13401.74
467.423	13315.72
467.628	13186.7
467.833	13856.39
468.038	13391.5
468.244	12775.06
468.449	13215.37
468.654	13145.74
468.859	12914.32
469.064	12770.96
469.269	12377.75
469.474	12564.12
469.679	12594.84
469.885	12191.39
470.09	12490.39
470.295	12431
470.5	12074.65
470.705	11996.83
470.91	11675.3
471.115	11779.75
471.32	12031.65
471.525	11935.39
471.73	11697.83
471.935	11603.62
472.139	11024.05
472.344	11142.83
472.549	11343.53
472.754	11062.96
472.959	10739.38
473.164	10669.75
473.369	10512.05
473.574	11132.59
473.778	10610.36
473.983	10622.64
474.188	10370.74
474.393	10288.82
474.598	10051.26
474.802	10219.19
475.007	9934.53
475.212	10073.79
475.417	9662.15
475.621	9602.75
475.826	9561.8
476.031	9651.91
476.235	9348.81
476.44	9434.82
476.645	9338.57
476.849	9334.47
477.054	9256.65
477.259	9203.4
477.463	8943.31
477.668	8742.61
477.872	9023.18
478.077	8814.29
478.282	8400.6
478.486	8466.13
478.691	8597.2
478.895	8517.33
479.1	8513.24
479.304	8498.9
479.509	8247
479.713	8517.33
479.918	8056.54
480.122	8085.21
480.326	8222.42
480.531	8294.1
480.735	7978.72
480.94	8005.34
481.144	8218.33
481.348	7761.63
481.553	8060.63
481.757	8031.96
481.961	7902.94
482.166	7945.95
482.37	7603.94
482.574	7870.17
482.778	7675.62
482.983	8060.63
483.187	7890.65
483.391	7925.47
483.595	7888.6
483.8	7849.69
484.004	7995.1
484.208	7988.96
484.412	7814.88
484.616	7991
484.821	7866.08
485.025	7692
485.229	7948
485.433	7722.72
485.637	7696.1
485.841	7798.49
486.045	7839.45
486.249	7829.21
486.453	7843.55
486.657	7626.46
486.861	7919.32
487.065	7677.66
487.269	7825.12
487.473	7665.38
487.677	7917.28
487.881	7929.56
488.085	7732.96
488.289	7921.37
488.493	7995.1
488.697	7999.2
488.901	8052.44
489.105	8011.48
489.309	7972.57
489.512	8036.06
489.716	7933.66
489.92	8052.44
490.124	7993.05
490.328	7986.91
490.531	7913.18
490.735	8056.54
490.939	8273.62
491.143	8134.36
491.346	8255.19
491.55	8392.41
491.754	8230.62
491.958	8183.51
492.161	8244.95
492.365	8400.6
492.569	8130.27
492.772	8466.13
492.976	8482.52
493.18	8281.81
493.383	8523.48
493.587	8494.8
493.79	8599.25
493.994	8732.37
494.197	8613.59
494.401	8836.81
494.605	8877.77
494.808	9119.43
495.012	8955.6
495.215	8953.55
495.419	9090.76
495.622	9031.37
495.825	9201.35
496.029	9184.97
496.232	9389.77
496.436	9379.53
496.639	9631.43
496.843	9674.43
497.046	9651.91
497.249	9838.27
497.453	9789.12
497.656	10069.69
497.859	10059.45
498.063	10258.1
498.266	10493.62
498.469	10409.65
498.673	10448.57
498.876	10716.85
499.079	10651.31
499.282	10628.79
499.485	11058.86
499.689	11077.29
499.892	11099.82
500.095	11241.13
500.298	11341.48
500.501	11230.89
500.705	11691.68
500.908	11824.8
501.111	12052.13
501.314	12017.31
501.517	12091.04
501.72	12306.07
501.923	12181.15
502.126	12668.56
502.329	12570.26
502.532	12596.89
502.735	13121.17
502.938	13242
503.141	13184.65
503.344	13262.47
503.547	13670.02
503.75	13747.84
503.953	13936.26
504.156	13983.36
504.359	14016.13
504.562	14120.57
504.765	14737.01
504.968	14745.2
505.17	14677.62
505.373	14886.51
505.576	15388.27
505.779	15314.54
505.982	15064.69
506.185	15703.65
506.387	15722.09
506.59	15765.09
506.793	15959.65
506.996	16201.31
507.198	16612.95
507.401	16453.21
507.604	16655.96
507.807	17020.5
508.009	17245.77
508.212	17311.31
508.415	17589.83
508.617	17845.83
508.82	17874.5
509.022	17897.03
509.225	18130.5
509.428	18212.42
509.63	18554.43
509.833	18619.96
510.035	19297.84
510.238	18810.42
510.44	19486.25
510.643	19535.4
510.845	19645.99
511.048	19926.57
511.25	20170.27
511.453	20135.46
511.655	20844.06
511.858	20686.36
512.06	20780.57
512.262	21001.75
512.465	21272.08
512.667	21556.75
512.87	21841.42
513.072	21816.84
513.274	22220.29
513.477	22507.01
513.679	22785.53
513.881	22785.53
514.084	23059.96
514.286	23244.27
514.488	23279.09
514.69	23868.91
514.893	23948.78
515.095	24272.35
515.297	24423.9
515.499	24303.07
515.701	24731.1
515.904	25124.31
516.106	25331.15
516.308	25511.38
516.51	25789.9
516.712	25996.74
516.914	26086.86
517.116	26834.36
517.318	26504.64
517.52	26822.08
517.722	27030.97
517.925	27485.62
518.127	27649.46
518.329	27870.64
518.531	27784.62
518.733	28157.35
518.935	28542.37
519.136	28691.87
519.338	29054.36
519.54	29095.32
519.742	29502.87
519.944	29885.84
520.146	30240.14
520.348	30387.59
520.55	30842.24
520.752	30795.14
520.954	31313.27
521.155	30918.01
521.357	31323.51
521.559	31692.15
521.761	32040.3
521.963	32195.95
522.164	32363.88
522.366	32329.06
522.568	32892.26
522.77	33086.81
522.971	33906
523.173	33348.95
523.375	33641.81
523.576	33805.65
523.778	33842.51
523.98	34565.45
524.181	34512.2
524.383	34583.88
524.584	35120.45
524.786	34942.27
524.988	35102.01
525.189	35593.53
525.391	35681.59
525.592	35878.19
525.794	36465.96
525.995	36189.49
526.197	36373.8
526.398	36619.56
526.6	36521.26
526.801	37012.77
527.003	37070.11
527.204	37217.57
527.406	37489.95
527.607	37627.16
527.808	37999.89
528.01	37463.32
528.211	37623.06
528.412	38520.07
528.614	38112.53
528.815	38270.22
529.016	38872.32
529.218	38436.11
529.419	38571.27
529.62	38675.72
529.822	38606.09
530.023	39007.49
530.224	38755.59
530.425	38862.08
530.626	38944
530.828	38741.25
531.029	39804.15
531.23	39179.52
531.431	39113.98
531.632	39445.76
531.833	39525.63
532.035	39290.11
532.236	39163.14
532.437	39759.09
532.638	39359.74
532.839	40105.2
533.04	39847.16
533.241	39511.29
533.442	40146.16
533.643	40029.43
533.844	39992.56
534.045	39900.4
534.246	39515.39
534.447	40234.22
534.648	39810.29
534.849	40158.45
535.05	39898.36
535.251	39943.41
535.451	40234.22
535.652	40723.69
535.853	39791.86
536.054	39953.65
536.255	40406.25
536.456	40058.1
536.657	40613.1
536.857	40056.05
537.058	40342.77
537.259	40527.08
537.46	40561.9
537.66	40252.66
537.861	40277.23
538.062	40279.28
538.263	40185.07
538.463	40006.9
538.664	40092.91
538.865	40402.16
539.065	40557.8
539.266	39918.84
539.466	40783.08
539.667	39834.87
539.868	40252.66
540.068	40236.27
540.269	40318.19
540.469	40357.1
540.67	40027.38
540.87	39965.94
541.071	40002.8
541.271	40619.24
541.472	40166.64
541.672	39998.71
541.873	39668.98
542.073	40105.2
542.274	40342.77
542.474	40049.91
542.675	39994.61
542.875	40295.66
543.075	39945.46
543.276	39931.12
543.476	40269.04
543.676	39974.13
543.877	40514.8
544.077	39935.22
544.277	39664.89
544.478	39800.05
544.678	40125.68
544.878	40195.31
545.078	39838.97
545.279	39859.45
545.479	40013.04
545.679	40174.83
545.879	39853.3
546.079	39697.66
546.28	39914.74
546.48	39613.69
546.68	40101.11
546.88	40140.02
547.08	39935.22
547.28	39859.45
547.48	39783.67
547.68	39789.81
547.88	39824.63
548.081	39908.6
548.281	39810.29
548.481	39511.29
548.681	39771.38
548.881	39847.16
549.081	39656.7
549.28	39527.67
549.48	39781.62
549.68	39687.42
549.88	39810.29
550.08	39249.15
550.28	39873.78
550.48	39867.64
550.68	39828.73
550.88	39757.05
551.08	39222.53
551.279	39886.07
551.479	39113.98
551.679	39345.4
551.879	39181.57
552.079	39716.09
552.278	39089.41
552.478	39433.47
552.678	39765.24
552.878	39466.24
553.077	39525.63
553.277	39279.87
553.477	39765.24
553.676	38847.75
553.876	39146.75
554.076	38827.27
554.275	38960.39
554.475	38608.14
554.674	39296.25
554.874	39394.56
555.074	38980.87
555.273	39576.83
555.473	39097.6
555.672	38989.06
555.872	39171.33
556.071	38931.72
556.271	38843.65
556.47	38700.29
556.67	38575.37
556.869	38632.71
557.068	38956.29
557.268	38579.46
557.467	38581.51
557.667	38694.15
557.866	38640.9
558.065	38040.85
558.265	38049.04
558.464	37778.71
558.663	38565.13
558.863	37969.17
559.062	38352.14
559.261	38133.01
559.461	38458.63
559.66	37727.51
559.859	37639.45
560.058	37313.82
560.258	37799.19
560.457	37313.82
560.656	38049.04
560.855	37440.79
561.054	37649.69
561.253	37295.39
561.453	37647.64
561.652	37184.8
561.851	37336.35
562.05	37182.75
562.249	36746.53
562.448	37434.65
562.647	37117.21
562.846	37346.59
563.045	36939.04
563.244	36365.61
563.443	36871.46
563.642	36074.8
563.841	36502.82
564.04	36355.37
564.239	36893.99
564.438	36363.56
564.637	36156.72
564.836	36257.07
565.035	35634.49
565.234	36003.12
565.432	35702.07
565.631	35640.63
565.83	35968.3
566.029	35118.4
566.228	35276.09
566.427	35724.6
566.625	35323.19
566.824	34714.95
567.023	35562.81
567.222	34350.41
567.42	35056.96
567.619	34510.15
567.818	34798.91
568.016	34491.72
568.215	35030.33
568.414	34211.15
568.612	34676.04
568.811	34225.48
569.01	34315.59
569.208	34002.25
569.407	34229.58
569.605	33914.19
569.804	34440.52
570.002	33715.54
570.201	33871.18
570.4	33650
570.598	33246.55
570.797	33084.76
570.995	32968.03
571.193	33135.96
571.392	33144.16
571.59	32875.87
571.789	32996.7
571.987	32730.47
572.186	32976.22
572.384	32523.62
572.582	32533.86
572.781	32460.13
572.979	32187.75
573.177	32384.36
573.376	32413.03
573.574	31829.36
573.772	32249.19
573.971	32171.37
574.169	31905.13
574.367	31454.58
574.565	31931.76
574.763	31659.38
574.962	31516.02
575.16	31225.21
575.358	31171.96
575.556	30856.57
575.754	31679.86
575.952	30657.92
576.151	31352.18
576.349	30616.96
576.547	30676.35
576.745	30641.54
576.943	30920.06
577.141	30502.28
577.339	30496.13
577.537	30465.41
577.735	30406.02
577.933	30131.59
578.131	30260.62
578.329	29838.73
578.527	29767.06
578.725	29773.2
578.923	30193.03
579.121	29633.94
579.319	29660.56
579.516	29898.13
579.714	29740.43
579.912	29734.29
580.11	29234.58
580.308	29382.04
580.506	29148.57
580.704	28960.16
580.901	29238.68
581.099	29343.13
581.297	28935.58
581.495	28853.66
581.692	28818.85
581.89	28597.66
582.088	28743.07
582.285	28356
582.483	28734.88
582.681	28558.75
582.878	28198.31
583.076	28009.9
583.274	28392.87
583.471	28038.57
583.669	28026.28
583.866	27952.55
584.064	27735.47
584.262	27530.67
584.459	27813.29
584.657	27663.79
584.854	27710.89
585.052	27368.88
585.249	27395.51
585.447	27313.59
585.644	27164.09
585.841	26979.77
586.039	27295.16
586.236	26891.71
586.434	26873.28
586.631	26600.9
586.828	26734.01
587.026	26678.72
587.223	26471.87
587.42	26459.59
587.618	26568.13
587.815	26523.07
588.012	26283.46
588.21	26144.2
588.407	26246.6
588.604	25968.07
588.801	26015.18
588.999	25847.24
589.196	26021.32
589.393	25437.65
589.59	25583.05
589.787	25331.15
589.984	25413.07
590.182	25628.11
590.379	25753.04
590.576	25247.19
590.773	25140.69
590.97	25046.49
591.167	25370.07
591.364	24663.52
591.561	25019.86
591.758	24788.44
591.955	24661.47
592.152	24823.26
592.349	24632.8
592.546	24626.65
592.743	24651.23
592.94	24251.88
593.137	24178.15
593.334	24614.37
593.531	24088.04
593.727	24350.18
593.924	23932.39
594.121	23877.1
594.318	24167.91
594.515	23596.53
594.712	23965.16
594.908	23813.61
595.105	23766.51
595.302	23541.23
595.499	23426.54
595.696	23346.67
595.892	23332.34
596.089	23633.39
596.286	23205.36
596.482	23221.75
596.679	23365.1
596.876	23062.01
597.072	22965.75
597.269	23062.01
597.466	22674.94
597.662	22750.71
597.859	22664.7
598.055	22787.58
598.252	22525.44
598.448	22832.63
598.645	22552.06
598.841	22500.86
599.038	22281.73
599.234	22214.15
599.431	22281.73
599.627	22033.93
599.824	22478.33
600.02	21761.55
600.217	22234.63
600.413	21863.94
600.609	21902.86
600.806	21933.57
601.002	21642.76
601.198	21874.18
601.395	21495.31
601.591	21501.45
601.787	21523.98
601.984	21286.42
602.18	21476.88
602.376	21310.99
602.572	21210.64
602.769	21087.76
602.965	21114.39
603.161	21114.39
603.357	20571.68
603.553	21038.61
603.75	21011.99
603.946	20819.48
604.142	20856.34
604.338	20604.44
604.534	20608.54
604.73	20403.74
604.926	20532.76
605.122	20420.13
605.318	20190.75
605.514	20231.71
605.71	20121.12
605.906	20112.93
606.102	20076.07
606.298	20080.16
606.494	19934.76
606.69	20076.07
606.886	19934.76
607.082	19846.69
607.278	19834.41
607.474	19541.55
607.67	19856.93
607.866	19250.74
608.062	19779.11
608.257	19602.99
608.453	19656.23
608.649	19627.56
608.845	19451.44
609.041	19258.93
609.236	19627.56
609.432	19418.67
609.628	19170.86
609.824	19336.75
610.019	19066.42
610.215	18822.71
610.411	19260.98
610.606	18986.55
610.802	19144.24
610.998	19080.75
611.193	18751.03
611.389	18714.17
611.584	18921.01
611.78	18392.64
611.976	18728.5
612.171	18656.82
612.367	18837.05
612.562	18560.57
612.758	18556.47
612.953	18413.12
613.149	18538.04
613.344	18253.37
613.539	18402.88
613.735	18431.55
613.93	18595.39
614.126	18288.19
614.321	18386.49
614.517	18310.72
614.712	18103.87
614.907	18165.31
615.103	18116.16
615.298	17911.36
615.493	18318.91
615.688	17653.32
615.884	17972.8
616.079	17561.16
616.274	18089.54
616.47	17946.18
616.665	17952.32
616.86	17700.42
617.055	17602.12
617.25	17419.85
617.445	17737.29
617.641	17514.06
617.836	17604.17
618.031	17305.17
618.226	17681.99
618.421	17417.8
618.616	17432.14
618.811	17065.55
619.006	17380.94
619.201	16842.32
619.396	16971.35
619.591	16705.11
619.786	17043.03
619.981	16635.48
620.176	16881.24
620.371	16846.42
620.566	16582.23
620.761	16498.27
620.956	16963.15
621.151	16287.32
621.346	16301.66
621.541	16240.22
621.735	16606.81
621.93	16232.03
622.125	16166.49
622.32	15857.25
622.515	15943.27
622.709	15603.3
622.904	15763.04
623.099	15636.07
623.294	15416.94
623.488	15548.01
623.683	15400.55
623.878	15208.05
624.072	15038.06
624.267	15128.17
624.462	15165.04
624.656	15187.57
624.851	14990.96
625.046	14816.88
625.24	14878.32
625.435	14653.05
625.629	14517.88
625.824	14208.64
626.018	14372.47
626.213	14165.63
626.407	14216.83
626.602	13930.11
626.796	14126.72
626.991	14202.49
627.185	13928.06
627.38	13866.63
627.574	13618.82
627.768	13745.8
627.963	13952.64
628.157	13700.74
628.352	13708.93
628.546	13637.25
628.74	13739.65
628.935	13348.49
629.129	13463.18
629.323	12947.09
629.517	13002.38
629.712	12990.1
629.906	12979.86
630.1	12748.43
630.294	12891.79
630.489	12545.69
630.683	12668.56
630.877	12330.65
631.071	12525.21
631.265	12367.51
631.459	12381.85
631.653	12285.59
631.848	11976.35
632.042	12213.91
632.236	12492.44
632.43	12142.24
632.624	12027.55
632.818	12031.65
633.012	12086.94
633.206	11722.4
633.4	11898.53
633.594	11585.19
633.788	11675.3
633.982	11515.56
634.176	11636.39
634.369	11189.93
634.563	11443.88
634.757	11118.25
634.951	11368.1
635.145	11296.42
635.339	11005.61
635.533	11214.51
635.726	10966.7
635.92	10940.08
636.114	11114.16
636.308	10829.49
636.501	10970.8
636.695	10694.32
636.889	10522.29
637.083	10733.23
637.276	10458.81
637.47	10413.75
637.664	10342.07
637.857	10432.18
638.051	10534.58
638.244	10194.62
638.438	10237.63
638.632	9981.63
638.825	10204.86
639.019	9987.77
639.212	9901.76
639.406	9965.25
639.599	9875.13
639.793	9721.54
639.986	9832.13
640.18	9805.5
640.373	9848.51
640.567	9561.8
640.76	9615.04
640.954	9332.42
641.147	9537.22
641.34	9309.9
641.534	9309.9
641.727	9150.15
641.92	9113.29
642.114	9164.49
642.307	9004.75
642.5	9166.54
642.694	8748.75
642.887	9041.61
643.08	8990.41
643.273	8730.32
643.467	8881.87
643.66	8556.24
643.853	8675.02
644.046	8615.63
644.239	8586.96
644.432	8634.07
644.626	8363.73
644.819	8513.24
645.012	8449.75
645.205	8343.25
645.398	8369.88
645.591	8296.15
645.784	8154.84
645.977	8210.14
646.17	8150.74
646.363	8214.23
646.556	7812.83
646.749	7872.22
646.942	8013.53
647.135	7902.94
647.328	7935.71
647.521	7720.67
647.714	7671.52
647.907	7671.52
648.099	7728.86
648.292	7622.37
648.485	7632.61
648.678	7421.67
648.871	7661.28
649.064	7403.24
649.256	7407.33
649.449	7216.87
649.642	7266.02
649.835	7302.89
650.027	7368.42
650.22	7141.1
650.413	7212.78
650.605	7272.17
650.798	7087.85
650.991	7085.8
651.183	7069.42
651.376	6938.35
651.568	6993.64
651.761	6794.99
651.954	7030.51
652.146	6827.76
652.339	6809.33
652.531	6708.97
652.724	6758.13
652.916	6643.44
653.109	6649.58
653.301	6698.74
653.494	6641.39
653.686	6438.64
653.879	6561.52
654.071	6604.53
654.263	6465.27
654.456	6407.92
654.648	6409.97
654.84	6119.16
655.033	6272.76
655.225	6323.96
655.417	6293.24
655.61	6199.03
655.802	6301.43
655.994	6248.18
656.186	6209.27
656.379	6117.11
656.571	6022.91
656.763	6094.58
656.955	5988.09
657.148	6092.54
657.34	6008.57
657.532	5828.35
657.724	5877.5
657.916	5867.26
658.108	5687.04
658.3	5844.73
658.492	5783.29
658.684	5824.25
658.876	5607.17
659.068	5742.33
659.26	5697.28
659.452	5877.5
659.644	5635.84
659.836	5611.26
660.028	5492.48
660.22	5310.21
660.412	5631.74
660.604	5398.27
660.796	5482.24
660.988	5508.87
661.18	5205.77
661.372	5418.75
661.563	5299.97
661.755	5295.88
661.947	5170.95
662.139	5426.95
662.331	5195.53
662.522	5234.44
662.714	5097.22
662.906	5134.09
663.097	5256.97
663.289	5091.08
663.481	5009.16
663.673	4947.72
663.864	5013.26
664.056	4910.86
664.247	4951.82
664.439	4853.52
664.631	4949.77
664.822	4912.91
665.014	4957.96
665.205	4929.29
665.397	4908.81
665.588	4693.77
665.78	4644.62
665.971	4765.45
666.163	4699.92
666.354	4618
666.546	4755.21
666.737	4622.09
666.929	4601.62
667.12	4640.53
667.311	4677.39
667.503	4599.57
667.694	4501.26
667.885	4583.18
668.077	4491.02
668.268	4476.69
668.459	4474.64
668.651	4558.61
668.842	4400.91
669.033	4450.07
669.224	4452.11
669.416	4431.63
669.607	4550.42
669.798	4364.05
669.989	4456.21
670.18	4450.07
670.371	4386.58
670.563	4271.89
670.754	4265.75
670.945	4138.77
671.136	4284.18
671.327	4251.41
671.518	4261.65
671.709	4230.93
671.9	4251.41
672.091	4273.94
672.282	4335.38
672.473	4214.55
672.664	4185.88
672.855	4101.91
673.046	4118.29
673.237	4046.62
673.428	4161.3
673.619	4241.17
673.809	4118.29
674	4146.97
674.191	4175.64
674.382	3933.98
674.573	4167.45
674.764	4079.38
674.954	4036.38
675.145	3979.03
675.336	4177.69
675.527	4052.76
675.717	4120.34
675.908	3878.68
676.099	4073.24
676.289	3981.08
676.48	4009.75
676.671	3979.03
676.861	4009.75
677.052	3942.17
677.243	4044.57
677.433	4038.42
677.624	4009.75
677.814	3913.5
678.005	4011.8
678.195	3962.65
678.386	3979.03
678.576	3933.98
678.767	3866.39
678.957	3944.22
679.148	3972.89
679.338	3911.45
679.529	4007.7
679.719	3995.42
679.909	4083.48
680.1	3933.98
680.29	4042.52
680.481	3933.98
680.671	3999.51
680.861	4069.14
681.052	3968.79
681.242	4056.86
681.432	4097.81
681.622	3739.42
681.813	3938.07
682.003	3874.59
682.193	3927.83
682.383	4056.86
682.573	3821.34
682.764	3909.4
682.954	3985.18
683.144	3972.89
683.334	3897.11
683.524	3911.45
683.714	3831.58
683.904	3817.24
684.094	3944.22
684.284	3874.59
684.474	3827.48
684.664	3884.83
684.854	3804.96
685.044	3788.57
685.234	3880.73
685.424	3845.91
685.614	3847.96
685.804	3897.11
685.994	3743.52
686.184	3839.77
686.374	3915.55
686.564	3759.9
686.753	3772.19
686.943	3653.41
687.133	3745.56
687.323	3749.66
687.513	3720.99
687.702	3600.16
687.892	3610.4
688.082	3788.57
688.272	3688.22
688.461	3641.12
688.651	3559.2
688.841	3747.61
689.03	3602.21
689.22	3563.29
689.41	3602.21
689.599	3559.2
689.789	3608.35
689.979	3561.25
690.168	3630.88
690.358	3505.95
690.547	3467.04
690.737	3479.33
690.926	3589.92
691.116	3411.75
691.305	3505.95
691.495	3655.45
691.684	3260.2
691.874	3594.01
692.063	3536.67
692.252	3393.31
692.442	3417.89
692.631	3473.18
692.82	3387.17
693.01	3395.36
693.199	3333.92
693.388	3313.44
693.578	3370.79
693.767	3245.86
693.956	3229.48
694.146	3235.62
694.335	3206.95
694.524	3262.24
694.713	3258.15
694.902	3278.63
695.092	3153.7
695.281	3225.38
695.47	3280.68
695.659	3190.56
695.848	3196.71
696.037	3213.09
696.226	3278.63
696.415	3305.25
696.604	3241.76
696.793	3292.96
696.982	3174.18
697.171	3352.35
697.36	3176.23
697.549	3223.33
697.738	3194.66
697.927	3094.31
698.116	3311.39
698.305	3106.6
698.494	3252
698.683	3198.76
698.872	3301.15
699.061	3174.18
699.25	3030.82
699.438	3227.43
699.627	3260.2
699.816	3206.95
700.005	3209
700.193	3178.28
700.382	3182.37
700.571	3231.52
700.76	3241.76
700.948	3229.48
701.137	3114.79
701.326	3206.95
701.514	3172.13
701.703	3112.74
701.892	3133.22
702.08	3100.45
702.269	3295.01
702.457	3075.88
702.646	3194.66
702.834	3133.22
703.023	3247.91
703.212	3082.02
703.4	3278.63
703.589	3149.61
703.777	3133.22
703.965	3137.32
704.154	3190.56
704.342	3161.89
704.531	3202.85
704.719	3165.99
704.907	3129.13
705.096	3100.45
705.284	3170.08
705.472	3161.89
705.661	3252
705.849	3141.41
706.037	3145.51
706.226	3333.92
706.414	3145.51
706.602	3170.08
706.79	3147.56
706.979	3096.36
707.167	3215.14
707.355	3245.86
707.543	3237.67
707.731	3239.72
707.919	3272.48
708.107	3319.59
708.296	3174.18
708.484	3096.36
708.672	3249.96
708.86	3188.52
709.048	3174.18
709.236	3174.18
709.424	3227.43
709.612	3211.04
709.8	3329.83
709.988	3065.64
710.176	3252
710.364	3241.76
710.551	3202.85
710.739	3163.94
710.927	3235.62
711.115	3073.83
711.303	3243.81
711.491	3100.45
711.679	3256.1
711.866	3268.39
712.054	3358.5
712.242	3112.74
712.43	3381.03
712.617	3258.15
712.805	3206.95
712.993	3276.58
713.181	3125.03
713.368	3153.7
713.556	3282.72
713.744	3145.51
713.931	3358.5
714.119	3391.27
714.306	3286.82
714.494	3284.77
714.682	3301.15
714.869	3276.58
715.057	3325.73
715.244	3209
715.432	3344.16
715.619	3266.34
715.807	3385.12
715.994	3254.05
716.182	3303.2
716.369	3303.2
716.556	3264.29
716.744	3235.62
716.931	3227.43
717.119	3260.2
717.306	3360.55
717.493	3276.58
717.681	3385.12
717.868	3374.88
718.055	3358.5
718.242	3288.87
718.43	3278.63
718.617	3317.54
718.804	3292.96
718.991	3493.66
719.179	3421.99
719.366	3165.99
719.553	3350.31
719.74	3249.96
719.927	3333.92
720.114	3284.77
720.301	3311.39
720.488	3202.85
720.676	3202.85
720.863	3245.86
721.05	3368.74
721.237	3174.18
721.424	3358.5
721.611	3462.94
721.798	3202.85
721.985	3344.16
722.172	3206.95
722.358	3256.1
722.545	3295.01
722.732	3194.66
722.919	3301.15
723.106	3327.78
723.293	3327.78
723.48	3252
723.667	3211.04
723.853	3258.15
724.04	3362.59
724.227	3393.31
724.414	3073.83
724.6	3340.07
724.787	3295.01
724.974	3221.28
725.161	3190.56
725.347	3407.65
725.534	3268.39
725.72	3321.63
725.907	3274.53
726.094	3325.73
726.28	3260.2
726.467	3274.53
726.653	3346.21
726.84	3252
727.027	3397.41
727.213	3206.95
727.4	3335.97
727.586	3227.43
727.773	3176.23
727.959	3206.95
728.145	3215.14
728.332	3211.04
728.518	3170.08
728.705	3317.54
728.891	3399.46
729.077	3233.57
729.264	3288.87
729.45	3186.47
729.636	3342.11
729.823	3090.21
730.009	3168.04
730.195	3252
730.382	3309.35
730.568	3108.65
730.754	3254.05
730.94	3313.44
731.126	3256.1
731.313	3157.8
731.499	3137.32
731.685	3217.19
731.871	3237.67
732.057	3252
732.243	3182.37
732.429	3219.24
732.615	3149.61
732.801	3223.33
732.987	3188.52
733.173	3190.56
733.359	3100.45
733.545	3342.11
733.731	3170.08
733.917	3163.94
734.103	3100.45
734.289	3182.37
734.475	3088.17
734.661	3161.89
734.847	3153.7
735.033	3295.01
735.219	3096.36
735.404	3118.89
735.59	3125.03
735.776	3057.45
735.962	3090.21
736.148	3170.08
736.333	3266.34
736.519	3131.17
736.705	3206.95
736.89	3092.26
737.076	3139.37
737.262	3026.73
737.447	3061.54
737.633	3098.41
737.819	3047.21
738.004	3051.3
738.19	3114.79
738.375	3116.84
738.561	3092.26
738.747	3065.64
738.932	2965.29
739.118	3057.45
739.303	3131.17
739.489	2969.38
739.674	2795.31
739.859	2948.9
740.045	2985.77
740.23	2940.71
740.416	3026.73
740.601	2950.95
740.786	2998.06
740.972	2866.99
741.157	2819.88
741.342	2864.94
741.528	2946.86
741.713	2836.27
741.898	3002.15
742.084	2846.51
742.269	2926.38
742.454	2920.23
742.639	2983.72
742.824	2823.98
743.01	2737.96
743.195	2903.85
743.38	2823.98
743.565	2809.64
743.75	2875.18
743.935	2643.76
744.12	2762.54
744.305	2858.79
744.49	2598.7
744.675	2707.24
744.86	2598.7
745.045	2666.28
745.23	2752.3
745.415	2555.69
745.6	2606.89
745.785	2635.57
745.97	2742.06
746.155	2551.6
746.34	2584.37
746.525	2580.27
746.71	2613.04
746.895	2486.06
747.079	2588.46
747.264	2453.3
747.449	2586.41
747.634	2543.41
747.819	2477.87
748.003	2457.39
748.188	2395.95
748.373	2268.98
748.557	2367.28
748.742	2381.62
748.927	2359.09
749.111	2354.99
749.296	2232.12
749.481	2357.04
749.665	2379.57
749.85	2228.02
750.034	2230.07
750.219	2199.35
750.404	2230.07
750.588	2311.99
750.773	2234.16
750.957	2197.3
751.141	2221.88
751.326	2078.52
751.51	2117.43
751.695	2127.67
751.879	2121.52
752.064	2082.61
752.248	2111.29
752.432	2017.08
752.617	2078.52
752.801	1957.69
752.985	2080.57
753.17	1976.12
753.354	1945.4
753.538	2019.13
753.722	1865.53
753.907	1982.26
754.091	1929.02
754.275	1754.94
754.459	1853.24
754.643	1867.58
754.828	1877.82
755.012	1953.59
755.196	1840.95
755.38	1830.71
755.564	1806.14
755.748	1820.47
755.932	1849.15
756.116	1797.95
756.3	1843
756.484	1806.14
756.668	1740.6
756.852	1625.92
757.036	1691.45
757.22	1670.97
757.404	1799.99
757.588	1607.48
757.772	1705.79
757.956	1683.26
758.14	1713.98
758.323	1570.62
758.507	1597.24
758.691	1601.34
758.875	1574.72
759.059	1634.11
759.242	1574.72
759.426	1570.62
759.61	1494.85
759.794	1484.61
759.977	1587.01
760.161	1619.77
760.345	1654.59
760.528	1544
760.712	1386.3
760.895	1576.77
761.079	1568.57
761.263	1482.56
761.446	1517.37
761.63	1531.71
761.813	1531.71
761.997	1488.7
762.18	1376.06
762.364	1408.83
762.547	1402.69
762.731	1394.5
762.914	1445.7
763.098	1378.11
763.281	1447.74
763.464	1374.02
763.648	1365.82
763.831	1365.82
764.015	1345.34
764.198	1349.44
764.381	1326.91
764.564	1357.63
764.748	1392.45
764.931	1392.45
765.114	1212.23
765.297	1318.72
765.481	1322.82
765.664	1277.76
765.847	1326.91
766.03	1382.21
766.213	1314.63
766.397	1322.82
766.58	1290.05
766.763	1318.72
766.946	1240.9
767.129	1185.6
767.312	1226.56
767.495	1222.47
767.678	1171.27
767.861	1255.23
768.044	1216.32
768.227	1261.38
768.41	1163.08
768.593	1179.46
768.776	1156.93
768.959	1130.31
769.142	1232.71
769.324	1181.51
769.507	1142.6
769.69	1118.02
769.873	1150.79
770.056	1185.6
770.239	1177.41
770.421	1187.65
770.604	1118.02
770.787	1075.01
770.97	1150.79
771.152	1179.46
771.335	1077.06
771.518	1101.64
771.7	1257.28
771.883	1095.49
772.066	1040.2
772.248	1015.62
772.431	1052.49
772.613	989
772.796	1058.63
772.978	1136.45
773.161	1046.34
773.343	1060.68
773.526	1021.77
773.708	1007.43
773.891	933.7
774.073	1040.2
774.256	989
774.438	1036.1
774.621	902.98
774.803	1013.57
774.985	970.57
775.168	962.37
775.35	868.17
775.532	929.61
775.715	855.88
775.897	964.42
776.079	847.69
776.261	1011.53
776.444	970.57
776.626	864.07
776.808	839.5
776.99	847.69
777.173	804.68
777.355	855.88
777.537	874.31
777.719	931.66
777.901	890.7
778.083	778.06
778.265	825.16
778.447	802.63
778.629	917.32
778.811	821.06
778.993	833.35
779.175	776.01
779.357	814.92
779.539	790.35
779.721	798.54
779.903	827.21
780.085	825.16
780.267	722.76
780.449	755.53
780.631	763.72
780.812	745.29
780.994	696.14
781.176	702.28
781.358	669.52
781.54	657.23
781.721	655.18
781.903	710.47
782.085	728.91
782.267	655.18
782.448	681.8
782.63	634.7
782.812	634.7
782.993	589.64
783.175	671.56
783.357	702.28
783.538	679.75
783.72	675.66
783.901	618.32
784.083	653.13
784.264	616.27
784.446	575.31
784.627	673.61
784.809	655.18
784.99	585.55
785.172	593.74
785.353	548.68
785.535	628.56
785.716	606.03
785.897	530.25
786.079	579.4
786.26	509.77
786.441	634.7
786.623	591.69
786.804	544.59
786.985	542.54
787.167	550.73
787.348	511.82
787.529	540.49
787.71	577.36
787.891	569.16
788.073	520.01
788.254	493.39
788.435	573.26
788.616	524.11
788.797	485.2
788.978	489.29
789.159	429.9
789.34	483.15
789.522	477.01
789.703	458.57
789.884	462.67
790.065	522.06
790.246	446.29
790.427	380.75
790.607	454.48
790.788	489.29
790.969	481.1
791.15	413.52
791.331	413.52
791.512	393.04
791.693	368.46
791.874	448.33
792.054	573.26
792.235	470.86
792.416	423.76
792.597	425.81
792.778	436.05
792.958	397.14
793.139	470.86
793.32	427.85
793.5	444.24
793.681	458.57
793.862	419.66
794.042	403.28
794.223	405.33
794.404	395.09
794.584	448.33
794.765	378.7
794.945	425.81
795.126	481.1
795.306	474.96
795.487	347.98
795.667	376.66
795.848	388.94
796.028	329.55
796.209	329.55
796.389	321.36
796.57	378.7
796.75	317.26
796.93	352.08
797.111	386.9
797.291	270.16
797.471	376.66
797.652	309.07
797.832	368.46
798.012	300.88
798.192	354.13
798.373	390.99
798.553	364.37
798.733	311.12
798.913	329.55
799.093	364.37
799.274	274.26
799.454	374.61
799.634	325.46
799.814	386.9
799.994	356.18
800.174	354.13
800.354	255.83
800.534	343.89
800.714	319.31
800.894	337.74
801.074	266.07
801.254	261.97
801.434	298.83
801.614	333.65
801.794	294.74
801.974	765.77
802.154	284.5
802.334	319.31
802.514	294.74
802.693	311.12
802.873	327.5
803.053	302.93
803.233	229.2
803.413	286.54
803.592	221.01
803.772	270.16
803.952	270.16
804.131	323.41
804.311	253.78
804.491	276.31
804.67	323.41
804.85	239.44
805.03	302.93
805.209	241.49
805.389	284.5
805.568	321.36
805.748	223.06
805.928	339.79
806.107	307.02
806.287	264.02
806.466	225.11
806.646	341.84
806.825	288.59
807.004	329.55
807.184	233.3
807.363	286.54
807.543	319.31
807.722	276.31
807.901	239.44
808.081	311.12
808.26	141.14
808.439	317.26
808.619	290.64
808.798	243.54
808.977	247.63
809.156	182.1
809.336	296.78
809.515	270.16
809.694	294.74
809.873	196.43
810.052	245.59
810.231	272.21
810.411	196.43
810.59	143.19
810.769	261.97
810.948	175.95
811.127	175.95
811.306	286.54
811.485	216.91
811.664	274.26
811.843	231.25
812.022	194.39
812.201	159.57
812.38	292.69
812.559	245.59
812.737	214.87
812.916	126.8
813.095	145.24
813.274	245.59
813.453	266.07
813.632	276.31
813.811	227.15
813.989	255.83
814.168	126.8
814.347	202.58
814.526	188.24
814.704	135
814.883	143.19
815.062	270.16
815.24	210.77
815.419	186.19
815.598	200.53
815.776	155.47
815.955	223.06
816.133	190.29
816.312	243.54
816.49	200.53
816.669	184.15
816.847	104.28
817.026	175.95
817.204	143.19
817.383	167.76
817.561	83.8
817.74	180.05
817.918	182.1
818.097	91.99
818.275	102.23
818.453	147.28
818.632	175.95
818.81	210.77
818.988	196.43
819.167	159.57
819.345	120.66
819.523	147.28
819.701	212.82
819.879	151.38
820.058	259.92
820.236	157.52
820.414	155.47
820.592	255.83
820.77	149.33
820.948	167.76
821.127	163.67
821.305	124.76
821.483	141.14
821.661	141.14
821.839	200.53
822.017	182.1
822.195	114.52
822.373	184.15
822.551	155.47
822.729	122.71
822.907	79.7
823.085	221.01
823.262	137.04
823.44	161.62
823.618	143.19
823.796	178
823.974	149.33
824.152	145.24
824.329	124.76
824.507	130.9
824.685	130.9
824.863	130.9
825.04	141.14
825.218	190.29
825.396	169.81
825.574	67.41
825.751	169.81
825.929	175.95
826.107	108.37
826.284	157.52
826.462	175.95
826.639	77.65
826.817	106.32
826.994	100.18
827.172	137.04
827.349	190.29
827.527	114.52
827.704	126.8
827.882	151.38
828.059	141.14
828.237	63.32
828.414	163.67
828.591	102.23
828.769	94.04
828.946	135
829.124	106.32
829.301	85.84
829.478	81.75
829.655	147.28
829.833	135
830.01	65.36
830.187	75.6
830.364	118.61
830.542	132.95
830.719	186.19
830.896	167.76
831.073	135
831.25	89.94
831.427	171.86
831.604	192.34
831.782	114.52
831.959	128.85
832.136	126.8
832.313	12.12
832.49	110.42
832.667	73.56
832.844	124.76
833.021	79.7
833.198	94.04
833.374	87.89
833.551	175.95
833.728	85.84
833.905	196.43
834.082	40.79
834.259	145.24
834.436	126.8
834.612	40.79
834.789	135
834.966	63.32
835.143	55.12
835.319	48.98
835.496	135
835.673	141.14
835.85	94.04
836.026	126.8
836.203	130.9
836.38	26.45
836.556	114.52
836.733	83.8
836.909	98.13
837.086	100.18
837.262	28.5
837.439	106.32
837.616	124.76
837.792	143.19
837.968	165.71
838.145	135
838.321	143.19
838.498	145.24
838.674	61.27
838.851	137.04
839.027	139.09
839.203	147.28
839.38	102.23
839.556	130.9
839.732	104.28
839.909	102.23
840.085	85.84
840.261	55.12
840.437	83.8
840.614	104.28
840.79	102.23
840.966	91.99
841.142	79.7
841.318	108.37
841.494	63.32
841.671	38.74
841.847	40.79
842.023	110.42
842.199	110.42
842.375	28.5
842.551	75.6
842.727	42.84
842.903	145.24
843.079	98.13
843.255	77.65
843.431	79.7
843.607	139.09
843.783	42.84
843.959	110.42
844.134	48.98
844.31	200.53
844.486	126.8
844.662	42.84
844.838	51.03
845.013	75.6
845.189	77.65
845.365	114.52
845.541	130.9
845.716	65.36
845.892	51.03
846.068	61.27
846.244	77.65
846.419	85.84
846.595	89.94
846.77	65.36
846.946	32.6
847.122	38.74
847.297	102.23
847.473	114.52
847.648	16.21
847.824	53.08
847.999	96.08
848.175	32.6
848.35	126.8
848.526	28.5
848.701	81.75
848.876	79.7
849.052	120.66
849.227	71.51
849.403	26.45
849.578	69.46
849.753	67.41
849.929	65.36
850.104	26.45
850.279	36.69
850.454	114.52
850.63	14.17
850.805	79.7
850.98	85.84
851.155	87.89
851.33	96.08
851.505	32.6
851.681	94.04
851.856	57.17
852.031	167.76
852.206	71.51
852.381	61.27
852.556	73.56
852.731	10.07
852.906	20.31
853.081	161.62
853.256	65.36
853.431	26.45
853.606	40.79
853.781	126.8
853.956	83.8
854.131	61.27
854.305	87.89
854.48	75.6
854.655	18.26
854.83	5.97
855.005	24.4
855.18	126.8
855.354	55.12
855.529	48.98
855.704	10.07
855.879	81.75
856.053	44.88
856.228	40.79
856.403	40.79
856.577	77.65
856.752	34.64
856.926	32.6
857.101	63.32
857.276	53.08
857.45	51.03
857.625	73.56
857.799	57.17
857.974	-4.27
858.148	-73.9
858.323	44.88
858.497	-12.46
858.672	24.4
858.846	104.28
859.02	67.41
859.195	34.64
859.369	1.88
859.543	71.51
859.718	12.12
859.892	26.45
860.066	91.99
860.241	53.08
860.415	46.93
860.589	98.13
860.763	79.7
860.938	51.03
861.112	32.6
861.286	44.88
861.46	24.4
861.634	77.65
861.808	48.98
861.982	-6.31
862.157	44.88
862.331	20.31
862.505	28.5
862.679	10.07
862.853	77.65
863.027	91.99
863.201	79.7
863.375	18.26
863.549	53.08
863.722	18.26
863.896	44.88
864.07	106.32
864.244	18.26
864.418	104.28
864.592	8.02
864.766	36.69
864.939	22.36
865.113	44.88
865.287	61.27
865.461	-41.13
865.634	24.4
865.808	102.23
865.982	-18.6
866.156	-0.17
866.329	5.97
866.503	53.08
866.676	40.79
866.85	-0.17
867.024	-8.36
867.197	94.04
867.371	16.21
867.544	42.84
867.718	-6.31
867.891	102.23
868.065	83.8
868.238	83.8
868.412	100.18
868.585	-16.55
868.759	81.75
868.932	75.6
869.105	32.6
869.279	69.46
869.452	1.88
869.625	12.12
869.799	40.79
869.972	24.4
870.145	44.88
870.319	53.08
870.492	81.75
870.665	69.46
870.838	-28.84
871.011	-24.75
871.185	42.84
871.358	22.36
871.531	61.27
871.704	53.08
871.877	46.93
872.05	71.51
872.223	-32.94
872.396	42.84
872.569	38.74
872.742	-47.27
872.915	-10.41
873.088	-37.03
873.261	28.5
873.434	85.84
873.607	-2.22
873.78	57.17
873.953	46.93
874.126	20.31
874.299	94.04
874.471	-43.18
874.644	26.45
874.817	-14.51
874.99	98.13
875.163	57.17
875.335	-16.55
875.508	-34.99
875.681	24.4
875.853	-16.55
876.026	-20.65
876.199	28.5
876.371	85.84
876.544	42.84
876.717	-2.22
876.889	26.45
877.062	12.12
877.234	51.03
877.407	-0.17
877.579	-20.65
877.752	77.65
877.924	18.26
878.097	40.79
878.269	-20.65
878.442	-0.17
878.614	-4.27
878.786	48.98
878.959	26.45
879.131	10.07
879.303	-18.6
879.476	40.79
879.648	53.08
879.82	1.88
879.993	48.98
880.165	32.6
880.337	-14.51
880.509	-20.65
880.681	61.27
880.854	28.5
881.026	-6.31
881.198	94.04
881.37	59.22
881.542	63.32
881.714	106.32
881.886	32.6
882.058	-37.03
882.23	116.56
882.402	-41.13
882.574	53.08
882.746	46.93
882.918	55.12
883.09	44.88
883.262	5.97
883.434	53.08
883.606	12.12
883.778	75.6
883.95	67.41
884.122	-32.94
884.293	75.6
884.465	20.31
884.637	77.65
884.809	-16.55
884.98	-53.42
885.152	55.12
885.324	14.17
885.496	-22.7
885.667	-6.31
885.839	22.36
886.011	28.5
886.182	59.22
886.354	22.36
886.525	14.17
886.697	14.17
886.869	-55.47
887.04	1.88
887.212	59.22
887.383	75.6
887.555	-6.31
887.726	-14.51
887.897	48.98
888.069	-14.51
888.24	61.27
888.412	59.22
888.583	61.27
888.754	61.27
888.926	-18.6
889.097	-88.23
889.268	-28.84
889.44	120.66
889.611	-55.47
889.782	30.55
889.953	57.17
890.125	53.08
890.296	-30.89
890.467	53.08
890.638	-4.27
890.809	38.74
890.98	-22.7
891.151	-0.17
891.323	75.6
891.494	34.64
891.665	38.74
891.836	-4.27
892.007	-28.84
892.178	-12.46
892.349	34.64
892.52	38.74
892.691	18.26
892.862	1.88
893.032	-10.41
893.203	44.88
893.374	-8.36
893.545	100.18
893.716	69.46
893.887	22.36
894.057	-2.22
894.228	40.79
894.399	-8.36
894.57	89.94
894.74	-14.51
894.911	51.03
895.082	-10.41
895.253	46.93
895.423	75.6
895.594	24.4
895.764	44.88
895.935	3.93
896.106	-16.55
896.276	-32.94
896.447	8.02
896.617	65.36
896.788	110.42
896.958	26.45
897.129	51.03
897.299	-18.6
897.47	14.17
897.64	46.93
897.81	-12.46
897.981	89.94
898.151	-28.84
898.322	-4.27
898.492	32.6
898.662	12.12
898.832	18.26
899.003	-2.22
899.173	12.12
899.343	-8.36
899.513	3.93
