Data from USB4F104151__154__10-27-00-502.txt Node

Date: Wed Mar 12 10:27:00 EDT 2025
User: louis
Spectrometer: USB4F10415
Trigger mode: 4
Integration Time (sec): 3.000000E-2
Scans to average: 1
Electric dark correction enabled: true
Nonlinearity correction enabled: false
Boxcar width: 0
XAxis mode: Wavelengths
Number of Pixels in Spectrum: 3648
>>>>>Begin Spectral Data<<<<<
178.204	-140.12
178.424	-140.12
178.644	-140.12
178.864	-105.3
179.084	-107.35
179.304	64.68
179.524	52.39
179.744	-0.85
179.964	33.96
180.184	-11.09
180.404	-0.85
180.624	19.63
180.844	-33.62
181.064	-109.4
181.283	-15.19
181.503	-39.76
181.723	40.11
181.943	-37.72
182.163	38.06
182.383	21.67
182.602	89.26
182.822	7.34
183.042	-7
183.262	3.24
183.482	27.82
183.701	3.24
183.921	27.82
184.141	3.24
184.361	40.11
184.58	31.91
184.8	27.82
185.02	66.73
185.239	3.24
185.459	60.59
185.679	40.11
185.898	19.63
186.118	81.07
186.338	54.44
186.557	27.82
186.777	66.73
186.997	13.48
187.216	27.82
187.436	128.17
187.655	23.72
187.875	46.25
188.095	-41.81
188.314	50.35
188.534	-0.85
188.753	-35.67
188.973	3.24
189.192	103.59
189.412	60.59
189.631	11.43
189.851	-4.95
190.07	109.74
190.29	-4.95
190.509	46.25
190.729	29.87
190.948	42.15
191.168	148.65
191.387	54.44
191.607	25.77
191.826	23.72
192.045	36.01
192.265	25.77
192.484	-25.43
192.704	-23.38
192.923	-39.76
193.142	132.26
193.362	81.07
193.581	-41.81
193.8	54.44
194.02	38.06
194.239	-17.24
194.458	56.49
194.678	15.53
194.897	-4.95
195.116	-23.38
195.335	-15.19
195.555	44.2
195.774	-39.76
195.993	44.2
196.212	33.96
196.432	68.78
196.651	3.24
196.87	-45.91
197.089	97.45
197.308	3.24
197.528	29.87
197.747	99.5
197.966	46.25
198.185	50.35
198.404	-31.57
198.623	62.63
198.842	50.35
199.062	60.59
199.281	-33.62
199.5	-29.52
199.719	-11.09
199.938	44.2
200.157	70.83
200.376	38.06
200.595	-2.9
200.814	-29.52
201.033	36.01
201.252	58.54
201.471	11.43
201.69	11.43
201.909	31.91
202.128	66.73
202.347	25.77
202.566	79.02
202.785	31.91
203.004	21.67
203.223	27.82
203.442	15.53
203.661	-58.2
203.879	52.39
204.098	21.67
204.317	-13.14
204.536	-7
204.755	15.53
204.974	9.39
205.193	1.19
205.411	81.07
205.63	-29.52
205.849	50.35
206.068	1.19
206.287	19.63
206.505	74.92
206.724	23.72
206.943	58.54
207.162	15.53
207.381	27.82
207.599	46.25
207.818	25.77
208.037	117.93
208.255	23.72
208.474	-9.05
208.693	27.82
208.911	-21.33
209.13	31.91
209.349	101.55
209.567	-21.33
209.786	31.91
210.005	9.39
210.223	48.3
210.442	-4.95
210.661	-17.24
210.879	56.49
211.098	52.39
211.316	40.11
211.535	36.01
211.753	50.35
211.972	44.2
212.191	5.29
212.409	13.48
212.628	68.78
212.846	-2.9
213.065	62.63
213.283	58.54
213.502	-13.14
213.72	-37.72
213.938	-7
214.157	33.96
214.375	64.68
214.594	36.01
214.812	23.72
215.031	31.91
215.249	44.2
215.467	76.97
215.686	74.92
215.904	89.26
216.122	23.72
216.341	46.25
216.559	76.97
216.778	25.77
216.996	23.72
217.214	33.96
217.432	-9.05
217.651	5.29
217.869	-0.85
218.087	42.15
218.306	-23.38
218.524	46.25
218.742	-0.85
218.96	64.68
219.179	44.2
219.397	40.11
219.615	130.22
219.833	81.07
220.051	-11.09
220.27	68.78
220.488	7.34
220.706	19.63
220.924	66.73
221.142	31.91
221.36	40.11
221.578	46.25
221.796	-7
222.015	-45.91
222.233	58.54
222.451	19.63
222.669	25.77
222.887	31.91
223.105	52.39
223.323	44.2
223.541	-15.19
223.759	7.34
223.977	19.63
224.195	72.87
224.413	19.63
224.631	52.39
224.849	17.58
225.067	56.49
225.285	-33.62
225.503	-23.38
225.721	36.01
225.939	93.35
226.157	44.2
226.375	85.16
226.592	-4.95
226.81	62.63
227.028	91.31
227.246	138.41
227.464	44.2
227.682	64.68
227.9	33.96
228.117	25.77
228.335	58.54
228.553	-45.91
228.771	29.87
228.989	83.11
229.206	-33.62
229.424	-17.24
229.642	9.39
229.86	40.11
230.077	-25.43
230.295	17.58
230.513	99.5
230.731	25.77
230.948	36.01
231.166	-9.05
231.384	54.44
231.601	3.24
231.819	23.72
232.037	60.59
232.254	52.39
232.472	3.24
232.689	-41.81
232.907	38.06
233.125	-31.57
233.342	64.68
233.56	27.82
233.777	-31.57
233.995	9.39
234.213	38.06
234.43	83.11
234.648	-11.09
234.865	46.25
235.083	7.34
235.3	9.39
235.518	9.39
235.735	70.83
235.953	-7
236.17	27.82
236.388	-0.85
236.605	36.01
236.822	3.24
237.04	56.49
237.257	-9.05
237.475	-13.14
237.692	46.25
237.909	1.19
238.127	56.49
238.344	70.83
238.562	50.35
238.779	62.63
238.996	58.54
239.214	36.01
239.431	15.53
239.648	52.39
239.865	3.24
240.083	52.39
240.3	42.15
240.517	-19.29
240.735	97.45
240.952	52.39
241.169	42.15
241.386	58.54
241.603	42.15
241.821	-50
242.038	103.59
242.255	93.35
242.472	66.73
242.689	52.39
242.907	36.01
243.124	40.11
243.341	29.87
243.558	-70.48
243.775	36.01
243.992	-2.9
244.209	79.02
244.426	87.21
244.643	-19.29
244.86	-29.52
245.078	-39.76
245.295	54.44
245.512	23.72
245.729	42.15
245.946	29.87
246.163	31.91
246.38	42.15
246.597	101.55
246.814	79.02
247.031	31.91
247.248	-33.62
247.464	17.58
247.681	64.68
247.898	42.15
248.115	-0.85
248.332	-23.38
248.549	62.63
248.766	36.01
248.983	25.77
249.2	5.29
249.417	25.77
249.633	23.72
249.85	38.06
250.067	13.48
250.284	79.02
250.501	76.97
250.717	27.82
250.934	-56.15
251.151	56.49
251.368	-7
251.585	42.15
251.801	-17.24
252.018	-45.91
252.235	-88.92
252.451	29.87
252.668	150.7
252.885	44.2
253.102	54.44
253.318	27.82
253.535	-11.09
253.752	42.15
253.968	11.43
254.185	15.53
254.401	70.83
254.618	99.5
254.835	-13.14
255.051	130.22
255.268	-15.19
255.484	36.01
255.701	44.2
255.917	17.58
256.134	-60.24
256.351	-17.24
256.567	-62.29
256.784	27.82
257	7.34
257.217	60.59
257.433	-7
257.65	-27.48
257.866	42.15
258.082	19.63
258.299	-2.9
258.515	23.72
258.732	-7
258.948	48.3
259.165	19.63
259.381	-21.33
259.597	52.39
259.814	76.97
260.03	33.96
260.246	79.02
260.463	64.68
260.679	-4.95
260.895	11.43
261.112	-31.57
261.328	93.35
261.544	7.34
261.761	117.93
261.977	-21.33
262.193	21.67
262.409	3.24
262.626	38.06
262.842	40.11
263.058	-33.62
263.274	38.06
263.49	58.54
263.707	50.35
263.923	52.39
264.139	7.34
264.355	13.48
264.571	76.97
264.787	-66.39
265.004	105.64
265.22	40.11
265.436	44.2
265.652	74.92
265.868	50.35
266.084	-52.05
266.3	68.78
266.516	-45.91
266.732	56.49
266.948	21.67
267.164	85.16
267.38	62.63
267.596	-21.33
267.812	68.78
268.028	91.31
268.244	21.67
268.46	87.21
268.676	27.82
268.892	33.96
269.108	-11.09
269.324	-21.33
269.54	11.43
269.756	56.49
269.972	-13.14
270.188	19.63
270.403	-11.09
270.619	-43.86
270.835	36.01
271.051	52.39
271.267	13.48
271.483	50.35
271.698	15.53
271.914	19.63
272.13	3.24
272.346	3.24
272.562	25.77
272.777	38.06
272.993	11.43
273.209	42.15
273.425	134.31
273.64	36.01
273.856	9.39
274.072	58.54
274.287	19.63
274.503	83.11
274.719	-60.24
274.934	7.34
275.15	17.58
275.366	27.82
275.581	11.43
275.797	64.68
276.012	3.24
276.228	33.96
276.444	62.63
276.659	66.73
276.875	-13.14
277.09	50.35
277.306	-9.05
277.521	44.2
277.737	-4.95
277.952	105.64
278.168	27.82
278.383	21.67
278.599	40.11
278.814	76.97
279.03	-29.52
279.245	107.69
279.461	105.64
279.676	74.92
279.892	29.87
280.107	56.49
280.322	13.48
280.538	5.29
280.753	-4.95
280.969	52.39
281.184	9.39
281.399	72.87
281.615	19.63
281.83	-13.14
282.045	31.91
282.26	48.3
282.476	-4.95
282.691	54.44
282.906	-2.9
283.122	23.72
283.337	-43.86
283.552	44.2
283.767	25.77
283.983	72.87
284.198	-41.81
284.413	66.73
284.628	3.24
284.843	11.43
285.058	97.45
285.274	-11.09
285.489	-54.1
285.704	17.58
285.919	-25.43
286.134	-13.14
286.349	58.54
286.564	19.63
286.779	128.17
286.995	-17.24
287.21	-25.43
287.425	101.55
287.64	64.68
287.855	13.48
288.07	23.72
288.285	29.87
288.5	74.92
288.715	17.58
288.93	79.02
289.145	44.2
289.36	48.3
289.575	21.67
289.79	3.24
290.004	17.58
290.219	66.73
290.434	-9.05
290.649	3.24
290.864	60.59
291.079	95.4
291.294	40.11
291.509	72.87
291.724	27.82
291.938	-19.29
292.153	66.73
292.368	23.72
292.583	-7
292.798	40.11
293.012	72.87
293.227	9.39
293.442	7.34
293.657	48.3
293.871	111.78
294.086	48.3
294.301	52.39
294.516	36.01
294.73	117.93
294.945	21.67
295.16	40.11
295.374	9.39
295.589	27.82
295.804	38.06
296.018	9.39
296.233	48.3
296.447	58.54
296.662	-7
296.877	89.26
297.091	46.25
297.306	74.92
297.52	17.58
297.735	83.11
297.949	48.3
298.164	-25.43
298.378	144.55
298.593	31.91
298.807	46.25
299.022	113.83
299.236	68.78
299.451	97.45
299.665	58.54
299.88	48.3
300.094	-0.85
300.309	44.2
300.523	21.67
300.737	56.49
300.952	44.2
301.166	29.87
301.381	50.35
301.595	27.82
301.809	3.24
302.024	89.26
302.238	85.16
302.452	58.54
302.667	76.97
302.881	79.02
303.095	44.2
303.309	21.67
303.524	36.01
303.738	11.43
303.952	-11.09
304.166	21.67
304.381	13.48
304.595	74.92
304.809	1.19
305.023	70.83
305.237	23.72
305.452	62.63
305.666	117.93
305.88	50.35
306.094	13.48
306.308	44.2
306.522	17.58
306.736	44.2
306.95	95.4
307.164	68.78
307.379	-21.33
307.593	3.24
307.807	40.11
308.021	3.24
308.235	25.77
308.449	-17.24
308.663	15.53
308.877	64.68
309.091	62.63
309.305	38.06
309.519	1.19
309.733	58.54
309.947	-23.38
310.161	74.92
310.374	85.16
310.588	-2.9
310.802	50.35
311.016	27.82
311.23	-7
311.444	17.58
311.658	11.43
311.872	11.43
312.085	23.72
312.299	134.31
312.513	31.91
312.727	60.59
312.941	25.77
313.154	9.39
313.368	29.87
313.582	64.68
313.796	25.77
314.009	17.58
314.223	91.31
314.437	17.58
314.651	11.43
314.864	-39.76
315.078	115.88
315.292	17.58
315.505	9.39
315.719	17.58
315.933	-7
316.146	-11.09
316.36	68.78
316.573	48.3
316.787	87.21
317.001	44.2
317.214	40.11
317.428	91.31
317.641	58.54
317.855	103.59
318.068	9.39
318.282	36.01
318.495	64.68
318.709	66.73
318.922	23.72
319.136	109.74
319.349	105.64
319.563	33.96
319.776	33.96
319.99	17.58
320.203	76.97
320.417	36.01
320.63	89.26
320.843	101.55
321.057	58.54
321.27	23.72
321.483	50.35
321.697	62.63
321.91	154.79
322.124	44.2
322.337	83.11
322.55	68.78
322.763	91.31
322.977	9.39
323.19	9.39
323.403	97.45
323.617	109.74
323.83	83.11
324.043	-13.14
324.256	-23.38
324.469	19.63
324.683	31.91
324.896	91.31
325.109	19.63
325.322	-29.52
325.535	83.11
325.748	48.3
325.962	68.78
326.175	48.3
326.388	-9.05
326.601	68.78
326.814	87.21
327.027	36.01
327.24	52.39
327.453	-31.57
327.666	-29.52
327.879	42.15
328.092	105.64
328.305	117.93
328.518	-0.85
328.731	19.63
328.944	48.3
329.157	79.02
329.37	25.77
329.583	19.63
329.796	42.15
330.009	17.58
330.222	64.68
330.435	21.67
330.648	60.59
330.861	50.35
331.073	33.96
331.286	91.31
331.499	27.82
331.712	-9.05
331.925	62.63
332.138	-4.95
332.35	17.58
332.563	-25.43
332.776	107.69
332.989	56.49
333.202	42.15
333.414	13.48
333.627	17.58
333.84	-2.9
334.053	44.2
334.265	-45.91
334.478	-21.33
334.691	33.96
334.903	31.91
335.116	29.87
335.329	38.06
335.541	33.96
335.754	23.72
335.966	-21.33
336.179	36.01
336.392	48.3
336.604	29.87
336.817	58.54
337.029	62.63
337.242	-9.05
337.454	99.5
337.667	-0.85
337.88	122.02
338.092	-13.14
338.305	85.16
338.517	21.67
338.729	-0.85
338.942	3.24
339.154	-0.85
339.367	54.44
339.579	62.63
339.792	7.34
340.004	103.59
340.217	9.39
340.429	107.69
340.641	52.39
340.854	48.3
341.066	74.92
341.278	15.53
341.491	76.97
341.703	9.39
341.915	-60.24
342.128	17.58
342.34	19.63
342.552	40.11
342.764	70.83
342.977	-31.57
343.189	117.93
343.401	128.17
343.613	72.87
343.826	72.87
344.038	95.4
344.25	40.11
344.462	44.2
344.674	105.64
344.886	36.01
345.099	46.25
345.311	52.39
345.523	17.58
345.735	48.3
345.947	85.16
346.159	58.54
346.371	33.96
346.583	31.91
346.795	136.36
347.007	29.87
347.219	56.49
347.431	68.78
347.643	167.08
347.855	40.11
348.067	44.2
348.279	52.39
348.491	7.34
348.703	19.63
348.915	85.16
349.127	60.59
349.339	58.54
349.551	1.19
349.763	-13.14
349.975	87.21
350.187	72.87
350.399	93.35
350.61	31.91
350.822	54.44
351.034	-86.87
351.246	87.21
351.458	74.92
351.669	58.54
351.881	-31.57
352.093	54.44
352.305	60.59
352.517	54.44
352.728	101.55
352.94	60.59
353.152	93.35
353.363	-17.24
353.575	56.49
353.787	19.63
353.999	-4.95
354.21	160.94
354.422	44.2
354.633	-31.57
354.845	58.54
355.057	76.97
355.268	25.77
355.48	60.59
355.692	15.53
355.903	109.74
356.115	38.06
356.326	-17.24
356.538	50.35
356.749	66.73
356.961	146.6
357.172	17.58
357.384	-15.19
357.595	109.74
357.807	79.02
358.018	15.53
358.23	-4.95
358.441	56.49
358.653	50.35
358.864	76.97
359.075	44.2
359.287	31.91
359.498	38.06
359.709	87.21
359.921	40.11
360.132	31.91
360.344	23.72
360.555	-21.33
360.766	105.64
360.977	52.39
361.189	99.5
361.4	23.72
361.611	-7
361.823	58.54
362.034	38.06
362.245	15.53
362.456	48.3
362.667	76.97
362.879	-7
363.09	36.01
363.301	93.35
363.512	50.35
363.723	3.24
363.935	70.83
364.146	83.11
364.357	23.72
364.568	52.39
364.779	25.77
364.99	87.21
365.201	38.06
365.412	19.63
365.623	-0.85
365.834	74.92
366.045	-7
366.256	60.59
366.467	89.26
366.678	52.39
366.889	66.73
367.1	126.12
367.311	87.21
367.522	5.29
367.733	44.2
367.944	11.43
368.155	29.87
368.366	87.21
368.577	70.83
368.788	54.44
368.999	162.98
369.209	-2.9
369.42	109.74
369.631	140.46
369.842	29.87
370.053	23.72
370.264	79.02
370.474	48.3
370.685	81.07
370.896	62.63
371.107	44.2
371.317	117.93
371.528	85.16
371.739	19.63
371.95	33.96
372.16	64.68
372.371	64.68
372.582	19.63
372.792	21.67
373.003	64.68
373.214	46.25
373.424	54.44
373.635	11.43
373.846	36.01
374.056	13.48
374.267	85.16
374.477	-2.9
374.688	46.25
374.898	27.82
375.109	-15.19
375.319	99.5
375.53	66.73
375.74	99.5
375.951	11.43
376.161	66.73
376.372	42.15
376.582	33.96
376.793	-0.85
377.003	17.58
377.214	15.53
377.424	-7
377.635	-2.9
377.845	85.16
378.055	70.83
378.266	-9.05
378.476	42.15
378.686	38.06
378.897	56.49
379.107	62.63
379.317	23.72
379.528	1.19
379.738	64.68
379.948	58.54
380.158	33.96
380.369	44.2
380.579	25.77
380.789	85.16
380.999	58.54
381.21	95.4
381.42	124.07
381.63	-7
381.84	83.11
382.05	93.35
382.261	40.11
382.471	70.83
382.681	79.02
382.891	85.16
383.101	-9.05
383.311	44.2
383.521	99.5
383.731	76.97
383.941	64.68
384.151	-9.05
384.361	101.55
384.571	36.01
384.781	52.39
384.991	91.31
385.201	99.5
385.411	105.64
385.621	27.82
385.831	29.87
386.041	70.83
386.251	15.53
386.461	91.31
386.671	29.87
386.881	62.63
387.091	11.43
387.301	68.78
387.511	-2.9
387.72	31.91
387.93	21.67
388.14	-31.57
388.35	68.78
388.56	64.68
388.769	-15.19
388.979	99.5
389.189	89.26
389.399	58.54
389.609	99.5
389.818	97.45
390.028	79.02
390.238	52.39
390.447	19.63
390.657	60.59
390.867	33.96
391.076	64.68
391.286	72.87
391.496	79.02
391.705	68.78
391.915	109.74
392.125	70.83
392.334	76.97
392.544	130.22
392.753	40.11
392.963	-9.05
393.172	76.97
393.382	60.59
393.591	140.46
393.801	85.16
394.01	99.5
394.22	162.98
394.429	52.39
394.639	52.39
394.848	136.36
395.058	72.87
395.267	93.35
395.477	95.4
395.686	81.07
395.895	154.79
396.105	126.12
396.314	115.88
396.524	115.88
396.733	29.87
396.942	156.84
397.152	89.26
397.361	68.78
397.57	150.7
397.78	115.88
397.989	113.83
398.198	132.26
398.407	76.97
398.617	93.35
398.826	91.31
399.035	83.11
399.244	107.69
399.453	103.59
399.663	60.59
399.872	154.79
400.081	40.11
400.29	91.31
400.499	101.55
400.708	115.88
400.917	70.83
401.127	81.07
401.336	126.12
401.545	99.5
401.754	165.03
401.963	150.7
402.172	122.02
402.381	105.64
402.59	130.22
402.799	101.55
403.008	173.22
403.217	171.18
403.426	212.14
403.635	113.83
403.844	117.93
404.053	167.08
404.262	158.89
404.471	257.19
404.68	199.85
404.888	171.18
405.097	109.74
405.306	195.75
405.515	177.32
405.724	208.04
405.933	216.23
406.142	242.85
406.35	199.85
406.559	162.98
406.768	158.89
406.977	210.09
407.185	281.77
407.394	289.96
407.603	169.13
407.812	187.56
408.02	345.25
408.229	195.75
408.438	228.52
408.646	240.81
408.855	298.15
409.064	251.05
409.272	224.42
409.481	314.53
409.69	281.77
409.898	339.11
410.107	351.4
410.315	320.68
410.524	349.35
410.733	388.26
410.941	367.78
411.15	363.69
411.358	406.69
411.567	588.96
411.775	408.74
411.984	457.89
412.192	441.51
412.401	484.52
412.609	466.08
412.818	527.52
413.026	564.39
413.234	543.91
413.443	591.01
413.651	539.81
413.86	697.5
414.068	658.59
414.276	756.9
414.485	621.73
414.693	699.55
414.901	724.13
415.11	779.42
415.318	662.69
415.526	865.44
415.734	912.54
415.943	783.52
416.151	933.02
416.359	791.71
416.567	896.16
416.776	976.03
416.984	971.93
417.192	1103
417.4	1027.23
417.608	1053.85
417.817	1193.11
418.025	1223.83
418.233	1289.37
418.441	1182.87
418.649	1248.41
418.857	1465.49
419.065	1428.63
419.273	1367.19
419.481	1447.06
419.689	1549.46
419.897	1574.03
420.105	1629.33
420.313	1707.15
420.521	1645.71
420.729	1715.34
420.937	1801.36
421.145	1905.81
421.353	1954.96
421.561	2047.12
421.769	2098.31
421.977	2141.32
422.185	2165.9
422.393	2249.86
422.601	2376.84
422.809	2385.03
423.017	2507.91
423.224	2626.69
423.432	2731.14
423.64	2634.88
423.848	2980.99
424.056	2862.21
424.263	2978.94
424.471	2991.23
424.679	3028.09
424.887	3269.75
425.094	3351.67
425.302	3484.79
425.51	3595.38
425.718	3611.76
425.925	3572.85
426.133	3691.63
426.341	3894.38
426.548	4107.37
426.756	4168.81
426.964	4107.37
427.171	4510.82
427.379	4547.69
427.586	4545.64
427.794	4709.47
428.001	4811.87
428.209	5303.39
428.417	5114.97
428.624	5565.53
428.832	5622.87
429.039	5405.78
429.247	5497.94
429.454	6093.9
429.662	6470.73
429.869	6050.89
430.076	6433.86
430.284	6194.25
430.491	6677.57
430.699	7029.82
430.906	6874.18
431.114	7146.56
431.321	7449.66
431.528	7468.09
431.736	7849.01
431.943	8113.2
432.15	7783.48
432.358	8012.85
432.565	8578.09
432.772	8262.7
432.979	8795.17
433.187	8940.58
433.394	9110.56
433.601	9878.55
433.808	9700.37
434.016	9634.84
434.223	10165.26
434.43	10529.8
434.637	10488.84
434.844	11271.17
435.052	11234.3
435.259	11244.54
435.466	11305.98
435.673	11322.37
435.88	11985.91
436.087	12702.7
436.294	12313.58
436.501	12370.93
436.708	12487.66
436.915	13069.28
437.122	13376.48
437.329	13601.76
437.537	13741.02
437.743	14177.23
437.95	13736.92
438.157	14883.78
438.364	15270.85
438.571	15109.06
438.778	15387.58
438.985	16917.42
439.192	15999.93
439.399	16640.94
439.606	16022.45
439.813	17167.27
440.02	18072.47
440.227	17970.07
440.433	17632.16
440.64	18199.44
440.847	18035.61
441.054	18416.53
441.261	19860.35
441.467	19669.89
441.674	20001.66
441.881	20644.72
442.088	20181.88
442.294	20521.84
442.501	20855.66
442.708	21365.6
442.914	21908.32
443.121	22926.16
443.328	22514.52
443.534	24240.95
443.741	23647.04
443.948	22936.4
444.154	24763.18
444.361	24640.31
444.568	24886.06
444.774	24767.28
444.981	25033.52
445.187	25682.72
445.394	26802.96
445.6	26426.14
445.807	28859.12
446.013	27798.27
446.22	28015.36
446.426	29133.55
446.633	29623.01
446.839	30503.64
447.046	29391.59
447.252	30935.76
447.459	30577.37
447.665	30708.44
447.871	31924.93
448.078	33112.75
448.284	31556.3
448.491	32678.58
448.697	33788.58
448.903	34491.04
449.11	34255.52
449.316	33626.79
449.522	34517.66
449.728	35254.93
449.935	35361.42
450.141	35521.16
450.347	36090.5
450.553	35197.59
450.76	35254.93
450.966	36606.59
451.172	36315.78
451.378	36803.19
451.584	36037.25
451.791	37417.58
451.997	36848.25
452.203	37802.6
452.409	37608.04
452.615	37063.29
452.821	36170.37
453.027	35455.63
453.233	37407.34
453.44	36094.6
453.646	36467.33
453.852	36182.66
454.058	37042.81
454.264	35711.63
454.47	36231.81
454.676	35838.6
454.882	36856.44
455.088	33411.76
455.294	33897.13
455.5	34237.09
455.705	34716.31
455.911	33358.51
456.117	33039.03
456.323	32268.99
456.529	30403.29
456.735	31812.29
456.941	30720.73
457.147	30479.07
457.352	29461.23
457.558	28879.6
457.764	29332.2
457.97	28566.26
458.176	28062.46
458.381	27972.35
458.587	26569.49
458.793	26596.12
458.999	25242.41
459.204	26921.74
459.41	26127.13
459.616	24462.13
459.821	24466.23
460.027	24607.54
460.233	23823.17
460.438	22825.81
460.644	23126.86
460.85	21984.09
461.055	21654.37
461.261	21562.21
461.466	20015.99
461.672	19489.67
461.878	20824.94
462.083	19538.82
462.289	19284.87
462.494	19116.93
462.7	18019.22
462.905	17761.18
463.111	18480.02
463.316	18424.72
463.522	17931.16
463.727	17752.99
463.932	17869.72
464.138	17791.9
464.343	18160.53
464.549	17329.06
464.754	17757.08
464.959	17531.81
465.165	17810.33
465.37	16622.51
465.575	16421.81
465.781	17322.91
465.986	17269.67
466.191	16624.56
466.397	16333.75
466.602	15506.37
466.807	16053.17
467.012	15934.39
467.218	16083.89
467.423	15924.15
467.628	15848.38
467.833	16645.04
468.038	16026.55
468.244	15287.23
468.449	16059.32
468.654	15571.9
468.859	15305.67
469.064	15391.68
469.269	14805.96
469.474	14498.77
469.679	14998.47
469.885	14693.32
470.09	14767.05
470.295	14765
470.5	14373.84
470.705	14609.36
470.91	14166.99
471.115	13939.67
471.32	14349.26
471.525	14291.92
471.73	13984.73
471.935	13999.06
472.139	13364.19
472.344	13333.47
472.549	13351.9
472.754	13231.07
472.959	13024.23
473.164	12614.63
473.369	12510.19
473.574	12944.36
473.778	12905.45
473.983	12686.31
474.188	12778.47
474.393	12176.37
474.598	12086.26
474.802	12045.3
475.007	11912.18
475.212	12022.77
475.417	11346.94
475.621	11637.75
475.826	11582.46
476.031	11471.87
476.235	11133.95
476.44	11494.4
476.645	11066.37
476.849	11246.59
477.054	11009.03
477.259	10744.84
477.463	10923.01
477.668	10652.68
477.872	10497.03
478.077	10494.99
478.282	10279.95
478.486	10411.02
478.691	10267.66
478.895	10005.52
479.1	10097.68
479.304	10009.62
479.509	9896.98
479.713	9964.56
479.918	9911.32
480.122	9542.68
480.326	9853.97
480.531	10001.43
480.735	9557.02
480.94	9665.56
481.144	10060.82
481.348	9440.28
481.553	9440.28
481.757	9372.7
481.961	9573.4
482.166	9710.61
482.37	9471
482.574	9333.79
482.778	9348.12
482.983	9534.49
483.187	9489.43
483.391	9477.15
483.595	9227.29
483.8	9163.81
484.004	9362.46
484.208	9333.79
484.412	9335.84
484.616	9552.92
484.821	9452.57
485.025	9309.21
485.229	9364.51
485.433	9395.23
485.637	9423.9
485.841	9200.67
486.045	9366.56
486.249	9573.4
486.453	9137.18
486.657	9516.06
486.861	9532.44
487.065	9356.32
487.269	9456.67
487.473	9337.88
487.677	9292.83
487.881	9436.19
488.085	9198.62
488.289	9587.74
488.493	9509.91
488.697	9436.19
488.901	9427.99
489.105	9503.77
489.309	9577.5
489.512	9417.75
489.716	9593.88
489.92	9462.81
490.124	9634.84
490.328	9583.64
490.531	9683.99
490.735	9804.82
490.939	9741.33
491.143	9681.94
491.346	9649.18
491.55	10073.1
491.754	9886.74
491.958	9909.27
492.161	9931.8
492.365	10116.11
492.569	9757.72
492.772	9956.37
492.976	10030.1
493.18	9950.23
493.383	10232.85
493.587	10408.97
493.79	10314.77
493.994	10484.75
494.197	10476.55
494.401	10593.29
494.605	10398.73
494.808	10650.63
495.012	10576.91
495.215	10695.69
495.419	10826.76
495.622	10873.86
495.825	11047.94
496.029	10869.76
496.232	11168.77
496.436	11291.65
496.639	11615.23
496.843	11529.21
497.046	11832.31
497.249	11748.34
497.453	11983.86
497.656	12028.92
497.859	12016.63
498.063	12299.25
498.266	12354.54
498.469	12205.04
498.673	12534.76
498.876	12518.38
499.079	12708.84
499.282	12764.14
499.485	13018.08
499.689	13198.31
499.892	13351.9
500.095	13392.86
500.298	13454.3
500.501	13538.27
500.705	13765.59
500.908	14111.7
501.111	14470.09
501.314	14410.7
501.517	14658.51
501.72	14685.13
501.923	14441.42
502.126	15281.09
502.329	15197.12
502.532	15320
502.735	15463.36
502.938	15668.16
503.141	15897.53
503.344	16139.19
503.547	15985.59
503.75	16399.28
503.953	16862.12
504.156	16597.93
504.359	16968.62
504.562	16745.39
504.765	17494.94
504.968	17312.67
505.17	17777.56
505.373	17410.98
505.576	18127.77
505.779	18193.3
505.982	18383.76
506.185	18563.98
506.387	18830.22
506.59	18752.4
506.793	19223.43
506.996	19127.17
507.198	19919.74
507.401	19784.57
507.604	19968.89
507.807	20405.11
508.009	20179.83
508.212	20657.01
508.415	20761.45
508.617	21218.15
508.82	21158.76
509.022	21033.83
509.225	21289.83
509.428	21850.97
509.63	22086.49
509.833	22330.2
510.035	22385.49
510.238	22502.23
510.44	22727.5
510.643	23223.11
510.845	23298.89
511.048	23419.72
511.25	23763.78
511.453	24064.83
511.655	24513.33
511.858	24259.38
512.06	24658.74
512.262	25099.05
512.465	24859.44
512.667	25533.22
512.87	25490.21
513.072	25570.08
513.274	26170.14
513.477	26221.34
513.679	26483.48
513.881	26837.78
514.084	27239.18
514.286	27247.37
514.488	27693.83
514.69	28003.07
514.893	28101.37
515.095	28089.09
515.297	28656.37
515.499	28621.56
515.701	29229.8
515.904	29295.34
516.106	29700.84
516.308	29780.71
516.51	30184.16
516.712	30202.59
516.914	30841.56
517.116	30835.41
517.318	31009.49
517.52	31503.05
517.722	31564.49
517.925	31855.3
518.127	32326.33
518.329	32416.44
518.531	32539.32
518.733	33147.57
518.935	33237.68
519.136	33235.63
519.338	34009.76
519.54	34189.98
519.742	34241.18
519.944	34677.4
520.146	35142.29
520.348	35125.91
520.55	35304.08
520.752	35615.37
520.954	36074.12
521.155	35959.43
521.357	36283.01
521.559	37036.66
521.761	37165.68
521.963	37499.5
522.164	37431.92
522.366	37597.8
522.568	38025.83
522.77	38154.85
522.971	38636.13
523.173	38394.46
523.375	38752.86
523.576	38781.53
523.778	39096.92
523.98	39432.78
524.181	40043.08
524.383	39762.51
524.584	40518.21
524.786	40424
524.988	40137.29
525.189	40548.93
525.391	40735.29
525.592	41247.29
525.794	41370.16
525.995	41079.35
526.197	41693.74
526.398	41816.62
526.6	42334.76
526.801	42332.71
527.003	42304.04
527.204	42498.59
527.406	42730.01
527.607	42820.13
527.808	42846.75
528.01	42431.01
528.211	42988.06
528.412	43762.19
528.614	43321.88
528.815	43303.45
529.016	44286.47
529.218	43749.9
529.419	43944.46
529.62	43901.45
529.822	44229.13
530.023	44145.16
530.224	44227.08
530.425	43684.37
530.626	43848.21
530.828	44192.26
531.029	44792.32
531.23	44216.84
531.431	44562.95
531.632	44780.03
531.833	44825.09
532.035	44560.9
532.236	44560.9
532.437	45189.63
532.638	45107.71
532.839	45195.77
533.04	45445.62
533.241	44878.33
533.442	45400.57
533.643	44927.49
533.844	45033.98
534.045	45552.12
534.246	44812.8
534.447	45679.09
534.648	44935.68
534.849	45294.07
535.05	44923.39
535.251	45249.02
535.451	45095.42
535.652	45709.81
535.853	45447.67
536.054	45388.28
536.255	45369.85
536.456	45378.04
536.657	45588.98
536.857	45447.67
537.058	45511.16
537.259	45867.5
537.46	45758.96
537.66	45150.71
537.861	45994.48
538.062	45212.15
538.263	45623.79
538.463	45167.1
538.664	45087.23
538.865	45892.08
539.065	45945.33
539.266	45097.47
539.466	45814.26
539.667	45085.18
539.868	45654.51
540.068	45224.44
540.269	45464.05
540.469	46146.03
540.67	45674.99
540.87	45593.07
541.071	45812.21
541.271	45535.73
541.472	45232.63
541.672	45496.82
541.873	45449.72
542.073	45003.26
542.274	45572.6
542.474	45386.23
542.675	44755.46
542.875	45666.8
543.075	45251.06
543.276	45019.64
543.476	45462
543.676	45054.46
543.877	45163
544.077	45457.91
544.277	45169.15
544.478	45267.45
544.678	45869.55
544.878	44917.25
545.078	45382.13
545.279	44802.56
545.479	45271.54
545.679	45431.29
545.879	45408.76
546.079	45535.73
546.28	45406.71
546.48	45216.25
546.68	45621.75
546.88	45464.05
547.08	45070.84
547.28	45087.23
547.48	44573.19
547.68	45273.59
547.88	44884.48
548.081	45355.51
548.281	45314.55
548.481	45365.75
548.681	45134.33
548.881	44954.11
549.081	44997.12
549.28	44978.68
549.48	45212.15
549.68	45060.6
549.88	45674.99
550.08	45146.62
550.28	44919.29
550.48	44556.8
550.68	44878.33
550.88	44759.55
551.08	44460.55
551.279	44798.46
551.479	44757.5
551.679	44886.53
551.879	44716.54
552.079	45132.28
552.278	44638.72
552.478	45021.69
552.678	44937.72
552.878	45203.96
553.077	44816.89
553.277	44450.31
553.477	45144.57
553.676	44757.5
553.876	44415.49
554.076	44354.05
554.275	44417.54
554.475	44114.44
554.674	44663.3
554.874	44354.05
555.074	44413.44
555.273	44546.56
555.473	44358.15
555.672	44327.43
555.872	43989.52
556.071	44356.1
556.271	44538.37
556.47	44014.09
556.67	43850.25
556.869	43860.49
557.068	44048.91
557.268	43805.2
557.467	43962.89
557.667	43530.77
557.866	43956.75
558.065	43641.36
558.265	43758.09
558.464	43446.8
558.663	43842.06
558.863	43285.01
559.062	44124.68
559.261	43489.81
559.461	44057.1
559.66	42912.28
559.859	43041.31
560.058	42736.16
560.258	43375.12
560.457	42902.04
560.656	43282.97
560.855	42570.27
561.054	43176.47
561.253	43047.45
561.453	42799.65
561.652	42828.32
561.851	42818.08
562.05	42709.53
562.249	42080.81
562.448	42713.63
562.647	42521.12
562.846	42560.03
563.045	42265.13
563.244	42136.1
563.443	42523.17
563.642	41837.1
563.841	42076.71
564.04	41861.68
564.239	41941.55
564.438	41601.58
564.637	41845.29
564.836	41542.19
565.035	41155.13
565.234	41419.31
565.432	41202.23
565.631	41474.61
565.83	41671.21
566.029	40780.35
566.228	40981.05
566.427	40653.37
566.625	40591.94
566.824	40108.61
567.023	41067.06
567.222	39811.66
567.42	40340.04
567.619	40460.87
567.818	40358.47
568.016	40137.29
568.215	40215.11
568.414	39789.13
568.612	40770.11
568.811	39412.31
569.01	40276.55
569.208	39029.34
569.407	39486.03
569.605	39580.24
569.804	39850.57
570.002	39184.98
570.201	39582.29
570.4	39131.73
570.598	39152.21
570.797	38777.43
570.995	38933.08
571.193	38019.69
571.392	38795.87
571.59	38470.24
571.789	38316.64
571.987	38320.74
572.186	38097.51
572.384	38212.2
572.582	38382.18
572.781	38408.8
572.979	37747.31
573.177	38105.7
573.376	37728.87
573.574	37671.53
573.772	38027.88
573.971	37677.68
574.169	37061.24
574.367	37038.71
574.565	37519.98
574.763	36921.98
574.962	36795
575.16	36553.34
575.358	37016.18
575.556	36536.96
575.754	36868.73
575.952	36131.46
576.151	36878.97
576.349	36209.28
576.547	36035.2
576.745	36178.56
576.943	36127.36
577.141	35938.95
577.339	35957.38
577.537	35918.47
577.735	35762.82
577.933	35656.33
578.131	35695.24
578.329	35330.7
578.527	35357.33
578.725	35486.35
578.923	35338.9
579.121	34919.06
579.319	35230.35
579.516	35148.43
579.714	35127.95
579.912	34892.44
580.11	34669.21
580.308	34751.13
580.506	34411.17
580.704	33839.78
580.901	34622.11
581.099	34507.42
581.297	34065.06
581.495	34017.96
581.692	34841.24
581.89	33643.18
582.088	34265.76
582.285	34042.53
582.483	34171.55
582.681	34034.34
582.878	33551.02
583.076	33411.76
583.274	33436.33
583.471	33485.48
583.669	33303.21
583.866	32860.85
584.064	33209.01
584.262	32369.34
584.459	33190.58
584.657	32617.14
584.854	32752.31
585.052	32459.45
585.249	32756.41
585.447	32508.6
585.644	32056
585.841	32510.65
586.039	32160.45
586.236	32043.71
586.434	32006.85
586.631	31843.01
586.828	31765.19
587.026	31699.65
587.223	31697.61
587.42	31734.47
587.618	31328.97
587.815	31466.19
588.012	31070.93
588.21	31101.65
588.407	31261.39
588.604	30943.95
588.801	31058.64
588.999	31007.44
589.196	30859.99
589.393	30685.91
589.59	30794.45
589.787	30544.6
589.984	30317.28
590.182	29883.11
590.379	30603.99
590.576	29688.55
590.773	30167.77
590.97	30114.53
591.167	30190.3
591.364	30012.13
591.561	30120.67
591.758	30063.33
591.955	29270.76
592.152	29709.03
592.349	29725.41
592.546	29700.84
592.743	29414.12
592.94	29246.19
593.137	29235.95
593.334	29258.48
593.531	28816.11
593.727	29563.62
593.924	28865.27
594.121	28742.39
594.318	29035.25
594.515	28441.34
594.712	28994.29
594.908	28412.67
595.105	28553.97
595.302	28080.89
595.499	28592.89
595.696	28168.96
595.892	27814.66
596.089	28359.42
596.286	27847.43
596.482	27718.4
596.679	28154.62
596.876	27960.06
597.072	27816.71
597.269	27689.73
597.466	27403.02
597.662	27290.38
597.859	27157.26
598.055	27452.17
598.252	26907.41
598.448	27370.25
598.645	26749.71
598.841	26610.45
599.038	26913.55
599.234	26874.64
599.431	26426.14
599.627	26370.84
599.824	26776.34
600.02	26104.6
600.217	26342.17
600.413	26538.77
600.609	26129.18
600.806	26389.27
601.002	26243.87
601.198	25963.29
601.395	25879.33
601.591	26067.74
601.787	25854.75
601.984	25774.88
602.18	25701.15
602.376	25676.58
602.572	25408.29
602.769	25590.56
602.965	25070.38
603.161	25328.42
603.357	24972.08
603.553	24996.65
603.75	25086.76
603.946	24775.47
604.142	24990.51
604.338	24398.65
604.534	24906.54
604.73	24914.73
604.926	24716.08
605.122	24408.89
605.318	24437.56
605.514	24212.28
605.71	23944
605.906	24073.02
606.102	24144.7
606.298	23907.13
606.494	24208.19
606.69	24183.61
606.886	23984.96
607.082	23952.19
607.278	23839.55
607.474	23712.58
607.67	23878.46
607.866	23366.47
608.062	23651.14
608.257	23401.29
608.453	23358.28
608.649	23364.42
608.845	23313.22
609.041	23083.85
609.236	23298.89
609.432	23225.16
609.628	22944.59
609.824	23159.63
610.019	22879.05
610.215	22928.2
610.411	22936.4
610.606	22942.54
610.802	22987.6
610.998	22739.79
611.193	22903.63
611.389	22412.12
611.584	22778.7
611.78	22496.08
611.976	22670.16
612.171	22647.63
612.367	22371.16
612.562	22412.12
612.758	22293.33
612.953	22168.41
613.149	22348.63
613.344	22117.21
613.539	22219.61
613.735	22168.41
613.93	22412.12
614.126	22047.58
614.321	22315.86
614.517	22262.61
614.712	22043.48
614.907	21556.07
615.103	21744.48
615.298	21580.64
615.493	22281.05
615.688	21803.87
615.884	21965.66
616.079	21658.46
616.274	21644.13
616.47	21506.91
616.665	21695.33
616.86	21295.97
617.055	21453.67
617.25	21154.66
617.445	21201.77
617.641	21154.66
617.836	21377.89
618.031	20847.47
618.226	21074.79
618.421	20851.56
618.616	20941.68
618.811	20716.4
619.006	20882.28
619.201	20423.54
619.396	20583.28
619.591	20351.86
619.786	20697.97
619.981	20161.4
620.176	20421.49
620.371	20091.77
620.566	20175.73
620.761	19903.35
620.956	20325.24
621.151	19768.19
621.346	19923.83
621.541	19385.22
621.735	19731.33
621.93	19444.61
622.125	19569.54
622.32	19090.31
622.515	18924.43
622.709	19213.19
622.904	19139.46
623.099	18875.27
623.294	18973.58
623.488	18434.96
623.683	18877.32
623.878	18113.43
624.072	18473.87
624.267	18676.62
624.462	18273.17
624.656	17888.15
624.851	18254.74
625.046	17992.6
625.24	18015.13
625.435	17404.83
625.629	17724.32
625.824	17435.55
626.018	17542.05
626.213	17200.04
626.407	17343.39
626.602	17032.1
626.796	17273.76
626.991	17066.92
627.185	16933.8
627.38	16769.96
627.574	16864.17
627.768	16636.84
627.963	16409.52
628.157	16313.27
628.352	16608.17
628.546	16219.06
628.74	16057.27
628.935	16051.13
629.129	16067.51
629.323	15842.23
629.517	15958.97
629.712	15780.79
629.906	15621.05
630.1	15696.83
630.294	15463.36
630.489	15238.08
630.683	15608.76
630.877	15412.16
631.071	15035.33
631.265	15274.95
631.459	14961.61
631.653	15010.76
631.848	14906.31
632.042	14734.28
632.236	15104.96
632.43	14599.12
632.624	15000.52
632.818	14552.01
633.012	14580.68
633.206	14238.67
633.4	14326.74
633.594	13949.91
633.788	14277.58
633.982	14083.03
634.176	13949.91
634.369	13943.77
634.563	13923.29
634.757	13712.35
634.951	13820.89
635.145	13493.21
635.339	13532.12
635.533	13439.97
635.726	13446.11
635.92	13038.56
636.114	13300.7
636.308	13052.9
636.501	13067.24
636.695	13052.9
636.889	12995.56
637.083	12854.25
637.276	12823.53
637.47	12813.29
637.664	12684.27
637.857	12649.45
638.051	12669.93
638.244	12760.04
638.438	12348.4
638.632	12307.44
638.825	12252.14
639.019	12356.59
639.212	12063.73
639.406	12186.61
639.599	11924.47
639.793	11856.89
639.986	11561.98
640.18	12022.77
640.373	11791.35
640.567	11537.4
640.76	11594.75
640.954	11502.59
641.147	11432.96
641.34	11287.55
641.534	11324.41
641.727	11254.78
641.92	11398.14
642.114	11023.36
642.307	11232.26
642.5	11185.15
642.694	10849.29
642.887	10859.52
643.08	10923.01
643.273	10779.65
643.467	10691.59
643.66	10552.33
643.853	10554.38
644.046	10345.48
644.239	10824.71
644.432	10300.43
644.626	10462.22
644.819	10333.2
645.012	10290.19
645.205	10402.83
645.398	10306.57
645.591	10001.43
645.784	10034.19
645.977	9909.27
646.17	10079.25
646.363	10034.19
646.556	9651.22
646.749	9892.88
646.942	9608.22
647.135	9714.71
647.328	9796.63
647.521	9643.03
647.714	9430.04
647.907	9456.67
648.099	9534.49
648.292	9491.48
648.485	9208.86
648.678	9229.34
648.871	9126.94
649.064	9059.36
649.256	9120.8
649.449	8989.73
649.642	8997.92
649.835	8979.49
650.027	8846.37
650.22	8918.05
650.413	8772.64
650.605	8633.38
650.798	8700.97
650.991	8594.47
651.183	8612.9
651.376	8487.98
651.568	8438.83
651.761	8500.26
651.954	8410.15
652.146	8428.59
652.339	8350.76
652.531	8326.19
652.724	8328.24
652.916	8113.2
653.109	8281.13
653.301	8211.5
653.494	8049.71
653.686	8088.62
653.879	7920.69
654.071	8133.68
654.263	7914.55
654.456	7806
654.648	7947.31
654.84	7754.8
655.033	7597.11
655.225	7746.61
655.417	7754.8
655.61	7617.59
655.802	7466.04
655.994	7492.66
656.186	7425.08
656.379	7535.67
656.571	7474.23
656.763	7330.87
656.955	7402.55
657.148	7431.23
657.34	7222.33
657.532	7226.43
657.724	7263.29
657.916	7152.7
658.108	7150.65
658.3	6839.36
658.492	6833.22
658.684	6908.99
658.876	7007.3
659.068	6935.62
659.26	6810.69
659.452	6870.08
659.644	6861.89
659.836	6646.85
660.028	6745.16
660.22	6605.89
660.412	6534.21
660.604	6534.21
660.796	6464.58
660.988	6440.01
661.18	6552.65
661.372	6317.13
661.563	6452.3
661.755	6380.62
661.947	6458.44
662.139	6237.26
662.331	6364.23
662.522	6261.84
662.714	6116.43
662.906	6194.25
663.097	6014.03
663.289	6026.32
663.481	6253.64
663.673	5942.35
663.864	5915.73
664.056	6020.17
664.247	5983.31
664.439	5823.57
664.631	5864.53
664.822	5844.05
665.014	5940.3
665.205	5702.74
665.397	5809.23
665.588	5659.73
665.78	5612.63
665.971	5633.11
666.163	5712.98
666.354	5493.85
666.546	5545.05
666.737	5567.57
666.929	5620.82
667.12	5438.55
667.311	5526.61
667.503	5631.06
667.694	5397.59
667.885	5452.89
668.077	5416.02
668.268	5334.11
668.459	5315.67
668.651	5264.47
668.842	5221.47
669.033	5178.46
669.224	5100.64
669.416	5043.29
669.607	5268.57
669.798	5004.38
669.989	5227.61
670.18	5155.93
670.371	5039.2
670.563	5076.06
670.754	5043.29
670.945	4899.94
671.136	4861.02
671.327	5033.05
671.518	4850.78
671.709	4932.7
671.9	4797.54
672.091	4983.9
672.282	4709.47
672.473	4705.38
672.664	4668.52
672.855	4693.09
673.046	4766.82
673.237	4777.06
673.428	4686.95
673.619	4674.66
673.809	4625.51
674	4598.88
674.191	4525.16
674.382	4441.19
674.573	4629.6
674.764	4521.06
674.954	4516.97
675.145	4525.16
675.336	4365.42
675.527	4410.47
675.717	4355.18
675.908	4344.94
676.099	4349.03
676.289	4293.74
676.48	4398.18
676.671	4226.15
676.861	4385.9
677.052	4332.65
677.243	4129.9
677.433	4254.83
677.624	4316.26
677.814	4074.6
678.005	4052.08
678.195	4369.51
678.386	4185.19
678.576	4236.39
678.767	4060.27
678.957	4115.56
679.148	4242.54
679.338	4054.12
679.529	4099.18
679.719	4064.36
679.909	4166.76
680.1	3966.06
680.29	4068.46
680.481	4035.69
680.671	4011.12
680.861	4070.51
681.052	4125.8
681.242	3843.18
681.432	4058.22
681.622	3927.15
681.813	3933.29
682.003	3873.9
682.193	3951.73
682.383	3888.24
682.573	3644.53
682.764	3898.48
682.954	3830.9
683.144	3966.06
683.334	3802.22
683.524	3742.83
683.714	3886.19
683.904	3791.98
684.094	3669.11
684.284	3710.07
684.474	3824.75
684.664	3710.07
684.854	3650.67
685.044	3775.6
685.234	3665.01
685.424	3734.64
685.614	3542.13
685.804	3640.44
685.994	3720.31
686.184	3587.19
686.374	3550.32
686.564	3474.55
686.753	3662.96
686.943	3546.23
687.133	3490.93
687.323	3589.24
687.513	3622
687.702	3529.84
687.892	3382.39
688.082	3558.52
688.272	3622
688.461	3501.17
688.651	3540.08
688.841	3388.53
689.03	3544.18
689.22	3409.01
689.41	3376.25
689.599	3492.98
689.789	3323
689.979	3429.49
690.168	3460.21
690.358	3263.61
690.547	3210.36
690.737	3275.9
690.926	3388.53
691.116	3333.24
691.305	3339.38
691.495	3226.75
691.684	3267.7
691.874	3306.62
692.063	3177.59
692.252	3361.91
692.442	3169.4
692.631	3136.63
692.82	3153.02
693.01	3136.63
693.199	3107.96
693.388	3175.55
693.578	3097.72
693.767	3165.31
693.956	3017.85
694.146	3185.79
694.335	3148.92
694.524	3153.02
694.713	3021.95
694.902	3124.35
695.092	3017.85
695.281	3003.52
695.47	3017.85
695.659	2993.28
695.848	2919.55
696.037	3054.72
696.226	3146.87
696.415	3087.48
696.604	3073.15
696.793	2952.32
696.982	2905.21
697.171	3060.86
697.36	2952.32
697.549	2980.99
697.738	3007.61
697.927	3044.48
698.116	3040.38
698.305	2923.65
698.494	3026.04
698.683	2937.98
698.872	2974.85
699.061	3005.56
699.25	2882.69
699.438	2909.31
699.627	3124.35
699.816	3042.43
700.005	2958.46
700.193	2976.89
700.382	2987.13
700.571	3103.87
700.76	2950.27
700.948	2901.12
701.137	2919.55
701.326	2937.98
701.514	2985.09
701.703	3071.1
701.892	2897.02
702.08	2968.7
702.269	2991.23
702.457	3050.62
702.646	2995.32
702.834	2825.34
703.023	3048.57
703.212	2884.73
703.4	2897.02
703.589	3048.57
703.777	2923.65
703.965	2897.02
704.154	3120.25
704.342	2925.69
704.531	2944.13
704.719	2843.78
704.907	3087.48
705.096	2923.65
705.284	2980.99
705.472	2956.41
705.661	2892.93
705.849	2980.99
706.037	2880.64
706.226	2819.2
706.414	2907.26
706.602	2872.45
706.79	2940.03
706.979	2935.93
707.167	2966.65
707.355	2897.02
707.543	2808.96
707.731	2937.98
707.919	2974.85
708.107	2835.58
708.296	2886.78
708.484	2851.97
708.672	2843.78
708.86	2821.25
709.048	2995.32
709.236	2940.03
709.424	2923.65
709.612	2927.74
709.8	2829.44
709.988	2839.68
710.176	2917.5
710.364	2931.84
710.551	2913.41
710.739	2868.35
710.927	2937.98
711.115	2905.21
711.303	2835.58
711.491	2870.4
711.679	2772.1
711.866	2911.36
712.054	2894.97
712.242	2792.58
712.43	2958.46
712.617	2813.06
712.805	2872.45
712.993	2829.44
713.181	2765.95
713.368	2886.78
713.556	2944.13
713.744	2690.18
713.931	2958.46
714.119	2876.54
714.306	2886.78
714.494	2886.78
714.682	2868.35
714.869	2727.04
715.057	2796.67
715.244	2831.49
715.432	2970.75
715.619	2782.34
715.807	2755.71
715.994	2854.02
716.182	2831.49
716.369	2856.06
716.556	2880.64
716.744	2800.77
716.931	2903.17
717.119	2890.88
717.306	2804.86
717.493	2847.87
717.681	2788.48
717.868	2706.56
718.055	2907.26
718.242	2772.1
718.43	2854.02
718.617	2724.99
718.804	2704.51
718.991	2794.62
719.179	2772.1
719.366	2864.25
719.553	2759.81
719.74	2753.66
719.927	2825.34
720.114	2638.98
720.301	2759.81
720.488	2747.52
720.676	2788.48
720.863	2765.95
721.05	2729.09
721.237	2872.45
721.424	2677.89
721.611	2745.47
721.798	2710.66
721.985	2679.94
722.172	2694.27
722.358	2663.55
722.545	2704.51
722.732	2636.93
722.919	2733.18
723.106	2647.17
723.293	2780.29
723.48	2684.03
723.667	2712.71
723.853	2710.66
724.04	2753.66
724.227	2624.64
724.414	2665.6
724.6	2667.65
724.787	2677.89
724.974	2677.89
725.161	2667.65
725.347	2548.87
725.534	2456.71
725.72	2696.32
725.907	2667.65
726.094	2688.13
726.28	2591.88
726.467	2544.77
726.653	2628.74
726.84	2602.11
727.027	2641.03
727.213	2565.25
727.4	2763.9
727.586	2616.45
727.773	2606.21
727.959	2575.49
728.145	2577.54
728.332	2520.2
728.518	2647.17
728.705	2561.16
728.891	2485.38
729.077	2548.87
729.264	2559.11
729.45	2612.35
729.636	2704.51
729.823	2536.58
730.009	2591.88
730.195	2542.72
730.382	2622.59
730.568	2571.4
730.754	2575.49
730.94	2530.44
731.126	2581.64
731.313	2583.68
731.499	2485.38
731.685	2542.72
731.871	2434.18
732.057	2444.42
732.243	2614.4
732.429	2487.43
732.615	2514.05
732.801	2442.37
732.987	2438.28
733.173	2546.82
733.359	2446.47
733.545	2444.42
733.731	2456.71
733.917	2432.13
734.103	2479.24
734.289	2421.89
734.475	2397.32
734.661	2458.76
734.847	2395.27
735.033	2368.65
735.219	2403.46
735.404	2378.89
735.59	2360.45
735.776	2421.89
735.962	2335.88
736.148	2442.37
736.333	2329.74
736.519	2391.17
736.705	2333.83
736.89	2348.17
737.076	2325.64
737.262	2333.83
737.447	2305.16
737.633	2274.44
737.819	2264.2
738.004	2280.58
738.19	2358.41
738.375	2182.28
738.561	2342.02
738.747	2270.34
738.932	2139.27
739.118	2266.25
739.303	2217.1
739.489	2284.68
739.674	2253.96
739.859	2151.56
740.045	2182.28
740.23	2213
740.416	2098.31
740.601	2198.67
740.786	2069.64
740.972	2018.44
741.157	2253.96
741.342	2147.47
741.528	2126.99
741.713	2094.22
741.898	2022.54
742.084	2120.84
742.269	2053.26
742.454	2176.14
742.639	2174.09
742.824	2188.43
743.01	2075.79
743.195	2063.5
743.38	1950.86
743.565	1989.77
743.75	1997.96
743.935	2016.4
744.12	1909.9
744.305	2024.59
744.49	1870.99
744.675	2020.49
744.86	1967.24
745.045	1954.96
745.23	1914
745.415	1922.19
745.6	1895.57
745.785	1789.07
745.97	1870.99
746.155	1868.94
746.34	1844.37
746.525	1868.94
746.71	1911.95
746.895	1807.5
747.079	1887.37
747.264	1836.17
747.449	1789.07
747.634	1729.68
747.819	1895.57
748.003	1744.02
748.188	1805.46
748.373	1733.78
748.557	1662.1
748.742	1784.98
748.927	1750.16
749.111	1664.15
749.296	1748.11
749.481	1772.69
749.665	1692.82
749.85	1557.65
750.034	1590.42
750.219	1641.62
750.404	1709.2
750.588	1690.77
750.773	1621.14
750.957	1653.91
751.141	1610.9
751.326	1604.75
751.51	1522.84
751.695	1485.97
751.879	1557.65
752.064	1543.32
752.248	1578.13
752.432	1526.93
752.617	1522.84
752.801	1524.88
752.985	1436.82
753.17	1563.79
753.354	1420.44
753.538	1574.03
753.722	1408.15
753.907	1442.96
754.091	1412.25
754.275	1377.43
754.459	1438.87
754.643	1359
754.828	1363.09
755.012	1369.24
755.196	1379.48
755.38	1305.75
755.564	1416.34
755.748	1232.02
755.932	1279.13
756.116	1463.44
756.3	1297.56
756.484	1320.09
756.668	1369.24
756.852	1197.21
757.036	1250.46
757.22	1211.54
757.404	1172.63
757.588	1313.94
757.772	1240.22
757.956	1236.12
758.14	1354.9
758.323	1195.16
758.507	1199.26
758.691	1121.43
758.875	1348.76
759.059	1215.64
759.242	1260.7
759.426	1092.76
759.61	1135.77
759.794	1254.55
759.977	1174.68
760.161	1301.65
760.345	1117.34
760.528	1098.91
760.712	1109.15
760.895	1137.82
761.079	1141.91
761.263	1158.3
761.446	1109.15
761.63	1000.6
761.813	1057.95
761.997	1135.77
762.18	994.46
762.364	1062.04
762.547	1041.56
762.731	1119.39
762.914	1088.67
763.098	986.27
763.281	1082.52
763.464	1072.28
763.648	1021.08
763.831	1047.71
764.015	969.88
764.198	998.56
764.381	969.88
764.564	1000.6
764.748	969.88
764.931	1068.19
765.114	957.6
765.297	1012.89
765.481	961.69
765.664	1072.28
765.847	949.4
766.03	957.6
766.213	1105.05
766.397	1029.27
766.58	892.06
766.763	1002.65
766.946	918.68
767.129	1055.9
767.312	902.3
767.495	1019.04
767.678	920.73
767.861	967.84
768.044	992.41
768.227	949.4
768.41	939.16
768.593	930.97
768.776	904.35
768.959	939.16
769.142	1027.23
769.324	877.73
769.507	877.73
769.69	818.33
769.873	943.26
770.056	912.54
770.239	935.07
770.421	914.59
770.604	937.12
770.787	961.69
770.97	793.76
771.152	877.73
771.335	832.67
771.518	771.23
771.7	840.86
771.883	922.78
772.066	838.81
772.248	881.82
772.431	842.91
772.613	883.87
772.796	787.61
772.978	838.81
773.161	822.43
773.343	969.88
773.526	683.17
773.708	724.13
773.891	836.77
774.073	738.46
774.256	715.94
774.438	814.24
774.621	765.09
774.803	775.33
774.985	785.57
775.168	685.22
775.35	756.9
775.532	797.85
775.715	748.7
775.897	814.24
776.079	674.98
776.261	777.37
776.444	724.13
776.626	808.09
776.808	638.11
776.99	674.98
777.173	689.31
777.355	691.36
777.537	668.83
777.719	679.07
777.901	650.4
778.083	556.19
778.265	640.16
778.447	617.63
778.629	689.31
778.811	646.3
778.993	677.02
779.175	736.42
779.357	672.93
779.539	705.7
779.721	724.13
779.903	656.54
780.085	703.65
780.267	545.95
780.449	588.96
780.631	662.69
780.812	593.06
780.994	597.15
781.176	619.68
781.358	605.35
781.54	605.35
781.721	588.96
781.903	642.21
782.085	582.82
782.267	543.91
782.448	513.19
782.63	511.14
782.812	611.49
782.993	535.71
783.175	550.05
783.357	425.12
783.538	611.49
783.72	605.35
783.901	492.71
784.083	615.59
784.264	490.66
784.446	582.82
784.627	414.88
784.809	515.23
784.99	468.13
785.172	459.94
785.353	486.56
785.535	539.81
785.716	375.97
785.897	404.64
786.079	443.56
786.26	441.51
786.441	453.8
786.623	384.16
786.804	461.99
786.985	447.65
787.167	574.63
787.348	402.6
787.529	449.7
787.71	453.8
787.891	533.67
788.073	429.22
788.254	386.21
788.435	433.32
788.616	431.27
788.797	433.32
788.978	314.53
789.159	371.88
789.34	371.88
789.522	375.97
789.703	453.8
789.884	406.69
790.065	380.07
790.246	380.07
790.427	441.51
790.607	425.12
790.788	337.06
790.969	382.12
791.15	363.69
791.331	285.86
791.512	451.75
791.693	310.44
791.874	347.3
792.054	421.03
792.235	455.84
792.416	306.34
792.597	404.64
792.778	388.26
792.958	312.49
793.139	421.03
793.32	316.58
793.5	255.14
793.681	337.06
793.862	341.16
794.042	341.16
794.223	326.82
794.404	281.77
794.584	339.11
794.765	355.49
794.945	322.73
795.126	412.84
795.306	388.26
795.487	384.16
795.667	351.4
795.848	335.01
796.028	249
796.209	320.68
796.389	380.07
796.57	283.81
796.75	255.14
796.93	308.39
797.111	369.83
797.291	251.05
797.471	234.66
797.652	312.49
797.832	281.77
798.012	240.81
798.192	251.05
798.373	240.81
798.553	302.25
798.733	347.3
798.913	249
799.093	249
799.274	216.23
799.454	310.44
799.634	275.62
799.814	271.53
799.994	236.71
800.174	298.15
800.354	318.63
800.534	212.14
800.714	222.38
800.894	230.57
801.074	249
801.254	222.38
801.434	326.82
801.614	240.81
801.794	177.32
801.974	744.61
802.154	255.14
802.334	269.48
802.514	191.66
802.693	257.19
802.873	228.52
803.053	218.28
803.233	197.8
803.413	187.56
803.592	310.44
803.772	246.95
803.952	158.89
804.131	208.04
804.311	240.81
804.491	285.86
804.67	199.85
804.85	263.33
805.03	195.75
805.209	234.66
805.389	212.14
805.568	171.18
805.748	257.19
805.928	212.14
806.107	199.85
806.287	263.33
806.466	232.62
806.646	294.05
806.825	167.08
807.004	240.81
807.184	246.95
807.363	169.13
807.543	169.13
807.722	240.81
807.901	220.33
808.081	171.18
808.26	25.77
808.439	257.19
808.619	154.79
808.798	244.9
808.977	154.79
809.156	199.85
809.336	197.8
809.515	205.99
809.694	199.85
809.873	144.55
810.052	222.38
810.231	130.22
810.411	240.81
810.59	189.61
810.769	162.98
810.948	240.81
811.127	142.5
811.306	234.66
811.485	179.37
811.664	265.38
811.843	187.56
812.022	199.85
812.201	205.99
812.38	152.74
812.559	171.18
812.737	212.14
812.916	99.5
813.095	210.09
813.274	107.69
813.453	189.61
813.632	189.61
813.811	128.17
813.989	68.78
814.168	124.07
814.347	152.74
814.526	154.79
814.704	83.11
814.883	195.75
815.062	203.94
815.24	156.84
815.419	124.07
815.598	167.08
815.776	128.17
815.955	167.08
816.133	115.88
816.312	152.74
816.49	193.7
816.669	79.02
816.847	138.41
817.026	169.13
817.204	142.5
817.383	48.3
817.561	101.55
817.74	199.85
817.918	134.31
818.097	150.7
818.275	87.21
818.453	165.03
818.632	132.26
818.81	179.37
818.988	115.88
819.167	130.22
819.345	105.64
819.523	122.02
819.701	117.93
819.879	146.6
820.058	142.5
820.236	150.7
820.414	177.32
820.592	169.13
820.77	115.88
820.948	50.35
821.127	130.22
821.305	66.73
821.483	142.5
821.661	93.35
821.839	146.6
822.017	76.97
822.195	167.08
822.373	126.12
822.551	103.59
822.729	89.26
822.907	154.79
823.085	183.46
823.262	134.31
823.44	99.5
823.618	89.26
823.796	93.35
823.974	42.15
824.152	105.64
824.329	91.31
824.507	44.2
824.685	134.31
824.863	156.84
825.04	130.22
825.218	150.7
825.396	107.69
825.574	113.83
825.751	128.17
825.929	76.97
826.107	103.59
826.284	56.49
826.462	152.74
826.639	87.21
826.817	66.73
826.994	105.64
827.172	83.11
827.349	156.84
827.527	15.53
827.704	167.08
827.882	101.55
828.059	103.59
828.237	52.39
828.414	115.88
828.591	109.74
828.769	72.87
828.946	19.63
829.124	15.53
829.301	101.55
829.478	83.11
829.655	66.73
829.833	146.6
830.01	142.5
830.187	130.22
830.364	76.97
830.542	109.74
830.719	81.07
830.896	50.35
831.073	81.07
831.25	89.26
831.427	29.87
831.604	150.7
831.782	-21.33
831.959	91.31
832.136	64.68
832.313	66.73
832.49	46.25
832.667	1.19
832.844	122.02
833.021	136.36
833.198	81.07
833.374	48.3
833.551	27.82
833.728	23.72
833.905	126.12
834.082	27.82
834.259	36.01
834.436	91.31
834.612	76.97
834.789	150.7
834.966	89.26
835.143	97.45
835.319	11.43
835.496	101.55
835.673	93.35
835.85	117.93
836.026	74.92
836.203	89.26
836.38	56.49
836.556	31.91
836.733	9.39
836.909	126.12
837.086	101.55
837.262	66.73
837.439	81.07
837.616	15.53
837.792	36.01
837.968	191.66
838.145	89.26
838.321	81.07
838.498	31.91
838.674	87.21
838.851	52.39
839.027	36.01
839.203	103.59
839.38	19.63
839.556	50.35
839.732	83.11
839.909	58.54
840.085	124.07
840.261	44.2
840.437	99.5
840.614	11.43
840.79	23.72
840.966	107.69
841.142	132.26
841.318	23.72
841.494	58.54
841.671	19.63
841.847	19.63
842.023	25.77
842.199	105.64
842.375	52.39
842.551	56.49
842.727	50.35
842.903	126.12
843.079	19.63
843.255	38.06
843.431	81.07
843.607	115.88
843.783	1.19
843.959	52.39
844.134	46.25
844.31	44.2
844.486	70.83
844.662	-66.39
844.838	-0.85
845.013	-4.95
845.189	40.11
845.365	74.92
845.541	76.97
845.716	-0.85
845.892	74.92
846.068	33.96
846.244	27.82
846.419	122.02
846.595	19.63
846.77	46.25
846.946	66.73
847.122	72.87
847.297	9.39
847.473	107.69
847.648	83.11
847.824	17.58
847.999	-0.85
848.175	50.35
848.35	101.55
848.526	89.26
848.701	101.55
848.876	25.77
849.052	126.12
849.227	33.96
849.403	50.35
849.578	58.54
849.753	31.91
849.929	113.83
850.104	19.63
850.279	23.72
850.454	9.39
850.63	23.72
850.805	9.39
850.98	68.78
851.155	54.44
851.33	72.87
851.505	44.2
851.681	29.87
851.856	-25.43
852.031	60.59
852.206	36.01
852.381	17.58
852.556	42.15
852.731	11.43
852.906	81.07
853.081	-9.05
853.256	79.02
853.431	42.15
853.606	5.29
853.781	-2.9
853.956	21.67
854.131	27.82
854.305	-23.38
854.48	115.88
854.655	76.97
854.83	58.54
855.005	-37.72
855.18	68.78
855.354	52.39
855.529	70.83
855.704	17.58
855.879	60.59
856.053	46.25
856.228	54.44
856.403	72.87
856.577	-84.82
856.752	-29.52
856.926	9.39
857.101	76.97
857.276	23.72
857.45	-15.19
857.625	76.97
857.799	72.87
857.974	36.01
858.148	62.63
858.323	27.82
858.497	-19.29
858.672	15.53
858.846	23.72
859.02	9.39
859.195	11.43
859.369	11.43
859.543	70.83
859.718	23.72
859.892	62.63
860.066	-0.85
860.241	60.59
860.415	-82.77
860.589	58.54
860.763	-4.95
860.938	44.2
861.112	124.07
861.286	27.82
861.46	1.19
861.634	-62.29
861.808	62.63
861.982	11.43
862.157	-41.81
862.331	58.54
862.505	-39.76
862.679	33.96
862.853	-29.52
863.027	36.01
863.201	97.45
863.375	9.39
863.549	-7
863.722	76.97
863.896	40.11
864.07	25.77
864.244	-11.09
864.418	5.29
864.592	46.25
864.766	-19.29
864.939	54.44
865.113	-13.14
865.287	54.44
865.461	-41.81
865.634	-29.52
865.808	44.2
865.982	25.77
866.156	11.43
866.329	76.97
866.503	36.01
866.676	54.44
866.85	46.25
867.024	44.2
867.197	48.3
867.371	15.53
867.544	27.82
867.718	-13.14
867.891	11.43
868.065	-25.43
868.238	31.91
868.412	23.72
868.585	56.49
868.759	-25.43
868.932	-25.43
869.105	48.3
869.279	-7
869.452	-13.14
869.625	29.87
869.799	-4.95
869.972	52.39
870.145	5.29
870.319	40.11
870.492	-31.57
870.665	11.43
870.838	74.92
871.011	23.72
871.185	-4.95
871.358	-97.11
871.531	64.68
871.704	-29.52
871.877	-47.96
872.05	-21.33
872.223	-0.85
872.396	-4.95
872.569	50.35
872.742	-27.48
872.915	21.67
873.088	42.15
873.261	27.82
873.434	15.53
873.607	7.34
873.78	-0.85
873.953	-17.24
874.126	36.01
874.299	-35.67
874.471	-4.95
874.644	48.3
874.817	-33.62
874.99	38.06
875.163	7.34
875.335	105.64
875.508	23.72
875.681	48.3
875.853	27.82
876.026	-39.76
876.199	25.77
876.371	-29.52
876.544	46.25
876.717	13.48
876.889	11.43
877.062	-54.1
877.234	-29.52
877.407	107.69
877.579	31.91
877.752	7.34
877.924	44.2
878.097	9.39
878.269	-45.91
878.442	72.87
878.614	64.68
878.786	-4.95
878.959	-4.95
879.131	-13.14
879.303	62.63
879.476	5.29
879.648	105.64
879.82	21.67
879.993	-13.14
880.165	9.39
880.337	13.48
880.509	7.34
880.681	33.96
880.854	27.82
881.026	3.24
881.198	66.73
881.37	15.53
881.542	-13.14
881.714	5.29
881.886	-4.95
882.058	-21.33
882.23	52.39
882.402	5.29
882.574	48.3
882.746	27.82
882.918	103.59
883.09	11.43
883.262	13.48
883.434	-31.57
883.606	52.39
883.778	79.02
883.95	31.91
884.122	87.21
884.293	11.43
884.465	17.58
884.637	52.39
884.809	-29.52
884.98	64.68
885.152	-21.33
885.324	21.67
885.496	1.19
885.667	27.82
885.839	3.24
886.011	40.11
886.182	-17.24
886.354	42.15
886.525	52.39
886.697	36.01
886.869	-50
887.04	3.24
887.212	38.06
887.383	111.78
887.555	72.87
887.726	11.43
887.897	-39.76
888.069	-54.1
888.24	11.43
888.412	91.31
888.583	38.06
888.754	76.97
888.926	-0.85
889.097	-17.24
889.268	25.77
889.44	-4.95
889.611	31.91
889.782	-58.2
889.953	-17.24
890.125	17.58
890.296	-54.1
890.467	3.24
890.638	-25.43
890.809	40.11
890.98	-29.52
891.151	70.83
891.323	-29.52
891.494	52.39
891.665	21.67
891.836	38.06
892.007	36.01
892.178	44.2
892.349	-21.33
892.52	11.43
892.691	62.63
892.862	-0.85
893.032	52.39
893.203	-47.96
893.374	-35.67
893.545	-35.67
893.716	-13.14
893.887	89.26
894.057	15.53
894.228	29.87
894.399	-13.14
894.57	-19.29
894.74	5.29
894.911	89.26
895.082	-21.33
895.253	-4.95
895.423	21.67
895.594	-15.19
895.764	-9.05
895.935	15.53
896.106	13.48
896.276	-43.86
896.447	56.49
896.617	-29.52
896.788	-74.58
896.958	17.58
897.129	-33.62
897.299	42.15
897.47	-17.24
897.64	72.87
897.81	-4.95
897.981	33.96
898.151	-37.72
898.322	-33.62
898.492	-31.57
898.662	9.39
898.832	-4.95
899.003	48.3
899.173	3.24
899.343	-78.68
899.513	-4.95
