Data from USB4F104151__9__10-20-36-695.txt Node

Date: Wed Mar 12 10:20:36 EDT 2025
User: louis
Spectrometer: USB4F10415
Trigger mode: 4
Integration Time (sec): 3.000000E-2
Scans to average: 1
Electric dark correction enabled: true
Nonlinearity correction enabled: false
Boxcar width: 0
XAxis mode: Wavelengths
Number of Pixels in Spectrum: 3648
>>>>>Begin Spectral Data<<<<<
178.204	-44.2
178.424	-44.2
178.644	-44.2
178.864	-74.92
179.084	-62.63
179.304	-52.39
179.524	-64.68
179.744	4.95
179.964	64.34
180.184	-7.34
180.404	21.33
180.624	-7.34
180.844	23.38
181.064	-36.01
181.283	-36.01
181.503	80.72
181.723	9.05
181.943	35.67
182.163	103.25
182.383	78.68
182.602	125.78
182.822	105.3
183.042	9.05
183.262	19.29
183.482	-9.39
183.701	127.83
183.921	50
184.141	41.81
184.361	7
184.58	45.91
184.8	37.72
185.02	15.19
185.239	121.68
185.459	84.82
185.679	84.82
185.898	27.48
186.118	70.48
186.338	37.72
186.557	60.24
186.777	60.24
186.997	-15.53
187.216	47.96
187.436	54.1
187.655	105.3
187.875	11.09
188.095	25.43
188.314	80.72
188.534	101.2
188.753	19.29
188.973	21.33
189.192	78.68
189.412	99.16
189.631	64.34
189.851	84.82
190.07	156.5
190.29	47.96
190.509	90.96
190.729	82.77
190.948	-5.29
191.168	150.36
191.387	68.44
191.607	52.05
191.826	50
192.045	-11.43
192.265	-25.77
192.484	115.54
192.704	84.82
192.923	35.67
193.142	60.24
193.362	43.86
193.581	131.92
193.8	0.85
194.02	142.16
194.239	23.38
194.458	119.64
194.678	43.86
194.897	29.52
195.116	64.34
195.335	70.48
195.555	47.96
195.774	50
195.993	189.27
196.212	15.19
196.432	13.14
196.651	45.91
196.87	-7.34
197.089	109.4
197.308	47.96
197.528	19.29
197.747	-27.82
197.966	74.58
198.185	-17.58
198.404	88.92
198.623	68.44
198.842	76.63
199.062	43.86
199.281	60.24
199.5	33.62
199.719	72.53
199.938	52.05
200.157	72.53
200.376	109.4
200.595	121.68
200.814	99.16
201.033	27.48
201.252	103.25
201.471	-54.44
201.69	-15.53
201.909	39.76
202.128	93.01
202.347	0.85
202.566	37.72
202.785	54.1
203.004	11.09
203.223	113.49
203.442	39.76
203.661	39.76
203.879	62.29
204.098	58.2
204.317	11.09
204.536	56.15
204.755	17.24
204.974	109.4
205.193	56.15
205.411	97.11
205.63	105.3
205.849	31.57
206.068	17.24
206.287	23.38
206.505	23.38
206.724	72.53
206.943	19.29
207.162	47.96
207.381	27.48
207.599	15.19
207.818	13.14
208.037	7
208.255	15.19
208.474	56.15
208.693	52.05
208.911	29.52
209.13	39.76
209.349	27.48
209.567	90.96
209.786	72.53
210.005	101.2
210.223	13.14
210.442	0.85
210.661	117.59
210.879	27.48
211.098	62.29
211.316	86.87
211.535	72.53
211.753	64.34
211.972	60.24
212.191	31.57
212.409	119.64
212.628	88.92
212.846	17.24
213.065	52.05
213.283	39.76
213.502	45.91
213.72	25.43
213.938	72.53
214.157	60.24
214.375	27.48
214.594	93.01
214.812	54.1
215.031	47.96
215.249	-13.48
215.467	70.48
215.686	52.05
215.904	13.14
216.122	64.34
216.341	68.44
216.559	52.05
216.778	72.53
216.996	39.76
217.214	58.2
217.432	39.76
217.651	-7.34
217.869	113.49
218.087	95.06
218.306	15.19
218.524	109.4
218.742	82.77
218.96	115.54
219.179	4.95
219.397	27.48
219.615	47.96
219.833	33.62
220.051	25.43
220.27	80.72
220.488	129.88
220.706	76.63
220.924	60.24
221.142	58.2
221.36	35.67
221.578	-25.77
221.796	76.63
222.015	27.48
222.233	-42.15
222.451	111.44
222.669	33.62
222.887	52.05
223.105	7
223.323	9.05
223.541	39.76
223.759	66.39
223.977	-9.39
224.195	15.19
224.413	84.82
224.631	113.49
224.849	62.29
225.067	154.45
225.285	68.44
225.503	21.33
225.721	-54.44
225.939	66.39
226.157	35.67
226.375	148.31
226.592	68.44
226.81	9.05
227.028	121.68
227.246	84.82
227.464	121.68
227.682	64.34
227.9	47.96
228.117	80.72
228.335	27.48
228.553	60.24
228.771	43.86
228.989	113.49
229.206	97.11
229.424	-13.48
229.642	95.06
229.86	45.91
230.077	99.16
230.295	56.15
230.513	52.05
230.731	27.48
230.948	23.38
231.166	64.34
231.384	-3.24
231.601	15.19
231.819	93.01
232.037	25.43
232.254	13.14
232.472	31.57
232.689	-27.82
232.907	97.11
233.125	31.57
233.342	82.77
233.56	58.2
233.777	35.67
233.995	119.64
234.213	101.2
234.43	109.4
234.648	45.91
234.865	56.15
235.083	41.81
235.3	19.29
235.518	21.33
235.735	23.38
235.953	60.24
236.17	7
236.388	9.05
236.605	47.96
236.822	93.01
237.04	7
237.257	29.52
237.475	68.44
237.692	27.48
237.909	56.15
238.127	-21.67
238.344	60.24
238.562	7
238.779	4.95
238.996	113.49
239.214	13.14
239.431	4.95
239.648	29.52
239.865	88.92
240.083	56.15
240.3	47.96
240.517	37.72
240.735	45.91
240.952	105.3
241.169	142.16
241.386	47.96
241.603	72.53
241.821	31.57
242.038	62.29
242.255	84.82
242.472	129.88
242.689	84.82
242.907	19.29
243.124	35.67
243.341	17.24
243.558	19.29
243.775	19.29
243.992	-40.11
244.209	39.76
244.426	74.58
244.643	123.73
244.86	78.68
245.078	86.87
245.295	140.12
245.512	115.54
245.729	66.39
245.946	78.68
246.163	13.14
246.38	154.45
246.597	4.95
246.814	15.19
247.031	95.06
247.248	54.1
247.464	31.57
247.681	17.24
247.898	90.96
248.115	72.53
248.332	64.34
248.549	37.72
248.766	76.63
248.983	37.72
249.2	29.52
249.417	33.62
249.633	15.19
249.85	103.25
250.067	78.68
250.284	27.48
250.501	43.86
250.717	37.72
250.934	15.19
251.151	13.14
251.368	13.14
251.585	133.97
251.801	21.33
252.018	-1.19
252.235	80.72
252.451	-3.24
252.668	21.33
252.885	107.35
253.102	88.92
253.318	13.14
253.535	2.9
253.752	2.9
253.968	31.57
254.185	7
254.401	93.01
254.618	52.05
254.835	31.57
255.051	39.76
255.268	45.91
255.484	50
255.701	54.1
255.917	97.11
256.134	21.33
256.351	15.19
256.567	-9.39
256.784	21.33
257	9.05
257.217	86.87
257.433	111.44
257.65	86.87
257.866	43.86
258.082	41.81
258.299	23.38
258.515	31.57
258.732	58.2
258.948	58.2
259.165	19.29
259.381	64.34
259.597	52.05
259.814	88.92
260.03	64.34
260.246	95.06
260.463	58.2
260.679	93.01
260.895	56.15
261.112	74.58
261.328	-31.91
261.544	2.9
261.761	103.25
261.977	43.86
262.193	54.1
262.409	50
262.626	13.14
262.842	-9.39
263.058	129.88
263.274	86.87
263.49	82.77
263.707	45.91
263.923	101.2
264.139	7
264.355	117.59
264.571	58.2
264.787	2.9
265.004	103.25
265.22	31.57
265.436	72.53
265.652	-29.87
265.868	58.2
266.084	27.48
266.3	154.45
266.516	64.34
266.732	78.68
266.948	93.01
267.164	121.68
267.38	68.44
267.596	60.24
267.812	125.78
268.028	76.63
268.244	43.86
268.46	37.72
268.676	88.92
268.892	54.1
269.108	-31.91
269.324	68.44
269.54	52.05
269.756	176.98
269.972	-48.3
270.188	88.92
270.403	-21.67
270.619	78.68
270.835	4.95
271.051	27.48
271.267	138.07
271.483	21.33
271.698	88.92
271.914	41.81
272.13	39.76
272.346	37.72
272.562	31.57
272.777	64.34
272.993	-9.39
273.209	60.24
273.425	64.34
273.64	9.05
273.856	113.49
274.072	-9.39
274.287	58.2
274.503	93.01
274.719	27.48
274.934	45.91
275.15	23.38
275.366	39.76
275.581	78.68
275.797	52.05
276.012	41.81
276.228	70.48
276.444	88.92
276.659	84.82
276.875	72.53
277.09	-5.29
277.306	64.34
277.521	-11.43
277.737	39.76
277.952	84.82
278.168	33.62
278.383	56.15
278.599	52.05
278.814	148.31
279.03	29.52
279.245	127.83
279.461	-11.43
279.676	58.2
279.892	15.19
280.107	-3.24
280.322	58.2
280.538	70.48
280.753	29.52
280.969	123.73
281.184	43.86
281.399	62.29
281.615	39.76
281.83	68.44
282.045	-29.87
282.26	52.05
282.476	68.44
282.691	70.48
282.906	72.53
283.122	60.24
283.337	56.15
283.552	45.91
283.767	74.58
283.983	80.72
284.198	-3.24
284.413	80.72
284.628	58.2
284.843	107.35
285.058	152.4
285.274	56.15
285.489	29.52
285.704	103.25
285.919	47.96
286.134	23.38
286.349	74.58
286.564	21.33
286.779	39.76
286.995	41.81
287.21	62.29
287.425	-19.63
287.64	25.43
287.855	43.86
288.07	35.67
288.285	64.34
288.5	52.05
288.715	84.82
288.93	72.53
289.145	70.48
289.36	76.63
289.575	-1.19
289.79	35.67
290.004	113.49
290.219	31.57
290.434	23.38
290.649	68.44
290.864	58.2
291.079	86.87
291.294	125.78
291.509	-40.11
291.724	23.38
291.938	109.4
292.153	39.76
292.368	52.05
292.583	86.87
292.798	113.49
293.012	45.91
293.227	80.72
293.442	29.52
293.657	58.2
293.871	56.15
294.086	29.52
294.301	158.55
294.516	68.44
294.73	127.83
294.945	43.86
295.16	31.57
295.374	117.59
295.589	72.53
295.804	-33.96
296.018	103.25
296.233	84.82
296.447	80.72
296.662	-46.25
296.877	80.72
297.091	86.87
297.306	39.76
297.52	47.96
297.735	74.58
297.949	90.96
298.164	15.19
298.378	117.59
298.593	68.44
298.807	45.91
299.022	76.63
299.236	-3.24
299.451	84.82
299.665	56.15
299.88	70.48
300.094	19.29
300.309	101.2
300.523	37.72
300.737	7
300.952	-3.24
301.166	111.44
301.381	11.09
301.595	99.16
301.809	7
302.024	29.52
302.238	101.2
302.452	76.63
302.667	19.29
302.881	105.3
303.095	31.57
303.309	62.29
303.524	60.24
303.738	27.48
303.952	47.96
304.166	125.78
304.381	103.25
304.595	19.29
304.809	15.19
305.023	107.35
305.237	23.38
305.452	45.91
305.666	4.95
305.88	41.81
306.094	62.29
306.308	111.44
306.522	-1.19
306.736	45.91
306.95	101.2
307.164	47.96
307.379	7
307.593	72.53
307.807	31.57
308.021	90.96
308.235	113.49
308.449	-56.49
308.663	66.39
308.877	123.73
309.091	29.52
309.305	52.05
309.519	-3.24
309.733	78.68
309.947	64.34
310.161	70.48
310.374	95.06
310.588	76.63
310.802	88.92
311.016	56.15
311.23	72.53
311.444	19.29
311.658	-1.19
311.872	-1.19
312.085	82.77
312.299	58.2
312.513	23.38
312.727	105.3
312.941	66.39
313.154	39.76
313.368	15.19
313.582	11.09
313.796	62.29
314.009	-13.48
314.223	105.3
314.437	125.78
314.651	35.67
314.864	41.81
315.078	-17.58
315.292	50
315.505	-70.83
315.719	64.34
315.933	15.19
316.146	56.15
316.36	50
316.573	58.2
316.787	84.82
317.001	80.72
317.214	39.76
317.428	33.62
317.641	29.52
317.855	-76.97
318.068	43.86
318.282	43.86
318.495	74.58
318.709	52.05
318.922	58.2
319.136	125.78
319.349	97.11
319.563	66.39
319.776	7
319.99	35.67
320.203	68.44
320.417	119.64
320.63	88.92
320.843	62.29
321.057	31.57
321.27	88.92
321.483	80.72
321.697	97.11
321.91	56.15
322.124	74.58
322.337	121.68
322.55	82.77
322.763	11.09
322.977	74.58
323.19	27.48
323.403	80.72
323.617	56.15
323.83	39.76
324.043	47.96
324.256	111.44
324.469	52.05
324.683	111.44
324.896	62.29
325.109	78.68
325.322	-3.24
325.535	97.11
325.748	31.57
325.962	39.76
326.175	86.87
326.388	136.02
326.601	27.48
326.814	47.96
327.027	39.76
327.24	64.34
327.453	23.38
327.666	33.62
327.879	78.68
328.092	127.83
328.305	111.44
328.518	68.44
328.731	119.64
328.944	78.68
329.157	64.34
329.37	47.96
329.583	101.2
329.796	84.82
330.009	86.87
330.222	86.87
330.435	7
330.648	58.2
330.861	93.01
331.073	47.96
331.286	54.1
331.499	109.4
331.712	54.1
331.925	68.44
332.138	107.35
332.35	23.38
332.563	-5.29
332.776	97.11
332.989	76.63
333.202	86.87
333.414	52.05
333.627	58.2
333.84	-25.77
334.053	125.78
334.265	-42.15
334.478	101.2
334.691	86.87
334.903	70.48
335.116	39.76
335.329	11.09
335.541	111.44
335.754	125.78
335.966	-13.48
336.179	101.2
336.392	31.57
336.604	27.48
336.817	50
337.029	90.96
337.242	142.16
337.454	78.68
337.667	64.34
337.88	99.16
338.092	56.15
338.305	90.96
338.517	64.34
338.729	27.48
338.942	78.68
339.154	56.15
339.367	52.05
339.579	88.92
339.792	19.29
340.004	39.76
340.217	-81.07
340.429	66.39
340.641	-1.19
340.854	39.76
341.066	95.06
341.278	111.44
341.491	189.27
341.703	62.29
341.915	72.53
342.128	7
342.34	72.53
342.552	-33.96
342.764	82.77
342.977	58.2
343.189	37.72
343.401	119.64
343.613	21.33
343.826	52.05
344.038	9.05
344.25	74.58
344.462	41.81
344.674	70.48
344.886	68.44
345.099	60.24
345.311	-1.19
345.523	-1.19
345.735	31.57
345.947	146.26
346.159	54.1
346.371	88.92
346.583	23.38
346.795	121.68
347.007	7
347.219	47.96
347.431	105.3
347.643	52.05
347.855	162.64
348.067	74.58
348.279	-3.24
348.491	76.63
348.703	54.1
348.915	74.58
349.127	62.29
349.339	52.05
349.551	43.86
349.763	88.92
349.975	23.38
350.187	74.58
350.399	119.64
350.61	76.63
350.822	74.58
351.034	23.38
351.246	95.06
351.458	95.06
351.669	99.16
351.881	39.76
352.093	95.06
352.305	84.82
352.517	101.2
352.728	117.59
352.94	2.9
353.152	123.73
353.363	-44.2
353.575	56.15
353.787	97.11
353.999	66.39
354.21	123.73
354.422	64.34
354.633	41.81
354.845	88.92
355.057	7
355.268	43.86
355.48	27.48
355.692	17.24
355.903	35.67
356.115	-27.82
356.326	52.05
356.538	78.68
356.749	70.48
356.961	183.12
357.172	78.68
357.384	144.21
357.595	119.64
357.807	117.59
358.018	68.44
358.23	105.3
358.441	113.49
358.653	109.4
358.864	35.67
359.075	23.38
359.287	25.43
359.498	109.4
359.709	68.44
359.921	47.96
360.132	35.67
360.344	50
360.555	45.91
360.766	35.67
360.977	-11.43
361.189	68.44
361.4	33.62
361.611	111.44
361.823	86.87
362.034	86.87
362.245	11.09
362.456	74.58
362.667	80.72
362.879	82.77
363.09	78.68
363.301	101.2
363.512	72.53
363.723	140.12
363.935	123.73
364.146	78.68
364.357	121.68
364.568	95.06
364.779	74.58
364.99	72.53
365.201	68.44
365.412	88.92
365.623	99.16
365.834	15.19
366.045	39.76
366.256	21.33
366.467	88.92
366.678	101.2
366.889	84.82
367.1	121.68
367.311	109.4
367.522	41.81
367.733	103.25
367.944	45.91
368.155	66.39
368.366	152.4
368.577	95.06
368.788	101.2
368.999	84.82
369.209	115.54
369.42	129.88
369.631	146.26
369.842	107.35
370.053	47.96
370.264	31.57
370.474	52.05
370.685	86.87
370.896	72.53
371.107	95.06
371.317	33.62
371.528	86.87
371.739	76.63
371.95	-9.39
372.16	47.96
372.371	74.58
372.582	52.05
372.792	86.87
373.003	64.34
373.214	121.68
373.424	88.92
373.635	160.59
373.846	131.92
374.056	64.34
374.267	72.53
374.477	43.86
374.688	144.21
374.898	45.91
375.109	50
375.319	62.29
375.53	117.59
375.74	93.01
375.951	72.53
376.161	93.01
376.372	37.72
376.582	47.96
376.793	29.52
377.003	70.48
377.214	41.81
377.424	142.16
377.635	97.11
377.845	62.29
378.055	74.58
378.266	52.05
378.476	68.44
378.686	64.34
378.897	105.3
379.107	-1.19
379.317	97.11
379.528	54.1
379.738	170.83
379.948	29.52
380.158	88.92
380.369	31.57
380.579	119.64
380.789	76.63
380.999	47.96
381.21	101.2
381.42	60.24
381.63	64.34
381.84	80.72
382.05	56.15
382.261	107.35
382.471	162.64
382.681	39.76
382.891	45.91
383.101	117.59
383.311	97.11
383.521	52.05
383.731	144.21
383.941	101.2
384.151	86.87
384.361	127.83
384.571	37.72
384.781	146.26
384.991	117.59
385.201	140.12
385.411	121.68
385.621	131.92
385.831	64.34
386.041	-19.63
386.251	60.24
386.461	119.64
386.671	60.24
386.881	113.49
387.091	23.38
387.301	119.64
387.511	78.68
387.72	72.53
387.93	45.91
388.14	60.24
388.35	84.82
388.56	146.26
388.769	82.77
388.979	131.92
389.189	105.3
389.399	84.82
389.609	86.87
389.818	74.58
390.028	45.91
390.238	27.48
390.447	25.43
390.657	103.25
390.867	13.14
391.076	52.05
391.286	80.72
391.496	101.2
391.705	117.59
391.915	172.88
392.125	47.96
392.334	99.16
392.544	160.59
392.753	39.76
392.963	179.03
393.172	95.06
393.382	82.77
393.591	215.89
393.801	54.1
394.01	205.65
394.22	93.01
394.429	70.48
394.639	117.59
394.848	170.83
395.058	123.73
395.267	90.96
395.477	78.68
395.686	142.16
395.895	164.69
396.105	152.4
396.314	138.07
396.524	121.68
396.733	80.72
396.942	117.59
397.152	127.83
397.361	152.4
397.57	78.68
397.78	138.07
397.989	156.5
398.198	111.44
398.407	15.19
398.617	90.96
398.826	162.64
399.035	78.68
399.244	156.5
399.453	111.44
399.663	115.54
399.872	93.01
400.081	72.53
400.29	111.44
400.499	162.64
400.708	76.63
400.917	189.27
401.127	201.55
401.336	160.59
401.545	195.41
401.754	113.49
401.963	125.78
402.172	117.59
402.381	60.24
402.59	211.79
402.799	207.7
403.008	150.36
403.217	113.49
403.426	172.88
403.635	97.11
403.844	82.77
404.053	203.6
404.262	146.26
404.471	205.65
404.68	160.59
404.888	183.12
405.097	179.03
405.306	228.18
405.515	222.03
405.724	146.26
405.933	226.13
406.142	207.7
406.35	185.17
406.559	172.88
406.768	164.69
406.977	172.88
407.185	226.13
407.394	293.71
407.603	260.95
407.812	207.7
408.02	269.14
408.229	211.79
408.438	301.9
408.646	293.71
408.855	308.05
409.064	332.62
409.272	260.95
409.481	351.06
409.69	338.77
409.898	301.9
410.107	310.1
410.315	326.48
410.524	334.67
410.733	416.59
410.941	326.48
411.15	324.43
411.358	420.69
411.567	459.6
411.775	416.59
411.984	475.98
412.192	510.8
412.401	510.8
412.609	539.47
412.818	697.16
413.026	609.1
413.234	631.63
413.443	498.51
413.651	619.34
413.86	596.81
414.068	731.98
414.276	680.78
414.485	670.54
414.693	785.23
414.901	760.65
415.11	824.14
415.318	756.55
415.526	834.38
415.734	824.14
415.943	840.52
416.151	934.73
416.359	1012.55
416.567	1012.55
416.776	899.91
416.984	1104.71
417.192	1086.28
417.4	1028.93
417.608	1035.08
417.817	1172.29
418.025	1203.01
418.233	1293.12
418.441	1231.68
418.649	1420.1
418.857	1372.99
419.065	1467.2
419.273	1332.03
419.481	1422.14
419.689	1626.94
419.897	1622.84
420.105	1690.43
420.313	1647.42
420.521	1792.83
420.729	1850.17
420.937	1923.9
421.145	1893.18
421.353	1993.53
421.561	2198.32
421.769	2116.41
421.977	2292.53
422.185	2173.75
422.393	2317.11
422.601	2509.62
422.809	2513.71
423.017	2482.99
423.224	2560.81
423.432	2657.07
423.64	2745.13
423.848	2986.79
424.056	2863.91
424.263	3144.49
424.471	3107.62
424.679	3298.08
424.887	3347.23
425.094	3396.39
425.302	3566.37
425.51	3584.8
425.718	3695.39
425.925	3816.22
426.133	3863.32
426.341	4147.99
426.548	4223.76
426.756	4213.53
426.964	4248.34
427.171	4576.02
427.379	4625.17
427.586	4864.78
427.794	4864.78
428.001	5161.73
428.209	5294.85
428.417	5229.32
428.624	5708.54
428.832	5569.28
429.039	5708.54
429.247	5618.43
429.454	6111.99
429.662	6441.72
429.869	5896.96
430.076	6632.18
430.284	6294.26
430.491	6605.55
430.699	7015.15
430.906	7013.1
431.114	6992.62
431.321	7437.03
431.528	7506.66
431.736	8096.47
431.943	8252.12
432.15	8116.95
432.358	8413.91
432.565	8583.89
432.772	8737.49
432.979	9054.92
433.187	9149.13
433.394	9231.05
433.601	9876.16
433.808	10056.38
434.016	9886.4
434.223	10392.25
434.43	10877.62
434.637	10781.36
434.844	11258.54
435.052	11412.14
435.259	11496.1
435.466	11547.3
435.673	11631.27
435.88	12198.56
436.087	12964.5
436.294	12673.68
436.501	12497.56
436.708	12696.21
436.915	13275.79
437.122	13785.73
437.329	13638.28
437.537	14332.54
437.743	14535.29
437.95	14477.94
438.157	15104.62
438.364	15463.02
438.571	15592.04
438.778	15616.62
438.985	17203.79
439.192	16751.19
439.399	17099.34
439.606	16575.06
439.813	17472.07
440.02	18584.12
440.227	18326.08
440.433	18078.27
440.64	18741.82
440.847	18455.1
441.054	19040.82
441.261	20437.53
441.467	20093.47
441.674	20537.88
441.881	20951.57
442.088	20906.52
442.294	20945.43
442.501	21391.89
442.708	22125.06
442.914	22858.23
443.121	23562.73
443.328	22993.4
443.534	24408.54
443.741	23822.83
443.948	23515.63
444.154	25164.25
444.361	25082.33
444.568	25111
444.774	25301.46
444.981	25858.51
445.187	26157.51
445.394	27158.97
445.6	26935.74
445.807	29618.58
446.013	28238.25
446.22	28909.98
446.426	29999.5
446.633	30273.93
446.839	31052.16
447.046	29917.58
447.252	31478.13
447.459	31498.61
447.665	31287.67
447.871	32702.82
448.078	33882.45
448.284	32581.99
448.491	33329.5
448.697	34521.41
448.903	35086.65
449.11	35162.43
449.316	34566.47
449.522	35227.96
449.728	36153.65
449.935	36213.04
450.141	36233.52
450.347	37177.63
450.553	35901.75
450.76	35940.66
450.966	37247.26
451.172	36944.16
451.378	37783.83
451.584	37404.95
451.791	37865.75
451.997	37769.49
452.203	38404.36
452.409	38261.01
452.615	38191.37
452.821	36778.28
453.027	36469.03
453.233	38115.6
453.44	36436.27
453.646	36880.67
453.852	36880.67
454.058	37669.14
454.264	36028.72
454.47	37136.67
454.676	36141.36
454.882	37650.71
455.088	34132.3
455.294	34535.75
455.5	34855.23
455.705	35637.56
455.911	33866.06
456.117	33204.57
456.323	32805.22
456.529	31058.3
456.735	32145.77
456.941	31531.38
457.147	31011.2
457.352	30093.71
457.558	29381.01
457.764	29673.87
457.97	28981.66
458.176	28574.11
458.381	28441
458.587	26907.07
458.793	27247.03
458.999	25522.64
459.204	27554.22
459.41	27019.71
459.616	24924.63
459.821	25102.81
460.027	25133.53
460.233	24367.59
460.438	23540.21
460.644	23595.5
460.85	22168.07
461.055	21871.11
461.261	21817.86
461.466	20328.99
461.672	19882.53
461.878	21447.18
462.083	19833.38
462.289	19462.7
462.494	19296.81
462.7	18534.97
462.905	17904.2
463.111	18776.63
463.316	18772.53
463.522	18096.71
463.727	18334.27
463.932	17971.78
464.138	17986.11
464.343	18137.66
464.549	17592.9
464.754	18258.49
464.959	18063.94
465.165	17785.41
465.37	17201.74
465.575	17062.48
465.781	17375.82
465.986	17678.92
466.191	16810.58
466.397	16593.5
466.602	15837.8
466.807	16429.66
467.012	16306.78
467.218	16282.2
467.423	16056.93
467.628	16255.58
467.833	16833.11
468.038	16089.7
468.244	15766.12
468.449	16288.35
468.654	15915.62
468.859	15776.36
469.064	15583.85
469.269	15207.02
469.474	15116.91
469.679	15311.47
469.885	14791.28
470.09	15051.38
470.295	14991.98
470.5	14805.62
470.705	14785.14
470.91	14467.7
471.115	14283.39
471.32	14617.21
471.525	14596.73
471.73	13927.04
471.935	13857.41
472.139	13589.13
472.344	13736.58
472.549	13580.93
472.754	13298.31
472.959	13099.66
473.164	13013.65
473.369	12716.69
473.574	13130.38
473.778	12808.85
473.983	12841.62
474.188	13030.03
474.393	12182.17
474.598	12278.43
474.802	12026.53
475.007	12198.56
475.212	12192.41
475.417	11782.82
475.621	11768.48
475.826	11590.31
476.031	11557.54
476.235	11369.13
476.44	11676.32
476.645	11512.49
476.849	11250.35
477.054	11068.08
477.259	10965.68
477.463	11035.31
477.668	10681.01
477.872	10955.44
478.077	10783.41
478.282	10463.93
478.486	10281.66
478.691	10273.46
478.895	10259.13
479.1	10269.37
479.304	10449.59
479.509	9857.73
479.713	10117.82
479.918	9915.07
480.122	9845.44
480.326	9990.84
480.531	9974.46
480.735	9814.72
480.94	9609.92
481.144	10042.04
481.348	9466.56
481.553	9511.62
481.757	9267.91
481.961	9470.66
482.166	9689.79
482.37	9745.09
482.574	9513.67
482.778	9450.18
482.983	9650.88
483.187	9364.17
483.391	9630.4
483.595	9468.61
483.8	9501.38
484.004	9599.68
484.208	9743.04
484.412	9624.26
484.616	9663.17
484.821	9769.66
485.025	9450.18
485.229	9450.18
485.433	9456.33
485.637	9622.21
485.841	9444.04
486.045	9509.57
486.249	9712.32
486.453	9437.89
486.657	9495.24
486.861	9401.03
487.065	9396.93
487.269	9355.97
487.473	9603.78
487.677	9515.72
487.881	9659.07
488.085	9485
488.289	9575.11
488.493	9628.35
488.697	9538.24
488.901	9511.62
489.105	9607.87
489.309	9595.59
489.512	9810.62
489.716	9507.52
489.92	9859.77
490.124	9540.29
490.328	10021.56
490.531	9835.2
490.735	9732.8
490.939	9829.06
491.143	9749.18
491.346	9794.24
491.55	10072.76
491.754	9886.4
491.958	9874.11
492.161	9892.54
492.365	10031.8
492.569	10244.79
492.772	10236.6
492.976	10199.74
493.18	10306.23
493.383	10400.44
493.587	10431.16
493.79	10644.15
493.994	10238.65
494.197	10662.58
494.401	10752.69
494.605	10545.84
494.808	10930.86
495.012	10648.24
495.215	10879.66
495.419	11061.93
495.622	11063.98
495.825	11092.65
496.029	11381.42
496.232	11596.45
496.436	11258.54
496.639	11594.4
496.843	11494.05
497.046	11809.44
497.249	11987.61
497.453	12001.95
497.656	12090.01
497.859	12032.67
498.063	12247.71
498.266	12540.57
498.469	12552.85
498.673	12614.29
498.876	12814.99
499.079	12780.18
499.282	12968.59
499.485	13214.35
499.689	13283.98
499.892	13669
500.095	13703.81
500.298	13847.17
500.501	13884.03
500.705	14291.58
500.908	14553.72
501.111	14568.06
501.314	14731.89
501.517	14570.1
501.72	14711.41
501.923	14785.14
502.126	14971.5
502.329	15491.69
502.532	15536.74
502.735	15665.77
502.938	15882.85
503.141	16024.16
503.344	16007.78
503.547	16290.4
503.75	16392.8
503.953	16818.77
504.156	16974.42
504.359	17042
504.562	17115.73
504.765	17574.47
504.968	17736.26
505.17	18002.5
505.373	18127.42
505.576	18049.6
505.779	18434.62
505.982	18473.53
506.185	18700.86
506.387	19010.1
506.59	19085.87
506.793	19741.22
506.996	19241.52
507.198	20197.92
507.401	19835.43
507.604	20097.57
507.807	20490.78
508.009	20593.18
508.212	20638.23
508.415	21297.68
508.617	21555.72
508.82	21406.22
509.022	21518.86
509.225	22049.28
509.428	22364.67
509.63	22305.28
509.833	22639.1
510.035	22944.25
510.238	22790.65
510.44	23282.16
510.643	23427.57
510.845	23716.33
511.048	23824.87
511.25	23947.75
511.453	24297.95
511.655	24801.75
511.858	24809.95
512.06	24904.15
512.262	25125.33
512.465	25328.08
512.667	25690.57
512.87	26038.73
513.072	25981.38
513.274	26550.72
513.477	26710.46
513.679	26898.87
513.881	27267.51
514.084	27556.27
514.286	27584.94
514.488	27935.15
514.69	28502.43
514.893	28400.04
515.095	28787.1
515.297	29104.54
515.499	29213.08
515.701	29133.21
515.904	29755.79
516.106	30355.85
516.308	30370.18
516.51	30865.79
516.712	30718.34
516.914	31064.44
517.116	31504.76
517.318	31619.44
517.52	31918.45
517.722	32194.92
517.925	32629.09
518.127	33306.97
518.329	33048.93
518.531	33106.27
518.733	33481.05
518.935	33929.55
519.136	33970.51
519.338	34650.44
519.54	34787.65
519.742	35201.34
519.944	35199.29
520.146	35893.55
520.348	35600.69
520.55	36065.58
520.752	36053.3
520.954	36923.68
521.155	36532.52
521.357	36929.83
521.559	37067.04
521.761	38340.88
521.963	38281.49
522.164	38052.11
522.366	38283.53
522.568	38754.57
522.77	38930.69
522.971	39723.26
523.173	39258.37
523.375	39829.75
523.576	39682.3
523.778	39985.4
523.98	40800.49
524.181	40849.64
524.383	41066.72
524.584	41316.57
524.786	41287.9
524.988	41208.03
525.189	41541.85
525.391	42229.97
525.592	42258.64
525.794	42551.5
525.995	42500.3
526.197	42469.58
526.398	42596.56
526.6	43237.57
526.801	43020.48
527.003	43546.81
527.204	43573.44
527.406	44257.46
527.607	43542.72
527.808	44322.99
528.01	43610.3
528.211	44126.39
528.412	45015.21
528.614	44499.12
528.815	44583.09
529.016	45224.1
529.218	44581.04
529.419	45039.78
529.62	44947.62
529.822	45379.74
530.023	45338.79
530.224	45525.15
530.425	45654.17
530.626	45183.14
530.828	45476
531.029	46366.87
531.23	45543.58
531.431	45822.11
531.632	45729.95
531.833	46022.81
532.035	46145.69
532.236	46149.78
532.437	46127.25
532.638	46129.3
532.839	46600.33
533.04	46682.25
533.241	46565.52
533.442	46901.39
533.643	46712.97
533.844	46813.32
534.045	46669.97
534.246	46518.42
534.447	47206.53
534.648	46702.73
534.849	47081.61
535.05	46956.68
535.251	47044.74
535.451	46977.16
535.652	47294.6
535.853	46823.56
536.054	47181.96
536.255	46878.86
536.456	46620.81
536.657	47376.51
536.857	47081.61
537.058	46833.8
537.259	46936.2
537.46	47282.31
537.66	47030.41
537.861	46651.53
538.062	47241.35
538.263	47554.69
538.463	46891.15
538.664	46977.16
538.865	47059.08
539.065	47509.63
539.266	46993.54
539.466	47554.69
539.667	46968.97
539.868	47630.46
540.068	47091.85
540.269	47163.53
540.469	47403.14
540.67	46657.68
540.87	46925.96
541.071	47190.15
541.271	46772.36
541.472	47042.7
541.672	46686.35
541.873	47061.13
542.073	46104.73
542.274	47427.71
542.474	47259.78
542.675	47067.27
542.875	47317.12
543.075	46801.04
543.276	46667.92
543.476	47143.05
543.676	46395.54
543.877	46973.06
544.077	46975.11
544.277	46909.58
544.478	46973.06
544.678	47198.34
544.878	46940.3
545.078	47302.79
545.279	47069.32
545.479	46907.53
545.679	47261.83
545.879	46991.5
546.079	46930.06
546.28	47095.94
546.48	46682.25
546.68	47358.08
546.88	46958.73
547.08	47212.68
547.28	46651.53
547.48	46514.32
547.68	46837.9
547.88	46651.53
548.081	46882.95
548.281	46403.73
548.481	46411.92
548.681	47210.63
548.881	46940.3
549.081	46440.59
549.28	46434.45
549.48	46622.86
549.68	46680.21
549.88	47480.96
550.08	46485.65
550.28	47079.56
550.48	46141.59
550.68	46829.71
550.88	46680.21
551.08	47038.6
551.279	46919.82
551.479	46506.13
551.679	46440.59
551.879	46727.31
552.079	46526.61
552.278	46764.17
552.478	46653.58
552.678	46590.09
552.878	46817.42
553.077	46325.91
553.277	46069.91
553.477	46739.6
553.676	46391.44
553.876	46682.25
554.076	46147.73
554.275	46330
554.475	45742.24
554.674	46444.69
554.874	45928.6
555.074	46219.41
555.273	46071.96
555.473	46313.62
555.672	46071.96
555.872	46145.69
556.071	46260.37
556.271	45828.25
556.47	45981.85
556.67	45809.82
556.869	45824.15
557.068	46340.24
557.268	45580.45
557.467	45762.72
557.667	45852.83
557.866	45662.36
558.065	45404.32
558.265	45531.29
558.464	45408.42
558.663	45965.46
558.863	44845.23
559.062	45953.18
559.261	45217.96
559.461	45385.89
559.66	44882.09
559.859	45070.5
560.058	44814.51
560.258	44953.77
560.457	44767.4
560.656	45011.11
560.855	44478.64
561.054	44478.64
561.253	44572.85
561.453	44339.38
561.652	44761.26
561.851	44708.01
562.05	44161.2
562.249	44040.37
562.448	44089.52
562.647	43917.5
562.846	43987.13
563.045	43806.9
563.244	43688.12
563.443	44054.71
563.642	43589.82
563.841	43608.25
564.04	43348.16
564.239	43999.41
564.438	42756.3
564.637	43428.03
564.836	43008.2
565.035	42827.98
565.234	42954.95
565.432	42539.21
565.631	42500.3
565.83	42586.32
566.029	42498.25
566.228	42604.75
566.427	42172.63
566.625	41853.14
566.824	41677.02
567.023	42709.19
567.222	41552.09
567.42	42207.44
567.619	42131.67
567.818	41601.24
568.016	41492.7
568.215	41963.73
568.414	41476.32
568.612	41165.03
568.811	41083.11
569.01	41324.77
569.208	40706.28
569.407	41324.77
569.605	40288.49
569.804	40896.74
570.002	40542.44
570.201	40550.63
570.4	40376.56
570.598	40349.93
570.797	40102.13
570.995	40255.73
571.193	39667.96
571.392	40460.52
571.59	39999.73
571.789	39848.18
571.987	40030.45
572.186	39723.26
572.384	39205.12
572.582	39696.63
572.781	39434.49
572.979	38910.21
573.177	39076.1
573.376	38990.08
573.574	38834.44
573.772	38971.65
573.971	38912.26
574.169	38519.05
574.367	38144.27
574.565	38541.58
574.763	38236.43
574.962	37937.43
575.16	37769.49
575.358	38068.5
575.556	37603.61
575.754	38371.6
575.952	37691.67
576.151	37822.74
576.349	37497.11
576.547	37249.31
576.745	37560.6
576.943	37413.15
577.141	37241.12
577.339	37366.04
577.537	36673.83
577.735	36866.34
577.933	36649.25
578.131	36788.52
578.329	36462.89
578.527	36163.89
578.725	36292.91
578.923	36376.87
579.121	35963.18
579.319	36116.78
579.516	36364.59
579.714	36051.25
579.912	35655.99
580.11	35858.74
580.308	36157.74
580.506	35529.02
580.704	35012.93
580.901	35492.15
581.099	35475.77
581.297	35047.74
581.495	34797.89
581.692	35057.98
581.89	34969.92
582.088	35170.62
582.285	34722.12
582.483	34949.44
582.681	34642.24
582.878	34562.37
583.076	34541.89
583.274	34529.61
583.471	34197.84
583.669	34115.92
583.866	33790.29
584.064	34142.54
584.262	33540.44
584.459	34138.44
584.657	33640.79
584.854	33796.43
585.052	33233.24
585.249	33268.06
585.447	33476.95
585.644	32905.57
585.841	33358.17
586.039	33450.33
586.236	33096.03
586.434	32760.16
586.631	32721.25
586.828	32516.45
587.026	32500.07
587.223	32203.11
587.42	32579.94
587.618	32448.87
587.815	32143.72
588.012	31994.22
588.21	31666.55
588.407	32295.27
588.604	31973.74
588.801	31793.52
588.999	31949.17
589.196	31811.95
589.393	31621.49
589.59	31465.85
589.787	31410.55
589.984	31189.37
590.182	30732.67
590.379	31535.48
590.576	31148.41
590.773	30740.86
590.97	31013.24
591.167	31054.2
591.364	30480.77
591.561	30835.07
591.758	30491.01
591.955	30179.72
592.152	30290.31
592.349	30245.26
592.546	30243.21
592.743	30146.95
592.94	29983.12
593.137	30011.79
593.334	30015.88
593.531	29772.18
593.727	29839.76
593.924	29200.79
594.121	29399.44
594.318	29710.74
594.515	29471.12
594.712	29503.89
594.908	28981.66
595.105	29125.02
595.302	29034.91
595.499	29225.37
595.696	28889.5
595.892	28623.26
596.089	28963.23
596.286	28875.16
596.482	28588.45
596.679	28305.83
596.876	28324.26
597.072	28125.61
597.269	28334.5
597.466	28219.81
597.662	28160.42
597.859	28086.7
598.055	27978.15
598.252	27480.5
598.448	27472.31
598.645	27869.61
598.841	27535.79
599.038	27558.32
599.234	27449.78
599.431	27118.01
599.627	27300.28
599.824	27427.25
600.02	26974.65
600.217	27001.27
600.413	26866.11
600.609	26569.15
600.806	26630.59
601.002	26763.71
601.198	26345.92
601.395	26415.55
601.591	26372.55
601.787	26606.02
601.984	26026.44
602.18	26304.96
602.376	26327.49
602.572	25899.47
602.769	26053.06
602.965	25659.85
603.161	26114.5
603.357	25764.3
603.553	25733.58
603.75	25534.93
603.946	25278.93
604.142	25649.61
604.338	25166.29
604.534	25272.79
604.73	25029.08
604.926	25235.92
605.122	24979.93
605.318	25295.32
605.514	24873.43
605.71	24740.32
605.906	24476.13
606.102	24689.12
606.298	24611.29
606.494	24359.39
606.69	24676.83
606.886	24453.6
607.082	24084.97
607.278	24457.7
607.474	23878.12
607.67	24121.83
607.866	23929.32
608.062	24164.84
608.257	23894.5
608.453	23902.7
608.649	23947.75
608.845	23857.64
609.041	23767.53
609.236	23828.97
609.432	23644.65
609.628	23681.52
609.824	23433.71
610.019	23378.42
610.215	23194.1
610.411	23296.5
610.606	23222.77
610.802	23390.7
610.998	23382.51
611.193	23396.85
611.389	22921.72
611.584	22993.4
611.78	22835.7
611.976	22735.35
612.171	23204.34
612.367	22655.48
612.562	22852.09
612.758	22454.78
612.953	22600.19
613.149	22934.01
613.344	22157.83
613.539	22888.95
613.735	22477.31
613.93	22428.16
614.126	22235.65
614.321	22434.3
614.517	22082.05
614.712	22297.09
614.907	22120.96
615.103	22256.13
615.298	22047.24
615.493	22077.96
615.688	21787.14
615.884	22252.03
616.079	21785.1
616.274	22178.31
616.47	21905.93
616.665	22149.64
616.86	21635.6
617.055	21690.89
617.25	21477.9
617.445	21694.99
617.641	21332.5
617.836	21406.22
618.031	20998.68
618.226	21387.79
618.421	21238.29
618.616	21283.34
618.811	20920.85
619.006	21398.03
619.201	20705.82
619.396	20976.15
619.591	20357.66
619.786	20910.61
619.981	20582.94
620.176	20636.19
620.371	20404.77
620.566	20134.43
620.761	20128.29
620.956	20494.88
621.151	19800.62
621.346	20077.09
621.541	19931.69
621.735	20015.65
621.93	19661.35
622.125	19773.99
622.32	19370.54
622.515	19477.04
622.709	19321.39
622.904	19360.3
623.099	19241.52
623.294	19495.47
623.488	18717.24
623.683	18942.52
623.878	18588.22
624.072	18661.94
624.267	18444.86
624.462	18393.66
624.656	18178.62
624.851	18524.73
625.046	18326.08
625.24	18006.59
625.435	17740.36
625.629	18084.42
625.824	17715.78
626.018	17936.96
626.213	17488.46
626.407	17658.44
626.602	17347.15
626.796	17476.17
626.991	17408.59
627.185	17087.06
627.38	17132.11
627.574	17125.97
627.768	17064.53
627.963	16642.65
628.157	16468.57
628.352	16851.54
628.546	16314.97
628.74	16556.63
628.935	16357.98
629.129	16228.96
629.323	16276.06
629.517	16304.73
629.712	15872.61
629.906	16022.11
630.1	15817.32
630.294	15841.89
630.489	15741.54
630.683	15817.32
630.877	15331.95
631.071	15233.64
631.265	15479.4
631.459	15080.05
631.653	15266.41
631.848	15135.34
632.042	14979.7
632.236	15135.34
632.43	14752.37
632.624	14842.48
632.818	14944.88
633.012	14531.19
633.206	14357.11
633.4	14486.14
633.594	14344.83
633.788	14545.53
633.982	14250.62
634.176	14256.76
634.369	14031.49
634.563	14088.83
634.757	13810.31
634.951	14103.17
635.145	14025.34
635.339	13927.04
635.533	13472.39
635.726	13707.91
635.92	13320.84
636.114	13484.68
636.308	13290.12
636.501	13431.43
636.695	13294.22
636.889	13091.47
637.083	13017.74
637.276	13308.55
637.47	12907.15
637.664	12931.73
637.857	13044.37
638.051	12733.08
638.244	12681.88
638.438	12659.35
638.632	12446.36
638.825	12374.68
639.019	12454.55
639.212	12386.97
639.406	12102.3
639.599	12386.97
639.793	12155.55
639.986	11932.32
640.18	11999.9
640.373	11807.39
640.567	11838.11
640.76	11760.29
640.954	11707.04
641.147	11661.99
641.34	11596.45
641.534	11649.7
641.727	11487.91
641.92	11537.06
642.114	11299.5
642.307	11287.21
642.5	11420.33
642.694	11139.76
642.887	11031.21
643.08	11033.26
643.273	11000.49
643.467	10844.85
643.66	10859.18
643.853	10834.61
644.046	10742.45
644.239	10699.44
644.432	10537.65
644.626	10455.73
644.819	10267.32
645.012	10443.45
645.205	10269.37
645.398	10365.62
645.591	10271.42
645.784	10207.93
645.977	10066.62
646.17	10246.84
646.363	10212.03
646.556	9888.45
646.749	9976.51
646.942	9990.84
647.135	9902.78
647.328	9720.51
647.521	9695.94
647.714	9542.34
647.907	9732.8
648.099	9427.65
648.292	9687.75
648.485	9605.83
648.678	9460.42
648.871	9577.16
649.064	9321.16
649.256	9304.78
649.449	9259.72
649.642	9106.12
649.835	9245.38
650.027	9075.4
650.22	9054.92
650.413	9016.01
650.605	8774.35
650.798	8719.06
650.991	8901.33
651.183	8755.92
651.376	8587.99
651.568	8760.02
651.761	8698.58
651.954	8616.66
652.146	8504.02
652.339	8475.35
652.531	8590.03
652.724	8456.92
652.916	8348.37
653.109	8444.63
653.301	8538.84
653.494	8196.82
653.686	8145.63
653.879	8348.37
654.071	8075.99
654.263	8198.87
654.456	8143.58
654.648	8110.81
654.84	7955.16
655.033	7856.86
655.225	7987.93
655.417	7774.94
655.61	7869.15
655.802	7650.02
655.994	7619.3
656.186	7697.12
656.379	7746.27
656.571	7539.43
656.763	7412.45
656.955	7434.98
657.148	7652.06
657.34	7424.74
657.532	7346.92
657.724	7162.6
657.916	7322.34
658.108	7299.81
658.3	7265
658.492	7387.88
658.684	7066.35
658.876	7156.46
659.068	7154.41
659.26	7037.67
659.452	6867.69
659.644	6937.32
659.836	6884.08
660.028	6875.88
660.22	6953.71
660.412	6816.49
660.604	6720.24
660.796	6705.9
660.988	6765.29
661.18	6763.25
661.372	6537.97
661.563	6654.7
661.755	6572.79
661.947	6591.22
662.139	6505.2
662.331	6548.21
662.522	6372.08
662.714	6421.24
662.906	6343.41
663.097	6535.92
663.289	6304.5
663.481	6134.52
663.673	6286.07
663.864	6230.77
664.056	6036.22
664.247	6161.14
664.439	6009.59
664.631	6210.29
664.822	5997.31
665.014	6107.9
665.205	5841.66
665.397	6085.37
665.588	6187.77
665.78	5749.5
665.971	5894.91
666.163	5962.49
666.354	5921.53
666.546	5931.77
666.737	5624.58
666.929	5559.04
667.12	5780.22
667.311	5776.13
667.503	5567.23
667.694	5716.73
667.885	5495.55
668.077	5528.32
668.268	5389.06
668.459	5579.52
668.651	5513.99
668.842	5561.09
669.033	5593.86
669.224	5366.53
669.416	5432.07
669.607	5458.69
669.798	5552.9
669.989	5475.07
670.18	5208.84
670.371	5399.3
670.563	5298.95
670.754	5387.01
670.945	5194.5
671.136	5257.99
671.327	5350.15
671.518	5237.51
671.709	5235.46
671.9	5264.13
672.091	5311.24
672.282	5159.69
672.473	5034.76
672.664	5282.56
672.855	5073.67
673.046	5104.39
673.237	5268.23
673.428	5165.83
673.619	4961.03
673.809	4987.66
674	4942.6
674.191	5114.63
674.382	4950.79
674.573	5081.86
674.764	5110.54
674.954	5065.48
675.145	4838.16
675.336	5008.14
675.527	4803.34
675.717	4938.51
675.908	4832.01
676.099	4805.39
676.289	4797.2
676.48	4895.5
676.671	4881.16
676.861	4784.91
677.052	4782.86
677.243	4692.75
677.433	4770.57
677.624	4872.97
677.814	4895.5
678.005	4758.28
678.195	4668.17
678.386	4758.28
678.576	4641.55
678.767	4723.47
678.957	4684.56
679.148	4844.3
679.338	4635.41
679.529	4559.63
679.719	4584.21
679.909	4729.61
680.1	4692.75
680.29	4733.71
680.481	4649.74
680.671	4635.41
680.861	4610.83
681.052	4614.93
681.242	4573.97
681.432	4582.16
681.622	4547.34
681.813	4590.35
682.003	4537.1
682.193	4508.43
682.383	4438.8
682.573	4569.87
682.764	4537.1
682.954	4455.19
683.144	4547.34
683.334	4541.2
683.524	4537.1
683.714	4576.02
683.904	4420.37
684.094	4420.37
684.284	4490
684.474	4438.8
684.664	4576.02
684.854	4510.48
685.044	4303.64
685.234	4520.72
685.424	4530.96
685.614	4164.37
685.804	4428.56
685.994	4406.03
686.184	4451.09
686.374	4502.29
686.564	4348.69
686.753	4330.26
686.943	4242.2
687.133	4309.78
687.323	4262.68
687.513	4266.77
687.702	4182.81
687.892	4297.49
688.082	4250.39
688.272	4191
688.461	4338.45
688.651	4274.96
688.841	4111.13
689.03	4262.68
689.22	3967.77
689.41	4141.85
689.599	3928.86
689.789	4082.46
689.979	3978.01
690.168	4006.68
690.358	3963.67
690.547	4027.16
690.737	3988.25
690.926	3939.1
691.116	3908.38
691.305	3978.01
691.495	3859.23
691.684	3939.1
691.874	3945.24
692.063	3896.09
692.252	3945.24
692.442	3932.95
692.631	3922.71
692.82	3814.17
693.01	3758.88
693.199	3883.8
693.388	3912.47
693.578	3644.19
693.767	3767.07
693.956	3668.77
694.146	3773.21
694.335	3582.75
694.524	3724.06
694.713	3695.39
694.902	3713.82
695.092	3572.51
695.281	3590.94
695.47	3705.63
695.659	3744.54
695.848	3582.75
696.037	3754.78
696.226	3525.41
696.415	3586.85
696.604	3685.15
696.793	3640.09
696.982	3625.76
697.171	3636
697.36	3658.53
697.549	3578.65
697.738	3584.8
697.927	3560.22
698.116	3650.33
698.305	3611.42
698.494	3738.4
698.683	3592.99
698.872	3496.74
699.061	3584.8
699.25	3681.05
699.438	3664.67
699.627	3621.66
699.816	3627.81
700.005	3451.68
700.193	3511.07
700.382	3568.41
700.571	3644.19
700.76	3488.54
700.948	3631.9
701.137	3371.81
701.326	3494.69
701.514	3496.74
701.703	3652.38
701.892	3474.21
702.08	3506.98
702.269	3560.22
702.457	3451.68
702.646	3570.46
702.834	3494.69
703.023	3623.71
703.212	3494.69
703.4	3595.04
703.589	3492.64
703.777	3588.89
703.965	3494.69
704.154	3293.99
704.342	3414.82
704.531	3511.07
704.719	3439.39
704.907	3592.99
705.096	3560.22
705.284	3480.35
705.472	3562.27
705.661	3543.84
705.849	3482.4
706.037	3560.22
706.226	3504.93
706.414	3523.36
706.602	3406.63
706.79	3494.69
706.979	3427.11
707.167	3554.08
707.355	3642.14
707.543	3496.74
707.731	3531.55
707.919	3627.81
708.107	3484.45
708.296	3459.87
708.484	3480.35
708.672	3478.3
708.86	3447.58
709.048	3537.7
709.236	3486.5
709.424	3494.69
709.612	3459.87
709.8	3394.34
709.988	3496.74
710.176	3470.11
710.364	3531.55
710.551	3461.92
710.739	3480.35
710.927	3566.37
711.115	3466.02
711.303	3494.69
711.491	3566.37
711.679	3412.77
711.866	3455.78
712.054	3613.47
712.242	3353.38
712.43	3656.48
712.617	3539.74
712.805	3570.46
712.993	3506.98
713.181	3504.93
713.368	3463.97
713.556	3615.52
713.744	3416.87
713.931	3429.15
714.119	3527.46
714.306	3525.41
714.494	3398.43
714.682	3486.5
714.869	3523.36
715.057	3590.94
715.244	3523.36
715.432	3590.94
715.619	3496.74
715.807	3443.49
715.994	3488.54
716.182	3513.12
716.369	3592.99
716.556	3423.01
716.744	3474.21
716.931	3552.03
717.119	3541.79
717.306	3531.55
717.493	3623.71
717.681	3406.63
717.868	3517.22
718.055	3498.78
718.242	3392.29
718.43	3500.83
718.617	3455.78
718.804	3443.49
718.991	3621.66
719.179	3584.8
719.366	3556.13
719.553	3552.03
719.74	3556.13
719.927	3377.95
720.114	3414.82
720.301	3476.26
720.488	3568.41
720.676	3552.03
720.863	3459.87
721.05	3435.3
721.237	3541.79
721.424	3552.03
721.611	3480.35
721.798	3488.54
721.985	3386.15
722.172	3412.77
722.358	3445.54
722.545	3455.78
722.732	3369.76
722.919	3463.97
723.106	3392.29
723.293	3441.44
723.48	3498.78
723.667	3511.07
723.853	3408.67
724.04	3609.37
724.227	3492.64
724.414	3466.02
724.6	3386.15
724.787	3494.69
724.974	3420.96
725.161	3435.3
725.347	3435.3
725.534	3339.04
725.72	3443.49
725.907	3451.68
726.094	3390.24
726.28	3453.73
726.467	3431.2
726.653	3429.15
726.84	3459.87
727.027	3466.02
727.213	3230.5
727.4	3447.58
727.586	3287.84
727.773	3316.51
727.959	3451.68
728.145	3386.15
728.332	3388.19
728.518	3437.34
728.705	3306.27
728.891	3365.67
729.077	3451.68
729.264	3423.01
729.45	3410.72
729.636	3380
729.823	3478.3
730.009	3441.44
730.195	3402.53
730.382	3371.81
730.568	3273.51
730.754	3353.38
730.94	3394.34
731.126	3291.94
731.313	3334.95
731.499	3298.08
731.685	3433.25
731.871	3212.07
732.057	3171.11
732.243	3265.32
732.429	3443.49
732.615	3394.34
732.801	3271.46
732.987	3207.97
733.173	3263.27
733.359	3324.71
733.545	3173.16
733.731	3158.82
733.917	3306.27
734.103	3349.28
734.289	3222.31
734.475	3351.33
734.661	3310.37
734.847	3316.51
735.033	3169.06
735.219	3210.02
735.404	3275.56
735.59	3298.08
735.776	3281.7
735.962	3275.56
736.148	3158.82
736.333	3193.64
736.519	3173.16
736.705	3210.02
736.89	3162.92
737.076	3152.68
737.262	3207.97
737.447	3240.74
737.633	3177.25
737.819	3013.42
738.004	3037.99
738.19	3177.25
738.375	3103.53
738.561	3207.97
738.747	3281.7
738.932	2941.74
739.118	3226.4
739.303	3126.05
739.489	3040.04
739.674	3121.96
739.859	3089.19
740.045	3111.72
740.23	2882.35
740.416	2906.92
740.601	3117.86
740.786	3056.42
740.972	3060.52
741.157	2966.31
741.342	2939.69
741.528	2980.65
741.713	2954.02
741.898	3037.99
742.084	3058.47
742.269	2925.35
742.454	2814.76
742.639	2906.92
742.824	2894.63
743.01	2978.6
743.195	2874.15
743.38	2874.15
743.565	2917.16
743.75	2822.95
743.935	2804.52
744.12	2898.73
744.305	2755.37
744.49	2915.11
744.675	2738.99
744.86	2769.71
745.045	2710.32
745.23	2816.81
745.415	2652.97
745.6	2716.46
745.785	2603.82
745.97	2689.84
746.155	2710.32
746.34	2607.92
746.525	2628.4
746.71	2693.93
746.895	2480.94
747.079	2560.81
747.264	2526
747.449	2648.88
747.634	2478.9
747.819	2399.02
748.003	2439.98
748.188	2593.58
748.373	2601.77
748.557	2468.66
748.742	2339.63
748.927	2532.14
749.111	2450.22
749.296	2415.41
749.481	2372.4
749.665	2382.64
749.85	2353.97
750.034	2466.61
750.219	2433.84
750.404	2265.91
750.588	2313.01
750.773	2145.08
750.957	2265.91
751.141	2304.82
751.326	2175.8
751.51	2183.99
751.695	2218.8
751.879	2145.08
752.064	2177.84
752.248	2073.4
752.432	2280.24
752.617	2005.81
752.801	2128.69
752.985	2112.31
753.17	2020.15
753.354	2054.97
753.538	2030.39
753.722	1991.48
753.907	1989.43
754.091	2018.1
754.275	2026.29
754.459	1923.9
754.643	1874.74
754.828	1997.62
755.012	1874.74
755.196	1841.98
755.38	1964.86
755.564	1829.69
755.748	1985.34
755.932	1788.73
756.116	1948.47
756.3	1866.55
756.484	1880.89
756.668	1772.35
756.852	1747.77
757.036	1803.07
757.22	1796.92
757.404	1719.1
757.588	1749.82
757.772	1653.56
757.956	1696.57
758.14	1735.48
758.323	1682.24
758.507	1737.53
758.691	1694.52
758.875	1669.95
759.059	1712.96
759.242	1616.7
759.426	1622.84
759.61	1649.47
759.794	1549.12
759.977	1637.18
760.161	1710.91
760.345	1653.56
760.528	1602.36
760.712	1536.83
760.895	1522.49
761.079	1653.56
761.263	1545.02
761.446	1428.29
761.63	1440.58
761.813	1538.88
761.997	1512.25
762.18	1461.06
762.364	1375.04
762.547	1411.9
762.731	1446.72
762.914	1454.91
763.098	1465.15
763.281	1348.42
763.464	1426.24
763.648	1551.17
763.831	1465.15
764.015	1446.72
764.198	1391.42
764.381	1387.33
764.564	1456.96
764.748	1391.42
764.931	1428.29
765.114	1407.81
765.297	1364.8
765.481	1317.7
765.664	1370.94
765.847	1291.07
766.03	1399.62
766.213	1354.56
766.397	1250.11
766.58	1266.5
766.763	1315.65
766.946	1383.23
767.129	1293.12
767.312	1340.22
767.495	1219.39
767.678	1278.79
767.861	1270.59
768.044	1241.92
768.227	1252.16
768.41	1264.45
768.593	1262.4
768.776	1209.15
768.959	1209.15
769.142	1215.3
769.324	1182.53
769.507	1231.68
769.69	1270.59
769.873	1262.4
770.056	1286.98
770.239	1256.26
770.421	1178.44
770.604	1268.55
770.787	1188.68
770.97	1190.72
771.152	1143.62
771.335	1178.44
771.518	1155.91
771.7	1086.28
771.883	1168.2
772.066	1178.44
772.248	1145.67
772.431	1186.63
772.613	1078.08
772.796	1080.13
772.978	1100.61
773.161	1084.23
773.343	1063.75
773.526	1076.04
773.708	987.97
773.891	1080.13
774.073	1004.36
774.256	1055.56
774.438	1037.13
774.621	957.25
774.803	1045.32
774.985	1047.37
775.168	985.93
775.35	1104.71
775.532	1108.8
775.715	897.86
775.897	1055.56
776.079	994.12
776.261	1039.17
776.444	949.06
776.626	963.4
776.808	906.06
776.99	934.73
777.173	963.4
777.355	850.76
777.537	957.25
777.719	932.68
777.901	852.81
778.083	897.86
778.265	820.04
778.447	953.16
778.629	867.14
778.811	803.66
778.993	834.38
779.175	848.71
779.357	856.9
779.539	834.38
779.721	838.47
779.903	824.14
780.085	822.09
780.267	707.4
780.449	809.8
780.631	834.38
780.812	863.05
780.994	791.37
781.176	701.26
781.358	785.23
781.54	717.64
781.721	826.18
781.903	768.84
782.085	734.03
782.267	742.22
782.448	752.46
782.63	789.32
782.812	731.98
782.993	678.73
783.175	777.03
783.357	682.83
783.538	684.87
783.72	639.82
783.901	578.38
784.083	652.11
784.264	668.49
784.446	654.16
784.627	643.92
784.809	568.14
784.99	625.48
785.172	551.76
785.353	703.31
785.535	623.44
785.716	562
785.897	631.63
786.079	631.63
786.26	637.77
786.441	629.58
786.623	508.75
786.804	639.82
786.985	590.67
787.167	592.72
787.348	605
787.529	559.95
787.71	672.59
787.891	617.29
788.073	547.66
788.254	512.85
788.435	590.67
788.616	502.61
788.797	547.66
788.978	467.79
789.159	555.85
789.34	586.57
789.522	535.37
789.703	551.76
789.884	510.8
790.065	568.14
790.246	559.95
790.427	426.83
790.607	568.14
790.788	527.18
790.969	494.41
791.15	572.24
791.331	439.12
791.512	482.13
791.693	508.75
791.874	455.5
792.054	486.22
792.235	551.76
792.416	430.93
792.597	416.59
792.778	400.21
792.958	461.65
793.139	383.82
793.32	424.78
793.5	361.3
793.681	445.26
793.862	529.23
794.042	445.26
794.223	398.16
794.404	377.68
794.584	410.45
794.765	457.55
794.945	342.86
795.126	432.97
795.306	480.08
795.487	441.17
795.667	418.64
795.848	406.35
796.028	383.82
796.209	342.86
796.389	367.44
796.57	412.5
796.75	357.2
796.93	297.81
797.111	392.02
797.291	344.91
797.471	406.35
797.652	367.44
797.832	318.29
798.012	377.68
798.192	269.14
798.373	308.05
798.553	318.29
798.733	301.9
798.913	389.97
799.093	432.97
799.274	269.14
799.454	310.1
799.634	383.82
799.814	367.44
799.994	408.4
800.174	351.06
800.354	359.25
800.534	283.47
800.714	318.29
800.894	308.05
801.074	299.86
801.254	269.14
801.434	316.24
801.614	406.35
801.794	275.28
801.974	783.18
802.154	338.77
802.334	392.02
802.514	289.62
802.693	357.2
802.873	314.19
803.053	285.52
803.233	301.9
803.413	303.95
803.592	371.54
803.772	314.19
803.952	359.25
804.131	299.86
804.311	293.71
804.491	353.1
804.67	293.71
804.85	363.34
805.03	199.51
805.209	330.58
805.389	310.1
805.568	265.04
805.748	301.9
805.928	277.33
806.107	244.56
806.287	318.29
806.466	299.86
806.646	281.43
806.825	297.81
807.004	273.23
807.184	301.9
807.363	334.67
807.543	195.41
807.722	361.3
807.901	322.38
808.081	299.86
808.26	277.33
808.439	267.09
808.619	324.43
808.798	252.75
808.977	250.71
809.156	306
809.336	299.86
809.515	281.43
809.694	283.47
809.873	152.4
810.052	310.1
810.231	244.56
810.411	281.43
810.59	306
810.769	267.09
810.948	248.66
811.127	172.88
811.306	267.09
811.485	244.56
811.664	301.9
811.843	185.17
812.022	215.89
812.201	197.46
812.38	207.7
812.559	244.56
812.737	238.42
812.916	277.33
813.095	242.51
813.274	256.85
813.453	217.94
813.632	215.89
813.811	217.94
813.989	197.46
814.168	230.23
814.347	250.71
814.526	260.95
814.704	258.9
814.883	269.14
815.062	172.88
815.24	306
815.419	232.27
815.598	150.36
815.776	158.55
815.955	285.52
816.133	181.07
816.312	222.03
816.49	156.5
816.669	195.41
816.847	203.6
817.026	197.46
817.204	174.93
817.383	172.88
817.561	88.92
817.74	256.85
817.918	160.59
818.097	224.08
818.275	197.46
818.453	246.61
818.632	226.13
818.81	219.99
818.988	127.83
819.167	195.41
819.345	170.83
819.523	224.08
819.701	148.31
819.879	201.55
820.058	222.03
820.236	154.45
820.414	166.74
820.592	181.07
820.77	170.83
820.948	187.22
821.127	133.97
821.305	138.07
821.483	179.03
821.661	156.5
821.839	191.31
822.017	119.64
822.195	191.31
822.373	262.99
822.551	215.89
822.729	152.4
822.907	97.11
823.085	127.83
823.262	172.88
823.44	162.64
823.618	162.64
823.796	195.41
823.974	142.16
824.152	74.58
824.329	168.79
824.507	207.7
824.685	228.18
824.863	152.4
825.04	97.11
825.218	125.78
825.396	148.31
825.574	156.5
825.751	86.87
825.929	224.08
826.107	113.49
826.284	156.5
826.462	146.26
826.639	82.77
826.817	197.46
826.994	99.16
827.172	168.79
827.349	133.97
827.527	99.16
827.704	133.97
827.882	101.2
828.059	95.06
828.237	191.31
828.414	119.64
828.591	154.45
828.769	166.74
828.946	144.21
829.124	185.17
829.301	121.68
829.478	115.54
829.655	162.64
829.833	170.83
830.01	115.54
830.187	127.83
830.364	138.07
830.542	111.44
830.719	193.36
830.896	93.01
831.073	203.6
831.25	148.31
831.427	162.64
831.604	146.26
831.782	80.72
831.959	172.88
832.136	129.88
832.313	103.25
832.49	97.11
832.667	105.3
832.844	105.3
833.021	140.12
833.198	158.55
833.374	107.35
833.551	136.02
833.728	84.82
833.905	95.06
834.082	74.58
834.259	68.44
834.436	154.45
834.612	117.59
834.789	146.26
834.966	191.31
835.143	154.45
835.319	97.11
835.496	185.17
835.673	72.53
835.85	86.87
836.026	60.24
836.203	183.12
836.38	129.88
836.556	138.07
836.733	125.78
836.909	209.75
837.086	80.72
837.262	70.48
837.439	103.25
837.616	97.11
837.792	64.34
837.968	72.53
838.145	84.82
838.321	78.68
838.498	121.68
838.674	76.63
838.851	97.11
839.027	107.35
839.203	78.68
839.38	88.92
839.556	115.54
839.732	150.36
839.909	101.2
840.085	146.26
840.261	43.86
840.437	133.97
840.614	127.83
840.79	82.77
840.966	133.97
841.142	60.24
841.318	129.88
841.494	68.44
841.671	88.92
841.847	138.07
842.023	23.38
842.199	60.24
842.375	142.16
842.551	33.62
842.727	107.35
842.903	101.2
843.079	15.19
843.255	160.59
843.431	187.22
843.607	129.88
843.783	31.57
843.959	68.44
844.134	45.91
844.31	115.54
844.486	68.44
844.662	64.34
844.838	142.16
845.013	138.07
845.189	152.4
845.365	52.05
845.541	13.14
845.716	56.15
845.892	111.44
846.068	105.3
846.244	17.24
846.419	123.73
846.595	105.3
846.77	80.72
846.946	70.48
847.122	62.29
847.297	86.87
847.473	119.64
847.648	64.34
847.824	72.53
847.999	121.68
848.175	62.29
848.35	90.96
848.526	45.91
848.701	72.53
848.876	95.06
849.052	129.88
849.227	39.76
849.403	43.86
849.578	105.3
849.753	74.58
849.929	90.96
850.104	64.34
850.279	68.44
850.454	90.96
850.63	17.24
850.805	-11.43
850.98	62.29
851.155	86.87
851.33	56.15
851.505	86.87
851.681	39.76
851.856	90.96
852.031	88.92
852.206	60.24
852.381	58.2
852.556	54.1
852.731	23.38
852.906	86.87
853.081	148.31
853.256	66.39
853.431	129.88
853.606	97.11
853.781	54.1
853.956	70.48
854.131	2.9
854.305	97.11
854.48	78.68
854.655	-19.63
854.83	95.06
855.005	-21.67
855.18	78.68
855.354	84.82
855.529	52.05
855.704	68.44
855.879	176.98
856.053	47.96
856.228	93.01
856.403	97.11
856.577	33.62
856.752	39.76
856.926	62.29
857.101	17.24
857.276	52.05
857.45	37.72
857.625	35.67
857.799	31.57
857.974	74.58
858.148	21.33
858.323	111.44
858.497	27.48
858.672	13.14
858.846	52.05
859.02	170.83
859.195	11.09
859.369	43.86
859.543	29.52
859.718	41.81
859.892	97.11
860.066	95.06
860.241	31.57
860.415	-17.58
860.589	23.38
860.763	101.2
860.938	117.59
861.112	97.11
861.286	33.62
861.46	2.9
861.634	25.43
861.808	82.77
861.982	52.05
862.157	31.57
862.331	25.43
862.505	84.82
862.679	19.29
862.853	31.57
863.027	-15.53
863.201	56.15
863.375	58.2
863.549	56.15
863.722	43.86
863.896	150.36
864.07	39.76
864.244	125.78
864.418	70.48
864.592	54.1
864.766	37.72
864.939	78.68
865.113	43.86
865.287	-11.43
865.461	-46.25
865.634	11.09
865.808	50
865.982	86.87
866.156	4.95
866.329	-50.35
866.503	54.1
866.676	117.59
866.85	29.52
867.024	72.53
867.197	15.19
867.371	109.4
867.544	47.96
867.718	37.72
867.891	86.87
868.065	52.05
868.238	-13.48
868.412	54.1
868.585	47.96
868.759	64.34
868.932	-11.43
869.105	58.2
869.279	43.86
869.452	15.19
869.625	88.92
869.799	29.52
869.972	66.39
870.145	9.05
870.319	58.2
870.492	56.15
870.665	72.53
870.838	60.24
871.011	19.29
871.185	-38.06
871.358	60.24
871.531	13.14
871.704	74.58
871.877	45.91
872.05	52.05
872.223	41.81
872.396	47.96
872.569	29.52
872.742	62.29
872.915	37.72
873.088	64.34
873.261	-7.34
873.434	80.72
873.607	72.53
873.78	56.15
873.953	45.91
874.126	74.58
874.299	50
874.471	9.05
874.644	39.76
874.817	25.43
874.99	72.53
875.163	62.29
875.335	119.64
875.508	64.34
875.681	101.2
875.853	25.43
876.026	31.57
876.199	88.92
876.371	41.81
876.544	-25.77
876.717	-17.58
876.889	68.44
877.062	62.29
877.234	-1.19
877.407	21.33
877.579	29.52
877.752	113.49
877.924	74.58
878.097	45.91
878.269	-31.91
878.442	62.29
878.614	62.29
878.786	50
878.959	56.15
879.131	23.38
879.303	29.52
879.476	111.44
879.648	13.14
879.82	113.49
879.993	-15.53
880.165	41.81
880.337	-17.58
880.509	105.3
880.681	97.11
880.854	17.24
881.026	25.43
881.198	39.76
881.37	50
881.542	2.9
881.714	29.52
881.886	7
882.058	35.67
882.23	-52.39
882.402	13.14
882.574	82.77
882.746	70.48
882.918	56.15
883.09	15.19
883.262	88.92
883.434	41.81
883.606	72.53
883.778	29.52
883.95	97.11
884.122	-9.39
884.293	35.67
884.465	33.62
884.637	47.96
884.809	58.2
884.98	47.96
885.152	56.15
885.324	138.07
885.496	-36.01
885.667	9.05
885.839	19.29
886.011	15.19
886.182	21.33
886.354	111.44
886.525	21.33
886.697	64.34
886.869	31.57
887.04	-29.87
887.212	47.96
887.383	97.11
887.555	64.34
887.726	31.57
887.897	52.05
888.069	74.58
888.24	21.33
888.412	105.3
888.583	-25.77
888.754	52.05
888.926	-42.15
889.097	45.91
889.268	52.05
889.44	47.96
889.611	15.19
889.782	-13.48
889.953	2.9
890.125	84.82
890.296	23.38
890.467	43.86
890.638	70.48
890.809	9.05
890.98	0.85
891.151	52.05
891.323	70.48
891.494	88.92
891.665	39.76
891.836	43.86
892.007	17.24
892.178	109.4
892.349	-68.78
892.52	35.67
892.691	7
892.862	60.24
893.032	-17.58
893.203	25.43
893.374	76.63
893.545	109.4
893.716	-9.39
893.887	-29.87
894.057	39.76
894.228	4.95
894.399	-38.06
894.57	13.14
894.74	-9.39
894.911	111.44
895.082	25.43
895.253	-3.24
895.423	50
895.594	-15.53
895.764	43.86
895.935	78.68
896.106	29.52
896.276	64.34
896.447	-40.11
896.617	4.95
896.788	37.72
896.958	-13.48
897.129	47.96
897.299	-29.87
897.47	58.2
897.64	136.02
897.81	-1.19
897.981	80.72
898.151	11.09
898.322	99.16
898.492	15.19
898.662	37.72
898.832	17.24
899.003	41.81
899.173	80.72
899.343	35.67
899.513	-11.43
