Data from USB4F104151__111__10-24-55-686.txt Node

Date: Wed Mar 12 10:24:55 EDT 2025
User: louis
Spectrometer: USB4F10415
Trigger mode: 4
Integration Time (sec): 3.000000E-2
Scans to average: 1
Electric dark correction enabled: true
Nonlinearity correction enabled: false
Boxcar width: 0
XAxis mode: Wavelengths
Number of Pixels in Spectrum: 3648
>>>>>Begin Spectral Data<<<<<
178.204	-108.37
178.424	-108.37
178.644	-108.37
178.864	-151.38
179.084	-159.57
179.304	41.13
179.524	12.46
179.744	34.99
179.964	37.03
180.184	-32.6
180.404	-24.4
180.624	-38.74
180.844	32.94
181.064	-28.5
181.283	-1.88
181.503	-44.88
181.723	12.46
181.943	-61.27
182.163	82.09
182.383	6.31
182.602	8.36
182.822	77.99
183.042	80.04
183.262	10.41
183.482	-3.93
183.701	110.76
183.921	51.37
184.141	-44.88
184.361	4.27
184.58	20.65
184.8	59.56
185.02	53.42
185.239	96.43
185.459	24.75
185.679	75.95
185.898	-34.64
186.118	57.51
186.338	69.8
186.557	16.55
186.777	14.51
186.997	39.08
187.216	47.27
187.436	110.76
187.655	92.33
187.875	102.57
188.095	53.42
188.314	112.81
188.534	41.13
188.753	77.99
188.973	121
189.192	82.09
189.412	-5.97
189.631	82.09
189.851	16.55
190.07	98.47
190.29	20.65
190.509	49.32
190.729	-85.84
190.948	12.46
191.168	168.1
191.387	69.8
191.607	10.41
191.826	-36.69
192.045	6.31
192.265	12.46
192.484	71.85
192.704	-42.84
192.923	16.55
193.142	125.1
193.362	61.61
193.581	94.38
193.8	43.18
194.02	135.34
194.239	-55.12
194.458	112.81
194.678	12.46
194.897	-3.93
195.116	86.19
195.335	102.57
195.555	51.37
195.774	18.6
195.993	41.13
196.212	-51.03
196.432	45.23
196.651	32.94
196.87	59.56
197.089	168.1
197.308	22.7
197.528	41.13
197.747	-20.31
197.966	-28.5
198.185	16.55
198.404	-38.74
198.623	90.28
198.842	47.27
199.062	77.99
199.281	125.1
199.5	75.95
199.719	-8.02
199.938	0.17
200.157	37.03
200.376	16.55
200.595	131.24
200.814	43.18
201.033	45.23
201.252	49.32
201.471	0.17
201.69	65.71
201.909	80.04
202.128	65.71
202.347	123.05
202.566	-5.97
202.785	-1.88
203.004	0.17
203.223	69.8
203.442	63.66
203.661	-5.97
203.879	-12.12
204.098	51.37
204.317	61.61
204.536	151.72
204.755	10.41
204.974	-26.45
205.193	16.55
205.411	55.47
205.63	-14.17
205.849	-42.84
206.068	43.18
206.287	6.31
206.505	75.95
206.724	86.19
206.943	39.08
207.162	20.65
207.381	53.42
207.599	12.46
207.818	82.09
208.037	90.28
208.255	16.55
208.474	59.56
208.693	47.27
208.911	10.41
209.13	84.14
209.349	-1.88
209.567	45.23
209.786	77.99
210.005	41.13
210.223	73.9
210.442	30.89
210.661	37.03
210.879	39.08
211.098	22.7
211.316	51.37
211.535	161.96
211.753	-8.02
211.972	63.66
212.191	20.65
212.409	32.94
212.628	51.37
212.846	30.89
213.065	45.23
213.283	55.47
213.502	-3.93
213.72	94.38
213.938	45.23
214.157	61.61
214.375	26.79
214.594	55.47
214.812	47.27
215.031	34.99
215.249	8.36
215.467	18.6
215.686	16.55
215.904	59.56
216.122	39.08
216.341	106.67
216.559	0.17
216.778	45.23
216.996	98.47
217.214	-3.93
217.432	73.9
217.651	-5.97
217.869	43.18
218.087	71.85
218.306	59.56
218.524	86.19
218.742	-14.17
218.96	47.27
219.179	-5.97
219.397	43.18
219.615	18.6
219.833	32.94
220.051	-3.93
220.27	61.61
220.488	41.13
220.706	4.27
220.924	41.13
221.142	49.32
221.36	65.71
221.578	20.65
221.796	16.55
222.015	-8.02
222.233	2.22
222.451	90.28
222.669	8.36
222.887	84.14
223.105	-18.26
223.323	-30.55
223.541	82.09
223.759	26.79
223.977	0.17
224.195	41.13
224.413	2.22
224.631	67.75
224.849	37.03
225.067	104.62
225.285	80.04
225.503	34.99
225.721	16.55
225.939	24.75
226.157	53.42
226.375	73.9
226.592	-8.02
226.81	-22.36
227.028	51.37
227.246	106.67
227.464	28.84
227.682	26.79
227.9	77.99
228.117	22.7
228.335	49.32
228.553	24.75
228.771	61.61
228.989	30.89
229.206	28.84
229.424	49.32
229.642	69.8
229.86	20.65
230.077	4.27
230.295	34.99
230.513	-53.08
230.731	12.46
230.948	71.85
231.166	18.6
231.384	0.17
231.601	28.84
231.819	59.56
232.037	14.51
232.254	28.84
232.472	16.55
232.689	37.03
232.907	16.55
233.125	-14.17
233.342	24.75
233.56	8.36
233.777	43.18
233.995	49.32
234.213	82.09
234.43	45.23
234.648	69.8
234.865	-14.17
235.083	-12.12
235.3	-5.97
235.518	73.9
235.735	69.8
235.953	118.95
236.17	61.61
236.388	4.27
236.605	37.03
236.822	45.23
237.04	30.89
237.257	82.09
237.475	34.99
237.692	-28.5
237.909	73.9
238.127	-1.88
238.344	24.75
238.562	26.79
238.779	16.55
238.996	45.23
239.214	-10.07
239.431	69.8
239.648	28.84
239.865	6.31
240.083	106.67
240.3	77.99
240.517	24.75
240.735	20.65
240.952	123.05
241.169	57.51
241.386	86.19
241.603	47.27
241.821	49.32
242.038	92.33
242.255	114.86
242.472	12.46
242.689	59.56
242.907	67.75
243.124	28.84
243.341	90.28
243.558	2.22
243.775	12.46
243.992	53.42
244.209	22.7
244.426	77.99
244.643	43.18
244.86	-5.97
245.078	16.55
245.295	73.9
245.512	90.28
245.729	34.99
245.946	65.71
246.163	28.84
246.38	4.27
246.597	86.19
246.814	-71.51
247.031	30.89
247.248	69.8
247.464	73.9
247.681	-8.02
247.898	86.19
248.115	69.8
248.332	20.65
248.549	82.09
248.766	59.56
248.983	86.19
249.2	-38.74
249.417	106.67
249.633	28.84
249.85	-12.12
250.067	47.27
250.284	30.89
250.501	67.75
250.717	69.8
250.934	10.41
251.151	-12.12
251.368	71.85
251.585	20.65
251.801	32.94
252.018	94.38
252.235	49.32
252.451	10.41
252.668	0.17
252.885	69.8
253.102	65.71
253.318	16.55
253.535	51.37
253.752	47.27
253.968	0.17
254.185	12.46
254.401	53.42
254.618	32.94
254.835	-5.97
255.051	37.03
255.268	49.32
255.484	53.42
255.701	80.04
255.917	47.27
256.134	6.31
256.351	-20.31
256.567	45.23
256.784	51.37
257	10.41
257.217	18.6
257.433	53.42
257.65	61.61
257.866	63.66
258.082	-75.6
258.299	73.9
258.515	57.51
258.732	75.95
258.948	-38.74
259.165	30.89
259.381	73.9
259.597	30.89
259.814	49.32
260.03	51.37
260.246	24.75
260.463	43.18
260.679	28.84
260.895	34.99
261.112	20.65
261.328	20.65
261.544	2.22
261.761	53.42
261.977	24.75
262.193	-5.97
262.409	55.47
262.626	-10.07
262.842	12.46
263.058	37.03
263.274	16.55
263.49	-5.97
263.707	37.03
263.923	4.27
264.139	16.55
264.355	-48.98
264.571	8.36
264.787	-30.55
265.004	49.32
265.22	51.37
265.436	20.65
265.652	2.22
265.868	39.08
266.084	-3.93
266.3	73.9
266.516	53.42
266.732	-34.64
266.948	-3.93
267.164	-1.88
267.38	59.56
267.596	45.23
267.812	121
268.028	59.56
268.244	26.79
268.46	67.75
268.676	18.6
268.892	51.37
269.108	73.9
269.324	28.84
269.54	51.37
269.756	51.37
269.972	-12.12
270.188	61.61
270.403	41.13
270.619	84.14
270.835	98.47
271.051	82.09
271.267	2.22
271.483	61.61
271.698	0.17
271.914	12.46
272.13	28.84
272.346	55.47
272.562	37.03
272.777	24.75
272.993	4.27
273.209	26.79
273.425	16.55
273.64	34.99
273.856	-22.36
274.072	73.9
274.287	39.08
274.503	2.22
274.719	12.46
274.934	6.31
275.15	41.13
275.366	53.42
275.581	47.27
275.797	59.56
276.012	22.7
276.228	20.65
276.444	67.75
276.659	59.56
276.875	-24.4
277.09	32.94
277.306	-14.17
277.521	16.55
277.737	67.75
277.952	28.84
278.168	8.36
278.383	73.9
278.599	-46.93
278.814	100.52
279.03	-98.13
279.245	18.6
279.461	43.18
279.676	90.28
279.892	47.27
280.107	-36.69
280.322	37.03
280.538	32.94
280.753	-5.97
280.969	106.67
281.184	22.7
281.399	102.57
281.615	57.51
281.83	43.18
282.045	0.17
282.26	-1.88
282.476	30.89
282.691	49.32
282.906	-10.07
283.122	100.52
283.337	8.36
283.552	118.95
283.767	26.79
283.983	43.18
284.198	37.03
284.413	39.08
284.628	-69.46
284.843	96.43
285.058	26.79
285.274	24.75
285.489	53.42
285.704	45.23
285.919	0.17
286.134	28.84
286.349	49.32
286.564	20.65
286.779	102.57
286.995	73.9
287.21	22.7
287.425	80.04
287.64	37.03
287.855	73.9
288.07	41.13
288.285	73.9
288.5	39.08
288.715	69.8
288.93	86.19
289.145	16.55
289.36	57.51
289.575	88.23
289.79	57.51
290.004	61.61
290.219	32.94
290.434	12.46
290.649	37.03
290.864	61.61
291.079	118.95
291.294	65.71
291.509	24.75
291.724	16.55
291.938	47.27
292.153	0.17
292.368	-30.55
292.583	80.04
292.798	55.47
293.012	32.94
293.227	100.52
293.442	49.32
293.657	49.32
293.871	125.1
294.086	0.17
294.301	32.94
294.516	98.47
294.73	34.99
294.945	-22.36
295.16	6.31
295.374	65.71
295.589	86.19
295.804	90.28
296.018	-20.31
296.233	49.32
296.447	22.7
296.662	37.03
296.877	32.94
297.091	102.57
297.306	-36.69
297.52	30.89
297.735	94.38
297.949	18.6
298.164	82.09
298.378	49.32
298.593	100.52
298.807	71.85
299.022	80.04
299.236	112.81
299.451	53.42
299.665	26.79
299.88	39.08
300.094	16.55
300.309	30.89
300.523	65.71
300.737	22.7
300.952	39.08
301.166	121
301.381	41.13
301.595	18.6
301.809	80.04
302.024	-14.17
302.238	16.55
302.452	73.9
302.667	-14.17
302.881	129.19
303.095	47.27
303.309	45.23
303.524	4.27
303.738	12.46
303.952	57.51
304.166	92.33
304.381	20.65
304.595	16.55
304.809	12.46
305.023	131.24
305.237	37.03
305.452	49.32
305.666	39.08
305.88	151.72
306.094	77.99
306.308	92.33
306.522	77.99
306.736	10.41
306.95	80.04
307.164	18.6
307.379	16.55
307.593	84.14
307.807	94.38
308.021	108.71
308.235	47.27
308.449	73.9
308.663	20.65
308.877	143.53
309.091	84.14
309.305	61.61
309.519	53.42
309.733	67.75
309.947	-55.12
310.161	28.84
310.374	51.37
310.588	127.14
310.802	14.51
311.016	82.09
311.23	141.48
311.444	14.51
311.658	-26.45
311.872	98.47
312.085	86.19
312.299	4.27
312.513	86.19
312.727	61.61
312.941	0.17
313.154	139.43
313.368	69.8
313.582	24.75
313.796	41.13
314.009	41.13
314.223	92.33
314.437	37.03
314.651	28.84
314.864	106.67
315.078	24.75
315.292	92.33
315.505	37.03
315.719	69.8
315.933	92.33
316.146	32.94
316.36	10.41
316.573	53.42
316.787	37.03
317.001	32.94
317.214	37.03
317.428	123.05
317.641	-28.5
317.855	47.27
318.068	67.75
318.282	6.31
318.495	116.9
318.709	75.95
318.922	28.84
319.136	139.43
319.349	96.43
319.563	75.95
319.776	82.09
319.99	61.61
320.203	43.18
320.417	32.94
320.63	67.75
320.843	94.38
321.057	84.14
321.27	100.52
321.483	14.51
321.697	73.9
321.91	82.09
322.124	41.13
322.337	12.46
322.55	28.84
322.763	20.65
322.977	2.22
323.19	2.22
323.403	24.75
323.617	6.31
323.83	10.41
324.043	8.36
324.256	61.61
324.469	24.75
324.683	-5.97
324.896	18.6
325.109	92.33
325.322	69.8
325.535	47.27
325.748	69.8
325.962	-40.79
326.175	57.51
326.388	59.56
326.601	129.19
326.814	94.38
327.027	77.99
327.24	90.28
327.453	-20.31
327.666	77.99
327.879	37.03
328.092	141.48
328.305	102.57
328.518	65.71
328.731	32.94
328.944	49.32
329.157	34.99
329.37	41.13
329.583	-42.84
329.796	96.43
330.009	2.22
330.222	57.51
330.435	2.22
330.648	75.95
330.861	55.47
331.073	43.18
331.286	26.79
331.499	41.13
331.712	20.65
331.925	10.41
332.138	18.6
332.35	75.95
332.563	-32.6
332.776	59.56
332.989	98.47
333.202	96.43
333.414	-12.12
333.627	71.85
333.84	8.36
334.053	71.85
334.265	73.9
334.478	-1.88
334.691	51.37
334.903	0.17
335.116	26.79
335.329	49.32
335.541	4.27
335.754	69.8
335.966	26.79
336.179	39.08
336.392	-3.93
336.604	20.65
336.817	43.18
337.029	43.18
337.242	26.79
337.454	75.95
337.667	82.09
337.88	73.9
338.092	55.47
338.305	45.23
338.517	51.37
338.729	-3.93
338.942	30.89
339.154	45.23
339.367	37.03
339.579	37.03
339.792	61.61
340.004	57.51
340.217	4.27
340.429	26.79
340.641	75.95
340.854	65.71
341.066	28.84
341.278	18.6
341.491	84.14
341.703	47.27
341.915	98.47
342.128	73.9
342.34	75.95
342.552	84.14
342.764	28.84
342.977	26.79
343.189	43.18
343.401	34.99
343.613	34.99
343.826	43.18
344.038	82.09
344.25	125.1
344.462	24.75
344.674	121
344.886	43.18
345.099	73.9
345.311	55.47
345.523	2.22
345.735	6.31
345.947	45.23
346.159	28.84
346.371	43.18
346.583	53.42
346.795	102.57
347.007	37.03
347.219	59.56
347.431	-22.36
347.643	92.33
347.855	59.56
348.067	131.24
348.279	39.08
348.491	100.52
348.703	12.46
348.915	86.19
349.127	45.23
349.339	82.09
349.551	61.61
349.763	65.71
349.975	12.46
350.187	90.28
350.399	26.79
350.61	12.46
350.822	100.52
351.034	88.23
351.246	22.7
351.458	82.09
351.669	4.27
351.881	65.71
352.093	43.18
352.305	88.23
352.517	137.38
352.728	110.76
352.94	32.94
353.152	98.47
353.363	-10.07
353.575	108.71
353.787	32.94
353.999	121
354.21	100.52
354.422	-22.36
354.633	37.03
354.845	61.61
355.057	16.55
355.268	77.99
355.48	18.6
355.692	14.51
355.903	118.95
356.115	53.42
356.326	12.46
356.538	69.8
356.749	49.32
356.961	59.56
357.172	106.67
357.384	133.29
357.595	47.27
357.807	84.14
358.018	118.95
358.23	71.85
358.441	71.85
358.653	123.05
358.864	67.75
359.075	61.61
359.287	118.95
359.498	32.94
359.709	92.33
359.921	53.42
360.132	106.67
360.344	51.37
360.555	49.32
360.766	14.51
360.977	0.17
361.189	69.8
361.4	67.75
361.611	71.85
361.823	176.3
362.034	4.27
362.245	4.27
362.456	77.99
362.667	129.19
362.879	84.14
363.09	6.31
363.301	53.42
363.512	135.34
363.723	-24.4
363.935	69.8
364.146	161.96
364.357	45.23
364.568	69.8
364.779	28.84
364.99	98.47
365.201	28.84
365.412	41.13
365.623	-14.17
365.834	45.23
366.045	-22.36
366.256	26.79
366.467	73.9
366.678	20.65
366.889	30.89
367.1	53.42
367.311	69.8
367.522	-1.88
367.733	28.84
367.944	69.8
368.155	80.04
368.366	131.24
368.577	86.19
368.788	45.23
368.999	61.61
369.209	69.8
369.42	102.57
369.631	86.19
369.842	80.04
370.053	125.1
370.264	108.71
370.474	24.75
370.685	127.14
370.896	80.04
371.107	63.66
371.317	80.04
371.528	4.27
371.739	34.99
371.95	18.6
372.16	53.42
372.371	53.42
372.582	55.47
372.792	16.55
373.003	63.66
373.214	143.53
373.424	59.56
373.635	32.94
373.846	110.76
374.056	84.14
374.267	84.14
374.477	51.37
374.688	0.17
374.898	82.09
375.109	192.68
375.319	102.57
375.53	10.41
375.74	127.14
375.951	37.03
376.161	98.47
376.372	37.03
376.582	2.22
376.793	49.32
377.003	94.38
377.214	59.56
377.424	114.86
377.635	84.14
377.845	37.03
378.055	77.99
378.266	37.03
378.476	82.09
378.686	-10.07
378.897	92.33
379.107	71.85
379.317	114.86
379.528	63.66
379.738	71.85
379.948	16.55
380.158	53.42
380.369	86.19
380.579	20.65
380.789	116.9
380.999	57.51
381.21	43.18
381.42	106.67
381.63	53.42
381.84	45.23
382.05	121
382.261	82.09
382.471	75.95
382.681	24.75
382.891	71.85
383.101	26.79
383.311	2.22
383.521	98.47
383.731	145.58
383.941	0.17
384.151	37.03
384.361	61.61
384.571	86.19
384.781	80.04
384.991	69.8
385.201	161.96
385.411	8.36
385.621	174.25
385.831	69.8
386.041	77.99
386.251	86.19
386.461	86.19
386.671	88.23
386.881	82.09
387.091	98.47
387.301	96.43
387.511	67.75
387.72	123.05
387.93	94.38
388.14	65.71
388.35	57.51
388.56	26.79
388.769	94.38
388.979	118.95
389.189	-3.93
389.399	10.41
389.609	98.47
389.818	88.23
390.028	88.23
390.238	71.85
390.447	108.71
390.657	61.61
390.867	53.42
391.076	94.38
391.286	73.9
391.496	61.61
391.705	12.46
391.915	100.52
392.125	114.86
392.334	96.43
392.544	131.24
392.753	110.76
392.963	41.13
393.172	153.77
393.382	90.28
393.591	94.38
393.801	143.53
394.01	168.1
394.22	92.33
394.429	133.29
394.639	65.71
394.848	71.85
395.058	53.42
395.267	32.94
395.477	176.3
395.686	77.99
395.895	77.99
396.105	135.34
396.314	77.99
396.524	137.38
396.733	131.24
396.942	118.95
397.152	143.53
397.361	30.89
397.57	112.81
397.78	178.34
397.989	143.53
398.198	178.34
398.407	141.48
398.617	114.86
398.826	106.67
399.035	127.14
399.244	145.58
399.453	194.73
399.663	100.52
399.872	135.34
400.081	170.15
400.29	145.58
400.499	114.86
400.708	227.5
400.917	100.52
401.127	137.38
401.336	118.95
401.545	143.53
401.754	168.1
401.963	186.54
402.172	172.2
402.381	108.71
402.59	86.19
402.799	118.95
403.008	51.37
403.217	125.1
403.426	133.29
403.635	114.86
403.844	141.48
404.053	153.77
404.262	75.95
404.471	172.2
404.68	207.02
404.888	141.48
405.097	209.06
405.306	192.68
405.515	180.39
405.724	188.58
405.933	204.97
406.142	176.3
406.35	217.26
406.559	145.58
406.768	192.68
406.977	229.54
407.185	221.35
407.394	252.07
407.603	86.19
407.812	250.02
408.02	260.26
408.229	202.92
408.438	360.61
408.646	166.06
408.855	313.51
409.064	276.65
409.272	278.69
409.481	348.33
409.69	358.57
409.898	336.04
410.107	317.61
410.315	422.05
410.524	415.91
410.733	336.04
410.941	352.42
411.15	446.63
411.358	434.34
411.567	454.82
411.775	358.57
411.984	510.11
412.192	524.45
412.401	501.92
412.609	602.27
412.818	573.6
413.026	561.31
413.234	598.18
413.443	604.32
413.651	622.75
413.86	610.47
414.068	671.9
414.276	723.1
414.485	702.62
414.693	772.25
414.901	731.3
415.11	727.2
415.318	745.63
415.526	903.32
415.734	948.38
415.943	925.85
416.151	907.42
416.359	942.24
416.567	1015.96
416.776	1085.59
416.984	1020.06
417.192	1110.17
417.4	1116.31
417.608	1128.6
417.817	1140.89
418.025	1192.09
418.233	1261.72
418.441	1351.83
418.649	1351.83
418.857	1484.95
419.065	1403.03
419.273	1357.97
419.481	1560.72
419.689	1484.95
419.897	1642.64
420.105	1790.1
420.313	1734.8
420.521	1964.17
420.729	1788.05
420.937	1902.73
421.145	1937.55
421.353	2097.29
421.561	2150.54
421.769	2275.46
421.977	2236.55
422.185	2324.62
422.393	2371.72
422.601	2470.02
422.809	2519.17
423.017	2601.09
423.224	2627.71
423.432	2807.94
423.64	2750.59
423.848	3055.74
424.056	2900.09
424.263	3190.91
424.471	3086.46
424.679	3285.11
424.887	3584.12
425.094	3539.06
425.302	3571.83
425.51	3678.32
425.718	3903.6
425.925	3833.97
426.133	3975.28
426.341	4163.69
426.548	4302.95
426.756	4593.76
426.964	4337.77
427.171	4733.03
427.379	4872.29
427.586	4905.06
427.794	4989.02
428.001	5302.36
428.209	5353.56
428.417	5253.21
428.624	5871.7
428.832	5795.92
429.039	5830.74
429.247	5779.54
429.454	6357.07
429.662	6797.38
429.869	6053.97
430.076	6643.78
430.284	6473.8
430.491	7049.28
430.699	7280.7
430.906	7299.13
431.114	7290.94
431.321	7407.67
431.528	7784.5
431.736	8126.51
431.943	8593.45
432.15	8300.59
432.358	8294.44
432.565	9052.19
432.772	8861.73
432.979	9322.52
433.187	9539.61
433.394	9570.33
433.601	10133.52
433.808	10162.19
434.016	10127.38
434.223	10510.35
434.43	11212.8
434.637	11046.91
434.844	11542.52
435.052	11952.12
435.259	11554.81
435.466	11929.59
435.673	11745.27
435.88	12580.84
436.087	13320.16
436.294	13230.05
436.501	13010.92
436.708	12965.86
436.915	13717.47
437.122	14127.06
437.329	14151.63
437.537	14522.32
437.743	14778.31
437.95	14499.79
438.157	15378.37
438.364	15923.13
438.571	15863.74
438.778	15828.92
438.985	17684.38
439.192	16875.43
439.399	17500.06
439.606	16770.99
439.813	17923.99
440.02	18925.45
440.227	18771.85
440.433	18732.94
440.64	18978.7
440.847	18927.5
441.054	19527.55
441.261	20580.21
441.467	20283.25
441.674	20758.38
441.881	21497.7
442.088	21307.24
442.294	21280.61
442.501	21827.42
442.708	22224.73
442.914	23197.51
443.121	23867.2
443.328	23422.79
443.534	25153.32
443.741	24395.57
443.948	23992.12
444.154	25831.2
444.361	25358.12
444.568	25855.78
444.774	25679.65
444.981	26337.05
445.187	27174.67
445.394	28290.81
445.6	27772.67
445.807	30428.89
446.013	29003.5
446.22	29642.47
446.426	30643.93
446.633	30973.65
446.839	32044.74
447.046	30199.52
447.252	32372.41
447.459	32331.45
447.665	32317.12
447.871	33789.61
448.078	34856.6
448.284	33083.06
448.491	34217.63
448.697	35524.24
448.903	36046.47
449.11	36365.95
449.316	35554.96
449.522	36011.65
449.728	37037.69
449.935	37353.07
450.141	36939.38
450.347	37887.59
450.553	37119.6
450.76	37336.69
450.966	38323.81
451.172	37977.7
451.378	38876.76
451.584	38153.83
451.791	38823.51
451.997	38708.83
452.203	39482.96
452.409	39173.72
452.615	39261.78
452.821	37883.5
453.027	37598.83
453.233	39259.73
453.44	37705.32
453.646	37873.26
453.852	38153.83
454.058	38516.32
454.264	37488.24
454.47	38432.35
454.676	37209.71
454.882	38379.11
455.088	35018.39
455.294	35552.91
455.5	36269.7
455.705	36578.94
455.911	35174.03
456.117	34295.46
456.323	33584.81
456.529	31854.28
456.735	33482.41
456.941	32513.72
457.147	32085.7
457.352	31030.99
457.558	30578.39
457.764	30682.84
457.97	30181.09
458.176	29308.65
458.381	29421.29
458.587	28120.83
458.793	28202.75
458.999	26898.19
459.204	28520.18
459.41	27582.21
459.616	25712.42
459.821	26060.57
460.027	25583.4
460.233	25241.39
460.438	23877.44
460.644	24217.4
460.85	23088.97
461.055	23023.44
461.261	22746.96
461.466	21200.74
461.672	20410.23
461.878	21991.26
462.083	20651.89
462.289	20143.99
462.494	19984.25
462.7	18990.98
462.905	18765.71
463.111	19404.67
463.316	19302.28
463.522	18972.55
463.727	18829.2
463.932	18782.09
464.138	18626.45
464.343	18755.47
464.549	18263.96
464.754	18755.47
464.959	18691.98
465.165	18397.07
465.37	17837.98
465.575	17358.75
465.781	18208.66
465.986	18214.8
466.191	17319.84
466.397	17299.36
466.602	16514.99
466.807	17196.96
467.012	17035.17
467.218	16900.01
467.423	16611.25
467.628	16848.81
467.833	17473.44
468.038	16558
468.244	16160.69
468.449	16949.16
468.654	16324.53
468.859	16312.24
469.064	16125.88
469.269	15450.05
469.474	15757.24
469.679	16005.05
469.885	15488.96
470.09	15833.02
470.295	15683.52
470.5	15267.78
470.705	15548.35
470.91	14835.66
471.115	14774.22
471.32	14860.23
471.525	14817.22
471.73	14600.14
471.935	14479.31
472.139	14282.7
472.344	14448.59
472.549	14030.8
472.754	13971.41
472.959	13699.03
473.164	13320.16
473.369	13328.35
473.574	13598.68
473.778	13385.69
473.983	13361.12
474.188	13365.21
474.393	12593.13
474.598	12789.74
474.802	12531.69
475.007	12675.05
475.212	12611.56
475.417	12079.09
475.621	12152.82
475.826	12419.05
476.031	11882.49
476.235	11749.37
476.44	11843.57
476.645	11571.19
476.849	11784.18
477.054	11728.89
477.259	11409.4
477.463	11356.16
477.668	10921.99
477.872	11255.81
478.077	11104.26
478.282	10852.36
478.486	10821.64
478.691	10723.34
478.895	10672.14
479.1	10473.48
479.304	10727.43
479.509	10412.04
479.713	10502.15
479.918	10407.95
480.122	10266.64
480.326	10217.49
480.531	10424.33
480.735	10024.98
480.94	10233.87
481.144	10434.57
481.348	9893.91
481.553	10027.03
481.757	9764.89
481.961	10197.01
482.166	9889.81
482.37	9736.21
482.574	9662.49
482.778	9914.39
482.983	9922.58
483.187	9840.66
483.391	9996.31
483.595	9730.07
483.8	9601.05
484.004	9691.16
484.208	9936.92
484.412	9969.68
484.616	10059.79
484.821	9904.15
485.025	9709.59
485.229	9998.35
485.433	9771.03
485.637	9945.11
485.841	9850.9
486.045	9934.87
486.249	9795.61
486.453	9883.67
486.657	10139.66
486.861	10000.4
487.065	9711.64
487.269	9984.02
487.473	9912.34
487.677	10024.98
487.881	10209.29
488.085	9908.24
488.289	9887.76
488.493	9984.02
488.697	9973.78
488.901	9979.92
489.105	9926.68
489.309	10199.06
489.512	10227.73
489.716	10043.41
489.92	10051.6
490.124	10012.69
490.328	10158.1
490.531	10182.67
490.735	10246.16
490.939	10260.49
491.143	10147.86
491.346	10123.28
491.55	10280.97
491.754	10391.56
491.958	10461.2
492.161	10536.97
492.365	10387.47
492.569	10418.19
492.772	10600.46
492.976	10659.85
493.18	10637.32
493.383	10692.62
493.587	10924.04
493.79	11096.07
493.994	10971.14
494.197	11137.02
494.401	10997.76
494.605	11167.74
494.808	11167.74
495.012	11220.99
495.215	11401.21
495.419	11462.65
495.622	11380.73
495.825	11812.85
496.029	11716.6
496.232	11843.57
496.436	12001.27
496.639	12152.82
496.843	11950.07
497.046	12294.13
497.249	12345.33
497.453	12662.76
497.656	12761.06
497.859	12634.09
498.063	12832.74
498.266	13117.41
498.469	13131.75
498.673	13191.14
498.876	13547.48
499.079	13660.12
499.282	13461.47
499.485	14012.37
499.689	13912.02
499.892	14211.03
500.095	14149.59
500.298	14430.16
500.501	14421.97
500.705	14778.31
500.908	14577.61
501.111	14966.73
501.314	15388.61
501.517	15400.9
501.72	15517.63
501.923	15531.97
502.126	15992.76
502.329	16146.36
502.532	16363.44
502.735	16164.79
502.938	16465.84
503.141	16932.78
503.344	16965.54
503.547	17117.09
503.75	17301.41
503.953	17682.33
504.156	17696.67
504.359	17876.89
504.562	17655.71
504.765	18448.27
504.968	18624.4
505.17	18427.79
505.373	18780.04
505.576	19124.1
505.779	19265.41
505.982	19163.01
506.185	19906.43
506.387	19941.24
506.59	20060.02
506.793	20590.45
506.996	20295.54
507.198	20840.3
507.401	20842.35
507.604	21116.78
507.807	21413.73
508.009	21686.11
508.212	21716.83
508.415	22071.13
508.617	22591.31
508.82	22476.63
509.022	22544.21
509.225	23170.89
509.428	23396.17
509.63	23383.88
509.833	23695.17
510.035	24225.59
510.238	24209.21
510.44	24305.46
510.643	25003.82
510.845	25052.97
511.048	25075.5
511.25	25181.99
511.453	25540.39
511.655	26812.18
511.858	26042.14
512.06	26349.34
512.262	26763.03
512.465	26545.94
512.667	26955.54
512.87	27531.01
513.072	27459.34
513.274	28047.1
513.477	28382.97
513.679	28268.28
513.881	28929.78
514.084	29308.65
514.286	29173.49
514.488	29327.08
514.69	30181.09
514.893	30154.46
515.095	30162.65
515.297	30731.99
515.499	30830.29
515.701	31395.53
515.904	31764.17
516.106	32173.76
516.308	32280.25
516.51	32360.12
516.712	32528.06
516.914	33326.77
517.116	33396.4
517.318	33685.16
517.52	33867.43
517.722	34191.01
517.925	34465.44
518.127	34940.57
518.329	35438.22
518.531	34911.89
518.733	35618.44
518.935	36052.61
519.136	36071.04
519.338	36851.32
519.54	37191.28
519.742	37211.76
519.944	37736.04
520.146	37875.3
520.348	38303.33
520.55	38458.98
520.752	38575.71
520.954	39534.16
521.155	38948.44
521.357	39706.19
521.559	39673.42
521.761	40662.59
521.963	40658.49
522.164	40568.38
522.366	40805.95
522.568	41721.39
522.77	41522.74
522.971	42227.24
523.173	41719.34
523.375	42288.68
523.576	42337.83
523.778	42835.49
523.98	43148.82
524.181	43441.68
524.383	43634.19
524.584	44160.52
524.786	44027.4
524.988	43998.73
525.189	45075.96
525.391	45096.44
525.592	45454.84
525.794	45209.08
525.995	45604.34
526.197	45762.03
526.398	45786.61
526.6	45987.31
526.801	46302.7
527.003	46843.36
527.204	46525.92
527.406	47027.68
527.607	47140.32
527.808	47201.75
528.01	46581.22
528.211	47166.94
528.412	48176.59
528.614	48315.85
528.815	47955.41
529.016	48631.24
529.218	48109
529.419	48182.73
529.62	48403.91
529.822	48641.48
530.023	48358.86
530.224	49071.55
530.425	48905.66
530.626	48838.08
530.828	48752.07
531.029	49837.49
531.23	49042.88
531.431	49132.99
531.632	49182.14
531.833	49401.27
532.035	49257.92
532.236	49896.88
532.437	50034.1
532.638	49599.93
532.839	50263.47
533.04	49956.27
533.241	49395.13
533.442	50427.31
533.643	50126.25
533.844	50322.86
534.045	50363.82
534.246	49589.69
534.447	50611.62
534.648	50148.78
534.849	50261.42
535.05	50128.3
535.251	50075.05
535.451	50400.68
535.652	50453.93
535.853	50369.96
536.054	50249.13
536.255	50460.07
536.456	49829.3
536.657	50857.38
536.857	50566.57
537.058	50195.88
537.259	50912.67
537.46	50677.16
537.66	50224.56
537.861	50617.77
538.062	50460.07
538.263	50519.46
538.463	50404.78
538.664	50527.66
538.865	50335.15
539.065	51025.31
539.266	50126.25
539.466	51215.77
539.667	50271.66
539.868	51062.18
540.068	50492.84
540.269	50836.9
540.469	50664.87
540.67	50236.84
540.87	50283.95
541.071	50394.54
541.271	50908.58
541.472	50640.29
541.672	50081.2
541.873	50535.85
542.073	49712.56
542.274	50660.77
542.474	50472.36
542.675	50081.2
542.875	50722.21
543.075	50386.35
543.276	49993.14
543.476	51039.65
543.676	50374.06
543.877	50767.27
544.077	50697.64
544.277	50124.21
544.478	50263.47
544.678	50298.28
544.878	50566.57
545.078	50750.88
545.279	50079.15
545.479	50306.48
545.679	50453.93
545.879	50103.73
546.079	50546.09
546.28	50240.94
546.48	49943.98
546.68	50204.08
546.88	50116.01
547.08	50335.15
547.28	50144.69
547.48	50015.66
547.68	50103.73
547.88	49927.6
548.081	50154.93
548.281	49741.24
548.481	50132.4
548.681	50572.71
548.881	50251.18
549.081	50271.66
549.28	50073.01
549.48	50329
549.68	49888.69
549.88	50875.81
550.08	49720.76
550.28	50199.98
550.48	50136.49
550.68	50265.52
550.88	49804.72
551.08	49935.79
551.279	50378.15
551.479	49753.52
551.679	50279.85
551.879	49728.95
552.079	50058.67
552.278	49915.31
552.478	49825.2
552.678	49479.1
552.878	49366.46
553.077	50058.67
553.277	49438.14
553.477	50136.49
553.676	49294.78
553.876	49382.84
554.076	49126.85
554.275	49604.02
554.475	49210.81
554.674	49589.69
554.874	49550.77
555.074	49395.13
555.273	49649.08
555.473	49687.99
555.672	48678.34
555.872	49427.9
556.071	49421.75
556.271	49522.1
556.47	48969.15
556.67	48518.6
556.869	48862.66
557.068	49296.83
557.268	48397.77
557.467	48747.97
557.667	48715.2
557.866	49028.54
558.065	48293.32
558.265	48436.68
558.464	48559.56
558.663	49079.74
558.863	47957.45
559.062	49014.21
559.261	47689.17
559.461	48383.43
559.66	47650.26
559.859	48227.79
560.058	47752.66
560.258	47898.06
560.457	47764.95
560.656	48020.94
560.855	47676.88
561.054	47830.48
561.253	47908.3
561.453	47846.86
561.652	47160.8
561.851	47900.11
562.05	47332.82
562.249	46587.36
562.448	47654.36
562.647	47007.2
562.846	46974.43
563.045	46984.67
563.244	46415.33
563.443	47023.58
563.642	46630.37
563.841	45997.55
564.04	46200.3
564.239	46593.51
564.438	46116.33
564.637	46142.95
564.836	46433.77
565.035	45784.56
565.234	46013.93
565.432	45530.61
565.631	45553.14
565.83	45710.83
566.029	45108.73
566.228	45176.31
566.427	45430.26
566.625	45217.27
566.824	44137.99
567.023	45495.8
567.222	44250.63
567.42	44541.44
567.619	44475.91
567.818	44480
568.016	44426.76
568.215	44768.77
568.414	43884.05
568.612	44152.33
568.811	43795.98
569.01	44041.74
569.208	43402.77
569.407	43990.54
569.605	43292.18
569.804	43613.71
570.002	43128.34
570.201	43453.97
570.4	42720.8
570.598	42898.97
570.797	42567.2
570.995	42780.19
571.193	42006.06
571.392	42726.94
571.59	42284.58
571.789	42716.7
571.987	41893.42
572.186	41553.46
572.384	41756.21
572.582	41825.84
572.781	42036.78
572.979	41281.08
573.177	41367.09
573.376	41559.6
573.574	41174.58
573.772	41244.21
573.971	41127.48
574.169	41014.84
574.367	40611.39
574.565	41012.79
574.763	40650.3
574.962	40502.85
575.16	40091.21
575.358	40353.35
575.556	39237.2
575.754	40433.22
575.952	39593.55
576.151	40152.65
576.349	39190.1
576.547	39734.86
576.745	39413.33
576.943	39478.86
577.141	39351.89
577.339	38973.02
577.537	39044.69
577.735	38960.73
577.933	38852.19
578.131	39073.37
578.329	38286.95
578.527	38348.39
578.725	38528.61
578.923	38577.76
579.121	38098.53
579.319	38198.88
579.516	38657.63
579.714	38272.61
579.912	37762.67
580.11	37795.43
580.308	37963.37
580.506	37564.01
580.704	36875.9
580.901	37662.32
581.099	37672.56
581.297	36902.52
581.495	37076.6
581.692	36791.93
581.89	36634.24
582.088	37168.76
582.285	36744.83
582.483	37162.61
582.681	36779.64
582.878	36781.69
583.076	36099.72
583.274	36583.04
583.471	35960.45
583.669	35866.25
583.866	35544.72
584.064	36095.62
584.262	35524.24
584.459	36095.62
584.657	35397.26
584.854	35968.65
585.052	35274.38
585.249	35542.67
585.447	35382.93
585.644	34678.43
585.841	34915.99
586.039	35061.4
586.236	34850.45
586.434	34477.72
586.631	34307.74
586.828	34354.85
587.026	34274.98
587.223	34117.28
587.42	34059.94
587.618	34262.69
587.815	34225.82
588.012	33640.11
588.21	33638.06
588.407	34166.43
588.604	33621.67
588.801	33365.68
588.999	33650.35
589.196	33197.74
589.393	33281.71
589.59	32892.6
589.787	32868.02
589.984	32722.62
590.182	32384.7
590.379	32859.83
590.576	32253.63
590.773	32702.14
590.97	32130.75
591.167	32487.1
591.364	31653.58
591.561	32140.99
591.758	31766.21
591.955	31538.89
592.152	31848.13
592.349	31520.46
592.546	31770.31
592.743	31919.81
592.94	30891.73
593.137	31475.4
593.334	31317.71
593.531	30971.6
593.727	31106.77
593.924	31299.28
594.121	30381.79
594.318	30918.35
594.515	30043.87
594.712	30787.28
594.908	30453.47
595.105	30635.74
595.302	29908.71
595.499	30326.49
595.696	30148.32
595.892	30023.39
596.089	30011.1
596.286	30080.74
596.482	29644.52
596.679	29728.49
596.876	29808.36
597.072	29611.75
597.269	29894.37
597.466	29378.28
597.662	29234.92
597.859	29327.08
598.055	29308.65
598.252	29028.08
598.448	28892.91
598.645	28679.93
598.841	28595.96
599.038	28606.2
599.234	28659.45
599.431	28260.09
599.627	28253.95
599.824	28411.64
600.02	27940.61
600.217	28448.5
600.413	28161.79
600.609	28040.96
600.806	27758.34
601.002	28040.96
601.198	27744
601.395	27244.3
601.591	27344.65
601.787	27635.46
601.984	27442.95
602.18	27776.77
602.376	27019.02
602.572	27055.89
602.769	26978.06
602.965	26869.52
603.161	26814.23
603.357	26803.99
603.553	26476.31
603.75	26705.68
603.946	26281.75
604.142	26674.96
604.338	25917.22
604.534	26476.31
604.73	26267.42
604.926	25970.46
605.122	26257.18
605.318	26169.12
605.514	25780
605.71	25798.43
605.906	25663.27
606.102	25720.61
606.298	25648.93
606.494	25384.74
606.69	25458.47
606.886	25444.13
607.082	25431.85
607.278	25347.88
607.474	25052.97
607.67	25075.5
607.866	24796.98
608.062	25317.16
608.257	25073.45
608.453	24960.81
608.649	25145.13
608.845	24573.75
609.041	24762.16
609.236	25134.89
609.432	24784.69
609.628	24379.19
609.824	24702.77
610.019	24278.84
610.215	24426.29
610.411	24520.5
610.606	24098.62
610.802	23908.16
610.998	24217.4
611.193	24203.07
611.389	24190.78
611.584	23859.01
611.78	23744.32
611.976	23850.81
612.171	23936.83
612.367	23531.33
612.562	23570.24
612.758	23318.34
612.953	23410.5
613.149	23631.68
613.344	23289.67
613.539	23859.01
613.735	23287.62
613.93	23349.06
614.126	23244.62
614.321	23220.04
614.517	23199.56
614.712	23123.79
614.907	22918.99
615.103	23355.21
615.298	22857.55
615.493	23048.01
615.688	22398.8
615.884	23267.14
616.079	22464.34
616.274	22736.72
616.47	22873.93
616.665	22599.51
616.86	22595.41
617.055	22501.2
617.25	22292.31
617.445	22564.69
617.641	21989.21
617.836	22173.53
618.031	22122.33
618.226	21964.64
618.421	22036.31
618.616	22382.42
618.811	21612.38
619.006	22312.79
619.201	21651.3
619.396	21655.39
619.591	21628.77
619.786	21837.66
619.981	21219.17
620.176	21473.12
620.371	21264.23
620.566	21309.29
620.761	21200.74
620.956	21100.39
621.151	20549.49
621.346	20981.61
621.541	20615.02
621.735	20735.85
621.93	20479.86
622.125	20537.2
622.32	20363.12
622.515	20402.04
622.709	20000.63
622.904	20449.14
623.099	19988.35
623.294	19830.65
623.488	19746.69
623.683	19656.57
623.878	19765.12
624.072	19369.86
624.267	19328.9
624.462	19173.25
624.656	18925.45
624.851	19373.96
625.046	18995.08
625.24	19238.79
625.435	18589.58
625.629	18706.32
625.824	18825.1
626.018	18581.39
626.213	18114.45
626.407	18347.92
626.602	18206.61
626.796	18005.91
626.991	17997.72
627.185	18036.63
627.38	17848.22
627.574	17602.46
627.768	17491.87
627.963	17661.85
628.157	17321.89
628.352	17442.72
628.546	17276.84
628.74	17366.95
628.935	16992.17
629.129	17248.16
629.323	16693.16
629.517	16799.66
629.712	16424.88
629.906	16535.47
630.1	16359.35
630.294	16383.92
630.489	16336.82
630.683	16529.33
630.877	15931.32
631.071	15886.26
631.265	16048.05
631.459	16125.88
631.653	15843.26
631.848	15794.11
632.042	15587.26
632.236	15681.47
632.43	15288.26
632.624	15548.35
632.818	15263.68
633.012	15185.86
633.206	15046.6
633.4	15022.02
633.594	14995.4
633.788	14847.94
633.982	15032.26
634.176	14913.48
634.369	14770.12
634.563	14614.48
634.757	14440.4
634.951	14819.27
635.145	14571.47
635.339	14473.17
635.533	14368.72
635.726	14188.5
635.92	14024.66
636.114	14006.23
636.308	13830.1
636.501	13995.99
636.695	13780.95
636.889	13862.87
637.083	13641.69
637.276	13610.97
637.47	13633.5
637.664	13615.07
637.857	13438.94
638.051	13412.32
638.244	13096.93
638.438	13533.15
638.632	12947.43
638.825	12996.58
639.019	12849.13
639.212	12894.18
639.406	12988.39
639.599	12689.39
639.793	12564.46
639.986	12480.49
640.18	12486.64
640.373	12423.15
640.567	12259.31
640.76	12230.64
640.954	12320.75
641.147	11919.35
641.34	12070.9
641.534	11831.29
641.727	11833.33
641.92	11970.55
642.114	11841.53
642.307	11790.33
642.5	11640.83
642.694	11515.9
642.887	11724.79
643.08	11446.27
643.273	11231.23
643.467	11294.72
643.66	11255.81
643.853	11409.4
644.046	11044.87
644.239	11071.49
644.432	11059.2
644.626	10948.61
644.819	11012.1
645.012	10930.18
645.205	11010.05
645.398	10743.81
645.591	10676.23
645.784	10766.34
645.977	10579.98
646.17	10579.98
646.363	10498.06
646.556	10403.85
646.749	10313.74
646.942	10305.55
647.135	10125.33
647.328	10160.14
647.521	10233.87
647.714	9975.83
647.907	10004.5
648.099	9883.67
648.292	9916.44
648.485	9818.13
648.678	9756.69
648.871	9666.58
649.064	9474.07
649.256	9682.97
649.449	9455.64
649.642	9379.87
649.835	9545.75
650.027	9576.47
650.22	9420.83
650.413	9357.34
650.605	9224.22
650.798	9289.76
650.991	9175.07
651.183	9211.93
651.376	9041.95
651.568	9095.2
651.761	9105.44
651.954	8986.66
652.146	8818.72
652.339	8990.75
652.531	8773.67
652.724	8638.5
652.916	8736.81
653.109	8626.22
653.301	8677.41
653.494	8636.45
653.686	8515.62
653.879	8613.93
654.071	8437.8
654.263	8337.45
654.456	8306.73
654.648	8529.96
654.84	8210.48
655.033	8167.47
655.225	8255.53
655.417	8144.94
655.61	8077.36
655.802	8048.69
655.994	8040.5
656.186	7897.14
656.379	7995.44
656.571	7968.82
656.763	7977.01
656.955	7827.51
657.148	7841.84
657.34	7804.98
657.532	7710.77
657.724	7614.52
657.916	7745.59
658.108	7565.37
658.3	7473.21
658.492	7702.58
658.684	7299.13
658.876	7286.84
659.068	7481.4
659.26	7131.2
659.452	7184.45
659.644	7284.8
659.836	7284.8
660.028	7290.94
660.22	7047.23
660.412	7225.4
660.604	6987.84
660.796	7123.01
660.988	7209.02
661.18	7041.09
661.372	6940.74
661.563	6959.17
661.755	6879.3
661.947	6834.24
662.139	6856.77
662.331	6768.71
662.522	6754.37
662.714	6754.37
662.906	6627.4
663.097	6658.12
663.289	6549.57
663.481	6525
663.673	6664.26
663.864	6518.86
664.056	6447.18
664.247	6395.98
664.439	6490.18
664.631	6465.61
664.822	6287.43
665.014	6297.67
665.205	6307.91
665.397	6418.5
665.588	6365.26
665.78	6355.02
665.971	6238.28
666.163	6092.88
666.354	6197.32
666.546	6080.59
666.737	5967.95
666.929	5933.14
667.12	6017.1
667.311	6070.35
667.503	6015.05
667.694	5914.7
667.885	5816.4
668.077	5908.56
668.268	5800.02
668.459	5881.94
668.651	5943.38
668.842	6029.39
669.033	5718.1
669.224	5627.99
669.416	5771.35
669.607	5808.21
669.798	5474.39
669.989	5738.58
670.18	5558.36
670.371	5675.09
670.563	5705.81
670.754	5625.94
670.945	5507.16
671.136	5777.49
671.327	5554.26
671.518	5371.99
671.709	5509.21
671.9	5371.99
672.091	5576.79
672.282	5458.01
672.473	5439.58
672.664	5523.54
672.855	5376.09
673.046	5345.37
673.237	5496.92
673.428	5550.17
673.619	5351.51
673.809	5230.68
674	5341.27
674.191	5310.55
674.382	5371.99
674.573	5281.88
674.764	5367.9
674.954	5167.2
675.145	5181.53
675.336	5167.2
675.527	5161.05
675.717	5224.54
675.908	5029.98
676.099	5064.8
676.289	5152.86
676.48	5091.42
676.671	5191.77
676.861	5226.59
677.052	5072.99
677.243	5042.27
677.433	4939.87
677.624	5085.28
677.814	5140.57
678.005	5107.8
678.195	5156.96
678.386	5140.57
678.576	5046.37
678.767	4943.97
678.957	5013.6
679.148	4976.73
679.338	4991.07
679.529	4776.03
679.719	4939.87
679.909	4923.49
680.1	4866.14
680.29	5075.04
680.481	4829.28
680.671	4956.26
680.861	4819.04
681.052	4968.54
681.242	4876.38
681.432	5056.61
681.622	4737.12
681.813	4980.83
682.003	4956.26
682.193	4874.34
682.383	4857.95
682.573	4941.92
682.764	4892.77
682.954	4894.82
683.144	4886.62
683.334	4882.53
683.524	4923.49
683.714	4941.92
683.904	4831.33
684.094	4839.52
684.284	4849.76
684.474	4853.86
684.664	4661.35
684.854	4755.55
685.044	4751.46
685.234	4624.48
685.424	4816.99
685.614	4616.29
685.804	4761.7
685.994	4751.46
686.184	4679.78
686.374	4565.09
686.564	4730.98
686.753	4563.05
686.943	4524.13
687.133	4690.02
687.323	4589.67
687.513	4517.99
687.702	4558.95
687.892	4505.7
688.082	4515.94
688.272	4505.7
688.461	4683.88
688.651	4503.65
688.841	4616.29
689.03	4497.51
689.22	4474.98
689.41	4481.13
689.599	4341.86
689.789	4472.93
689.979	4417.64
690.168	4286.57
690.358	4198.51
690.547	4384.87
690.737	4358.25
690.926	4241.51
691.116	4237.42
691.305	4382.82
691.495	4243.56
691.684	4335.72
691.874	4110.44
692.063	4245.61
692.252	4245.61
692.442	4315.24
692.631	4341.86
692.82	4106.35
693.01	4059.24
693.199	4210.79
693.388	4036.72
693.578	3995.76
693.767	4253.8
693.956	4003.95
694.146	4104.3
694.335	3969.13
694.524	4122.73
694.713	4085.87
694.902	3983.47
695.092	3971.18
695.281	3891.31
695.47	4081.77
695.659	3907.7
695.848	4020.33
696.037	3809.39
696.226	3903.6
696.415	4018.29
696.604	3883.12
696.793	4016.24
696.982	3858.54
697.171	3860.59
697.36	3993.71
697.549	3915.89
697.738	3954.8
697.927	3893.36
698.116	3850.35
698.305	3811.44
698.494	3766.39
698.683	3895.41
698.872	4042.86
699.061	3844.21
699.25	3727.47
699.438	3862.64
699.627	3846.26
699.816	3866.74
700.005	4001.9
700.193	3813.49
700.382	4012.14
700.571	3706.99
700.76	3772.53
700.948	3817.58
701.137	3860.59
701.326	3956.85
701.514	3803.25
701.703	3852.4
701.892	3745.91
702.08	3721.33
702.269	3737.71
702.457	3782.77
702.646	3831.92
702.834	3747.95
703.023	3895.41
703.212	3805.3
703.4	3852.4
703.589	3868.78
703.777	3868.78
703.965	3795.06
704.154	3727.47
704.342	3741.81
704.531	3797.1
704.719	3700.85
704.907	3743.86
705.096	3745.91
705.284	3854.45
705.472	3805.3
705.661	3788.91
705.849	3729.52
706.037	3694.71
706.226	3649.65
706.414	3790.96
706.602	3901.55
706.79	3698.8
706.979	3670.13
707.167	3741.81
707.355	3604.6
707.543	3688.56
707.731	3776.63
707.919	3829.87
708.107	3811.44
708.296	3797.1
708.484	3678.32
708.672	3833.97
708.86	3782.77
709.048	3850.35
709.236	3711.09
709.424	3727.47
709.612	3547.25
709.8	3776.63
709.988	3752.05
710.176	3772.53
710.364	3715.19
710.551	3723.38
710.739	3721.33
710.927	3690.61
711.115	3770.48
711.303	3793.01
711.491	3829.87
711.679	3684.47
711.866	3584.12
712.054	3776.63
712.242	3696.75
712.43	3874.93
712.617	3612.79
712.805	3704.95
712.993	3692.66
713.181	3739.76
713.368	3649.65
713.556	3721.33
713.744	3637.36
713.931	3811.44
714.119	3612.79
714.306	3731.57
714.494	3788.91
714.682	3784.82
714.869	3649.65
715.057	3729.52
715.244	3586.16
715.432	3713.14
715.619	3571.83
715.807	3778.67
715.994	3608.69
716.182	3684.47
716.369	3862.64
716.556	3674.23
716.744	3682.42
716.931	3711.09
717.119	3756.15
717.306	3729.52
717.493	3690.61
717.681	3641.46
717.868	3670.13
718.055	3758.19
718.242	3723.38
718.43	3768.43
718.617	3651.7
718.804	3641.46
718.991	3663.99
719.179	3709.04
719.366	3782.77
719.553	3623.03
719.74	3729.52
719.927	3719.28
720.114	3537.01
720.301	3723.38
720.488	3686.51
720.676	3631.22
720.863	3702.9
721.05	3721.33
721.237	3592.31
721.424	3764.34
721.611	3563.64
721.798	3627.12
721.985	3473.53
722.172	3629.17
722.358	3508.34
722.545	3577.97
722.732	3629.17
722.919	3610.74
723.106	3709.04
723.293	3524.72
723.48	3573.88
723.667	3534.96
723.853	3623.03
724.04	3606.64
724.227	3663.99
724.414	3506.29
724.6	3516.53
724.787	3637.36
724.974	3502.2
725.161	3616.88
725.347	3494.01
725.534	3524.72
725.72	3541.11
725.907	3541.11
726.094	3506.29
726.28	3522.68
726.467	3426.42
726.653	3483.77
726.84	3547.25
727.027	3541.11
727.213	3565.68
727.4	3391.61
727.586	3623.03
727.773	3539.06
727.959	3453.05
728.145	3506.29
728.332	3524.72
728.518	3432.57
728.705	3430.52
728.891	3577.97
729.077	3426.42
729.264	3428.47
729.45	3303.54
729.636	3518.58
729.823	3494.01
730.009	3504.25
730.195	3420.28
730.382	3512.44
730.568	3467.38
730.754	3465.33
730.94	3485.81
731.126	3436.66
731.313	3375.22
731.499	3461.24
731.685	3444.85
731.871	3426.42
732.057	3407.99
732.243	3528.82
732.429	3371.13
732.615	3387.51
732.801	3340.41
732.987	3334.26
733.173	3315.83
733.359	3416.18
733.545	3221.63
733.731	3272.82
733.917	3330.17
734.103	3420.28
734.289	3375.22
734.475	3426.42
734.661	3367.03
734.847	3242.11
735.033	3321.98
735.219	3328.12
735.404	3371.13
735.59	3344.5
735.776	3250.3
735.962	3252.35
736.148	3283.06
736.333	3293.3
736.519	3219.58
736.705	3297.4
736.89	3264.63
737.076	3172.47
737.262	3235.96
737.447	3229.82
737.633	3123.32
737.819	3195
738.004	3092.6
738.19	3133.56
738.375	3293.3
738.561	3195
738.747	3078.27
738.932	3117.18
739.118	3201.15
739.303	3037.31
739.489	3201.15
739.674	3123.32
739.859	3117.18
740.045	3125.37
740.23	3076.22
740.416	3119.23
740.601	3074.17
740.786	2982.01
740.972	3100.8
741.157	3027.07
741.342	2883.71
741.528	2900.09
741.713	3002.49
741.898	3039.36
742.084	3063.93
742.269	2945.15
742.454	3018.88
742.639	2965.63
742.824	2852.99
743.01	2914.43
743.195	2867.33
743.38	2898.05
743.565	2885.76
743.75	2914.43
743.935	2818.18
744.12	2879.61
744.305	2967.68
744.49	2766.98
744.675	2773.12
744.86	2805.89
745.045	2640
745.23	2652.29
745.415	2672.77
745.6	2631.81
745.785	2717.83
745.97	2754.69
746.155	2603.14
746.34	2691.2
746.525	2574.47
746.71	2621.57
746.895	2625.67
747.079	2564.23
747.264	2599.04
747.449	2611.33
747.634	2506.88
747.819	2572.42
748.003	2508.93
748.188	2533.51
748.373	2474.12
748.557	2408.58
748.742	2437.25
748.927	2474.12
749.111	2453.64
749.296	2390.15
749.481	2289.8
749.665	2371.72
749.85	2359.43
750.034	2322.57
750.219	2277.51
750.404	2351.24
750.588	2199.69
750.773	2214.02
750.957	2275.46
751.141	2246.79
751.326	2254.98
751.51	2117.77
751.695	2171.02
751.879	2177.16
752.064	2207.88
752.248	2101.39
752.432	2146.44
752.617	2052.24
752.801	2005.13
752.985	2037.9
753.17	2003.08
753.354	2025.61
753.538	2060.43
753.722	2035.85
753.907	2011.28
754.091	1982.6
754.275	1978.51
754.459	1939.6
754.643	2011.28
754.828	1919.12
755.012	1958.03
755.196	1900.69
755.38	1884.3
755.564	1855.63
755.748	1917.07
755.932	1855.63
756.116	1845.39
756.3	1685.65
756.484	1771.66
756.668	1820.81
756.852	1759.38
757.036	1820.81
757.22	1726.61
757.404	1730.7
757.588	1724.56
757.772	1728.66
757.956	1687.7
758.14	1714.32
758.323	1642.64
758.507	1681.55
758.691	1532.05
758.875	1650.83
759.059	1706.13
759.242	1622.16
759.426	1593.49
759.61	1624.21
759.794	1521.81
759.977	1570.96
760.161	1589.39
760.345	1603.73
760.528	1478.8
760.712	1462.42
760.895	1570.96
761.079	1505.43
761.263	1466.52
761.446	1517.72
761.63	1501.33
761.813	1450.13
761.997	1427.6
762.18	1511.57
762.364	1511.57
762.547	1388.69
762.731	1421.46
762.914	1554.58
763.098	1429.65
763.281	1437.84
763.464	1413.27
763.648	1450.13
763.831	1310.87
764.015	1347.73
764.198	1374.36
764.381	1468.56
764.564	1353.88
764.748	1321.11
764.931	1298.58
765.114	1329.3
765.297	1415.32
765.481	1290.39
765.664	1437.84
765.847	1278.1
766.03	1280.15
766.213	1302.68
766.397	1339.54
766.58	1351.83
766.763	1261.72
766.946	1341.59
767.129	1280.15
767.312	1349.78
767.495	1286.3
767.678	1245.34
767.861	1325.21
768.044	1226.9
768.227	1204.38
768.41	1204.38
768.593	1206.42
768.776	1251.48
768.959	1187.99
769.142	1198.23
769.324	1224.86
769.507	1110.17
769.69	1167.51
769.873	1183.9
770.056	1173.66
770.239	1151.13
770.421	1147.03
770.604	1187.99
770.787	1163.42
770.97	1173.66
771.152	1075.35
771.335	1177.75
771.518	1138.84
771.7	1142.94
771.883	1165.46
772.066	1054.87
772.248	1134.75
772.431	1155.23
772.613	1101.98
772.796	1085.59
772.978	1087.64
773.161	1118.36
773.343	1058.97
773.526	1052.83
773.708	1024.16
773.891	1018.01
774.073	1054.87
774.256	1011.87
774.438	993.44
774.621	1071.26
774.803	1040.54
774.985	948.38
775.168	1001.63
775.35	1007.77
775.532	938.14
775.715	911.52
775.897	886.94
776.079	901.28
776.261	856.22
776.444	884.89
776.626	944.28
776.808	927.9
776.99	925.85
777.173	868.51
777.355	915.61
777.537	872.61
777.719	893.09
777.901	843.93
778.083	839.84
778.265	929.95
778.447	815.26
778.629	813.21
778.811	897.18
778.993	790.69
779.175	882.85
779.357	821.41
779.539	766.11
779.721	729.25
779.903	868.51
780.085	823.45
780.267	800.93
780.449	729.25
780.631	755.87
780.812	829.6
780.994	698.53
781.176	796.83
781.358	733.34
781.54	811.17
781.721	762.02
781.903	708.77
782.085	657.57
782.267	774.3
782.448	655.52
782.63	702.62
782.812	702.62
782.993	749.73
783.175	696.48
783.357	671.9
783.538	741.54
783.72	696.48
783.901	692.38
784.083	649.38
784.264	667.81
784.446	608.42
784.627	598.18
784.809	682.14
784.99	682.14
785.172	678.05
785.353	571.55
785.535	608.42
785.716	614.56
785.897	561.31
786.079	555.17
786.26	684.19
786.441	657.57
786.623	563.36
786.804	616.61
786.985	600.23
787.167	575.65
787.348	575.65
787.529	534.69
787.71	594.08
787.891	559.27
788.073	526.5
788.254	475.3
788.435	549.03
788.616	557.22
788.797	510.11
788.978	469.16
789.159	438.44
789.34	520.35
789.522	512.16
789.703	485.54
789.884	520.35
790.065	475.3
790.246	444.58
790.427	501.92
790.607	557.22
790.788	481.44
790.969	503.97
791.15	463.01
791.331	481.44
791.512	364.71
791.693	477.35
791.874	446.63
792.054	438.44
792.235	469.16
792.416	368.81
792.597	383.14
792.778	344.23
792.958	438.44
793.139	426.15
793.32	469.16
793.5	430.24
793.681	452.77
793.862	444.58
794.042	395.43
794.223	323.75
794.404	424.1
794.584	321.7
794.765	422.05
794.945	387.24
795.126	417.96
795.306	432.29
795.487	442.53
795.667	387.24
795.848	460.96
796.028	417.96
796.209	446.63
796.389	389.28
796.57	409.76
796.75	327.85
796.93	391.33
797.111	338.09
797.291	399.52
797.471	368.81
797.652	329.89
797.832	329.89
798.012	354.47
798.192	383.14
798.373	336.04
798.553	354.47
798.733	395.43
798.913	350.37
799.093	399.52
799.274	239.78
799.454	420
799.634	344.23
799.814	397.48
799.994	379.04
800.174	333.99
800.354	344.23
800.534	342.18
800.714	293.03
800.894	260.26
801.074	340.13
801.254	319.65
801.434	237.74
801.614	303.27
801.794	256.17
801.974	774.3
802.154	266.41
802.334	344.23
802.514	254.12
802.693	333.99
802.873	383.14
803.053	338.09
803.233	305.32
803.413	311.46
803.592	346.28
803.772	274.6
803.952	350.37
804.131	311.46
804.311	317.61
804.491	293.03
804.67	233.64
804.85	311.46
805.03	303.27
805.209	336.04
805.389	247.97
805.568	233.64
805.748	217.26
805.928	252.07
806.107	333.99
806.287	258.21
806.466	307.37
806.646	256.17
806.825	252.07
807.004	168.1
807.184	303.27
807.363	321.7
807.543	280.74
807.722	297.13
807.901	368.81
808.081	319.65
808.26	184.49
808.439	241.83
808.619	225.45
808.798	297.13
808.977	217.26
809.156	323.75
809.336	225.45
809.515	274.6
809.694	215.21
809.873	209.06
810.052	198.82
810.231	250.02
810.411	209.06
810.59	258.21
810.769	184.49
810.948	229.54
811.127	188.58
811.306	168.1
811.485	229.54
811.664	264.36
811.843	270.5
812.022	243.88
812.201	166.06
812.38	190.63
812.559	213.16
812.737	305.32
812.916	172.2
813.095	223.4
813.274	225.45
813.453	204.97
813.632	204.97
813.811	235.69
813.989	243.88
814.168	215.21
814.347	186.54
814.526	241.83
814.704	155.82
814.883	245.93
815.062	157.86
815.24	229.54
815.419	155.82
815.598	209.06
815.776	159.91
815.955	190.63
816.133	129.19
816.312	209.06
816.49	157.86
816.669	159.91
816.847	182.44
817.026	204.97
817.204	209.06
817.383	151.72
817.561	194.73
817.74	274.6
817.918	182.44
818.097	209.06
818.275	98.47
818.453	227.5
818.632	176.3
818.81	110.76
818.988	178.34
819.167	192.68
819.345	135.34
819.523	221.35
819.701	88.23
819.879	233.64
820.058	147.62
820.236	139.43
820.414	151.72
820.592	118.95
820.77	116.9
820.948	178.34
821.127	147.62
821.305	213.16
821.483	198.82
821.661	135.34
821.839	178.34
822.017	147.62
822.195	110.76
822.373	168.1
822.551	178.34
822.729	237.74
822.907	131.24
823.085	159.91
823.262	159.91
823.44	172.2
823.618	129.19
823.796	141.48
823.974	143.53
824.152	151.72
824.329	71.85
824.507	157.86
824.685	168.1
824.863	114.86
825.04	127.14
825.218	145.58
825.396	170.15
825.574	168.1
825.751	141.48
825.929	143.53
826.107	90.28
826.284	217.26
826.462	71.85
826.639	233.64
826.817	116.9
826.994	172.2
827.172	77.99
827.349	149.67
827.527	86.19
827.704	139.43
827.882	225.45
828.059	127.14
828.237	131.24
828.414	172.2
828.591	127.14
828.769	98.47
828.946	102.57
829.124	139.43
829.301	121
829.478	166.06
829.655	186.54
829.833	135.34
830.01	82.09
830.187	192.68
830.364	129.19
830.542	108.71
830.719	114.86
830.896	180.39
831.073	143.53
831.25	149.67
831.427	151.72
831.604	188.58
831.782	166.06
831.959	80.04
832.136	188.58
832.313	102.57
832.49	121
832.667	129.19
832.844	92.33
833.021	149.67
833.198	129.19
833.374	86.19
833.551	98.47
833.728	92.33
833.905	137.38
834.082	114.86
834.259	155.82
834.436	106.67
834.612	61.61
834.789	104.62
834.966	143.53
835.143	157.86
835.319	43.18
835.496	176.3
835.673	147.62
835.85	157.86
836.026	92.33
836.203	137.38
836.38	32.94
836.556	73.9
836.733	114.86
836.909	110.76
837.086	98.47
837.262	8.36
837.439	114.86
837.616	92.33
837.792	92.33
837.968	80.04
838.145	127.14
838.321	84.14
838.498	102.57
838.674	108.71
838.851	77.99
839.027	84.14
839.203	16.55
839.38	135.34
839.556	86.19
839.732	141.48
839.909	84.14
840.085	133.29
840.261	100.52
840.437	118.95
840.614	80.04
840.79	151.72
840.966	86.19
841.142	51.37
841.318	14.51
841.494	41.13
841.671	22.7
841.847	67.75
842.023	71.85
842.199	116.9
842.375	82.09
842.551	37.03
842.727	59.56
842.903	104.62
843.079	32.94
843.255	129.19
843.431	114.86
843.607	110.76
843.783	-16.21
843.959	112.81
844.134	28.84
844.31	73.9
844.486	55.47
844.662	61.61
844.838	43.18
845.013	131.24
845.189	123.05
845.365	28.84
845.541	135.34
845.716	73.9
845.892	139.43
846.068	82.09
846.244	41.13
846.419	92.33
846.595	94.38
846.77	47.27
846.946	178.34
847.122	24.75
847.297	118.95
847.473	28.84
847.648	145.58
847.824	77.99
847.999	-20.31
848.175	143.53
848.35	116.9
848.526	84.14
848.701	155.82
848.876	65.71
849.052	94.38
849.227	112.81
849.403	8.36
849.578	37.03
849.753	92.33
849.929	86.19
850.104	143.53
850.279	55.47
850.454	127.14
850.63	61.61
850.805	20.65
850.98	61.61
851.155	45.23
851.33	8.36
851.505	24.75
851.681	110.76
851.856	77.99
852.031	51.37
852.206	53.42
852.381	61.61
852.556	47.27
852.731	65.71
852.906	118.95
853.081	69.8
853.256	80.04
853.431	100.52
853.606	86.19
853.781	8.36
853.956	-5.97
854.131	59.56
854.305	65.71
854.48	75.95
854.655	43.18
854.83	94.38
855.005	61.61
855.18	82.09
855.354	14.51
855.529	32.94
855.704	77.99
855.879	71.85
856.053	14.51
856.228	77.99
856.403	51.37
856.577	125.1
856.752	34.99
856.926	20.65
857.101	112.81
857.276	37.03
857.45	10.41
857.625	90.28
857.799	34.99
857.974	131.24
858.148	-20.31
858.323	114.86
858.497	0.17
858.672	71.85
858.846	8.36
859.02	77.99
859.195	16.55
859.369	45.23
859.543	53.42
859.718	34.99
859.892	-8.02
860.066	100.52
860.241	53.42
860.415	47.27
860.589	-14.17
860.763	4.27
860.938	-28.5
861.112	82.09
861.286	49.32
861.46	73.9
861.634	6.31
861.808	110.76
861.982	16.55
862.157	39.08
862.331	28.84
862.505	18.6
862.679	49.32
862.853	59.56
863.027	-14.17
863.201	73.9
863.375	-20.31
863.549	16.55
863.722	32.94
863.896	82.09
864.07	116.9
864.244	53.42
864.418	100.52
864.592	34.99
864.766	65.71
864.939	90.28
865.113	37.03
865.287	16.55
865.461	77.99
865.634	53.42
865.808	49.32
865.982	-20.31
866.156	-8.02
866.329	32.94
866.503	-34.64
866.676	65.71
866.85	12.46
867.024	24.75
867.197	0.17
867.371	57.51
867.544	37.03
867.718	-36.69
867.891	32.94
868.065	26.79
868.238	8.36
868.412	45.23
868.585	84.14
868.759	-16.21
868.932	10.41
869.105	26.79
869.279	100.52
869.452	-8.02
869.625	45.23
869.799	45.23
869.972	2.22
870.145	-14.17
870.319	71.85
870.492	51.37
870.665	82.09
870.838	45.23
871.011	-71.51
871.185	51.37
871.358	45.23
871.531	49.32
871.704	24.75
871.877	-40.79
872.05	-28.5
872.223	43.18
872.396	4.27
872.569	28.84
872.742	-18.26
872.915	73.9
873.088	28.84
873.261	28.84
873.434	37.03
873.607	37.03
873.78	45.23
873.953	-8.02
874.126	-16.21
874.299	-8.02
874.471	-3.93
874.644	39.08
874.817	41.13
874.99	47.27
875.163	-5.97
875.335	6.31
875.508	20.65
875.681	100.52
875.853	37.03
876.026	2.22
876.199	-3.93
876.371	30.89
876.544	24.75
876.717	30.89
876.889	8.36
877.062	53.42
877.234	-14.17
877.407	6.31
877.579	-1.88
877.752	55.47
877.924	-3.93
878.097	94.38
878.269	16.55
878.442	61.61
878.614	55.47
878.786	-46.93
878.959	30.89
879.131	45.23
879.303	-32.6
879.476	39.08
879.648	-12.12
879.82	39.08
879.993	0.17
880.165	-3.93
880.337	-8.02
880.509	39.08
880.681	-22.36
880.854	24.75
881.026	69.8
881.198	94.38
881.37	-8.02
881.542	80.04
881.714	69.8
881.886	14.51
882.058	55.47
882.23	-34.64
882.402	-20.31
882.574	45.23
882.746	86.19
882.918	41.13
883.09	127.14
883.262	24.75
883.434	24.75
883.606	28.84
883.778	32.94
883.95	137.38
884.122	71.85
884.293	8.36
884.465	2.22
884.637	-57.17
884.809	-69.46
884.98	-10.07
885.152	71.85
885.324	30.89
885.496	28.84
885.667	12.46
885.839	16.55
886.011	14.51
886.182	-46.93
886.354	12.46
886.525	57.51
886.697	53.42
886.869	2.22
887.04	67.75
887.212	-32.6
887.383	55.47
887.555	55.47
887.726	26.79
887.897	22.7
888.069	-65.36
888.24	-3.93
888.412	-28.5
888.583	-36.69
888.754	92.33
888.926	18.6
889.097	61.61
889.268	32.94
889.44	75.95
889.611	-141.14
889.782	-51.03
889.953	-94.04
890.125	39.08
890.296	47.27
890.467	28.84
890.638	26.79
890.809	-38.74
890.98	-28.5
891.151	-36.69
891.323	43.18
891.494	63.66
891.665	-16.21
891.836	18.6
892.007	18.6
892.178	37.03
892.349	10.41
892.52	16.55
892.691	20.65
892.862	-5.97
893.032	37.03
893.203	-28.5
893.374	-5.97
893.545	84.14
893.716	32.94
893.887	37.03
894.057	-18.26
894.228	45.23
894.399	34.99
894.57	53.42
894.74	-30.55
894.911	-36.69
895.082	18.6
895.253	41.13
895.423	28.84
895.594	14.51
895.764	106.67
895.935	53.42
896.106	34.99
896.276	-20.31
896.447	-12.12
896.617	53.42
896.788	-38.74
896.958	84.14
897.129	-5.97
897.299	-3.93
897.47	53.42
897.64	24.75
897.81	0.17
897.981	37.03
898.151	-32.6
898.322	2.22
898.492	20.65
898.662	0.17
898.832	-16.21
899.003	-51.03
899.173	100.52
899.343	-26.45
899.513	-51.03
