Data from USB4F104151__254__10-39-44-789.txt Node

Date: Wed Mar 12 10:39:44 EDT 2025
User: louis
Spectrometer: USB4F10415
Trigger mode: 4
Integration Time (sec): 3.000000E-2
Scans to average: 1
Electric dark correction enabled: true
Nonlinearity correction enabled: false
Boxcar width: 0
XAxis mode: Wavelengths
Number of Pixels in Spectrum: 3648
>>>>>Begin Spectral Data<<<<<
178.204	-175.44
178.424	-175.44
178.644	-175.44
178.864	-103.76
179.084	-175.44
179.304	-5.46
179.524	19.11
179.744	-81.24
179.964	-36.18
180.184	-13.65
180.404	0.68
180.624	51.88
180.844	17.07
181.064	17.07
181.283	27.31
181.503	-44.37
181.723	47.79
181.943	-48.47
182.163	74.41
182.383	86.7
182.602	0.68
182.822	29.35
183.042	37.55
183.262	39.59
183.482	35.5
183.701	80.55
183.921	4.78
184.141	10.92
184.361	29.35
184.58	58.03
184.8	78.51
185.02	62.12
185.239	0.68
185.459	-32.08
185.679	60.07
185.898	4.78
186.118	111.27
186.338	37.55
186.557	29.35
186.777	21.16
186.997	-19.8
187.216	-23.89
187.436	129.7
187.655	35.5
187.875	88.75
188.095	6.83
188.314	29.35
188.534	33.45
188.753	55.98
188.973	4.78
189.192	47.79
189.412	74.41
189.631	21.16
189.851	68.27
190.07	86.7
190.29	-23.89
190.509	39.59
190.729	17.07
190.948	37.55
191.168	127.66
191.387	31.4
191.607	-1.37
191.826	29.35
192.045	60.07
192.265	4.78
192.484	-11.61
192.704	-1.37
192.923	-17.75
193.142	62.12
193.362	70.31
193.581	51.88
193.8	62.12
194.02	-15.7
194.239	10.92
194.458	8.87
194.678	-11.61
194.897	58.03
195.116	23.21
195.335	72.36
195.555	21.16
195.774	41.64
195.993	64.17
196.212	21.16
196.432	23.21
196.651	8.87
196.87	10.92
197.089	74.41
197.308	113.32
197.528	33.45
197.747	6.83
197.966	-11.61
198.185	96.94
198.404	-36.18
198.623	15.02
198.842	19.11
199.062	152.23
199.281	131.75
199.5	2.73
199.719	78.51
199.938	12.97
200.157	21.16
200.376	6.83
200.595	68.27
200.814	51.88
201.033	-44.37
201.252	68.27
201.471	10.92
201.69	29.35
201.909	-21.84
202.128	-9.56
202.347	55.98
202.566	90.79
202.785	39.59
203.004	78.51
203.223	115.37
203.442	6.83
203.661	17.07
203.879	62.12
204.098	94.89
204.317	-11.61
204.536	84.65
204.755	41.64
204.974	86.7
205.193	-3.41
205.411	55.98
205.63	78.51
205.849	78.51
206.068	19.11
206.287	-19.8
206.505	119.46
206.724	-27.99
206.943	76.46
207.162	29.35
207.381	39.59
207.599	62.12
207.818	-11.61
208.037	82.6
208.255	-56.66
208.474	51.88
208.693	2.73
208.911	29.35
209.13	25.26
209.349	10.92
209.567	92.84
209.786	29.35
210.005	53.93
210.223	0.68
210.442	-85.33
210.661	72.36
210.879	-13.65
211.098	49.83
211.316	62.12
211.535	113.32
211.753	21.16
211.972	78.51
212.191	105.13
212.409	23.21
212.628	21.16
212.846	15.02
213.065	117.42
213.283	8.87
213.502	66.22
213.72	31.4
213.938	80.55
214.157	0.68
214.375	10.92
214.594	76.46
214.812	8.87
215.031	53.93
215.249	21.16
215.467	-38.23
215.686	-23.89
215.904	12.97
216.122	8.87
216.341	31.4
216.559	-21.84
216.778	103.08
216.996	78.51
217.214	-7.51
217.432	49.83
217.651	-1.37
217.869	96.94
218.087	8.87
218.306	33.45
218.524	82.6
218.742	45.74
218.96	113.32
219.179	19.11
219.397	29.35
219.615	33.45
219.833	43.69
220.051	19.11
220.27	70.31
220.488	12.97
220.706	6.83
220.924	70.31
221.142	8.87
221.36	-17.75
221.578	60.07
221.796	17.07
222.015	8.87
222.233	17.07
222.451	51.88
222.669	82.6
222.887	80.55
223.105	51.88
223.323	-68.95
223.541	10.92
223.759	47.79
223.977	49.83
224.195	101.03
224.413	103.08
224.631	12.97
224.849	53.93
225.067	58.03
225.285	-15.7
225.503	0.68
225.721	-68.95
225.939	45.74
226.157	29.35
226.375	123.56
226.592	53.93
226.81	-9.56
227.028	86.7
227.246	51.88
227.464	12.97
227.682	107.18
227.9	-5.46
228.117	31.4
228.335	58.03
228.553	-19.8
228.771	-13.65
228.989	43.69
229.206	-27.99
229.424	-17.75
229.642	78.51
229.86	-19.8
230.077	96.94
230.295	10.92
230.513	129.7
230.731	64.17
230.948	109.23
231.166	105.13
231.384	-9.56
231.601	66.22
231.819	84.65
232.037	27.31
232.254	8.87
232.472	45.74
232.689	45.74
232.907	10.92
233.125	17.07
233.342	-19.8
233.56	-9.56
233.777	39.59
233.995	23.21
234.213	43.69
234.43	25.26
234.648	17.07
234.865	62.12
235.083	51.88
235.3	74.41
235.518	103.08
235.735	17.07
235.953	109.23
236.17	-30.04
236.388	62.12
236.605	43.69
236.822	23.21
237.04	12.97
237.257	-1.37
237.475	-27.99
237.692	4.78
237.909	-15.7
238.127	-23.89
238.344	74.41
238.562	21.16
238.779	45.74
238.996	4.78
239.214	-5.46
239.431	6.83
239.648	21.16
239.865	21.16
240.083	72.36
240.3	6.83
240.517	8.87
240.735	10.92
240.952	90.79
241.169	-27.99
241.386	74.41
241.603	68.27
241.821	17.07
242.038	58.03
242.255	70.31
242.472	-34.13
242.689	64.17
242.907	107.18
243.124	35.5
243.341	31.4
243.558	64.17
243.775	45.74
243.992	47.79
244.209	55.98
244.426	55.98
244.643	25.26
244.86	12.97
245.078	21.16
245.295	-5.46
245.512	96.94
245.729	-9.56
245.946	76.46
246.163	-7.51
246.38	49.83
246.597	35.5
246.814	64.17
247.031	23.21
247.248	-11.61
247.464	51.88
247.681	37.55
247.898	94.89
248.115	101.03
248.332	-17.75
248.549	96.94
248.766	105.13
248.983	146.09
249.2	121.51
249.417	55.98
249.633	43.69
249.85	55.98
250.067	4.78
250.284	31.4
250.501	51.88
250.717	29.35
250.934	-11.61
251.151	55.98
251.368	-15.7
251.585	80.55
251.801	19.11
252.018	8.87
252.235	84.65
252.451	47.79
252.668	51.88
252.885	92.84
253.102	-5.46
253.318	12.97
253.535	29.35
253.752	10.92
253.968	31.4
254.185	60.07
254.401	35.5
254.618	25.26
254.835	-1.37
255.051	58.03
255.268	31.4
255.484	62.12
255.701	53.93
255.917	47.79
256.134	103.08
256.351	31.4
256.567	82.6
256.784	-19.8
257	-9.56
257.217	62.12
257.433	45.74
257.65	-27.99
257.866	137.9
258.082	80.55
258.299	35.5
258.515	-17.75
258.732	12.97
258.948	6.83
259.165	-13.65
259.381	43.69
259.597	35.5
259.814	86.7
260.03	-30.04
260.246	21.16
260.463	94.89
260.679	25.26
260.895	74.41
261.112	19.11
261.328	49.83
261.544	4.78
261.761	62.12
261.977	17.07
262.193	4.78
262.409	72.36
262.626	41.64
262.842	72.36
263.058	0.68
263.274	84.65
263.49	27.31
263.707	64.17
263.923	121.51
264.139	0.68
264.355	25.26
264.571	39.59
264.787	21.16
265.004	74.41
265.22	58.03
265.436	47.79
265.652	2.73
265.868	53.93
266.084	74.41
266.3	10.92
266.516	-9.56
266.732	10.92
266.948	88.75
267.164	45.74
267.38	103.08
267.596	49.83
267.812	35.5
268.028	27.31
268.244	41.64
268.46	72.36
268.676	-3.41
268.892	25.26
269.108	64.17
269.324	2.73
269.54	12.97
269.756	15.02
269.972	84.65
270.188	45.74
270.403	-62.8
270.619	19.11
270.835	43.69
271.051	41.64
271.267	55.98
271.483	-64.85
271.698	49.83
271.914	127.66
272.13	60.07
272.346	19.11
272.562	-11.61
272.777	62.12
272.993	53.93
273.209	55.98
273.425	51.88
273.64	0.68
273.856	82.6
274.072	19.11
274.287	68.27
274.503	41.64
274.719	86.7
274.934	35.5
275.15	72.36
275.366	43.69
275.581	-46.42
275.797	29.35
276.012	27.31
276.228	88.75
276.444	43.69
276.659	-7.51
276.875	84.65
277.09	47.79
277.306	-15.7
277.521	51.88
277.737	-9.56
277.952	-21.84
278.168	27.31
278.383	8.87
278.599	2.73
278.814	94.89
279.03	37.55
279.245	80.55
279.461	23.21
279.676	45.74
279.892	-68.95
280.107	25.26
280.322	-30.04
280.538	80.55
280.753	51.88
280.969	60.07
281.184	21.16
281.399	84.65
281.615	23.21
281.83	66.22
282.045	-9.56
282.26	8.87
282.476	70.31
282.691	15.02
282.906	25.26
283.122	94.89
283.337	41.64
283.552	86.7
283.767	19.11
283.983	19.11
284.198	51.88
284.413	88.75
284.628	-34.13
284.843	131.75
285.058	107.18
285.274	27.31
285.489	-9.56
285.704	78.51
285.919	25.26
286.134	64.17
286.349	-7.51
286.564	78.51
286.779	86.7
286.995	23.21
287.21	-17.75
287.425	80.55
287.64	45.74
287.855	62.12
288.07	-11.61
288.285	107.18
288.5	125.61
288.715	90.79
288.93	-3.41
289.145	62.12
289.36	8.87
289.575	55.98
289.79	98.99
290.004	-30.04
290.219	111.27
290.434	-7.51
290.649	101.03
290.864	45.74
291.079	8.87
291.294	51.88
291.509	76.46
291.724	103.08
291.938	51.88
292.153	92.84
292.368	10.92
292.583	35.5
292.798	-54.61
293.012	17.07
293.227	88.75
293.442	27.31
293.657	64.17
293.871	94.89
294.086	49.83
294.301	80.55
294.516	21.16
294.73	82.6
294.945	37.55
295.16	53.93
295.374	131.75
295.589	66.22
295.804	-1.37
296.018	62.12
296.233	47.79
296.447	15.02
296.662	39.59
296.877	68.27
297.091	78.51
297.306	37.55
297.52	27.31
297.735	41.64
297.949	8.87
298.164	29.35
298.378	21.16
298.593	17.07
298.807	0.68
299.022	10.92
299.236	113.32
299.451	53.93
299.665	68.27
299.88	53.93
300.094	70.31
300.309	-19.8
300.523	78.51
300.737	4.78
300.952	15.02
301.166	72.36
301.381	53.93
301.595	31.4
301.809	62.12
302.024	-15.7
302.238	-7.51
302.452	111.27
302.667	117.42
302.881	64.17
303.095	92.84
303.309	58.03
303.524	-44.37
303.738	-19.8
303.952	17.07
304.166	25.26
304.381	-77.14
304.595	107.18
304.809	10.92
305.023	-38.23
305.237	23.21
305.452	58.03
305.666	49.83
305.88	35.5
306.094	90.79
306.308	31.4
306.522	58.03
306.736	109.23
306.95	51.88
307.164	25.26
307.379	90.79
307.593	107.18
307.807	78.51
308.021	125.61
308.235	103.08
308.449	12.97
308.663	90.79
308.877	84.65
309.091	80.55
309.305	53.93
309.519	15.02
309.733	29.35
309.947	-11.61
310.161	49.83
310.374	66.22
310.588	66.22
310.802	41.64
311.016	123.56
311.23	33.45
311.444	84.65
311.658	-23.89
311.872	27.31
312.085	-13.65
312.299	47.79
312.513	62.12
312.727	55.98
312.941	47.79
313.154	41.64
313.368	49.83
313.582	15.02
313.796	82.6
314.009	43.69
314.223	51.88
314.437	70.31
314.651	70.31
314.864	6.83
315.078	-21.84
315.292	-7.51
315.505	-5.46
315.719	-1.37
315.933	74.41
316.146	8.87
316.36	23.21
316.573	90.79
316.787	49.83
317.001	64.17
317.214	-15.7
317.428	53.93
317.641	-7.51
317.855	55.98
318.068	58.03
318.282	45.74
318.495	101.03
318.709	86.7
318.922	21.16
319.136	90.79
319.349	92.84
319.563	70.31
319.776	-1.37
319.99	58.03
320.203	45.74
320.417	-34.13
320.63	105.13
320.843	90.79
321.057	4.78
321.27	2.73
321.483	60.07
321.697	103.08
321.91	84.65
322.124	35.5
322.337	-13.65
322.55	29.35
322.763	84.65
322.977	41.64
323.19	53.93
323.403	-13.65
323.617	25.26
323.83	111.27
324.043	39.59
324.256	2.73
324.469	45.74
324.683	4.78
324.896	10.92
325.109	8.87
325.322	31.4
325.535	62.12
325.748	70.31
325.962	70.31
326.175	23.21
326.388	90.79
326.601	51.88
326.814	41.64
327.027	35.5
327.24	86.7
327.453	-48.47
327.666	90.79
327.879	-3.41
328.092	84.65
328.305	47.79
328.518	51.88
328.731	8.87
328.944	148.14
329.157	-1.37
329.37	35.5
329.583	94.89
329.796	23.21
330.009	74.41
330.222	84.65
330.435	78.51
330.648	62.12
330.861	-3.41
331.073	82.6
331.286	78.51
331.499	4.78
331.712	6.83
331.925	92.84
332.138	6.83
332.35	88.75
332.563	58.03
332.776	84.65
332.989	41.64
333.202	58.03
333.414	21.16
333.627	82.6
333.84	51.88
334.053	51.88
334.265	64.17
334.478	4.78
334.691	-17.75
334.903	105.13
335.116	19.11
335.329	127.66
335.541	41.64
335.754	35.5
335.966	51.88
336.179	98.99
336.392	58.03
336.604	84.65
336.817	68.27
337.029	60.07
337.242	-19.8
337.454	123.56
337.667	-5.46
337.88	23.21
338.092	-11.61
338.305	15.02
338.517	12.97
338.729	80.55
338.942	84.65
339.154	111.27
339.367	49.83
339.579	55.98
339.792	-11.61
340.004	109.23
340.217	70.31
340.429	6.83
340.641	43.69
340.854	41.64
341.066	107.18
341.278	131.75
341.491	96.94
341.703	111.27
341.915	37.55
342.128	51.88
342.34	-15.7
342.552	6.83
342.764	-19.8
342.977	90.79
343.189	51.88
343.401	84.65
343.613	-32.08
343.826	53.93
344.038	19.11
344.25	29.35
344.462	-17.75
344.674	98.99
344.886	31.4
345.099	78.51
345.311	41.64
345.523	72.36
345.735	-3.41
345.947	78.51
346.159	66.22
346.371	0.68
346.583	86.7
346.795	123.56
347.007	84.65
347.219	21.16
347.431	21.16
347.643	60.07
347.855	64.17
348.067	133.8
348.279	-1.37
348.491	66.22
348.703	53.93
348.915	53.93
349.127	0.68
349.339	33.45
349.551	35.5
349.763	109.23
349.975	25.26
350.187	49.83
350.399	19.11
350.61	86.7
350.822	139.94
351.034	25.26
351.246	41.64
351.458	-5.46
351.669	4.78
351.881	70.31
352.093	51.88
352.305	58.03
352.517	76.46
352.728	113.32
352.94	78.51
353.152	74.41
353.363	-17.75
353.575	103.08
353.787	107.18
353.999	68.27
354.21	66.22
354.422	41.64
354.633	29.35
354.845	88.75
355.057	98.99
355.268	86.7
355.48	103.08
355.692	4.78
355.903	127.66
356.115	-27.99
356.326	-40.28
356.538	98.99
356.749	105.13
356.961	137.9
357.172	60.07
357.384	45.74
357.595	119.46
357.807	62.12
358.018	96.94
358.23	12.97
358.441	131.75
358.653	23.21
358.864	51.88
359.075	39.59
359.287	103.08
359.498	123.56
359.709	125.61
359.921	78.51
360.132	8.87
360.344	111.27
360.555	88.75
360.766	111.27
360.977	31.4
361.189	94.89
361.4	84.65
361.611	158.38
361.823	8.87
362.034	41.64
362.245	-25.94
362.456	25.26
362.667	15.02
362.879	115.37
363.09	94.89
363.301	74.41
363.512	35.5
363.723	10.92
363.935	78.51
364.146	125.61
364.357	113.32
364.568	94.89
364.779	-15.7
364.99	74.41
365.201	17.07
365.412	82.6
365.623	123.56
365.834	80.55
366.045	-27.99
366.256	-11.61
366.467	62.12
366.678	35.5
366.889	64.17
367.1	53.93
367.311	101.03
367.522	92.84
367.733	37.55
367.944	70.31
368.155	62.12
368.366	119.46
368.577	92.84
368.788	92.84
368.999	70.31
369.209	96.94
369.42	117.42
369.631	80.55
369.842	58.03
370.053	25.26
370.264	15.02
370.474	64.17
370.685	49.83
370.896	41.64
371.107	144.04
371.317	101.03
371.528	96.94
371.739	84.65
371.95	62.12
372.16	-1.37
372.371	-3.41
372.582	98.99
372.792	51.88
373.003	74.41
373.214	6.83
373.424	70.31
373.635	39.59
373.846	133.8
374.056	-7.51
374.267	49.83
374.477	107.18
374.688	62.12
374.898	64.17
375.109	111.27
375.319	111.27
375.53	98.99
375.74	47.79
375.951	68.27
376.161	49.83
376.372	139.94
376.582	25.26
376.793	15.02
377.003	80.55
377.214	-3.41
377.424	90.79
377.635	80.55
377.845	76.46
378.055	101.03
378.266	43.69
378.476	101.03
378.686	123.56
378.897	137.9
379.107	172.71
379.317	68.27
379.528	111.27
379.738	78.51
379.948	-1.37
380.158	86.7
380.369	62.12
380.579	80.55
380.789	127.66
380.999	78.51
381.21	53.93
381.42	113.32
381.63	41.64
381.84	103.08
382.05	-3.41
382.261	55.98
382.471	84.65
382.681	35.5
382.891	109.23
383.101	84.65
383.311	-3.41
383.521	66.22
383.731	111.27
383.941	66.22
384.151	141.99
384.361	125.61
384.571	47.79
384.781	47.79
384.991	133.8
385.201	156.33
385.411	62.12
385.621	72.36
385.831	43.69
386.041	45.74
386.251	98.99
386.461	162.47
386.671	64.17
386.881	86.7
387.091	45.74
387.301	92.84
387.511	29.35
387.72	62.12
387.93	41.64
388.14	53.93
388.35	49.83
388.56	178.86
388.769	80.55
388.979	111.27
389.189	80.55
389.399	12.97
389.609	84.65
389.818	74.41
390.028	31.4
390.238	121.51
390.447	2.73
390.657	21.16
390.867	49.83
391.076	74.41
391.286	119.46
391.496	58.03
391.705	58.03
391.915	105.13
392.125	139.94
392.334	4.78
392.544	127.66
392.753	101.03
392.963	49.83
393.172	121.51
393.382	4.78
393.591	160.42
393.801	92.84
394.01	68.27
394.22	68.27
394.429	88.75
394.639	98.99
394.848	172.71
395.058	58.03
395.267	121.51
395.477	168.62
395.686	35.5
395.895	135.85
396.105	225.96
396.314	125.61
396.524	154.28
396.733	103.08
396.942	103.08
397.152	148.14
397.361	148.14
397.57	164.52
397.78	119.46
397.989	166.57
398.198	209.58
398.407	172.71
398.617	113.32
398.826	103.08
399.035	113.32
399.244	144.04
399.453	172.71
399.663	82.6
399.872	156.33
400.081	119.46
400.29	201.38
400.499	90.79
400.708	135.85
400.917	103.08
401.127	129.7
401.336	125.61
401.545	185
401.754	176.81
401.963	187.05
402.172	139.94
402.381	103.08
402.59	258.73
402.799	127.66
403.008	139.94
403.217	125.61
403.426	185
403.635	185
403.844	123.56
404.053	160.42
404.262	203.43
404.471	264.87
404.68	246.44
404.888	213.67
405.097	170.66
405.306	223.91
405.515	281.25
405.724	215.72
405.933	234.15
406.142	246.44
406.35	217.77
406.559	250.53
406.768	248.49
406.977	262.82
407.185	299.69
407.394	258.73
407.603	189.1
407.812	297.64
408.02	287.4
408.229	348.84
408.438	373.41
408.646	295.59
408.855	207.53
409.064	383.65
409.272	307.88
409.481	416.42
409.69	414.37
409.898	293.54
410.107	461.48
410.315	397.99
410.524	383.65
410.733	391.84
410.941	467.62
411.15	479.91
411.358	459.43
411.567	504.48
411.775	522.91
411.984	533.15
412.192	541.35
412.401	606.88
412.609	565.92
412.818	680.61
413.026	717.47
413.234	668.32
413.443	635.55
413.651	678.56
413.86	750.24
414.068	815.77
414.276	756.38
414.485	750.24
414.693	901.79
414.901	961.18
415.11	996
415.318	1024.67
415.526	1012.38
415.734	1012.38
415.943	1053.34
416.151	1143.45
416.359	1176.22
416.567	1102.49
416.776	1213.08
416.984	1270.42
417.192	1325.72
417.4	1264.28
417.608	1370.77
417.817	1432.21
418.025	1483.41
418.233	1606.29
418.441	1555.09
418.649	1561.23
418.857	1806.99
419.065	1690.26
419.273	1755.79
419.481	1913.49
419.689	1913.49
419.897	2065.04
420.105	2083.47
420.313	2157.19
420.521	2206.35
420.729	2275.98
420.937	2357.89
421.145	2288.26
421.353	2620.03
421.561	2550.4
421.769	2718.34
421.977	2871.93
422.185	2671.23
422.393	2865.79
422.601	3013.24
422.809	3103.36
423.017	3132.03
423.224	3113.6
423.432	3388.02
423.64	3457.65
423.848	3838.58
424.056	3570.29
424.263	3852.91
424.471	3990.13
424.679	3979.89
424.887	4119.15
425.094	4446.82
425.302	4280.94
425.51	4508.26
425.718	4612.71
425.925	4747.87
426.133	4944.48
426.341	5069.41
426.548	5382.74
426.756	5483.1
426.964	5435.99
427.171	5640.79
427.379	6019.66
427.586	6218.32
427.794	6351.43
428.001	6525.51
428.209	6808.13
428.417	6609.48
428.624	7144
428.832	7365.18
429.039	7105.09
429.247	7125.57
429.454	7883.31
429.662	8471.08
429.869	7752.24
430.076	8254
430.284	8550.95
430.491	8520.23
430.699	8835.62
430.906	9062.94
431.114	9112.1
431.321	9282.08
431.528	9708.05
431.736	10265.1
431.943	10897.92
432.15	10570.25
432.358	10572.3
432.565	11252.22
432.772	11102.72
432.979	11594.23
433.187	11778.55
433.394	11790.84
433.601	12681.71
433.808	12753.38
434.016	12685.8
434.223	13234.66
434.43	14103
434.637	14062.04
434.844	14784.97
435.052	14856.65
435.259	14664.14
435.466	15057.35
435.673	14778.83
435.88	15765.95
436.087	16511.41
436.294	16943.53
436.501	16189.88
436.708	16683.44
436.915	17209.76
437.122	18217.36
437.329	17990.04
437.537	18614.67
437.743	18667.92
437.95	18858.38
438.157	19925.37
438.364	20052.34
438.571	20306.29
438.778	20341.11
438.985	22425.94
439.192	21473.64
439.399	21932.38
439.606	21772.64
439.813	23009.61
440.02	24058.17
440.227	23875.9
440.433	23562.56
440.64	24455.48
440.847	23869.76
441.054	24693.04
441.261	26485.01
441.467	25884.96
441.674	26607.89
441.881	27572.49
442.088	27134.22
442.294	27255.05
442.501	28518.65
442.708	28485.88
442.914	29763.81
443.121	30793.94
443.328	30044.38
443.534	32555.19
443.741	31305.93
443.948	31125.71
444.154	33271.98
444.361	33079.47
444.568	33386.67
444.774	33147.06
444.981	33513.64
445.187	34785.43
445.394	36321.41
445.6	35874.95
445.807	39065.69
446.013	37406.83
446.22	38076.52
446.426	39340.11
446.633	40073.29
446.839	40730.69
447.046	39419.99
447.252	41621.55
447.459	41703.47
447.665	41263.16
447.871	43096.09
448.078	44955.64
448.284	42960.92
448.491	43843.6
448.697	45594.61
448.903	46225.39
449.11	46022.64
449.316	45379.57
449.522	45965.29
449.728	47550.42
449.935	47863.76
450.141	47513.56
450.347	48658.37
450.553	47069.15
450.76	47876.05
450.966	49051.58
451.172	48246.73
451.378	49442.74
451.584	48824.26
451.791	50024.37
451.997	49932.21
452.203	50126.77
452.409	50460.58
452.615	49893.3
452.821	47837.14
453.027	47321.05
453.233	50206.64
453.44	48160.72
453.646	48035.79
453.852	48609.22
454.058	49063.87
454.264	47583.19
454.47	48527.3
454.676	46938.08
454.882	48504.77
455.088	44525.57
455.294	45039.61
455.5	45717.49
455.705	46233.58
455.911	44501
456.117	43065.37
456.323	42725.41
456.529	40417.35
456.735	42104.87
456.941	41351.22
457.147	40015.94
457.352	38951
457.558	38635.61
457.764	38469.73
457.97	37845.1
458.176	37032.05
458.381	36599.93
458.587	34975.89
458.793	35174.55
458.999	33259.7
459.204	35774.6
459.41	34660.51
459.616	32317.63
459.821	32372.92
460.027	32510.14
460.233	31652.04
460.438	30349.53
460.644	30251.23
460.85	29044.98
461.055	28649.72
461.261	28209.4
461.466	26407.19
461.672	25538.85
461.878	27347.21
462.083	25671.97
462.289	25252.14
462.494	24838.45
462.7	23886.14
462.905	23171.4
463.111	23984.44
463.316	24127.8
463.522	23492.93
463.727	23851.33
463.932	23597.38
464.138	23216.46
464.343	23525.7
464.549	22677.84
464.754	23652.67
464.959	23128.39
465.165	23390.53
465.37	22540.63
465.575	21623.14
465.781	22931.79
465.986	22640.98
466.191	21801.31
466.397	21137.77
466.602	20623.73
466.807	21219.69
467.012	21131.62
467.218	21367.14
467.423	20959.59
467.628	21219.69
467.833	21967.2
468.038	21088.62
468.244	20636.02
468.449	21361
468.654	20803.95
468.859	20539.76
469.064	20355.44
469.269	19655.04
469.474	19792.25
469.679	20230.52
469.885	19706.24
470.09	19767.68
470.295	19507.58
470.5	18905.48
470.705	19337.6
470.91	18637.2
471.115	18723.21
471.32	18936.2
471.525	18471.31
471.73	18428.31
471.935	18426.26
472.139	17750.43
472.344	17766.81
472.549	17680.8
472.754	17838.49
472.959	17144.23
473.164	16656.81
473.369	16535.98
473.574	17074.6
473.778	17099.17
473.983	16566.7
474.188	16488.88
474.393	15827.39
474.598	16144.82
474.802	15808.95
475.007	15598.01
475.212	15942.07
475.417	15151.56
475.621	15466.94
475.826	15391.17
476.031	14709.19
476.235	14617.04
476.44	14711.24
476.645	14649.8
476.849	14526.92
477.054	14627.28
477.259	14283.22
477.463	14422.48
477.668	13967.83
477.872	14213.59
478.077	13693.4
478.282	13674.97
478.486	13427.17
478.691	13507.04
478.895	13541.85
479.1	13294.05
479.304	13449.69
479.509	12896.74
479.713	13040.1
479.918	12929.51
480.122	12888.55
480.326	12925.41
480.531	12954.08
480.735	12798.44
480.94	12483.05
481.144	13175.27
481.348	12556.78
481.553	12538.35
481.757	12452.33
481.961	12466.67
482.166	12638.7
482.37	12497.39
482.574	12118.51
482.778	12593.64
482.983	12642.79
483.187	12567.02
483.391	12743.14
483.595	12323.31
483.8	12274.16
484.004	12620.27
484.208	12534.25
484.412	12435.95
484.616	12614.12
484.821	12577.26
485.025	12120.56
485.229	12495.34
485.433	12343.79
485.637	12438
485.841	12362.22
486.045	12360.17
486.249	12583.4
486.453	12495.34
486.657	12452.33
486.861	12481
487.065	12071.41
487.269	12538.35
487.473	12347.89
487.677	12394.99
487.881	12431.85
488.085	12564.97
488.289	12610.03
488.493	12384.75
488.697	12632.55
488.901	12364.27
489.105	12407.28
489.309	12601.83
489.512	12667.37
489.716	12659.18
489.92	12653.03
490.124	12610.03
490.328	12798.44
490.531	12655.08
490.735	12642.79
490.939	12804.58
491.143	12851.69
491.346	12892.65
491.55	13085.15
491.754	12984.8
491.958	13072.87
492.161	13003.24
492.365	13070.82
492.569	12976.61
492.772	13205.99
492.976	13390.3
493.18	13427.17
493.383	13529.56
493.587	13746.65
493.79	14148.05
493.994	13638.11
494.197	13892.05
494.401	13892.05
494.605	14098.9
494.808	14039.51
495.012	14096.85
495.215	14481.87
495.419	14451.15
495.622	14334.42
495.825	14580.17
496.029	14672.33
496.232	15100.36
496.436	14901.7
496.639	15606.2
496.843	15178.18
497.046	15403.46
497.249	15671.74
497.453	15792.57
497.656	16124.34
497.859	16107.96
498.063	16069.05
498.266	16351.67
498.469	16370.1
498.673	16730.54
498.876	16873.9
499.079	16984.49
499.282	17303.97
499.485	17510.82
499.689	17668.51
499.892	17742.24
500.095	17828.25
500.298	18145.69
500.501	18284.95
500.705	18737.55
500.908	19022.22
501.111	19296.64
501.314	19396.99
501.517	19456.39
501.72	19569.02
501.923	19808.64
502.126	20130.17
502.329	20261.24
502.532	20679.02
502.735	20511.09
502.938	21197.16
503.141	20904.3
503.344	21467.49
503.547	21363.04
503.75	21920.09
503.953	21944.67
504.156	22352.21
504.359	22387.03
504.562	22733.14
504.765	23109.96
504.968	23562.56
505.17	23894.33
505.373	23527.75
505.576	24242.49
505.779	24213.82
505.982	24459.57
506.185	24897.84
506.387	24928.56
506.59	25346.34
506.793	25614.63
506.996	25905.44
507.198	26198.3
507.401	25989.41
507.604	26536.21
507.807	27154.7
508.009	27207.95
508.212	27207.95
508.415	27547.91
508.617	27889.92
508.82	28299.51
509.022	28459.26
509.225	29184.24
509.428	29243.63
509.63	29264.11
509.833	29548.78
510.035	30159.07
510.238	30148.83
510.44	30372.06
510.643	31049.94
510.845	31189.2
511.048	31127.76
511.25	31463.63
511.453	31776.97
511.655	32864.44
511.858	32704.7
512.06	32846.01
512.262	33235.12
512.465	33132.72
512.667	33962.15
512.87	34209.95
513.072	34427.04
513.274	34900.12
513.477	35352.72
513.679	35037.33
513.881	35905.67
514.084	36030.6
514.286	36018.31
514.488	36411.52
514.69	37093.49
514.893	37685.36
515.095	37296.24
515.297	38221.92
515.499	38252.64
515.701	38668.38
515.904	38817.88
516.106	39254.1
516.308	39659.6
516.51	40171.59
516.712	40261.7
516.914	40446.02
517.116	41320.5
517.318	41558.06
517.52	41898.03
517.722	41914.41
517.925	42211.37
518.127	42901.53
518.329	42928.16
518.531	42762.27
518.733	43595.79
518.935	44328.97
519.136	44292.1
519.338	44853.25
519.54	44914.69
519.742	45543.41
519.944	45524.98
520.146	46157.8
520.348	46458.85
520.55	46634.98
520.752	47316.95
520.954	47728.59
521.155	47536.09
521.357	48160.72
521.559	48478.15
521.761	49240
521.963	49334.2
522.164	49485.75
522.366	49598.39
522.568	50339.75
522.77	50327.47
522.971	50726.82
523.173	50909.09
523.375	51091.36
523.576	51402.65
523.778	51091.36
523.98	51650.45
524.181	52504.46
524.383	52471.69
524.584	52662.15
524.786	53057.41
524.988	53114.75
525.189	53682.04
525.391	53974.9
525.592	54579.05
525.794	54484.84
525.995	54712.17
526.197	54437.74
526.398	54763.37
526.6	55027.56
526.801	55713.62
527.003	56014.68
527.204	56100.69
527.406	56045.4
527.607	56043.35
527.808	56381.26
528.01	55650.14
528.211	55922.52
528.412	57308.99
528.614	56913.73
528.815	56989.51
529.016	57435.97
529.218	56772.42
529.419	57468.73
529.62	57786.17
529.822	57382.72
530.023	57370.43
530.224	57812.79
530.425	57575.23
530.626	57419.58
530.828	57161.54
531.029	58427.18
531.23	57646.91
531.431	58324.78
531.632	58271.54
531.833	58384.18
532.035	58449.71
532.236	58414.9
532.437	58787.63
532.638	58459.95
532.839	58791.72
533.04	59021.09
533.241	58316.59
533.442	59537.18
533.643	59260.71
533.844	59199.27
534.045	59100.96
534.246	58906.41
534.447	59574.05
534.648	59033.38
534.849	58969.89
535.05	59012.9
535.251	58717.99
535.451	59021.09
535.652	59457.31
535.853	58988.33
536.054	59008.81
536.255	59229.99
536.456	58505.01
536.657	60028.69
536.857	59250.47
537.058	58965.8
537.259	59402.02
537.46	59465.5
537.66	59254.56
537.861	59463.46
538.062	58863.4
538.263	59279.14
538.463	59266.85
538.664	59074.34
538.865	59682.59
539.065	59514.65
539.266	58896.17
539.466	59739.93
539.667	59041.57
539.868	59686.68
540.068	58693.42
540.269	59201.32
540.469	59514.65
540.67	59074.34
540.87	59610.91
541.071	59180.84
541.271	59522.85
541.472	59135.78
541.672	58785.58
541.873	58799.91
542.073	58822.44
542.274	59574.05
542.474	59125.54
542.675	58513.2
542.875	59528.99
543.075	59094.82
543.276	59008.81
543.476	59258.66
543.676	58849.06
543.877	59168.55
544.077	59186.98
544.277	59017
544.478	58930.98
544.678	59156.26
544.878	58881.83
545.078	59107.11
545.279	59115.3
545.479	58836.78
545.679	58855.21
545.879	58588.97
546.079	58472.24
546.28	58537.77
546.48	57962.29
546.68	58763.05
546.88	58945.32
547.08	58939.18
547.28	58711.85
547.48	58103.6
547.68	58722.09
547.88	57976.63
548.081	58789.67
548.281	58646.32
548.481	58591.02
548.681	58982.18
548.881	58660.65
549.081	58447.66
549.28	58447.66
549.48	58775.34
549.68	57956.15
549.88	59010.85
550.08	58246.96
550.28	58271.54
550.48	58689.32
550.68	58877.74
550.88	58410.8
551.08	58773.29
551.279	58664.75
551.479	58025.78
551.679	58586.92
551.879	58146.61
552.079	58572.59
552.278	58154.8
552.478	58330.93
552.678	58707.75
552.878	58605.36
553.077	58251.06
553.277	58251.06
553.477	58486.57
553.676	58089.27
553.876	58119.99
554.076	58027.83
554.275	57790.26
554.475	57341.76
554.674	57857.85
554.874	57804.6
555.074	57550.65
555.273	57950.01
555.473	57997.11
555.672	57450.3
555.872	57548.6
556.071	57884.47
556.271	57798.46
556.47	57521.98
556.67	57415.49
556.869	57182.02
557.068	57931.57
557.268	57214.79
557.467	57325.38
557.667	57118.53
557.866	57202.5
558.065	56917.83
558.265	56727.37
558.464	56801.1
558.663	57325.38
558.863	56645.45
559.062	57339.71
559.261	56536.91
559.461	57194.31
559.66	56170.32
559.859	56682.31
560.058	56395.6
560.258	56432.46
560.457	55809.88
560.656	56483.66
560.855	56223.57
561.054	56203.09
561.253	55744.34
561.453	55877.46
561.652	55805.78
561.851	56260.43
562.05	55805.78
562.249	55076.71
562.448	55723.86
562.647	55402.33
562.846	55326.56
563.045	55228.26
563.244	54609.77
563.443	55715.67
563.642	54601.58
563.841	54671.21
564.04	54787.94
564.239	55035.75
564.438	54458.22
564.637	54355.82
564.836	54728.55
565.035	54183.79
565.234	54269.81
565.432	54173.55
565.631	53628.79
565.83	54407.02
566.029	53862.26
566.228	53442.43
566.427	53368.7
566.625	52799.36
566.824	52836.23
567.023	53749.62
567.222	52373.39
567.42	53276.54
567.619	52918.15
567.818	52682.63
568.016	52885.38
568.215	53204.86
568.414	52483.98
568.612	53016.45
568.811	52488.07
569.01	52500.36
569.208	51910.55
569.407	52203.41
569.605	51705.75
569.804	51785.62
570.002	51232.67
570.201	51724.18
570.4	51247
570.598	51584.92
570.797	51140.51
570.995	50933.67
571.193	50575.27
571.392	50960.29
571.59	50644.9
571.789	50714.53
571.987	50345.9
572.186	50542.5
572.384	50458.54
572.582	50120.62
572.781	50223.02
572.979	49741.75
573.177	49686.45
573.376	50395.05
573.574	49651.64
573.772	49803.19
573.971	48916.42
574.169	48953.28
574.367	48988.1
574.565	49162.17
574.763	48793.54
574.962	49000.38
575.16	48760.77
575.358	48660.42
575.556	48101.32
575.754	49078.21
575.952	47798.23
576.151	48445.38
576.349	47747.03
576.547	47740.88
576.745	48261.07
576.943	48093.13
577.141	47724.5
577.339	47857.62
577.537	47212.51
577.735	47640.53
577.933	46655.46
578.131	47306.71
578.329	46696.42
578.527	46569.44
578.725	46440.42
578.923	46979.04
579.121	46716.9
579.319	46641.12
579.516	46839.78
579.714	46180.33
579.912	46200.81
580.11	45944.81
580.308	46129.13
580.506	46104.56
580.704	45209.59
580.901	45713.39
581.099	45309.94
581.297	45092.86
581.495	45234.17
581.692	45596.66
581.89	44890.11
582.088	45144.06
582.285	44685.31
582.483	44849.15
582.681	44326.92
582.878	44625.92
583.076	44228.62
583.274	44556.29
583.471	43989
583.669	43995.15
583.866	43595.79
584.064	43741.2
584.262	43554.83
584.459	43507.73
584.657	43436.05
584.854	43548.69
585.052	42956.83
585.249	43255.83
585.447	43221.02
585.644	42645.54
585.841	42821.66
586.039	43143.19
586.236	42647.58
586.434	42281
586.631	41875.5
586.828	42156.07
587.026	42577.95
587.223	42387.49
587.42	41578.54
587.618	42055.72
587.815	41906.22
588.012	41551.92
588.21	41355.32
588.407	41992.23
588.604	41416.75
588.801	40951.87
588.999	40650.81
589.196	40974.39
589.393	41011.26
589.59	40534.08
589.787	40689.73
589.984	40747.07
590.182	39897.16
590.379	40710.21
590.576	40230.98
590.773	40245.32
590.97	39585.87
591.167	40163.4
591.364	39524.43
591.561	39923.79
591.758	39624.78
591.955	38932.57
592.152	39729.23
592.349	39004.25
592.546	38983.77
592.743	39200.85
592.94	38733.92
593.137	39239.76
593.334	39321.68
593.531	38537.31
593.727	38551.65
593.924	38860.89
594.121	38246.5
594.318	38711.39
594.515	37640.3
594.712	38125.67
594.908	37863.53
595.105	38082.66
595.302	37410.93
595.499	37769.32
595.696	37240.95
595.892	37292.15
596.089	37443.7
596.286	37384.3
596.482	37046.39
596.679	37099.64
596.876	36941.94
597.072	36393.09
597.269	36776.06
597.466	36112.52
597.662	36339.84
597.859	36399.23
598.055	35907.72
598.252	36016.26
598.448	36016.26
598.645	35682.44
598.841	35465.36
599.038	35694.73
599.234	35496.08
599.431	35231.89
599.627	35373.2
599.824	35522.7
600.02	35090.58
600.217	35135.63
600.413	34949.27
600.609	34650.27
600.806	34463.9
601.002	34658.46
601.198	34410.65
601.395	34400.41
601.591	34222.24
601.787	34130.08
601.984	33970.34
602.18	34250.91
602.376	33740.97
602.572	33622.19
602.769	33775.78
602.965	33452.2
603.161	33464.49
603.357	33558.7
603.553	33054.9
603.75	33288.37
603.946	33102
604.142	33126.58
604.338	32581.82
604.534	33126.58
604.73	32446.65
604.926	32508.09
605.122	32977.08
605.318	32356.54
605.514	31992
605.71	32422.08
605.906	31965.38
606.102	32268.48
606.298	31989.95
606.494	31836.36
606.69	31967.43
606.886	31979.71
607.082	31363.28
607.278	31819.97
607.474	31486.15
607.67	31586.5
607.866	31287.5
608.062	31365.32
608.257	31609.03
608.453	31256.78
608.649	31271.12
608.845	30925.01
609.041	31021.27
609.236	30744.79
609.432	30822.61
609.628	30898.39
609.824	30619.86
610.019	30220.51
610.215	30474.46
610.411	30449.88
610.606	30294.24
610.802	30453.98
610.998	30236.89
611.193	30204.13
611.389	30042.34
611.584	30132.45
611.78	30052.58
611.976	29921.51
612.171	29876.45
612.367	29776.1
612.562	29780.2
612.758	29432.04
612.953	29047.02
613.149	29753.57
613.344	29309.16
613.539	29751.52
613.735	29497.58
613.93	29685.99
614.126	29049.07
614.321	29415.66
614.517	29374.7
614.712	29010.16
614.907	28930.29
615.103	29225.2
615.298	29180.14
615.493	29186.29
615.688	28621.05
615.884	29286.64
616.079	28449.02
616.274	28602.61
616.47	28260.6
616.665	28504.31
616.86	28573.94
617.055	28154.11
617.25	28709.11
617.445	28756.21
617.641	27930.88
617.836	28279.04
618.031	27828.48
618.226	28242.17
618.421	27742.47
618.616	27937.02
618.811	27392.26
619.006	27898.11
619.201	27269.39
619.396	27410.7
619.591	27046.16
619.786	27232.52
619.981	26992.91
620.176	27238.67
620.371	26507.54
620.566	26951.95
620.761	26646.8
620.956	26845.46
621.151	26351.9
621.346	26335.51
621.541	25887.01
621.735	26157.34
621.93	25483.56
622.125	25839.9
622.32	25547.04
622.515	25516.33
622.709	25248.04
622.904	25164.07
623.099	24973.61
623.294	24977.71
623.488	24611.12
623.683	24793.39
623.878	24639.79
624.072	24760.62
624.267	24435
624.462	24019.26
624.656	23740.74
624.851	24097.08
625.046	23824.7
625.24	23955.77
625.435	23585.09
625.629	23505.22
625.824	23198.02
626.018	23519.56
626.213	22563.15
626.407	22944.08
626.602	22729.04
626.796	22759.76
626.991	22772.05
627.185	22456.66
627.38	22622.55
627.574	22241.62
627.768	21801.31
627.963	21860.7
628.157	21660
628.352	21827.93
628.546	21414.24
628.74	21672.29
628.935	21176.68
629.129	21346.66
629.323	20896.11
629.517	20914.54
629.712	21082.47
629.906	21223.78
630.1	20449.65
630.294	20625.78
630.489	20390.26
630.683	20420.98
630.877	20066.68
631.071	19943.8
631.265	20128.12
631.459	19792.25
631.653	19698.05
631.848	19757.44
632.042	19493.25
632.236	19626.37
632.43	19272.07
632.624	19396.99
632.818	19173.77
633.012	19028.36
633.206	19079.56
633.4	18839.95
633.594	18553.23
633.788	18719.12
633.982	18692.49
634.176	18389.39
634.369	18418.07
634.563	18164.12
634.757	18209.17
634.951	18055.58
635.145	18067.86
635.339	18028.95
635.533	17846.68
635.726	17586.59
635.92	17627.55
636.114	17619.36
636.308	17363.36
636.501	17287.59
636.695	17168.8
636.889	17181.09
637.083	17093.03
637.276	16857.51
637.47	16906.66
637.664	16765.35
637.857	16632.24
638.051	16730.54
638.244	16193.97
638.438	16343.47
638.632	16312.75
638.825	16220.6
639.019	16255.41
639.212	15917.5
639.406	16050.61
639.599	15911.35
639.793	15741.37
639.986	15530.43
640.18	15643.07
640.373	15544.77
640.567	15063.49
640.76	15354.3
640.954	14993.86
641.147	14959.05
641.34	14932.42
641.534	15092.16
641.727	15145.41
641.92	14868.94
642.114	14635.47
642.307	14688.71
642.5	14690.76
642.694	14217.68
642.887	14254.55
643.08	14518.73
643.273	13947.35
643.467	14150.1
643.66	14012.88
643.853	13898.2
644.046	13969.88
644.239	13732.31
644.432	13662.68
644.626	13767.13
644.819	13406.69
645.012	13394.4
645.205	13474.27
645.398	13365.73
645.591	13433.31
645.784	13144.55
645.977	13130.21
646.17	13046.24
646.363	12800.49
646.556	13038.05
646.749	12958.18
646.942	12978.66
647.135	12573.16
647.328	12446.19
647.521	12534.25
647.714	12407.28
647.907	12413.42
648.099	12335.6
648.292	12476.91
648.485	12124.66
648.678	11985.4
648.871	12124.66
649.064	11966.96
649.256	12124.66
649.449	11864.57
649.642	11897.33
649.835	11629.05
650.027	11577.85
650.22	11473.4
650.413	11594.23
650.605	11536.89
650.798	11491.84
650.991	11313.66
651.183	11237.89
651.376	11082.24
651.568	11237.89
651.761	11014.66
651.954	11149.82
652.146	11067.91
652.339	11014.66
652.531	10791.43
652.724	10703.37
652.916	10568.2
653.109	10617.35
653.301	10662.41
653.494	10527.24
653.686	10533.39
653.879	10572.3
654.071	10367.5
654.263	10215.95
654.456	10330.64
654.648	10414.6
654.84	10142.22
655.033	10088.98
655.225	9935.38
655.417	9906.71
655.61	9925.14
655.802	10117.65
655.994	9697.81
656.186	9744.92
656.379	9673.24
656.571	9814.55
656.763	9521.69
656.955	9585.18
657.148	9679.38
657.34	9495.07
657.532	9323.04
657.724	9333.28
657.916	9394.72
658.108	9222.69
658.3	9265.69
658.492	9220.64
658.684	9218.59
658.876	9069.09
659.068	9304.6
659.26	8995.36
659.452	8989.22
659.644	8817.19
659.836	8917.54
660.028	8870.44
660.22	8626.73
660.412	8653.35
660.604	8852
660.796	8696.36
660.988	8632.87
661.18	8528.42
661.372	8342.06
661.563	8598.06
661.755	8303.15
661.947	8350.25
662.139	8397.35
662.331	8372.78
662.522	8182.32
662.714	8204.85
662.906	8235.57
663.097	8184.37
663.289	7934.51
663.481	8106.54
663.673	8008.24
663.864	7729.72
664.056	7721.52
664.247	7686.71
664.439	7836.21
664.631	7733.81
664.822	7772.72
665.014	7696.95
665.205	7612.98
665.397	7612.98
665.588	7588.41
665.78	7387.71
665.971	7514.68
666.163	7406.14
666.354	7539.26
666.546	7451.19
666.737	7324.22
666.929	7238.2
667.12	7299.64
667.311	7187
667.503	7242.3
667.694	7184.96
667.885	7225.92
668.077	7203.39
668.268	7033.41
668.459	7072.32
668.651	6974.02
668.842	7068.22
669.033	6963.78
669.224	6832.71
669.416	6902.34
669.607	7002.69
669.798	6906.43
669.989	6670.92
670.18	6818.37
670.371	6711.88
670.563	6693.44
670.754	6580.81
670.945	6730.31
671.136	6750.79
671.327	6582.85
671.518	6529.61
671.709	6474.31
671.9	6505.03
672.091	6584.9
672.282	6476.36
672.473	6423.11
672.664	6492.74
672.855	6335.05
673.046	6394.44
673.237	6216.27
673.428	6089.29
673.619	6277.71
673.809	6091.34
674	6244.94
674.191	6175.31
674.382	6109.77
674.573	6126.16
674.764	6109.77
674.954	6130.25
675.145	6085.2
675.336	5997.14
675.527	6023.76
675.717	6097.49
675.908	5937.74
676.099	5999.18
676.289	6122.06
676.48	6015.57
676.671	6111.82
676.861	5923.41
677.052	5759.57
677.243	5759.57
677.433	5847.63
677.624	5861.97
677.814	5810.77
678.005	5939.79
678.195	5859.92
678.386	5743.19
678.576	5626.45
678.767	5782.1
678.957	5575.25
679.148	5806.67
679.338	5673.56
679.529	5677.65
679.719	5616.21
679.909	5804.63
680.1	5839.44
680.29	5599.83
680.481	5753.43
680.671	5665.36
680.861	5575.25
681.052	5689.94
681.242	5702.23
681.432	5591.64
681.622	5575.25
681.813	5511.77
682.003	5517.91
682.193	5294.68
682.383	5571.16
682.573	5411.42
682.764	5464.66
682.954	5454.42
683.144	5565.01
683.334	5409.37
683.524	5456.47
683.714	5491.29
683.904	5403.22
684.094	5345.88
684.284	5321.31
684.474	5419.61
684.664	5362.26
684.854	5325.4
685.044	5333.59
685.234	5237.34
685.424	5284.44
685.614	5204.57
685.804	5345.88
685.994	5247.58
686.184	5124.7
686.374	5169.76
686.564	5280.35
686.753	5214.81
686.943	5065.31
687.133	5071.45
687.323	4940.38
687.513	5116.51
687.702	5096.03
687.892	4854.37
688.082	4952.67
688.272	5096.03
688.461	4983.39
688.651	4960.86
688.841	4872.8
689.03	4833.89
689.22	4936.29
689.41	4926.05
689.599	4868.7
689.789	4821.6
689.979	4797.03
690.168	4790.88
690.358	4631.14
690.547	4719.2
690.737	4706.91
690.926	4672.1
691.116	4698.72
691.305	4618.85
691.495	4639.33
691.684	4602.47
691.874	4590.18
692.063	4600.42
692.252	4649.57
692.442	4663.91
692.631	4616.8
692.82	4672.1
693.01	4459.11
693.199	4620.9
693.388	4452.97
693.578	4514.41
693.767	4391.53
693.956	4538.98
694.146	4434.53
694.335	4278.89
694.524	4346.47
694.713	4432.49
694.902	4369
695.092	4338.28
695.281	4336.23
695.47	4387.43
695.659	4309.61
695.848	4291.18
696.037	4317.8
696.226	4207.21
696.415	4297.32
696.604	4272.75
696.793	4168.3
696.982	4264.55
697.171	4178.54
697.36	4356.71
697.549	4270.7
697.738	4291.18
697.927	4358.76
698.116	4231.79
698.305	4293.23
698.494	4375.14
698.683	4196.97
698.872	4321.9
699.061	4201.07
699.25	4160.11
699.438	4149.87
699.627	4166.25
699.816	4237.93
700.005	4180.59
700.193	4207.21
700.382	4184.68
700.571	4143.72
700.76	4151.92
700.948	4180.59
701.137	4225.64
701.326	4047.47
701.514	4153.96
701.703	4190.83
701.892	4143.72
702.08	4178.54
702.269	4158.06
702.457	4100.72
702.646	4121.2
702.834	4117.1
703.023	4014.7
703.212	4205.16
703.4	4123.24
703.589	4110.96
703.777	3983.98
703.965	4102.76
704.154	4010.61
704.342	4166.25
704.531	4049.52
704.719	4115.05
704.907	4186.73
705.096	3994.22
705.284	4102.76
705.472	4156.01
705.661	4061.8
705.849	4106.86
706.037	4057.71
706.226	4119.15
706.414	3992.17
706.602	4113
706.79	4108.91
706.979	3971.69
707.167	4043.37
707.355	4162.16
707.543	4094.57
707.731	4123.24
707.919	4070
708.107	3983.98
708.296	4133.48
708.484	3975.79
708.672	4043.37
708.86	4078.19
709.048	4031.09
709.236	4035.18
709.424	4174.44
709.612	4133.48
709.8	3973.74
709.988	3957.36
710.176	4059.76
710.364	4074.09
710.551	3895.92
710.739	4010.61
710.927	4047.47
711.115	4070
711.303	4254.31
711.491	4067.95
711.679	4014.7
711.866	4022.89
712.054	4055.66
712.242	4004.46
712.43	4147.82
712.617	4092.52
712.805	3983.98
712.993	3973.74
713.181	4178.54
713.368	4000.37
713.556	4014.7
713.744	3887.73
713.931	4137.58
714.119	4051.56
714.306	3885.68
714.494	3963.5
714.682	4016.75
714.869	3867.25
715.057	4053.61
715.244	4088.43
715.432	4094.57
715.619	4031.09
715.807	4026.99
715.994	4102.76
716.182	3947.12
716.369	4014.7
716.556	4086.38
716.744	4061.8
716.931	3953.26
717.119	4076.14
717.306	3895.92
717.493	3967.6
717.681	3961.45
717.868	4149.87
718.055	3943.02
718.242	4018.8
718.43	3850.86
718.617	3897.97
718.804	3996.27
718.991	4039.28
719.179	3965.55
719.366	3965.55
719.553	4061.8
719.74	3924.59
719.927	4031.09
720.114	3932.78
720.301	3957.36
720.488	4047.47
720.676	3916.4
720.863	3832.43
721.05	3916.4
721.237	3877.49
721.424	3975.79
721.611	3902.06
721.798	3723.89
721.985	3916.4
722.172	3906.16
722.358	3947.12
722.545	3906.16
722.732	3988.08
722.919	3902.06
723.106	3959.41
723.293	3717.75
723.48	3955.31
723.667	3834.48
723.853	3875.44
724.04	3801.71
724.227	3758.71
724.414	3848.82
724.6	3859.06
724.787	3902.06
724.974	3701.36
725.161	3799.66
725.347	3770.99
725.534	3709.55
725.72	3863.15
725.907	3906.16
726.094	3750.51
726.28	3875.44
726.467	3824.24
726.653	3811.95
726.84	3936.88
727.027	3713.65
727.213	3842.67
727.4	3727.99
727.586	3846.77
727.773	3723.89
727.959	3762.8
728.145	3889.78
728.332	3676.79
728.518	3752.56
728.705	3918.45
728.891	3846.77
729.077	3721.84
729.264	3746.42
729.45	3621.49
729.636	3601.01
729.823	3732.08
730.009	3658.35
730.195	3531.38
730.382	3691.12
730.568	3756.66
730.754	3711.6
730.94	3701.36
731.126	3709.55
731.313	3670.64
731.499	3740.27
731.685	3814
731.871	3633.78
732.057	3699.31
732.243	3582.58
732.429	3766.9
732.615	3691.12
732.801	3648.11
732.987	3603.06
733.173	3672.69
733.359	3736.18
733.545	3535.48
733.731	3613.3
733.917	3515
734.103	3674.74
734.289	3691.12
734.475	3549.81
734.661	3605.11
734.847	3553.91
735.033	3553.91
735.219	3623.54
735.404	3586.68
735.59	3494.52
735.776	3418.74
735.962	3601.01
736.148	3484.28
736.333	3484.28
736.519	3517.05
736.705	3471.99
736.89	3394.17
737.076	3287.67
737.262	3383.93
737.447	3400.31
737.633	3400.31
737.819	3381.88
738.004	3400.31
738.19	3412.6
738.375	3322.49
738.561	3445.37
738.747	3302.01
738.932	3220.09
739.118	3404.41
739.303	3328.63
739.489	3420.79
739.674	3443.32
739.859	3256.95
740.045	3416.69
740.23	3215.99
740.416	3172.99
740.601	3297.91
740.786	3263.1
740.972	3142.27
741.157	3259
741.342	3162.75
741.528	3312.25
741.713	3220.09
741.898	3121.79
742.084	3191.42
742.269	3254.9
742.454	3199.61
742.639	3158.65
742.824	3166.84
743.01	3152.51
743.195	3144.31
743.38	3050.11
743.565	3132.03
743.75	3162.75
743.935	3017.34
744.12	3144.31
744.305	2916.99
744.49	3003
744.675	2945.66
744.86	3054.2
745.045	3054.2
745.23	2996.86
745.415	2919.04
745.6	2734.72
745.785	2867.84
745.97	2923.13
746.155	2806.4
746.34	2976.38
746.525	2794.11
746.71	2806.4
746.895	2757.25
747.079	2787.97
747.264	2650.75
747.449	2761.34
747.634	2722.43
747.819	2771.58
748.003	2812.54
748.188	2749.06
748.373	2779.78
748.557	2744.96
748.742	2642.56
748.927	2597.51
749.111	2540.16
749.296	2572.93
749.481	2501.25
749.665	2484.87
749.85	2415.24
750.034	2507.4
750.219	2503.3
750.404	2462.34
750.588	2572.93
750.773	2394.76
750.957	2388.61
751.141	2405
751.326	2382.47
751.51	2378.37
751.695	2388.61
751.879	2345.61
752.064	2378.37
752.248	2353.8
752.432	2218.63
752.617	2275.98
752.801	2327.18
752.985	2464.39
753.17	2165.39
753.354	2290.31
753.538	2288.26
753.722	2091.66
753.907	2157.19
754.091	2181.77
754.275	2157.19
754.459	2138.76
754.643	2163.34
754.828	2036.36
755.012	2036.36
755.196	2007.69
755.38	2062.99
755.564	2015.88
755.748	1938.06
755.932	1952.4
756.116	2015.88
756.3	1970.83
756.484	1911.44
756.668	1827.47
756.852	1962.64
757.036	1897.1
757.22	1917.58
757.404	1876.62
757.588	1905.29
757.772	1921.68
757.956	1962.64
758.14	1792.66
758.323	1800.85
758.507	1741.46
758.691	1800.85
758.875	1802.9
759.059	1882.77
759.242	1835.66
759.426	1665.68
759.61	1610.39
759.794	1763.98
759.977	1714.83
760.161	1706.64
760.345	1747.6
760.528	1731.22
760.712	1630.87
760.895	1614.48
761.079	1596.05
761.263	1559.19
761.446	1673.87
761.63	1598.1
761.813	1614.48
761.997	1643.15
762.18	1550.99
762.364	1585.81
762.547	1516.18
762.731	1565.33
762.914	1608.34
763.098	1647.25
763.281	1528.47
763.464	1544.85
763.648	1563.28
763.831	1596.05
764.015	1520.28
764.198	1667.73
764.381	1526.42
764.564	1563.28
764.748	1454.74
764.931	1589.91
765.114	1430.16
765.297	1604.24
765.481	1497.75
765.664	1481.36
765.847	1419.93
766.03	1456.79
766.213	1411.73
766.397	1477.27
766.58	1323.67
766.763	1458.84
766.946	1510.04
767.129	1458.84
767.312	1356.44
767.495	1430.16
767.678	1303.19
767.861	1321.62
768.044	1395.35
768.227	1350.29
768.41	1362.58
768.593	1370.77
768.776	1288.86
768.959	1331.86
769.142	1292.95
769.324	1247.9
769.507	1323.67
769.69	1399.45
769.873	1245.85
770.056	1378.97
770.239	1221.27
770.421	1378.97
770.604	1254.04
770.787	1282.71
770.97	1251.99
771.152	1180.31
771.335	1235.61
771.518	1223.32
771.7	1262.23
771.883	1335.96
772.066	1274.52
772.248	1237.66
772.431	1200.79
772.613	1221.27
772.796	1135.26
772.978	1135.26
773.161	1217.18
773.343	1165.98
773.526	1149.59
773.708	1157.78
773.891	1061.53
774.073	1149.59
774.256	1182.36
774.438	1106.59
774.621	1118.87
774.803	1055.39
774.985	1034.91
775.168	1075.87
775.35	1086.11
775.532	1073.82
775.715	1049.24
775.897	1065.63
776.079	1102.49
776.261	1084.06
776.444	971.42
776.626	1055.39
776.808	950.94
776.99	1047.19
777.173	1131.16
777.355	989.85
777.537	1034.91
777.719	957.08
777.901	957.08
778.083	944.8
778.265	938.65
778.447	963.23
778.629	952.99
778.811	938.65
778.993	975.52
779.175	928.41
779.357	846.49
779.539	842.4
779.721	881.31
779.903	848.54
780.085	930.46
780.267	918.17
780.449	895.64
780.631	940.7
780.812	889.5
780.994	871.07
781.176	844.45
781.358	836.25
781.54	842.4
781.721	828.06
781.903	819.87
782.085	805.53
782.267	789.15
782.448	770.72
782.63	717.47
782.812	791.2
782.993	834.21
783.175	748.19
783.357	780.96
783.538	744.1
783.72	699.04
783.901	750.24
784.083	709.28
784.264	686.75
784.446	707.23
784.627	664.22
784.809	715.42
784.99	742.05
785.172	778.91
785.353	703.14
785.535	682.66
785.716	625.31
785.897	746.14
786.079	664.22
786.26	602.79
786.441	653.98
786.623	641.7
786.804	649.89
786.985	633.51
787.167	682.66
787.348	664.22
787.529	641.7
787.71	582.31
787.891	602.79
788.073	549.54
788.254	586.4
788.435	520.87
788.616	574.11
788.797	545.44
788.978	555.68
789.159	557.73
789.34	588.45
789.522	604.83
789.703	584.35
789.884	549.54
790.065	596.64
790.246	543.39
790.427	549.54
790.607	610.98
790.788	561.83
790.969	453.28
791.15	481.96
791.331	543.39
791.512	520.87
791.693	553.63
791.874	500.39
792.054	586.4
792.235	510.63
792.416	541.35
792.597	506.53
792.778	559.78
792.958	512.67
793.139	504.48
793.32	600.74
793.5	516.77
793.681	524.96
793.862	475.81
794.042	473.76
794.223	447.14
794.404	381.6
794.584	463.52
794.765	434.85
794.945	465.57
795.126	551.59
795.306	477.86
795.487	420.52
795.667	438.95
795.848	426.66
796.028	414.37
796.209	428.71
796.389	385.7
796.57	379.56
796.75	441
796.93	506.53
797.111	373.41
797.291	336.55
797.471	438.95
797.652	414.37
797.832	371.37
798.012	416.42
798.192	373.41
798.373	383.65
798.553	373.41
798.733	404.13
798.913	357.03
799.093	301.73
799.274	408.23
799.454	438.95
799.634	418.47
799.814	365.22
799.994	400.04
800.174	443.04
800.354	332.45
800.534	311.97
800.714	379.56
800.894	338.6
801.074	365.22
801.254	303.78
801.434	447.14
801.614	346.79
801.794	295.59
801.974	860.83
802.154	287.4
802.334	314.02
802.514	252.58
802.693	285.35
802.873	301.73
803.053	402.08
803.233	330.41
803.413	332.45
803.592	305.83
803.772	273.06
803.952	314.02
804.131	367.27
804.311	361.13
804.491	354.98
804.67	348.84
804.85	242.34
805.03	342.69
805.209	299.69
805.389	301.73
805.568	316.07
805.748	330.41
805.928	316.07
806.107	318.12
806.287	332.45
806.466	346.79
806.646	346.79
806.825	330.41
807.004	334.5
807.184	354.98
807.363	320.17
807.543	266.92
807.722	215.72
807.901	363.17
808.081	268.97
808.26	209.58
808.439	309.93
808.619	266.92
808.798	242.34
808.977	291.49
809.156	297.64
809.336	166.57
809.515	322.21
809.694	256.68
809.873	281.25
810.052	340.65
810.231	254.63
810.411	297.64
810.59	240.3
810.769	275.11
810.948	191.14
811.127	221.86
811.306	230.06
811.485	250.53
811.664	340.65
811.843	262.82
812.022	281.25
812.201	271.01
812.38	238.25
812.559	223.91
812.737	291.49
812.916	283.3
813.095	246.44
813.274	178.86
813.453	203.43
813.632	291.49
813.811	246.44
813.989	197.29
814.168	185
814.347	236.2
814.526	205.48
814.704	250.53
814.883	299.69
815.062	271.01
815.24	225.96
815.419	191.14
815.598	232.1
815.776	232.1
815.955	162.47
816.133	191.14
816.312	320.17
816.49	268.97
816.669	197.29
816.847	221.86
817.026	207.53
817.204	203.43
817.383	195.24
817.561	240.3
817.74	189.1
817.918	305.83
818.097	150.18
818.275	197.29
818.453	201.38
818.632	234.15
818.81	176.81
818.988	127.66
819.167	154.28
819.345	154.28
819.523	144.04
819.701	170.66
819.879	236.2
820.058	137.9
820.236	260.77
820.414	166.57
820.592	152.23
820.77	111.27
820.948	178.86
821.127	197.29
821.305	119.46
821.483	139.94
821.661	187.05
821.839	139.94
822.017	105.13
822.195	189.1
822.373	156.33
822.551	195.24
822.729	203.43
822.907	162.47
823.085	107.18
823.262	158.38
823.44	137.9
823.618	123.56
823.796	185
823.974	141.99
824.152	105.13
824.329	205.48
824.507	170.66
824.685	168.62
824.863	172.71
825.04	158.38
825.218	168.62
825.396	127.66
825.574	246.44
825.751	152.23
825.929	76.46
826.107	113.32
826.284	178.86
826.462	129.7
826.639	121.51
826.817	84.65
826.994	135.85
827.172	185
827.349	160.42
827.527	185
827.704	144.04
827.882	121.51
828.059	148.14
828.237	86.7
828.414	195.24
828.591	53.93
828.769	144.04
828.946	96.94
829.124	178.86
829.301	172.71
829.478	123.56
829.655	125.61
829.833	101.03
830.01	74.41
830.187	139.94
830.364	6.83
830.542	115.37
830.719	174.76
830.896	98.99
831.073	92.84
831.25	121.51
831.427	117.42
831.604	62.12
831.782	31.4
831.959	146.09
832.136	62.12
832.313	152.23
832.49	94.89
832.667	129.7
832.844	101.03
833.021	205.48
833.198	150.18
833.374	47.79
833.551	98.99
833.728	121.51
833.905	150.18
834.082	88.75
834.259	109.23
834.436	111.27
834.612	107.18
834.789	189.1
834.966	39.59
835.143	133.8
835.319	74.41
835.496	217.77
835.673	176.81
835.85	74.41
836.026	37.55
836.203	127.66
836.38	86.7
836.556	121.51
836.733	111.27
836.909	154.28
837.086	51.88
837.262	60.07
837.439	119.46
837.616	41.64
837.792	117.42
837.968	131.75
838.145	31.4
838.321	72.36
838.498	129.7
838.674	185
838.851	127.66
839.027	82.6
839.203	121.51
839.38	98.99
839.556	62.12
839.732	109.23
839.909	117.42
840.085	119.46
840.261	58.03
840.437	103.08
840.614	55.98
840.79	74.41
840.966	94.89
841.142	133.8
841.318	90.79
841.494	121.51
841.671	113.32
841.847	19.11
842.023	29.35
842.199	131.75
842.375	72.36
842.551	-3.41
842.727	37.55
842.903	162.47
843.079	-11.61
843.255	129.7
843.431	21.16
843.607	51.88
843.783	6.83
843.959	84.65
844.134	-7.51
844.31	119.46
844.486	115.37
844.662	8.87
844.838	8.87
845.013	127.66
845.189	98.99
845.365	76.46
845.541	94.89
845.716	47.79
845.892	88.75
846.068	21.16
846.244	-3.41
846.419	94.89
846.595	-30.04
846.77	78.51
846.946	90.79
847.122	-19.8
847.297	15.02
847.473	98.99
847.648	78.51
847.824	72.36
847.999	8.87
848.175	15.02
848.35	41.64
848.526	141.99
848.701	31.4
848.876	80.55
849.052	152.23
849.227	70.31
849.403	55.98
849.578	64.17
849.753	53.93
849.929	39.59
850.104	76.46
850.279	55.98
850.454	45.74
850.63	19.11
850.805	27.31
850.98	-27.99
851.155	35.5
851.33	58.03
851.505	55.98
851.681	6.83
851.856	37.55
852.031	49.83
852.206	88.75
852.381	23.21
852.556	68.27
852.731	15.02
852.906	12.97
853.081	105.13
853.256	29.35
853.431	21.16
853.606	29.35
853.781	-64.85
853.956	37.55
854.131	84.65
854.305	62.12
854.48	53.93
854.655	-21.84
854.83	90.79
855.005	43.69
855.18	86.7
855.354	49.83
855.529	21.16
855.704	27.31
855.879	66.22
856.053	33.45
856.228	27.31
856.403	-17.75
856.577	49.83
856.752	-21.84
856.926	-7.51
857.101	117.42
857.276	60.07
857.45	41.64
857.625	-89.43
857.799	29.35
857.974	10.92
858.148	-52.56
858.323	117.42
858.497	45.74
858.672	8.87
858.846	-66.9
859.02	49.83
859.195	-11.61
859.369	29.35
859.543	25.26
859.718	19.11
859.892	6.83
860.066	2.73
860.241	19.11
860.415	-21.84
860.589	47.79
860.763	35.5
860.938	47.79
861.112	96.94
861.286	94.89
861.46	70.31
861.634	47.79
861.808	8.87
861.982	-23.89
862.157	-11.61
862.331	-1.37
862.505	37.55
862.679	53.93
862.853	27.31
863.027	53.93
863.201	60.07
863.375	15.02
863.549	72.36
863.722	84.65
863.896	33.45
864.07	72.36
864.244	25.26
864.418	-11.61
864.592	12.97
864.766	51.88
864.939	49.83
865.113	15.02
865.287	29.35
865.461	-68.95
865.634	58.03
865.808	53.93
865.982	-9.56
866.156	41.64
866.329	-19.8
866.503	49.83
866.676	113.32
866.85	66.22
867.024	33.45
867.197	37.55
867.371	-1.37
867.544	8.87
867.718	-32.08
867.891	53.93
868.065	37.55
868.238	0.68
868.412	121.51
868.585	17.07
868.759	31.4
868.932	43.69
869.105	-25.94
869.279	68.27
869.452	-77.14
869.625	98.99
869.799	39.59
869.972	33.45
870.145	101.03
870.319	98.99
870.492	-30.04
870.665	12.97
870.838	25.26
871.011	-38.23
871.185	-95.57
871.358	-25.94
871.531	6.83
871.704	-32.08
871.877	41.64
872.05	-25.94
872.223	-3.41
872.396	49.83
872.569	49.83
872.742	-5.46
872.915	-11.61
873.088	0.68
873.261	-40.28
873.434	107.18
873.607	-38.23
873.78	45.74
873.953	23.21
874.126	6.83
874.299	68.27
874.471	-15.7
874.644	12.97
874.817	43.69
874.99	78.51
875.163	12.97
875.335	15.02
875.508	17.07
875.681	58.03
875.853	4.78
876.026	29.35
876.199	68.27
876.371	12.97
876.544	45.74
876.717	8.87
876.889	17.07
877.062	-99.67
877.234	-11.61
877.407	58.03
877.579	82.6
877.752	109.23
877.924	103.08
878.097	-32.08
878.269	12.97
878.442	33.45
878.614	-3.41
878.786	37.55
878.959	33.45
879.131	21.16
879.303	-7.51
879.476	12.97
879.648	-7.51
879.82	31.4
879.993	8.87
880.165	21.16
880.337	-48.47
880.509	-15.7
880.681	-5.46
880.854	-60.76
881.026	27.31
881.198	86.7
881.37	21.16
881.542	45.74
881.714	-32.08
881.886	33.45
882.058	19.11
882.23	51.88
882.402	31.4
882.574	17.07
882.746	115.37
882.918	60.07
883.09	62.12
883.262	2.73
883.434	-38.23
883.606	-21.84
883.778	-58.71
883.95	64.17
884.122	10.92
884.293	23.21
884.465	8.87
884.637	19.11
884.809	4.78
884.98	129.7
885.152	-19.8
885.324	92.84
885.496	-23.89
885.667	-25.94
885.839	51.88
886.011	-27.99
886.182	88.75
886.354	-27.99
886.525	-36.18
886.697	-36.18
886.869	-11.61
887.04	49.83
887.212	45.74
887.383	-11.61
887.555	0.68
887.726	35.5
887.897	-21.84
888.069	15.02
888.24	-36.18
888.412	0.68
888.583	31.4
888.754	-3.41
888.926	45.74
889.097	21.16
889.268	-48.47
889.44	25.26
889.611	-13.65
889.782	-46.42
889.953	-91.48
890.125	-9.56
890.296	-71
890.467	27.31
890.638	2.73
890.809	-5.46
890.98	-50.52
891.151	-46.42
891.323	35.5
891.494	74.41
891.665	27.31
891.836	-9.56
892.007	35.5
892.178	4.78
892.349	-27.99
892.52	58.03
892.691	33.45
892.862	41.64
893.032	-46.42
893.203	-19.8
893.374	-9.56
893.545	27.31
893.716	-30.04
893.887	64.17
894.057	-32.08
894.228	53.93
894.399	-17.75
894.57	-32.08
894.74	8.87
894.911	49.83
895.082	43.69
895.253	21.16
895.423	-19.8
895.594	17.07
895.764	43.69
895.935	-32.08
896.106	41.64
896.276	-5.46
896.447	62.12
896.617	33.45
896.788	-40.28
896.958	-66.9
897.129	35.5
897.299	-23.89
897.47	66.22
897.64	0.68
897.81	-36.18
897.981	12.97
898.151	17.07
898.322	23.21
898.492	2.73
898.662	2.73
898.832	-60.76
899.003	27.31
899.173	-21.84
899.343	-11.61
899.513	-5.46
