Data from USB4F104151__136__10-25-51-600.txt Node

Date: Wed Mar 12 10:25:51 EDT 2025
User: louis
Spectrometer: USB4F10415
Trigger mode: 4
Integration Time (sec): 3.000000E-2
Scans to average: 1
Electric dark correction enabled: true
Nonlinearity correction enabled: false
Boxcar width: 0
XAxis mode: Wavelengths
Number of Pixels in Spectrum: 3648
>>>>>Begin Spectral Data<<<<<
178.204	-105.81
178.424	-105.81
178.644	-105.81
178.864	-128.34
179.084	-79.19
179.304	-25.94
179.524	-23.89
179.744	8.87
179.964	10.92
180.184	55.98
180.404	-7.51
180.624	-27.99
180.844	33.45
181.064	-52.56
181.283	49.83
181.503	-75.09
181.723	53.93
181.943	-85.33
182.163	64.17
182.383	68.27
182.602	-27.99
182.822	68.27
183.042	29.35
183.262	-5.46
183.482	-17.75
183.701	8.87
183.921	70.31
184.141	-1.37
184.361	84.65
184.58	33.45
184.8	-77.14
185.02	27.31
185.239	23.21
185.459	51.88
185.679	15.02
185.898	-11.61
186.118	72.36
186.338	25.26
186.557	53.93
186.777	6.83
186.997	88.75
187.216	-5.46
187.436	68.27
187.655	25.26
187.875	107.18
188.095	-23.89
188.314	78.51
188.534	70.31
188.753	58.03
188.973	78.51
189.192	103.08
189.412	35.5
189.631	23.21
189.851	33.45
190.07	0.68
190.29	8.87
190.509	23.21
190.729	43.69
190.948	33.45
191.168	45.74
191.387	-13.65
191.607	0.68
191.826	29.35
192.045	-27.99
192.265	15.02
192.484	-25.94
192.704	4.78
192.923	-1.37
193.142	98.99
193.362	35.5
193.581	19.11
193.8	-5.46
194.02	101.03
194.239	96.94
194.458	-17.75
194.678	-15.7
194.897	25.26
195.116	80.55
195.335	29.35
195.555	39.59
195.774	6.83
195.993	74.41
196.212	-23.89
196.432	31.4
196.651	4.78
196.87	15.02
197.089	35.5
197.308	17.07
197.528	60.07
197.747	35.5
197.966	8.87
198.185	31.4
198.404	39.59
198.623	8.87
198.842	37.55
199.062	82.6
199.281	47.79
199.5	8.87
199.719	94.89
199.938	92.84
200.157	115.37
200.376	49.83
200.595	113.32
200.814	60.07
201.033	55.98
201.252	49.83
201.471	-5.46
201.69	4.78
201.909	21.16
202.128	66.22
202.347	53.93
202.566	37.55
202.785	15.02
203.004	-7.51
203.223	90.79
203.442	62.12
203.661	-13.65
203.879	49.83
204.098	55.98
204.317	-71
204.536	98.99
204.755	74.41
204.974	-3.41
205.193	88.75
205.411	58.03
205.63	55.98
205.849	72.36
206.068	39.59
206.287	43.69
206.505	-19.8
206.724	2.73
206.943	-5.46
207.162	-40.28
207.381	-7.51
207.599	47.79
207.818	47.79
208.037	0.68
208.255	21.16
208.474	70.31
208.693	-11.61
208.911	31.4
209.13	-48.47
209.349	35.5
209.567	6.83
209.786	70.31
210.005	86.7
210.223	45.74
210.442	-25.94
210.661	49.83
210.879	-1.37
211.098	62.12
211.316	17.07
211.535	37.55
211.753	-1.37
211.972	10.92
212.191	33.45
212.409	19.11
212.628	121.51
212.846	10.92
213.065	0.68
213.283	64.17
213.502	31.4
213.72	12.97
213.938	12.97
214.157	29.35
214.375	4.78
214.594	62.12
214.812	70.31
215.031	74.41
215.249	58.03
215.467	70.31
215.686	41.64
215.904	113.32
216.122	19.11
216.341	55.98
216.559	-9.56
216.778	25.26
216.996	53.93
217.214	35.5
217.432	4.78
217.651	-13.65
217.869	53.93
218.087	49.83
218.306	10.92
218.524	17.07
218.742	49.83
218.96	45.74
219.179	-15.7
219.397	-25.94
219.615	58.03
219.833	41.64
220.051	4.78
220.27	66.22
220.488	92.84
220.706	41.64
220.924	-40.28
221.142	-17.75
221.36	0.68
221.578	86.7
221.796	41.64
222.015	98.99
222.233	-1.37
222.451	68.27
222.669	43.69
222.887	55.98
223.105	-5.46
223.323	78.51
223.541	35.5
223.759	41.64
223.977	-7.51
224.195	109.23
224.413	119.46
224.631	90.79
224.849	17.07
225.067	105.13
225.285	-32.08
225.503	86.7
225.721	-21.85
225.939	17.07
226.157	53.93
226.375	152.23
226.592	55.98
226.81	35.5
227.028	62.12
227.246	58.03
227.464	90.79
227.682	72.36
227.9	0.68
228.117	35.5
228.335	-5.46
228.553	-38.23
228.771	21.16
228.989	58.03
229.206	64.17
229.424	35.5
229.642	80.55
229.86	33.45
230.077	-32.08
230.295	21.16
230.513	6.83
230.731	80.55
230.948	39.59
231.166	23.21
231.384	103.08
231.601	29.35
231.819	105.13
232.037	45.74
232.254	8.87
232.472	25.26
232.689	29.35
232.907	-7.51
233.125	33.45
233.342	55.98
233.56	41.64
233.777	129.7
233.995	74.41
234.213	51.88
234.43	129.7
234.648	35.5
234.865	39.59
235.083	113.32
235.3	-11.61
235.518	10.92
235.735	12.97
235.953	80.55
236.17	31.4
236.388	94.89
236.605	49.83
236.822	58.03
237.04	43.69
237.257	17.07
237.475	49.83
237.692	76.46
237.909	84.65
238.127	-17.75
238.344	107.18
238.562	41.64
238.779	37.55
238.996	-46.42
239.214	92.84
239.431	62.12
239.648	23.21
239.865	25.26
240.083	23.21
240.3	2.73
240.517	70.31
240.735	111.27
240.952	47.79
241.169	23.21
241.386	41.64
241.603	64.17
241.821	-77.14
242.038	60.07
242.255	27.31
242.472	-21.85
242.689	6.83
242.907	58.03
243.124	39.59
243.341	41.64
243.558	-11.61
243.775	115.37
243.992	6.83
244.209	15.02
244.426	107.18
244.643	86.7
244.86	68.27
245.078	49.83
245.295	111.27
245.512	39.59
245.729	-5.46
245.946	62.12
246.163	72.36
246.38	39.59
246.597	70.31
246.814	-19.8
247.031	45.74
247.248	-9.56
247.464	94.89
247.681	96.94
247.898	0.68
248.115	49.83
248.332	37.55
248.549	64.17
248.766	90.79
248.983	51.88
249.2	10.92
249.417	51.88
249.633	-5.46
249.85	31.4
250.067	37.55
250.284	86.7
250.501	-15.7
250.717	51.88
250.934	15.02
251.151	64.17
251.368	74.41
251.585	103.08
251.801	62.12
252.018	45.74
252.235	58.03
252.451	-50.52
252.668	4.78
252.885	72.36
253.102	37.55
253.318	90.79
253.535	10.92
253.752	66.22
253.968	15.02
254.185	17.07
254.401	66.22
254.618	15.02
254.835	-71
255.051	96.94
255.268	21.16
255.484	37.55
255.701	74.41
255.917	115.37
256.134	25.26
256.351	76.46
256.567	15.02
256.784	-1.37
257	-46.42
257.217	55.98
257.433	25.26
257.65	117.42
257.866	62.12
258.082	25.26
258.299	4.78
258.515	105.13
258.732	-11.61
258.948	144.04
259.165	-7.51
259.381	31.4
259.597	0.68
259.814	35.5
260.03	64.17
260.246	64.17
260.463	43.69
260.679	84.65
260.895	-11.61
261.112	74.41
261.328	31.4
261.544	41.64
261.761	113.32
261.977	12.97
262.193	8.87
262.409	98.99
262.626	29.35
262.842	66.22
263.058	-15.7
263.274	141.99
263.49	103.08
263.707	58.03
263.923	53.93
264.139	70.31
264.355	15.02
264.571	33.45
264.787	103.08
265.004	58.03
265.22	94.89
265.436	82.6
265.652	-11.61
265.868	29.35
266.084	-11.61
266.3	35.5
266.516	6.83
266.732	15.02
266.948	105.13
267.164	41.64
267.38	49.83
267.596	78.51
267.812	98.99
268.028	41.64
268.244	-13.65
268.46	27.31
268.676	45.74
268.892	-15.7
269.108	43.69
269.324	17.07
269.54	-21.85
269.756	35.5
269.972	-58.71
270.188	-19.8
270.403	-9.56
270.619	94.89
270.835	29.35
271.051	103.08
271.267	45.74
271.483	41.64
271.698	23.21
271.914	70.31
272.13	39.59
272.346	35.5
272.562	-23.89
272.777	-9.56
272.993	-7.51
273.209	53.93
273.425	88.75
273.64	19.11
273.856	39.59
274.072	74.41
274.287	15.02
274.503	164.52
274.719	74.41
274.934	135.85
275.15	39.59
275.366	12.97
275.581	-13.65
275.797	60.07
276.012	31.4
276.228	23.21
276.444	-17.75
276.659	109.23
276.875	37.55
277.09	15.02
277.306	49.83
277.521	41.64
277.737	90.79
277.952	84.65
278.168	-13.65
278.383	78.51
278.599	19.11
278.814	68.27
279.03	-23.89
279.245	90.79
279.461	-21.85
279.676	60.07
279.892	19.11
280.107	-19.8
280.322	6.83
280.538	82.6
280.753	66.22
280.969	64.17
281.184	72.36
281.399	82.6
281.615	47.79
281.83	41.64
282.045	74.41
282.26	19.11
282.476	51.88
282.691	53.93
282.906	37.55
283.122	17.07
283.337	31.4
283.552	88.75
283.767	43.69
283.983	70.31
284.198	64.17
284.413	39.59
284.628	37.55
284.843	53.93
285.058	-7.51
285.274	0.68
285.489	-34.13
285.704	62.12
285.919	35.5
286.134	123.56
286.349	21.16
286.564	-3.41
286.779	66.22
286.995	41.64
287.21	58.03
287.425	49.83
287.64	-50.52
287.855	60.07
288.07	10.92
288.285	35.5
288.5	84.65
288.715	45.74
288.93	-32.08
289.145	21.16
289.36	2.73
289.575	-17.75
289.79	84.65
290.004	21.16
290.219	15.02
290.434	101.03
290.649	15.02
290.864	78.51
291.079	29.35
291.294	70.31
291.509	37.55
291.724	-3.41
291.938	47.79
292.153	74.41
292.368	-36.18
292.583	51.88
292.798	82.6
293.012	86.7
293.227	27.31
293.442	103.08
293.657	29.35
293.871	96.94
294.086	90.79
294.301	49.83
294.516	64.17
294.73	90.79
294.945	-52.56
295.16	31.4
295.374	90.79
295.589	72.36
295.804	25.26
296.018	51.88
296.233	29.35
296.447	-40.28
296.662	-17.75
296.877	39.59
297.091	58.03
297.306	47.79
297.52	107.18
297.735	70.31
297.949	70.31
298.164	103.08
298.378	-27.99
298.593	-17.75
298.807	55.98
299.022	70.31
299.236	115.37
299.451	51.88
299.665	55.98
299.88	33.45
300.094	123.56
300.309	47.79
300.523	111.27
300.737	-64.85
300.952	146.09
301.166	90.79
301.381	70.31
301.595	10.92
301.809	-11.61
302.024	43.69
302.238	-7.51
302.452	-5.46
302.667	47.79
302.881	47.79
303.095	-15.7
303.309	98.99
303.524	119.46
303.738	-15.7
303.952	41.64
304.166	62.12
304.381	-23.89
304.595	53.93
304.809	8.87
305.023	68.27
305.237	15.02
305.452	29.35
305.666	131.75
305.88	33.45
306.094	0.68
306.308	103.08
306.522	127.66
306.736	78.51
306.95	64.17
307.164	47.79
307.379	53.93
307.593	105.13
307.807	21.16
308.021	53.93
308.235	27.31
308.449	-5.46
308.663	74.41
308.877	158.38
309.091	45.74
309.305	45.74
309.519	-9.56
309.733	80.55
309.947	74.41
310.161	68.27
310.374	74.41
310.588	117.42
310.802	-1.37
311.016	6.83
311.23	17.07
311.444	-7.51
311.658	86.7
311.872	66.22
312.085	49.83
312.299	135.85
312.513	115.37
312.727	74.41
312.941	17.07
313.154	17.07
313.368	66.22
313.582	-7.51
313.796	115.37
314.009	4.78
314.223	25.26
314.437	74.41
314.651	37.55
314.864	70.31
315.078	8.87
315.292	-13.65
315.505	12.97
315.719	29.35
315.933	37.55
316.146	111.27
316.36	37.55
316.573	70.31
316.787	6.83
317.001	-7.51
317.214	-1.37
317.428	49.83
317.641	21.16
317.855	-15.7
318.068	6.83
318.282	111.27
318.495	98.99
318.709	72.36
318.922	51.88
319.136	47.79
319.349	4.78
319.563	-19.8
319.776	49.83
319.99	31.4
320.203	82.6
320.417	84.65
320.63	55.98
320.843	88.75
321.057	-17.75
321.27	58.03
321.483	68.27
321.697	58.03
321.91	10.92
322.124	68.27
322.337	55.98
322.55	17.07
322.763	6.83
322.977	-1.37
323.19	58.03
323.403	49.83
323.617	-19.8
323.83	33.45
324.043	12.97
324.256	-44.37
324.469	-9.56
324.683	92.84
324.896	33.45
325.109	-5.46
325.322	12.97
325.535	80.55
325.748	43.69
325.962	-11.61
326.175	49.83
326.388	90.79
326.601	90.79
326.814	49.83
327.027	98.99
327.24	53.93
327.453	17.07
327.666	82.6
327.879	-23.89
328.092	41.64
328.305	27.31
328.518	31.4
328.731	-11.61
328.944	29.35
329.157	86.7
329.37	35.5
329.583	137.9
329.796	78.51
330.009	119.46
330.222	43.69
330.435	49.83
330.648	21.16
330.861	-3.41
331.073	-23.89
331.286	80.55
331.499	66.22
331.712	21.16
331.925	45.74
332.138	98.99
332.35	74.41
332.563	55.98
332.776	107.18
332.989	45.74
333.202	39.59
333.414	64.17
333.627	-7.51
333.84	70.31
334.053	72.36
334.265	35.5
334.478	39.59
334.691	82.6
334.903	94.89
335.116	27.31
335.329	45.74
335.541	37.55
335.754	103.08
335.966	-44.37
336.179	45.74
336.392	23.21
336.604	64.17
336.817	74.41
337.029	45.74
337.242	-25.94
337.454	53.93
337.667	39.59
337.88	84.65
338.092	66.22
338.305	58.03
338.517	31.4
338.729	78.51
338.942	154.28
339.154	53.93
339.367	10.92
339.579	19.11
339.792	-52.56
340.004	53.93
340.217	0.68
340.429	80.55
340.641	19.11
340.854	80.55
341.066	33.45
341.278	51.88
341.491	62.12
341.703	58.03
341.915	45.74
342.128	103.08
342.34	82.6
342.552	64.17
342.764	12.97
342.977	27.31
343.189	96.94
343.401	60.07
343.613	-27.99
343.826	115.37
344.038	4.78
344.25	45.74
344.462	27.31
344.674	49.83
344.886	107.18
345.099	127.66
345.311	35.5
345.523	15.02
345.735	25.26
345.947	103.08
346.159	10.92
346.371	2.73
346.583	66.22
346.795	148.14
347.007	33.45
347.219	45.74
347.431	-7.51
347.643	162.47
347.855	35.5
348.067	76.46
348.279	15.02
348.491	33.45
348.703	113.32
348.915	39.59
349.127	35.5
349.339	64.17
349.551	58.03
349.763	82.6
349.975	98.99
350.187	174.76
350.399	29.35
350.61	21.16
350.822	-17.75
351.034	103.08
351.246	68.27
351.458	29.35
351.669	80.55
351.881	154.28
352.093	37.55
352.305	64.17
352.517	66.22
352.728	45.74
352.94	94.89
353.152	51.88
353.363	33.45
353.575	2.73
353.787	111.27
353.999	6.83
354.21	103.08
354.422	70.31
354.633	82.6
354.845	-23.89
355.057	60.07
355.268	76.46
355.48	86.7
355.692	-21.85
355.903	-5.46
356.115	88.75
356.326	41.64
356.538	86.7
356.749	82.6
356.961	154.28
357.172	90.79
357.384	51.88
357.595	150.18
357.807	25.26
358.018	41.64
358.23	90.79
358.441	66.22
358.653	82.6
358.864	78.51
359.075	62.12
359.287	-1.37
359.498	84.65
359.709	47.79
359.921	35.5
360.132	39.59
360.344	58.03
360.555	55.98
360.766	41.64
360.977	41.64
361.189	47.79
361.4	53.93
361.611	76.46
361.823	41.64
362.034	123.56
362.245	84.65
362.456	21.16
362.667	80.55
362.879	55.98
363.09	39.59
363.301	8.87
363.512	43.69
363.723	94.89
363.935	98.99
364.146	55.98
364.357	23.21
364.568	78.51
364.779	27.31
364.99	107.18
365.201	-7.51
365.412	21.16
365.623	-17.75
365.834	68.27
366.045	-7.51
366.256	123.56
366.467	74.41
366.678	-30.04
366.889	82.6
367.1	21.16
367.311	53.93
367.522	86.7
367.733	58.03
367.944	113.32
368.155	41.64
368.366	25.26
368.577	72.36
368.788	70.31
368.999	10.92
369.209	80.55
369.42	80.55
369.631	144.04
369.842	15.02
370.053	82.6
370.264	17.07
370.474	21.16
370.685	94.89
370.896	49.83
371.107	96.94
371.317	-48.47
371.528	25.26
371.739	76.46
371.95	33.45
372.16	64.17
372.371	72.36
372.582	127.66
372.792	12.97
373.003	-11.61
373.214	98.99
373.424	103.08
373.635	107.18
373.846	25.26
374.056	60.07
374.267	45.74
374.477	74.41
374.688	88.75
374.898	127.66
375.109	45.74
375.319	23.21
375.53	103.08
375.74	62.12
375.951	21.16
376.161	8.87
376.372	-17.75
376.582	49.83
376.793	47.79
377.003	49.83
377.214	47.79
377.424	96.94
377.635	41.64
377.845	51.88
378.055	78.51
378.266	103.08
378.476	37.55
378.686	58.03
378.897	74.41
379.107	39.59
379.317	33.45
379.528	35.5
379.738	92.84
379.948	33.45
380.158	78.51
380.369	49.83
380.579	49.83
380.789	-15.7
380.999	-13.65
381.21	146.09
381.42	86.7
381.63	66.22
381.84	41.64
382.05	84.65
382.261	96.94
382.471	72.36
382.681	35.5
382.891	45.74
383.101	86.7
383.311	70.31
383.521	62.12
383.731	78.51
383.941	82.6
384.151	86.7
384.361	15.02
384.571	74.41
384.781	86.7
384.991	86.7
385.201	115.37
385.411	31.4
385.621	78.51
385.831	150.18
386.041	123.56
386.251	25.26
386.461	58.03
386.671	49.83
386.881	107.18
387.091	119.46
387.301	115.37
387.511	39.59
387.72	-9.56
387.93	33.45
388.14	98.99
388.35	10.92
388.56	68.27
388.769	129.7
388.979	43.69
389.189	55.98
389.399	82.6
389.609	129.7
389.818	70.31
390.028	109.23
390.238	62.12
390.447	-21.85
390.657	25.26
390.867	51.88
391.076	58.03
391.286	125.61
391.496	101.03
391.705	64.17
391.915	146.09
392.125	156.33
392.334	119.46
392.544	37.55
392.753	76.46
392.963	90.79
393.172	58.03
393.382	139.94
393.591	103.08
393.801	103.08
394.01	105.13
394.22	72.36
394.429	49.83
394.639	82.6
394.848	96.94
395.058	58.03
395.267	86.7
395.477	51.88
395.686	152.23
395.895	58.03
396.105	125.61
396.314	115.37
396.524	144.04
396.733	70.31
396.942	80.55
397.152	88.75
397.361	123.56
397.57	76.46
397.78	146.09
397.989	135.85
398.198	76.46
398.407	127.66
398.617	98.99
398.826	115.37
399.035	35.5
399.244	139.94
399.453	49.83
399.663	107.18
399.872	160.42
400.081	8.87
400.29	78.51
400.499	103.08
400.708	162.47
400.917	70.31
401.127	119.46
401.336	86.7
401.545	135.85
401.754	96.94
401.963	144.04
402.172	135.85
402.381	148.14
402.59	76.46
402.799	72.36
403.008	156.33
403.217	135.85
403.426	82.6
403.635	146.09
403.844	105.13
404.053	98.99
404.262	123.56
404.471	121.51
404.68	162.47
404.888	139.94
405.097	150.18
405.306	123.56
405.515	148.14
405.724	191.14
405.933	213.67
406.142	230.06
406.35	139.94
406.559	154.28
406.768	150.18
406.977	201.38
407.185	182.95
407.394	160.42
407.603	82.6
407.812	199.34
408.02	252.58
408.229	213.67
408.438	205.48
408.646	248.49
408.855	158.38
409.064	287.4
409.272	295.59
409.481	316.07
409.69	176.81
409.898	260.77
410.107	305.83
410.315	287.4
410.524	234.15
410.733	332.45
410.941	311.97
411.15	406.18
411.358	326.31
411.567	357.03
411.775	361.13
411.984	328.36
412.192	408.23
412.401	361.13
412.609	369.32
412.818	459.43
413.026	393.89
413.234	449.19
413.443	389.8
413.651	486.05
413.86	430.76
414.068	477.86
414.276	606.88
414.485	623.27
414.693	510.63
414.901	608.93
415.11	615.07
415.318	598.69
415.526	639.65
415.734	725.66
415.943	721.57
416.151	742.05
416.359	660.13
416.567	760.48
416.776	801.44
416.984	807.58
417.192	811.68
417.4	891.55
417.608	791.2
417.817	869.02
418.025	993.95
418.233	1041.05
418.441	1051.29
418.649	922.27
418.857	1098.39
419.065	1096.35
419.273	1067.67
419.481	1102.49
419.689	1184.41
419.897	1290.9
420.105	1237.66
420.313	1383.06
420.521	1315.48
420.729	1446.55
420.937	1381.01
421.145	1493.65
421.353	1571.47
421.561	1563.28
421.769	1610.39
421.977	1821.33
422.185	1753.74
422.393	1747.6
422.601	1899.15
422.809	1927.82
423.017	1909.39
423.224	1991.31
423.432	2146.95
423.64	2153.1
423.848	2222.73
424.056	2212.49
424.263	2417.29
424.471	2394.76
424.679	2450.05
424.887	2626.18
425.094	2632.32
425.302	2626.18
425.51	2935.42
425.718	2857.6
425.925	2845.31
426.133	3121.79
426.341	3215.99
426.548	3308.15
426.756	3252.86
426.964	3181.18
427.171	3525.24
427.379	3596.92
427.586	3588.72
427.794	3705.46
428.001	4024.94
428.209	4207.21
428.417	4018.8
428.624	4260.46
428.832	4295.27
429.039	4350.57
429.247	4395.62
429.454	4823.65
429.662	5136.99
429.869	4731.49
430.076	5130.84
430.284	4903.52
430.491	5223
430.699	5411.42
430.906	5452.38
431.114	5442.14
431.321	5716.56
431.528	5780.05
431.736	6279.75
431.943	6341.19
432.15	6308.43
432.358	6337.1
432.565	6679.11
432.772	6464.07
432.979	7053.89
433.187	7135.81
433.394	7027.26
433.601	7660.09
433.808	7653.94
434.016	7551.54
434.223	7807.54
434.43	8340.01
434.637	8065.58
434.844	8741.41
435.052	8960.55
435.259	8942.11
435.466	9015.84
435.673	8731.17
435.88	9220.64
436.087	9806.36
436.294	9937.43
436.501	9732.63
436.708	9802.26
436.915	10191.38
437.122	10598.92
437.329	10480.14
437.537	10834.44
437.743	11237.89
437.95	11028.99
438.157	11592.19
438.364	11907.57
438.571	11932.15
438.778	11860.47
438.985	13205.99
439.192	12587.5
439.399	13052.39
439.606	12685.8
439.813	13369.82
440.02	14121.43
440.227	13892.05
440.433	13980.12
440.64	14180.82
440.847	14068.18
441.054	14377.42
441.261	15622.59
441.467	15157.7
441.674	15630.78
441.881	16122.29
442.088	16564.65
442.294	15956.41
442.501	16669.1
442.708	16820.65
442.914	17344.93
443.121	18043.29
443.328	17863.07
443.534	19104.14
443.741	18542.99
443.948	18166.17
444.154	19386.75
444.361	19757.44
444.568	19374.47
444.774	19464.58
444.981	19835.26
445.187	20373.88
445.394	21219.69
445.6	20828.52
445.807	22673.74
446.013	21571.94
446.22	21883.23
446.426	23247.18
446.633	23179.59
446.839	24011.07
447.046	23124.3
447.252	24541.49
447.459	24330.55
447.665	24125.75
447.871	25286.95
448.078	26200.35
448.284	25188.65
448.491	25563.43
448.697	26829.07
448.903	27068.69
449.11	27222.28
449.316	26417.43
449.522	27138.32
449.728	27975.94
449.935	28252.41
450.141	28211.45
450.347	28725.49
450.553	27711.75
450.76	28119.29
450.966	28995.82
451.172	28301.56
451.378	29311.21
451.584	28803.32
451.791	29350.12
451.997	29247.72
452.203	30105.82
452.409	29843.68
452.615	29956.32
452.821	28625.14
453.027	28217.6
453.233	29567.21
453.44	28500.22
453.646	28688.63
453.852	28997.87
454.058	29219.05
454.264	28494.07
454.47	28842.23
454.676	28369.15
454.882	29305.07
455.088	26618.13
455.294	26896.66
455.5	27191.56
455.705	28059.9
455.911	26691.86
456.117	25997.6
456.323	25817.38
456.529	24195.39
456.735	25329.96
456.941	24566.07
457.147	24074.56
457.352	23454.02
457.558	23224.65
457.764	23451.97
457.97	22618.45
458.176	22045.02
458.381	22423.89
458.587	21260.65
458.793	21238.12
458.999	20015.48
459.204	21637.47
459.41	20937.07
459.616	19579.26
459.821	19732.86
460.027	19423.62
460.233	18809.23
460.438	18076.05
460.644	18442.64
460.85	17594.78
461.055	17355.17
461.261	17240.48
461.466	16146.87
461.672	15573.44
461.878	16785.83
462.083	15485.37
462.289	15292.87
462.494	15088.07
462.7	14651.85
462.905	14016.98
463.111	14485.97
463.316	14547.4
463.522	14260.69
463.727	14344.66
463.932	14139.86
464.138	13969.88
464.343	14164.43
464.549	14002.64
464.754	14438.86
464.959	13982.17
465.165	13976.02
465.37	13644.25
465.575	12978.66
465.781	13601.24
465.986	13679.07
466.191	13079.01
466.397	12956.13
466.602	12302.83
466.807	12702.18
467.012	12966.37
467.218	12835.3
467.423	12622.31
467.628	12755.43
467.833	13470.17
468.038	12755.43
468.244	12169.71
468.449	12757.48
468.654	12552.68
468.859	12403.18
469.064	12263.92
469.269	11731.45
469.474	11991.54
469.679	12042.74
469.885	11782.65
470.09	11831.8
470.295	11799.03
470.5	11356.67
470.705	11635.19
470.91	11250.17
471.115	11217.41
471.32	11385.34
471.525	11368.96
471.73	10969.6
471.935	10856.97
472.139	10617.35
472.344	10783.24
472.549	10637.83
472.754	10500.62
472.959	10424.84
473.164	10162.7
473.369	10226.19
473.574	10381.84
473.778	10361.36
473.983	10152.46
474.188	10097.17
474.393	9611.8
474.598	9814.55
474.802	9589.27
475.007	9581.08
475.212	9638.42
475.417	9288.22
475.621	9374.24
475.826	9417.24
476.031	9261.6
476.235	9161.25
476.44	9095.71
476.645	8964.64
476.849	8628.77
477.054	8739.37
477.259	8704.55
477.463	8798.76
477.668	8356.4
477.872	8421.93
478.077	8509.99
478.282	8108.59
478.486	8180.27
478.691	8288.81
478.895	8002.1
479.1	8124.97
479.304	8311.34
479.509	7950.9
479.713	8071.73
479.918	7715.38
480.122	7608.89
480.326	7862.83
480.531	7860.79
480.735	7799.35
480.94	7727.67
481.144	7995.95
481.348	7553.59
481.553	7492.15
481.757	7547.45
481.961	7703.09
482.166	7721.52
482.37	7615.03
482.574	7483.96
482.778	7414.33
482.983	7840.31
483.187	7768.63
483.391	7856.69
483.595	7518.78
483.8	7350.84
484.004	7508.54
484.208	7713.33
484.412	7699
484.616	7658.04
484.821	7635.51
485.025	7500.34
485.229	7576.12
485.433	7574.07
485.637	7445.05
485.841	7492.15
486.045	7479.86
486.249	7508.54
486.453	7567.93
486.657	7615.03
486.861	7623.22
487.065	7379.51
487.269	7565.88
487.473	7453.24
487.677	7639.61
487.881	7590.45
488.085	7567.93
488.289	7496.25
488.493	7696.95
488.697	7641.65
488.901	7676.47
489.105	7545.4
489.309	7752.24
489.512	7600.69
489.716	7553.59
489.92	7645.75
490.124	7574.07
490.328	7725.62
490.531	7823.92
490.735	7844.4
490.939	7768.63
491.143	7750.2
491.346	7676.47
491.55	7858.74
491.754	7610.93
491.958	7971.38
492.161	7899.7
492.365	7987.76
492.569	7979.57
492.772	8151.6
492.976	8012.34
493.18	8081.97
493.383	8249.9
493.587	8294.96
493.79	8372.78
493.994	8204.85
494.197	8421.93
494.401	8657.45
494.605	8546.86
494.808	8446.51
495.012	8778.28
495.215	8516.14
495.419	8856.1
495.622	8516.14
495.825	8985.12
496.029	8831.52
496.232	9017.89
496.436	9148.96
496.639	9181.73
496.843	9189.92
497.046	9572.89
497.249	9570.84
497.453	9568.79
497.656	9976.34
497.859	9808.4
498.063	9710.1
498.266	10140.18
498.469	10115.6
498.673	10263.05
498.876	10238.48
499.079	10263.05
499.282	10263.05
499.485	10754.57
499.689	10789.38
499.892	10773
500.095	10859.01
500.298	11045.38
500.501	11074.05
500.705	11364.86
500.908	11545.08
501.111	11653.62
501.314	11751.93
501.517	11710.97
501.72	12046.83
501.923	11889.14
502.126	12276.21
502.329	12237.3
502.532	12462.57
502.735	12683.75
502.938	12960.23
503.141	12808.68
503.344	13109.73
503.547	12960.23
503.75	13384.16
503.953	13257.18
504.156	13666.78
504.359	13763.03
504.562	13887.96
504.765	14217.68
504.968	14146
505.17	14410.19
505.373	14408.14
505.576	14723.53
505.779	14791.11
505.982	14836.17
506.185	15346.11
506.387	15368.64
506.59	15397.31
506.793	15815.1
506.996	15667.64
507.198	16298.42
507.401	16167.35
507.604	16411.06
507.807	16728.49
508.009	16867.75
508.212	16880.04
508.415	17123.75
508.617	17553.82
508.82	17459.62
509.022	17451.42
509.225	17924.51
509.428	18182.55
509.63	18190.74
509.833	18444.69
510.035	18645.39
510.238	18422.16
510.44	18602.38
510.643	19308.93
510.845	19448.19
511.048	19155.33
511.25	19560.83
511.453	19648.89
511.655	20515.19
511.858	20332.92
512.06	20382.07
512.262	20691.31
512.465	20410.74
512.667	21160.3
512.87	21182.82
513.072	21264.74
513.274	21795.17
513.477	21803.36
513.679	21836.13
513.881	22151.51
514.084	22501.72
514.286	22458.71
514.488	22464.85
514.69	23314.76
514.893	23429.45
515.095	23310.66
515.297	23863.61
515.499	23722.3
515.701	24437.05
515.904	24627.51
516.106	24768.82
516.308	24742.19
516.51	24996.14
516.712	25145.64
516.914	25637.16
517.116	25798.94
517.318	25909.54
517.52	26112.28
517.722	26349.85
517.925	26790.16
518.127	26935.57
518.329	27025.68
518.531	26974.48
518.733	27783.43
518.935	27580.68
519.136	27910.4
519.338	28176.64
519.54	28483.83
519.742	28807.41
519.944	28700.92
520.146	29374.7
520.348	29231.34
520.55	29507.82
520.752	30046.43
520.954	30038.24
521.155	29984.99
521.357	30693.59
521.559	30671.06
521.761	31617.22
521.963	30978.26
522.164	31340.75
522.366	31389.9
522.568	31936.71
522.77	31901.89
522.971	32456.89
523.173	32065.73
523.375	32862.39
523.576	32530.62
523.778	32809.14
523.98	33515.69
524.181	33118.39
524.383	33462.44
524.584	33638.57
524.786	33794.21
524.988	33869.99
525.189	34408.61
525.391	34181.28
525.592	34658.46
525.794	34424.99
525.995	34648.22
526.197	34678.94
526.398	35158.16
526.6	35227.79
526.801	35262.61
527.003	35365.01
527.204	35735.69
527.406	35629.19
527.607	36063.36
527.808	36419.71
528.01	35627.15
528.211	35786.89
528.412	36632.7
528.614	36585.6
528.815	36606.08
529.016	37048.44
529.218	36380.8
529.419	36616.32
529.62	36759.67
529.822	36751.48
530.023	37120.12
530.224	37220.47
530.425	37001.33
530.626	36735.1
530.828	36550.78
531.029	37980.26
531.23	37019.77
531.431	37169.27
531.632	37378.16
531.833	37638.25
532.035	37398.64
532.236	37759.08
532.437	37642.35
532.638	37711.98
532.839	37613.68
533.04	37728.36
533.241	37681.26
533.442	38445.15
533.643	37754.99
533.844	37697.64
534.045	37687.4
534.246	37517.42
534.447	37916.78
534.648	38170.72
534.849	38144.1
535.05	37527.66
535.251	37992.55
535.451	38004.84
535.652	38385.76
535.853	37701.74
536.054	38275.17
536.255	38049.89
536.456	37834.86
536.657	38441.06
536.857	38111.33
537.058	37701.74
537.259	38238.31
537.46	38066.28
537.66	37974.12
537.861	38154.34
538.062	38219.88
538.263	38238.31
538.463	37992.55
538.664	38062.18
538.865	38183.01
539.065	38203.49
539.266	37673.07
539.466	38537.31
539.667	37515.37
539.868	38324.32
540.068	37705.84
540.269	38078.57
540.469	38445.15
540.67	38154.34
540.87	37865.58
541.071	38072.42
541.271	38367.33
541.472	38250.6
541.672	37636.2
541.873	37898.34
542.073	37668.97
542.274	38346.85
542.474	38031.46
542.675	37970.02
542.875	38467.68
543.075	38205.54
543.276	37464.18
543.476	38131.81
543.676	37890.15
543.877	38502.5
544.077	38015.08
544.277	37861.48
544.478	37619.82
544.678	37632.11
544.878	37896.3
545.078	38109.29
545.279	37312.63
545.479	37554.29
545.679	37754.99
545.879	37529.71
546.079	38041.7
546.28	38006.89
546.48	37204.08
546.68	37869.67
546.88	37931.11
547.08	37914.73
547.28	37779.56
547.48	37392.5
547.68	37834.86
547.88	37613.68
548.081	37752.94
548.281	37605.48
548.481	37271.67
548.681	37797.99
548.881	37879.91
549.081	37734.51
549.28	37376.11
549.48	37828.71
549.68	37507.18
549.88	37908.58
550.08	37558.38
550.28	37671.02
550.48	37498.99
550.68	37902.44
550.88	37220.47
551.08	37267.57
551.279	37738.6
551.479	37195.89
551.679	37281.91
551.879	37085.3
552.079	37734.51
552.278	37222.51
552.478	37509.23
552.678	37451.89
552.878	37843.05
553.077	37294.19
553.277	37161.08
553.477	38043.75
553.676	37204.08
553.876	37210.23
554.076	37288.05
554.275	37496.94
554.475	36886.65
554.674	37556.33
554.874	37408.88
555.074	37355.63
555.273	37435.5
555.473	37525.61
555.672	37056.63
555.872	37107.83
556.071	37310.58
556.271	37097.59
556.47	36767.87
556.67	36767.87
556.869	36968.57
557.068	37116.02
557.268	36778.11
557.467	36497.53
557.667	37056.63
557.866	36696.19
558.065	37015.67
558.265	36636.8
558.464	36362.37
558.663	36802.68
558.863	36395.14
559.062	37013.62
559.261	36331.65
559.461	36604.03
559.66	36280.45
559.859	36231.3
560.058	36288.64
560.258	36507.77
560.457	35770.5
560.656	36544.64
560.855	36114.56
561.054	36067.46
561.253	35993.73
561.453	35971.21
561.652	36300.93
561.851	36233.35
562.05	36034.69
562.249	35899.53
562.448	35868.81
562.647	35743.88
562.846	35637.39
563.045	35592.33
563.244	35072.15
563.443	36237.44
563.642	35096.72
563.841	35387.53
564.04	35186.83
564.239	35895.43
564.438	35178.64
564.637	35350.67
564.836	35408.01
565.035	35235.99
565.234	34906.26
565.432	34979.99
565.631	34902.17
565.83	35035.28
566.029	34824.34
566.228	34572.44
566.427	34779.29
566.625	34623.64
566.824	34271.39
567.023	34488.48
567.222	34015.4
567.42	34592.92
567.619	34388.13
567.818	33994.92
568.016	33802.41
568.215	34492.57
568.414	34056.36
568.612	34275.49
568.811	33966.24
569.01	33570.99
569.208	33509.55
569.407	33677.48
569.605	33157.3
569.804	33732.78
570.002	33466.54
570.201	33534.12
570.4	32864.44
570.598	33063.09
570.797	33024.18
570.995	32919.73
571.193	32639.16
571.392	33102
571.59	32948.4
571.789	32858.29
571.987	32606.39
572.186	32440.51
572.384	32714.94
572.582	32790.71
572.781	32641.21
572.979	32315.58
573.177	32424.12
573.376	32493.75
573.574	31938.76
573.772	32252.09
573.971	32055.49
574.169	31725.77
574.367	31688.9
574.565	31756.49
574.763	31529.16
574.962	31707.33
575.16	31545.55
575.358	31170.77
575.556	31082.7
575.754	31760.58
575.952	30873.81
576.151	31260.88
576.349	30793.94
576.547	30714.07
576.745	31017.17
576.943	30851.28
577.141	30638.3
577.339	30673.11
577.537	30679.25
577.735	30730.45
577.933	30308.57
578.131	30310.62
578.329	30286.04
578.527	30183.65
578.725	30281.95
578.923	30154.97
579.121	30447.83
579.319	29935.84
579.516	30206.17
579.714	29927.65
579.912	29759.72
580.11	29778.15
580.308	29798.63
580.506	29624.55
580.704	29075.69
580.901	29481.19
581.099	29591.78
581.297	29296.88
581.495	29102.32
581.692	29399.27
581.89	29044.98
582.088	29294.83
582.285	29147.37
582.483	28932.34
582.681	28856.56
582.878	28922.1
583.076	28614.9
583.274	28791.03
583.471	28578.04
583.669	28713.2
583.866	28109.05
584.064	28412.15
584.262	28260.6
584.459	28227.84
584.657	28340.47
584.854	28018.94
585.052	27554.05
585.249	27920.64
585.447	27930.88
585.644	27504.9
585.841	27443.46
586.039	28000.51
586.236	27431.18
586.434	27689.22
586.631	27463.94
586.828	27410.7
587.026	27480.33
587.223	27261.19
587.42	27373.83
587.618	27429.13
587.815	26511.64
588.012	26896.66
588.21	26628.37
588.407	26798.35
588.604	26622.23
588.801	26304.79
588.999	26771.73
589.196	26605.84
589.393	26386.71
589.59	26100
589.787	26595.6
589.984	26052.89
590.182	25893.15
590.379	25973.02
590.576	25821.47
590.773	26110.24
590.97	25635.11
591.167	25788.71
591.364	25487.65
591.561	25735.46
591.758	25248.04
591.955	25538.85
592.152	25573.67
592.349	25078.06
592.546	25370.92
592.743	25344.3
592.94	24930.61
593.137	25231.66
593.334	25381.16
593.531	24637.75
593.727	24750.39
593.924	24832.3
594.121	24674.61
594.318	24518.96
594.515	24428.85
594.712	24832.3
594.908	24404.28
595.105	24271.16
595.302	24215.87
595.499	24396.09
595.696	24256.82
595.892	23884.09
596.089	24064.32
596.286	23920.96
596.482	23703.87
596.679	23847.23
596.876	23861.57
597.072	23781.7
597.269	23566.66
597.466	23368.01
597.662	23466.31
597.859	23605.57
598.055	23476.55
598.252	23251.27
598.448	23419.21
598.645	23304.52
598.841	22714.7
599.038	23247.18
599.234	22739.28
599.431	22782.29
599.627	22976.84
599.824	22976.84
600.02	22546.77
600.217	22770
600.413	22503.76
600.609	22718.8
600.806	22591.83
601.002	22458.71
601.198	22237.53
601.395	22276.44
601.591	22116.7
601.787	22487.38
601.984	21840.22
602.18	22255.96
602.376	21748.06
602.572	21621.09
602.769	21709.15
602.965	21444.96
603.161	21805.41
603.357	21594.47
603.553	21205.35
603.75	21399.91
603.946	21264.74
604.142	21627.23
604.338	21047.66
604.534	21297.51
604.73	20988.27
604.926	21322.09
605.122	21037.42
605.318	21092.71
605.514	20922.73
605.71	20818.28
605.906	20478.32
606.102	20756.85
606.298	20619.63
606.494	20799.85
606.69	20914.54
606.886	20584.82
607.082	20263.29
607.278	20396.4
607.474	20261.24
607.67	20296.05
607.866	20193.65
608.062	20334.96
608.257	20050.3
608.453	20281.72
608.649	20056.44
608.845	20033.91
609.041	19911.03
609.236	19923.32
609.432	19628.42
609.628	19851.64
609.824	19689.85
610.019	19720.57
610.215	19820.92
610.411	19624.32
610.606	19745.15
610.802	19710.33
610.998	19427.71
611.193	19552.64
611.389	19237.25
611.584	19231.11
611.78	19097.99
611.976	19581.31
612.171	19280.26
612.367	19409.28
612.562	18874.76
612.758	19024.26
612.953	18915.72
613.149	19231.11
613.344	18815.37
613.539	19085.7
613.735	18989.45
613.93	19097.99
614.126	18817.42
614.321	18831.76
614.517	18862.47
614.712	19038.6
614.907	18665.87
615.103	18981.26
615.298	18583.95
615.493	18801.04
615.688	18524.56
615.884	18977.16
616.079	18452.88
616.274	18444.69
616.47	18293.14
616.665	18530.7
616.86	18334.1
617.055	18260.37
617.25	18190.74
617.445	18309.52
617.641	18069.91
617.836	18141.59
618.031	17676.7
618.226	18272.66
618.421	18164.12
618.616	17973.66
618.811	17715.61
619.006	18141.59
619.201	17662.37
619.396	17820.06
619.591	17623.45
619.786	17627.55
619.981	17373.6
620.176	17656.22
620.371	17279.4
620.566	17443.23
620.761	17303.97
620.956	17211.81
621.151	16787.88
621.346	17355.17
621.541	16617.9
621.735	17052.07
621.93	16576.94
622.125	16703.92
622.32	16390.58
622.515	16458.16
622.709	16458.16
622.904	16239.03
623.099	16312.75
623.294	16435.63
623.488	15970.74
623.683	16155.06
623.878	15669.69
624.072	15722.94
624.267	16001.46
624.462	15802.81
624.656	15391.17
624.851	15393.22
625.046	15356.35
625.24	15317.44
625.435	15296.96
625.629	15294.91
625.824	14950.85
626.018	14979.53
626.213	14922.18
626.407	14944.71
626.602	14502.35
626.796	14723.53
626.991	14602.7
627.185	14588.36
627.38	14610.89
627.574	14324.18
627.768	14146
627.963	14002.64
628.157	14045.65
628.352	14295.5
628.546	13887.96
628.74	13820.38
628.935	13803.99
629.129	13781.46
629.323	13263.33
629.517	13750.74
629.712	13308.38
629.906	13472.22
630.1	13457.89
630.294	13539.8
630.489	13220.32
630.683	13156.83
630.877	13109.73
631.071	13033.96
631.265	13074.92
631.459	12693.99
631.653	12745.19
631.848	12839.4
632.042	12618.22
632.236	12863.97
632.43	12732.9
632.624	12605.93
632.818	12573.16
633.012	12491.24
633.206	12276.21
633.4	12214.77
633.594	12024.31
633.788	12294.64
633.982	12218.86
634.176	12259.82
634.369	12052.98
634.563	11891.19
634.757	11837.94
634.951	11993.59
635.145	11663.86
635.339	11674.1
635.533	11495.93
635.726	11479.55
635.92	11334.14
636.114	11401.72
636.308	11442.68
636.501	11428.35
636.695	11377.15
636.889	11266.56
637.083	11211.26
637.276	11303.42
637.47	11057.67
637.664	10895.88
637.857	10998.27
638.051	10756.61
638.244	10891.78
638.438	10627.59
638.632	10805.77
638.825	10695.18
639.019	10361.36
639.212	10533.39
639.406	10267.15
639.599	10596.87
639.793	10402.32
639.986	10236.43
640.18	10166.8
640.373	10191.38
640.567	9970.19
640.76	9933.33
640.954	10195.47
641.147	9804.31
641.34	9781.78
641.534	9853.46
641.727	9812.5
641.92	9835.03
642.114	9515.55
642.307	9820.69
642.5	9617.94
642.694	9560.6
642.887	9566.74
643.08	9503.26
643.273	9531.93
643.467	9306.65
643.66	9067.04
643.853	9226.78
644.046	9116.19
644.239	9183.77
644.432	9097.76
644.626	8962.59
644.819	8931.87
645.012	9052.7
645.205	8954.4
645.398	8819.24
645.591	8636.97
645.784	8706.6
645.977	8454.7
646.17	8649.25
646.363	8444.46
646.556	8569.38
646.749	8458.79
646.942	8567.34
647.135	8374.83
647.328	8421.93
647.521	8454.7
647.714	8124.97
647.907	8249.9
648.099	8247.85
648.292	8294.96
648.485	8112.69
648.678	8024.62
648.871	8073.78
649.064	7864.88
649.256	7965.23
649.449	7963.19
649.642	7737.91
649.835	7772.72
650.027	7928.37
650.22	7875.12
650.413	7725.62
650.605	7641.65
650.798	7758.39
650.991	7555.64
651.183	7666.23
651.376	7438.91
651.568	7506.49
651.761	7379.51
651.954	7328.31
652.146	7475.77
652.339	7293.5
652.531	7324.22
652.724	7295.55
652.916	7045.7
653.109	7082.56
653.301	7144
653.494	7035.46
653.686	6855.23
653.879	7057.98
654.071	7094.85
654.263	6996.54
654.456	6922.82
654.648	7017.02
654.84	6711.88
655.033	6898.24
655.225	6664.77
655.417	6728.26
655.61	6564.42
655.802	6701.64
655.994	6636.1
656.186	6685.25
656.379	6439.5
656.571	6554.18
656.763	6390.35
656.955	6478.41
657.148	6543.94
657.34	6230.6
657.532	6353.48
657.724	6150.73
657.916	6490.7
658.108	6222.41
658.3	6111.82
658.492	6230.6
658.684	6085.2
658.876	5859.92
659.068	6070.86
659.26	5870.16
659.452	5978.7
659.644	6085.2
659.836	6019.66
660.028	5941.84
660.22	5950.03
660.412	5792.34
660.604	5712.47
660.796	5796.43
660.988	5962.32
661.18	5722.71
661.372	5687.89
661.563	5767.76
661.755	5581.4
661.947	5687.89
662.139	5571.16
662.331	5583.45
662.522	5710.42
662.714	5595.73
662.906	5638.74
663.097	5419.61
663.289	5395.03
663.481	5409.37
663.673	5427.8
663.864	5231.19
664.056	5237.34
664.247	5247.58
664.439	5214.81
664.631	5202.52
664.822	5337.69
665.014	5270.11
665.205	5149.28
665.397	5208.67
665.588	5063.26
665.78	5003.87
665.971	5075.55
666.163	5108.32
666.354	5034.59
666.546	4960.86
666.737	4850.27
666.929	4827.74
667.12	4956.77
667.311	4971.1
667.503	4960.86
667.694	4880.99
667.885	4913.76
668.077	4715.11
668.268	4733.54
668.459	4674.15
668.651	4731.49
668.842	4780.64
669.033	4612.71
669.224	4770.4
669.416	4651.62
669.607	4694.63
669.798	4510.31
669.989	4700.77
670.18	4596.32
670.371	4481.64
670.563	4444.77
670.754	4518.5
670.945	4457.06
671.136	4635.24
671.327	4434.53
671.518	4448.87
671.709	4424.3
671.9	4465.25
672.091	4487.78
672.282	4305.51
672.473	4291.18
672.664	4297.32
672.855	4401.77
673.046	4242.03
673.237	4524.65
673.428	4377.19
673.619	4325.99
673.809	4225.64
674	4252.27
674.191	4182.63
674.382	4252.27
674.573	4248.17
674.764	4127.34
674.954	4297.32
675.145	4235.88
675.336	4043.37
675.527	4174.44
675.717	4190.83
675.908	4072.04
676.099	4174.44
676.289	4084.33
676.48	4258.41
676.671	4158.06
676.861	4067.95
677.052	4104.81
677.243	3967.6
677.433	4020.85
677.624	4072.04
677.814	3947.12
678.005	4045.42
678.195	4098.67
678.386	3910.25
678.576	3981.93
678.767	3969.65
678.957	3994.22
679.148	4076.14
679.338	4018.8
679.529	3981.93
679.719	3777.14
679.909	3996.27
680.1	4059.76
680.29	3863.15
680.481	3996.27
680.671	3897.97
680.861	3891.82
681.052	3879.54
681.242	3865.2
681.432	3953.26
681.622	3748.47
681.813	3732.08
682.003	3836.53
682.193	3736.18
682.383	3906.16
682.573	3756.66
682.764	3887.73
682.954	3639.92
683.144	3762.8
683.334	3744.37
683.524	3766.9
683.714	3900.02
683.904	3697.27
684.094	3709.55
684.284	3816.05
684.474	3715.7
684.664	3568.24
684.854	3709.55
685.044	3684.98
685.234	3650.16
685.424	3613.3
685.614	3674.74
685.804	3541.62
685.994	3572.34
686.184	3719.79
686.374	3670.64
686.564	3471.99
686.753	3598.96
686.943	3664.5
687.133	3621.49
687.323	3498.61
687.513	3498.61
687.702	3402.36
687.892	3488.37
688.082	3465.85
688.272	3392.12
688.461	3359.35
688.651	3480.18
688.841	3494.52
689.03	3394.17
689.22	3291.77
689.41	3441.27
689.599	3416.69
689.789	3312.25
689.979	3400.31
690.168	3390.07
690.358	3232.38
690.547	3113.6
690.737	3289.72
690.926	3162.75
691.116	3261.05
691.305	3369.59
691.495	3252.86
691.684	3146.36
691.874	3179.13
692.063	3314.3
692.252	3220.09
692.442	3291.77
692.631	3117.69
692.82	3138.17
693.01	3097.21
693.199	3086.97
693.388	3109.5
693.578	2941.57
693.767	3068.54
693.956	3158.65
694.146	3095.16
694.335	3074.68
694.524	3054.2
694.713	3066.49
694.902	3011.2
695.092	2980.48
695.281	3015.29
695.47	3066.49
695.659	3052.16
695.848	3007.1
696.037	2888.32
696.226	3003
696.415	2972.29
696.604	2986.62
696.793	3003
696.982	2882.17
697.171	2763.39
697.36	2974.33
697.549	2773.63
697.738	2818.69
697.927	2873.98
698.116	2939.52
698.305	2835.07
698.494	2876.03
698.683	2921.09
698.872	2830.98
699.061	2904.7
699.25	2763.39
699.438	2720.39
699.627	2869.89
699.816	2806.4
700.005	2790.02
700.193	2843.26
700.382	2806.4
700.571	2826.88
700.76	2753.15
700.948	2800.26
701.137	2785.92
701.326	2873.98
701.514	2759.3
701.703	2849.41
701.892	2785.92
702.08	2806.4
702.269	2769.54
702.457	2683.52
702.646	2677.38
702.834	2663.04
703.023	2667.14
703.212	2835.07
703.4	2654.85
703.589	2658.95
703.777	2591.36
703.965	2706.05
704.154	2675.33
704.342	2724.48
704.531	2636.42
704.719	2654.85
704.907	2765.44
705.096	2679.43
705.284	2587.27
705.472	2601.6
705.661	2771.58
705.849	2613.89
706.037	2701.95
706.226	2574.98
706.414	2697.86
706.602	2671.23
706.79	2622.08
706.979	2566.79
707.167	2814.59
707.355	2529.92
707.543	2675.33
707.731	2689.67
707.919	2491.01
708.107	2505.35
708.296	2570.88
708.484	2503.3
708.672	2544.26
708.86	2638.47
709.048	2622.08
709.236	2568.84
709.424	2617.99
709.612	2462.34
709.8	2597.51
709.988	2540.16
710.176	2613.89
710.364	2605.7
710.551	2638.47
710.739	2456.2
710.927	2525.83
711.115	2503.3
711.303	2593.41
711.491	2509.44
711.679	2495.11
711.866	2675.33
712.054	2620.03
712.242	2345.61
712.43	2480.77
712.617	2491.01
712.805	2425.48
712.993	2544.26
713.181	2429.57
713.368	2341.51
713.556	2476.68
713.744	2441.86
713.931	2517.64
714.119	2529.92
714.306	2501.25
714.494	2427.53
714.682	2409.09
714.869	2351.75
715.057	2497.16
715.244	2329.22
715.432	2425.48
715.619	2437.77
715.807	2501.25
715.994	2423.43
716.182	2384.52
716.369	2443.91
716.556	2370.18
716.744	2484.87
716.931	2505.35
717.119	2394.76
717.306	2298.5
717.493	2478.72
717.681	2472.58
717.868	2271.88
718.055	2374.28
718.242	2316.94
718.43	2380.42
718.617	2290.31
718.804	2329.22
718.991	2286.22
719.179	2349.7
719.366	2331.27
719.553	2386.57
719.74	2273.93
719.927	2448.01
720.114	2351.75
720.301	2286.22
720.488	2282.12
720.676	2300.55
720.863	2402.95
721.05	2202.25
721.237	2386.57
721.424	2366.09
721.611	2265.74
721.798	2263.69
721.985	2245.26
722.172	2232.97
722.358	2175.63
722.545	2175.63
722.732	2249.35
722.919	2218.63
723.106	2331.27
723.293	2400.9
723.48	2206.35
723.667	2134.67
723.853	2321.03
724.04	2235.02
724.227	2257.54
724.414	2175.63
724.6	2204.3
724.787	2112.14
724.974	2239.11
725.161	2267.78
725.347	2163.34
725.534	2210.44
725.72	2237.06
725.907	2099.85
726.094	2173.58
726.28	2149
726.467	2028.17
726.653	2114.19
726.84	2112.14
727.027	2202.25
727.213	2024.08
727.4	2171.53
727.586	2118.28
727.773	2089.61
727.959	2040.46
728.145	2048.65
728.332	2122.38
728.518	2052.75
728.705	2060.94
728.891	2052.75
729.077	2044.56
729.264	2056.84
729.45	2032.27
729.636	2116.23
729.823	2040.46
730.009	2034.32
730.195	2040.46
730.382	2067.08
730.568	1989.26
730.754	2062.99
730.94	1999.5
731.126	2079.37
731.313	1989.26
731.499	2044.56
731.685	2081.42
731.871	2048.65
732.057	2097.8
732.243	1979.02
732.429	2050.7
732.615	2138.76
732.801	1940.11
732.987	1895.05
733.173	2026.12
733.359	1893.01
733.545	2030.22
733.731	1919.63
733.917	2019.98
734.103	1931.92
734.289	1970.83
734.475	1985.16
734.661	2089.61
734.847	1868.43
735.033	1913.49
735.219	2019.98
735.404	1995.4
735.59	2019.98
735.776	1927.82
735.962	2007.69
736.148	1946.25
736.333	1868.43
736.519	1882.77
736.705	1952.4
736.89	1880.72
737.076	1905.29
737.262	1921.68
737.447	1839.76
737.633	1823.37
737.819	1782.42
738.004	1802.9
738.19	1788.56
738.375	1925.77
738.561	1862.29
738.747	1897.1
738.932	1714.83
739.118	1809.04
739.303	1802.9
739.489	1753.74
739.674	1737.36
739.859	1737.36
740.045	1761.94
740.23	1772.18
740.416	1684.11
740.601	1692.3
740.786	1774.22
740.972	1655.44
741.157	1673.87
741.342	1737.36
741.528	1682.06
741.713	1700.5
741.898	1684.11
742.084	1667.73
742.269	1600.15
742.454	1731.22
742.639	1735.31
742.824	1587.86
743.01	1729.17
743.195	1641.11
743.38	1659.54
743.565	1663.63
743.75	1616.53
743.935	1657.49
744.12	1620.63
744.305	1518.23
744.49	1675.92
744.675	1569.43
744.86	1634.96
745.045	1579.67
745.23	1606.29
745.415	1516.18
745.6	1507.99
745.785	1555.09
745.97	1622.67
746.155	1505.94
746.34	1450.64
746.525	1407.64
746.71	1561.23
746.895	1526.42
747.079	1495.7
747.264	1483.41
747.449	1510.04
747.634	1426.07
747.819	1477.27
748.003	1467.03
748.188	1399.45
748.373	1383.06
748.557	1338.01
748.742	1430.16
748.927	1467.03
749.111	1329.81
749.296	1368.73
749.481	1428.12
749.665	1344.15
749.85	1309.33
750.034	1376.92
750.219	1295
750.404	1278.62
750.588	1381.01
750.773	1356.44
750.957	1290.9
751.141	1213.08
751.326	1313.43
751.51	1278.62
751.695	1272.47
751.879	1278.62
752.064	1282.71
752.248	1319.57
752.432	1251.99
752.617	1290.9
752.801	1266.33
752.985	1213.08
753.17	1174.17
753.354	1268.38
753.538	1135.26
753.722	1215.13
753.907	1090.2
754.091	1131.16
754.275	1243.8
754.459	1127.07
754.643	1098.39
754.828	1108.63
755.012	1057.43
755.196	1104.54
755.38	1049.24
755.564	1118.87
755.748	1069.72
755.932	1063.58
756.116	1073.82
756.3	1049.24
756.484	1028.76
756.668	991.9
756.852	998.04
757.036	1065.63
757.22	901.79
757.404	987.8
757.588	1075.87
757.772	942.75
757.956	936.6
758.14	936.6
758.323	977.56
758.507	1043.1
758.691	848.54
758.875	985.76
759.059	1008.28
759.242	1022.62
759.426	928.41
759.61	914.08
759.794	869.02
759.977	1024.67
760.161	1014.43
760.345	875.17
760.528	844.45
760.712	869.02
760.895	885.41
761.079	932.51
761.263	842.4
761.446	901.79
761.63	871.07
761.813	862.88
761.997	780.96
762.18	891.55
762.364	877.21
762.547	815.77
762.731	830.11
762.914	860.83
763.098	811.68
763.281	776.86
763.464	860.83
763.648	766.62
763.831	774.81
764.015	744.1
764.198	836.25
764.381	817.82
764.564	832.16
764.748	795.29
764.931	760.48
765.114	740
765.297	711.33
765.481	791.2
765.664	840.35
765.847	785.05
766.03	717.47
766.213	785.05
766.397	686.75
766.58	705.18
766.763	733.86
766.946	807.58
767.129	852.64
767.312	752.29
767.495	680.61
767.678	641.7
767.861	774.81
768.044	735.9
768.227	719.52
768.41	705.18
768.593	713.38
768.776	733.86
768.959	666.27
769.142	729.76
769.324	733.86
769.507	760.48
769.69	621.22
769.873	653.98
770.056	727.71
770.239	662.18
770.421	688.8
770.604	629.41
770.787	678.56
770.97	696.99
771.152	643.74
771.335	696.99
771.518	627.36
771.7	674.46
771.883	619.17
772.066	627.36
772.248	705.18
772.431	727.71
772.613	635.55
772.796	645.79
772.978	637.6
773.161	674.46
773.343	647.84
773.526	580.26
773.708	449.19
773.891	651.94
774.073	561.83
774.256	617.12
774.438	668.32
774.621	582.31
774.803	606.88
774.985	484
775.168	623.27
775.35	565.92
775.532	613.03
775.715	473.76
775.897	565.92
776.079	527.01
776.261	557.73
776.444	533.15
776.626	561.83
776.808	537.25
776.99	549.54
777.173	576.16
777.355	572.07
777.537	471.72
777.719	520.87
777.901	590.5
778.083	561.83
778.265	465.57
778.447	586.4
778.629	453.28
778.811	565.92
778.993	463.52
779.175	549.54
779.357	492.2
779.539	516.77
779.721	602.79
779.903	441
780.085	451.24
780.267	443.04
780.449	436.9
780.631	475.81
780.812	461.48
780.994	465.57
781.176	508.58
781.358	430.76
781.54	455.33
781.721	434.85
781.903	516.77
782.085	463.52
782.267	365.22
782.448	406.18
782.63	391.84
782.812	432.8
782.993	418.47
783.175	400.04
783.357	385.7
783.538	385.7
783.72	348.84
783.901	348.84
784.083	438.95
784.264	418.47
784.446	352.93
784.627	406.18
784.809	369.32
784.99	389.8
785.172	344.74
785.353	381.6
785.535	338.6
785.716	447.14
785.897	287.4
786.079	373.41
786.26	344.74
786.441	381.6
786.623	367.27
786.804	373.41
786.985	330.41
787.167	361.13
787.348	303.78
787.529	275.11
787.71	373.41
787.891	344.74
788.073	320.17
788.254	246.44
788.435	336.55
788.616	287.4
788.797	299.69
788.978	348.84
789.159	271.01
789.34	289.45
789.522	254.63
789.703	268.97
789.884	348.84
790.065	299.69
790.246	295.59
790.427	287.4
790.607	316.07
790.788	338.6
790.969	320.17
791.15	361.13
791.331	303.78
791.512	283.3
791.693	285.35
791.874	238.25
792.054	334.5
792.235	340.65
792.416	174.76
792.597	309.93
792.778	271.01
792.958	213.67
793.139	268.97
793.32	230.06
793.5	221.86
793.681	250.53
793.862	354.98
794.042	234.15
794.223	203.43
794.404	295.59
794.584	225.96
794.765	213.67
794.945	246.44
795.126	203.43
795.306	262.82
795.487	244.39
795.667	225.96
795.848	230.06
796.028	213.67
796.209	289.45
796.389	209.58
796.57	258.73
796.75	185
796.93	260.77
797.111	221.86
797.291	182.95
797.471	191.14
797.652	273.06
797.832	131.75
798.012	277.16
798.192	187.05
798.373	189.1
798.553	148.14
798.733	275.11
798.913	234.15
799.093	195.24
799.274	189.1
799.454	293.54
799.634	258.73
799.814	221.86
799.994	213.67
800.174	252.58
800.354	197.29
800.534	123.56
800.714	279.21
800.894	154.28
801.074	197.29
801.254	225.96
801.434	203.43
801.614	141.99
801.794	121.51
801.974	750.24
802.154	246.44
802.334	182.95
802.514	148.14
802.693	201.38
802.873	246.44
803.053	154.28
803.233	205.48
803.413	211.62
803.592	152.23
803.772	119.46
803.952	170.66
804.131	176.81
804.311	178.86
804.491	207.53
804.67	162.47
804.85	187.05
805.03	144.04
805.209	242.34
805.389	211.62
805.568	221.86
805.748	178.86
805.928	178.86
806.107	90.79
806.287	152.23
806.466	221.86
806.646	207.53
806.825	105.13
807.004	207.53
807.184	193.19
807.363	207.53
807.543	111.27
807.722	211.62
807.901	123.56
808.081	141.99
808.26	166.57
808.439	156.33
808.619	197.29
808.798	49.83
808.977	152.23
809.156	125.61
809.336	101.03
809.515	207.53
809.694	129.7
809.873	129.7
810.052	172.71
810.231	182.95
810.411	139.94
810.59	62.12
810.769	113.32
810.948	129.7
811.127	103.08
811.306	160.42
811.485	115.37
811.664	225.96
811.843	101.03
812.022	82.6
812.201	113.32
812.38	117.42
812.559	98.99
812.737	180.9
812.916	70.31
813.095	113.32
813.274	123.56
813.453	117.42
813.632	111.27
813.811	162.47
813.989	105.13
814.168	139.94
814.347	107.18
814.526	191.14
814.704	156.33
814.883	137.9
815.062	146.09
815.24	139.94
815.419	58.03
815.598	76.46
815.776	84.65
815.955	174.76
816.133	80.55
816.312	82.6
816.49	64.17
816.669	137.9
816.847	72.36
817.026	148.14
817.204	115.37
817.383	141.99
817.561	78.51
817.74	135.85
817.918	76.46
818.097	109.23
818.275	144.04
818.453	131.75
818.632	131.75
818.81	88.75
818.988	133.8
819.167	6.83
819.345	33.45
819.523	111.27
819.701	162.47
819.879	80.55
820.058	60.07
820.236	80.55
820.414	90.79
820.592	133.8
820.77	115.37
820.948	154.28
821.127	49.83
821.305	129.7
821.483	25.26
821.661	98.99
821.839	113.32
822.017	127.66
822.195	58.03
822.373	146.09
822.551	137.9
822.729	78.51
822.907	94.89
823.085	164.52
823.262	176.81
823.44	78.51
823.618	27.31
823.796	88.75
823.974	35.5
824.152	70.31
824.329	94.89
824.507	113.32
824.685	141.99
824.863	66.22
825.04	43.69
825.218	62.12
825.396	64.17
825.574	127.66
825.751	119.46
825.929	33.45
826.107	25.26
826.284	101.03
826.462	47.79
826.639	107.18
826.817	115.37
826.994	88.75
827.172	94.89
827.349	203.43
827.527	80.55
827.704	58.03
827.882	137.9
828.059	148.14
828.237	31.4
828.414	141.99
828.591	-15.7
828.769	125.61
828.946	111.27
829.124	103.08
829.301	119.46
829.478	4.78
829.655	88.75
829.833	33.45
830.01	72.36
830.187	49.83
830.364	72.36
830.542	70.31
830.719	86.7
830.896	115.37
831.073	156.33
831.25	39.59
831.427	33.45
831.604	39.59
831.782	62.12
831.959	113.32
832.136	98.99
832.313	90.79
832.49	6.83
832.667	127.66
832.844	86.7
833.021	123.56
833.198	25.26
833.374	29.35
833.551	94.89
833.728	66.22
833.905	115.37
834.082	103.08
834.259	78.51
834.436	150.18
834.612	55.98
834.789	111.27
834.966	47.79
835.143	66.22
835.319	53.93
835.496	90.79
835.673	31.4
835.85	23.21
836.026	4.78
836.203	60.07
836.38	35.5
836.556	80.55
836.733	23.21
836.909	90.79
837.086	55.98
837.262	72.36
837.439	12.97
837.616	64.17
837.792	82.6
837.968	141.99
838.145	51.88
838.321	80.55
838.498	90.79
838.674	27.31
838.851	82.6
839.027	66.22
839.203	31.4
839.38	33.45
839.556	78.51
839.732	113.32
839.909	39.59
840.085	78.51
840.261	45.74
840.437	-11.61
840.614	86.7
840.79	41.64
840.966	58.03
841.142	58.03
841.318	21.16
841.494	64.17
841.671	39.59
841.847	10.92
842.023	-5.46
842.199	53.93
842.375	45.74
842.551	0.68
842.727	-5.46
842.903	49.83
843.079	6.83
843.255	139.94
843.431	55.98
843.607	33.45
843.783	35.5
843.959	62.12
844.134	45.74
844.31	47.79
844.486	88.75
844.662	41.64
844.838	31.4
845.013	68.27
845.189	70.31
845.365	105.13
845.541	53.93
845.716	70.31
845.892	74.41
846.068	62.12
846.244	90.79
846.419	139.94
846.595	23.21
846.77	23.21
846.946	96.94
847.122	2.73
847.297	-30.04
847.473	168.62
847.648	39.59
847.824	25.26
847.999	6.83
848.175	37.55
848.35	6.83
848.526	78.51
848.701	37.55
848.876	0.68
849.052	66.22
849.227	43.69
849.403	115.37
849.578	37.55
849.753	41.64
849.929	35.5
850.104	80.55
850.279	39.59
850.454	-7.51
850.63	74.41
850.805	-1.37
850.98	8.87
851.155	64.17
851.33	-48.47
851.505	-54.61
851.681	0.68
851.856	41.64
852.031	47.79
852.206	-32.08
852.381	49.83
852.556	53.93
852.731	107.18
852.906	0.68
853.081	82.6
853.256	27.31
853.431	4.78
853.606	55.98
853.781	49.83
853.956	-48.47
854.131	66.22
854.305	82.6
854.48	35.5
854.655	64.17
854.83	51.88
855.005	64.17
855.18	58.03
855.354	53.93
855.529	19.11
855.704	-13.65
855.879	111.27
856.053	17.07
856.228	62.12
856.403	68.27
856.577	51.88
856.752	-9.56
856.926	29.35
857.101	62.12
857.276	62.12
857.45	-7.51
857.625	31.4
857.799	-19.8
857.974	-40.28
858.148	-38.23
858.323	37.55
858.497	-11.61
858.672	2.73
858.846	78.51
859.02	70.31
859.195	-64.85
859.369	64.17
859.543	74.41
859.718	21.16
859.892	-44.37
860.066	-11.61
860.241	17.07
860.415	96.94
860.589	29.35
860.763	-23.89
860.938	33.45
861.112	12.97
861.286	-27.99
861.46	-34.13
861.634	25.26
861.808	125.61
861.982	25.26
862.157	-15.7
862.331	92.84
862.505	0.68
862.679	-17.75
862.853	-1.37
863.027	-23.89
863.201	68.27
863.375	-42.32
863.549	103.08
863.722	82.6
863.896	64.17
864.07	-30.04
864.244	70.31
864.418	103.08
864.592	47.79
864.766	-1.37
864.939	29.35
865.113	2.73
865.287	21.16
865.461	37.55
865.634	25.26
865.808	-25.94
865.982	-15.7
866.156	70.31
866.329	53.93
866.503	17.07
866.676	78.51
866.85	25.26
867.024	53.93
867.197	12.97
867.371	-40.28
867.544	29.35
867.718	-32.08
867.891	78.51
868.065	105.13
868.238	17.07
868.412	80.55
868.585	70.31
868.759	60.07
868.932	-36.18
869.105	-13.65
869.279	82.6
869.452	25.26
869.625	90.79
869.799	35.5
869.972	-9.56
870.145	76.46
870.319	-25.94
870.492	33.45
870.665	-15.7
870.838	-7.51
871.011	6.83
871.185	6.83
871.358	-5.46
871.531	-21.85
871.704	19.11
871.877	53.93
872.05	35.5
872.223	51.88
872.396	31.4
872.569	80.55
872.742	64.17
872.915	6.83
873.088	-11.61
873.261	-15.7
873.434	49.83
873.607	12.97
873.78	-21.85
873.953	64.17
874.126	86.7
874.299	-50.52
874.471	58.03
874.644	80.55
874.817	111.27
874.99	76.46
875.163	-11.61
875.335	43.69
875.508	-21.85
875.681	29.35
875.853	10.92
876.026	66.22
876.199	-3.41
876.371	12.97
876.544	0.68
876.717	82.6
876.889	-75.09
877.062	82.6
877.234	10.92
877.407	41.64
877.579	23.21
877.752	-19.8
877.924	33.45
878.097	-27.99
878.269	4.78
878.442	-25.94
878.614	-64.85
878.786	82.6
878.959	58.03
879.131	82.6
879.303	-27.99
879.476	37.55
879.648	39.59
879.82	31.4
879.993	-27.99
880.165	43.69
880.337	29.35
880.509	17.07
880.681	-48.47
880.854	-7.51
881.026	4.78
881.198	74.41
881.37	29.35
881.542	27.31
881.714	19.11
881.886	-5.46
882.058	37.55
882.23	92.84
882.402	17.07
882.574	-27.99
882.746	-1.37
882.918	90.79
883.09	31.4
883.262	17.07
883.434	37.55
883.606	-7.51
883.778	64.17
883.95	23.21
884.122	-38.23
884.293	62.12
884.465	53.93
884.637	4.78
884.809	-1.37
884.98	47.79
885.152	72.36
885.324	-21.85
885.496	6.83
885.667	-34.13
885.839	-48.47
886.011	121.51
886.182	21.16
886.354	31.4
886.525	6.83
886.697	90.79
886.869	25.26
887.04	15.02
887.212	-11.61
887.383	74.41
887.555	66.22
887.726	41.64
887.897	72.36
888.069	29.35
888.24	0.68
888.412	68.27
888.583	53.93
888.754	33.45
888.926	41.64
889.097	45.74
889.268	15.02
889.44	41.64
889.611	33.45
889.782	0.68
889.953	41.64
890.125	8.87
890.296	49.83
890.467	25.26
890.638	62.12
890.809	31.4
890.98	6.83
891.151	43.69
891.323	55.98
891.494	29.35
891.665	-15.7
891.836	-1.37
892.007	17.07
892.178	41.64
892.349	8.87
892.52	-1.37
892.691	51.88
892.862	37.55
893.032	33.45
893.203	39.59
893.374	2.73
893.545	58.03
893.716	12.97
893.887	25.26
894.057	27.31
894.228	51.88
894.399	68.27
894.57	58.03
894.74	21.16
894.911	23.21
895.082	-32.08
895.253	4.78
895.423	64.17
895.594	84.65
895.764	37.55
895.935	-11.61
896.106	23.21
896.276	2.73
896.447	94.89
896.617	55.98
896.788	-9.56
896.958	-42.32
897.129	-9.56
897.299	33.45
897.47	25.26
897.64	43.69
897.81	88.75
897.981	-44.37
898.151	0.68
898.322	94.89
898.492	17.07
898.662	6.83
898.832	29.35
899.003	62.12
899.173	39.59
899.343	-32.08
899.513	-9.56
