Data from USB4F104151__291__10-42-28-391.txt Node

Date: Wed Mar 12 10:42:28 EDT 2025
User: louis
Spectrometer: USB4F10415
Trigger mode: 4
Integration Time (sec): 3.000000E-2
Scans to average: 1
Electric dark correction enabled: true
Nonlinearity correction enabled: false
Boxcar width: 0
XAxis mode: Wavelengths
Number of Pixels in Spectrum: 3648
>>>>>Begin Spectral Data<<<<<
178.204	-112.81
178.424	-112.81
178.644	-112.81
178.864	-100.52
179.084	-34.99
179.304	-63.66
179.524	-2.22
179.744	61.27
179.964	30.55
180.184	-51.37
180.404	18.26
180.624	-4.27
180.844	22.36
181.064	-6.31
181.283	-18.6
181.503	-22.7
181.723	36.69
181.943	30.55
182.163	65.36
182.383	8.02
182.602	-2.22
182.822	51.03
183.042	14.17
183.262	42.84
183.482	22.36
183.701	-4.27
183.921	14.17
184.141	91.99
184.361	87.89
184.58	-26.79
184.8	28.5
185.02	14.17
185.239	102.23
185.459	-2.22
185.679	51.03
185.898	30.55
186.118	38.74
186.338	-26.79
186.557	26.45
186.777	-14.51
186.997	16.21
187.216	53.08
187.436	89.94
187.655	-10.41
187.875	-16.55
188.095	-4.27
188.314	14.17
188.534	96.08
188.753	32.6
188.973	75.6
189.192	36.69
189.412	96.08
189.631	65.36
189.851	53.08
190.07	102.23
190.29	-4.27
190.509	77.65
190.729	63.32
190.948	143.19
191.168	108.37
191.387	83.8
191.607	28.5
191.826	-20.65
192.045	26.45
192.265	-8.36
192.484	114.52
192.704	73.56
192.923	-4.27
193.142	87.89
193.362	79.7
193.581	75.6
193.8	65.36
194.02	83.8
194.239	28.5
194.458	85.84
194.678	-30.89
194.897	8.02
195.116	14.17
195.335	85.84
195.555	63.32
195.774	28.5
195.993	63.32
196.212	26.45
196.432	42.84
196.651	10.07
196.87	-32.94
197.089	104.28
197.308	-20.65
197.528	14.17
197.747	18.26
197.966	-34.99
198.185	120.66
198.404	30.55
198.623	77.65
198.842	34.64
199.062	104.28
199.281	77.65
199.5	-26.79
199.719	-10.41
199.938	-47.27
200.157	26.45
200.376	34.64
200.595	10.07
200.814	61.27
201.033	-18.6
201.252	55.12
201.471	-20.65
201.69	75.6
201.909	85.84
202.128	69.46
202.347	124.76
202.566	16.21
202.785	18.26
203.004	-14.51
203.223	55.12
203.442	-0.17
203.661	65.36
203.879	24.4
204.098	87.89
204.317	22.36
204.536	89.94
204.755	51.03
204.974	71.51
205.193	14.17
205.411	91.99
205.63	14.17
205.849	-8.36
206.068	40.79
206.287	-16.55
206.505	28.5
206.724	104.28
206.943	-51.37
207.162	36.69
207.381	5.97
207.599	5.97
207.818	18.26
208.037	42.84
208.255	5.97
208.474	22.36
208.693	100.18
208.911	67.41
209.13	-2.22
209.349	-34.99
209.567	51.03
209.786	5.97
210.005	46.93
210.223	48.98
210.442	36.69
210.661	128.85
210.879	79.7
211.098	-12.46
211.316	12.12
211.535	42.84
211.753	34.64
211.972	32.6
212.191	-12.46
212.409	75.6
212.628	14.17
212.846	30.55
213.065	106.32
213.283	94.04
213.502	96.08
213.72	-16.55
213.938	36.69
214.157	75.6
214.375	10.07
214.594	-63.66
214.812	40.79
215.031	14.17
215.249	-10.41
215.467	42.84
215.686	69.46
215.904	20.31
216.122	20.31
216.341	112.47
216.559	79.7
216.778	79.7
216.996	22.36
217.214	-41.13
217.432	79.7
217.651	55.12
217.869	87.89
218.087	48.98
218.306	42.84
218.524	3.93
218.742	-22.7
218.96	44.88
219.179	22.36
219.397	-6.31
219.615	67.41
219.833	91.99
220.051	-34.99
220.27	53.08
220.488	77.65
220.706	16.21
220.924	30.55
221.142	53.08
221.36	34.64
221.578	28.5
221.796	1.88
222.015	42.84
222.233	1.88
222.451	-14.51
222.669	69.46
222.887	-22.7
223.105	-24.75
223.323	104.28
223.541	20.31
223.759	34.64
223.977	63.32
224.195	71.51
224.413	61.27
224.631	73.56
224.849	-37.03
225.067	102.23
225.285	3.93
225.503	46.93
225.721	3.93
225.939	59.22
226.157	96.08
226.375	104.28
226.592	14.17
226.81	22.36
227.028	83.8
227.246	34.64
227.464	-2.22
227.682	69.46
227.9	55.12
228.117	63.32
228.335	10.07
228.553	22.36
228.771	38.74
228.989	18.26
229.206	-2.22
229.424	24.4
229.642	-14.51
229.86	48.98
230.077	59.22
230.295	91.99
230.513	81.75
230.731	59.22
230.948	40.79
231.166	51.03
231.384	-10.41
231.601	-14.51
231.819	135
232.037	65.36
232.254	-22.7
232.472	83.8
232.689	38.74
232.907	46.93
233.125	-45.23
233.342	30.55
233.56	42.84
233.777	36.69
233.995	63.32
234.213	-16.55
234.43	34.64
234.648	-28.84
234.865	89.94
235.083	1.88
235.3	61.27
235.518	32.6
235.735	104.28
235.953	44.88
236.17	3.93
236.388	42.84
236.605	40.79
236.822	100.18
237.04	61.27
237.257	14.17
237.475	20.31
237.692	85.84
237.909	10.07
238.127	24.4
238.344	128.85
238.562	83.8
238.779	87.89
238.996	28.5
239.214	5.97
239.431	81.75
239.648	28.5
239.865	44.88
240.083	22.36
240.3	28.5
240.517	28.5
240.735	28.5
240.952	30.55
241.169	18.26
241.386	30.55
241.603	44.88
241.821	46.93
242.038	81.75
242.255	46.93
242.472	108.37
242.689	18.26
242.907	46.93
243.124	30.55
243.341	26.45
243.558	32.6
243.775	38.74
243.992	-41.13
244.209	16.21
244.426	65.36
244.643	106.32
244.86	36.69
245.078	12.12
245.295	36.69
245.512	1.88
245.729	-10.41
245.946	12.12
246.163	-45.23
246.38	14.17
246.597	71.51
246.814	112.47
247.031	30.55
247.248	10.07
247.464	-2.22
247.681	59.22
247.898	61.27
248.115	104.28
248.332	-6.31
248.549	65.36
248.766	63.32
248.983	73.56
249.2	42.84
249.417	18.26
249.633	12.12
249.85	55.12
250.067	18.26
250.284	77.65
250.501	26.45
250.717	135
250.934	3.93
251.151	18.26
251.368	128.85
251.585	38.74
251.801	12.12
252.018	5.97
252.235	38.74
252.451	63.32
252.668	24.4
252.885	73.56
253.102	36.69
253.318	38.74
253.535	22.36
253.752	38.74
253.968	-28.84
254.185	24.4
254.401	48.98
254.618	36.69
254.835	-8.36
255.051	96.08
255.268	53.08
255.484	71.51
255.701	22.36
255.917	102.23
256.134	-0.17
256.351	-2.22
256.567	-71.85
256.784	-28.84
257	1.88
257.217	12.12
257.433	118.61
257.65	124.76
257.866	26.45
258.082	55.12
258.299	20.31
258.515	34.64
258.732	46.93
258.948	-16.55
259.165	83.8
259.381	-8.36
259.597	51.03
259.814	-26.79
260.03	-26.79
260.246	53.08
260.463	-14.51
260.679	79.7
260.895	34.64
261.112	87.89
261.328	79.7
261.544	22.36
261.761	59.22
261.977	-16.55
262.193	26.45
262.409	34.64
262.626	8.02
262.842	42.84
263.058	-2.22
263.274	98.13
263.49	110.42
263.707	3.93
263.923	53.08
264.139	22.36
264.355	-4.27
264.571	100.18
264.787	10.07
265.004	102.23
265.22	-45.23
265.436	44.88
265.652	38.74
265.868	143.19
266.084	51.03
266.3	14.17
266.516	-22.7
266.732	-6.31
266.948	-30.89
267.164	28.5
267.38	-24.75
267.596	122.71
267.812	87.89
268.028	-10.41
268.244	77.65
268.46	59.22
268.676	26.45
268.892	42.84
269.108	-28.84
269.324	1.88
269.54	79.7
269.756	77.65
269.972	1.88
270.188	26.45
270.403	34.64
270.619	-16.55
270.835	-45.23
271.051	1.88
271.267	-63.66
271.483	55.12
271.698	55.12
271.914	30.55
272.13	-49.32
272.346	20.31
272.562	-6.31
272.777	59.22
272.993	-8.36
273.209	26.45
273.425	42.84
273.64	8.02
273.856	16.21
274.072	26.45
274.287	36.69
274.503	46.93
274.719	22.36
274.934	8.02
275.15	-39.08
275.366	42.84
275.581	-22.7
275.797	20.31
276.012	12.12
276.228	46.93
276.444	55.12
276.659	48.98
276.875	32.6
277.09	34.64
277.306	18.26
277.521	108.37
277.737	5.97
277.952	46.93
278.168	69.46
278.383	3.93
278.599	8.02
278.814	77.65
279.03	69.46
279.245	57.17
279.461	46.93
279.676	61.27
279.892	-30.89
280.107	-8.36
280.322	-20.65
280.538	51.03
280.753	3.93
280.969	3.93
281.184	28.5
281.399	24.4
281.615	14.17
281.83	10.07
282.045	1.88
282.26	5.97
282.476	34.64
282.691	44.88
282.906	116.56
283.122	14.17
283.337	-0.17
283.552	106.32
283.767	3.93
283.983	30.55
284.198	3.93
284.413	94.04
284.628	34.64
284.843	122.71
285.058	-0.17
285.274	-59.56
285.489	22.36
285.704	57.17
285.919	-16.55
286.134	10.07
286.349	53.08
286.564	18.26
286.779	67.41
286.995	-32.94
287.21	3.93
287.425	55.12
287.64	14.17
287.855	149.33
288.07	-18.6
288.285	73.56
288.5	110.42
288.715	126.8
288.93	20.31
289.145	69.46
289.36	83.8
289.575	18.26
289.79	10.07
290.004	12.12
290.219	44.88
290.434	46.93
290.649	-0.17
290.864	55.12
291.079	55.12
291.294	38.74
291.509	75.6
291.724	8.02
291.938	46.93
292.153	1.88
292.368	61.27
292.583	48.98
292.798	100.18
293.012	-10.41
293.227	100.18
293.442	20.31
293.657	20.31
293.871	120.66
294.086	104.28
294.301	112.47
294.516	46.93
294.73	63.32
294.945	-10.41
295.16	3.93
295.374	-32.94
295.589	73.56
295.804	16.21
296.018	38.74
296.233	96.08
296.447	73.56
296.662	-14.51
296.877	-14.51
297.091	114.52
297.306	61.27
297.52	30.55
297.735	20.31
297.949	108.37
298.164	51.03
298.378	46.93
298.593	28.5
298.807	30.55
299.022	20.31
299.236	-77.99
299.451	85.84
299.665	69.46
299.88	57.17
300.094	-2.22
300.309	-20.65
300.523	1.88
300.737	75.6
300.952	71.51
301.166	75.6
301.381	-6.31
301.595	89.94
301.809	24.4
302.024	16.21
302.238	63.32
302.452	14.17
302.667	42.84
302.881	87.89
303.095	42.84
303.309	30.55
303.524	40.79
303.738	40.79
303.952	-2.22
304.166	51.03
304.381	77.65
304.595	98.13
304.809	12.12
305.023	34.64
305.237	53.08
305.452	69.46
305.666	51.03
305.88	59.22
306.094	77.65
306.308	-22.7
306.522	20.31
306.736	-18.6
306.95	-2.22
307.164	18.26
307.379	-8.36
307.593	114.52
307.807	104.28
308.021	-6.31
308.235	71.51
308.449	30.55
308.663	51.03
308.877	98.13
309.091	112.47
309.305	-4.27
309.519	69.46
309.733	30.55
309.947	-28.84
310.161	128.85
310.374	42.84
310.588	79.7
310.802	-6.31
311.016	71.51
311.23	-12.46
311.444	32.6
311.658	36.69
311.872	51.03
312.085	79.7
312.299	116.56
312.513	89.94
312.727	114.52
312.941	30.55
313.154	3.93
313.368	48.98
313.582	-45.23
313.796	26.45
314.009	77.65
314.223	71.51
314.437	75.6
314.651	57.17
314.864	24.4
315.078	16.21
315.292	26.45
315.505	-2.22
315.719	59.22
315.933	104.28
316.146	89.94
316.36	8.02
316.573	73.56
316.787	36.69
317.001	53.08
317.214	46.93
317.428	42.84
317.641	10.07
317.855	36.69
318.068	38.74
318.282	75.6
318.495	79.7
318.709	16.21
318.922	73.56
319.136	71.51
319.349	46.93
319.563	46.93
319.776	-18.6
319.99	30.55
320.203	75.6
320.417	14.17
320.63	59.22
320.843	67.41
321.057	8.02
321.27	96.08
321.483	28.5
321.697	65.36
321.91	61.27
322.124	126.8
322.337	79.7
322.55	36.69
322.763	65.36
322.977	14.17
323.19	38.74
323.403	44.88
323.617	38.74
323.83	106.32
324.043	-12.46
324.256	24.4
324.469	22.36
324.683	98.13
324.896	44.88
325.109	32.6
325.322	22.36
325.535	87.89
325.748	65.36
325.962	71.51
326.175	-4.27
326.388	48.98
326.601	120.66
326.814	94.04
327.027	87.89
327.24	51.03
327.453	71.51
327.666	69.46
327.879	135
328.092	32.6
328.305	30.55
328.518	22.36
328.731	83.8
328.944	44.88
329.157	61.27
329.37	57.17
329.583	34.64
329.796	59.22
330.009	-10.41
330.222	73.56
330.435	8.02
330.648	40.79
330.861	77.65
331.073	24.4
331.286	-2.22
331.499	71.51
331.712	16.21
331.925	118.61
332.138	126.8
332.35	147.28
332.563	-39.08
332.776	108.37
332.989	-12.46
333.202	8.02
333.414	65.36
333.627	48.98
333.84	-16.55
334.053	22.36
334.265	79.7
334.478	57.17
334.691	59.22
334.903	51.03
335.116	-34.99
335.329	94.04
335.541	32.6
335.754	83.8
335.966	-14.51
336.179	79.7
336.392	63.32
336.604	32.6
336.817	-8.36
337.029	91.99
337.242	22.36
337.454	-18.6
337.667	94.04
337.88	135
338.092	36.69
338.305	18.26
338.517	-18.6
338.729	104.28
338.942	104.28
339.154	89.94
339.367	55.12
339.579	10.07
339.792	-30.89
340.004	28.5
340.217	38.74
340.429	36.69
340.641	-22.7
340.854	51.03
341.066	20.31
341.278	22.36
341.491	20.31
341.703	55.12
341.915	57.17
342.128	96.08
342.34	-10.41
342.552	12.12
342.764	34.64
342.977	32.6
343.189	118.61
343.401	89.94
343.613	14.17
343.826	30.55
344.038	-2.22
344.25	79.7
344.462	44.88
344.674	48.98
344.886	100.18
345.099	63.32
345.311	28.5
345.523	12.12
345.735	77.65
345.947	77.65
346.159	-30.89
346.371	53.08
346.583	28.5
346.795	153.43
347.007	65.36
347.219	-4.27
347.431	83.8
347.643	51.03
347.855	10.07
348.067	114.52
348.279	28.5
348.491	65.36
348.703	20.31
348.915	46.93
349.127	98.13
349.339	40.79
349.551	-37.03
349.763	104.28
349.975	79.7
350.187	46.93
350.399	59.22
350.61	67.41
350.822	24.4
351.034	53.08
351.246	85.84
351.458	83.8
351.669	81.75
351.881	116.56
352.093	44.88
352.305	44.88
352.517	30.55
352.728	42.84
352.94	-6.31
353.152	26.45
353.363	26.45
353.575	71.51
353.787	57.17
353.999	48.98
354.21	44.88
354.422	18.26
354.633	5.97
354.845	75.6
355.057	28.5
355.268	63.32
355.48	85.84
355.692	44.88
355.903	36.69
356.115	-4.27
356.326	36.69
356.538	106.32
356.749	91.99
356.961	46.93
357.172	20.31
357.384	-39.08
357.595	100.18
357.807	16.21
358.018	20.31
358.23	40.79
358.441	169.81
358.653	106.32
358.864	89.94
359.075	44.88
359.287	96.08
359.498	96.08
359.709	51.03
359.921	96.08
360.132	51.03
360.344	81.75
360.555	3.93
360.766	135
360.977	59.22
361.189	67.41
361.4	48.98
361.611	85.84
361.823	32.6
362.034	118.61
362.245	-4.27
362.456	34.64
362.667	30.55
362.879	65.36
363.09	28.5
363.301	73.56
363.512	20.31
363.723	55.12
363.935	53.08
364.146	46.93
364.357	71.51
364.568	100.18
364.779	26.45
364.99	110.42
365.201	85.84
365.412	180.05
365.623	-18.6
365.834	98.13
366.045	59.22
366.256	94.04
366.467	38.74
366.678	112.47
366.889	-4.27
367.1	83.8
367.311	34.64
367.522	96.08
367.733	91.99
367.944	26.45
368.155	12.12
368.366	75.6
368.577	108.37
368.788	104.28
368.999	55.12
369.209	18.26
369.42	87.89
369.631	159.57
369.842	16.21
370.053	48.98
370.264	135
370.474	3.93
370.685	38.74
370.896	132.95
371.107	132.95
371.317	65.36
371.528	57.17
371.739	85.84
371.95	10.07
372.16	85.84
372.371	1.88
372.582	79.7
372.792	53.08
373.003	-14.51
373.214	145.24
373.424	96.08
373.635	28.5
373.846	182.1
374.056	26.45
374.267	87.89
374.477	59.22
374.688	102.23
374.898	83.8
375.109	53.08
375.319	96.08
375.53	71.51
375.74	77.65
375.951	104.28
376.161	55.12
376.372	91.99
376.582	38.74
376.793	104.28
377.003	85.84
377.214	57.17
377.424	-10.41
377.635	87.89
377.845	42.84
378.055	91.99
378.266	81.75
378.476	102.23
378.686	135
378.897	102.23
379.107	141.14
379.317	94.04
379.528	59.22
379.738	81.75
379.948	16.21
380.158	118.61
380.369	89.94
380.579	63.32
380.789	34.64
380.999	73.56
381.21	126.8
381.42	124.76
381.63	57.17
381.84	53.08
382.05	89.94
382.261	89.94
382.471	91.99
382.681	85.84
382.891	42.84
383.101	75.6
383.311	26.45
383.521	55.12
383.731	108.37
383.941	184.15
384.151	46.93
384.361	147.28
384.571	55.12
384.781	130.9
384.991	163.67
385.201	157.52
385.411	51.03
385.621	94.04
385.831	79.7
386.041	18.26
386.251	34.64
386.461	173.91
386.671	106.32
386.881	106.32
387.091	-10.41
387.301	87.89
387.511	1.88
387.72	57.17
387.93	102.23
388.14	24.4
388.35	63.32
388.56	114.52
388.769	51.03
388.979	75.6
389.189	79.7
389.399	77.65
389.609	38.74
389.818	63.32
390.028	104.28
390.238	87.89
390.447	26.45
390.657	141.14
390.867	51.03
391.076	91.99
391.286	96.08
391.496	48.98
391.705	83.8
391.915	61.27
392.125	55.12
392.334	71.51
392.544	135
392.753	32.6
392.963	51.03
393.172	67.41
393.382	87.89
393.591	122.71
393.801	112.47
394.01	169.81
394.22	87.89
394.429	116.56
394.639	110.42
394.848	116.56
395.058	96.08
395.267	128.85
395.477	87.89
395.686	104.28
395.895	75.6
396.105	108.37
396.314	145.24
396.524	118.61
396.733	55.12
396.942	81.75
397.152	157.52
397.361	87.89
397.57	126.8
397.78	77.65
397.989	182.1
398.198	198.48
398.407	124.76
398.617	122.71
398.826	135
399.035	145.24
399.244	151.38
399.453	55.12
399.663	143.19
399.872	157.52
400.081	116.56
400.29	141.14
400.499	100.18
400.708	139.09
400.917	137.04
401.127	159.57
401.336	48.98
401.545	171.86
401.754	233.3
401.963	130.9
402.172	182.1
402.381	94.04
402.59	114.52
402.799	143.19
403.008	161.62
403.217	173.91
403.426	94.04
403.635	79.7
403.844	167.76
404.053	200.53
404.262	157.52
404.471	171.86
404.68	194.39
404.888	137.04
405.097	212.82
405.306	206.67
405.515	124.76
405.724	128.85
405.933	173.91
406.142	204.63
406.35	239.44
406.559	186.19
406.768	210.77
406.977	157.52
407.185	235.35
407.394	237.39
407.603	241.49
407.812	272.21
408.02	276.31
408.229	204.63
408.438	223.06
408.646	192.34
408.855	343.89
409.064	307.02
409.272	278.35
409.481	329.55
409.69	350.03
409.898	268.11
410.107	372.56
410.315	282.45
410.524	317.26
410.733	354.13
410.941	376.66
411.15	397.14
411.358	524.11
411.567	440.14
411.775	540.49
411.984	466.77
412.192	485.2
412.401	460.62
412.609	573.26
412.818	573.26
413.026	603.98
413.234	632.65
413.443	534.35
413.651	640.84
413.86	718.67
414.068	710.47
414.276	706.38
414.485	681.8
414.693	804.68
414.901	866.12
415.11	819.02
415.318	759.63
415.526	831.3
415.734	794.44
415.943	943.94
416.151	872.26
416.359	913.22
416.567	1005.38
416.776	1013.57
416.984	1107.78
417.192	1173.32
417.4	1124.16
417.608	1105.73
417.817	1177.41
418.025	1371.97
418.233	1279.81
418.441	1322.82
418.649	1374.02
418.857	1433.41
419.065	1529.66
419.273	1365.82
419.481	1537.85
419.689	1500.99
419.897	1662.78
420.105	1693.5
420.313	1695.55
420.521	1883.96
420.729	1795.9
420.937	1799.99
421.145	1920.82
421.353	2070.33
421.561	2148.15
421.769	2117.43
421.977	2359.09
422.185	2369.33
422.393	2336.56
422.601	2563.89
422.809	2406.19
423.017	2711.34
423.224	2594.61
423.432	2832.17
423.64	2764.59
423.848	3182.37
424.056	2983.72
424.263	3225.38
424.471	3299.11
424.679	3340.07
424.887	3518.24
425.094	3698.46
425.302	3583.77
425.51	3753.76
425.718	3749.66
425.925	3997.46
426.133	3940.12
426.341	4226.84
426.548	4517.65
426.756	4474.64
426.964	4359.95
427.171	4671.25
427.379	4845.32
427.586	4888.33
427.794	4988.68
428.001	5150.47
428.209	5570.3
428.417	5519.11
428.624	5857.02
428.832	5977.85
429.039	5887.74
429.247	5875.45
429.454	6506.23
429.662	6833.9
429.869	6385.4
430.076	6743.79
430.284	6584.05
430.491	6999.79
430.699	7268.07
430.906	7137
431.114	7415.52
431.321	7659.23
431.528	7800.54
431.736	8224.47
431.943	8605.39
432.15	8416.98
432.358	8503
432.565	8943.31
432.772	9029.32
432.979	9426.63
433.187	9586.37
433.394	9350.85
433.601	10346.17
433.808	10227.39
434.016	10233.53
434.223	10669.75
434.43	11275.95
434.637	11093.68
434.844	11728.55
435.052	11892.38
435.259	12002.97
435.466	11888.29
435.673	11746.98
435.88	12869.26
436.087	13139.6
436.294	13252.24
436.501	12721.81
436.708	13344.39
436.915	13704.84
437.122	14497.4
437.329	14380.67
437.537	14915.19
437.743	15052.4
437.95	14964.34
438.157	15660.65
438.364	16072.29
438.571	16100.96
438.778	16189.02
438.985	17868.36
439.192	17198.67
439.399	17741.38
439.606	17104.46
439.813	18204.22
440.02	19252.78
440.227	18771.51
440.433	18656.82
440.64	19363.37
440.847	19265.07
441.054	19680.81
441.261	20723.23
441.467	20821.53
441.674	21265.94
441.881	21999.11
442.088	21640.72
442.294	21562.89
442.501	22330.88
442.708	22828.54
442.914	23555.57
443.121	24509.92
443.328	23920.1
443.534	25738.7
443.741	24630.75
443.948	24514.02
444.154	26156.49
444.361	26066.38
444.568	26594.75
444.774	26373.57
444.981	26748.35
445.187	27370.93
445.394	28380.58
445.6	28292.52
445.807	31098.23
446.013	29427.09
446.22	30166.41
446.426	31313.27
446.633	31327.61
446.839	32286.06
447.046	31210.87
447.252	32955.74
447.459	32906.59
447.665	32832.86
447.871	34209.1
448.078	35616.05
448.284	34139.47
448.491	34850.11
448.697	36234.54
448.903	36912.42
449.11	36810.02
449.316	35927.35
449.522	36594.98
449.728	37668.12
449.935	38067.47
450.141	38120.72
450.347	39001.35
450.553	37606.68
450.76	38053.14
450.966	39261.44
451.172	38702.34
451.378	39810.29
451.584	38935.81
451.791	39881.97
451.997	39836.92
452.203	39957.75
452.409	40180.98
452.615	40477.93
452.821	38556.94
453.027	38253.84
453.233	40625.39
453.44	38784.26
453.646	39001.35
453.852	39009.54
454.058	39701.75
454.264	38419.72
454.47	39183.62
454.676	38423.82
454.882	39355.64
455.088	35845.43
455.294	36541.74
455.5	37008.67
455.705	37448.99
455.911	35605.81
456.117	35448.12
456.323	34745.67
456.529	32755.04
456.735	33965.39
456.941	33264.99
457.147	32566.63
457.352	32085.36
457.558	31352.18
457.764	31737.2
457.97	30881.15
458.176	30291.34
458.381	30512.52
458.587	29011.35
458.793	29091.23
458.999	27362.74
459.204	29175.19
459.41	28083.62
459.616	26721.73
459.821	26318.28
460.027	26256.84
460.233	26078.66
460.438	24489.44
460.644	24933.85
460.85	23551.47
461.055	23293.43
461.261	23436.78
461.466	21421.58
461.672	21122.58
461.878	22273.54
462.083	21171.73
462.289	20684.31
462.494	20397.6
462.7	19478.06
462.905	18865.72
463.111	19811.88
463.316	19662.38
463.522	19482.16
463.727	19269.17
463.932	19254.83
464.138	19045.94
464.343	19222.06
464.549	18869.81
464.754	19240.5
464.959	19234.35
465.165	18667.06
465.37	18222.66
465.575	17544.78
465.781	18521.66
465.986	18486.84
466.191	17909.32
466.397	17538.63
466.602	16457.31
466.807	17241.68
467.012	17190.48
467.218	17229.39
467.423	16606.81
467.628	17034.83
467.833	17667.66
468.038	17092.18
468.244	16735.83
468.449	17452.62
468.654	16985.68
468.859	16459.35
469.064	16735.83
469.269	15957.6
469.474	16166.49
469.679	16350.81
469.885	15500.9
470.09	15998.56
470.295	15949.41
470.5	15578.73
470.705	15720.04
470.91	15337.07
471.115	14931.57
471.32	15197.81
471.525	15054.45
471.73	14810.74
471.935	14614.13
472.139	14329.47
472.344	14515.83
472.549	14587.51
472.754	13928.06
472.959	13985.41
473.164	13465.22
473.369	13287.05
473.574	13825.67
473.778	13862.53
473.983	13592.2
474.188	13600.39
474.393	13026.96
474.598	13012.62
474.802	13147.79
475.007	12785.3
475.212	12899.98
475.417	12426.9
475.621	12603.03
475.826	12428.95
476.031	12199.58
476.235	11914.91
476.44	12179.1
476.645	11998.88
476.849	11884.19
477.054	11603.62
477.259	11544.23
477.463	11767.46
477.668	11230.89
477.872	11353.77
478.077	11318.95
478.282	10866.35
478.486	10913.45
478.691	10716.85
478.895	10811.06
479.1	10804.91
479.304	10772.14
479.509	10440.37
479.713	10835.63
479.918	10303.16
480.122	10237.63
480.326	10499.77
480.531	10577.59
480.735	10211
480.94	10176.19
481.144	10434.23
481.348	10010.3
481.553	10088.12
481.757	9995.96
481.961	9938.62
482.166	10280.63
482.37	10098.36
482.574	9772.74
482.778	10045.12
482.983	10186.43
483.187	9871.04
483.391	10178.23
483.595	9901.76
483.8	9768.64
484.004	9975.49
484.208	10018.49
484.412	9991.87
484.616	10155.71
484.821	9795.26
485.025	9883.33
485.229	9995.96
485.433	9973.44
485.637	9987.77
485.841	9860.8
486.045	9848.51
486.249	9875.13
486.453	9854.65
486.657	9977.53
486.861	9877.18
487.065	9662.15
487.269	9817.79
487.473	9793.22
487.677	9912
487.881	10114.75
488.085	9946.81
488.289	9955.01
488.493	9774.78
488.697	10000.06
488.901	9930.43
489.105	10012.35
489.309	9762.5
489.512	9973.44
489.716	10055.36
489.92	10038.97
490.124	9940.67
490.328	10192.57
490.531	10022.59
490.735	10088.12
490.939	10260.15
491.143	10071.74
491.346	10184.38
491.55	10370.74
491.754	10356.41
491.958	10454.71
492.161	10370.74
492.365	10288.82
492.569	10292.92
492.772	10501.81
492.976	10430.13
493.18	10657.46
493.383	10643.12
493.587	10862.26
493.79	10868.4
493.994	10708.66
494.197	10985.13
494.401	10991.28
494.605	10966.7
494.808	11073.2
495.012	11153.07
495.215	11531.94
495.419	11460.26
495.622	11212.46
495.825	11706.02
496.029	11597.48
496.232	11708.07
496.436	11628.2
496.639	12150.43
496.843	12021.41
497.046	12267.16
497.249	12428.95
497.453	12304.03
497.656	12318.36
497.859	12623.51
498.063	12539.54
498.266	12705.43
498.469	12834.45
498.673	13037.2
498.876	13237.9
499.079	13395.59
499.282	13366.92
499.485	13684.36
499.689	13719.17
499.892	13749.89
500.095	13821.57
500.298	14200.44
500.501	14153.34
500.705	14759.54
500.908	14558.84
501.111	14818.93
501.314	15011.44
501.517	15199.85
501.72	15277.68
501.923	15406.7
502.126	15695.46
502.329	15758.95
502.532	15894.11
502.735	16189.02
502.938	16445.02
503.141	16520.79
503.344	16856.66
503.547	16709.21
503.75	16893.52
503.953	17221.2
504.156	17348.17
504.359	17544.78
504.562	17567.31
504.765	18263.61
504.968	18169.41
505.17	18466.36
505.373	18671.16
505.576	18781.75
505.779	19158.58
505.982	19191.34
506.185	19609.13
506.387	19541.55
506.59	19754.54
506.793	19869.22
506.996	20074.02
507.198	20452.89
507.401	20436.51
507.604	20854.3
507.807	20934.17
508.009	21341.71
508.212	21489.17
508.415	21945.86
508.617	21835.27
508.82	22144.52
509.022	21966.34
509.225	22851.06
509.428	22928.89
509.63	23043.57
509.833	22818.3
510.035	23791.08
510.238	23459.31
510.44	23789.03
510.643	24268.26
510.845	24333.79
511.048	24262.12
511.25	24356.32
511.453	24794.59
511.655	25730.51
511.858	25130.45
512.06	25853.39
512.262	25808.33
512.465	26226.12
512.667	26365.38
512.87	26858.94
513.072	26652.09
513.274	27147.7
513.477	27616.69
513.679	27663.79
513.881	28366.24
514.084	28300.71
514.286	28200.36
514.488	28659.1
514.69	29189.53
514.893	29650.32
515.095	29474.2
515.297	29920.65
515.499	29992.33
515.701	30614.91
515.904	30666.11
516.106	30803.33
516.308	30870.91
516.51	31473.01
516.712	31354.23
516.914	32056.68
517.116	32482.66
517.318	32423.27
517.52	32437.61
517.722	32939.36
517.925	33267.03
518.127	33690.96
518.329	33783.12
518.531	33848.66
518.733	34663.75
518.935	34780.48
519.136	34970.94
519.338	35173.69
519.54	35544.37
519.742	35585.33
519.944	36056.37
520.146	36486.44
520.348	36764.96
520.55	36859.17
520.752	37195.04
520.954	37739.8
521.155	37512.47
521.357	37944.59
521.559	38024.47
521.761	38796.55
521.963	38636.81
522.164	39204.1
522.366	39126.27
522.568	39517.43
522.77	39693.56
522.971	40504.56
523.173	40113.39
523.375	40434.92
523.576	40477.93
523.778	40555.75
523.98	41460.96
524.181	41471.2
524.383	41497.82
524.584	41942.23
524.786	42018
524.988	41778.39
525.189	42474.7
525.391	42503.37
525.592	42849.48
525.794	42958.02
525.995	42978.5
526.197	43220.16
526.398	43416.77
526.6	43617.47
526.801	44186.8
527.003	44088.5
527.204	43963.57
527.406	44422.32
527.607	44207.28
527.808	45065.38
528.01	44371.12
528.211	44711.08
528.412	45690.01
528.614	45415.58
528.815	45292.71
529.016	45436.06
529.218	45317.28
529.419	45806.75
529.62	45765.79
529.822	45567.13
530.023	45864.09
530.224	45823.13
530.425	45647
530.626	45753.5
530.828	45960.34
531.029	46912.65
531.23	45986.97
531.431	46021.78
531.632	46302.35
531.833	47105.16
532.035	46414.99
532.236	46337.17
532.437	47225.99
532.638	46558.35
532.839	46914.7
533.04	47002.76
533.241	46242.96
533.442	47164.55
533.643	46810.25
533.844	46582.93
534.045	47127.69
534.246	46597.26
534.447	47309.96
534.648	46931.08
534.849	46894.22
535.05	46969.99
535.251	47094.92
535.451	47037.58
535.652	47414.4
535.853	47193.22
536.054	47348.87
536.255	47240.32
536.456	46955.66
536.657	47961.21
536.857	47078.53
537.058	47185.03
537.259	47875.19
537.46	47438.98
537.66	46869.64
537.861	47715.45
538.062	47185.03
538.263	47297.67
538.463	46759.05
538.664	47412.35
538.865	47225.99
539.065	47578.24
539.266	46496.91
539.466	47582.34
539.667	46744.72
539.868	47529.09
540.068	47410.31
540.269	46980.23
540.469	47631.49
540.67	47117.45
540.87	47111.3
541.071	47281.28
541.271	47486.08
541.472	47051.91
541.672	47135.88
541.873	47103.11
542.073	46822.54
542.274	47832.19
542.474	47185.03
542.675	46939.27
542.875	47287.43
543.075	47225.99
543.276	46331.03
543.476	47512.7
543.676	46836.87
543.877	47402.11
544.077	47119.49
544.277	47056.01
544.478	47170.69
544.678	47459.46
544.878	46785.68
545.078	46908.55
545.279	46634.13
545.479	47156.36
545.679	46759.05
545.879	47123.59
546.079	46709.9
546.28	47131.78
546.48	46677.13
546.68	47139.97
546.88	47295.62
547.08	46750.86
547.28	46789.77
547.48	46449.81
547.68	46955.66
547.88	46619.79
548.081	46431.38
548.281	46369.94
548.481	46853.26
548.681	47115.4
548.881	46652.56
549.081	46662.8
549.28	47000.71
549.48	46560.4
549.68	46292.11
549.88	47524.99
550.08	46718.09
550.28	46601.36
550.48	46650.51
550.68	47129.73
550.88	46386.32
551.08	46451.86
551.279	46888.07
551.479	46245.01
551.679	46472.34
551.879	46501.01
552.079	46644.37
552.278	46038.17
552.478	46193.81
552.678	46771.34
552.878	46462.1
553.077	46197.91
553.277	45980.82
553.477	46851.21
553.676	46130.33
553.876	46232.72
554.076	45825.18
554.275	45886.62
554.475	45753.5
554.674	46439.57
554.874	46126.23
555.074	45845.66
555.273	45909.14
555.473	46261.4
555.672	45403.3
555.872	46369.94
556.071	45982.87
556.271	46079.13
556.47	45302.95
556.67	44989.61
556.869	45612.19
557.068	45776.03
557.268	45477.02
557.467	45464.74
557.667	45307.04
557.866	45604
558.065	45378.72
558.265	45141.16
558.464	44895.4
558.663	45249.7
558.863	44596.4
559.062	45251.75
559.261	44772.52
559.461	45313.19
559.66	44657.84
559.859	44967.08
560.058	44682.41
560.258	45081.77
560.457	44311.73
560.656	44690.6
560.855	43826.36
561.054	44608.68
561.253	44137.65
561.453	44281.01
561.652	44203.19
561.851	44453.04
562.05	43799.74
562.249	43795.64
562.448	43895.99
562.647	43799.74
562.846	43650.24
563.045	43676.86
563.244	43332.8
563.443	43605.18
563.642	42843.34
563.841	43412.67
564.04	42861.77
564.239	43541.69
564.438	42820.81
564.637	42558.67
564.836	43125.96
565.035	42761.42
565.234	42964.17
565.432	42738.89
565.631	42556.62
565.83	42534.09
566.029	42142.93
566.228	41766.1
566.427	41848.02
566.625	42099.92
566.824	41729.24
567.023	42175.7
567.222	41184.48
567.42	41999.57
567.619	41755.86
567.818	41665.75
568.016	41116.9
568.215	41475.29
568.414	41518.3
568.612	41749.72
568.811	40774.89
569.01	41192.67
569.208	40819.94
569.407	40686.82
569.605	40580.33
569.804	40570.09
570.002	40260.85
570.201	40422.64
570.4	39865.59
570.598	39832.82
570.797	39716.09
570.995	39988.47
571.193	39412.99
571.392	39949.56
571.59	39054.59
571.789	39402.75
571.987	39814.39
572.186	39130.37
572.384	38898.95
572.582	39738.61
572.781	39283.97
572.979	38714.63
573.177	38843.65
573.376	38722.82
573.574	38313.23
573.772	38704.39
573.971	38575.37
574.169	38120.72
574.367	37530.9
574.565	38135.06
574.763	37926.16
574.962	37944.59
575.16	37561.62
575.358	38012.18
575.556	37162.27
575.754	38251.79
575.952	36814.12
576.151	37594.39
576.349	37039.39
576.547	36887.84
576.745	37313.82
576.943	37084.45
577.141	36666.66
577.339	36932.9
577.537	36683.05
577.735	36599.08
577.933	36085.04
578.131	36465.96
578.329	36222.25
578.527	35933.49
578.725	35986.74
578.923	36212.01
579.121	35689.78
579.319	35859.76
579.516	36093.23
579.714	35765.56
579.912	35444.02
580.11	35392.83
580.308	35349.82
580.506	35556.66
580.704	34587.97
580.901	35190.08
581.099	35114.3
581.297	34504.01
581.495	34946.37
581.692	35011.9
581.89	34278.73
582.088	34657.6
582.285	34374.98
582.483	34426.18
582.681	34225.48
582.878	33885.52
583.076	33533.27
583.274	34028.88
583.471	33279.32
583.669	33484.12
583.866	33482.07
584.064	33525.08
584.262	33029.47
584.459	33570.13
584.657	32925.02
584.854	33191.26
585.052	32603.49
585.249	33062.24
585.447	32806.24
585.644	32345.45
585.841	32513.38
586.039	32652.64
586.236	32413.03
586.434	32050.54
586.631	32111.98
586.828	32279.91
587.026	31890.8
587.223	31804.78
587.42	31319.42
587.618	31823.22
587.815	31411.57
588.012	31391.09
588.21	31313.27
588.407	31528.31
588.604	31100.28
588.801	31106.43
588.999	30678.4
589.196	30813.57
589.393	30768.51
589.59	30590.34
589.787	30698.88
589.984	30418.31
590.182	30307.72
590.379	30330.25
590.576	30049.67
590.773	29963.66
590.97	29793.68
591.167	30301.57
591.364	29724.05
591.561	29652.37
591.758	29633.94
591.955	29582.74
592.152	29681.04
592.349	29885.84
592.546	29351.32
592.743	29504.92
592.94	28728.73
593.137	29070.75
593.334	28898.72
593.531	28507.55
593.727	28917.15
593.924	29099.42
594.121	28300.71
594.318	28872.09
594.515	28331.43
594.712	28669.34
594.908	28218.79
595.105	28439.97
595.302	28016.04
595.499	28132.78
595.696	27733.42
595.892	27610.54
596.089	27983.27
596.286	27942.31
596.482	27624.88
596.679	27573.68
596.876	27735.47
597.072	27415.99
597.269	27483.57
597.466	27043.26
597.662	26883.52
597.859	26783.16
598.055	27139.51
598.252	26547.65
598.448	26576.32
598.645	26729.92
598.841	26521.02
599.038	26576.32
599.234	26754.49
599.431	26174.92
599.627	26222.02
599.824	26004.94
600.02	26076.62
600.217	25945.55
600.413	25771.47
600.609	25959.88
600.806	25695.69
601.002	25726.41
601.198	25433.55
601.395	25531.86
601.591	25394.64
601.787	25544.14
601.984	25034.2
602.18	25345.49
602.376	25126.36
602.572	24819.16
602.769	25159.13
602.965	24559.07
603.161	24835.55
603.357	24559.07
603.553	24313.31
603.75	24829.4
603.946	24268.26
604.142	24473.06
604.338	23911.91
604.534	24450.53
604.73	23791.08
604.926	23924.2
605.122	23848.43
605.318	23838.19
605.514	23676.4
605.71	23918.06
605.906	23731.69
606.102	23522.8
606.298	23672.3
606.494	23451.12
606.69	23145.97
606.886	23348.72
607.082	22873.59
607.278	23209.46
607.474	22949.37
607.67	23117.3
607.866	22752.76
608.062	23182.84
608.257	22939.13
608.453	22953.46
608.649	22740.47
608.845	22566.4
609.041	22552.06
609.236	22556.16
609.432	22736.38
609.628	22347.26
609.824	22064.64
610.019	22361.6
610.215	22476.29
610.411	22640.12
610.606	22238.72
610.802	22500.86
610.998	21806.6
611.193	22134.28
611.389	22007.3
611.584	21786.12
611.78	21878.28
611.976	21661.19
612.171	21679.63
612.367	22042.12
612.562	21669.39
612.758	21272.08
612.953	21423.63
613.149	21794.31
613.344	21480.97
613.539	21528.08
613.735	21671.43
613.93	21597.71
614.126	21298.7
614.321	21280.27
614.517	21354
614.712	20956.69
614.907	21085.72
615.103	21210.64
615.298	21020.18
615.493	21356.05
615.688	20663.83
615.884	21358.1
616.079	20917.78
616.274	20778.52
616.47	20706.84
616.665	20663.83
616.86	20862.49
617.055	20860.44
617.25	20225.57
617.445	20987.41
617.641	20317.73
617.836	20626.97
618.031	20241.95
618.226	20235.81
618.421	20004.39
618.616	20227.62
618.811	19953.19
619.006	20379.17
619.201	19738.15
619.396	19959.33
619.591	19586.6
619.786	19721.77
619.981	19682.86
620.176	19805.74
620.371	19289.65
620.566	19185.2
620.761	19203.63
620.956	19293.74
621.151	19211.82
621.346	18888.25
621.541	18724.41
621.735	18705.98
621.93	18525.75
622.125	18624.06
622.32	18847.29
622.515	18486.84
622.709	18366.01
622.904	18230.85
623.099	18275.9
623.294	18136.64
623.488	18097.73
623.683	17983.04
623.878	17634.89
624.072	17630.79
624.267	17514.06
624.462	17352.27
624.656	17622.6
624.851	17376.84
625.046	17040.98
625.24	17280.59
625.435	17038.93
625.629	17038.93
625.824	16938.58
626.018	16709.21
626.213	16461.4
626.407	16356.96
626.602	16281.18
626.796	16397.92
626.991	16445.02
627.185	16244.32
627.38	16117.34
627.574	16377.44
627.768	15898.21
627.963	15912.55
628.157	15765.09
628.352	15953.51
628.546	15603.3
628.74	16002.66
628.935	15521.38
629.129	15416.94
629.323	15124.08
629.517	15226.48
629.712	15203.95
629.906	15128.17
630.1	15113.84
630.294	15048.3
630.489	14796.4
630.683	14837.36
630.877	14841.46
631.071	14448.25
631.265	14562.94
631.459	14534.26
631.653	14548.6
631.848	14253.69
632.042	14007.94
632.236	14237.31
632.43	14268.03
632.624	14165.63
632.818	13930.11
633.012	13770.37
633.206	13708.93
633.4	13821.57
633.594	13710.98
633.788	13698.69
633.982	13514.38
634.176	13686.4
634.369	13393.54
634.563	13405.83
634.757	13375.11
634.951	13397.64
635.145	13090.45
635.339	13117.07
635.533	13059.73
635.726	12979.86
635.92	13059.73
636.114	12826.26
636.308	12734.1
636.501	13053.58
636.695	12519.06
636.889	12402.33
637.083	12492.44
637.276	12500.63
637.47	12263.07
637.664	12160.67
637.857	12097.18
638.051	12191.39
638.244	12140.19
638.438	11892.38
638.632	11857.57
638.825	11722.4
639.019	11810.47
639.212	11830.94
639.406	11669.16
639.599	11562.66
639.793	11591.33
639.986	11314.86
640.18	11321
640.373	11392.68
640.567	11210.41
640.76	11292.33
640.954	10985.13
641.147	10964.65
641.34	10978.99
641.534	11148.97
641.727	10985.13
641.92	10899.12
642.114	10870.45
642.307	10942.13
642.5	10735.28
642.694	10585.78
642.887	10591.92
643.08	10620.6
643.273	10428.09
643.467	10325.69
643.66	10399.41
643.853	10473.14
644.046	10159.8
644.239	10167.99
644.432	9907.9
644.626	9983.68
644.819	10000.06
645.012	10004.16
645.205	10077.88
645.398	9821.89
645.591	9787.07
645.784	9993.92
645.977	9672.39
646.17	9797.31
646.363	9477.83
646.556	9350.85
646.749	9455.3
646.942	9479.88
647.135	9379.53
647.328	9432.77
647.521	9377.48
647.714	9039.56
647.907	9303.75
648.099	9062.09
648.292	9211.59
648.485	9174.73
648.678	9070.28
648.871	8787.66
649.064	8869.58
649.256	8871.63
649.449	9010.89
649.642	8779.47
649.835	8795.86
650.027	8660.69
650.22	8582.87
650.413	8541.91
650.605	8503
650.798	8554.19
650.991	8388.31
651.183	8390.36
651.376	8312.53
651.568	8408.79
651.761	8287.96
651.954	8285.91
652.146	8048.35
652.339	8179.42
652.531	8206.04
652.724	7956.19
652.916	8003.29
653.109	8003.29
653.301	7823.07
653.494	7851.74
653.686	8001.24
653.879	7798.49
654.071	7726.82
654.263	7571.17
654.456	7966.43
654.648	7751.39
654.84	7581.41
655.033	7567.07
655.225	7524.07
655.417	7585.51
655.61	7517.92
655.802	7446.24
655.994	7374.56
656.186	7341.8
656.379	7444.2
656.571	7395.04
656.763	7345.89
656.955	7182.06
657.148	7272.17
657.34	7165.67
657.532	6889.2
657.724	7034.6
657.916	7065.32
658.108	6944.49
658.3	6960.88
658.492	6901.48
658.684	6905.58
658.876	6844.14
659.068	6801.13
659.26	6717.17
659.452	6794.99
659.644	6805.23
659.836	6653.68
660.028	6733.55
660.22	6663.92
660.412	6702.83
660.604	6682.35
660.796	6592.24
660.988	6543.09
661.18	6336.24
661.372	6414.07
661.563	6516.47
661.755	6182.65
661.947	6399.73
662.139	6074.1
662.331	6248.18
662.522	6070.01
662.714	6166.26
662.906	6084.34
663.097	6106.87
663.289	6178.55
663.481	6088.44
663.673	6047.48
663.864	6008.57
664.056	5906.17
664.247	5928.7
664.439	5887.74
664.631	5875.45
664.822	5760.77
665.014	5838.59
665.205	5897.98
665.397	5654.27
665.588	5691.13
665.78	5699.33
665.971	5619.46
666.163	5777.15
666.354	5652.22
666.546	5670.65
666.737	5566.21
666.929	5519.11
667.12	5469.95
667.311	5445.38
667.503	5504.77
667.694	5406.47
667.885	5381.89
668.077	5390.08
668.268	5367.56
668.459	5304.07
668.651	5351.17
668.842	5347.08
669.033	5275.4
669.224	5256.97
669.416	5332.74
669.607	5347.08
669.798	5197.57
669.989	5181.19
670.18	5285.64
670.371	4962.06
670.563	5158.66
670.754	5144.33
670.945	4968.2
671.136	4974.35
671.327	5117.7
671.518	5050.12
671.709	4990.73
671.9	5058.31
672.091	4902.67
672.282	4976.39
672.473	4747.02
672.664	4876.04
672.855	4814.6
673.046	4853.52
673.237	5125.9
673.428	4951.82
673.619	4816.65
673.809	4747.02
674	4857.61
674.191	4742.92
674.382	4732.69
674.573	4744.97
674.764	4755.21
674.954	4859.66
675.145	4593.42
675.336	4714.25
675.527	4658.96
675.717	4761.36
675.908	4687.63
676.099	4681.49
676.289	4792.08
676.48	4648.72
676.671	4656.91
676.861	4699.92
677.052	4581.14
677.243	4542.22
677.433	4601.62
677.624	4595.47
677.814	4593.42
678.005	4564.75
678.195	4456.21
678.386	4521.74
678.576	4441.87
678.767	4411.15
678.957	4546.32
679.148	4624.14
679.338	4462.35
679.529	4509.46
679.719	4368.15
679.909	4486.93
680.1	4368.15
680.29	4554.51
680.481	4515.6
680.671	4413.2
680.861	4405.01
681.052	4364.05
681.242	4386.58
681.432	4495.12
681.622	4355.86
681.813	4470.55
682.003	4316.95
682.193	4347.67
682.383	4431.63
682.573	4364.05
682.764	4341.52
682.954	4433.68
683.144	4503.31
683.334	4265.75
683.524	4286.23
683.714	4224.79
683.904	4339.48
684.094	4239.12
684.284	4261.65
684.474	4331.28
684.664	4206.36
684.854	4341.52
685.044	4241.17
685.234	4124.44
685.424	4241.17
685.614	4237.08
685.804	4081.43
685.994	4374.29
686.184	4165.4
686.374	4249.36
686.564	4175.64
686.753	4144.92
686.943	4153.11
687.133	4132.63
687.323	4015.9
687.513	4112.15
687.702	4067.1
687.892	4019.99
688.082	4108.05
688.272	4122.39
688.461	3942.17
688.651	3968.79
688.841	3944.22
689.03	3925.79
689.22	3931.93
689.41	4003.61
689.599	3864.35
689.789	3888.92
689.979	3890.97
690.168	3909.4
690.358	3741.47
690.547	3772.19
690.737	3884.83
690.926	3837.72
691.116	3649.31
691.305	3782.43
691.495	3688.22
691.684	3770.14
691.874	3610.4
692.063	3716.89
692.252	3651.36
692.442	3596.06
692.631	3620.64
692.82	3610.4
693.01	3614.49
693.199	3561.25
693.388	3485.47
693.578	3501.86
693.767	3589.92
693.956	3528.48
694.146	3516.19
694.335	3573.53
694.524	3383.07
694.713	3534.62
694.902	3481.38
695.092	3446.56
695.281	3475.23
695.47	3370.79
695.659	3389.22
695.848	3409.7
696.037	3489.57
696.226	3528.48
696.415	3481.38
696.604	3483.42
696.793	3374.88
696.982	3452.7
697.171	3477.28
697.36	3378.98
697.549	3356.45
697.738	3362.59
697.927	3432.22
698.116	3360.55
698.305	3477.28
698.494	3254.05
698.683	3335.97
698.872	3321.63
699.061	3174.18
699.25	3292.96
699.438	3282.72
699.627	3350.31
699.816	3424.03
700.005	3450.66
700.193	3204.9
700.382	3329.83
700.571	3200.8
700.76	3141.41
700.948	3192.61
701.137	3233.57
701.326	3256.1
701.514	3174.18
701.703	3211.04
701.892	3092.26
702.08	3276.58
702.269	3305.25
702.457	3176.23
702.646	3239.72
702.834	3233.57
703.023	3155.75
703.212	3141.41
703.4	3209
703.589	3184.42
703.777	3202.85
703.965	3137.32
704.154	3190.56
704.342	3149.61
704.531	3266.34
704.719	3059.49
704.907	3213.09
705.096	3141.41
705.284	3278.63
705.472	2996.01
705.661	3051.3
705.849	3180.32
706.037	3196.71
706.226	3147.56
706.414	3125.03
706.602	3161.89
706.79	3213.09
706.979	3106.6
707.167	3131.17
707.355	3008.3
707.543	3215.14
707.731	3112.74
707.919	3215.14
708.107	3008.3
708.296	3184.42
708.484	3073.83
708.672	2987.82
708.86	3280.68
709.048	3137.32
709.236	3239.72
709.424	3145.51
709.612	3159.85
709.8	3096.36
709.988	3200.8
710.176	3143.46
710.364	3147.56
710.551	3153.7
710.739	3151.65
710.927	3084.07
711.115	3122.98
711.303	3176.23
711.491	3016.49
711.679	3018.54
711.866	3194.66
712.054	3168.04
712.242	3227.43
712.43	3092.26
712.617	3114.79
712.805	3174.18
712.993	3170.08
713.181	3084.07
713.368	3069.73
713.556	3163.94
713.744	3073.83
713.931	3102.5
714.119	3067.69
714.306	3149.61
714.494	3075.88
714.682	3049.25
714.869	3127.08
715.057	3161.89
715.244	3102.5
715.432	3063.59
715.619	3077.93
715.807	2957.1
715.994	3176.23
716.182	3043.11
716.369	3118.89
716.556	3145.51
716.744	2965.29
716.931	3114.79
717.119	3067.69
717.306	3239.72
717.493	3086.12
717.681	3223.33
717.868	3172.13
718.055	3110.69
718.242	3092.26
718.43	3094.31
718.617	2993.96
718.804	2998.06
718.991	3112.74
719.179	3100.45
719.366	3020.58
719.553	3151.65
719.74	3016.49
719.927	3096.36
720.114	3106.6
720.301	3221.28
720.488	3104.55
720.676	2979.62
720.863	3176.23
721.05	3059.49
721.237	3120.93
721.424	3192.61
721.611	3018.54
721.798	3024.68
721.985	3125.03
722.172	3131.17
722.358	2938.66
722.545	3084.07
722.732	3047.21
722.919	3163.94
723.106	3116.84
723.293	2981.67
723.48	3120.93
723.667	2969.38
723.853	3014.44
724.04	2983.72
724.227	2887.47
724.414	3020.58
724.6	3008.3
724.787	3159.85
724.974	3049.25
725.161	3008.3
725.347	3069.73
725.534	3092.26
725.72	3049.25
725.907	3039.01
726.094	3213.09
726.28	3014.44
726.467	3155.75
726.653	2979.62
726.84	3055.4
727.027	2914.09
727.213	2871.08
727.4	3096.36
727.586	3041.06
727.773	2987.82
727.959	2930.47
728.145	2883.37
728.332	2971.43
728.518	2893.61
728.705	3041.06
728.891	3051.3
729.077	3016.49
729.264	3073.83
729.45	3041.06
729.636	3059.49
729.823	2930.47
730.009	3159.85
730.195	2901.8
730.382	3012.39
730.568	2991.91
730.754	2950.95
730.94	2881.32
731.126	3079.97
731.313	3024.68
731.499	2928.42
731.685	2942.76
731.871	2983.72
732.057	3073.83
732.243	2889.51
732.429	2953
732.615	2914.09
732.801	3008.3
732.987	2889.51
733.173	2928.42
733.359	2881.32
733.545	2993.96
733.731	2920.23
733.917	2869.03
734.103	2946.86
734.289	2928.42
734.475	2737.96
734.661	3018.54
734.847	2920.23
735.033	2889.51
735.219	3049.25
735.404	2901.8
735.59	2889.51
735.776	2901.8
735.962	2916.14
736.148	2832.17
736.333	2821.93
736.519	2805.55
736.705	2791.21
736.89	2750.25
737.076	2834.22
737.262	2879.27
737.447	2909.99
737.633	2846.51
737.819	2953
738.004	2832.17
738.19	2873.13
738.375	2832.17
738.561	2774.83
738.747	2864.94
738.932	2725.68
739.118	2719.53
739.303	2836.27
739.489	2699.05
739.674	2721.58
739.859	2686.76
740.045	2768.68
740.23	2735.92
740.416	2584.37
740.601	2600.75
740.786	2733.87
740.972	2715.44
741.157	2553.65
741.342	2539.31
741.528	2705.2
741.713	2664.24
741.898	2744.11
742.084	2608.94
742.269	2584.37
742.454	2617.13
742.639	2656.04
742.824	2422.58
743.01	2670.38
743.195	2486.06
743.38	2488.11
743.565	2586.41
743.75	2477.87
743.935	2398
744.12	2588.46
744.305	2524.97
744.49	2418.48
744.675	2400.05
744.86	2502.45
745.045	2428.72
745.23	2340.66
745.415	2363.19
745.6	2484.02
745.785	2414.38
745.97	2406.19
746.155	2324.27
746.34	2479.92
746.525	2330.42
746.71	2305.84
746.895	2363.19
747.079	2316.08
747.264	2262.83
747.449	2373.43
747.634	2328.37
747.819	2232.12
748.003	2242.36
748.188	2234.16
748.373	2230.07
748.557	2137.91
748.742	2129.72
748.927	2162.48
749.111	2219.83
749.296	2068.28
749.481	2125.62
749.665	2062.13
749.85	2029.37
750.034	2152.24
750.219	2015.03
750.404	2074.42
750.588	2004.79
750.773	2066.23
750.957	1988.41
751.141	2021.17
751.326	1961.78
751.51	1990.45
751.695	1926.97
751.879	1943.35
752.064	2043.7
752.248	1883.96
752.432	1845.05
752.617	1941.3
752.801	1881.91
752.985	1910.58
753.17	1836.86
753.354	1892.15
753.538	1904.44
753.722	1808.19
753.907	1789.75
754.091	1724.22
754.275	1724.22
754.459	1746.75
754.643	1701.69
754.828	1732.41
755.012	1619.77
755.196	1826.62
755.38	1584.96
755.564	1652.54
755.748	1652.54
755.932	1595.2
756.116	1480.51
756.3	1652.54
756.484	1589.05
756.668	1535.81
756.852	1603.39
757.036	1621.82
757.22	1605.44
757.404	1558.33
757.588	1595.2
757.772	1527.61
757.956	1589.05
758.14	1566.53
758.323	1560.38
758.507	1472.32
758.691	1537.85
758.875	1472.32
759.059	1484.61
759.242	1460.03
759.426	1447.74
759.61	1517.37
759.794	1310.53
759.977	1339.2
760.161	1427.26
760.345	1380.16
760.528	1388.35
760.712	1402.69
760.895	1326.91
761.079	1312.58
761.263	1380.16
761.446	1417.02
761.63	1285.95
761.813	1406.78
761.997	1251.14
762.18	1300.29
762.364	1386.3
762.547	1181.51
762.731	1283.91
762.914	1236.8
763.098	1234.75
763.281	1357.63
763.464	1288
763.648	1206.08
763.831	1218.37
764.015	1306.43
764.198	1191.75
764.381	1226.56
764.564	1169.22
764.748	1158.98
764.931	1183.56
765.114	1247.04
765.297	1279.81
765.481	1167.17
765.664	1179.46
765.847	1232.71
766.03	1120.07
766.213	1218.37
766.397	1120.07
766.58	1152.84
766.763	1169.22
766.946	1101.64
767.129	1177.41
767.312	1144.64
767.495	1171.27
767.678	1099.59
767.861	1236.8
768.044	1136.45
768.227	1128.26
768.41	1132.36
768.593	1124.16
768.776	1079.11
768.959	1095.49
769.142	1118.02
769.324	1128.26
769.507	1140.55
769.69	1075.01
769.873	1109.83
770.056	1158.98
770.239	1066.82
770.421	1120.07
770.604	1042.25
770.787	1083.2
770.97	1017.67
771.152	1001.29
771.335	995.14
771.518	974.66
771.7	1062.73
771.883	943.94
772.066	993.09
772.248	956.23
772.431	1019.72
772.613	993.09
772.796	991.05
772.978	1046.34
773.161	1087.3
773.343	972.61
773.526	999.24
773.708	927.56
773.891	900.94
774.073	898.89
774.256	915.27
774.438	956.23
774.621	859.98
774.803	919.37
774.985	845.64
775.168	911.18
775.35	853.83
775.532	902.98
775.715	735.05
775.897	872.26
776.079	870.22
776.261	866.12
776.444	819.02
776.626	757.58
776.808	874.31
776.99	890.7
777.173	859.98
777.355	761.67
777.537	833.35
777.719	816.97
777.901	761.67
778.083	769.87
778.265	675.66
778.447	687.95
778.629	794.44
778.811	773.96
778.993	722.76
779.175	677.71
779.357	644.94
779.539	728.91
779.721	669.52
779.903	753.48
780.085	712.52
780.267	657.23
780.449	599.88
780.631	724.81
780.812	782.15
780.994	589.64
781.176	628.56
781.358	587.6
781.54	649.04
781.721	636.75
781.903	681.8
782.085	726.86
782.267	679.75
782.448	714.57
782.63	661.32
782.812	649.04
782.993	710.47
783.175	552.78
783.357	567.12
783.538	573.26
783.72	538.45
783.901	626.51
784.083	616.27
784.264	628.56
784.446	595.79
784.627	616.27
784.809	534.35
784.99	520.01
785.172	632.65
785.353	589.64
785.535	550.73
785.716	515.92
785.897	487.25
786.079	556.88
786.26	558.92
786.441	542.54
786.623	464.72
786.804	423.76
786.985	538.45
787.167	479.05
787.348	501.58
787.529	522.06
787.71	538.45
787.891	565.07
788.073	526.16
788.254	462.67
788.435	536.4
788.616	474.96
788.797	448.33
788.978	458.57
789.159	524.11
789.34	454.48
789.522	397.14
789.703	427.85
789.884	503.63
790.065	415.57
790.246	489.29
790.427	487.25
790.607	511.82
790.788	372.56
790.969	448.33
791.15	483.15
791.331	378.7
791.512	382.8
791.693	403.28
791.874	399.18
792.054	468.81
792.235	438.09
792.416	337.74
792.597	370.51
792.778	364.37
792.958	448.33
793.139	300.88
793.32	345.94
793.5	483.15
793.681	462.67
793.862	421.71
794.042	372.56
794.223	282.45
794.404	341.84
794.584	343.89
794.765	317.26
794.945	384.85
795.126	440.14
795.306	388.94
795.487	313.17
795.667	380.75
795.848	388.94
796.028	356.18
796.209	356.18
796.389	438.09
796.57	405.33
796.75	317.26
796.93	317.26
797.111	249.68
797.291	345.94
797.471	358.22
797.652	393.04
797.832	317.26
798.012	339.79
798.192	321.36
798.373	329.55
798.553	352.08
798.733	345.94
798.913	337.74
799.093	327.5
799.274	292.69
799.454	341.84
799.634	276.31
799.814	304.98
799.994	311.12
800.174	358.22
800.354	214.87
800.534	317.26
800.714	362.32
800.894	286.54
801.074	343.89
801.254	323.41
801.434	288.59
801.614	292.69
801.794	272.21
801.974	907.08
802.154	198.48
802.334	325.46
802.514	268.11
802.693	364.37
802.873	270.16
803.053	272.21
803.233	292.69
803.413	264.02
803.592	280.4
803.772	290.64
803.952	227.15
804.131	227.15
804.311	249.68
804.491	259.92
804.67	311.12
804.85	276.31
805.03	218.96
805.209	231.25
805.389	218.96
805.568	239.44
805.748	278.35
805.928	247.63
806.107	270.16
806.287	202.58
806.466	257.87
806.646	282.45
806.825	300.88
807.004	216.91
807.184	274.26
807.363	231.25
807.543	210.77
807.722	339.79
807.901	276.31
808.081	290.64
808.26	192.34
808.439	206.67
808.619	231.25
808.798	231.25
808.977	337.74
809.156	284.5
809.336	208.72
809.515	253.78
809.694	186.19
809.873	227.15
810.052	218.96
810.231	194.39
810.411	204.63
810.59	229.2
810.769	243.54
810.948	284.5
811.127	180.05
811.306	225.11
811.485	225.11
811.664	241.49
811.843	268.11
812.022	139.09
812.201	206.67
812.38	251.73
812.559	206.67
812.737	182.1
812.916	167.76
813.095	175.95
813.274	192.34
813.453	151.38
813.632	126.8
813.811	198.48
813.989	198.48
814.168	151.38
814.347	161.62
814.526	216.91
814.704	132.95
814.883	237.39
815.062	163.67
815.24	212.82
815.419	85.84
815.598	188.24
815.776	169.81
815.955	239.44
816.133	196.43
816.312	216.91
816.49	208.72
816.669	218.96
816.847	132.95
817.026	218.96
817.204	210.77
817.383	188.24
817.561	188.24
817.74	194.39
817.918	257.87
818.097	122.71
818.275	173.91
818.453	208.72
818.632	161.62
818.81	157.52
818.988	141.14
819.167	137.04
819.345	173.91
819.523	122.71
819.701	151.38
819.879	155.47
820.058	149.33
820.236	165.71
820.414	161.62
820.592	163.67
820.77	173.91
820.948	116.56
821.127	139.09
821.305	149.33
821.483	149.33
821.661	194.39
821.839	122.71
822.017	132.95
822.195	63.32
822.373	112.47
822.551	130.9
822.729	251.73
822.907	85.84
823.085	135
823.262	100.18
823.44	159.57
823.618	73.56
823.796	161.62
823.974	124.76
824.152	139.09
824.329	182.1
824.507	163.67
824.685	130.9
824.863	173.91
825.04	124.76
825.218	100.18
825.396	71.51
825.574	137.04
825.751	155.47
825.929	130.9
826.107	110.42
826.284	190.29
826.462	137.04
826.639	83.8
826.817	120.66
826.994	130.9
827.172	98.13
827.349	173.91
827.527	182.1
827.704	130.9
827.882	96.08
828.059	165.71
828.237	100.18
828.414	100.18
828.591	32.6
828.769	147.28
828.946	65.36
829.124	169.81
829.301	208.72
829.478	182.1
829.655	139.09
829.833	182.1
830.01	85.84
830.187	91.99
830.364	167.76
830.542	163.67
830.719	169.81
830.896	145.24
831.073	100.18
831.25	151.38
831.427	98.13
831.604	128.85
831.782	-14.51
831.959	83.8
832.136	120.66
832.313	108.37
832.49	53.08
832.667	77.65
832.844	149.33
833.021	149.33
833.198	102.23
833.374	122.71
833.551	77.65
833.728	132.95
833.905	118.61
834.082	-18.6
834.259	79.7
834.436	159.57
834.612	18.26
834.789	153.43
834.966	145.24
835.143	108.37
835.319	5.97
835.496	175.95
835.673	75.6
835.85	110.42
836.026	137.04
836.203	180.05
836.38	96.08
836.556	151.38
836.733	69.46
836.909	100.18
837.086	87.89
837.262	57.17
837.439	89.94
837.616	108.37
837.792	110.42
837.968	46.93
838.145	63.32
838.321	128.85
838.498	87.89
838.674	59.22
838.851	59.22
839.027	71.51
839.203	40.79
839.38	38.74
839.556	141.14
839.732	73.56
839.909	34.64
840.085	71.51
840.261	73.56
840.437	75.6
840.614	108.37
840.79	98.13
840.966	38.74
841.142	81.75
841.318	67.41
841.494	96.08
841.671	36.69
841.847	40.79
842.023	87.89
842.199	116.56
842.375	130.9
842.551	89.94
842.727	73.56
842.903	114.52
843.079	73.56
843.255	89.94
843.431	102.23
843.607	161.62
843.783	44.88
843.959	106.32
844.134	118.61
844.31	139.09
844.486	108.37
844.662	94.04
844.838	81.75
845.013	124.76
845.189	124.76
845.365	51.03
845.541	91.99
845.716	30.55
845.892	124.76
846.068	114.52
846.244	44.88
846.419	79.7
846.595	-10.41
846.77	-4.27
846.946	94.04
847.122	57.17
847.297	46.93
847.473	61.27
847.648	40.79
847.824	28.5
847.999	24.4
848.175	28.5
848.35	75.6
848.526	124.76
848.701	100.18
848.876	42.84
849.052	69.46
849.227	122.71
849.403	28.5
849.578	57.17
849.753	30.55
849.929	98.13
850.104	51.03
850.279	96.08
850.454	14.17
850.63	87.89
850.805	100.18
850.98	104.28
851.155	30.55
851.33	3.93
851.505	65.36
851.681	48.98
851.856	42.84
852.031	57.17
852.206	38.74
852.381	-10.41
852.556	67.41
852.731	42.84
852.906	55.12
853.081	59.22
853.256	104.28
853.431	16.21
853.606	102.23
853.781	22.36
853.956	63.32
854.131	108.37
854.305	30.55
854.48	81.75
854.655	-8.36
854.83	91.99
855.005	-41.13
855.18	38.74
855.354	63.32
855.529	91.99
855.704	42.84
855.879	87.89
856.053	40.79
856.228	116.56
856.403	67.41
856.577	10.07
856.752	63.32
856.926	-26.79
857.101	18.26
857.276	104.28
857.45	51.03
857.625	48.98
857.799	34.64
857.974	73.56
858.148	34.64
858.323	89.94
858.497	89.94
858.672	24.4
858.846	-47.27
859.02	46.93
859.195	-0.17
859.369	16.21
859.543	5.97
859.718	96.08
859.892	71.51
860.066	20.31
860.241	-4.27
860.415	-8.36
860.589	42.84
860.763	-4.27
860.938	-12.46
861.112	110.42
861.286	89.94
861.46	91.99
861.634	32.6
861.808	34.64
861.982	38.74
862.157	46.93
862.331	79.7
862.505	-41.13
862.679	34.64
862.853	-2.22
863.027	59.22
863.201	44.88
863.375	96.08
863.549	26.45
863.722	38.74
863.896	32.6
864.07	-18.6
864.244	87.89
864.418	10.07
864.592	40.79
864.766	22.36
864.939	1.88
865.113	26.45
865.287	53.08
865.461	-8.36
865.634	81.75
865.808	65.36
865.982	38.74
866.156	36.69
866.329	77.65
866.503	24.4
866.676	100.18
866.85	-18.6
867.024	-14.51
867.197	30.55
867.371	65.36
867.544	-41.13
867.718	44.88
867.891	51.03
868.065	-32.94
868.238	53.08
868.412	-12.46
868.585	96.08
868.759	-73.9
868.932	79.7
869.105	30.55
869.279	-2.22
869.452	34.64
869.625	40.79
869.799	85.84
869.972	3.93
870.145	26.45
870.319	46.93
870.492	65.36
870.665	-28.84
870.838	-12.46
871.011	-6.31
871.185	5.97
871.358	28.5
871.531	69.46
871.704	10.07
871.877	40.79
872.05	16.21
872.223	44.88
872.396	1.88
872.569	-10.41
872.742	-43.18
872.915	32.6
873.088	20.31
873.261	20.31
873.434	-2.22
873.607	65.36
873.78	-6.31
873.953	46.93
874.126	1.88
874.299	42.84
874.471	-24.75
874.644	55.12
874.817	46.93
874.99	18.26
875.163	-18.6
875.335	5.97
875.508	59.22
875.681	73.56
875.853	14.17
876.026	28.5
876.199	42.84
876.371	16.21
876.544	63.32
876.717	48.98
876.889	38.74
877.062	32.6
877.234	42.84
877.407	-73.9
877.579	-6.31
877.752	20.31
877.924	-0.17
878.097	38.74
878.269	-12.46
878.442	51.03
878.614	-12.46
878.786	-30.89
878.959	-16.55
879.131	40.79
879.303	28.5
879.476	67.41
879.648	8.02
879.82	167.76
879.993	112.47
880.165	3.93
880.337	-28.84
880.509	36.69
880.681	-61.61
880.854	79.7
881.026	44.88
881.198	46.93
881.37	-8.36
881.542	-43.18
881.714	-10.41
881.886	28.5
882.058	-32.94
882.23	1.88
882.402	-53.42
882.574	108.37
882.746	-6.31
882.918	46.93
883.09	59.22
883.262	14.17
883.434	-39.08
883.606	-41.13
883.778	114.52
883.95	108.37
884.122	-10.41
884.293	-49.32
884.465	112.47
884.637	143.19
884.809	-2.22
884.98	67.41
885.152	-10.41
885.324	-4.27
885.496	-6.31
885.667	32.6
885.839	67.41
886.011	12.12
886.182	-51.37
886.354	83.8
886.525	-0.17
886.697	46.93
886.869	69.46
887.04	5.97
887.212	61.27
887.383	75.6
887.555	5.97
887.726	-18.6
887.897	1.88
888.069	69.46
888.24	85.84
888.412	24.4
888.583	-10.41
888.754	8.02
888.926	46.93
889.097	81.75
889.268	14.17
889.44	69.46
889.611	-94.38
889.782	40.79
889.953	5.97
890.125	116.56
890.296	-34.99
890.467	-30.89
890.638	-51.37
890.809	-39.08
890.98	-4.27
891.151	46.93
891.323	65.36
891.494	3.93
891.665	8.02
891.836	20.31
892.007	22.36
892.178	1.88
892.349	20.31
892.52	32.6
892.691	8.02
892.862	10.07
893.032	3.93
893.203	20.31
893.374	-12.46
893.545	91.99
893.716	28.5
893.887	42.84
894.057	-0.17
894.228	5.97
894.399	-4.27
894.57	42.84
894.74	42.84
894.911	-6.31
895.082	-80.04
895.253	42.84
895.423	1.88
895.594	-20.65
895.764	8.02
895.935	-45.23
896.106	75.6
896.276	71.51
896.447	55.12
896.617	18.26
896.788	26.45
896.958	59.22
897.129	46.93
897.299	30.55
897.47	98.13
897.64	12.12
897.81	124.76
897.981	10.07
898.151	5.97
898.322	30.55
898.492	44.88
898.662	1.88
898.832	75.6
899.003	32.6
899.173	30.55
899.343	8.02
899.513	18.26
