Data from USB4F104151__167__10-27-24-380.txt Node

Date: Wed Mar 12 10:27:24 EDT 2025
User: louis
Spectrometer: USB4F10415
Trigger mode: 4
Integration Time (sec): 3.000000E-2
Scans to average: 1
Electric dark correction enabled: true
Nonlinearity correction enabled: false
Boxcar width: 0
XAxis mode: Wavelengths
Number of Pixels in Spectrum: 3648
>>>>>Begin Spectral Data<<<<<
178.204	-59.05
178.424	-59.05
178.644	-59.05
178.864	-59.05
179.084	-77.48
179.304	-26.28
179.524	6.49
179.744	10.58
179.964	76.12
180.184	12.63
180.404	-3.75
180.624	-28.33
180.844	55.64
181.064	-73.39
181.283	-34.47
181.503	-38.57
181.723	43.35
181.943	-63.15
182.163	110.93
182.383	92.5
182.602	53.59
182.822	14.68
183.042	35.16
183.262	10.58
183.482	33.11
183.701	4.44
183.921	4.44
184.141	59.73
184.361	84.31
184.58	14.68
184.8	6.49
185.02	12.63
185.239	74.07
185.459	31.06
185.679	51.54
185.898	-7.85
186.118	16.73
186.338	41.3
186.557	53.59
186.777	16.73
186.997	51.54
187.216	78.16
187.436	4.44
187.655	-7.85
187.875	6.49
188.095	20.82
188.314	72.02
188.534	39.25
188.753	-22.19
188.973	51.54
189.192	33.11
189.412	45.4
189.631	-26.28
189.851	37.2
190.07	92.5
190.29	-20.14
190.509	0.34
190.729	12.63
190.948	47.44
191.168	129.36
191.387	106.84
191.607	26.96
191.826	39.25
192.045	53.59
192.265	16.73
192.484	18.77
192.704	8.53
192.923	22.87
193.142	112.98
193.362	67.92
193.581	-5.8
193.8	16.73
194.02	106.84
194.239	84.31
194.458	45.4
194.678	-7.85
194.897	115.03
195.116	90.45
195.335	18.77
195.555	-1.71
195.774	51.54
195.993	51.54
196.212	20.82
196.432	22.87
196.651	0.34
196.87	31.06
197.089	151.89
197.308	16.73
197.528	53.59
197.747	37.2
197.966	8.53
198.185	12.63
198.404	20.82
198.623	6.49
198.842	14.68
199.062	24.92
199.281	49.49
199.5	16.73
199.719	45.4
199.938	88.4
200.157	51.54
200.376	0.34
200.595	76.12
200.814	29.01
201.033	-38.57
201.252	12.63
201.471	4.44
201.69	110.93
201.909	-3.75
202.128	10.58
202.347	59.73
202.566	29.01
202.785	-18.09
203.004	-20.14
203.223	176.47
203.442	41.3
203.661	53.59
203.879	0.34
204.098	33.11
204.317	78.16
204.536	26.96
204.755	8.53
204.974	10.58
205.193	-11.95
205.411	51.54
205.63	57.68
205.849	82.26
206.068	-13.99
206.287	39.25
206.505	20.82
206.724	24.92
206.943	-26.28
207.162	-44.71
207.381	22.87
207.599	45.4
207.818	65.88
208.037	90.45
208.255	104.79
208.474	41.3
208.693	41.3
208.911	-7.85
209.13	16.73
209.349	49.49
209.567	84.31
209.786	8.53
210.005	20.82
210.223	33.11
210.442	-36.52
210.661	-44.71
210.879	69.97
211.098	43.35
211.316	29.01
211.535	47.44
211.753	-24.23
211.972	41.3
212.191	8.53
212.409	78.16
212.628	31.06
212.846	39.25
213.065	24.92
213.283	53.59
213.502	14.68
213.72	43.35
213.938	-22.19
214.157	-3.75
214.375	-3.75
214.594	-46.76
214.812	26.96
215.031	33.11
215.249	78.16
215.467	26.96
215.686	24.92
215.904	63.83
216.122	-24.23
216.341	45.4
216.559	22.87
216.778	74.07
216.996	72.02
217.214	37.2
217.432	43.35
217.651	-1.71
217.869	65.88
218.087	33.11
218.306	41.3
218.524	55.64
218.742	69.97
218.96	110.93
219.179	-24.23
219.397	35.16
219.615	61.78
219.833	92.5
220.051	2.39
220.27	8.53
220.488	51.54
220.706	29.01
220.924	43.35
221.142	24.92
221.36	74.07
221.578	22.87
221.796	31.06
222.015	94.55
222.233	-36.52
222.451	80.21
222.669	-38.57
222.887	80.21
223.105	-63.15
223.323	57.68
223.541	20.82
223.759	35.16
223.977	51.54
224.195	10.58
224.413	-7.85
224.631	94.55
224.849	92.5
225.067	112.98
225.285	-42.67
225.503	31.06
225.721	-11.95
225.939	2.39
226.157	86.36
226.375	110.93
226.592	14.68
226.81	92.5
227.028	29.01
227.246	82.26
227.464	8.53
227.682	-28.33
227.9	41.3
228.117	45.4
228.335	41.3
228.553	74.07
228.771	135.51
228.989	90.45
229.206	8.53
229.424	35.16
229.642	-34.47
229.86	18.77
230.077	45.4
230.295	-34.47
230.513	59.73
230.731	110.93
230.948	100.69
231.166	53.59
231.384	39.25
231.601	47.44
231.819	67.92
232.037	-9.9
232.254	84.31
232.472	51.54
232.689	10.58
232.907	76.12
233.125	-7.85
233.342	12.63
233.56	12.63
233.777	41.3
233.995	76.12
234.213	41.3
234.43	78.16
234.648	43.35
234.865	67.92
235.083	45.4
235.3	-16.04
235.518	33.11
235.735	45.4
235.953	-7.85
236.17	12.63
236.388	18.77
236.605	43.35
236.822	35.16
237.04	53.59
237.257	61.78
237.475	-38.57
237.692	26.96
237.909	39.25
238.127	49.49
238.344	-7.85
238.562	31.06
238.779	53.59
238.996	10.58
239.214	2.39
239.431	82.26
239.648	-28.33
239.865	14.68
240.083	53.59
240.3	-28.33
240.517	6.49
240.735	65.88
240.952	104.79
241.169	53.59
241.386	14.68
241.603	-26.28
241.821	43.35
242.038	80.21
242.255	20.82
242.472	0.34
242.689	78.16
242.907	-5.8
243.124	80.21
243.341	55.64
243.558	-48.81
243.775	92.5
243.992	-36.52
244.209	-18.09
244.426	16.73
244.643	90.45
244.86	65.88
245.078	-63.15
245.295	-61.1
245.512	47.44
245.729	-16.04
245.946	37.2
246.163	33.11
246.38	20.82
246.597	51.54
246.814	49.49
247.031	31.06
247.248	41.3
247.464	31.06
247.681	26.96
247.898	-36.52
248.115	12.63
248.332	24.92
248.549	31.06
248.766	29.01
248.983	41.3
249.2	2.39
249.417	61.78
249.633	-46.76
249.85	29.01
250.067	-48.81
250.284	14.68
250.501	39.25
250.717	110.93
250.934	18.77
251.151	20.82
251.368	20.82
251.585	4.44
251.801	33.11
252.018	20.82
252.235	78.16
252.451	-13.99
252.668	-20.14
252.885	67.92
253.102	63.83
253.318	14.68
253.535	29.01
253.752	35.16
253.968	29.01
254.185	0.34
254.401	12.63
254.618	53.59
254.835	0.34
255.051	117.08
255.268	2.39
255.484	-26.28
255.701	-11.95
255.917	55.64
256.134	-24.23
256.351	69.97
256.567	74.07
256.784	53.59
257	-28.33
257.217	-7.85
257.433	16.73
257.65	37.2
257.866	86.36
258.082	86.36
258.299	-3.75
258.515	74.07
258.732	-9.9
258.948	57.68
259.165	74.07
259.381	33.11
259.597	16.73
259.814	-9.9
260.03	-7.85
260.246	84.31
260.463	51.54
260.679	-16.04
260.895	8.53
261.112	88.4
261.328	20.82
261.544	45.4
261.761	88.4
261.977	63.83
262.193	-5.8
262.409	63.83
262.626	61.78
262.842	39.25
263.058	92.5
263.274	84.31
263.49	110.93
263.707	16.73
263.923	94.55
264.139	-28.33
264.355	63.83
264.571	72.02
264.787	37.2
265.004	29.01
265.22	4.44
265.436	37.2
265.652	6.49
265.868	41.3
266.084	-7.85
266.3	29.01
266.516	-34.47
266.732	4.44
266.948	18.77
267.164	72.02
267.38	108.88
267.596	10.58
267.812	104.79
268.028	31.06
268.244	102.74
268.46	-26.28
268.676	4.44
268.892	61.78
269.108	-61.1
269.324	2.39
269.54	41.3
269.756	78.16
269.972	49.49
270.188	45.4
270.403	-7.85
270.619	10.58
270.835	51.54
271.051	92.5
271.267	-57
271.483	35.16
271.698	43.35
271.914	16.73
272.13	-9.9
272.346	67.92
272.562	57.68
272.777	45.4
272.993	6.49
273.209	20.82
273.425	82.26
273.64	-7.85
273.856	92.5
274.072	65.88
274.287	18.77
274.503	-1.71
274.719	0.34
274.934	20.82
275.15	53.59
275.366	-7.85
275.581	-22.19
275.797	-1.71
276.012	26.96
276.228	35.16
276.444	43.35
276.659	12.63
276.875	-26.28
277.09	18.77
277.306	18.77
277.521	84.31
277.737	-7.85
277.952	59.73
278.168	63.83
278.383	63.83
278.599	78.16
278.814	90.45
279.03	20.82
279.245	102.74
279.461	45.4
279.676	74.07
279.892	-5.8
280.107	-44.71
280.322	51.54
280.538	57.68
280.753	8.53
280.969	61.78
281.184	31.06
281.399	94.55
281.615	0.34
281.83	72.02
282.045	-40.62
282.26	24.92
282.476	43.35
282.691	45.4
282.906	8.53
283.122	47.44
283.337	16.73
283.552	110.93
283.767	12.63
283.983	0.34
284.198	-3.75
284.413	16.73
284.628	45.4
284.843	14.68
285.058	33.11
285.274	43.35
285.489	67.92
285.704	92.5
285.919	39.25
286.134	12.63
286.349	-24.23
286.564	33.11
286.779	76.12
286.995	2.39
287.21	29.01
287.425	127.32
287.64	18.77
287.855	16.73
288.07	-5.8
288.285	57.68
288.5	110.93
288.715	76.12
288.93	51.54
289.145	35.16
289.36	67.92
289.575	41.3
289.79	84.31
290.004	-48.81
290.219	-20.14
290.434	-13.99
290.649	24.92
290.864	31.06
291.079	45.4
291.294	61.78
291.509	86.36
291.724	45.4
291.938	-24.23
292.153	74.07
292.368	26.96
292.583	82.26
292.798	24.92
293.012	106.84
293.227	16.73
293.442	84.31
293.657	37.2
293.871	76.12
294.086	16.73
294.301	78.16
294.516	53.59
294.73	20.82
294.945	4.44
295.16	14.68
295.374	-3.75
295.589	26.96
295.804	51.54
296.018	41.3
296.233	35.16
296.447	94.55
296.662	-75.43
296.877	110.93
297.091	78.16
297.306	49.49
297.52	41.3
297.735	-13.99
297.949	26.96
298.164	10.58
298.378	29.01
298.593	18.77
298.807	26.96
299.022	53.59
299.236	69.97
299.451	39.25
299.665	20.82
299.88	80.21
300.094	-89.77
300.309	53.59
300.523	-3.75
300.737	45.4
300.952	31.06
301.166	24.92
301.381	20.82
301.595	-34.47
301.809	-18.09
302.024	26.96
302.238	-24.23
302.452	10.58
302.667	29.01
302.881	67.92
303.095	33.11
303.309	0.34
303.524	53.59
303.738	-3.75
303.952	-1.71
304.166	4.44
304.381	-93.87
304.595	61.78
304.809	16.73
305.023	88.4
305.237	41.3
305.452	29.01
305.666	41.3
305.88	155.99
306.094	49.49
306.308	24.92
306.522	59.73
306.736	65.88
306.95	12.63
307.164	31.06
307.379	29.01
307.593	51.54
307.807	69.97
308.021	24.92
308.235	55.64
308.449	84.31
308.663	0.34
308.877	90.45
309.091	0.34
309.305	-32.43
309.519	-11.95
309.733	69.97
309.947	20.82
310.161	98.64
310.374	67.92
310.588	74.07
310.802	-3.75
311.016	-26.28
311.23	80.21
311.444	4.44
311.658	51.54
311.872	69.97
312.085	24.92
312.299	26.96
312.513	39.25
312.727	88.4
312.941	31.06
313.154	65.88
313.368	-3.75
313.582	102.74
313.796	53.59
314.009	59.73
314.223	18.77
314.437	47.44
314.651	92.5
314.864	18.77
315.078	22.87
315.292	14.68
315.505	67.92
315.719	22.87
315.933	-40.62
316.146	24.92
316.36	2.39
316.573	37.2
316.787	104.79
317.001	131.41
317.214	-7.85
317.428	31.06
317.641	78.16
317.855	31.06
318.068	26.96
318.282	35.16
318.495	67.92
318.709	65.88
318.922	26.96
319.136	45.4
319.349	69.97
319.563	33.11
319.776	41.3
319.99	12.63
320.203	61.78
320.417	45.4
320.63	29.01
320.843	33.11
321.057	57.68
321.27	94.55
321.483	37.2
321.697	49.49
321.91	78.16
322.124	26.96
322.337	24.92
322.55	51.54
322.763	76.12
322.977	-13.99
323.19	29.01
323.403	127.32
323.617	74.07
323.83	61.78
324.043	69.97
324.256	67.92
324.469	-1.71
324.683	63.83
324.896	65.88
325.109	53.59
325.322	-13.99
325.535	41.3
325.748	24.92
325.962	8.53
326.175	102.74
326.388	47.44
326.601	53.59
326.814	63.83
327.027	74.07
327.24	82.26
327.453	-1.71
327.666	14.68
327.879	24.92
328.092	29.01
328.305	112.98
328.518	18.77
328.731	86.36
328.944	29.01
329.157	45.4
329.37	-18.09
329.583	-9.9
329.796	61.78
330.009	-16.04
330.222	10.58
330.435	108.88
330.648	41.3
330.861	-9.9
331.073	33.11
331.286	61.78
331.499	78.16
331.712	45.4
331.925	-9.9
332.138	-24.23
332.35	115.03
332.563	33.11
332.776	59.73
332.989	84.31
333.202	24.92
333.414	-36.52
333.627	31.06
333.84	-28.33
334.053	133.46
334.265	41.3
334.478	6.49
334.691	-22.19
334.903	-16.04
335.116	6.49
335.329	4.44
335.541	133.46
335.754	117.08
335.966	37.2
336.179	-40.62
336.392	6.49
336.604	49.49
336.817	108.88
337.029	-3.75
337.242	-1.71
337.454	74.07
337.667	4.44
337.88	102.74
338.092	67.92
338.305	45.4
338.517	-13.99
338.729	115.03
338.942	59.73
339.154	8.53
339.367	22.87
339.579	37.2
339.792	51.54
340.004	143.7
340.217	22.87
340.429	29.01
340.641	-3.75
340.854	2.39
341.066	74.07
341.278	94.55
341.491	67.92
341.703	8.53
341.915	65.88
342.128	108.88
342.34	22.87
342.552	-16.04
342.764	72.02
342.977	41.3
343.189	141.65
343.401	24.92
343.613	-36.52
343.826	92.5
344.038	16.73
344.25	69.97
344.462	4.44
344.674	-20.14
344.886	102.74
345.099	72.02
345.311	57.68
345.523	41.3
345.735	-32.43
345.947	115.03
346.159	-3.75
346.371	39.25
346.583	43.35
346.795	123.22
347.007	-36.52
347.219	0.34
347.431	78.16
347.643	121.17
347.855	12.63
348.067	139.6
348.279	-28.33
348.491	18.77
348.703	59.73
348.915	24.92
349.127	2.39
349.339	24.92
349.551	-30.38
349.763	78.16
349.975	41.3
350.187	49.49
350.399	67.92
350.61	51.54
350.822	-9.9
351.034	35.16
351.246	45.4
351.458	53.59
351.669	69.97
351.881	100.69
352.093	102.74
352.305	53.59
352.517	125.27
352.728	69.97
352.94	59.73
353.152	18.77
353.363	20.82
353.575	78.16
353.787	72.02
353.999	72.02
354.21	39.25
354.422	-13.99
354.633	119.12
354.845	37.2
355.057	57.68
355.268	45.4
355.48	4.44
355.692	98.64
355.903	4.44
356.115	96.6
356.326	10.58
356.538	100.69
356.749	102.74
356.961	-52.91
357.172	37.2
357.384	4.44
357.595	125.27
357.807	26.96
358.018	74.07
358.23	55.64
358.441	139.6
358.653	22.87
358.864	123.22
359.075	57.68
359.287	51.54
359.498	49.49
359.709	31.06
359.921	-11.95
360.132	72.02
360.344	33.11
360.555	33.11
360.766	24.92
360.977	33.11
361.189	41.3
361.4	96.6
361.611	67.92
361.823	41.3
362.034	102.74
362.245	26.96
362.456	88.4
362.667	47.44
362.879	53.59
363.09	57.68
363.301	78.16
363.512	43.35
363.723	78.16
363.935	4.44
364.146	80.21
364.357	49.49
364.568	18.77
364.779	29.01
364.99	102.74
365.201	119.12
365.412	94.55
365.623	20.82
365.834	-7.85
366.045	49.49
366.256	4.44
366.467	59.73
366.678	6.49
366.889	18.77
367.1	72.02
367.311	29.01
367.522	8.53
367.733	65.88
367.944	117.08
368.155	31.06
368.366	61.78
368.577	74.07
368.788	90.45
368.999	84.31
369.209	45.4
369.42	74.07
369.631	45.4
369.842	33.11
370.053	53.59
370.264	67.92
370.474	-44.71
370.685	29.01
370.896	-16.04
371.107	102.74
371.317	69.97
371.528	59.73
371.739	80.21
371.95	57.68
372.16	61.78
372.371	-18.09
372.582	-30.38
372.792	-3.75
373.003	45.4
373.214	8.53
373.424	31.06
373.635	31.06
373.846	76.12
374.056	92.5
374.267	41.3
374.477	16.73
374.688	88.4
374.898	69.97
375.109	20.82
375.319	43.35
375.53	82.26
375.74	55.64
375.951	117.08
376.161	131.41
376.372	43.35
376.582	16.73
376.793	29.01
377.003	45.4
377.214	65.88
377.424	57.68
377.635	86.36
377.845	-1.71
378.055	57.68
378.266	61.78
378.476	53.59
378.686	102.74
378.897	53.59
379.107	98.64
379.317	33.11
379.528	59.73
379.738	26.96
379.948	-18.09
380.158	80.21
380.369	84.31
380.579	82.26
380.789	-5.8
380.999	51.54
381.21	61.78
381.42	94.55
381.63	35.16
381.84	41.3
382.05	61.78
382.261	86.36
382.471	76.12
382.681	115.03
382.891	26.96
383.101	29.01
383.311	86.36
383.521	51.54
383.731	90.45
383.941	53.59
384.151	45.4
384.361	131.41
384.571	26.96
384.781	78.16
384.991	82.26
385.201	90.45
385.411	61.78
385.621	133.46
385.831	98.64
386.041	59.73
386.251	29.01
386.461	96.6
386.671	123.22
386.881	45.4
387.091	61.78
387.301	16.73
387.511	74.07
387.72	47.44
387.93	-28.33
388.14	41.3
388.35	119.12
388.56	47.44
388.769	51.54
388.979	45.4
389.189	26.96
389.399	12.63
389.609	143.7
389.818	94.55
390.028	61.78
390.238	33.11
390.447	37.2
390.657	61.78
390.867	82.26
391.076	-7.85
391.286	115.03
391.496	33.11
391.705	92.5
391.915	108.88
392.125	176.47
392.334	59.73
392.544	127.32
392.753	84.31
392.963	43.35
393.172	67.92
393.382	12.63
393.591	63.83
393.801	53.59
394.01	80.21
394.22	45.4
394.429	63.83
394.639	106.84
394.848	96.6
395.058	110.93
395.267	31.06
395.477	100.69
395.686	86.36
395.895	160.08
396.105	115.03
396.314	49.49
396.524	125.27
396.733	131.41
396.942	104.79
397.152	16.73
397.361	133.46
397.57	155.99
397.78	141.65
397.989	123.22
398.198	96.6
398.407	94.55
398.617	92.5
398.826	37.2
399.035	84.31
399.244	158.03
399.453	153.94
399.663	125.27
399.872	141.65
400.081	53.59
400.29	147.8
400.499	86.36
400.708	94.55
400.917	151.89
401.127	106.84
401.336	-7.85
401.545	198.99
401.754	137.56
401.963	41.3
402.172	78.16
402.381	155.99
402.59	127.32
402.799	82.26
403.008	125.27
403.217	139.6
403.426	84.31
403.635	100.69
403.844	135.51
404.053	88.4
404.262	147.8
404.471	192.85
404.68	90.45
404.888	139.6
405.097	102.74
405.306	196.95
405.515	90.45
405.724	213.33
405.933	184.66
406.142	100.69
406.35	237.91
406.559	190.8
406.768	213.33
406.977	184.66
407.185	201.04
407.394	182.61
407.603	194.9
407.812	297.3
408.02	280.91
408.229	135.51
408.438	268.63
408.646	160.08
408.855	282.96
409.064	262.48
409.272	233.81
409.481	305.49
409.69	340.3
409.898	250.19
410.107	332.11
410.315	303.44
410.524	381.26
410.733	323.92
410.941	270.67
411.15	377.17
411.358	340.3
411.567	397.65
411.775	350.54
411.984	463.18
412.192	440.65
412.401	368.98
412.609	479.57
412.818	463.18
413.026	438.61
413.234	534.86
413.443	508.24
413.651	516.43
413.86	588.11
414.068	600.4
414.276	592.2
414.485	547.15
414.693	635.21
414.901	627.02
415.11	655.69
415.318	620.88
415.526	692.55
415.734	659.79
415.943	842.06
416.151	788.81
416.359	727.37
416.567	782.67
416.776	872.78
416.984	973.13
417.192	952.65
417.4	942.41
417.608	909.64
417.817	1085.76
418.025	1069.38
418.233	1235.27
418.441	1184.07
418.649	1098.05
418.857	1270.08
419.065	1216.83
419.273	1200.45
419.481	1272.13
419.689	1286.47
419.897	1462.59
420.105	1354.05
420.313	1462.59
420.521	1577.28
420.729	1595.71
420.937	1560.89
421.145	1728.83
421.353	1812.79
421.561	1907
421.769	1798.46
421.977	2017.59
422.185	2048.31
422.393	2058.55
422.601	2068.79
422.809	2167.09
423.017	2244.92
423.224	2296.11
423.432	2363.7
423.64	2306.35
423.848	2576.69
424.056	2599.21
424.263	2658.6
424.471	2785.58
424.679	2857.26
424.887	2945.32
425.094	3033.38
425.302	3021.1
425.51	3252.52
425.718	3303.71
425.925	3336.48
426.133	3361.06
426.341	3572
426.548	3871
426.756	3698.97
426.964	3772.7
427.171	4071.7
427.379	4210.97
427.586	4165.91
427.794	4333.84
428.001	4546.83
428.209	4788.49
428.417	4704.53
428.624	5093.64
428.832	5054.73
429.039	4907.27
429.247	4952.33
429.454	5458.18
429.662	5843.2
429.869	5415.17
430.076	5839.1
430.284	5724.41
430.491	5871.87
430.699	6203.64
430.906	6172.92
431.114	6062.33
431.321	6381.81
431.528	6715.63
431.736	6977.77
431.943	7323.88
432.15	7102.7
432.358	7225.58
432.565	7704.8
432.772	7526.63
432.979	7901.4
433.187	8212.7
433.394	8124.63
433.601	8687.82
433.808	8706.26
434.016	8665.3
434.223	9181.39
434.43	9586.88
434.637	9216.2
434.844	9883.84
435.052	10162.36
435.259	10033.34
435.466	10207.42
435.673	9785.54
435.88	10893.49
436.087	11497.64
436.294	11264.17
436.501	11161.77
436.708	11303.08
436.915	11737.25
437.122	12339.35
437.329	12386.46
437.537	12413.08
437.743	12693.65
437.95	12710.04
438.157	13289.61
438.364	13901.95
438.571	13539.46
438.778	13830.27
438.985	15073.39
439.192	14522.49
439.399	15093.87
439.606	14708.85
439.813	15573.1
440.02	16455.77
440.227	16033.89
440.433	15872.1
440.64	16672.85
440.847	16425.05
441.054	16742.49
441.261	17737.8
441.467	17502.28
441.674	18237.5
441.881	18479.16
442.088	18534.46
442.294	18489.4
442.501	18851.89
442.708	19126.32
442.914	19922.98
443.121	20920.34
443.328	20256.8
443.534	21579.79
443.741	21073.94
443.948	20908.05
444.154	22374.4
444.361	22202.37
444.568	22329.34
444.774	22421.5
444.981	22632.44
445.187	23306.23
445.394	24287.2
445.6	23877.61
445.807	25989.06
446.013	24993.75
446.22	25470.93
446.426	26423.23
446.633	26550.21
446.839	27377.59
447.046	26578.88
447.252	27709.36
447.459	27953.07
447.665	27740.08
447.871	29052.83
448.078	30371.72
448.284	28663.71
448.491	29704.08
448.697	30738.3
448.903	31487.86
449.11	31158.14
449.316	30363.53
449.522	31199.1
449.728	31752.05
449.935	32173.93
450.141	32288.62
450.347	32935.77
450.553	31793.01
450.76	32245.61
450.966	32792.42
451.172	32771.94
451.378	33402.71
451.584	33371.99
451.791	33560.41
451.997	33390.42
452.203	34260.81
452.409	33838.93
452.615	33748.82
452.821	32628.58
453.027	32200.55
453.233	33974.09
453.44	32405.35
453.646	32964.45
453.852	32886.62
454.058	33154.91
454.264	32079.72
454.47	32864.1
454.676	32331.62
454.882	33318.74
455.088	30427.01
455.294	30740.35
455.5	31334.26
455.705	31678.32
455.911	30361.48
456.117	29890.45
456.323	29079.45
456.529	27684.78
456.735	28669.86
456.941	27926.44
457.147	27676.59
457.352	26623.94
457.558	26320.84
457.764	26621.89
457.97	26083.27
458.176	25630.67
458.381	25378.77
458.587	24367.07
458.793	24127.46
458.999	23039.99
459.204	24627.17
459.41	23674.86
459.616	22130.69
459.821	22224.9
460.027	22030.34
460.233	21762.06
460.438	20693.02
460.644	20828.18
460.85	19996.71
461.055	19767.34
461.261	19449.9
461.466	18096.19
461.672	17424.46
461.878	18890.81
462.083	17823.81
462.289	17291.34
462.494	16896.08
462.7	16480.35
462.905	15990.88
463.111	16689.24
463.316	16705.62
463.522	16185.44
463.727	16406.62
463.932	16048.22
464.138	15806.56
464.343	16152.67
464.549	15663.21
464.754	16240.73
464.959	16015.46
465.165	15691.88
465.37	15212.65
465.575	14852.21
465.781	15513.7
465.986	15450.22
466.191	15147.12
466.397	14671.99
466.602	13899.91
466.807	14690.42
467.012	14551.16
467.218	14436.47
467.423	14198.91
467.628	14370.94
467.833	14891.12
468.038	14393.47
468.244	14088.32
468.449	14549.11
468.654	14086.27
468.859	14143.61
469.064	13787.27
469.269	13285.51
469.474	13398.15
469.679	13852.8
469.885	13234.32
470.09	13402.25
470.295	13256.84
470.5	12968.08
470.705	13058.19
470.91	12753.04
471.115	12605.59
471.32	12837.01
471.525	12462.23
471.73	12619.92
471.935	12550.29
472.139	12265.63
472.344	12134.56
472.549	12089.5
472.754	12079.26
472.959	11892.9
473.164	11323.56
473.369	11321.51
473.574	11804.83
473.778	11600.04
473.983	11503.78
474.188	11473.06
474.393	10862.77
474.598	11116.72
474.802	10862.77
475.007	10746.03
475.212	10819.76
475.417	10543.28
475.621	10408.12
475.826	10485.94
476.031	10479.8
476.235	10049.72
476.44	10162.36
476.645	9892.03
476.849	10029.24
477.054	9957.57
477.259	9752.77
477.463	9730.24
477.668	9601.22
477.872	9779.39
478.077	9441.48
478.282	9187.53
478.486	9236.68
478.691	9193.67
478.895	9175.24
479.1	8949.96
479.304	9220.3
479.509	8806.61
479.713	8966.35
479.918	8769.74
480.122	8595.67
480.326	8665.3
480.531	8999.12
480.735	8583.38
480.94	8642.77
481.144	8927.44
481.348	8390.87
481.553	8440.02
481.757	8523.99
481.961	8714.45
482.166	8650.96
482.37	8532.18
482.574	8351.96
482.778	8521.94
482.983	8763.6
483.187	8593.62
483.391	8542.42
483.595	8417.49
483.8	8110.3
484.004	8632.53
484.208	8542.42
484.412	8458.45
484.616	8489.17
484.821	8517.84
485.025	8257.75
485.229	8712.4
485.433	8282.33
485.637	8511.7
485.841	8364.25
486.045	8470.74
486.249	8444.12
486.453	8261.85
486.657	8569.04
486.861	8548.56
487.065	8503.51
487.269	8470.74
487.473	8460.5
487.677	8571.09
487.881	8523.99
488.085	8450.26
488.289	8505.56
488.493	8423.64
488.697	8526.04
488.901	8315.09
489.105	8382.68
489.309	8671.44
489.512	8736.98
489.716	8603.86
489.92	8421.59
490.124	8601.81
490.328	8605.91
490.531	8575.19
490.735	8706.26
490.939	8763.6
491.143	8646.87
491.346	8847.57
491.55	8646.87
491.754	8863.95
491.958	9040.08
492.161	8794.32
492.365	8990.92
492.569	8990.92
492.772	8663.25
492.976	9101.51
493.18	9060.56
493.383	9244.87
493.587	9345.22
493.79	9226.44
493.994	9105.61
494.197	9314.5
494.401	9584.84
494.605	9386.18
494.808	9601.22
495.012	9736.38
495.215	9580.74
495.419	9742.53
495.622	9556.16
495.825	9896.13
496.029	9814.21
496.232	9902.27
496.436	9971.9
496.639	10510.52
496.843	10399.93
497.046	10467.51
497.249	10414.26
497.453	10793.14
497.656	10557.62
497.859	10688.69
498.063	10903.73
498.266	11008.17
498.469	10924.21
498.673	11174.06
498.876	11272.36
499.079	11538.6
499.282	11464.87
499.485	11763.87
499.689	11784.35
499.892	12019.87
500.095	11978.91
500.298	12271.77
500.501	12120.22
500.705	12691.6
500.908	12640.4
501.111	12771.47
501.314	12679.32
501.517	13035.66
501.72	13111.44
501.923	13033.61
502.126	13463.69
502.329	13781.12
502.532	13596.81
502.735	13596.81
502.938	14112.89
503.141	13975.68
503.344	14192.76
503.547	14334.07
503.75	14479.48
503.953	14602.36
504.156	15089.78
504.359	15059.06
504.562	15229.04
504.765	15429.74
504.968	15464.55
505.17	15859.81
505.373	15843.43
505.576	15964.26
505.779	16259.17
505.982	16525.4
506.185	16674.9
506.387	16633.94
506.59	16955.47
506.793	17123.41
506.996	17201.23
507.198	17530.95
507.401	17479.75
507.604	17780.81
507.807	18112.58
508.009	18120.77
508.212	18645.05
508.415	18614.33
508.617	18860.09
508.82	18743.35
509.022	18817.08
509.225	19206.19
509.428	19380.27
509.63	19343.41
509.833	19855.4
510.035	20287.52
510.238	20168.74
510.44	20297.76
510.643	20459.55
510.845	20688.92
511.048	20686.87
511.25	21121.04
511.453	21194.77
511.655	21979.14
511.858	21622.8
512.06	21800.97
512.262	22228.99
512.465	22147.08
512.667	22710.27
512.87	23066.61
513.072	22880.25
513.274	23207.92
513.477	23351.28
513.679	23527.41
513.881	23756.78
514.084	24002.54
514.286	24326.11
514.488	24082.41
514.69	24842.2
514.893	25188.31
515.095	24979.42
515.297	25651.15
515.499	25159.64
515.701	26005.45
515.904	26183.62
516.106	26245.06
516.308	26466.24
516.51	26687.42
516.712	26992.57
516.914	26920.89
517.116	27537.33
517.318	27774.89
517.52	27602.86
517.722	27617.2
517.925	28084.14
518.127	28833.69
518.329	28831.65
518.531	28899.23
518.733	29392.79
518.935	29484.95
519.136	29648.78
519.338	29988.75
519.54	29802.38
519.742	30496.64
519.944	30556.04
520.146	31307.64
520.348	31180.67
520.55	31309.69
520.752	31479.67
520.954	31758.19
521.155	31829.87
521.357	32356.2
521.559	32229.23
521.761	32929.63
521.963	33007.45
522.164	33109.85
522.366	33402.71
522.568	33849.17
522.77	33759.06
522.971	34232.14
523.173	33908.56
523.375	34287.43
523.576	34191.18
523.778	34361.16
523.98	34832.19
524.181	35028.8
524.383	34805.57
524.584	35401.53
524.786	35567.41
524.988	35426.1
525.189	36099.89
525.391	36405.03
525.592	36071.21
525.794	36654.89
525.995	36486.95
526.197	36814.63
526.398	36931.36
526.6	36722.47
526.801	37068.58
527.003	37359.39
527.204	37371.68
527.406	37664.53
527.607	37478.17
527.808	37709.59
528.01	37574.42
528.211	37754.65
528.412	38602.5
528.614	38080.27
528.815	38352.65
529.016	39036.67
529.218	38115.09
529.419	38719.24
529.62	38598.41
529.822	38524.68
530.023	38610.7
530.224	38768.39
530.425	38915.84
530.626	38532.87
530.828	38291.21
531.029	39116.54
531.23	38860.55
531.431	38987.52
531.632	39452.41
531.833	39372.54
532.035	39354.11
532.236	39147.26
532.437	39415.55
532.638	39487.23
532.839	39767.8
533.04	39864.05
533.241	39468.8
533.442	40158.96
533.643	39802.61
533.844	39821.05
534.045	39665.4
534.246	39575.29
534.447	39540.47
534.648	39616.25
534.849	39995.12
535.05	39560.95
535.251	39829.24
535.451	39288.57
535.652	39878.39
535.853	39696.12
536.054	39894.77
536.255	40099.57
536.456	39546.62
536.657	40470.25
536.857	40138.48
537.058	39851.77
537.259	40126.19
537.46	40421.1
537.66	39741.17
537.861	40154.86
538.062	39984.88
538.263	40294.13
538.463	40163.06
538.664	39943.92
538.865	40417
539.065	39911.16
539.266	39802.61
539.466	40343.28
539.667	39534.33
539.868	40378.09
540.068	40058.61
540.269	39722.74
540.469	40320.75
540.67	39913.2
540.87	39864.05
541.071	39577.34
541.271	40007.41
541.472	39853.81
541.672	40031.99
541.873	39452.41
542.073	39515.9
542.274	40443.63
542.474	39655.16
542.675	39716.6
542.875	40222.45
543.075	39775.99
543.276	39667.45
543.476	40142.58
543.676	39624.44
543.877	39892.72
544.077	39749.37
544.277	39808.76
544.478	39421.69
544.678	40040.18
544.878	39855.86
545.078	39724.79
545.279	39499.51
545.479	39444.22
545.679	39710.46
545.879	39692.02
546.079	39347.96
546.28	39589.63
546.48	39227.13
546.68	39548.67
546.88	39870.2
547.08	39794.42
547.28	39624.44
547.48	39298.81
547.68	39546.62
547.88	39360.25
548.081	39579.39
548.281	39382.78
548.481	39345.92
548.681	39433.98
548.881	39456.51
549.081	39417.6
549.28	39474.94
549.48	39868.15
549.68	39323.39
549.88	40048.37
550.08	39327.49
550.28	39597.82
550.48	39519.99
550.68	39902.96
550.88	39288.57
551.08	39446.27
551.279	39307.01
551.479	39139.07
551.679	39433.98
551.879	39247.61
552.079	39118.59
552.278	39423.74
552.478	39202.56
552.678	39059.2
552.878	39313.15
553.077	38958.85
553.277	39057.15
553.477	39689.98
553.676	38762.25
553.876	38809.35
554.076	38663.94
554.275	38838.02
554.475	38688.52
554.674	39509.75
554.874	39040.77
555.074	38977.28
555.273	38596.36
555.473	38874.88
555.672	38543.11
555.872	38516.49
556.071	38790.92
556.271	38786.82
556.47	38723.33
556.67	38469.39
556.869	38471.43
557.068	38725.38
557.268	38424.33
557.467	38573.83
557.667	38301.45
557.866	38723.33
558.065	38233.87
558.265	38139.66
558.464	37816.08
558.663	38680.33
558.863	37895.96
559.062	38471.43
559.261	37719.83
559.461	38149.9
559.66	37754.65
559.859	38061.84
560.058	37572.38
560.258	38008.59
560.457	37336.86
560.656	37984.02
560.855	37441.31
561.054	37484.31
561.253	37228.32
561.453	37568.28
561.652	37578.52
561.851	37697.3
562.05	37011.23
562.249	37095.2
562.448	37527.32
562.647	37359.39
562.846	37029.66
563.045	37193.5
563.244	36710.18
563.443	37144.35
563.642	36628.26
563.841	36532.01
564.04	36448.04
564.239	37113.63
564.438	36230.96
564.637	36917.03
564.836	36364.07
565.035	36230.96
565.234	36433.71
565.432	36519.72
565.631	36138.8
565.83	36120.37
566.029	36167.47
566.228	35874.61
566.427	36020.02
566.625	35936.05
566.824	35305.27
567.023	35845.94
567.222	35057.47
567.42	35503.93
567.619	35831.6
567.818	35342.14
568.016	35112.77
568.215	35391.29
568.414	34903.87
568.612	35335.99
568.811	35247.93
569.01	35174.2
569.208	34590.53
569.407	35125.05
569.605	34383.69
569.804	34912.06
570.002	34875.2
570.201	34344.78
570.4	34406.22
570.598	34031.44
570.797	34172.75
570.995	34656.07
571.193	33679.19
571.392	33906.51
571.59	34266.95
571.789	33699.67
571.987	33400.66
572.186	33828.69
572.384	33410.9
572.582	33820.5
572.781	33861.46
572.979	33259.35
573.177	33460.05
573.376	33169.24
573.574	32956.25
573.772	33316.7
573.971	32794.46
574.169	32823.14
574.367	32896.86
574.565	33023.84
574.763	32681.83
574.962	32391.02
575.16	32028.52
575.358	32649.06
575.556	32280.42
575.754	32591.72
575.952	31883.12
576.151	32434.02
576.349	31561.59
576.547	31809.39
576.745	31709.04
576.943	31852.4
577.141	31635.31
577.339	31684.47
577.537	31616.88
577.735	31590.26
577.933	31168.38
578.131	31682.42
578.329	31350.65
578.527	30912.38
578.725	31360.89
578.923	31205.24
579.121	30902.14
579.319	30820.22
579.516	30957.44
579.714	30992.25
579.912	30609.28
580.11	30418.82
580.308	30648.19
580.506	30549.89
580.704	30041.99
580.901	30408.58
581.099	30531.46
581.297	29740.94
581.495	30375.81
581.692	30121.87
581.89	29931.4
582.088	30259.08
582.285	29702.03
582.483	29923.21
582.681	29972.36
582.878	29728.66
583.076	29493.14
583.274	29587.35
583.471	29218.71
583.669	29190.04
583.866	29386.64
584.064	29329.3
584.262	28932
584.459	29005.72
584.657	28723.1
584.854	29120.41
585.052	28307.37
585.249	28538.79
585.447	28475.3
585.644	28192.68
585.841	28258.21
586.039	28671.9
586.236	27858.86
586.434	28102.57
586.631	27854.76
586.828	28260.26
587.026	28198.82
587.223	27975.59
587.42	27791.28
587.618	27840.43
587.815	27387.83
588.012	27639.73
588.21	27289.52
588.407	27996.07
588.604	27324.34
588.801	27379.64
588.999	27267
589.196	27119.54
589.393	27119.54
589.59	27203.51
589.787	26683.33
589.984	26625.98
590.182	26537.92
590.379	26949.56
590.576	26351.56
590.773	26597.31
590.97	26427.33
591.167	26458.05
591.364	26085.32
591.561	26318.79
591.758	26154.95
591.955	26263.49
592.152	26230.73
592.349	25843.66
592.546	26011.59
592.743	26161.09
592.94	25386.96
593.137	25843.66
593.334	25931.72
593.531	25247.7
593.727	25331.67
593.924	25233.36
594.121	24874.97
594.318	25200.6
594.515	24999.9
594.712	25386.96
594.908	24829.91
595.105	25016.28
595.302	24782.81
595.499	24745.95
595.696	24942.55
595.892	24332.26
596.089	24485.86
596.286	24541.15
596.482	24317.92
596.679	24309.73
596.876	24313.83
597.072	24156.13
597.269	24086.5
597.466	23887.85
597.662	23762.92
597.859	24268.77
598.055	24106.98
598.252	23638
598.448	23859.18
598.645	23791.59
598.841	23392.24
599.038	23840.75
599.234	23478.26
599.431	23363.57
599.627	23242.74
599.824	23347.19
600.02	23152.63
600.217	23195.64
600.413	23042.04
600.609	23166.96
600.806	23001.08
601.002	23031.8
601.198	22896.63
601.395	22853.62
601.591	22581.24
601.787	22808.57
601.984	22663.16
602.18	22491.13
602.376	22247.43
602.572	22202.37
602.769	22296.58
602.965	22155.27
603.161	22276.1
603.357	22089.73
603.553	21848.07
603.75	22218.75
603.946	21796.87
604.142	21868.55
604.338	21592.08
604.534	21825.54
604.73	21448.72
604.926	21639.18
605.122	21649.42
605.318	21299.22
605.514	21364.75
605.71	21108.76
605.906	21108.76
606.102	21426.19
606.298	21354.51
606.494	21080.08
606.69	21164.05
606.886	21196.82
607.082	20731.93
607.278	21086.23
607.474	20500.51
607.67	21008.4
607.866	20523.04
608.062	20801.56
608.257	20707.35
608.453	20584.48
608.649	20445.21
608.845	20484.12
609.041	20482.08
609.236	20465.69
609.432	20264.99
609.628	20574.24
609.824	20426.78
610.019	20115.49
610.215	20006.95
610.411	20119.59
610.606	20062.24
610.802	20006.95
610.998	20004.9
611.193	20256.8
611.389	19744.81
611.584	20019.24
611.78	19738.66
611.976	19753
612.171	19707.94
612.367	19656.75
612.562	19599.4
612.758	19361.84
612.953	19308.59
613.149	19640.36
613.344	19415.09
613.539	20045.86
613.735	19546.16
613.93	19642.41
614.126	19202.1
614.321	19535.92
614.517	19484.72
614.712	19087.41
614.907	19075.12
615.103	19214.38
615.298	18913.33
615.493	19302.45
615.688	19171.38
615.884	19228.72
616.079	18649.14
616.274	19124.27
616.47	18966.58
616.665	18942
616.86	18673.72
617.055	18860.09
617.25	18870.33
617.445	19007.54
617.641	18145.34
617.836	18614.33
618.031	18217.02
618.226	18612.28
618.421	18317.37
618.616	18663.48
618.811	18194.5
619.006	18321.47
619.201	18053.19
619.396	18468.92
619.591	18067.52
619.786	17963.08
619.981	17780.81
620.176	18081.86
620.371	17774.66
620.566	17983.55
620.761	17723.46
620.956	17887.3
621.151	17430.6
621.346	17272.91
621.541	17150.03
621.735	17395.79
621.93	17299.53
622.125	17317.97
622.32	16855.12
622.515	16969.81
622.709	16894.04
622.904	16783.45
623.099	16916.56
623.294	16771.16
623.488	16388.19
623.683	16801.88
623.878	16420.95
624.072	16277.6
624.267	16482.39
624.462	16203.87
624.656	16326.75
624.851	15886.43
625.046	15880.29
625.24	16015.46
625.435	15650.92
625.629	15558.76
625.824	15562.86
626.018	15382.63
626.213	14913.65
626.407	15450.22
626.602	15194.22
626.796	15255.66
626.991	15190.13
627.185	14753.91
627.38	14850.16
627.574	14889.07
627.768	14653.56
627.963	14696.57
628.157	14436.47
628.352	14762.1
628.546	14250.11
628.74	14499.96
628.935	14237.82
629.129	14135.42
629.323	14205.05
629.517	14145.66
629.712	14092.41
629.906	13734.02
630.1	13709.44
630.294	13670.53
630.489	13906.05
630.683	13605
630.877	13652.1
631.071	13332.62
631.265	13572.23
631.459	13215.88
631.653	13191.31
631.848	13050
632.042	13174.92
632.236	13029.52
632.43	12818.58
632.624	12961.94
632.818	13062.29
633.012	12626.07
633.206	12742.8
633.4	12759.19
633.594	12462.23
633.788	12599.45
633.982	12437.66
634.176	12304.54
634.369	12353.69
634.563	12382.36
634.757	12175.52
634.951	12396.7
635.145	12234.91
635.339	12062.88
635.533	12130.46
635.726	12140.7
635.92	11858.08
636.114	11800.74
636.308	11602.08
636.501	11665.57
636.695	11702.43
636.889	11571.36
637.083	11464.87
637.276	11313.32
637.47	11239.59
637.664	11403.43
637.857	11514.02
638.051	11217.07
638.244	11090.09
638.438	11184.3
638.632	11059.37
638.825	11165.87
639.019	10887.34
639.212	10881.2
639.406	10707.12
639.599	10879.15
639.793	10772.66
639.986	10625.2
640.18	10492.09
640.373	10731.7
640.567	10426.55
640.76	10381.49
640.954	10334.39
641.147	10231.99
641.34	10242.23
641.534	10324.15
641.727	10166.46
641.92	10123.45
642.114	9937.09
642.307	10092.73
642.5	9967.81
642.694	9879.74
642.887	9820.35
643.08	9920.7
643.273	9867.45
643.467	9597.12
643.66	9525.44
643.853	9795.78
644.046	9472.2
644.239	9511.11
644.432	9470.15
644.626	9271.5
644.819	9265.35
645.012	9382.09
645.205	9218.25
645.398	9371.85
645.591	9072.84
645.784	9134.28
645.977	8855.76
646.17	9076.94
646.363	8980.68
646.556	8888.53
646.749	8698.06
646.942	8927.44
647.135	8704.21
647.328	8607.95
647.521	8669.39
647.714	8351.96
647.907	8466.64
648.099	8556.75
648.292	8550.61
648.485	8458.45
648.678	8298.71
648.871	8356.05
649.064	8286.42
649.256	8304.85
649.449	8132.83
649.642	8222.94
649.835	8210.65
650.027	8233.18
650.22	8005.85
650.413	7930.08
650.605	7954.65
650.798	7897.31
650.991	7784.67
651.183	7856.35
651.376	7756
651.568	7823.58
651.761	7721.18
651.954	7788.77
652.146	7749.86
652.339	7524.58
652.531	7420.13
652.724	7512.29
652.916	7356.65
653.109	7364.84
653.301	7174.38
653.494	7504.1
653.686	7131.37
653.879	7284.97
654.071	7266.53
654.263	7262.44
654.456	7241.96
654.648	7194.86
654.84	6975.72
655.033	7028.97
655.225	7065.83
655.417	7006.44
655.61	7022.83
655.802	6990.06
655.994	6697.2
656.186	6791.41
656.379	6834.41
656.571	6983.91
656.763	6639.86
656.955	6736.11
657.148	6820.08
657.34	6822.13
657.532	6373.62
657.724	6646
657.916	6476.02
658.108	6529.27
658.3	6486.26
658.492	6459.63
658.684	6476.02
658.876	6287.61
659.068	6363.38
659.26	6375.67
659.452	6150.39
659.644	6271.22
659.836	6205.69
660.028	6299.89
660.22	6037.75
660.412	6070.52
660.604	6127.86
660.796	6121.72
660.988	5992.7
661.18	5804.28
661.372	5812.48
661.563	6045.95
661.755	5875.96
661.947	5861.63
662.139	5814.52
662.331	5873.92
662.522	5751.04
662.714	5785.85
662.906	5597.44
663.097	5691.65
663.289	5730.56
663.481	5736.7
663.673	5624.06
663.864	5591.3
664.056	5398.79
664.247	5443.84
664.439	5476.61
664.631	5361.92
664.822	5499.14
665.014	5394.69
665.205	5325.06
665.397	5394.69
665.588	5208.33
665.78	5114.12
665.971	5271.81
666.163	5425.41
666.354	5361.92
666.546	5146.89
666.737	5222.66
666.929	5071.11
667.12	5030.15
667.311	5140.74
667.503	5103.88
667.694	5042.44
667.885	5060.87
668.077	5071.11
668.268	4931.85
668.459	4974.86
668.651	4972.81
668.842	5028.1
669.033	4813.07
669.224	4817.16
669.416	4700.43
669.607	4888.84
669.798	4690.19
669.989	4882.7
670.18	4737.29
670.371	4682
670.563	4522.26
670.754	4585.74
670.945	4561.17
671.136	4718.86
671.327	4696.33
671.518	4692.24
671.709	4686.09
671.9	4696.33
672.091	4696.33
672.282	4419.86
672.473	4469.01
672.664	4581.65
672.855	4473.11
673.046	4436.24
673.237	4456.72
673.428	4344.08
673.619	4489.49
673.809	4505.87
674	4526.35
674.191	4460.82
674.382	4421.91
674.573	4270.36
674.764	4481.3
674.954	4268.31
675.145	4231.44
675.336	4163.86
675.527	4299.03
675.717	4231.44
675.908	4149.53
676.099	4065.56
676.289	4385.04
676.48	4260.12
676.671	4198.68
676.861	4106.52
677.052	4176.15
677.243	4071.7
677.433	4129.05
677.624	4110.61
677.814	4038.94
678.005	4092.18
678.195	4120.85
678.386	4145.43
678.576	4045.08
678.767	3901.72
678.957	3983.64
679.148	4069.66
679.338	4131.09
679.529	3963.16
679.719	3916.06
679.909	3997.98
680.1	3875.1
680.29	4016.41
680.481	4053.27
680.671	3823.9
680.861	3795.23
681.052	4043.03
681.242	3871
681.432	3799.32
681.622	3770.65
681.813	3940.63
682.003	3877.15
682.193	3883.29
682.383	3887.39
682.573	3897.63
682.764	3907.87
682.954	3850.52
683.144	3791.13
683.334	3811.61
683.524	3838.23
683.714	3752.22
683.904	3807.52
684.094	3698.97
684.284	3760.41
684.474	3686.69
684.664	3641.63
684.854	3631.39
685.044	3600.67
685.234	3778.84
685.424	3615.01
685.614	3653.92
685.804	3612.96
685.994	3635.49
686.184	3549.47
686.374	3549.47
686.564	3678.49
686.753	3576.09
686.943	3447.07
687.133	3541.28
687.323	3504.42
687.513	3432.74
687.702	3537.18
687.892	3307.81
688.082	3545.38
688.272	3539.23
688.461	3416.35
688.651	3524.9
688.841	3426.59
689.03	3391.78
689.22	3281.19
689.41	3264.8
689.599	3311.91
689.789	3475.74
689.979	3281.19
690.168	3387.68
690.358	3344.67
690.547	3223.84
690.737	3307.81
690.926	3273
691.116	3234.08
691.305	3338.53
691.495	3240.23
691.684	3246.37
691.874	3141.93
692.063	3201.32
692.252	3131.69
692.442	3109.16
692.631	3127.59
692.82	3084.58
693.01	2978.09
693.199	3082.53
693.388	3172.64
693.578	3117.35
693.767	2982.18
693.956	3017
694.146	3021.1
694.335	2963.75
694.524	3141.93
694.713	3008.81
694.902	2961.7
695.092	3062.05
695.281	2826.54
695.47	2992.42
695.659	2994.47
695.848	2933.03
696.037	2756.91
696.226	2920.74
696.415	2924.84
696.604	2959.66
696.793	3051.81
696.982	2806.06
697.171	2959.66
697.36	2945.32
697.549	2806.06
697.738	2842.92
697.927	2777.39
698.116	2814.25
698.305	2914.6
698.494	2816.3
698.683	2924.84
698.872	2808.11
699.061	2920.74
699.25	2758.96
699.438	2875.69
699.627	2789.67
699.816	2801.96
700.005	2797.87
700.193	2769.2
700.382	2894.12
700.571	2885.93
700.76	2861.35
700.948	2746.67
701.137	2744.62
701.326	2744.62
701.514	2722.09
701.703	2638.13
701.892	2824.49
702.08	2855.21
702.269	2838.83
702.457	2769.2
702.646	2730.28
702.834	2691.37
703.023	2691.37
703.212	2726.19
703.4	2769.2
703.589	2775.34
703.777	2810.15
703.965	2644.27
704.154	2826.54
704.342	2711.85
704.531	2664.75
704.719	2668.84
704.907	2806.06
705.096	2761
705.284	2658.6
705.472	2801.96
705.661	2634.03
705.849	2574.64
706.037	2738.48
706.226	2627.89
706.414	2627.89
706.602	2748.72
706.79	2748.72
706.979	2627.89
707.167	2724.14
707.355	2666.8
707.543	2658.6
707.731	2660.65
707.919	2722.09
708.107	2464.05
708.296	2703.66
708.484	2789.67
708.672	2670.89
708.86	2611.5
709.048	2650.41
709.236	2609.45
709.424	2670.89
709.612	2842.92
709.8	2631.98
709.988	2644.27
710.176	2462
710.364	2543.92
710.551	2650.41
710.739	2609.45
710.927	2648.36
711.115	2599.21
711.303	2660.65
711.491	2601.26
711.679	2564.4
711.866	2681.13
712.054	2603.31
712.242	2631.98
712.43	2668.84
712.617	2627.89
712.805	2674.99
712.993	2593.07
713.181	2519.34
713.368	2560.3
713.556	2726.19
713.744	2564.4
713.931	2681.13
714.119	2572.59
714.306	2781.48
714.494	2646.32
714.682	2525.49
714.869	2638.13
715.057	2640.17
715.244	2472.24
715.432	2459.95
715.619	2625.84
715.807	2646.32
715.994	2429.23
716.182	2529.58
716.369	2429.23
716.556	2683.18
716.744	2527.53
716.931	2693.42
717.119	2584.88
717.306	2582.83
717.493	2578.73
717.681	2558.25
717.868	2457.9
718.055	2605.36
718.242	2537.77
718.43	2584.88
718.617	2457.9
718.804	2494.77
718.991	2582.83
719.179	2500.91
719.366	2588.97
719.553	2586.93
719.74	2515.25
719.927	2494.77
720.114	2568.49
720.301	2613.55
720.488	2556.21
720.676	2584.88
720.863	2599.21
721.05	2599.21
721.237	2490.67
721.424	2642.22
721.611	2627.89
721.798	2462
721.985	2482.48
722.172	2455.86
722.358	2474.29
722.545	2500.91
722.732	2468.14
722.919	2533.68
723.106	2507.06
723.293	2349.36
723.48	2404.66
723.667	2539.82
723.853	2527.53
724.04	2564.4
724.227	2429.23
724.414	2410.8
724.6	2476.34
724.787	2425.14
724.974	2355.51
725.161	2457.9
725.347	2410.8
725.534	2437.42
725.72	2457.9
725.907	2545.97
726.094	2427.18
726.28	2443.57
726.467	2418.99
726.653	2371.89
726.84	2527.53
727.027	2462
727.213	2367.79
727.4	2597.17
727.586	2414.9
727.773	2455.86
727.959	2337.07
728.145	2347.31
728.332	2449.71
728.518	2535.73
728.705	2320.69
728.891	2449.71
729.077	2423.09
729.264	2363.7
729.45	2406.7
729.636	2298.16
729.823	2332.98
730.009	2326.83
730.195	2396.46
730.382	2457.9
730.568	2365.75
730.754	2335.03
730.94	2232.63
731.126	2412.85
731.313	2369.84
731.499	2371.89
731.685	2308.4
731.871	2388.27
732.057	2257.2
732.243	2406.7
732.429	2310.45
732.615	2453.81
732.801	2287.92
732.987	2394.42
733.173	2394.42
733.359	2212.15
733.545	2246.96
733.731	2314.55
733.917	2386.22
734.103	2341.17
734.289	2402.61
734.475	2136.37
734.661	2310.45
734.847	2343.22
735.033	2289.97
735.219	2281.78
735.404	2203.96
735.59	2318.64
735.776	2199.86
735.962	2332.98
736.148	2335.03
736.333	2175.28
736.519	2337.07
736.705	2201.91
736.89	2332.98
737.076	2183.48
737.262	2251.06
737.447	2257.2
737.633	2208.05
737.819	2214.2
738.004	2267.44
738.19	2144.56
738.375	2208.05
738.561	2210.1
738.747	2212.15
738.932	2107.7
739.118	2220.34
739.303	2146.61
739.489	2222.39
739.674	2134.32
739.859	2212.15
740.045	2206
740.23	2052.41
740.416	2169.14
740.601	2038.07
740.786	2105.65
740.972	2023.73
741.157	1931.58
741.342	2062.65
741.528	1988.92
741.713	2029.88
741.898	2003.25
742.084	1982.78
742.269	2085.17
742.454	2027.83
742.639	1974.58
742.824	1982.78
743.01	1954.1
743.195	1915.19
743.38	1984.82
743.565	1966.39
743.75	1978.68
743.935	1882.42
744.12	1962.3
744.305	1939.77
744.49	2001.21
744.675	1847.61
744.86	1843.51
745.045	1986.87
745.23	1972.54
745.415	1913.14
745.6	1829.18
745.785	1823.03
745.97	1929.53
746.155	1853.75
746.34	1800.51
746.525	1837.37
746.71	1806.65
746.895	1827.13
747.079	1734.97
747.264	1700.16
747.449	1806.65
747.634	1716.54
747.819	1708.35
748.003	1739.07
748.188	1706.3
748.373	1663.29
748.557	1696.06
748.742	1640.76
748.927	1601.85
749.111	1718.59
749.296	1651
749.481	1610.04
749.665	1618.24
749.85	1569.09
750.034	1597.76
750.219	1556.8
750.404	1530.17
750.588	1597.76
750.773	1544.51
750.957	1569.09
751.141	1560.89
751.326	1532.22
751.51	1452.35
751.695	1560.89
751.879	1452.35
752.064	1626.43
752.248	1536.32
752.432	1503.55
752.617	1462.59
752.801	1493.31
752.985	1462.59
753.17	1519.93
753.354	1491.26
753.538	1382.72
753.722	1450.3
753.907	1411.39
754.091	1413.44
754.275	1421.63
754.459	1329.47
754.643	1343.81
754.828	1349.95
755.012	1251.65
755.196	1263.94
755.38	1253.7
755.564	1331.52
755.748	1313.09
755.932	1263.94
756.116	1204.55
756.3	1282.37
756.484	1259.84
756.668	1327.43
756.852	1184.07
757.036	1175.88
757.22	1298.75
757.404	1147.2
757.588	1239.36
757.772	1118.53
757.956	1126.72
758.14	1182.02
758.323	1147.2
758.507	1130.82
758.691	1124.68
758.875	1196.36
759.059	1229.12
759.242	1108.29
759.426	1046.85
759.61	1116.48
759.794	1124.68
759.977	1112.39
760.161	1225.03
760.345	1087.81
760.528	1069.38
760.712	1108.29
760.895	1014.09
761.079	1024.33
761.263	932.17
761.446	975.17
761.63	1087.81
761.813	1057.09
761.997	960.84
762.18	1057.09
762.364	999.75
762.547	1034.57
762.731	1009.99
762.914	1012.04
763.098	921.93
763.281	964.93
763.464	1003.85
763.648	999.75
763.831	1022.28
764.015	979.27
764.198	1005.89
764.381	966.98
764.564	954.69
764.748	987.46
764.931	915.78
765.114	940.36
765.297	1030.47
765.481	942.41
765.664	940.36
765.847	887.11
766.03	921.93
766.213	938.31
766.397	926.02
766.58	932.17
766.763	981.32
766.946	913.74
767.129	868.68
767.312	864.58
767.495	872.78
767.678	868.68
767.861	874.82
768.044	909.64
768.227	942.41
768.41	753.99
768.593	934.22
768.776	811.34
768.959	889.16
769.142	829.77
769.324	928.07
769.507	989.51
769.69	821.58
769.873	856.39
770.056	962.89
770.239	821.58
770.421	893.26
770.604	780.62
770.787	815.43
770.97	856.39
771.152	760.14
771.335	733.51
771.518	756.04
771.7	852.3
771.883	821.58
772.066	710.99
772.248	766.28
772.431	823.62
772.613	833.86
772.796	835.91
772.978	825.67
773.161	799.05
773.343	753.99
773.526	727.37
773.708	731.47
773.891	702.79
774.073	739.66
774.256	733.51
774.438	817.48
774.621	739.66
774.803	670.03
774.985	721.23
775.168	760.14
775.35	692.55
775.532	637.26
775.715	627.02
775.897	676.17
776.079	618.83
776.261	760.14
776.444	702.79
776.626	651.6
776.808	567.63
776.99	647.5
777.173	649.55
777.355	586.06
777.537	649.55
777.719	620.88
777.901	622.92
778.083	633.16
778.265	577.87
778.447	618.83
778.629	555.34
778.811	713.03
778.993	635.21
779.175	588.11
779.357	559.44
779.539	563.53
779.721	500.05
779.903	530.77
780.085	522.57
780.267	541.01
780.449	592.2
780.631	538.96
780.812	536.91
780.994	545.1
781.176	571.72
781.358	536.91
781.54	543.05
781.721	569.68
781.903	557.39
782.085	588.11
782.267	620.88
782.448	553.29
782.63	500.05
782.812	461.13
782.993	500.05
783.175	524.62
783.357	522.57
783.538	495.95
783.72	430.41
783.901	532.81
784.083	407.89
784.264	366.93
784.446	411.98
784.627	395.6
784.809	446.8
784.99	391.5
785.172	430.41
785.353	375.12
785.535	448.85
785.716	440.65
785.897	389.46
786.079	371.02
786.26	418.13
786.441	446.8
786.623	414.03
786.804	448.85
786.985	336.21
787.167	424.27
787.348	362.83
787.529	377.17
787.71	405.84
787.891	356.69
788.073	391.5
788.254	414.03
788.435	438.61
788.616	426.32
788.797	354.64
788.978	311.63
789.159	366.93
789.34	319.82
789.522	393.55
789.703	366.93
789.884	356.69
790.065	373.07
790.246	364.88
790.427	411.98
790.607	309.58
790.788	399.7
790.969	360.78
791.15	287.06
791.331	416.08
791.512	315.73
791.693	393.55
791.874	352.59
792.054	373.07
792.235	377.17
792.416	325.97
792.597	321.87
792.778	352.59
792.958	274.77
793.139	227.67
793.32	340.3
793.5	299.34
793.681	362.83
793.862	303.44
794.042	325.97
794.223	276.82
794.404	282.96
794.584	252.24
794.765	317.78
794.945	303.44
795.126	223.57
795.306	235.86
795.487	352.59
795.667	256.34
795.848	272.72
796.028	280.91
796.209	264.53
796.389	244.05
796.57	266.58
796.75	227.67
796.93	291.15
797.111	250.19
797.291	233.81
797.471	311.63
797.652	291.15
797.832	260.43
798.012	209.23
798.192	211.28
798.373	225.62
798.553	248.15
798.733	305.49
798.913	272.72
799.093	194.9
799.274	289.1
799.454	270.67
799.634	256.34
799.814	282.96
799.994	299.34
800.174	209.23
800.354	219.47
800.534	198.99
800.714	264.53
800.894	158.03
801.074	231.76
801.254	219.47
801.434	311.63
801.614	170.32
801.794	178.51
801.974	788.81
802.154	209.23
802.334	289.1
802.514	201.04
802.693	227.67
802.873	227.67
803.053	192.85
803.233	190.8
803.413	291.15
803.592	184.66
803.772	203.09
803.952	211.28
804.131	198.99
804.311	217.43
804.491	242
804.67	201.04
804.85	110.93
805.03	207.19
805.209	180.56
805.389	139.6
805.568	121.17
805.748	260.43
805.928	178.51
806.107	196.95
806.287	196.95
806.466	244.05
806.646	188.75
806.825	170.32
807.004	119.12
807.184	155.99
807.363	135.51
807.543	158.03
807.722	188.75
807.901	270.67
808.081	215.38
808.26	160.08
808.439	172.37
808.619	180.56
808.798	139.6
808.977	141.65
809.156	182.61
809.336	250.19
809.515	170.32
809.694	201.04
809.873	168.27
810.052	178.51
810.231	254.29
810.411	242
810.59	149.84
810.769	143.7
810.948	201.04
811.127	143.7
811.306	203.09
811.485	129.36
811.664	213.33
811.843	162.13
812.022	164.18
812.201	131.41
812.38	198.99
812.559	123.22
812.737	201.04
812.916	102.74
813.095	74.07
813.274	182.61
813.453	172.37
813.632	143.7
813.811	205.14
813.989	100.69
814.168	149.84
814.347	129.36
814.526	151.89
814.704	88.4
814.883	174.42
815.062	145.75
815.24	172.37
815.419	125.27
815.598	131.41
815.776	147.8
815.955	192.85
816.133	133.46
816.312	92.5
816.49	80.21
816.669	182.61
816.847	143.7
817.026	123.22
817.204	51.54
817.383	88.4
817.561	115.03
817.74	164.18
817.918	166.23
818.097	69.97
818.275	123.22
818.453	174.42
818.632	160.08
818.81	104.79
818.988	45.4
819.167	135.51
819.345	98.64
819.523	164.18
819.701	127.32
819.879	168.27
820.058	145.75
820.236	106.84
820.414	117.08
820.592	153.94
820.77	121.17
820.948	135.51
821.127	158.03
821.305	129.36
821.483	102.74
821.661	119.12
821.839	155.99
822.017	86.36
822.195	69.97
822.373	100.69
822.551	215.38
822.729	139.6
822.907	90.45
823.085	86.36
823.262	90.45
823.44	108.88
823.618	92.5
823.796	69.97
823.974	108.88
824.152	86.36
824.329	59.73
824.507	176.47
824.685	151.89
824.863	92.5
825.04	94.55
825.218	86.36
825.396	67.92
825.574	106.84
825.751	141.65
825.929	94.55
826.107	192.85
826.284	110.93
826.462	119.12
826.639	74.07
826.817	74.07
826.994	88.4
827.172	86.36
827.349	127.32
827.527	108.88
827.704	137.56
827.882	131.41
828.059	98.64
828.237	176.47
828.414	188.75
828.591	31.06
828.769	158.03
828.946	51.54
829.124	117.08
829.301	129.36
829.478	90.45
829.655	110.93
829.833	63.83
830.01	106.84
830.187	125.27
830.364	94.55
830.542	61.78
830.719	164.18
830.896	69.97
831.073	84.31
831.25	174.42
831.427	131.41
831.604	61.78
831.782	22.87
831.959	102.74
832.136	35.16
832.313	92.5
832.49	110.93
832.667	123.22
832.844	74.07
833.021	117.08
833.198	45.4
833.374	59.73
833.551	106.84
833.728	67.92
833.905	137.56
834.082	55.64
834.259	53.59
834.436	162.13
834.612	26.96
834.789	166.23
834.966	59.73
835.143	123.22
835.319	0.34
835.496	65.88
835.673	8.53
835.85	102.74
836.026	53.59
836.203	69.97
836.38	41.3
836.556	100.69
836.733	20.82
836.909	149.84
837.086	18.77
837.262	51.54
837.439	65.88
837.616	59.73
837.792	84.31
837.968	12.63
838.145	78.16
838.321	43.35
838.498	39.25
838.674	74.07
838.851	102.74
839.027	8.53
839.203	100.69
839.38	59.73
839.556	69.97
839.732	131.41
839.909	131.41
840.085	92.5
840.261	8.53
840.437	80.21
840.614	59.73
840.79	65.88
840.966	49.49
841.142	41.3
841.318	16.73
841.494	119.12
841.671	35.16
841.847	16.73
842.023	65.88
842.199	129.36
842.375	121.17
842.551	41.3
842.727	43.35
842.903	78.16
843.079	31.06
843.255	90.45
843.431	63.83
843.607	61.78
843.783	-20.14
843.959	57.68
844.134	94.55
844.31	69.97
844.486	41.3
844.662	121.17
844.838	69.97
845.013	8.53
845.189	96.6
845.365	-61.1
845.541	82.26
845.716	100.69
845.892	78.16
846.068	80.21
846.244	-16.04
846.419	-7.85
846.595	92.5
846.77	61.78
846.946	94.55
847.122	14.68
847.297	18.77
847.473	98.64
847.648	72.02
847.824	86.36
847.999	-11.95
848.175	67.92
848.35	86.36
848.526	8.53
848.701	24.92
848.876	51.54
849.052	102.74
849.227	63.83
849.403	69.97
849.578	63.83
849.753	0.34
849.929	67.92
850.104	-81.58
850.279	63.83
850.454	12.63
850.63	45.4
850.805	29.01
850.98	61.78
851.155	51.54
851.33	117.08
851.505	22.87
851.681	53.59
851.856	59.73
852.031	74.07
852.206	125.27
852.381	4.44
852.556	12.63
852.731	35.16
852.906	18.77
853.081	67.92
853.256	45.4
853.431	47.44
853.606	4.44
853.781	92.5
853.956	24.92
854.131	16.73
854.305	61.78
854.48	80.21
854.655	92.5
854.83	47.44
855.005	53.59
855.18	76.12
855.354	67.92
855.529	57.68
855.704	0.34
855.879	-1.71
856.053	24.92
856.228	69.97
856.403	-11.95
856.577	96.6
856.752	-73.39
856.926	43.35
857.101	41.3
857.276	12.63
857.45	33.11
857.625	55.64
857.799	82.26
857.974	-9.9
858.148	35.16
858.323	72.02
858.497	-7.85
858.672	31.06
858.846	-26.28
859.02	74.07
859.195	-5.8
859.369	102.74
859.543	92.5
859.718	88.4
859.892	63.83
860.066	22.87
860.241	-13.99
860.415	41.3
860.589	-73.39
860.763	24.92
860.938	4.44
861.112	37.2
861.286	24.92
861.46	-20.14
861.634	-20.14
861.808	20.82
861.982	29.01
862.157	-38.57
862.331	18.77
862.505	24.92
862.679	20.82
862.853	26.96
863.027	24.92
863.201	61.78
863.375	39.25
863.549	18.77
863.722	29.01
863.896	143.7
864.07	45.4
864.244	61.78
864.418	-61.1
864.592	49.49
864.766	65.88
864.939	26.96
865.113	12.63
865.287	26.96
865.461	-26.28
865.634	0.34
865.808	6.49
865.982	-36.52
866.156	-7.85
866.329	8.53
866.503	16.73
866.676	106.84
866.85	90.45
867.024	-1.71
867.197	14.68
867.371	29.01
867.544	-24.23
867.718	8.53
867.891	16.73
868.065	65.88
868.238	47.44
868.412	49.49
868.585	100.69
868.759	2.39
868.932	41.3
869.105	14.68
869.279	61.78
869.452	22.87
869.625	-5.8
869.799	55.64
869.972	41.3
870.145	100.69
870.319	110.93
870.492	-22.19
870.665	-63.15
870.838	33.11
871.011	4.44
871.185	84.31
871.358	-34.47
871.531	41.3
871.704	2.39
871.877	4.44
872.05	29.01
872.223	16.73
872.396	45.4
872.569	2.39
872.742	-44.71
872.915	47.44
873.088	45.4
873.261	-30.38
873.434	2.39
873.607	-11.95
873.78	-11.95
873.953	-63.15
874.126	16.73
874.299	29.01
874.471	18.77
874.644	26.96
874.817	65.88
874.99	61.78
875.163	47.44
875.335	67.92
875.508	-42.67
875.681	24.92
875.853	49.49
876.026	39.25
876.199	6.49
876.371	39.25
876.544	43.35
876.717	53.59
876.889	-18.09
877.062	-18.09
877.234	29.01
877.407	-34.47
877.579	-3.75
877.752	18.77
877.924	-18.09
878.097	-3.75
878.269	14.68
878.442	63.83
878.614	-40.62
878.786	29.01
878.959	10.58
879.131	53.59
879.303	16.73
879.476	117.08
879.648	0.34
879.82	-1.71
879.993	47.44
880.165	57.68
880.337	-132.78
880.509	39.25
880.681	-50.86
880.854	51.54
881.026	47.44
881.198	110.93
881.37	10.58
881.542	14.68
881.714	16.73
881.886	4.44
882.058	51.54
882.23	26.96
882.402	35.16
882.574	43.35
882.746	59.73
882.918	78.16
883.09	-3.75
883.262	18.77
883.434	-42.67
883.606	-7.85
883.778	16.73
883.95	37.2
884.122	4.44
884.293	-20.14
884.465	2.39
884.637	31.06
884.809	-106.15
884.98	-16.04
885.152	84.31
885.324	61.78
885.496	35.16
885.667	69.97
885.839	12.63
886.011	-32.43
886.182	-77.48
886.354	39.25
886.525	-11.95
886.697	24.92
886.869	-13.99
887.04	16.73
887.212	6.49
887.383	53.59
887.555	24.92
887.726	8.53
887.897	20.82
888.069	-5.8
888.24	4.44
888.412	26.96
888.583	49.49
888.754	31.06
888.926	-69.29
889.097	10.58
889.268	-5.8
889.44	90.45
889.611	12.63
889.782	57.68
889.953	-13.99
890.125	26.96
890.296	-28.33
890.467	-28.33
890.638	20.82
890.809	-16.04
890.98	22.87
891.151	-13.99
891.323	65.88
891.494	-28.33
891.665	18.77
891.836	33.11
892.007	26.96
892.178	4.44
892.349	53.59
892.52	-22.19
892.691	6.49
892.862	-7.85
893.032	-85.67
893.203	37.2
893.374	-38.57
893.545	4.44
893.716	24.92
893.887	69.97
894.057	8.53
894.228	-32.43
894.399	41.3
894.57	29.01
894.74	-18.09
894.911	-57
895.082	-28.33
895.253	-34.47
895.423	-63.15
895.594	35.16
895.764	29.01
895.935	20.82
896.106	-40.62
896.276	31.06
896.447	59.73
896.617	-36.52
896.788	-36.52
896.958	-52.91
897.129	-46.76
897.299	35.16
897.47	-52.91
897.64	-13.99
897.81	33.11
897.981	43.35
898.151	-40.62
898.322	-34.47
898.492	-24.23
898.662	29.01
898.832	8.53
899.003	61.78
899.173	-3.75
899.343	69.97
899.513	-24.23
