Data from USB4F104151__116__10-25-02-225.txt Node

Date: Wed Mar 12 10:25:02 EDT 2025
User: louis
Spectrometer: USB4F10415
Trigger mode: 4
Integration Time (sec): 3.000000E-2
Scans to average: 1
Electric dark correction enabled: true
Nonlinearity correction enabled: false
Boxcar width: 0
XAxis mode: Wavelengths
Number of Pixels in Spectrum: 3648
>>>>>Begin Spectral Data<<<<<
178.204	-138.58
178.424	-138.58
178.644	-138.58
178.864	-85.33
179.084	-185.68
179.304	-21.84
179.524	-13.65
179.744	23.21
179.964	27.31
180.184	35.5
180.404	58.03
180.624	2.73
180.844	-17.75
181.064	-64.85
181.283	-42.32
181.503	2.73
181.723	10.92
181.943	-7.51
182.163	23.21
182.383	-21.84
182.602	0.68
182.822	74.41
183.042	-3.41
183.262	19.11
183.482	-17.75
183.701	49.83
183.921	-21.84
184.141	-46.42
184.361	19.11
184.58	-5.46
184.8	-40.28
185.02	-30.04
185.239	43.69
185.459	-46.42
185.679	-1.37
185.898	-40.28
186.118	10.92
186.338	33.45
186.557	64.17
186.777	19.11
186.997	-3.41
187.216	10.92
187.436	31.4
187.655	-50.52
187.875	62.12
188.095	2.73
188.314	117.42
188.534	62.12
188.753	27.31
188.973	25.26
189.192	35.5
189.412	31.4
189.631	19.11
189.851	33.45
190.07	68.27
190.29	-48.47
190.509	84.65
190.729	2.73
190.948	35.5
191.168	133.8
191.387	25.26
191.607	-48.47
191.826	-9.56
192.045	27.31
192.265	41.64
192.484	23.21
192.704	25.26
192.923	-13.65
193.142	33.45
193.362	15.02
193.581	27.31
193.8	39.59
194.02	25.26
194.239	39.59
194.458	115.37
194.678	60.07
194.897	68.27
195.116	131.75
195.335	29.35
195.555	23.21
195.774	39.59
195.993	-48.47
196.212	12.97
196.432	-32.08
196.651	31.4
196.87	27.31
197.089	51.88
197.308	39.59
197.528	2.73
197.747	0.68
197.966	-68.95
198.185	58.03
198.404	12.97
198.623	8.87
198.842	96.94
199.062	8.87
199.281	45.74
199.5	17.07
199.719	-27.99
199.938	27.31
200.157	103.08
200.376	35.5
200.595	76.46
200.814	62.12
201.033	-23.89
201.252	64.17
201.471	-5.46
201.69	60.07
201.909	53.93
202.128	-42.32
202.347	-27.99
202.566	45.74
202.785	-1.37
203.004	27.31
203.223	31.4
203.442	-27.99
203.661	49.83
203.879	-17.75
204.098	23.21
204.317	66.22
204.536	6.83
204.755	33.45
204.974	88.75
205.193	12.97
205.411	27.31
205.63	68.27
205.849	37.55
206.068	-50.52
206.287	-5.46
206.505	49.83
206.724	2.73
206.943	-17.75
207.162	-9.56
207.381	25.26
207.599	-5.46
207.818	2.73
208.037	25.26
208.255	-13.65
208.474	-27.99
208.693	27.31
208.911	-17.75
209.13	-21.84
209.349	98.99
209.567	10.92
209.786	-3.41
210.005	6.83
210.223	25.26
210.442	37.55
210.661	55.98
210.879	-13.65
211.098	-27.99
211.316	8.87
211.535	31.4
211.753	-73.04
211.972	78.51
212.191	-62.8
212.409	25.26
212.628	76.46
212.846	8.87
213.065	119.46
213.283	15.02
213.502	17.07
213.72	21.16
213.938	12.97
214.157	-7.51
214.375	53.93
214.594	49.83
214.812	0.68
215.031	-64.85
215.249	47.79
215.467	31.4
215.686	4.78
215.904	72.36
216.122	-5.46
216.341	-5.46
216.559	0.68
216.778	41.64
216.996	8.87
217.214	-5.46
217.432	-40.28
217.651	-66.9
217.869	41.64
218.087	31.4
218.306	6.83
218.524	-34.13
218.742	-19.8
218.96	2.73
219.179	33.45
219.397	-1.37
219.615	21.16
219.833	35.5
220.051	33.45
220.27	23.21
220.488	35.5
220.706	51.88
220.924	55.98
221.142	-19.8
221.36	-1.37
221.578	80.55
221.796	31.4
222.015	-5.46
222.233	60.07
222.451	37.55
222.669	2.73
222.887	29.35
223.105	2.73
223.323	17.07
223.541	60.07
223.759	-13.65
223.977	70.31
224.195	68.27
224.413	88.75
224.631	0.68
224.849	19.11
225.067	-1.37
225.285	-89.43
225.503	-1.37
225.721	-1.37
225.939	29.35
226.157	37.55
226.375	117.42
226.592	62.12
226.81	-9.56
227.028	33.45
227.246	31.4
227.464	-17.75
227.682	-3.41
227.9	4.78
228.117	60.07
228.335	-1.37
228.553	19.11
228.771	37.55
228.989	31.4
229.206	51.88
229.424	0.68
229.642	55.98
229.86	6.83
230.077	51.88
230.295	78.51
230.513	70.31
230.731	21.16
230.948	101.03
231.166	-17.75
231.384	86.7
231.601	-3.41
231.819	86.7
232.037	39.59
232.254	23.21
232.472	-5.46
232.689	8.87
232.907	6.83
233.125	21.16
233.342	12.97
233.56	-25.94
233.777	-3.41
233.995	6.83
234.213	47.79
234.43	49.83
234.648	-30.04
234.865	-58.71
235.083	60.07
235.3	-11.61
235.518	-9.56
235.735	68.27
235.953	6.83
236.17	10.92
236.388	-40.28
236.605	21.16
236.822	55.98
237.04	19.11
237.257	17.07
237.475	-60.76
237.692	47.79
237.909	-7.51
238.127	-7.51
238.344	-19.8
238.562	53.93
238.779	-5.46
238.996	12.97
239.214	51.88
239.431	17.07
239.648	45.74
239.865	55.98
240.083	29.35
240.3	10.92
240.517	-50.52
240.735	33.45
240.952	25.26
241.169	49.83
241.386	-1.37
241.603	47.79
241.821	47.79
242.038	-34.13
242.255	25.26
242.472	10.92
242.689	72.36
242.907	111.27
243.124	29.35
243.341	4.78
243.558	33.45
243.775	68.27
243.992	-1.37
244.209	29.35
244.426	80.55
244.643	45.74
244.86	-58.71
245.078	-5.46
245.295	33.45
245.512	-1.37
245.729	15.02
245.946	55.98
246.163	-50.52
246.38	10.92
246.597	45.74
246.814	8.87
247.031	64.17
247.248	51.88
247.464	19.11
247.681	2.73
247.898	35.5
248.115	-7.51
248.332	-48.47
248.549	92.84
248.766	80.55
248.983	41.64
249.2	-5.46
249.417	6.83
249.633	-30.04
249.85	74.41
250.067	35.5
250.284	10.92
250.501	31.4
250.717	6.83
250.934	2.73
251.151	39.59
251.368	-23.89
251.585	31.4
251.801	68.27
252.018	-3.41
252.235	39.59
252.451	-58.71
252.668	35.5
252.885	51.88
253.102	33.45
253.318	4.78
253.535	62.12
253.752	66.22
253.968	15.02
254.185	-40.28
254.401	-25.94
254.618	-3.41
254.835	41.64
255.051	-40.28
255.268	43.69
255.484	29.35
255.701	-77.14
255.917	-1.37
256.134	-30.04
256.351	-11.61
256.567	6.83
256.784	31.4
257	33.45
257.217	94.89
257.433	15.02
257.65	-34.13
257.866	6.83
258.082	-34.13
258.299	10.92
258.515	21.16
258.732	-17.75
258.948	58.03
259.165	-23.89
259.381	35.5
259.597	-7.51
259.814	15.02
260.03	43.69
260.246	25.26
260.463	12.97
260.679	-1.37
260.895	6.83
261.112	80.55
261.328	8.87
261.544	45.74
261.761	23.21
261.977	-30.04
262.193	35.5
262.409	101.03
262.626	64.17
262.842	88.75
263.058	6.83
263.274	35.5
263.49	-5.46
263.707	15.02
263.923	-17.75
264.139	-42.32
264.355	68.27
264.571	86.7
264.787	25.26
265.004	107.18
265.22	64.17
265.436	-17.75
265.652	6.83
265.868	43.69
266.084	-23.89
266.3	-19.8
266.516	-23.89
266.732	-21.84
266.948	53.93
267.164	-27.99
267.38	31.4
267.596	4.78
267.812	92.84
268.028	55.98
268.244	51.88
268.46	70.31
268.676	15.02
268.892	33.45
269.108	60.07
269.324	-17.75
269.54	10.92
269.756	109.23
269.972	39.59
270.188	-30.04
270.403	58.03
270.619	55.98
270.835	25.26
271.051	21.16
271.267	15.02
271.483	68.27
271.698	17.07
271.914	76.46
272.13	-17.75
272.346	4.78
272.562	51.88
272.777	41.64
272.993	-5.46
273.209	6.83
273.425	37.55
273.64	6.83
273.856	58.03
274.072	35.5
274.287	19.11
274.503	23.21
274.719	66.22
274.934	35.5
275.15	-50.52
275.366	2.73
275.581	-3.41
275.797	-23.89
276.012	-38.23
276.228	-3.41
276.444	0.68
276.659	60.07
276.875	-11.61
277.09	55.98
277.306	-46.42
277.521	-13.65
277.737	41.64
277.952	84.65
278.168	84.65
278.383	35.5
278.599	37.55
278.814	-13.65
279.03	-62.8
279.245	37.55
279.461	25.26
279.676	-3.41
279.892	-40.28
280.107	-75.09
280.322	0.68
280.538	15.02
280.753	31.4
280.969	80.55
281.184	6.83
281.399	43.69
281.615	-15.7
281.83	25.26
282.045	-21.84
282.26	27.31
282.476	-73.04
282.691	35.5
282.906	49.83
283.122	-1.37
283.337	8.87
283.552	35.5
283.767	-68.95
283.983	58.03
284.198	4.78
284.413	82.6
284.628	-25.94
284.843	-13.65
285.058	0.68
285.274	35.5
285.489	-23.89
285.704	53.93
285.919	-42.32
286.134	29.35
286.349	29.35
286.564	-1.37
286.779	86.7
286.995	31.4
287.21	-17.75
287.425	10.92
287.64	10.92
287.855	25.26
288.07	-13.65
288.285	51.88
288.5	84.65
288.715	19.11
288.93	35.5
289.145	78.51
289.36	82.6
289.575	0.68
289.79	10.92
290.004	41.64
290.219	-17.75
290.434	0.68
290.649	-32.08
290.864	2.73
291.079	53.93
291.294	0.68
291.509	25.26
291.724	43.69
291.938	49.83
292.153	23.21
292.368	-7.51
292.583	17.07
292.798	31.4
293.012	144.04
293.227	19.11
293.442	39.59
293.657	31.4
293.871	92.84
294.086	45.74
294.301	47.79
294.516	19.11
294.73	21.16
294.945	8.87
295.16	101.03
295.374	19.11
295.589	109.23
295.804	-13.65
296.018	55.98
296.233	37.55
296.447	58.03
296.662	-15.7
296.877	45.74
297.091	-64.85
297.306	8.87
297.52	76.46
297.735	90.79
297.949	23.21
298.164	29.35
298.378	49.83
298.593	-23.89
298.807	41.64
299.022	17.07
299.236	86.7
299.451	-36.18
299.665	15.02
299.88	78.51
300.094	58.03
300.309	15.02
300.523	58.03
300.737	19.11
300.952	51.88
301.166	41.64
301.381	-1.37
301.595	-30.04
301.809	-36.18
302.024	15.02
302.238	17.07
302.452	2.73
302.667	19.11
302.881	-5.46
303.095	19.11
303.309	98.99
303.524	17.07
303.738	-13.65
303.952	47.79
304.166	68.27
304.381	-87.38
304.595	-32.08
304.809	8.87
305.023	60.07
305.237	-30.04
305.452	-64.85
305.666	53.93
305.88	47.79
306.094	51.88
306.308	29.35
306.522	31.4
306.736	-9.56
306.95	23.21
307.164	-17.75
307.379	33.45
307.593	4.78
307.807	41.64
308.021	45.74
308.235	25.26
308.449	8.87
308.663	23.21
308.877	33.45
309.091	47.79
309.305	23.21
309.519	-1.37
309.733	82.6
309.947	15.02
310.161	86.7
310.374	15.02
310.588	66.22
310.802	-13.65
311.016	-56.66
311.23	92.84
311.444	35.5
311.658	19.11
311.872	-1.37
312.085	0.68
312.299	55.98
312.513	8.87
312.727	-91.48
312.941	37.55
313.154	-40.28
313.368	-9.56
313.582	27.31
313.796	58.03
314.009	55.98
314.223	62.12
314.437	-1.37
314.651	51.88
314.864	-11.61
315.078	-13.65
315.292	2.73
315.505	-48.47
315.719	58.03
315.933	4.78
316.146	-21.84
316.36	17.07
316.573	39.59
316.787	19.11
317.001	39.59
317.214	-25.94
317.428	4.78
317.641	-25.94
317.855	31.4
318.068	15.02
318.282	-21.84
318.495	72.36
318.709	55.98
318.922	-7.51
319.136	62.12
319.349	60.07
319.563	4.78
319.776	88.75
319.99	49.83
320.203	35.5
320.417	-58.71
320.63	15.02
320.843	15.02
321.057	53.93
321.27	62.12
321.483	58.03
321.697	74.41
321.91	60.07
322.124	-5.46
322.337	53.93
322.55	27.31
322.763	10.92
322.977	4.78
323.19	-52.56
323.403	39.59
323.617	29.35
323.83	70.31
324.043	-13.65
324.256	-32.08
324.469	33.45
324.683	64.17
324.896	55.98
325.109	-54.61
325.322	27.31
325.535	-11.61
325.748	31.4
325.962	39.59
326.175	-21.84
326.388	17.07
326.601	47.79
326.814	-9.56
327.027	-27.99
327.24	154.28
327.453	-5.46
327.666	-9.56
327.879	-1.37
328.092	15.02
328.305	12.97
328.518	43.69
328.731	35.5
328.944	-75.09
329.157	8.87
329.37	-19.8
329.583	-13.65
329.796	105.13
330.009	49.83
330.222	8.87
330.435	60.07
330.648	45.74
330.861	27.31
331.073	-17.75
331.286	17.07
331.499	-11.61
331.712	15.02
331.925	-19.8
332.138	47.79
332.35	6.83
332.563	-1.37
332.776	12.97
332.989	-7.51
333.202	62.12
333.414	68.27
333.627	19.11
333.84	33.45
334.053	58.03
334.265	-13.65
334.478	47.79
334.691	43.69
334.903	39.59
335.116	25.26
335.329	35.5
335.541	6.83
335.754	31.4
335.966	-13.65
336.179	-21.84
336.392	33.45
336.604	-38.23
336.817	37.55
337.029	-1.37
337.242	17.07
337.454	98.99
337.667	33.45
337.88	35.5
338.092	27.31
338.305	-9.56
338.517	19.11
338.729	60.07
338.942	82.6
339.154	29.35
339.367	-9.56
339.579	41.64
339.792	2.73
340.004	55.98
340.217	35.5
340.429	-23.89
340.641	62.12
340.854	-58.71
341.066	12.97
341.278	31.4
341.491	21.16
341.703	41.64
341.915	68.27
342.128	19.11
342.34	-56.66
342.552	70.31
342.764	-38.23
342.977	21.16
343.189	39.59
343.401	25.26
343.613	0.68
343.826	49.83
344.038	35.5
344.25	31.4
344.462	12.97
344.674	41.64
344.886	-34.13
345.099	17.07
345.311	131.75
345.523	12.97
345.735	6.83
345.947	90.79
346.159	2.73
346.371	29.35
346.583	17.07
346.795	111.27
347.007	-21.84
347.219	51.88
347.431	-15.7
347.643	78.51
347.855	43.69
348.067	-30.04
348.279	21.16
348.491	39.59
348.703	-38.23
348.915	49.83
349.127	-3.41
349.339	8.87
349.551	27.31
349.763	111.27
349.975	19.11
350.187	96.94
350.399	62.12
350.61	33.45
350.822	68.27
351.034	33.45
351.246	-7.51
351.458	-7.51
351.669	10.92
351.881	101.03
352.093	33.45
352.305	29.35
352.517	33.45
352.728	94.89
352.94	-17.75
353.152	86.7
353.363	45.74
353.575	55.98
353.787	55.98
353.999	-32.08
354.21	23.21
354.422	-73.04
354.633	-46.42
354.845	-13.65
355.057	43.69
355.268	35.5
355.48	2.73
355.692	31.4
355.903	0.68
356.115	96.94
356.326	-50.52
356.538	25.26
356.749	76.46
356.961	51.88
357.172	-32.08
357.384	53.93
357.595	29.35
357.807	12.97
358.018	37.55
358.23	84.65
358.441	117.42
358.653	27.31
358.864	43.69
359.075	27.31
359.287	-15.7
359.498	101.03
359.709	10.92
359.921	72.36
360.132	64.17
360.344	90.79
360.555	-54.61
360.766	25.26
360.977	49.83
361.189	39.59
361.4	-30.04
361.611	6.83
361.823	66.22
362.034	76.46
362.245	-54.61
362.456	66.22
362.667	39.59
362.879	82.6
363.09	6.83
363.301	45.74
363.512	55.98
363.723	23.21
363.935	-40.28
364.146	68.27
364.357	35.5
364.568	70.31
364.779	-50.52
364.99	53.93
365.201	12.97
365.412	68.27
365.623	27.31
365.834	49.83
366.045	-7.51
366.256	17.07
366.467	29.35
366.678	6.83
366.889	-5.46
367.1	55.98
367.311	17.07
367.522	17.07
367.733	27.31
367.944	53.93
368.155	8.87
368.366	55.98
368.577	25.26
368.788	-21.84
368.999	17.07
369.209	39.59
369.42	66.22
369.631	27.31
369.842	82.6
370.053	0.68
370.264	0.68
370.474	2.73
370.685	27.31
370.896	4.78
371.107	90.79
371.317	43.69
371.528	17.07
371.739	-25.94
371.95	86.7
372.16	19.11
372.371	31.4
372.582	76.46
372.792	47.79
373.003	31.4
373.214	10.92
373.424	125.61
373.635	2.73
373.846	88.75
374.056	105.13
374.267	53.93
374.477	55.98
374.688	-5.46
374.898	62.12
375.109	10.92
375.319	-27.99
375.53	-1.37
375.74	23.21
375.951	70.31
376.161	62.12
376.372	37.55
376.582	35.5
376.793	62.12
377.003	43.69
377.214	-34.13
377.424	70.31
377.635	70.31
377.845	10.92
378.055	39.59
378.266	-5.46
378.476	-32.08
378.686	51.88
378.897	96.94
379.107	60.07
379.317	90.79
379.528	6.83
379.738	74.41
379.948	58.03
380.158	86.7
380.369	4.78
380.579	82.6
380.789	12.97
380.999	-38.23
381.21	47.79
381.42	160.42
381.63	15.02
381.84	43.69
382.05	76.46
382.261	51.88
382.471	10.92
382.681	72.36
382.891	41.64
383.101	78.51
383.311	55.98
383.521	10.92
383.731	31.4
383.941	96.94
384.151	76.46
384.361	31.4
384.571	19.11
384.781	64.17
384.991	31.4
385.201	15.02
385.411	25.26
385.621	88.75
385.831	-3.41
386.041	49.83
386.251	15.02
386.461	80.55
386.671	35.5
386.881	12.97
387.091	90.79
387.301	88.75
387.511	4.78
387.72	-13.65
387.93	70.31
388.14	68.27
388.35	117.42
388.56	90.79
388.769	129.7
388.979	60.07
389.189	27.31
389.399	64.17
389.609	25.26
389.818	66.22
390.028	-25.94
390.238	23.21
390.447	41.64
390.657	94.89
390.867	123.56
391.076	25.26
391.286	6.83
391.496	29.35
391.705	74.41
391.915	162.47
392.125	15.02
392.334	4.78
392.544	109.23
392.753	70.31
392.963	51.88
393.172	29.35
393.382	-30.04
393.591	84.65
393.801	17.07
394.01	135.85
394.22	62.12
394.429	35.5
394.639	23.21
394.848	76.46
395.058	60.07
395.267	37.55
395.477	-5.46
395.686	-23.89
395.895	131.75
396.105	68.27
396.314	80.55
396.524	53.93
396.733	21.16
396.942	64.17
397.152	98.99
397.361	49.83
397.57	10.92
397.78	101.03
397.989	84.65
398.198	66.22
398.407	64.17
398.617	76.46
398.826	68.27
399.035	25.26
399.244	113.32
399.453	76.46
399.663	98.99
399.872	80.55
400.081	23.21
400.29	58.03
400.499	66.22
400.708	31.4
400.917	74.41
401.127	60.07
401.336	8.87
401.545	170.66
401.754	19.11
401.963	96.94
402.172	137.9
402.381	92.84
402.59	64.17
402.799	92.84
403.008	43.69
403.217	123.56
403.426	139.94
403.635	-7.51
403.844	49.83
404.053	70.31
404.262	139.94
404.471	160.42
404.68	127.66
404.888	111.27
405.097	111.27
405.306	86.7
405.515	68.27
405.724	90.79
405.933	117.42
406.142	123.56
406.35	109.23
406.559	199.34
406.768	201.38
406.977	148.14
407.185	193.19
407.394	162.47
407.603	170.66
407.812	221.86
408.02	158.38
408.229	242.34
408.438	148.14
408.646	154.28
408.855	217.77
409.064	273.06
409.272	209.58
409.481	277.16
409.69	189.1
409.898	213.67
410.107	223.91
410.315	148.14
410.524	230.06
410.733	273.06
410.941	273.06
411.15	244.39
411.358	281.25
411.567	303.78
411.775	277.16
411.984	336.55
412.192	393.89
412.401	400.04
412.609	404.13
412.818	426.66
413.026	434.85
413.234	522.91
413.443	457.38
413.651	490.15
413.86	461.48
414.068	486.05
414.276	553.63
414.485	582.31
414.693	524.96
414.901	598.69
415.11	635.55
415.318	551.59
415.526	606.88
415.734	740
415.943	682.66
416.151	764.58
416.359	760.48
416.567	729.76
416.776	817.82
416.984	815.77
417.192	875.17
417.4	746.14
417.608	856.73
417.817	860.83
418.025	903.84
418.233	1000.09
418.441	993.95
418.649	1004.19
418.857	1125.02
419.065	1125.02
419.273	1102.49
419.481	1137.31
419.689	1266.33
419.897	1489.56
420.105	1335.96
420.313	1198.74
420.521	1424.02
420.729	1424.02
420.937	1499.8
421.145	1462.93
421.353	1557.14
421.561	1647.25
421.769	1759.89
421.977	1747.6
422.185	1757.84
422.393	1895.05
422.601	2065.04
422.809	1993.36
423.017	1958.54
423.224	2192.01
423.432	2235.02
423.64	2239.11
423.848	2327.18
424.056	2273.93
424.263	2552.45
424.471	2566.79
424.679	2620.03
424.887	2699.91
425.094	2771.58
425.302	2841.22
425.51	2878.08
425.718	2839.17
425.925	2929.28
426.133	3082.88
426.341	3316.34
426.548	3517.05
426.756	3330.68
426.964	3402.36
427.171	3662.45
427.379	3957.36
427.586	3732.08
427.794	4047.47
428.001	4080.24
428.209	4311.66
428.417	4305.51
428.624	4672.1
428.832	4647.52
429.039	4731.49
429.247	4508.26
429.454	4928.1
429.662	5288.54
429.869	5073.5
430.076	5272.15
430.284	5274.2
430.491	5487.19
430.699	5661.27
430.906	5640.79
431.114	5628.5
431.321	5990.99
431.528	6124.11
431.736	6531.65
431.943	6763.08
432.15	6500.94
432.358	6726.21
432.565	7043.65
432.772	6873.67
432.979	7434.81
433.187	7514.68
433.394	7524.92
433.601	7916.08
433.808	7971.38
434.016	8000.05
434.223	8315.44
434.43	8974.88
434.637	8491.56
434.844	9116.19
435.052	9290.27
435.259	9341.47
435.466	9509.4
435.673	9308.7
435.88	9824.79
436.087	10297.87
436.294	10287.63
436.501	10218
436.708	10213.9
436.915	10762.76
437.122	11323.9
437.329	11057.67
437.537	11483.64
437.743	11768.31
437.95	11641.34
438.157	11987.44
438.364	12653.03
438.571	12470.76
438.778	12554.73
438.985	13840.86
439.192	13175.27
439.399	13736.41
439.606	13494.75
439.813	14191.06
440.02	15014.34
440.227	14821.83
440.433	14604.75
440.64	15243.71
440.847	14942.66
441.054	15587.77
441.261	16325.04
441.467	16105.91
441.674	16363.95
441.881	16933.29
442.088	16912.81
442.294	17019.3
442.501	17416.61
442.708	17680.8
442.914	18241.94
443.121	19061.13
443.328	18809.23
443.534	19837.31
443.741	19569.02
443.948	18891.15
444.154	20574.58
444.361	20214.13
444.568	20529.52
444.774	20621.68
444.981	20924.78
445.187	20969.83
445.394	22303.06
445.6	21553.51
445.807	24078.65
446.013	22763.86
446.22	23605.57
446.426	24174.91
446.633	24629.55
446.839	24998.19
447.046	24156.47
447.252	25401.64
447.459	25245.99
447.665	25403.69
447.871	26698
448.078	27588.87
448.284	26491.16
448.491	27142.41
448.697	28088.57
448.903	28600.57
449.11	28641.53
449.316	28016.9
449.522	28514.55
449.728	29124.85
449.935	29698.28
450.141	29821.16
450.347	30376.16
450.553	29026.54
450.76	29751.52
450.966	30361.82
451.172	30136.54
451.378	30769.37
451.584	30253.28
451.791	30918.87
451.997	30865.62
452.203	31457.48
452.409	31176.91
452.615	30748.89
452.821	29714.66
453.027	29348.07
453.233	31359.18
453.44	29806.82
453.646	30148.83
453.852	30451.93
454.058	30578.9
454.264	29610.21
454.47	30263.52
454.676	29591.78
454.882	30769.37
455.088	27812.1
455.294	28539.13
455.5	28762.36
455.705	28952.82
455.911	27828.48
456.117	27109.65
456.323	27017.49
456.529	25409.83
456.735	26376.47
456.941	25504.04
457.147	25340.2
457.352	24955.18
457.558	24195.39
457.764	24609.08
457.97	24117.56
458.176	23322.95
458.381	22982.99
458.587	22184.28
458.793	22391.12
458.999	21037.42
459.204	22708.56
459.41	21887.32
459.616	20869.48
459.821	20298.1
460.027	20199.8
460.233	19884.41
460.438	19038.6
460.644	19495.3
460.85	18190.74
461.055	18119.06
461.261	18172.31
461.466	16755.12
461.672	16204.21
461.878	17533.34
462.083	16413.1
462.289	15991.22
462.494	15829.43
462.7	15124.93
462.905	14637.52
463.111	15208.9
463.316	15124.93
463.522	14744.01
463.727	15133.12
463.932	15034.82
464.138	14668.23
464.343	14895.56
464.549	14436.81
464.754	14860.74
464.959	14678.47
465.165	14299.6
465.37	14205.39
465.575	13875.67
465.781	14303.7
465.986	14404.05
466.191	13797.85
466.397	13357.53
466.602	13189.6
466.807	13189.6
467.012	13244.9
467.218	13142.5
467.423	13179.36
467.628	13296.1
467.833	13720.03
468.038	13201.89
468.244	12691.94
468.449	13515.23
468.654	12802.54
468.859	12798.44
469.064	12820.97
469.269	12261.87
469.474	12556.78
469.679	12425.71
469.885	12255.73
470.09	12376.56
470.295	12388.85
470.5	11977.2
470.705	12003.83
470.91	11663.86
471.115	11635.19
471.32	11893.24
471.525	11790.84
471.73	11397.63
471.935	11657.72
472.139	11037.19
472.344	11192.83
472.549	11084.29
472.754	11155.97
472.959	10725.89
473.164	10502.67
473.369	10480.14
473.574	10783.24
473.778	10594.82
473.983	10543.63
474.188	10416.65
474.393	9892.37
474.598	10125.84
474.802	9837.08
475.007	10029.59
475.212	9710.1
475.417	9787.93
475.621	9546.26
475.826	9476.63
476.031	9619.99
476.235	9146.91
476.44	9501.21
476.645	9241.12
476.849	9308.7
477.054	9007.65
477.259	8966.69
477.463	8964.64
477.668	8714.79
477.872	9017.89
478.077	8520.23
478.282	8569.38
478.486	8509.99
478.691	8321.58
478.895	8286.76
479.1	8249.9
479.304	8145.45
479.509	8180.27
479.713	8360.49
479.918	8350.25
480.122	7957.04
480.326	8104.49
480.531	8077.87
480.735	7858.74
480.94	8004.14
481.144	8112.69
481.348	7834.16
481.553	7811.64
481.757	7682.61
481.961	7727.67
482.166	8010.29
482.37	7985.71
482.574	7961.14
482.778	7780.92
482.983	7854.64
483.187	7686.71
483.391	7782.96
483.595	7684.66
483.8	7686.71
484.004	7791.16
484.208	7825.97
484.412	7647.8
484.616	7809.59
484.821	7729.72
485.025	7725.62
485.229	7815.73
485.433	7873.07
485.637	7770.68
485.841	7639.61
486.045	7848.5
486.249	7666.23
486.453	7533.11
486.657	7692.85
486.861	7914.03
487.065	7674.42
487.269	7596.6
487.473	7608.89
487.677	7658.04
487.881	7899.7
488.085	7735.86
488.289	7977.52
488.493	7707.19
488.697	7856.69
488.901	7930.42
489.105	7832.12
489.309	7920.18
489.512	7969.33
489.716	7961.14
489.92	7893.55
490.124	7946.8
490.328	7985.71
490.531	7864.88
490.735	7954.99
490.939	8043.06
491.143	7975.47
491.346	8096.3
491.55	7879.22
491.754	8000.05
491.958	8084.02
492.161	8194.61
492.365	8235.56
492.569	8286.76
492.772	8321.58
492.976	8436.27
493.18	8426.03
493.383	8432.17
493.587	8495.66
493.79	8518.18
493.994	8352.3
494.197	8725.03
494.401	8540.71
494.605	8641.06
494.808	8704.55
495.012	9024.03
495.215	8929.83
495.419	8991.27
495.622	9030.18
495.825	9079.33
496.029	9171.49
496.232	9431.58
496.436	9376.28
496.639	9521.69
496.843	9628.18
497.046	9667.1
497.249	9783.83
497.453	9843.22
497.656	9609.75
497.859	10054.16
498.063	9878.04
498.266	10455.56
498.469	10105.36
498.673	10285.58
498.876	10529.29
499.079	10721.8
499.282	10701.32
499.485	10994.18
499.689	10875.4
499.892	11078.15
500.095	11049.47
500.298	11336.19
500.501	11293.18
500.705	11731.45
500.908	11622.91
501.111	11661.82
501.314	11837.94
501.517	12069.36
501.72	12468.72
501.923	12163.57
502.126	12438
502.329	12691.94
502.532	12638.7
502.735	12777.96
502.938	13070.82
503.141	13203.94
503.344	13531.61
503.547	13298.14
503.75	13537.76
503.953	13670.87
504.156	13978.07
504.359	13875.67
504.562	14010.84
504.765	14459.34
504.968	14621.13
505.17	14877.13
505.373	14598.6
505.576	15018.44
505.779	15129.03
505.982	15161.8
506.185	15413.7
506.387	15409.6
506.59	15565.25
506.793	16091.57
506.996	16126.39
507.198	16640.43
507.401	16474.54
507.604	16540.08
507.807	17082.79
508.009	17027.49
508.212	17207.72
508.415	17396.13
508.617	17605.02
508.82	17815.96
509.022	17942.94
509.225	18178.45
509.428	18366.87
509.63	18620.81
509.833	18559.38
510.035	18909.58
510.238	18790.8
510.44	19237.25
510.643	19417.47
510.845	19497.35
511.048	19579.26
511.25	19818.88
511.453	20040.06
511.655	20687.22
511.858	20416.88
512.06	20570.48
512.262	20785.52
512.465	21045.61
512.667	21082.47
512.87	21514.59
513.072	21672.29
513.274	21983.58
513.477	22360.41
513.679	22149.46
513.881	22540.63
514.084	22882.64
514.286	22870.35
514.488	23241.03
514.69	23509.32
514.893	23562.56
515.095	23966.01
515.297	24348.98
515.499	24203.58
515.701	24535.35
515.904	24973.61
516.106	24824.11
516.308	25471.27
516.51	25516.33
516.712	25282.86
516.914	25768.23
517.116	26263.83
517.318	26425.62
517.52	26579.22
517.722	26734.87
517.925	27117.84
518.127	27468.04
518.329	27785.47
518.531	27416.84
518.733	28158.2
518.935	28471.54
519.136	28442.87
519.338	29114.61
519.54	28999.92
519.742	29307.12
519.944	29194.48
520.146	29542.63
520.348	29972.71
520.55	30253.28
520.752	30273.76
520.954	31060.18
521.155	30978.26
521.357	31320.27
521.559	31987.91
521.761	32092.35
521.963	32030.91
522.164	32067.78
522.366	32096.45
522.568	32542.91
522.77	32739.51
522.971	33145.01
523.173	33036.47
523.375	33376.43
523.576	33265.84
523.778	33661.1
523.98	34193.57
524.181	34134.18
524.383	34377.89
524.584	34705.56
524.786	34785.43
524.988	34996.37
525.189	35311.76
525.391	35250.32
525.592	35338.38
525.794	35901.57
525.995	36001.93
526.197	35993.73
526.398	36061.32
526.6	36350.08
526.801	36429.95
527.003	36786.3
527.204	36638.84
527.406	36880.5
527.607	37374.06
527.808	37263.47
528.01	36714.62
528.211	37701.74
528.412	38064.23
528.614	38019.17
528.815	37884.01
529.016	38576.22
529.218	37808.23
529.419	38424.67
529.62	38748.25
529.822	38563.93
530.023	38375.52
530.224	38662.24
530.425	38606.94
530.626	38219.88
530.828	38457.44
531.029	39424.08
531.23	39008.34
531.431	38905.94
531.632	38989.91
531.833	39542.86
532.035	39239.76
532.236	39354.45
532.437	39245.91
532.638	39067.73
532.839	39487.57
533.04	39473.23
533.241	39102.55
533.442	39985.22
533.643	39882.83
533.844	39641.17
534.045	39876.68
534.246	39370.83
534.447	39901.26
534.648	40009.8
534.849	39848.01
535.05	39395.41
535.251	40065.1
535.451	39585.87
535.652	39899.21
535.853	39768.14
536.054	39970.89
536.255	39987.27
536.456	39561.29
536.657	40425.54
536.857	39882.83
537.058	39768.14
537.259	39886.92
537.46	40157.25
537.66	39929.93
537.861	40230.98
538.062	39888.97
538.263	40001.61
538.463	39487.57
538.664	39856.2
538.865	39899.21
539.065	40269.89
539.266	39673.93
539.466	40562.75
539.667	39805
539.868	40210.5
540.068	40192.07
540.269	39809.1
540.469	39931.98
540.67	39891.02
540.87	39776.33
541.071	40009.8
541.271	40210.5
541.472	39833.67
541.672	40056.9
541.873	39817.29
542.073	39571.53
542.274	40034.38
542.474	39673.93
542.675	39469.14
542.875	39919.69
543.075	39702.6
543.276	39477.33
543.476	39981.13
543.676	39616.59
543.877	39850.06
544.077	39794.76
544.277	39870.54
544.478	39796.81
544.678	40013.9
544.878	39542.86
545.078	39764.04
545.279	39424.08
545.479	39604.3
545.679	39862.35
545.879	39809.1
546.079	39712.84
546.28	39872.59
546.48	39288.92
546.68	39796.81
546.88	39645.26
547.08	39483.47
547.28	39276.63
547.48	39268.44
547.68	39540.82
547.88	39372.88
548.081	39512.14
548.281	39293.01
548.481	39442.51
548.681	39616.59
548.881	39589.97
549.081	39432.27
549.28	39352.4
549.48	39694.41
549.68	39368.79
549.88	40220.74
550.08	39100.5
550.28	39100.5
550.48	38830.17
550.68	39657.55
550.88	39030.87
551.08	39229.52
551.279	38957.14
551.479	39094.36
551.679	39147.61
551.879	38897.75
552.079	39321.68
552.278	38959.19
552.478	39217.24
552.678	38996.06
552.878	39360.59
553.077	39325.78
553.277	38893.66
553.477	39297.11
553.676	38682.72
553.876	39120.98
554.076	38899.8
554.275	38654.04
554.475	38574.17
554.674	39088.21
554.874	38582.37
555.074	38430.82
555.273	38744.16
555.473	39290.96
555.672	38281.31
555.872	38744.16
556.071	38692.96
556.271	38420.58
556.47	39039.06
556.67	38031.46
556.869	38002.79
557.068	38273.12
557.268	38142.05
557.467	38264.93
557.667	38142.05
557.866	38006.89
558.065	37957.74
558.265	37861.48
558.464	37875.82
558.663	38238.31
558.863	37343.34
559.062	37859.43
559.261	37494.89
559.461	38645.85
559.66	37517.42
559.859	37648.49
560.058	37372.02
560.258	37822.57
560.457	37130.36
560.656	37398.64
560.855	36911.22
561.054	37757.03
561.253	37011.57
561.453	37466.22
561.652	37318.77
561.851	37214.32
562.05	36716.67
562.249	36677.75
562.448	36722.81
562.647	36452.48
562.846	36411.52
563.045	36673.66
563.244	36135.04
563.443	36305.02
563.642	35764.36
563.841	36276.35
564.04	35995.78
564.239	36323.46
564.438	35870.86
564.637	36032.64
564.836	36067.46
565.035	35512.46
565.234	35629.19
565.432	35385.49
565.631	35438.73
565.83	35920.01
566.029	35371.15
566.228	35070.1
566.427	35420.3
566.625	34904.21
566.824	34439.33
567.023	34973.85
567.222	34105.51
567.42	35133.59
567.619	34828.44
567.818	34347.17
568.016	34158.75
568.215	34453.66
568.414	34134.18
568.612	34486.43
568.811	34445.47
569.01	34195.62
569.208	33722.54
569.407	34142.37
569.605	33214.64
569.804	33951.91
570.002	33550.51
570.201	33421.48
570.4	32917.68
570.598	33282.22
570.797	33128.63
570.995	33063.09
571.193	32612.54
571.392	33052.85
571.59	32663.74
571.789	32688.31
571.987	32534.71
572.186	32135.36
572.384	32164.03
572.582	32323.77
572.781	32272.57
572.979	31643.85
573.177	32071.87
573.376	32297.15
573.574	31729.86
573.772	31772.87
573.971	31721.67
574.169	31498.44
574.367	31332.56
574.565	31680.71
574.763	31174.86
574.962	31066.32
575.16	30890.2
575.358	31277.26
575.556	30595.29
575.754	30976.21
575.952	30247.13
576.151	30929.11
576.349	30562.52
576.547	30492.89
576.745	30425.31
576.943	30480.6
577.141	30103.78
577.339	30456.03
577.537	29995.23
577.735	30437.59
577.933	29841.64
578.131	30048.48
578.329	29620.45
578.527	29645.03
578.725	29833.44
578.923	29729
579.121	29653.22
579.319	28950.77
579.516	29290.73
579.714	29329.64
579.912	29372.65
580.11	29122.8
580.308	29204.72
580.506	28850.42
580.704	28831.99
580.901	28782.84
581.099	29087.98
581.297	28475.64
581.495	28373.24
581.692	28803.32
581.89	28315.9
582.088	28588.28
582.285	28532.98
582.483	28293.37
582.681	28004.61
582.878	28299.51
583.076	27644.16
583.274	28100.86
583.471	27371.78
583.669	27580.68
583.866	27721.99
584.064	27687.17
584.262	27269.39
584.459	27724.04
584.657	27160.84
584.854	27676.93
585.052	26730.77
585.249	27162.89
585.447	27318.54
585.644	26777.87
585.841	27095.31
586.039	27296.01
586.236	26855.7
586.434	26478.87
586.631	26620.18
586.828	26530.07
587.026	26528.02
587.223	26333.46
587.42	26497.3
587.618	26773.78
587.815	26200.35
588.012	25774.37
588.21	26052.89
588.407	25917.73
588.604	25870.62
588.801	25930.01
588.999	25649.44
589.196	25661.73
589.393	25606.44
589.59	25551.14
589.787	25286.95
589.984	25366.82
590.182	25329.96
590.379	25530.66
590.576	24998.19
590.773	25102.64
590.97	25123.12
591.167	24936.75
591.364	24760.62
591.561	24875.31
591.758	24772.91
591.955	24549.68
592.152	24410.42
592.349	24525.11
592.546	24254.78
592.743	24537.4
592.94	23998.78
593.137	24117.56
593.334	24230.2
593.531	23800.13
593.727	24015.16
593.924	23718.21
594.121	23583.04
594.318	24146.23
594.515	23468.36
594.712	23740.74
594.908	23605.57
595.105	23331.14
595.302	23320.9
595.499	23331.14
595.696	23189.83
595.892	23023.95
596.089	23376.2
596.286	23308.62
596.482	23007.56
596.679	23038.28
596.876	22853.97
597.072	22925.64
597.269	22718.8
597.466	22714.7
597.662	22544.72
597.859	22632.79
598.055	22659.41
598.252	22112.6
598.448	22425.94
598.645	22333.78
598.841	22176.09
599.038	22047.07
599.234	22057.31
599.431	22085.98
599.627	21911.9
599.824	22012.25
600.02	21858.65
600.217	22096.22
600.413	21854.56
600.609	21563.75
600.806	21793.12
601.002	21584.23
601.198	21399.91
601.395	21551.46
601.591	21530.98
601.787	21197.16
601.984	21297.51
602.18	21408.1
602.376	20799.85
602.572	20967.79
602.769	21094.76
602.965	20494.71
603.161	20973.93
603.357	20695.41
603.553	20808.05
603.75	20695.41
603.946	20613.49
604.142	20664.69
604.338	20640.11
604.534	20490.61
604.73	20291.96
604.926	20117.88
605.122	20425.08
605.318	19978.62
605.514	19913.08
605.71	19706.24
605.906	19966.33
606.102	19763.58
606.298	19917.18
606.494	19624.32
606.69	19788.16
606.886	19689.85
607.082	19466.63
607.278	19675.52
607.474	19485.06
607.67	19458.43
607.866	19241.35
608.062	19632.51
608.257	18950.54
608.453	19208.58
608.649	19020.17
608.845	18803.08
609.041	19167.62
609.236	19089.8
609.432	19220.87
609.628	19104.14
609.824	18672.01
610.019	19057.03
610.215	18979.21
610.411	18827.66
610.606	18897.29
610.802	18561.42
610.998	18641.29
611.193	18962.83
611.389	18579.86
611.584	18813.32
611.78	18514.32
611.976	18301.33
612.171	18586
612.367	18512.27
612.562	18147.73
612.758	18203.03
612.953	18360.72
613.149	18295.19
613.344	18231.7
613.539	18690.45
613.735	18033.05
613.93	18321.81
614.126	17953.18
614.321	18160.02
614.517	18145.69
614.712	18078.1
614.907	17949.08
615.103	17906.07
615.298	17975.7
615.493	18035.1
615.688	17529.25
615.884	17701.28
616.079	17486.24
616.274	17721.76
616.47	17580.45
616.665	17916.31
616.86	17426.85
617.055	17650.08
617.25	17549.73
617.445	17564.06
617.641	16902.57
617.836	17293.73
618.031	17127.85
618.226	17463.71
618.421	17181.09
618.616	17052.07
618.811	16779.69
619.006	17172.9
619.201	16701.87
619.396	17119.65
619.591	16564.65
619.786	16779.69
619.981	16525.74
620.176	16724.4
620.371	16591.28
620.566	16609.71
620.761	16329.14
620.956	16386.48
621.151	16155.06
621.346	16296.37
621.541	16132.53
621.735	16212.4
621.93	15747.51
622.125	15890.87
622.32	15948.22
622.515	15858.1
622.709	15487.42
622.904	15819.19
623.099	15407.55
623.294	15374.78
623.488	15161.8
623.683	15538.62
623.878	14873.03
624.072	15200.71
624.267	14985.67
624.462	14977.48
624.656	14780.87
624.851	14948.81
625.046	14731.72
625.24	14821.83
625.435	14539.21
625.629	14326.22
625.824	14367.18
626.018	14445.01
626.213	14139.86
626.407	14328.27
626.602	14246.35
626.796	14010.84
626.991	14176.72
627.185	13984.21
627.38	13908.44
627.574	13584.86
627.768	13748.7
627.963	13521.37
628.157	13382.11
628.352	13482.46
628.546	13279.71
628.74	13222.37
628.935	13289.95
629.129	13177.31
629.323	13021.67
629.517	13044.2
629.712	12790.25
629.906	12960.23
630.1	12681.71
630.294	12593.64
630.489	12538.35
630.683	12632.55
630.877	12288.5
631.071	12575.21
631.265	12671.47
631.459	12364.27
631.653	12204.53
631.848	12247.54
632.042	12036.59
632.236	11971.06
632.43	11950.58
632.624	11989.49
632.818	11907.57
633.012	11684.34
633.206	11844.09
633.4	11794.93
633.594	11536.89
633.788	11540.99
633.982	11741.69
634.176	11473.4
634.369	11356.67
634.563	11317.76
634.757	11233.79
634.951	11272.7
635.145	10990.08
635.339	11039.23
635.533	11026.95
635.726	11090.43
635.92	10764.81
636.114	10785.29
636.308	10603.02
636.501	10609.16
636.695	10541.58
636.889	10457.61
637.083	10523.15
637.276	10465.8
637.47	10369.55
637.664	10408.46
637.857	10105.36
638.051	10279.44
638.244	10189.33
638.438	9982.48
638.632	10101.26
638.825	9828.88
639.019	9871.89
639.212	9667.1
639.406	9794.07
639.599	9865.75
639.793	9724.44
639.986	9589.27
640.18	9794.07
640.373	9505.31
640.567	9480.73
640.76	9456.15
640.954	9216.54
641.147	9265.69
641.34	9349.66
641.534	9339.42
641.727	9165.34
641.92	9226.78
642.114	8944.16
642.307	9015.84
642.5	9013.79
642.694	8847.91
642.887	8653.35
643.08	8890.91
643.273	8903.2
643.467	8725.03
643.66	8667.69
643.853	8493.61
644.046	8655.4
644.239	8559.14
644.432	8221.23
644.626	8411.69
644.819	8325.68
645.012	8444.46
645.205	8342.06
645.398	8243.76
645.591	8104.49
645.784	8202.8
645.977	8075.82
646.17	8055.34
646.363	7844.4
646.556	7854.64
646.749	7885.36
646.942	7991.86
647.135	7825.97
647.328	7858.74
647.521	7680.57
647.714	7541.3
647.907	7600.69
648.099	7584.31
648.292	7469.62
648.485	7590.45
648.678	7619.13
648.871	7334.46
649.064	7428.67
649.256	7359.03
649.449	7195.2
649.642	7203.39
649.835	7115.33
650.027	7100.99
650.22	7270.97
650.413	7144
650.605	7160.38
650.798	7092.8
650.991	6933.06
651.183	7043.65
651.376	7000.64
651.568	6769.22
651.761	6875.71
651.954	6869.57
652.146	6924.87
652.339	6711.88
652.531	6726.21
652.724	6742.6
652.916	6662.73
653.109	6707.78
653.301	6453.83
653.494	6509.13
653.686	6257.23
653.879	6474.31
654.071	6316.62
654.263	6425.16
654.456	6355.53
654.648	6431.3
654.84	6152.78
655.033	6275.66
655.225	6179.4
655.417	6171.21
655.61	6296.14
655.802	6122.06
655.994	6201.93
656.186	6095.44
656.379	5956.18
656.571	5990.99
656.763	6019.66
656.955	5921.36
657.148	6005.33
657.34	5904.98
657.532	5775.95
657.724	5923.41
657.916	5833.3
658.108	5638.74
658.3	5755.47
658.492	5657.17
658.684	5685.84
658.876	5524.05
659.068	5505.62
659.26	5448.28
659.452	5714.52
659.644	5493.33
659.836	5485.14
660.028	5352.03
660.22	5208.67
660.412	5470.81
660.604	5268.06
660.796	5440.09
660.988	5386.84
661.18	5270.11
661.372	5268.06
661.563	5245.53
661.755	5358.17
661.947	5175.9
662.139	5167.71
662.331	5081.69
662.522	5104.22
662.714	5079.65
662.906	5034.59
663.097	5028.45
663.289	5044.83
663.481	4964.96
663.673	4997.73
663.864	4977.25
664.056	4715.11
664.247	4805.22
664.439	4911.71
664.631	4797.03
664.822	4874.85
665.014	4876.9
665.205	4831.84
665.397	4786.79
665.588	4690.53
665.78	4706.91
665.971	4635.24
666.163	4631.14
666.354	4575.84
666.546	4590.18
666.737	4663.91
666.929	4577.89
667.12	4620.9
667.311	4483.69
667.503	4663.91
667.694	4688.48
667.885	4440.68
668.077	4608.61
668.268	4426.34
668.459	4442.73
668.651	4328.04
668.842	4438.63
669.033	4270.7
669.224	4293.23
669.416	4317.8
669.607	4272.75
669.798	4369
669.989	4459.11
670.18	4172.4
670.371	4123.24
670.563	4342.38
670.754	4358.76
670.945	4174.44
671.136	4260.46
671.327	4250.22
671.518	4147.82
671.709	4110.96
671.9	4278.89
672.091	4272.75
672.282	4276.84
672.473	4119.15
672.664	4164.2
672.855	4086.38
673.046	4070
673.237	4031.09
673.428	4162.16
673.619	4192.87
673.809	4188.78
674	4194.92
674.191	4145.77
674.382	3943.02
674.573	4045.42
674.764	3934.83
674.954	4020.85
675.145	4072.04
675.336	3971.69
675.527	3975.79
675.717	3926.64
675.908	3891.82
676.099	3996.27
676.289	3996.27
676.48	4145.77
676.671	3959.41
676.861	3889.78
677.052	3914.35
677.243	4010.61
677.433	3986.03
677.624	4045.42
677.814	3992.17
678.005	3869.3
678.195	3938.93
678.386	4104.81
678.576	3998.32
678.767	3957.36
678.957	3865.2
679.148	4063.85
679.338	3873.39
679.529	3811.95
679.719	3881.58
679.909	4008.56
680.1	3897.97
680.29	3859.06
680.481	3928.69
680.671	3889.78
680.861	4000.37
681.052	3957.36
681.242	3922.54
681.432	3760.75
681.622	3934.83
681.813	3951.21
682.003	3836.53
682.193	3885.68
682.383	3869.3
682.573	3840.62
682.764	4039.28
682.954	3846.77
683.144	3801.71
683.334	3953.26
683.524	3971.69
683.714	3918.45
683.904	3846.77
684.094	4031.09
684.284	3928.69
684.474	3881.58
684.664	3822.19
684.854	3902.06
685.044	3895.92
685.234	3832.43
685.424	3797.62
685.614	3908.21
685.804	3947.12
685.994	3818.1
686.184	3830.38
686.374	3828.34
686.564	3701.36
686.753	3783.28
686.943	3740.27
687.133	3736.18
687.323	3721.84
687.513	3660.4
687.702	3744.37
687.892	3619.44
688.082	3676.79
688.272	3832.43
688.461	3684.98
688.651	3627.64
688.841	3517.05
689.03	3512.95
689.22	3676.79
689.41	3656.31
689.599	3625.59
689.789	3654.26
689.979	3582.58
690.168	3474.04
690.358	3476.09
690.547	3476.09
690.737	3426.93
690.926	3467.89
691.116	3347.06
691.305	3521.14
691.495	3338.87
691.684	3443.32
691.874	3467.89
692.063	3492.47
692.252	3271.29
692.442	3347.06
692.631	3330.68
692.82	3428.98
693.01	3246.71
693.199	3324.54
693.388	3250.81
693.578	3132.03
693.767	3353.21
693.956	3291.77
694.146	3285.62
694.335	3242.62
694.524	3250.81
694.713	3113.6
694.902	3150.46
695.092	3310.2
695.281	3193.47
695.47	3146.36
695.659	3318.39
695.848	3250.81
696.037	3297.91
696.226	3279.48
696.415	3218.04
696.604	3201.66
696.793	3140.22
696.982	3091.07
697.171	3299.96
697.36	3304.06
697.549	3170.94
697.738	3078.78
697.927	3013.24
698.116	3242.62
698.305	3115.64
698.494	3115.64
698.683	2972.29
698.872	3156.6
699.061	3177.08
699.25	3152.51
699.438	3150.46
699.627	3111.55
699.816	3138.17
700.005	3080.83
700.193	3232.38
700.382	3189.37
700.571	3160.7
700.76	3166.84
700.948	3187.32
701.137	3177.08
701.326	3207.8
701.514	3072.64
701.703	3117.69
701.892	3123.84
702.08	3162.75
702.269	3172.99
702.457	3101.31
702.646	3052.16
702.834	3160.7
703.023	3072.64
703.212	3197.56
703.4	3066.49
703.589	3011.2
703.777	3203.71
703.965	3136.12
704.154	3050.11
704.342	3091.07
704.531	3154.55
704.719	3078.78
704.907	3203.71
705.096	3205.75
705.284	3052.16
705.472	3105.4
705.661	3170.94
705.849	3213.95
706.037	3267.19
706.226	3101.31
706.414	3091.07
706.602	3023.48
706.79	3076.73
706.979	3099.26
707.167	3156.6
707.355	3046.01
707.543	3181.18
707.731	3203.71
707.919	3172.99
708.107	3136.12
708.296	3129.98
708.484	3172.99
708.672	3222.14
708.86	3136.12
709.048	3156.6
709.236	3242.62
709.424	3224.19
709.612	3224.19
709.8	3148.41
709.988	3246.71
710.176	3177.08
710.364	3285.62
710.551	3089.02
710.739	3072.64
710.927	3179.13
711.115	3244.67
711.303	3277.43
711.491	3089.02
711.679	3146.36
711.866	3172.99
712.054	3336.82
712.242	3172.99
712.43	3242.62
712.617	3170.94
712.805	3193.47
712.993	3199.61
713.181	3179.13
713.368	3175.03
713.556	3263.1
713.744	3172.99
713.931	3334.78
714.119	3263.1
714.306	3285.62
714.494	3345.02
714.682	3203.71
714.869	3316.34
715.057	3361.4
715.244	3275.38
715.432	3353.21
715.619	3209.85
715.807	3228.28
715.994	3293.82
716.182	3289.72
716.369	3224.19
716.556	3336.82
716.744	3172.99
716.931	3232.38
717.119	3283.58
717.306	3304.06
717.493	3306.1
717.681	3252.86
717.868	3234.43
718.055	3142.27
718.242	3207.8
718.43	3299.96
718.617	3228.28
718.804	3228.28
718.991	3291.77
719.179	3201.66
719.366	3242.62
719.553	3240.57
719.74	3207.8
719.927	3328.63
720.114	3271.29
720.301	3283.58
720.488	3183.23
720.676	3181.18
720.863	3383.93
721.05	3195.51
721.237	3310.2
721.424	3320.44
721.611	3189.37
721.798	3234.43
721.985	3222.14
722.172	3267.19
722.358	3310.2
722.545	3277.43
722.732	3201.66
722.919	3291.77
723.106	3302.01
723.293	3191.42
723.48	3177.08
723.667	3306.1
723.853	3328.63
724.04	3371.64
724.227	3205.75
724.414	3183.23
724.6	3197.56
724.787	3275.38
724.974	3238.52
725.161	3332.73
725.347	3250.81
725.534	3226.23
725.72	3312.25
725.907	3332.73
726.094	3181.18
726.28	3154.55
726.467	3213.95
726.653	3332.73
726.84	3246.71
727.027	3246.71
727.213	3279.48
727.4	3132.03
727.586	3326.58
727.773	3164.79
727.959	3226.23
728.145	3203.71
728.332	3269.24
728.518	3244.67
728.705	3361.4
728.891	3279.48
729.077	3248.76
729.264	3244.67
729.45	3310.2
729.636	3334.78
729.823	3220.09
730.009	3304.06
730.195	3267.19
730.382	3218.04
730.568	3263.1
730.754	3138.17
730.94	3218.04
731.126	3193.47
731.313	3246.71
731.499	3295.86
731.685	3236.47
731.871	3107.45
732.057	3123.84
732.243	3086.97
732.429	3134.07
732.615	3119.74
732.801	3189.37
732.987	3271.29
733.173	3172.99
733.359	2984.57
733.545	3095.16
733.731	3082.88
733.917	3039.87
734.103	3138.17
734.289	3052.16
734.475	2992.77
734.661	3254.91
734.847	3115.64
735.033	3107.45
735.219	3156.6
735.404	3099.26
735.59	3134.07
735.776	3099.26
735.962	3164.79
736.148	3203.71
736.333	3136.12
736.519	3091.07
736.705	3222.14
736.89	2986.62
737.076	3183.23
737.262	3066.49
737.447	3091.07
737.633	2994.81
737.819	3140.22
738.004	2951.81
738.19	3029.63
738.375	3152.51
738.561	3052.16
738.747	3082.88
738.932	2972.29
739.118	3138.17
739.303	2966.14
739.489	2923.13
739.674	2857.6
739.859	2882.17
740.045	2904.7
740.23	2960
740.416	2851.46
740.601	3070.59
740.786	2853.5
740.972	2962.05
741.157	2923.13
741.342	2783.87
741.528	2964.09
741.713	2900.61
741.898	2890.37
742.084	2923.13
742.269	2794.11
742.454	2785.92
742.639	2886.27
742.824	2800.26
743.01	2896.51
743.195	2792.06
743.38	2792.06
743.565	2744.96
743.75	2654.85
743.935	2845.31
744.12	2798.21
744.305	2642.56
744.49	2704
744.675	2630.27
744.86	2699.91
745.045	2556.55
745.23	2673.28
745.415	2515.59
745.6	2759.3
745.785	2529.92
745.97	2640.51
746.155	2626.18
746.34	2519.68
746.525	2456.2
746.71	2712.19
746.895	2480.77
747.079	2527.88
747.264	2591.36
747.449	2452.1
747.634	2478.72
747.819	2368.13
748.003	2501.25
748.188	2421.38
748.373	2374.28
748.557	2462.34
748.742	2527.88
748.927	2359.94
749.111	2359.94
749.296	2343.56
749.481	2161.29
749.665	2189.96
749.85	2087.56
750.034	2300.55
750.219	2177.67
750.404	2228.87
750.588	2185.87
750.773	2202.25
750.957	2181.77
751.141	2138.76
751.326	2069.13
751.51	2052.75
751.695	2161.29
751.879	2067.08
752.064	2128.52
752.248	1970.83
752.432	2032.27
752.617	1974.92
752.801	1968.78
752.985	1880.72
753.17	1862.29
753.354	1991.31
753.538	1962.64
753.722	1970.83
753.907	1936.01
754.091	1923.73
754.275	1866.38
754.459	1854.09
754.643	1759.89
754.828	1888.91
755.012	1811.09
755.196	1874.57
755.38	1796.75
755.564	1737.36
755.748	1751.7
755.932	1680.02
756.116	1778.32
756.3	1702.54
756.484	1798.8
756.668	1743.5
756.852	1714.83
757.036	1618.58
757.22	1608.34
757.404	1645.2
757.588	1698.45
757.772	1608.34
757.956	1624.72
758.14	1665.68
758.323	1682.07
758.507	1577.62
758.691	1548.95
758.875	1665.68
759.059	1542.8
759.242	1501.84
759.426	1430.16
759.61	1565.33
759.794	1516.18
759.977	1563.28
760.161	1540.76
760.345	1532.56
760.528	1530.52
760.712	1516.18
760.895	1485.46
761.079	1532.56
761.263	1428.12
761.446	1442.45
761.63	1489.56
761.813	1311.38
761.997	1460.88
762.18	1305.24
762.364	1415.83
762.547	1309.33
762.731	1458.84
762.914	1395.35
763.098	1370.77
763.281	1391.25
763.464	1374.87
763.648	1297.05
763.831	1274.52
764.015	1358.49
764.198	1284.76
764.381	1346.2
764.564	1395.35
764.748	1319.57
764.931	1297.05
765.114	1333.91
765.297	1282.71
765.481	1211.03
765.664	1206.94
765.847	1258.14
766.03	1276.57
766.213	1321.62
766.397	1301.14
766.58	1239.7
766.763	1247.9
766.946	1272.47
767.129	1288.86
767.312	1165.98
767.495	1280.66
767.678	1163.93
767.861	1202.84
768.044	1206.94
768.227	1108.63
768.41	1127.07
768.593	1182.36
768.776	1041.05
768.959	1149.59
769.142	1178.26
769.324	1092.25
769.507	1137.31
769.69	1108.63
769.873	1153.69
770.056	1159.83
770.239	1188.5
770.421	1049.24
770.604	1096.35
770.787	1096.35
770.97	1084.06
771.152	1043.1
771.335	1059.48
771.518	1051.29
771.7	1014.43
771.883	1094.3
772.066	1118.87
772.248	926.36
772.431	1041.05
772.613	1051.29
772.796	989.85
772.978	936.6
773.161	1082.01
773.343	891.55
773.526	981.66
773.708	948.89
773.891	985.76
774.073	901.79
774.256	942.75
774.438	983.71
774.621	856.73
774.803	914.08
774.985	924.32
775.168	985.76
775.35	961.18
775.532	959.13
775.715	920.22
775.897	889.5
776.079	950.94
776.261	842.4
776.444	883.36
776.626	754.34
776.808	856.73
776.99	903.84
777.173	840.35
777.355	760.48
777.537	869.02
777.719	848.54
777.901	787.1
778.083	744.1
778.265	817.82
778.447	776.86
778.629	787.1
778.811	740
778.993	821.92
779.175	828.06
779.357	703.14
779.539	725.66
779.721	762.53
779.903	735.9
780.085	791.2
780.267	785.05
780.449	723.62
780.631	774.81
780.812	703.14
780.994	658.08
781.176	645.79
781.358	756.38
781.54	637.6
781.721	674.46
781.903	592.55
782.085	701.09
782.267	705.18
782.448	604.83
782.63	608.93
782.812	623.27
782.993	563.87
783.175	684.7
783.357	567.97
783.538	551.59
783.72	596.64
783.901	633.51
784.083	576.16
784.264	617.12
784.446	617.12
784.627	543.39
784.809	567.97
784.99	631.46
785.172	621.22
785.353	588.45
785.535	582.31
785.716	524.96
785.897	479.91
786.079	486.05
786.26	596.64
786.441	563.87
786.623	449.19
786.804	490.15
786.985	494.24
787.167	514.72
787.348	486.05
787.529	529.06
787.71	514.72
787.891	527.01
788.073	549.54
788.254	541.35
788.435	469.67
788.616	527.01
788.797	490.15
788.978	465.57
789.159	441
789.34	449.19
789.522	467.62
789.703	400.04
789.884	449.19
790.065	447.14
790.246	543.39
790.427	391.84
790.607	428.71
790.788	434.85
790.969	293.54
791.15	533.15
791.331	369.32
791.512	514.72
791.693	420.52
791.874	408.23
792.054	441
792.235	500.39
792.416	379.56
792.597	418.47
792.778	479.91
792.958	397.99
793.139	400.04
793.32	471.72
793.5	322.21
793.681	436.9
793.862	424.61
794.042	428.71
794.223	328.36
794.404	314.02
794.584	441
794.765	307.88
794.945	416.42
795.126	371.37
795.306	363.17
795.487	363.17
795.667	297.64
795.848	424.61
796.028	381.6
796.209	352.93
796.389	297.64
796.57	326.31
796.75	297.64
796.93	363.17
797.111	377.51
797.291	322.21
797.471	350.89
797.652	363.17
797.832	291.49
798.012	357.03
798.192	289.45
798.373	309.93
798.553	268.97
798.733	228.01
798.913	305.83
799.093	289.45
799.274	295.59
799.454	369.32
799.634	248.49
799.814	340.65
799.994	342.69
800.174	363.17
800.354	359.08
800.534	299.69
800.714	316.07
800.894	350.89
801.074	314.02
801.254	307.88
801.434	383.65
801.614	354.98
801.794	283.3
801.974	830.11
802.154	264.87
802.334	260.77
802.514	283.3
802.693	297.64
802.873	316.07
803.053	301.73
803.233	244.39
803.413	293.54
803.592	357.03
803.772	252.58
803.952	268.97
804.131	248.49
804.311	301.73
804.491	248.49
804.67	256.68
804.85	234.15
805.03	301.73
805.209	334.5
805.389	246.44
805.568	236.2
805.748	219.82
805.928	305.83
806.107	252.58
806.287	205.48
806.466	189.1
806.646	203.43
806.825	262.82
807.004	195.24
807.184	256.68
807.363	266.92
807.543	268.97
807.722	176.81
807.901	279.21
808.081	236.2
808.26	215.72
808.439	127.66
808.619	195.24
808.798	152.23
808.977	187.05
809.156	240.3
809.336	211.62
809.515	264.87
809.694	150.18
809.873	250.53
810.052	197.29
810.231	242.34
810.411	297.64
810.59	289.45
810.769	84.65
810.948	299.69
811.127	199.34
811.306	166.57
811.485	150.18
811.664	223.91
811.843	141.99
812.022	191.14
812.201	193.19
812.38	148.14
812.559	187.05
812.737	213.67
812.916	156.33
813.095	156.33
813.274	178.86
813.453	154.28
813.632	223.91
813.811	193.19
813.989	150.18
814.168	154.28
814.347	156.33
814.526	148.14
814.704	205.48
814.883	170.66
815.062	232.1
815.24	109.23
815.419	189.1
815.598	125.61
815.776	189.1
815.955	197.29
816.133	160.42
816.312	160.42
816.49	125.61
816.669	166.57
816.847	166.57
817.026	148.14
817.204	232.1
817.383	176.81
817.561	141.99
817.74	139.94
817.918	164.52
818.097	51.88
818.275	76.46
818.453	207.53
818.632	185
818.81	158.38
818.988	133.8
819.167	135.85
819.345	178.86
819.523	178.86
819.701	129.7
819.879	107.18
820.058	199.34
820.236	125.61
820.414	90.79
820.592	228.01
820.77	207.53
820.948	125.61
821.127	225.96
821.305	164.52
821.483	139.94
821.661	150.18
821.839	121.51
822.017	84.65
822.195	193.19
822.373	123.56
822.551	125.61
822.729	199.34
822.907	82.6
823.085	162.47
823.262	96.94
823.44	84.65
823.618	125.61
823.796	119.46
823.974	113.32
824.152	103.08
824.329	137.9
824.507	176.81
824.685	117.42
824.863	174.76
825.04	105.13
825.218	178.86
825.396	158.38
825.574	101.03
825.751	127.66
825.929	96.94
826.107	76.46
826.284	133.8
826.462	144.04
826.639	133.8
826.817	101.03
826.994	146.09
827.172	35.5
827.349	125.61
827.527	90.79
827.704	115.37
827.882	174.76
828.059	139.94
828.237	146.09
828.414	88.75
828.591	55.98
828.769	66.22
828.946	37.55
829.124	109.23
829.301	146.09
829.478	121.51
829.655	152.23
829.833	82.6
830.01	58.03
830.187	129.7
830.364	82.6
830.542	84.65
830.719	51.88
830.896	133.8
831.073	64.17
831.25	92.84
831.427	55.98
831.604	70.31
831.782	78.51
831.959	62.12
832.136	121.51
832.313	78.51
832.49	55.98
832.667	135.85
832.844	109.23
833.021	144.04
833.198	66.22
833.374	62.12
833.551	64.17
833.728	141.99
833.905	135.85
834.082	31.4
834.259	162.47
834.436	96.94
834.612	55.98
834.789	84.65
834.966	101.03
835.143	88.75
835.319	33.45
835.496	84.65
835.673	98.99
835.85	60.07
836.026	-3.41
836.203	23.21
836.38	88.75
836.556	31.4
836.733	49.83
836.909	111.27
837.086	103.08
837.262	76.46
837.439	35.5
837.616	103.08
837.792	68.27
837.968	55.98
838.145	-5.46
838.321	88.75
838.498	45.74
838.674	35.5
838.851	76.46
839.027	31.4
839.203	74.41
839.38	72.36
839.556	101.03
839.732	113.32
839.909	43.69
840.085	121.51
840.261	43.69
840.437	58.03
840.614	94.89
840.79	86.7
840.966	60.07
841.142	62.12
841.318	51.88
841.494	84.65
841.671	68.27
841.847	141.99
842.023	47.79
842.199	70.31
842.375	21.16
842.551	141.99
842.727	23.21
842.903	92.84
843.079	45.74
843.255	76.46
843.431	25.26
843.607	105.13
843.783	-1.37
843.959	60.07
844.134	-3.41
844.31	51.88
844.486	80.55
844.662	64.17
844.838	39.59
845.013	80.55
845.189	-19.8
845.365	51.88
845.541	10.92
845.716	43.69
845.892	25.26
846.068	64.17
846.244	19.11
846.419	74.41
846.595	55.98
846.77	55.98
846.946	84.65
847.122	51.88
847.297	-3.41
847.473	111.27
847.648	-1.37
847.824	27.31
847.999	2.73
848.175	37.55
848.35	55.98
848.526	72.36
848.701	74.41
848.876	23.21
849.052	98.99
849.227	0.68
849.403	43.69
849.578	80.55
849.753	41.64
849.929	39.59
850.104	-17.75
850.279	76.46
850.454	62.12
850.63	37.55
850.805	72.36
850.98	55.98
851.155	-62.8
851.33	139.94
851.505	15.02
851.681	72.36
851.856	-44.37
852.031	123.56
852.206	29.35
852.381	33.45
852.556	47.79
852.731	25.26
852.906	55.98
853.081	17.07
853.256	62.12
853.431	-58.71
853.606	8.87
853.781	31.4
853.956	-21.84
854.131	-19.8
854.305	70.31
854.48	-19.8
854.655	-68.95
854.83	12.97
855.005	33.45
855.18	23.21
855.354	-21.84
855.529	133.8
855.704	58.03
855.879	51.88
856.053	64.17
856.228	23.21
856.403	-19.8
856.577	72.36
856.752	45.74
856.926	29.35
857.101	8.87
857.276	53.93
857.45	29.35
857.625	19.11
857.799	25.26
857.974	101.03
858.148	-9.56
858.323	96.94
858.497	90.79
858.672	80.55
858.846	-27.99
859.02	92.84
859.195	2.73
859.369	6.83
859.543	21.16
859.718	41.64
859.892	49.83
860.066	15.02
860.241	-30.04
860.415	-13.65
860.589	8.87
860.763	2.73
860.938	19.11
861.112	47.79
861.286	49.83
861.46	8.87
861.634	19.11
861.808	72.36
861.982	2.73
862.157	-11.61
862.331	127.66
862.505	21.16
862.679	-40.28
862.853	21.16
863.027	4.78
863.201	96.94
863.375	35.5
863.549	-58.71
863.722	27.31
863.896	19.11
864.07	51.88
864.244	-1.37
864.418	-7.51
864.592	23.21
864.766	-11.61
864.939	-32.08
865.113	4.78
865.287	37.55
865.461	45.74
865.634	-15.7
865.808	-19.8
865.982	23.21
866.156	-30.04
866.329	-54.61
866.503	31.4
866.676	10.92
866.85	80.55
867.024	51.88
867.197	15.02
867.371	19.11
867.544	-17.75
867.718	25.26
867.891	41.64
868.065	6.83
868.238	-54.61
868.412	37.55
868.585	12.97
868.759	2.73
868.932	19.11
869.105	-5.46
869.279	-17.75
869.452	-52.56
869.625	10.92
869.799	10.92
869.972	-56.66
870.145	10.92
870.319	35.5
870.492	-32.08
870.665	-48.47
870.838	-38.23
871.011	-46.42
871.185	-54.61
871.358	-21.84
871.531	17.07
871.704	-27.99
871.877	-11.61
872.05	-21.84
872.223	49.83
872.396	17.07
872.569	53.93
872.742	-7.51
872.915	17.07
873.088	10.92
873.261	-32.08
873.434	31.4
873.607	49.83
873.78	-25.94
873.953	-40.28
874.126	-5.46
874.299	45.74
874.471	-23.89
874.644	-42.32
874.817	-32.08
874.99	74.41
875.163	86.7
875.335	19.11
875.508	-5.46
875.681	-13.65
875.853	-7.51
876.026	-5.46
876.199	23.21
876.371	10.92
876.544	-17.75
876.717	-5.46
876.889	-32.08
877.062	49.83
877.234	-42.32
877.407	27.31
877.579	2.73
877.752	43.69
877.924	43.69
878.097	29.35
878.269	-15.7
878.442	41.64
878.614	47.79
878.786	43.69
878.959	-7.51
879.131	10.92
879.303	-9.56
879.476	58.03
879.648	-17.75
879.82	15.02
879.993	51.88
880.165	62.12
880.337	0.68
880.509	29.35
880.681	25.26
880.854	8.87
881.026	-23.89
881.198	31.4
881.37	2.73
881.542	21.16
881.714	80.55
881.886	23.21
882.058	-3.41
882.23	-64.85
882.402	35.5
882.574	27.31
882.746	62.12
882.918	-13.65
883.09	31.4
883.262	53.93
883.434	4.78
883.606	-27.99
883.778	-44.37
883.95	47.79
884.122	-32.08
884.293	33.45
884.465	17.07
884.637	-15.7
884.809	-13.65
884.98	-3.41
885.152	55.98
885.324	10.92
885.496	-23.89
885.667	-38.23
885.839	47.79
886.011	35.5
886.182	-25.94
886.354	8.87
886.525	17.07
886.697	-34.13
886.869	-30.04
887.04	-66.9
887.212	-23.89
887.383	76.46
887.555	37.55
887.726	35.5
887.897	35.5
888.069	15.02
888.24	6.83
888.412	-5.46
888.583	0.68
888.754	35.5
888.926	0.68
889.097	17.07
889.268	-46.42
889.44	74.41
889.611	0.68
889.782	33.45
889.953	-40.28
890.125	51.88
890.296	-79.19
890.467	-7.51
890.638	-21.84
890.809	8.87
890.98	4.78
891.151	-27.99
891.323	-107.86
891.494	31.4
891.665	-7.51
891.836	45.74
892.007	-111.96
892.178	-1.37
892.349	0.68
892.52	0.68
892.691	-17.75
892.862	10.92
893.032	10.92
893.203	-87.38
893.374	-1.37
893.545	31.4
893.716	-13.65
893.887	23.21
894.057	-38.23
894.228	-27.99
894.399	10.92
894.57	0.68
894.74	-3.41
894.911	72.36
895.082	-11.61
895.253	-17.75
895.423	-25.94
895.594	27.31
895.764	-38.23
895.935	-34.13
896.106	15.02
896.276	-36.18
896.447	23.21
896.617	-30.04
896.788	-77.14
896.958	31.4
897.129	-21.84
897.299	-81.24
897.47	45.74
897.64	0.68
897.81	-7.51
897.981	-66.9
898.151	-19.8
898.322	21.16
898.492	-44.37
898.662	-15.7
898.832	-19.8
899.003	-19.8
899.173	-9.56
899.343	33.45
899.513	-15.7
