Data from USB4F104151__83__10-24-17-051.txt Node

Date: Wed Mar 12 10:24:17 EDT 2025
User: louis
Spectrometer: USB4F10415
Trigger mode: 4
Integration Time (sec): 3.000000E-2
Scans to average: 1
Electric dark correction enabled: true
Nonlinearity correction enabled: false
Boxcar width: 0
XAxis mode: Wavelengths
Number of Pixels in Spectrum: 3648
>>>>>Begin Spectral Data<<<<<
178.204	-109.4
178.424	-109.4
178.644	-109.4
178.864	-97.11
179.084	-95.06
179.304	23.72
179.524	17.58
179.744	48.3
179.964	-39.76
180.184	-4.95
180.404	25.77
180.624	-9.05
180.844	-37.72
181.064	5.29
181.283	-37.72
181.503	42.15
181.723	-33.62
181.943	11.43
182.163	56.49
182.383	-45.91
182.602	117.93
182.822	81.07
183.042	91.31
183.262	7.34
183.482	13.48
183.701	97.45
183.921	81.07
184.141	38.06
184.361	64.68
184.58	25.77
184.8	42.15
185.02	60.59
185.239	109.74
185.459	60.59
185.679	21.67
185.898	-27.48
186.118	117.93
186.338	15.53
186.557	97.45
186.777	11.43
186.997	50.35
187.216	56.49
187.436	83.11
187.655	38.06
187.875	40.11
188.095	-29.52
188.314	76.97
188.534	95.4
188.753	44.2
188.973	36.01
189.192	19.63
189.412	79.02
189.631	76.97
189.851	-25.43
190.07	89.26
190.29	64.68
190.509	72.87
190.729	79.02
190.948	66.73
191.168	142.5
191.387	83.11
191.607	36.01
191.826	60.59
192.045	-29.52
192.265	60.59
192.484	50.35
192.704	70.83
192.923	85.16
193.142	60.59
193.362	72.87
193.581	103.59
193.8	31.91
194.02	93.35
194.239	19.63
194.458	46.25
194.678	91.31
194.897	-7
195.116	64.68
195.335	107.69
195.555	27.82
195.774	93.35
195.993	48.3
196.212	44.2
196.432	42.15
196.651	29.87
196.87	-25.43
197.089	140.46
197.308	54.44
197.528	48.3
197.747	5.29
197.966	33.96
198.185	85.16
198.404	-19.29
198.623	36.01
198.842	68.78
199.062	40.11
199.281	40.11
199.5	56.49
199.719	19.63
199.938	68.78
200.157	64.68
200.376	85.16
200.595	76.97
200.814	103.59
201.033	11.43
201.252	13.48
201.471	27.82
201.69	140.46
201.909	29.87
202.128	50.35
202.347	76.97
202.566	27.82
202.785	93.35
203.004	31.91
203.223	58.54
203.442	-4.95
203.661	3.24
203.879	40.11
204.098	60.59
204.317	23.72
204.536	122.02
204.755	72.87
204.974	58.54
205.193	-33.62
205.411	115.88
205.63	81.07
205.849	38.06
206.068	81.07
206.287	93.35
206.505	134.31
206.724	81.07
206.943	72.87
207.162	87.21
207.381	31.91
207.599	99.5
207.818	15.53
208.037	40.11
208.255	48.3
208.474	13.48
208.693	91.31
208.911	48.3
209.13	76.97
209.349	17.58
209.567	33.96
209.786	48.3
210.005	74.92
210.223	91.31
210.442	40.11
210.661	113.83
210.879	25.77
211.098	-23.38
211.316	97.45
211.535	9.39
211.753	17.58
211.972	52.39
212.191	66.73
212.409	146.6
212.628	105.64
212.846	38.06
213.065	13.48
213.283	105.64
213.502	33.96
213.72	50.35
213.938	-23.38
214.157	29.87
214.375	-0.85
214.594	60.59
214.812	113.83
215.031	87.21
215.249	117.93
215.467	56.49
215.686	29.87
215.904	97.45
216.122	33.96
216.341	89.26
216.559	-4.95
216.778	87.21
216.996	83.11
217.214	68.78
217.432	-50
217.651	40.11
217.869	44.2
218.087	40.11
218.306	3.24
218.524	54.44
218.742	-23.38
218.96	111.78
219.179	66.73
219.397	48.3
219.615	97.45
219.833	128.17
220.051	42.15
220.27	44.2
220.488	109.74
220.706	52.39
220.924	15.53
221.142	62.63
221.36	85.16
221.578	93.35
221.796	56.49
222.015	97.45
222.233	48.3
222.451	27.82
222.669	21.67
222.887	54.44
223.105	36.01
223.323	132.26
223.541	103.59
223.759	27.82
223.977	-58.2
224.195	54.44
224.413	64.68
224.631	105.64
224.849	58.54
225.067	87.21
225.285	15.53
225.503	-27.48
225.721	31.91
225.939	23.72
226.157	-52.05
226.375	83.11
226.592	48.3
226.81	17.58
227.028	99.5
227.246	42.15
227.464	62.63
227.682	66.73
227.9	115.88
228.117	62.63
228.335	99.5
228.553	109.74
228.771	60.59
228.989	79.02
229.206	46.25
229.424	-0.85
229.642	50.35
229.86	23.72
230.077	21.67
230.295	162.98
230.513	72.87
230.731	79.02
230.948	154.79
231.166	64.68
231.384	48.3
231.601	52.39
231.819	58.54
232.037	31.91
232.254	44.2
232.472	7.34
232.689	46.25
232.907	72.87
233.125	50.35
233.342	9.39
233.56	-11.09
233.777	3.24
233.995	56.49
234.213	115.88
234.43	81.07
234.648	21.67
234.865	107.69
235.083	15.53
235.3	9.39
235.518	58.54
235.735	113.83
235.953	119.98
236.17	44.2
236.388	-15.19
236.605	52.39
236.822	85.16
237.04	-4.95
237.257	52.39
237.475	97.45
237.692	46.25
237.909	44.2
238.127	40.11
238.344	44.2
238.562	115.88
238.779	115.88
238.996	31.91
239.214	42.15
239.431	107.69
239.648	9.39
239.865	74.92
240.083	1.19
240.3	31.91
240.517	29.87
240.735	15.53
240.952	31.91
241.169	134.31
241.386	66.73
241.603	60.59
241.821	36.01
242.038	74.92
242.255	31.91
242.472	89.26
242.689	122.02
242.907	25.77
243.124	74.92
243.341	58.54
243.558	-21.33
243.775	42.15
243.992	11.43
244.209	23.72
244.426	115.88
244.643	72.87
244.86	85.16
245.078	23.72
245.295	76.97
245.512	66.73
245.729	60.59
245.946	54.44
246.163	74.92
246.38	42.15
246.597	76.97
246.814	-21.33
247.031	68.78
247.248	44.2
247.464	66.73
247.681	50.35
247.898	48.3
248.115	66.73
248.332	25.77
248.549	72.87
248.766	60.59
248.983	62.63
249.2	85.16
249.417	40.11
249.633	38.06
249.85	-31.57
250.067	150.7
250.284	83.11
250.501	40.11
250.717	81.07
250.934	60.59
251.151	115.88
251.368	97.45
251.585	99.5
251.801	58.54
252.018	21.67
252.235	38.06
252.451	58.54
252.668	81.07
252.885	56.49
253.102	31.91
253.318	52.39
253.535	-13.14
253.752	44.2
253.968	19.63
254.185	48.3
254.401	-54.1
254.618	89.26
254.835	66.73
255.051	146.6
255.268	126.12
255.484	19.63
255.701	33.96
255.917	74.92
256.134	-11.09
256.351	89.26
256.567	56.49
256.784	91.31
257	7.34
257.217	31.91
257.433	27.82
257.65	54.44
257.866	62.63
258.082	130.22
258.299	-7
258.515	31.91
258.732	81.07
258.948	46.25
259.165	60.59
259.381	-7
259.597	83.11
259.814	54.44
260.03	19.63
260.246	50.35
260.463	42.15
260.679	64.68
260.895	60.59
261.112	-9.05
261.328	11.43
261.544	48.3
261.761	105.64
261.977	50.35
262.193	76.97
262.409	142.5
262.626	60.59
262.842	44.2
263.058	13.48
263.274	85.16
263.49	40.11
263.707	68.78
263.923	48.3
264.139	23.72
264.355	58.54
264.571	144.55
264.787	54.44
265.004	76.97
265.22	11.43
265.436	19.63
265.652	31.91
265.868	70.83
266.084	48.3
266.3	11.43
266.516	3.24
266.732	93.35
266.948	-7
267.164	150.7
267.38	72.87
267.596	87.21
267.812	70.83
268.028	95.4
268.244	56.49
268.46	76.97
268.676	124.07
268.892	89.26
269.108	3.24
269.324	1.19
269.54	1.19
269.756	109.74
269.972	-19.29
270.188	79.02
270.403	76.97
270.619	44.2
270.835	64.68
271.051	95.4
271.267	72.87
271.483	107.69
271.698	38.06
271.914	27.82
272.13	74.92
272.346	-2.9
272.562	68.78
272.777	103.59
272.993	93.35
273.209	83.11
273.425	36.01
273.64	13.48
273.856	74.92
274.072	58.54
274.287	11.43
274.503	21.67
274.719	-33.62
274.934	42.15
275.15	-21.33
275.366	66.73
275.581	72.87
275.797	44.2
276.012	79.02
276.228	15.53
276.444	62.63
276.659	40.11
276.875	13.48
277.09	17.58
277.306	105.64
277.521	48.3
277.737	13.48
277.952	76.97
278.168	48.3
278.383	62.63
278.599	68.78
278.814	99.5
279.03	25.77
279.245	72.87
279.461	15.53
279.676	19.63
279.892	25.77
280.107	-21.33
280.322	23.72
280.538	81.07
280.753	48.3
280.969	81.07
281.184	23.72
281.399	64.68
281.615	91.31
281.83	70.83
282.045	42.15
282.26	27.82
282.476	76.97
282.691	33.96
282.906	13.48
283.122	60.59
283.337	81.07
283.552	25.77
283.767	38.06
283.983	44.2
284.198	-9.05
284.413	33.96
284.628	17.58
284.843	113.83
285.058	-2.9
285.274	66.73
285.489	42.15
285.704	79.02
285.919	68.78
286.134	97.45
286.349	66.73
286.564	48.3
286.779	36.01
286.995	60.59
287.21	99.5
287.425	64.68
287.64	64.68
287.855	76.97
288.07	36.01
288.285	-11.09
288.5	93.35
288.715	89.26
288.93	85.16
289.145	40.11
289.36	93.35
289.575	-0.85
289.79	79.02
290.004	40.11
290.219	-13.14
290.434	31.91
290.649	101.55
290.864	87.21
291.079	36.01
291.294	36.01
291.509	76.97
291.724	58.54
291.938	-0.85
292.153	83.11
292.368	74.92
292.583	134.31
292.798	93.35
293.012	91.31
293.227	27.82
293.442	93.35
293.657	50.35
293.871	126.12
294.086	113.83
294.301	148.65
294.516	36.01
294.73	3.24
294.945	52.39
295.16	-23.38
295.374	27.82
295.589	79.02
295.804	42.15
296.018	36.01
296.233	56.49
296.447	113.83
296.662	42.15
296.877	83.11
297.091	48.3
297.306	23.72
297.52	-11.09
297.735	48.3
297.949	38.06
298.164	40.11
298.378	58.54
298.593	50.35
298.807	-21.33
299.022	83.11
299.236	76.97
299.451	33.96
299.665	68.78
299.88	-7
300.094	19.63
300.309	44.2
300.523	103.59
300.737	70.83
300.952	36.01
301.166	101.55
301.381	81.07
301.595	76.97
301.809	105.64
302.024	33.96
302.238	56.49
302.452	142.5
302.667	7.34
302.881	76.97
303.095	171.18
303.309	54.44
303.524	23.72
303.738	56.49
303.952	27.82
304.166	72.87
304.381	25.77
304.595	48.3
304.809	17.58
305.023	1.19
305.237	50.35
305.452	89.26
305.666	81.07
305.88	27.82
306.094	99.5
306.308	113.83
306.522	115.88
306.736	9.39
306.95	113.83
307.164	31.91
307.379	91.31
307.593	107.69
307.807	23.72
308.021	89.26
308.235	68.78
308.449	72.87
308.663	-54.1
308.877	76.97
309.091	99.5
309.305	58.54
309.519	-15.19
309.733	85.16
309.947	56.49
310.161	101.55
310.374	142.5
310.588	50.35
310.802	17.58
311.016	52.39
311.23	33.96
311.444	64.68
311.658	87.21
311.872	36.01
312.085	93.35
312.299	85.16
312.513	83.11
312.727	158.89
312.941	48.3
313.154	101.55
313.368	66.73
313.582	46.25
313.796	56.49
314.009	93.35
314.223	83.11
314.437	-4.95
314.651	11.43
314.864	91.31
315.078	89.26
315.292	109.74
315.505	-4.95
315.719	91.31
315.933	60.59
316.146	136.36
316.36	93.35
316.573	87.21
316.787	89.26
317.001	70.83
317.214	50.35
317.428	142.5
317.641	68.78
317.855	-13.14
318.068	-2.9
318.282	191.66
318.495	101.55
318.709	40.11
318.922	81.07
319.136	132.26
319.349	85.16
319.563	76.97
319.776	79.02
319.99	56.49
320.203	66.73
320.417	-27.48
320.63	85.16
320.843	124.07
321.057	31.91
321.27	107.69
321.483	70.83
321.697	97.45
321.91	31.91
322.124	52.39
322.337	7.34
322.55	40.11
322.763	83.11
322.977	64.68
323.19	85.16
323.403	115.88
323.617	52.39
323.83	15.53
324.043	-35.67
324.256	115.88
324.469	56.49
324.683	158.89
324.896	-7
325.109	48.3
325.322	48.3
325.535	89.26
325.748	44.2
325.962	76.97
326.175	66.73
326.388	-4.95
326.601	11.43
326.814	60.59
327.027	25.77
327.24	109.74
327.453	31.91
327.666	109.74
327.879	101.55
328.092	58.54
328.305	128.17
328.518	40.11
328.731	85.16
328.944	101.55
329.157	31.91
329.37	76.97
329.583	68.78
329.796	95.4
330.009	38.06
330.222	85.16
330.435	25.77
330.648	56.49
330.861	44.2
331.073	76.97
331.286	36.01
331.499	93.35
331.712	-4.95
331.925	97.45
332.138	93.35
332.35	103.59
332.563	89.26
332.776	105.64
332.989	1.19
333.202	44.2
333.414	76.97
333.627	89.26
333.84	111.78
334.053	31.91
334.265	21.67
334.478	27.82
334.691	33.96
334.903	83.11
335.116	36.01
335.329	17.58
335.541	-0.85
335.754	68.78
335.966	74.92
336.179	97.45
336.392	5.29
336.604	-13.14
336.817	107.69
337.029	107.69
337.242	62.63
337.454	70.83
337.667	93.35
337.88	109.74
338.092	1.19
338.305	50.35
338.517	27.82
338.729	21.67
338.942	76.97
339.154	46.25
339.367	31.91
339.579	85.16
339.792	17.58
340.004	97.45
340.217	93.35
340.429	-13.14
340.641	-11.09
340.854	158.89
341.066	126.12
341.278	89.26
341.491	113.83
341.703	62.63
341.915	40.11
342.128	7.34
342.34	36.01
342.552	128.17
342.764	93.35
342.977	48.3
343.189	40.11
343.401	70.83
343.613	111.78
343.826	38.06
344.038	44.2
344.25	79.02
344.462	60.59
344.674	126.12
344.886	97.45
345.099	50.35
345.311	128.17
345.523	52.39
345.735	54.44
345.947	103.59
346.159	5.29
346.371	36.01
346.583	113.83
346.795	66.73
347.007	42.15
347.219	58.54
347.431	19.63
347.643	130.22
347.855	50.35
348.067	173.22
348.279	42.15
348.491	40.11
348.703	-4.95
348.915	46.25
349.127	109.74
349.339	5.29
349.551	83.11
349.763	70.83
349.975	87.21
350.187	48.3
350.399	124.07
350.61	56.49
350.822	74.92
351.034	128.17
351.246	64.68
351.458	44.2
351.669	142.5
351.881	31.91
352.093	93.35
352.305	44.2
352.517	95.4
352.728	-0.85
352.94	64.68
353.152	89.26
353.363	97.45
353.575	64.68
353.787	62.63
353.999	83.11
354.21	70.83
354.422	15.53
354.633	72.87
354.845	54.44
355.057	85.16
355.268	87.21
355.48	101.55
355.692	7.34
355.903	60.59
356.115	44.2
356.326	27.82
356.538	64.68
356.749	44.2
356.961	138.41
357.172	132.26
357.384	40.11
357.595	79.02
357.807	40.11
358.018	17.58
358.23	62.63
358.441	60.59
358.653	89.26
358.864	87.21
359.075	72.87
359.287	144.55
359.498	62.63
359.709	58.54
359.921	115.88
360.132	56.49
360.344	50.35
360.555	52.39
360.766	138.41
360.977	48.3
361.189	142.5
361.4	101.55
361.611	74.92
361.823	85.16
362.034	81.07
362.245	15.53
362.456	162.98
362.667	21.67
362.879	93.35
363.09	105.64
363.301	44.2
363.512	115.88
363.723	52.39
363.935	76.97
364.146	115.88
364.357	79.02
364.568	74.92
364.779	19.63
364.99	93.35
365.201	50.35
365.412	79.02
365.623	101.55
365.834	40.11
366.045	68.78
366.256	97.45
366.467	66.73
366.678	165.03
366.889	83.11
367.1	46.25
367.311	48.3
367.522	142.5
367.733	31.91
367.944	17.58
368.155	58.54
368.366	48.3
368.577	103.59
368.788	48.3
368.999	-13.14
369.209	165.03
369.42	132.26
369.631	62.63
369.842	54.44
370.053	70.83
370.264	72.87
370.474	68.78
370.685	89.26
370.896	109.74
371.107	66.73
371.317	1.19
371.528	142.5
371.739	74.92
371.95	181.42
372.16	74.92
372.371	64.68
372.582	74.92
372.792	124.07
373.003	48.3
373.214	1.19
373.424	128.17
373.635	-7
373.846	140.46
374.056	72.87
374.267	93.35
374.477	60.59
374.688	85.16
374.898	25.77
375.109	83.11
375.319	130.22
375.53	95.4
375.74	122.02
375.951	109.74
376.161	93.35
376.372	97.45
376.582	58.54
376.793	44.2
377.003	58.54
377.214	152.74
377.424	44.2
377.635	79.02
377.845	38.06
378.055	132.26
378.266	-9.05
378.476	119.98
378.686	40.11
378.897	91.31
379.107	25.77
379.317	68.78
379.528	109.74
379.738	142.5
379.948	36.01
380.158	122.02
380.369	68.78
380.579	93.35
380.789	-4.95
380.999	46.25
381.21	54.44
381.42	142.5
381.63	13.48
381.84	122.02
382.05	128.17
382.261	54.44
382.471	25.77
382.681	33.96
382.891	117.93
383.101	81.07
383.311	85.16
383.521	72.87
383.731	60.59
383.941	81.07
384.151	-15.19
384.361	103.59
384.571	74.92
384.781	27.82
384.991	115.88
385.201	66.73
385.411	119.98
385.621	111.78
385.831	91.31
386.041	68.78
386.251	105.64
386.461	138.41
386.671	68.78
386.881	130.22
387.091	74.92
387.301	158.89
387.511	105.64
387.72	29.87
387.93	119.98
388.14	124.07
388.35	81.07
388.56	130.22
388.769	109.74
388.979	36.01
389.189	72.87
389.399	21.67
389.609	72.87
389.818	87.21
390.028	44.2
390.238	60.59
390.447	138.41
390.657	36.01
390.867	66.73
391.076	115.88
391.286	97.45
391.496	93.35
391.705	60.59
391.915	175.27
392.125	117.93
392.334	136.36
392.544	142.5
392.753	95.4
392.963	160.94
393.172	95.4
393.382	5.29
393.591	107.69
393.801	105.64
394.01	162.98
394.22	93.35
394.429	173.22
394.639	126.12
394.848	56.49
395.058	91.31
395.267	31.91
395.477	132.26
395.686	91.31
395.895	246.95
396.105	132.26
396.314	101.55
396.524	148.65
396.733	81.07
396.942	134.31
397.152	150.7
397.361	136.36
397.57	124.07
397.78	97.45
397.989	150.7
398.198	179.37
398.407	124.07
398.617	126.12
398.826	83.11
399.035	103.59
399.244	148.65
399.453	119.98
399.663	146.6
399.872	119.98
400.081	91.31
400.29	212.14
400.499	66.73
400.708	156.84
400.917	99.5
401.127	154.79
401.336	76.97
401.545	93.35
401.754	154.79
401.963	191.66
402.172	156.84
402.381	132.26
402.59	119.98
402.799	115.88
403.008	165.03
403.217	173.22
403.426	189.61
403.635	150.7
403.844	222.38
404.053	195.75
404.262	169.13
404.471	236.71
404.68	244.9
404.888	201.9
405.097	195.75
405.306	156.84
405.515	214.18
405.724	236.71
405.933	179.37
406.142	177.32
406.35	193.7
406.559	212.14
406.768	326.82
406.977	244.9
407.185	189.61
407.394	187.56
407.603	246.95
407.812	222.38
408.02	292.01
408.229	212.14
408.438	337.06
408.646	249
408.855	253.09
409.064	283.81
409.272	283.81
409.481	347.3
409.69	318.63
409.898	298.15
410.107	332.97
410.315	341.16
410.524	423.08
410.733	363.69
410.941	410.79
411.15	472.23
411.358	427.17
411.567	443.56
411.775	441.51
411.984	494.76
412.192	423.08
412.401	521.38
412.609	617.63
412.818	552.1
413.026	580.77
413.234	507.04
413.443	634.02
413.651	570.53
413.86	685.22
414.068	625.83
414.276	656.54
414.485	674.98
414.693	722.08
414.901	748.7
415.11	769.18
415.318	810.14
415.526	910.49
415.734	865.44
415.943	904.35
416.151	986.27
416.359	910.49
416.567	965.79
416.776	998.56
416.984	1148.06
417.192	1105.05
417.4	1131.67
417.608	1059.99
417.817	1154.2
418.025	1232.02
418.233	1342.61
418.441	1258.65
418.649	1301.65
418.857	1461.4
419.065	1440.92
419.273	1485.97
419.481	1584.27
419.689	1528.98
419.897	1660.05
420.105	1606.8
420.313	1688.72
420.521	1764.5
420.729	1957
420.937	1887.37
421.145	1987.72
421.353	1977.48
421.561	2090.12
421.769	2319.5
421.977	2288.78
422.185	2260.1
422.393	2405.51
422.601	2559.11
422.809	2493.57
423.017	2524.29
423.224	2681.99
423.432	2870.4
423.64	2747.52
423.848	3038.33
424.056	2933.89
424.263	3163.26
424.471	3286.14
424.679	3103.87
424.887	3327.1
425.094	3558.52
425.302	3427.45
425.51	3597.43
425.718	3695.73
425.925	3828.85
426.133	4013.17
426.341	4064.36
426.548	4295.79
426.756	4316.26
426.964	4361.32
427.171	4629.6
427.379	4725.86
427.586	4836.45
427.794	4856.93
428.001	5211.23
428.209	5383.26
428.417	5295.19
428.624	5672.02
428.832	5641.3
429.039	5518.42
429.247	5700.69
429.454	6257.74
429.662	6808.64
429.869	6128.72
430.076	6655.05
430.284	6569.03
430.491	6888.51
430.699	7208
430.906	7029.82
431.114	7158.85
431.321	7529.53
431.528	7611.45
431.736	8219.69
431.943	8535.08
432.15	8084.53
432.358	8580.14
432.565	8991.78
432.772	8645.67
432.979	9247.77
433.187	9579.54
433.394	9475.1
433.601	10195.98
433.808	10036.24
434.016	9899.03
434.223	10486.79
434.43	10978.31
434.637	10837
434.844	11586.55
435.052	11772.92
435.259	11600.89
435.466	11756.54
435.673	11586.55
435.88	12375.02
436.087	13018.08
436.294	13097.95
436.501	12745.7
436.708	13302.75
436.915	13585.37
437.122	14144.47
437.329	14042.07
437.537	14476.24
437.743	14709.71
437.95	14502.86
438.157	15205.31
438.364	15883.19
438.571	15702.97
438.778	15915.96
438.985	17245.09
439.192	16597.93
439.399	17251.24
439.606	16767.91
439.813	17537.95
440.02	18686.86
440.227	18535.31
440.433	18269.08
440.64	18918.28
440.847	18754.44
441.054	19227.53
441.261	20618.1
441.467	20392.82
441.674	20824.94
441.881	21506.91
442.088	21345.12
442.294	21103.46
442.501	21967.71
442.708	22147.93
442.914	23014.22
443.121	23759.68
443.328	23280.46
443.534	24789.81
443.741	24222.52
443.948	23999.29
444.154	25707.3
444.361	25500.45
444.568	25588.52
444.774	25688.87
444.981	26127.13
445.187	26524.44
445.394	27716.36
445.6	27591.43
445.807	30079.71
446.013	28787.44
446.22	28982
446.426	30452.44
446.633	30907.09
446.839	31603.4
447.046	30012.13
447.252	32027.33
447.459	31793.86
447.665	31754.95
447.871	33125.04
448.078	34486.94
448.284	32551.61
448.491	33862.31
448.697	34933.4
448.903	35242.64
449.11	35930.76
449.316	35353.23
449.522	35930.76
449.728	36455.04
449.935	37223.03
450.141	36725.37
450.347	37382.77
450.553	36530.81
450.76	36967.03
450.966	38089.32
451.172	37401.2
451.378	38378.08
451.584	37757.55
451.791	38853.21
451.997	38554.21
452.203	39238.23
452.409	39172.69
452.615	38769.24
452.821	37094
453.027	36856.44
453.233	38928.98
453.44	37358.19
453.646	37571.18
453.852	37814.89
454.058	38533.73
454.264	36864.63
454.47	37784.17
454.676	37034.61
454.882	38183.52
455.088	34947.73
455.294	35459.73
455.5	35938.95
455.705	36299.39
455.911	35025.56
456.117	34286.24
456.323	33643.18
456.529	31800.01
456.735	33278.64
456.941	32162.5
457.147	31691.46
457.352	30937.81
457.558	30313.18
457.764	30671.57
457.97	30083.81
458.176	29164.27
458.381	29438.7
458.587	27898.62
458.793	27910.91
458.999	26430.23
459.204	28502.78
459.41	27323.15
459.616	25965.34
459.821	25576.23
460.027	25797.41
460.233	24970.03
460.438	24048.44
460.644	24017.72
460.85	23221.06
461.055	22565.71
461.261	22668.11
461.466	20945.77
461.672	20362.1
461.878	21984.09
462.083	20183.93
462.289	19757.95
462.494	19864.44
462.7	18975.63
462.905	18414.48
463.111	19239.81
463.316	19231.62
463.522	18965.39
463.727	18752.4
463.932	18834.32
464.138	18547.6
464.343	18725.77
464.549	18236.31
464.754	18600.85
464.959	18557.84
465.165	18385.81
465.37	17845.15
465.575	16878.51
465.781	17814.43
465.986	17894.3
466.191	17511.33
466.397	16882.6
466.602	16270.26
466.807	16741.29
467.012	16817.07
467.218	16802.73
467.423	16491.44
467.628	16468.91
467.833	17515.42
468.038	16657.32
468.244	15999.93
468.449	16858.03
468.654	16620.46
468.859	16108.47
469.064	16202.68
469.269	15535.04
469.474	15369.15
469.679	15950.78
469.885	15283.14
470.09	15442.88
470.295	15561.66
470.5	14906.31
470.705	15174.6
470.91	14779.34
471.115	14793.67
471.32	14851.02
471.525	14887.88
471.73	14447.57
471.935	14603.21
472.139	13960.15
472.344	14070.74
472.549	13837.27
472.754	14033.88
472.959	13663.19
473.164	13192.16
473.369	13044.71
473.574	13417.44
473.778	13450.21
473.983	13310.94
474.188	13194.21
474.393	12567.53
474.598	12893.16
474.802	12487.66
475.007	12604.39
475.212	12352.49
475.417	11955.19
475.621	11955.19
475.826	12073.97
476.031	11897.85
476.235	11623.42
476.44	11910.13
476.645	11686.9
476.849	11578.36
477.054	11449.34
477.259	11359.23
477.463	11226.11
477.668	10963.97
477.872	11117.57
478.077	10937.35
478.282	10554.38
478.486	10630.15
478.691	10578.95
478.895	10681.35
479.1	10423.31
479.304	10509.32
479.509	10116.11
479.713	10560.52
479.918	10220.56
480.122	9995.28
480.326	10204.17
480.531	10308.62
480.735	9917.46
480.94	9890.84
481.144	10329.1
481.348	9792.53
481.553	9780.25
481.757	9815.06
481.961	9899.03
482.166	9845.78
482.37	9886.74
482.574	9606.17
482.778	9702.42
482.983	9952.27
483.187	9667.61
483.391	9796.63
483.595	9511.96
483.8	9624.6
484.004	9700.37
484.208	9827.35
484.412	9864.21
484.616	9813.01
484.821	9874.45
485.025	9546.78
485.229	9616.41
485.433	9753.62
485.637	9634.84
485.841	9622.55
486.045	9595.93
486.249	9645.08
486.453	9665.56
486.657	9571.35
486.861	9667.61
487.065	9370.65
487.269	9718.81
487.473	9653.27
487.677	9518.11
487.881	9632.79
488.085	9503.77
488.289	9733.14
488.493	9612.31
488.697	9714.71
488.901	9747.48
489.105	9653.27
489.309	9688.09
489.512	9991.19
489.716	9925.65
489.92	9688.09
490.124	9968.66
490.328	10144.78
490.531	9792.53
490.735	10161.17
490.939	9909.27
491.143	9845.78
491.346	10009.62
491.55	10191.89
491.754	10232.85
491.958	10421.26
492.161	10277.9
492.365	10157.07
492.569	10292.24
492.772	10466.31
492.976	10173.46
493.18	10325.01
493.383	10513.42
493.587	10535.95
493.79	10658.82
493.994	10458.12
494.197	10626.06
494.401	10685.45
494.605	10611.72
494.808	11013.12
495.012	11099.14
495.215	11090.95
495.419	11332.61
495.622	11158.53
495.825	11279.36
496.029	11260.93
496.232	11676.66
496.436	11467.77
496.639	11897.85
496.843	11785.21
497.046	12033.01
497.249	12116.98
497.453	12217.33
497.656	12258.29
497.859	12272.62
498.063	12458.99
498.266	12577.77
498.469	12641.26
498.673	13001.7
498.876	13036.52
499.079	13081.57
499.282	12950.5
499.485	13380.57
499.689	13417.44
499.892	13829.08
500.095	13734.87
500.298	13978.58
500.501	14138.32
500.705	14160.85
500.908	14578.64
501.111	14509.01
501.314	14738.38
501.517	14826.44
501.72	15393.73
501.923	14957.51
502.126	15573.95
502.329	15659.96
502.532	15561.66
502.735	15733.69
502.938	16081.85
503.141	16128.95
503.344	16389.04
503.547	16446.38
503.75	16661.42
503.953	16837.55
504.156	17159.08
504.359	17339.3
504.562	17253.28
504.765	17714.08
504.968	18002.84
505.17	18215.83
505.373	17908.63
505.576	18238.36
505.779	18568.08
505.982	18598.8
506.185	18940.81
506.387	19379.07
506.59	19270.53
506.793	19512.19
506.996	19282.82
507.198	20173.69
507.401	20063.1
507.604	20265.85
507.807	20482.93
508.009	20951.91
508.212	21095.27
508.415	21060.46
508.617	21420.9
508.82	21678.94
509.022	21472.1
509.225	22025.05
509.428	22211.42
509.63	22426.45
509.833	22221.66
510.035	23141.19
510.238	23237.45
510.44	23360.33
510.643	23743.3
510.845	23903.04
511.048	23860.03
511.25	24214.33
511.453	24214.33
511.655	24972.08
511.858	24943.41
512.06	25164.59
512.262	25273.13
512.465	25430.82
512.667	26028.83
512.87	26102.56
513.072	26262.3
513.274	26637.08
513.477	26716.95
513.679	27163.4
513.881	27024.14
514.084	27552.52
514.286	27523.85
514.488	27990.78
514.69	28435.19
514.893	28564.21
515.095	28881.65
515.297	29133.55
515.499	29102.83
515.701	29836
515.904	29813.48
516.106	30317.28
516.308	30477.02
516.51	30679.77
516.712	30757.59
516.914	31007.44
517.116	31466.19
517.318	31865.54
517.52	31859.4
517.722	31759.05
517.925	32516.79
518.127	32877.24
518.329	33049.27
518.531	32953.01
518.733	33532.59
518.935	33571.5
519.136	33942.18
519.338	34366.11
519.54	34605.72
519.742	35058.32
519.944	35390.09
520.146	35732.11
520.348	35639.95
520.55	35791.5
520.752	36088.45
520.954	36770.43
521.155	36545.15
521.357	37100.15
521.559	37542.51
521.761	37816.94
521.963	37696.11
522.164	38369.89
522.366	38310.5
522.568	38511.2
522.77	39074.39
522.971	39453.26
523.173	39440.98
523.375	39418.45
523.576	39858.76
523.778	39735.88
523.98	40305.22
524.181	40276.55
524.383	40665.66
524.584	40757.82
524.786	41030.2
524.988	41122.36
525.189	41777.71
525.391	41706.03
525.592	42082.86
525.794	42258.98
525.995	42488.35
526.197	42064.42
526.398	42361.38
526.6	43086.36
526.801	42957.34
527.003	43395.6
527.204	42854.94
527.406	43557.39
527.607	43381.27
527.808	43784.72
528.01	43692.56
528.211	43809.29
528.412	44610.05
528.614	44352.01
528.815	44698.11
529.016	44745.22
529.218	44495.36
529.419	44732.93
529.62	44630.53
529.822	44595.71
530.023	44913.15
530.224	44833.28
530.425	45019.64
530.626	45220.34
530.828	45103.61
531.029	45627.89
531.23	45496.82
531.431	45777.39
531.632	45466.1
531.833	45859.31
532.035	45320.7
532.236	46215.66
532.437	46193.13
532.638	46012.91
532.839	46248.42
533.04	46555.62
533.241	45603.31
533.442	46492.13
533.643	46391.78
533.844	46498.28
534.045	46615.01
534.246	46180.84
534.447	46297.58
534.648	46531.04
534.849	46590.44
535.05	46248.42
535.251	46748.13
535.451	46223.85
535.652	46442.98
535.853	46514.66
536.054	46541.28
536.255	46633.44
536.456	46256.62
536.657	47043.04
536.857	46635.49
537.058	46252.52
537.259	46838.24
537.46	46864.86
537.66	46727.65
537.861	46455.27
538.062	46488.04
538.263	46856.67
538.463	46592.48
538.664	46598.63
538.865	46748.13
539.065	46997.98
539.266	46598.63
539.466	46969.31
539.667	46092.78
539.868	47217.11
540.068	46731.75
540.269	46692.83
540.469	47145.44
540.67	46531.04
540.87	46627.3
541.071	46598.63
541.271	46713.31
541.472	46821.86
541.672	46617.06
541.873	46584.29
542.073	46275.05
542.274	46887.39
542.474	46834.14
542.675	46350.82
542.875	46891.49
543.075	46631.4
543.276	46821.86
543.476	46881.25
543.676	46481.89
543.877	46406.12
544.077	46737.89
544.277	46809.57
544.478	46281.19
544.678	46477.8
544.878	46465.51
545.078	46563.81
545.279	46416.36
545.479	46395.88
545.679	46715.36
545.879	46655.97
546.079	46666.21
546.28	46535.14
546.48	46705.12
546.68	46475.75
546.88	47075.8
547.08	46440.93
547.28	46453.22
547.48	46328.3
547.68	46420.45
547.88	46150.12
548.081	46821.86
548.281	46006.76
548.481	46514.66
548.681	46717.41
548.881	46596.58
549.081	46293.48
549.28	46553.57
549.48	46608.87
549.68	46096.88
549.88	46653.92
550.08	46156.27
550.28	46340.58
550.48	46133.74
550.68	46490.09
550.88	46060.01
551.08	46477.8
551.279	46133.74
551.479	45801.97
551.679	46379.49
551.879	46268.9
552.079	46457.32
552.278	46459.37
552.478	46397.93
552.678	46268.9
552.878	46485.99
553.077	46264.81
553.277	45478.39
553.477	46166.51
553.676	45980.14
553.876	46062.06
554.076	45822.45
554.275	45847.02
554.475	45380.09
554.674	46090.73
554.874	46084.59
555.074	45679.09
555.273	45683.19
555.473	45847.02
555.672	46025.2
555.872	46039.53
556.071	45777.39
556.271	46029.29
556.47	45613.55
556.67	45535.73
556.869	45855.21
557.068	45668.85
557.268	45273.59
557.467	45232.63
557.667	45490.68
557.866	45335.03
558.065	45033.98
558.265	44945.92
558.464	44651.01
558.663	45519.35
558.863	44777.98
559.062	45246.97
559.261	44618.24
559.461	45144.57
559.66	44685.82
559.859	44515.84
560.058	44593.67
560.258	44200.46
560.457	44356.1
560.656	44651.01
560.855	44032.52
561.054	44651.01
561.253	44016.14
561.453	44284.42
561.652	43913.74
561.851	44212.74
562.05	44028.43
562.249	43770.38
562.448	44079.63
562.647	44151.3
562.846	43524.63
563.045	43799.05
563.244	43545.11
563.443	44102.15
563.642	43182.62
563.841	43356.69
564.04	43201.05
564.239	43385.36
564.438	42570.27
564.637	43112.98
564.836	43192.86
565.035	42766.88
565.234	42967.58
565.432	42709.53
565.631	42684.96
565.83	42705.44
566.029	42400.29
566.228	42189.35
566.427	42111.53
566.625	42191.4
566.824	41230.9
567.023	42091.05
567.222	41267.76
567.42	42164.78
567.619	41744.94
567.818	41546.29
568.016	41425.46
568.215	41939.5
568.414	41419.31
568.612	41523.76
568.811	40993.34
569.01	40911.42
569.208	40520.26
569.407	41081.4
569.605	40505.92
569.804	40895.03
570.002	40221.25
570.201	40366.66
570.4	40016.46
570.598	40204.87
570.797	39924.3
570.995	40102.47
571.193	39373.39
571.392	40133.19
571.59	39727.69
571.789	39596.62
571.987	39621.2
572.186	39492.18
572.384	39072.34
572.582	39483.98
572.781	39273.04
572.979	38683.23
573.177	38916.7
573.376	39166.55
573.574	38857.31
573.772	38713.95
573.971	38775.39
574.169	38369.89
574.367	38148.71
574.565	38685.28
574.763	38324.83
574.962	38367.84
575.16	37913.19
575.358	38085.22
575.556	37268.08
575.754	37909.1
575.952	37409.39
576.151	37325.43
576.349	37347.95
576.547	37352.05
576.745	37290.61
576.943	37343.86
577.141	37311.09
577.339	37220.98
577.537	36967.03
577.735	37153.4
577.933	36657.79
578.131	36991.61
578.329	36700.79
578.527	36225.67
578.725	36139.65
578.923	36268.67
579.121	35990.15
579.319	36094.6
579.516	35848.84
579.714	35879.56
579.912	36143.75
580.11	35691.15
580.308	35467.92
580.506	35576.46
580.704	34722.46
580.901	35369.61
581.099	35615.37
581.297	34921.11
581.495	34976.4
581.692	35197.59
581.89	34634.39
582.088	35222.16
582.285	34579.1
582.483	34642.59
582.681	34556.57
582.878	34572.96
583.076	34462.36
583.274	34640.54
583.471	34232.99
583.669	34210.46
583.866	33743.53
584.064	34300.58
584.262	33415.85
584.459	33948.32
584.657	33434.28
584.854	34017.96
585.052	32936.63
585.249	33430.19
585.447	33698.47
585.644	33262.26
585.841	33430.19
586.039	33118.9
586.236	32549.56
586.434	32801.46
586.631	32504.51
586.828	32555.71
587.026	32490.17
587.223	32823.99
587.42	32477.88
587.618	32527.03
587.815	32174.78
588.012	31693.51
588.21	31843.01
588.407	32283.33
588.604	31548.11
588.801	32043.71
588.999	32008.9
589.196	31681.22
589.393	31771.33
589.59	31875.78
589.787	31193.81
589.984	31148.75
590.182	30718.68
590.379	31257.29
590.576	30890.71
590.773	30833.36
590.97	30558.94
591.167	30659.29
591.364	30429.91
591.561	30427.87
591.758	30184.16
591.955	30319.32
592.152	30370.52
592.349	30319.32
592.546	30145.25
592.743	30098.14
592.94	29477.61
593.137	29670.12
593.334	29731.56
593.531	29260.52
593.727	29412.07
593.924	29866.72
594.121	29119.21
594.318	29461.23
594.515	28941.04
594.712	29330.16
594.908	28740.34
595.105	29092.59
595.302	28881.65
595.499	28728.05
595.696	28484.34
595.892	28246.78
596.089	28461.82
596.286	28766.96
596.482	28242.68
596.679	28359.42
596.876	28349.18
597.072	27828.99
597.269	28093.18
597.466	28166.91
597.662	27611.91
597.859	27919.1
598.055	27927.3
598.252	27464.46
598.448	27486.98
598.645	27228.94
598.841	27230.99
599.038	27065.1
599.234	27474.7
599.431	26479.38
599.627	26817.3
599.824	27138.83
600.02	26657.56
600.217	26716.95
600.413	26442.52
600.609	26546.97
600.806	26284.83
601.002	26524.44
601.198	26313.5
601.395	25953.05
601.591	26227.48
601.787	26127.13
601.984	25758.5
602.18	25899.81
602.376	26000.16
602.572	25813.79
602.769	25893.66
602.965	25469.73
603.161	25522.98
603.357	25127.72
603.553	25514.79
603.75	25525.03
603.946	25068.33
604.142	25324.33
604.338	25039.66
604.534	25068.33
604.73	24699.7
604.926	24953.65
605.122	24959.79
605.318	24636.21
605.514	24372.02
605.71	24445.75
605.906	24109.88
606.102	24400.69
606.298	24183.61
606.494	24337.21
606.69	24113.98
606.886	24310.58
607.082	23718.72
607.278	24111.93
607.474	23755.58
607.67	23989.05
607.866	23417.67
608.062	24265.53
608.257	23620.42
608.453	23552.84
608.649	23642.95
608.845	23171.91
609.041	23380.81
609.236	23493.44
609.432	23522.12
609.628	23216.97
609.824	23556.93
610.019	22965.07
610.215	23100.23
610.411	23061.32
610.606	22997.84
610.802	22836.05
610.998	23042.89
611.193	23092.04
611.389	22692.69
611.584	22571.86
611.78	22588.24
611.976	22803.28
612.171	22412.12
612.367	22352.73
612.562	22510.42
612.758	22100.83
612.953	22168.41
613.149	22926.16
613.344	22135.64
613.539	22709.07
613.735	22147.93
613.93	22469.46
614.126	22141.78
614.321	22500.18
614.517	22125.4
614.712	22018.91
614.907	21594.98
615.103	21977.95
615.298	21818.21
615.493	21920.6
615.688	21668.7
615.884	21807.97
616.079	21498.72
616.274	21623.65
616.47	21402.47
616.665	21738.33
616.86	21363.56
617.055	21619.55
617.25	21332.84
617.445	21291.88
617.641	20908.91
617.836	21214.05
618.031	21058.41
618.226	20935.53
618.421	20855.66
618.616	21177.19
618.811	20786.03
619.006	21121.9
619.201	20527.99
619.396	20487.03
619.591	20233.08
619.786	20646.77
619.981	20335.48
620.176	20409.2
620.371	20079.48
620.566	20163.45
620.761	19813.24
620.956	20075.38
621.151	19737.47
621.346	19989.37
621.541	19374.98
621.735	19725.18
621.93	19362.69
622.125	19663.74
622.32	19293.06
622.515	19252.1
622.709	19106.7
622.904	19219.33
623.099	18981.77
623.294	18860.94
623.488	18758.54
623.683	18813.84
623.878	18580.37
624.072	18295.7
624.267	18518.93
624.462	18455.44
624.656	18226.07
624.851	18207.64
625.046	18037.66
625.24	18090.9
625.435	17779.61
625.629	17345.44
625.824	17574.81
626.018	17499.04
626.213	17331.11
626.407	17386.4
626.602	16870.31
626.796	17343.39
626.991	17048.49
627.185	16911.27
627.38	16929.7
627.574	16710.57
627.768	16593.84
627.963	16677.8
628.157	16352.18
628.352	16438.19
628.546	16366.51
628.74	16108.47
628.935	16219.06
629.129	15961.02
629.323	15821.75
629.517	16085.94
629.712	15727.55
629.906	15649.72
630.1	15442.88
630.294	15434.69
630.489	15369.15
630.683	15334.34
630.877	15156.16
631.071	15242.18
631.265	15250.37
631.459	15049.67
631.653	15031.24
631.848	14709.71
632.042	14814.15
632.236	14965.7
632.43	14781.39
632.624	14500.81
632.818	14617.55
633.012	14470.09
633.206	14361.55
633.4	14674.89
633.594	14037.97
633.788	13911
633.982	14216.15
634.176	13980.63
634.369	13853.66
634.563	13966.29
634.757	13755.35
634.951	13915.09
635.145	13831.13
635.339	13581.28
635.533	13417.44
635.726	13413.34
635.92	13325.28
636.114	13081.57
636.308	13251.55
636.501	13143.01
636.695	13013.99
636.889	13130.72
637.083	12911.59
637.276	12968.93
637.47	12622.83
637.664	12862.44
637.857	12577.77
638.051	12583.91
638.244	12469.23
638.438	12426.22
638.632	12483.56
638.825	12110.83
639.019	12135.41
639.212	12014.58
639.406	12104.69
639.599	12065.78
639.793	12104.69
639.986	11815.93
640.18	11916.28
640.373	11811.83
640.567	11568.12
640.76	11676.66
640.954	11547.64
641.147	11609.08
641.34	11711.48
641.534	11492.35
641.727	11228.16
641.92	11328.51
642.114	11150.34
642.307	11291.65
642.5	10955.78
642.694	10923.01
642.887	10759.17
643.08	10931.2
643.273	11002.88
643.467	11074.56
643.66	10669.06
643.853	10626.06
644.046	10451.98
644.239	10552.33
644.432	10537.99
644.626	10497.03
644.819	10404.88
645.012	10368.01
645.205	10347.53
645.398	10249.23
645.591	10167.31
645.784	10206.22
645.977	10087.44
646.17	9817.11
646.363	9899.03
646.556	9960.47
646.749	9851.92
646.942	9841.68
647.135	9706.52
647.328	9618.46
647.521	9528.35
647.714	9528.35
647.907	9645.08
648.099	9448.47
648.292	9663.51
648.485	9509.91
648.678	9223.2
648.871	9120.8
649.064	9276.45
649.256	9350.17
649.449	9235.49
649.642	8973.35
649.835	9032.74
650.027	9077.79
650.22	8993.83
650.413	8817.7
650.605	8848.42
650.798	8842.28
650.991	8899.62
651.183	8617
651.376	8660.01
651.568	8653.86
651.761	8725.54
651.954	8549.42
652.146	8389.67
652.339	8598.57
652.531	8336.43
652.724	8391.72
652.916	8135.73
653.109	8385.58
653.301	8422.44
653.494	8297.52
653.686	8117.29
653.879	8049.71
654.071	8010.8
654.263	8031.28
654.456	8006.7
654.648	8240.17
654.84	8076.34
655.033	7719.99
655.225	7894.07
655.417	7732.28
655.61	7816.24
655.802	7736.37
655.994	7644.21
656.186	7646.26
656.379	7576.63
656.571	7490.62
656.763	7392.31
656.955	7584.82
657.148	7513.14
657.34	7349.31
657.532	7398.46
657.724	7253.05
657.916	7248.96
658.108	7334.97
658.3	7212.09
658.492	7121.98
658.684	7253.05
658.876	7246.91
659.068	7146.56
659.26	7003.2
659.452	6935.62
659.644	6992.96
659.836	6861.89
660.028	7144.51
660.22	6755.4
660.412	6919.23
660.604	6747.2
660.796	6833.22
660.988	6763.59
661.18	6743.11
661.372	6835.27
661.563	6753.35
661.755	6777.92
661.947	6679.62
662.139	6683.72
662.331	6511.69
662.522	6446.15
662.714	6599.75
662.906	6405.19
663.097	6421.58
663.289	6360.14
663.481	6562.89
663.673	6159.44
663.864	6079.57
664.056	6184.01
664.247	6327.37
664.439	6259.79
664.631	6024.27
664.822	6227.02
665.014	6046.8
665.205	6247.5
665.397	5946.45
665.588	6069.33
665.78	6016.08
665.971	5958.74
666.163	5856.34
666.354	5991.5
666.546	5930.06
666.737	5817.43
666.929	5712.98
667.12	5860.43
667.311	5909.58
667.503	5743.7
667.694	5641.3
667.885	5784.66
668.077	5768.27
668.268	5751.89
668.459	5735.51
668.651	5571.67
668.842	5790.8
669.033	5522.52
669.224	5446.74
669.416	5530.71
669.607	5563.48
669.798	5450.84
669.989	5491.8
670.18	5430.36
670.371	5438.55
670.563	5463.13
670.754	5430.36
670.945	5303.39
671.136	5434.46
671.327	5327.96
671.518	5344.35
671.709	5444.7
671.9	5297.24
672.091	5336.15
672.282	5282.91
672.473	5129.31
672.664	5332.06
672.855	5250.14
673.046	5151.84
673.237	5233.75
673.428	5104.73
673.619	5164.12
673.809	5246.04
674	5110.88
674.191	5074.01
674.382	5041.25
674.573	4992.09
674.764	5135.45
674.954	5262.43
675.145	5104.73
675.336	5092.44
675.527	4992.09
675.717	5139.55
675.908	5024.86
676.099	5031.01
676.289	5051.49
676.48	4942.94
676.671	4881.5
676.861	5002.33
677.052	4955.23
677.243	4875.36
677.433	4834.4
677.624	4951.14
677.814	4879.46
678.005	4867.17
678.195	4938.85
678.386	4822.11
678.576	4858.98
678.767	4922.46
678.957	4807.78
679.148	4869.22
679.338	4748.39
679.529	4856.93
679.719	4893.79
679.909	4965.47
680.1	4684.9
680.29	5004.38
680.481	4799.59
680.671	4951.14
680.861	4770.91
681.052	4994.14
681.242	4746.34
681.432	4934.75
681.622	4799.59
681.813	4799.59
682.003	4854.88
682.193	4643.94
682.383	4848.74
682.573	4709.47
682.764	4709.47
682.954	4568.16
683.144	4691.04
683.334	4797.54
683.524	4664.42
683.714	4566.12
683.904	4752.48
684.094	4693.09
684.284	4639.84
684.474	4611.17
684.664	4576.36
684.854	4621.41
685.044	4660.32
685.234	4586.6
685.424	4736.1
685.614	4607.08
685.804	4557.93
685.994	4582.5
686.184	4422.76
686.374	4600.93
686.564	4471.91
686.753	4570.21
686.943	4555.88
687.133	4228.2
687.323	4385.9
687.513	4533.35
687.702	4361.32
687.892	4476.01
688.082	4359.27
688.272	4418.66
688.461	4342.89
688.651	4406.38
688.841	4344.94
689.03	4263.02
689.22	4357.22
689.41	4334.7
689.599	4228.2
689.789	4338.79
689.979	4281.45
690.168	4205.67
690.358	4134
690.547	4238.44
690.737	4090.99
690.926	4164.72
691.116	4111.47
691.305	4074.6
691.495	4162.67
691.684	4039.79
691.874	4148.33
692.063	4072.56
692.252	4021.36
692.442	4086.89
692.631	3796.08
692.82	4043.88
693.01	3961.97
693.199	3904.62
693.388	3900.53
693.578	3955.82
693.767	3984.49
693.956	3908.72
694.146	3984.49
694.335	3904.62
694.524	3732.59
694.713	3832.94
694.902	3781.74
695.092	3941.49
695.281	3800.18
695.47	3894.38
695.659	3810.42
695.848	3800.18
696.037	3744.88
696.226	3873.9
696.415	3765.36
696.604	3681.39
696.793	3695.73
696.982	3828.85
697.171	3820.66
697.36	3773.55
697.549	3648.63
697.738	3619.96
697.927	3714.16
698.116	3892.34
698.305	3791.98
698.494	3763.31
698.683	3701.87
698.872	3609.72
699.061	3665.01
699.25	3662.96
699.438	3765.36
699.627	3667.06
699.816	3675.25
700.005	3619.96
700.193	3574.9
700.382	3685.49
700.571	3718.26
700.76	3533.94
700.948	3404.92
701.137	3585.14
701.326	3570.8
701.514	3566.71
701.703	3794.03
701.892	3517.56
702.08	3517.56
702.269	3544.18
702.457	3554.42
702.646	3564.66
702.834	3662.96
703.023	3478.65
703.212	3759.22
703.4	3630.2
703.589	3599.48
703.777	3630.2
703.965	3556.47
704.154	3665.01
704.342	3535.99
704.531	3574.9
704.719	3538.04
704.907	3740.79
705.096	3353.72
705.284	3531.89
705.472	3404.92
705.661	3574.9
705.849	3556.47
706.037	3597.43
706.226	3490.93
706.414	3667.06
706.602	3622
706.79	3640.44
706.979	3671.15
707.167	3554.42
707.355	3579
707.543	3615.86
707.731	3626.1
707.919	3492.98
708.107	3464.31
708.296	3660.91
708.484	3562.61
708.672	3527.8
708.86	3669.11
709.048	3568.76
709.236	3533.94
709.424	3597.43
709.612	3607.67
709.8	3718.26
709.988	3603.57
710.176	3554.42
710.364	3495.03
710.551	3460.21
710.739	3538.04
710.927	3568.76
711.115	3492.98
711.303	3622
711.491	3556.47
711.679	3583.09
711.866	3656.82
712.054	3662.96
712.242	3435.64
712.43	3583.09
712.617	3599.48
712.805	3509.37
712.993	3402.87
713.181	3507.32
713.368	3622
713.556	3570.8
713.744	3525.75
713.931	3548.28
714.119	3533.94
714.306	3630.2
714.494	3603.57
714.682	3507.32
714.869	3490.93
715.057	3427.45
715.244	3466.36
715.432	3540.08
715.619	3474.55
715.807	3568.76
715.994	3587.19
716.182	3646.58
716.369	3460.21
716.556	3515.51
716.744	3421.3
716.931	3615.86
717.119	3513.46
717.306	3495.03
717.493	3509.37
717.681	3501.17
717.868	3517.56
718.055	3585.14
718.242	3507.32
718.43	3607.67
718.617	3599.48
718.804	3488.89
718.991	3501.17
719.179	3605.62
719.366	3521.65
719.553	3597.43
719.74	3492.98
719.927	3505.27
720.114	3443.83
720.301	3458.17
720.488	3447.93
720.676	3538.04
720.863	3476.6
721.05	3632.24
721.237	3466.36
721.424	3419.25
721.611	3538.04
721.798	3560.56
721.985	3628.15
722.172	3581.04
722.358	3525.75
722.545	3542.13
722.732	3492.98
722.919	3619.96
723.106	3476.6
723.293	3581.04
723.48	3476.6
723.667	3443.83
723.853	3419.25
724.04	3542.13
724.227	3456.12
724.414	3423.35
724.6	3337.34
724.787	3423.35
724.974	3533.94
725.161	3468.41
725.347	3368.06
725.534	3476.6
725.72	3581.04
725.907	3523.7
726.094	3513.46
726.28	3478.65
726.467	3341.43
726.653	3417.21
726.84	3490.93
727.027	3527.8
727.213	3409.01
727.4	3353.72
727.586	3361.91
727.773	3359.86
727.959	3341.43
728.145	3488.89
728.332	3546.23
728.518	3458.17
728.705	3462.26
728.891	3492.98
729.077	3392.63
729.264	3343.48
729.45	3466.36
729.636	3419.25
729.823	3361.91
730.009	3492.98
730.195	3341.43
730.382	3515.51
730.568	3503.22
730.754	3343.48
730.94	3402.87
731.126	3484.79
731.313	3417.21
731.499	3363.96
731.685	3423.35
731.871	3427.45
732.057	3368.06
732.243	3400.82
732.429	3372.15
732.615	3286.14
732.801	3429.49
732.987	3439.73
733.173	3304.57
733.359	3392.63
733.545	3378.3
733.731	3282.04
733.917	3402.87
734.103	3441.78
734.289	3370.1
734.475	3224.7
734.661	3458.17
734.847	3355.77
735.033	3402.87
735.219	3386.49
735.404	3288.18
735.59	3290.23
735.776	3263.61
735.962	3275.9
736.148	3310.71
736.333	3411.06
736.519	3230.84
736.705	3179.64
736.89	3312.76
737.076	3161.21
737.262	3257.46
737.447	3118.2
737.633	3132.54
737.819	3040.38
738.004	3165.31
738.19	3220.6
738.375	3173.5
738.561	3187.83
738.747	3208.31
738.932	3138.68
739.118	3202.17
739.303	3261.56
739.489	3124.35
739.674	3091.58
739.859	3124.35
740.045	3136.63
740.23	3007.61
740.416	3040.38
740.601	3148.92
740.786	3058.81
740.972	2972.8
741.157	3050.62
741.342	3046.52
741.528	3030.14
741.713	3087.48
741.898	2995.32
742.084	3001.47
742.269	3011.71
742.454	2882.69
742.639	2948.22
742.824	2917.5
743.01	2899.07
743.195	2884.73
743.38	2849.92
743.565	2911.36
743.75	2835.58
743.935	2866.3
744.12	2866.3
744.305	2935.93
744.49	2862.21
744.675	2774.14
744.86	2684.03
745.045	2835.58
745.23	2858.11
745.415	2786.43
745.6	2829.44
745.785	2759.81
745.97	2706.56
746.155	2759.81
746.34	2669.7
746.525	2602.11
746.71	2765.95
746.895	2546.82
747.079	2550.92
747.264	2571.4
747.449	2569.35
747.634	2587.78
747.819	2579.59
748.003	2534.53
748.188	2444.42
748.373	2544.77
748.557	2540.68
748.742	2401.41
748.927	2512
749.111	2473.09
749.296	2417.8
749.481	2432.13
749.665	2438.28
749.85	2370.69
750.034	2368.65
750.219	2391.17
750.404	2327.69
750.588	2323.59
750.773	2321.54
750.957	2294.92
751.141	2313.35
751.326	2133.13
751.51	2225.29
751.695	2274.44
751.879	2118.79
752.064	2223.24
752.248	2157.71
752.432	2243.72
752.617	2192.52
752.801	2190.47
752.985	2104.46
753.17	2182.28
753.354	2172.04
753.538	2045.07
753.722	2114.7
753.907	1975.44
754.091	1963.15
754.275	1934.48
754.459	1920.14
754.643	1926.29
754.828	1926.29
755.012	1907.85
755.196	1895.57
755.38	1903.76
755.564	1832.08
755.748	1889.42
755.932	1885.33
756.116	1830.03
756.3	1842.32
756.484	1866.89
756.668	1705.1
756.852	1852.56
757.036	1821.84
757.22	1807.5
757.404	1719.44
757.588	1756.3
757.772	1893.52
757.956	1719.44
758.14	1774.74
758.323	1793.17
758.507	1803.41
758.691	1682.58
758.875	1662.1
759.059	1752.21
759.242	1688.72
759.426	1619.09
759.61	1719.44
759.794	1610.9
759.977	1696.91
760.161	1668.24
760.345	1565.84
760.528	1617.04
760.712	1619.09
760.895	1506.45
761.079	1490.07
761.263	1522.84
761.446	1528.98
761.63	1500.31
761.813	1518.74
761.997	1373.33
762.18	1504.4
762.364	1461.4
762.547	1465.49
762.731	1404.05
762.914	1549.46
763.098	1471.64
763.281	1428.63
763.464	1643.67
763.648	1526.93
763.831	1385.62
764.015	1461.4
764.198	1455.25
764.381	1367.19
764.564	1408.15
764.748	1438.87
764.931	1387.67
765.114	1301.65
765.297	1387.67
765.481	1340.57
765.664	1365.14
765.847	1295.51
766.03	1346.71
766.213	1256.6
766.397	1485.97
766.58	1213.59
766.763	1336.47
766.946	1307.8
767.129	1240.22
767.312	1326.23
767.495	1318.04
767.678	1193.11
767.861	1232.02
768.044	1158.3
768.227	1246.36
768.41	1279.13
768.593	1275.03
768.776	1176.73
768.959	1180.82
769.142	1281.18
769.324	1189.02
769.507	1137.82
769.69	1244.31
769.873	1211.54
770.056	1229.98
770.239	1203.35
770.421	1197.21
770.604	1113.24
770.787	1215.64
770.97	1172.63
771.152	1098.91
771.335	1133.72
771.518	1090.71
771.7	1096.86
771.883	1213.59
772.066	1182.87
772.248	1131.67
772.431	1129.63
772.613	1082.52
772.796	1098.91
772.978	1076.38
773.161	1109.15
773.343	1002.65
773.526	1068.19
773.708	1049.75
773.891	1008.8
774.073	1092.76
774.256	1027.23
774.438	1072.28
774.621	1047.71
774.803	998.56
774.985	908.44
775.168	924.83
775.35	998.56
775.532	1037.47
775.715	939.16
775.897	986.27
776.079	998.56
776.261	982.17
776.444	978.08
776.626	1002.65
776.808	937.12
776.99	853.15
777.173	928.92
777.355	859.29
777.537	863.39
777.719	859.29
777.901	896.16
778.083	910.49
778.265	943.26
778.447	945.31
778.629	853.15
778.811	855.2
778.993	822.43
779.175	859.29
779.357	890.01
779.539	779.42
779.721	799.9
779.903	861.34
780.085	754.85
780.267	756.9
780.449	822.43
780.631	720.03
780.812	756.9
780.994	756.9
781.176	724.13
781.358	732.32
781.54	699.55
781.721	787.61
781.903	720.03
782.085	728.22
782.267	642.21
782.448	717.98
782.63	658.59
782.812	756.9
782.993	697.5
783.175	666.78
783.357	713.89
783.538	699.55
783.72	760.99
783.901	646.3
784.083	638.11
784.264	634.02
784.446	646.3
784.627	613.54
784.809	638.11
784.99	656.54
785.172	634.02
785.353	599.2
785.535	636.06
785.716	640.16
785.897	531.62
786.079	572.58
786.26	593.06
786.441	582.82
786.623	568.48
786.804	595.11
786.985	562.34
787.167	568.48
787.348	578.72
787.529	523.43
787.71	527.52
787.891	580.77
788.073	535.71
788.254	560.29
788.435	552.1
788.616	545.95
788.797	445.6
788.978	468.13
789.159	459.94
789.34	556.19
789.522	552.1
789.703	523.43
789.884	543.91
790.065	562.34
790.246	486.56
790.427	472.23
790.607	523.43
790.788	515.23
790.969	550.05
791.15	459.94
791.331	515.23
791.512	511.14
791.693	502.95
791.874	435.36
792.054	568.48
792.235	441.51
792.416	445.6
792.597	392.36
792.778	525.47
792.958	435.36
793.139	418.98
793.32	466.08
793.5	421.03
793.681	531.62
793.862	396.45
794.042	425.12
794.223	421.03
794.404	476.32
794.584	326.82
794.765	365.73
794.945	416.93
795.126	423.08
795.306	427.17
795.487	375.97
795.667	408.74
795.848	369.83
796.028	289.96
796.209	425.12
796.389	429.22
796.57	330.92
796.75	384.16
796.93	435.36
797.111	308.39
797.291	375.97
797.471	416.93
797.652	314.53
797.832	367.78
798.012	310.44
798.192	396.45
798.373	359.59
798.553	318.63
798.733	418.98
798.913	363.69
799.093	322.73
799.274	406.69
799.454	427.17
799.634	459.94
799.814	380.07
799.994	375.97
800.174	461.99
800.354	287.91
800.534	314.53
800.714	312.49
800.894	318.63
801.074	337.06
801.254	367.78
801.434	363.69
801.614	371.88
801.794	339.11
801.974	922.78
802.154	261.29
802.334	345.25
802.514	353.45
802.693	296.1
802.873	244.9
803.053	308.39
803.233	353.45
803.413	306.34
803.592	388.26
803.772	326.82
803.952	394.4
804.131	339.11
804.311	281.77
804.491	351.4
804.67	246.95
804.85	361.64
805.03	294.05
805.209	312.49
805.389	224.42
805.568	306.34
805.748	277.67
805.928	330.92
806.107	285.86
806.287	294.05
806.466	271.53
806.646	191.66
806.825	347.3
807.004	236.71
807.184	287.91
807.363	265.38
807.543	273.57
807.722	277.67
807.901	281.77
808.081	265.38
808.26	189.61
808.439	257.19
808.619	314.53
808.798	281.77
808.977	212.14
809.156	281.77
809.336	296.1
809.515	289.96
809.694	269.48
809.873	253.09
810.052	298.15
810.231	289.96
810.411	271.53
810.59	255.14
810.769	320.68
810.948	296.1
811.127	212.14
811.306	216.23
811.485	308.39
811.664	193.7
811.843	277.67
812.022	277.67
812.201	228.52
812.38	222.38
812.559	183.46
812.737	199.85
812.916	240.81
813.095	185.51
813.274	193.7
813.453	255.14
813.632	146.6
813.811	275.62
813.989	195.75
814.168	216.23
814.347	191.66
814.526	240.81
814.704	249
814.883	193.7
815.062	189.61
815.24	259.24
815.419	218.28
815.598	251.05
815.776	154.79
815.955	189.61
816.133	212.14
816.312	253.09
816.49	183.46
816.669	144.55
816.847	220.33
817.026	208.04
817.204	240.81
817.383	156.84
817.561	171.18
817.74	220.33
817.918	265.38
818.097	152.74
818.275	183.46
818.453	130.22
818.632	212.14
818.81	167.08
818.988	160.94
819.167	148.65
819.345	195.75
819.523	224.42
819.701	193.7
819.879	205.99
820.058	279.72
820.236	255.14
820.414	160.94
820.592	171.18
820.77	140.46
820.948	150.7
821.127	177.32
821.305	203.94
821.483	195.75
821.661	130.22
821.839	187.56
822.017	130.22
822.195	107.69
822.373	205.99
822.551	140.46
822.729	156.84
822.907	165.03
823.085	169.13
823.262	156.84
823.44	117.93
823.618	117.93
823.796	240.81
823.974	187.56
824.152	158.89
824.329	117.93
824.507	119.98
824.685	199.85
824.863	146.6
825.04	167.08
825.218	105.64
825.396	152.74
825.574	134.31
825.751	122.02
825.929	185.51
826.107	146.6
826.284	214.18
826.462	91.31
826.639	81.07
826.817	128.17
826.994	183.46
827.172	124.07
827.349	117.93
827.527	148.65
827.704	218.28
827.882	97.45
828.059	187.56
828.237	150.7
828.414	89.26
828.591	109.74
828.769	111.78
828.946	201.9
829.124	72.87
829.301	134.31
829.478	208.04
829.655	76.97
829.833	128.17
830.01	119.98
830.187	83.11
830.364	187.56
830.542	103.59
830.719	187.56
830.896	128.17
831.073	177.32
831.25	109.74
831.427	154.79
831.604	29.87
831.782	130.22
831.959	224.42
832.136	74.92
832.313	95.4
832.49	72.87
832.667	113.83
832.844	42.15
833.021	146.6
833.198	156.84
833.374	83.11
833.551	101.55
833.728	107.69
833.905	70.83
834.082	60.59
834.259	117.93
834.436	115.88
834.612	113.83
834.789	146.6
834.966	101.55
835.143	128.17
835.319	130.22
835.496	81.07
835.673	146.6
835.85	134.31
836.026	111.78
836.203	99.5
836.38	126.12
836.556	50.35
836.733	87.21
836.909	162.98
837.086	124.07
837.262	23.72
837.439	109.74
837.616	68.78
837.792	158.89
837.968	36.01
838.145	89.26
838.321	113.83
838.498	52.39
838.674	148.65
838.851	68.78
839.027	58.54
839.203	95.4
839.38	140.46
839.556	103.59
839.732	105.64
839.909	58.54
840.085	228.52
840.261	109.74
840.437	158.89
840.614	52.39
840.79	171.18
840.966	197.8
841.142	132.26
841.318	117.93
841.494	87.21
841.671	60.59
841.847	66.73
842.023	48.3
842.199	117.93
842.375	162.98
842.551	74.92
842.727	72.87
842.903	97.45
843.079	74.92
843.255	76.97
843.431	95.4
843.607	124.07
843.783	54.44
843.959	130.22
844.134	126.12
844.31	109.74
844.486	66.73
844.662	44.2
844.838	109.74
845.013	40.11
845.189	165.03
845.365	85.16
845.541	105.64
845.716	62.63
845.892	124.07
846.068	44.2
846.244	23.72
846.419	83.11
846.595	-29.52
846.77	68.78
846.946	91.31
847.122	105.64
847.297	11.43
847.473	50.35
847.648	56.49
847.824	68.78
847.999	62.63
848.175	11.43
848.35	19.63
848.526	140.46
848.701	113.83
848.876	97.45
849.052	128.17
849.227	79.02
849.403	-4.95
849.578	99.5
849.753	76.97
849.929	93.35
850.104	68.78
850.279	27.82
850.454	29.87
850.63	117.93
850.805	48.3
850.98	33.96
851.155	142.5
851.33	33.96
851.505	29.87
851.681	76.97
851.856	9.39
852.031	103.59
852.206	56.49
852.381	-2.9
852.556	95.4
852.731	130.22
852.906	76.97
853.081	124.07
853.256	79.02
853.431	122.02
853.606	64.68
853.781	-21.33
853.956	111.78
854.131	81.07
854.305	23.72
854.48	42.15
854.655	36.01
854.83	60.59
855.005	68.78
855.18	93.35
855.354	44.2
855.529	44.2
855.704	3.24
855.879	158.89
856.053	-33.62
856.228	79.02
856.403	-70.48
856.577	89.26
856.752	115.88
856.926	52.39
857.101	48.3
857.276	48.3
857.45	107.69
857.625	128.17
857.799	33.96
857.974	58.54
858.148	27.82
858.323	58.54
858.497	89.26
858.672	140.46
858.846	29.87
859.02	44.2
859.195	54.44
859.369	83.11
859.543	44.2
859.718	52.39
859.892	42.15
860.066	44.2
860.241	52.39
860.415	87.21
860.589	81.07
860.763	64.68
860.938	99.5
861.112	52.39
861.286	52.39
861.46	101.55
861.634	72.87
861.808	58.54
861.982	126.12
862.157	111.78
862.331	91.31
862.505	42.15
862.679	-19.29
862.853	-21.33
863.027	15.53
863.201	113.83
863.375	27.82
863.549	83.11
863.722	21.67
863.896	60.59
864.07	124.07
864.244	109.74
864.418	89.26
864.592	21.67
864.766	9.39
864.939	83.11
865.113	-25.43
865.287	103.59
865.461	105.64
865.634	25.77
865.808	36.01
865.982	50.35
866.156	56.49
866.329	66.73
866.503	-25.43
866.676	74.92
866.85	11.43
867.024	-17.24
867.197	72.87
867.371	17.58
867.544	81.07
867.718	60.59
867.891	76.97
868.065	66.73
868.238	89.26
868.412	54.44
868.585	91.31
868.759	109.74
868.932	-9.05
869.105	-9.05
869.279	42.15
869.452	15.53
869.625	158.89
869.799	109.74
869.972	33.96
870.145	17.58
870.319	66.73
870.492	44.2
870.665	25.77
870.838	68.78
871.011	-31.57
871.185	93.35
871.358	50.35
871.531	19.63
871.704	42.15
871.877	29.87
872.05	-19.29
872.223	44.2
872.396	-13.14
872.569	40.11
872.742	-4.95
872.915	117.93
873.088	42.15
873.261	13.48
873.434	54.44
873.607	81.07
873.78	91.31
873.953	42.15
874.126	68.78
874.299	40.11
874.471	83.11
874.644	-25.43
874.817	5.29
874.99	50.35
875.163	27.82
875.335	70.83
875.508	-66.39
875.681	-0.85
875.853	29.87
876.026	27.82
876.199	128.17
876.371	93.35
876.544	36.01
876.717	3.24
876.889	83.11
877.062	15.53
877.234	68.78
877.407	54.44
877.579	70.83
877.752	68.78
877.924	-35.67
878.097	54.44
878.269	50.35
878.442	11.43
878.614	19.63
878.786	31.91
878.959	-29.52
879.131	42.15
879.303	-54.1
879.476	-9.05
879.648	40.11
879.82	-7
879.993	-21.33
880.165	1.19
880.337	54.44
880.509	9.39
880.681	-33.62
880.854	-15.19
881.026	36.01
881.198	87.21
881.37	3.24
881.542	-9.05
881.714	-2.9
881.886	79.02
882.058	72.87
882.23	107.69
882.402	7.34
882.574	9.39
882.746	-13.14
882.918	68.78
883.09	122.02
883.262	23.72
883.434	64.68
883.606	13.48
883.778	40.11
883.95	36.01
884.122	27.82
884.293	76.97
884.465	21.67
884.637	36.01
884.809	85.16
884.98	109.74
885.152	23.72
885.324	-21.33
885.496	56.49
885.667	-25.43
885.839	29.87
886.011	58.54
886.182	60.59
886.354	44.2
886.525	31.91
886.697	50.35
886.869	95.4
887.04	48.3
887.212	70.83
887.383	33.96
887.555	56.49
887.726	68.78
887.897	-19.29
888.069	-19.29
888.24	89.26
888.412	-4.95
888.583	11.43
888.754	-2.9
888.926	-25.43
889.097	-19.29
889.268	42.15
889.44	7.34
889.611	17.58
889.782	40.11
889.953	-13.14
890.125	27.82
890.296	15.53
890.467	50.35
890.638	81.07
890.809	5.29
890.98	-4.95
891.151	115.88
891.323	-31.57
891.494	7.34
891.665	31.91
891.836	48.3
892.007	-7
892.178	58.54
892.349	85.16
892.52	44.2
892.691	122.02
892.862	70.83
893.032	-13.14
893.203	56.49
893.374	101.55
893.545	11.43
893.716	-82.77
893.887	50.35
894.057	42.15
894.228	36.01
894.399	27.82
894.57	40.11
894.74	-13.14
894.911	17.58
895.082	-4.95
895.253	-7
895.423	-37.72
895.594	70.83
895.764	64.68
895.935	-19.29
896.106	95.4
896.276	-4.95
896.447	93.35
896.617	89.26
896.788	-29.52
896.958	76.97
897.129	52.39
897.299	-58.2
897.47	27.82
897.64	64.68
897.81	83.11
897.981	54.44
898.151	42.15
898.322	-45.91
898.492	33.96
898.662	62.63
898.832	-39.76
899.003	3.24
899.173	25.77
899.343	-58.2
899.513	48.3
