Data from USB4F104151__242__10-30-56-006.txt Node

Date: Wed Mar 12 10:30:56 EDT 2025
User: louis
Spectrometer: USB4F10415
Trigger mode: 4
Integration Time (sec): 3.000000E-2
Scans to average: 1
Electric dark correction enabled: true
Nonlinearity correction enabled: false
Boxcar width: 0
XAxis mode: Wavelengths
Number of Pixels in Spectrum: 3648
>>>>>Begin Spectral Data<<<<<
178.204	-96.77
178.424	-96.77
178.644	-96.77
178.864	-129.53
179.084	-119.29
179.304	48.64
179.524	-0.51
179.744	-23.04
179.964	-6.66
180.184	54.78
180.404	-6.66
180.624	30.21
180.844	-8.7
181.064	-64
181.283	13.82
181.503	-59.9
181.723	22.02
181.943	13.82
182.163	71.17
182.383	11.78
182.602	93.69
182.822	73.21
183.042	-27.14
183.262	7.68
183.482	-35.33
183.701	52.74
183.921	44.54
184.141	-25.09
184.361	75.26
184.58	-4.61
184.8	24.06
185.02	-18.94
185.239	11.78
185.459	3.58
185.679	-8.7
185.898	-16.9
186.118	17.92
186.338	52.74
186.557	-6.66
186.777	-8.7
186.997	11.78
187.216	1.54
187.436	54.78
187.655	7.68
187.875	-16.9
188.095	-4.61
188.314	87.55
188.534	9.73
188.753	1.54
188.973	19.97
189.192	-2.56
189.412	62.98
189.631	-16.9
189.851	-14.85
190.07	40.45
190.29	-43.52
190.509	24.06
190.729	-29.18
190.948	38.4
191.168	120.32
191.387	85.5
191.607	38.4
191.826	-47.62
192.045	7.68
192.265	65.02
192.484	32.26
192.704	-10.75
192.923	13.82
193.142	73.21
193.362	1.54
193.581	62.98
193.8	38.4
194.02	99.84
194.239	-12.8
194.458	30.21
194.678	-23.04
194.897	65.02
195.116	-53.76
195.335	38.4
195.555	28.16
195.774	5.63
195.993	81.41
196.212	32.26
196.432	-20.99
196.651	95.74
196.87	22.02
197.089	50.69
197.308	87.55
197.528	99.84
197.747	-4.61
197.966	128.51
198.185	130.56
198.404	54.78
198.623	40.45
198.842	13.82
199.062	89.6
199.281	24.06
199.5	3.58
199.719	13.82
199.938	48.64
200.157	67.07
200.376	7.68
200.595	77.31
200.814	-29.18
201.033	38.4
201.252	7.68
201.471	87.55
201.69	32.26
201.909	-49.66
202.128	15.87
202.347	26.11
202.566	17.92
202.785	32.26
203.004	48.64
203.223	75.26
203.442	48.64
203.661	17.92
203.879	-2.56
204.098	34.3
204.317	-0.51
204.536	138.75
204.755	-0.51
204.974	28.16
205.193	7.68
205.411	77.31
205.63	11.78
205.849	-41.47
206.068	5.63
206.287	77.31
206.505	42.5
206.724	32.26
206.943	3.58
207.162	58.88
207.381	11.78
207.599	7.68
207.818	36.35
208.037	60.93
208.255	101.89
208.474	-14.85
208.693	38.4
208.911	-8.7
209.13	89.6
209.349	17.92
209.567	40.45
209.786	-18.94
210.005	13.82
210.223	19.97
210.442	-45.57
210.661	91.65
210.879	30.21
211.098	32.26
211.316	-57.86
211.535	48.64
211.753	46.59
211.972	60.93
212.191	-12.8
212.409	7.68
212.628	17.92
212.846	1.54
213.065	38.4
213.283	87.55
213.502	44.54
213.72	52.74
213.938	-16.9
214.157	-43.52
214.375	-10.75
214.594	40.45
214.812	48.64
215.031	44.54
215.249	11.78
215.467	36.35
215.686	71.17
215.904	11.78
216.122	15.87
216.341	93.69
216.559	44.54
216.778	44.54
216.996	105.98
217.214	54.78
217.432	30.21
217.651	7.68
217.869	114.17
218.087	19.97
218.306	-2.56
218.524	60.93
218.742	7.68
218.96	30.21
219.179	38.4
219.397	60.93
219.615	7.68
219.833	87.55
220.051	-0.51
220.27	15.87
220.488	24.06
220.706	77.31
220.924	7.68
221.142	26.11
221.36	32.26
221.578	11.78
221.796	-49.66
222.015	-37.38
222.233	38.4
222.451	38.4
222.669	-25.09
222.887	9.73
223.105	-8.7
223.323	105.98
223.541	9.73
223.759	38.4
223.977	9.73
224.195	89.6
224.413	77.31
224.631	-39.42
224.849	-29.18
225.067	77.31
225.285	-25.09
225.503	60.93
225.721	-109.05
225.939	44.54
226.157	22.02
226.375	58.88
226.592	-14.85
226.81	1.54
227.028	77.31
227.246	155.13
227.464	26.11
227.682	15.87
227.9	73.21
228.117	19.97
228.335	-10.75
228.553	17.92
228.771	-12.8
228.989	46.59
229.206	62.98
229.424	65.02
229.642	24.06
229.86	26.11
230.077	38.4
230.295	-8.7
230.513	32.26
230.731	44.54
230.948	132.61
231.166	89.6
231.384	28.16
231.601	75.26
231.819	60.93
232.037	-37.38
232.254	32.26
232.472	97.79
232.689	-25.09
232.907	77.31
233.125	62.98
233.342	-20.99
233.56	-4.61
233.777	28.16
233.995	42.5
234.213	-12.8
234.43	54.78
234.648	46.59
234.865	85.5
235.083	65.02
235.3	71.17
235.518	83.45
235.735	103.93
235.953	38.4
236.17	60.93
236.388	54.78
236.605	73.21
236.822	58.88
237.04	60.93
237.257	1.54
237.475	3.58
237.692	-100.86
237.909	-25.09
238.127	-25.09
238.344	101.89
238.562	75.26
238.779	-6.66
238.996	38.4
239.214	60.93
239.431	30.21
239.648	110.08
239.865	89.6
240.083	69.12
240.3	-0.51
240.517	122.37
240.735	81.41
240.952	52.74
241.169	136.7
241.386	-16.9
241.603	-14.85
241.821	-27.14
242.038	99.84
242.255	95.74
242.472	-86.53
242.689	40.45
242.907	54.78
243.124	7.68
243.341	32.26
243.558	17.92
243.775	-12.8
243.992	-49.66
244.209	50.69
244.426	77.31
244.643	15.87
244.86	40.45
245.078	15.87
245.295	15.87
245.512	103.93
245.729	-12.8
245.946	103.93
246.163	52.74
246.38	89.6
246.597	81.41
246.814	-27.14
247.031	163.33
247.248	54.78
247.464	40.45
247.681	-33.28
247.898	34.3
248.115	-16.9
248.332	-66.05
248.549	7.68
248.766	153.09
248.983	28.16
249.2	22.02
249.417	85.5
249.633	-61.95
249.85	52.74
250.067	54.78
250.284	-37.38
250.501	48.64
250.717	91.65
250.934	32.26
251.151	-10.75
251.368	26.11
251.585	-0.51
251.801	-2.56
252.018	3.58
252.235	83.45
252.451	-57.86
252.668	46.59
252.885	97.79
253.102	26.11
253.318	-29.18
253.535	15.87
253.752	11.78
253.968	-35.33
254.185	-37.38
254.401	81.41
254.618	38.4
254.835	28.16
255.051	44.54
255.268	24.06
255.484	62.98
255.701	24.06
255.917	15.87
256.134	-39.42
256.351	79.36
256.567	36.35
256.784	54.78
257	1.54
257.217	36.35
257.433	-29.18
257.65	93.69
257.866	46.59
258.082	9.73
258.299	11.78
258.515	-16.9
258.732	34.3
258.948	56.83
259.165	-39.42
259.381	22.02
259.597	15.87
259.814	54.78
260.03	46.59
260.246	24.06
260.463	36.35
260.679	73.21
260.895	65.02
261.112	56.83
261.328	15.87
261.544	-8.7
261.761	48.64
261.977	-12.8
262.193	44.54
262.409	42.5
262.626	1.54
262.842	44.54
263.058	-25.09
263.274	46.59
263.49	52.74
263.707	24.06
263.923	48.64
264.139	-45.57
264.355	85.5
264.571	46.59
264.787	36.35
265.004	56.83
265.22	81.41
265.436	38.4
265.652	85.5
265.868	87.55
266.084	36.35
266.3	30.21
266.516	46.59
266.732	-2.56
266.948	19.97
267.164	42.5
267.38	-4.61
267.596	87.55
267.812	58.88
268.028	52.74
268.244	24.06
268.46	105.98
268.676	24.06
268.892	56.83
269.108	26.11
269.324	-0.51
269.54	48.64
269.756	73.21
269.972	50.69
270.188	7.68
270.403	5.63
270.619	73.21
270.835	-16.9
271.051	36.35
271.267	7.68
271.483	17.92
271.698	40.45
271.914	44.54
272.13	28.16
272.346	32.26
272.562	-20.99
272.777	132.61
272.993	54.78
273.209	1.54
273.425	28.16
273.64	32.26
273.856	48.64
274.072	-51.71
274.287	44.54
274.503	71.17
274.719	-12.8
274.934	46.59
275.15	-49.66
275.366	-41.47
275.581	3.58
275.797	-20.99
276.012	19.97
276.228	22.02
276.444	-0.51
276.659	140.8
276.875	-57.86
277.09	93.69
277.306	58.88
277.521	56.83
277.737	73.21
277.952	79.36
278.168	7.68
278.383	32.26
278.599	54.78
278.814	22.02
279.03	32.26
279.245	58.88
279.461	54.78
279.676	54.78
279.892	15.87
280.107	54.78
280.322	-10.75
280.538	44.54
280.753	30.21
280.969	130.56
281.184	93.69
281.399	11.78
281.615	-6.66
281.83	-35.33
282.045	15.87
282.26	-35.33
282.476	-2.56
282.691	13.82
282.906	15.87
283.122	46.59
283.337	34.3
283.552	26.11
283.767	44.54
283.983	11.78
284.198	11.78
284.413	-41.47
284.628	-98.81
284.843	28.16
285.058	48.64
285.274	32.26
285.489	7.68
285.704	99.84
285.919	40.45
286.134	32.26
286.349	26.11
286.564	81.41
286.779	30.21
286.995	46.59
287.21	22.02
287.425	54.78
287.64	-37.38
287.855	65.02
288.07	5.63
288.285	79.36
288.5	26.11
288.715	44.54
288.93	-29.18
289.145	34.3
289.36	-8.7
289.575	105.98
289.79	48.64
290.004	40.45
290.219	73.21
290.434	-18.94
290.649	-4.61
290.864	132.61
291.079	-0.51
291.294	75.26
291.509	95.74
291.724	1.54
291.938	36.35
292.153	73.21
292.368	-16.9
292.583	52.74
292.798	73.21
293.012	52.74
293.227	48.64
293.442	87.55
293.657	50.69
293.871	77.31
294.086	60.93
294.301	67.07
294.516	69.12
294.73	28.16
294.945	3.58
295.16	56.83
295.374	48.64
295.589	46.59
295.804	-23.04
296.018	32.26
296.233	71.17
296.447	1.54
296.662	-25.09
296.877	130.56
297.091	19.97
297.306	32.26
297.52	19.97
297.735	126.46
297.949	19.97
298.164	118.27
298.378	-0.51
298.593	38.4
298.807	185.85
299.022	93.69
299.236	48.64
299.451	-41.47
299.665	22.02
299.88	48.64
300.094	44.54
300.309	-68.09
300.523	65.02
300.737	28.16
300.952	-6.66
301.166	40.45
301.381	48.64
301.595	-2.56
301.809	1.54
302.024	87.55
302.238	17.92
302.452	46.59
302.667	58.88
302.881	69.12
303.095	44.54
303.309	40.45
303.524	48.64
303.738	-8.7
303.952	-18.94
304.166	69.12
304.381	-29.18
304.595	11.78
304.809	46.59
305.023	95.74
305.237	-27.14
305.452	7.68
305.666	9.73
305.88	28.16
306.094	28.16
306.308	73.21
306.522	93.69
306.736	15.87
306.95	73.21
307.164	24.06
307.379	46.59
307.593	24.06
307.807	54.78
308.021	87.55
308.235	54.78
308.449	-6.66
308.663	-25.09
308.877	97.79
309.091	28.16
309.305	26.11
309.519	-10.75
309.733	118.27
309.947	3.58
310.161	97.79
310.374	-10.75
310.588	28.16
310.802	5.63
311.016	48.64
311.23	71.17
311.444	28.16
311.658	62.98
311.872	105.98
312.085	34.3
312.299	46.59
312.513	60.93
312.727	44.54
312.941	-12.8
313.154	-6.66
313.368	67.07
313.582	58.88
313.796	19.97
314.009	7.68
314.223	-4.61
314.437	161.28
314.651	38.4
314.864	46.59
315.078	11.78
315.292	-41.47
315.505	-49.66
315.719	42.5
315.933	91.65
316.146	-55.81
316.36	-14.85
316.573	11.78
316.787	34.3
317.001	15.87
317.214	40.45
317.428	19.97
317.641	40.45
317.855	-18.94
318.068	-35.33
318.282	40.45
318.495	77.31
318.709	-0.51
318.922	-12.8
319.136	89.6
319.349	15.87
319.563	-10.75
319.776	-10.75
319.99	-12.8
320.203	60.93
320.417	42.5
320.63	42.5
320.843	108.03
321.057	48.64
321.27	11.78
321.483	56.83
321.697	38.4
321.91	-14.85
322.124	87.55
322.337	79.36
322.55	32.26
322.763	3.58
322.977	40.45
323.19	9.73
323.403	83.45
323.617	-14.85
323.83	-6.66
324.043	38.4
324.256	22.02
324.469	52.74
324.683	24.06
324.896	-8.7
325.109	46.59
325.322	15.87
325.535	101.89
325.748	93.69
325.962	-37.38
326.175	122.37
326.388	58.88
326.601	159.23
326.814	75.26
327.027	81.41
327.24	101.89
327.453	3.58
327.666	95.74
327.879	-0.51
328.092	52.74
328.305	-59.9
328.518	-12.8
328.731	26.11
328.944	108.03
329.157	60.93
329.37	-18.94
329.583	124.41
329.796	48.64
330.009	22.02
330.222	56.83
330.435	93.69
330.648	34.3
330.861	52.74
331.073	32.26
331.286	73.21
331.499	34.3
331.712	11.78
331.925	62.98
332.138	89.6
332.35	19.97
332.563	19.97
332.776	65.02
332.989	30.21
333.202	32.26
333.414	30.21
333.627	-8.7
333.84	19.97
334.053	-31.23
334.265	7.68
334.478	-14.85
334.691	24.06
334.903	-31.23
335.116	11.78
335.329	17.92
335.541	58.88
335.754	110.08
335.966	-16.9
336.179	71.17
336.392	15.87
336.604	77.31
336.817	67.07
337.029	77.31
337.242	36.35
337.454	58.88
337.667	65.02
337.88	75.26
338.092	60.93
338.305	5.63
338.517	58.88
338.729	83.45
338.942	97.79
339.154	-8.7
339.367	93.69
339.579	7.68
339.792	46.59
340.004	99.84
340.217	22.02
340.429	30.21
340.641	15.87
340.854	69.12
341.066	50.69
341.278	17.92
341.491	97.79
341.703	34.3
341.915	62.98
342.128	42.5
342.34	69.12
342.552	-53.76
342.764	38.4
342.977	93.69
343.189	60.93
343.401	77.31
343.613	54.78
343.826	32.26
344.038	48.64
344.25	95.74
344.462	15.87
344.674	73.21
344.886	24.06
345.099	-20.99
345.311	83.45
345.523	-4.61
345.735	-51.71
345.947	81.41
346.159	91.65
346.371	26.11
346.583	73.21
346.795	71.17
347.007	24.06
347.219	56.83
347.431	50.69
347.643	120.32
347.855	17.92
348.067	52.74
348.279	13.82
348.491	26.11
348.703	32.26
348.915	89.6
349.127	22.02
349.339	75.26
349.551	34.3
349.763	73.21
349.975	79.36
350.187	77.31
350.399	97.79
350.61	108.03
350.822	-6.66
351.034	-39.42
351.246	44.54
351.458	134.65
351.669	44.54
351.881	56.83
352.093	40.45
352.305	73.21
352.517	36.35
352.728	46.59
352.94	58.88
353.152	71.17
353.363	54.78
353.575	110.08
353.787	103.93
353.999	28.16
354.21	38.4
354.422	-12.8
354.633	-20.99
354.845	17.92
355.057	56.83
355.268	118.27
355.48	73.21
355.692	32.26
355.903	15.87
356.115	58.88
356.326	-29.18
356.538	46.59
356.749	42.5
356.961	-20.99
357.172	50.69
357.384	15.87
357.595	48.64
357.807	46.59
358.018	13.82
358.23	7.68
358.441	122.37
358.653	91.65
358.864	77.31
359.075	75.26
359.287	-8.7
359.498	-43.52
359.709	67.07
359.921	112.13
360.132	46.59
360.344	22.02
360.555	19.97
360.766	128.51
360.977	44.54
361.189	85.5
361.4	17.92
361.611	26.11
361.823	114.17
362.034	26.11
362.245	-6.66
362.456	-2.56
362.667	62.98
362.879	67.07
363.09	40.45
363.301	87.55
363.512	24.06
363.723	32.26
363.935	62.98
364.146	26.11
364.357	56.83
364.568	91.65
364.779	62.98
364.99	83.45
365.201	5.63
365.412	50.69
365.623	-29.18
365.834	71.17
366.045	67.07
366.256	79.36
366.467	40.45
366.678	17.92
366.889	67.07
367.1	22.02
367.311	56.83
367.522	50.69
367.733	118.27
367.944	60.93
368.155	136.7
368.366	122.37
368.577	126.46
368.788	110.08
368.999	36.35
369.209	77.31
369.42	56.83
369.631	122.37
369.842	58.88
370.053	81.41
370.264	71.17
370.474	44.54
370.685	50.69
370.896	32.26
371.107	130.56
371.317	3.58
371.528	1.54
371.739	142.85
371.95	7.68
372.16	79.36
372.371	28.16
372.582	118.27
372.792	77.31
373.003	112.13
373.214	73.21
373.424	140.8
373.635	5.63
373.846	83.45
374.056	40.45
374.267	69.12
374.477	32.26
374.688	13.82
374.898	89.6
375.109	50.69
375.319	97.79
375.53	79.36
375.74	71.17
375.951	89.6
376.161	93.69
376.372	91.65
376.582	95.74
376.793	97.79
377.003	28.16
377.214	89.6
377.424	112.13
377.635	58.88
377.845	130.56
378.055	62.98
378.266	19.97
378.476	91.65
378.686	56.83
378.897	7.68
379.107	40.45
379.317	56.83
379.528	38.4
379.738	87.55
379.948	101.89
380.158	87.55
380.369	89.6
380.579	38.4
380.789	52.74
380.999	-18.94
381.21	171.52
381.42	48.64
381.63	50.69
381.84	81.41
382.05	32.26
382.261	81.41
382.471	95.74
382.681	77.31
382.891	146.94
383.101	103.93
383.311	5.63
383.521	85.5
383.731	52.74
383.941	99.84
384.151	22.02
384.361	85.5
384.571	99.84
384.781	118.27
384.991	87.55
385.201	120.32
385.411	128.51
385.621	-18.94
385.831	101.89
386.041	73.21
386.251	97.79
386.461	105.98
386.671	22.02
386.881	52.74
387.091	101.89
387.301	60.93
387.511	24.06
387.72	15.87
387.93	65.02
388.14	75.26
388.35	46.59
388.56	56.83
388.769	93.69
388.979	32.26
389.189	13.82
389.399	71.17
389.609	134.65
389.818	58.88
390.028	75.26
390.238	110.08
390.447	52.74
390.657	97.79
390.867	30.21
391.076	42.5
391.286	130.56
391.496	83.45
391.705	65.02
391.915	24.06
392.125	110.08
392.334	95.74
392.544	132.61
392.753	103.93
392.963	132.61
393.172	69.12
393.382	167.42
393.591	110.08
393.801	52.74
394.01	159.23
394.22	142.85
394.429	91.65
394.639	46.59
394.848	151.04
395.058	67.07
395.267	122.37
395.477	112.13
395.686	144.89
395.895	194.05
396.105	122.37
396.314	97.79
396.524	93.69
396.733	73.21
396.942	136.7
397.152	120.32
397.361	183.81
397.57	161.28
397.78	128.51
397.989	50.69
398.198	212.48
398.407	120.32
398.617	110.08
398.826	175.61
399.035	122.37
399.244	142.85
399.453	97.79
399.663	79.36
399.872	114.17
400.081	93.69
400.29	91.65
400.499	67.07
400.708	196.09
400.917	155.13
401.127	130.56
401.336	105.98
401.545	140.8
401.754	218.62
401.963	161.28
402.172	200.19
402.381	110.08
402.59	153.09
402.799	181.76
403.008	146.94
403.217	144.89
403.426	212.48
403.635	146.94
403.844	118.27
404.053	192
404.262	224.76
404.471	241.15
404.68	251.39
404.888	204.28
405.097	216.57
405.306	202.24
405.515	261.63
405.724	167.42
405.933	189.95
406.142	282.11
406.35	286.2
406.559	282.11
406.768	257.53
406.977	304.64
407.185	282.11
407.394	314.88
407.603	216.57
407.812	300.54
408.02	364.03
408.229	355.83
408.438	265.72
408.646	359.93
408.855	323.07
409.064	339.45
409.272	296.44
409.481	423.42
409.69	298.49
409.898	419.32
410.107	394.75
410.315	380.41
410.524	435.71
410.733	470.52
410.941	429.56
411.15	554.49
411.358	488.95
411.567	572.92
411.775	542.2
411.984	585.21
412.192	572.92
412.401	642.55
412.609	693.75
412.818	628.21
413.026	691.7
413.234	658.93
413.443	753.14
413.651	767.48
413.86	722.42
414.068	865.78
414.276	865.78
414.485	898.55
414.693	873.97
414.901	929.27
415.11	914.93
415.318	896.5
415.526	980.47
415.734	1103.34
415.943	1115.63
416.151	1064.43
416.359	1138.16
416.567	1207.79
416.776	1275.37
416.984	1351.15
417.192	1308.14
417.4	1283.56
417.608	1336.81
417.817	1435.11
418.025	1535.46
418.233	1603.05
418.441	1637.86
418.649	1586.66
418.857	1695.21
419.065	1883.62
419.273	1764.84
419.481	1813.99
419.689	1957.35
419.897	2055.65
420.105	2045.41
420.313	2196.96
420.521	2186.72
420.729	2303.45
420.937	2434.52
421.145	2434.52
421.353	2602.46
421.561	2686.42
421.769	2833.88
421.977	2846.16
422.185	2858.45
422.393	2985.43
422.601	3067.35
422.809	3143.12
423.017	3243.47
423.224	3247.57
423.432	3395.02
423.64	3456.46
423.848	3802.57
424.056	3751.37
424.263	3935.68
424.471	3923.4
424.679	4056.51
424.887	4148.67
425.094	4363.71
425.302	4267.45
425.51	4656.57
425.718	4912.57
425.925	4709.82
426.133	4986.29
426.341	5305.78
426.548	5426.61
426.756	5524.91
426.964	5477.8
427.171	5840.29
427.379	6020.52
427.586	6133.15
427.794	6237.6
428.001	6534.56
428.209	6833.56
428.417	6745.5
428.624	7294.35
428.832	7191.95
429.039	7116.18
429.247	7081.36
429.454	7812.49
429.662	8326.53
429.869	7693.71
430.076	8357.25
430.284	8201.6
430.491	8467.84
430.699	8979.83
430.906	9043.32
431.114	8957.3
431.321	9393.52
431.528	9659.76
431.736	10108.26
431.943	10769.76
432.15	10464.61
432.358	10569.05
432.565	11007.32
432.772	11226.45
432.979	11662.67
433.187	11746.64
433.394	11752.78
433.601	12672.32
433.808	12754.24
434.016	12535.1
434.223	12989.75
434.43	13886.76
434.637	13583.66
434.844	14304.55
435.052	14591.27
435.259	14595.36
435.466	14830.88
435.673	14861.6
435.88	15736.08
436.087	16360.71
436.294	16348.42
436.501	15944.97
436.708	16528.64
436.915	16844.03
437.122	17695.99
437.329	17626.36
437.537	17849.58
437.743	18619.62
437.95	18367.72
438.157	19367.13
438.364	19864.78
438.571	19942.61
438.778	20036.81
438.985	22058.16
439.192	21163.2
439.399	21945.52
439.606	21044.41
439.813	22424.75
440.02	23823.51
440.227	23631
440.433	23116.96
440.64	23983.25
440.847	23655.58
441.054	24102.03
441.261	25793.65
441.467	25437.31
441.674	25853.05
441.881	27001.96
442.088	26815.59
442.294	26461.29
442.501	27321.44
442.708	27677.79
442.914	28902.47
443.121	30278.71
443.328	29123.65
443.534	31591.45
443.741	30751.79
443.948	30186.55
444.154	32396.31
444.361	31818.78
444.568	32455.7
444.774	32474.13
444.981	32558.1
445.187	33696.77
445.394	34931.69
445.6	34212.85
445.807	37512.13
446.013	35943.39
446.22	36897.74
446.426	37950.4
446.633	38259.64
446.839	39609.25
447.046	38077.37
447.252	40221.59
447.459	40194.97
447.665	39678.88
447.871	41915.26
448.078	43414.38
448.284	41526.15
448.491	42171.26
448.697	43948.9
448.903	44825.43
449.11	44852.05
449.316	43996
449.522	44944.21
449.728	45943.62
449.935	46197.57
450.141	46273.34
450.347	47418.16
450.553	46078.78
450.76	46545.72
450.966	47899.43
451.172	47352.62
451.378	48337.69
451.584	47620.91
451.791	48648.99
451.997	47547.18
452.203	49181.46
452.409	49437.45
452.615	48464.67
452.821	47209.26
453.027	46943.03
453.233	49386.25
453.44	46773.05
453.646	47121.2
453.852	47811.37
454.058	48313.12
454.264	46656.31
454.47	47881
454.676	46304.06
454.882	48290.59
455.088	44340.06
455.294	44630.87
455.5	45370.19
455.705	45677.38
455.911	43973.47
456.117	43172.72
456.323	42648.44
456.529	40176.54
456.735	42023.81
456.941	41073.55
457.147	40389.53
457.352	38839.22
457.558	38484.92
457.764	38802.35
457.97	37825.47
458.176	36994
458.381	37458.88
458.587	34999.27
458.793	35103.72
458.999	33766.4
459.204	35810.27
459.41	34628.59
459.616	32443.41
459.821	32427.03
460.027	32244.76
460.233	31966.23
460.438	30247.99
460.644	30616.62
460.85	29008.97
461.055	28609.61
461.261	28869.7
461.466	26809.45
461.672	25820.28
461.878	27446.37
462.083	26006.64
462.289	25427.07
462.494	25134.21
462.7	24083.6
462.905	23637.14
463.111	24355.98
463.316	24415.37
463.522	23702.68
463.727	23766.17
463.932	23745.69
464.138	23702.68
464.343	23602.33
464.549	23080.1
464.754	23817.36
464.959	23370.91
465.165	23272.6
465.37	22471.85
465.575	21779.64
465.781	22840.48
465.986	22867.11
466.191	21933.23
466.397	21474.49
466.602	20319.43
466.807	21380.28
467.012	21632.18
467.218	21304.51
467.423	21036.22
467.628	21077.18
467.833	21853.36
468.038	21206.2
468.244	20409.54
468.449	21400.76
468.654	20464.84
468.859	20327.63
469.064	20366.54
469.269	19784.91
469.474	19776.72
469.679	19932.37
469.885	19399.9
470.09	20104.4
470.295	19737.81
470.5	18959.58
470.705	19244.25
470.91	18969.82
471.115	18617.57
471.32	18699.49
471.525	19066.08
471.73	18562.28
471.935	18416.87
472.139	17728.75
472.344	17874.16
472.549	17927.41
472.754	17683.7
472.959	17188.09
473.164	16702.72
473.369	16499.97
473.574	17460.47
473.778	16856.32
473.983	17116.41
474.188	16862.46
474.393	15924.49
474.598	16114.95
474.802	15787.28
475.007	15938.83
475.212	16045.32
475.417	15389.97
475.621	15265.05
475.826	15492.37
476.031	15070.49
476.235	14894.36
476.44	15168.79
476.645	14662.94
476.849	14720.29
477.054	14505.25
477.259	14413.09
477.463	14400.8
477.668	14077.23
477.872	14050.6
478.077	14019.88
478.282	13663.54
478.486	13550.9
478.691	13479.22
478.895	13561.14
479.1	13444.4
479.304	13382.96
479.509	13264.18
479.713	13299
479.918	13159.74
480.122	12836.16
480.326	12999.99
480.531	12776.77
480.735	12846.4
480.94	12838.2
481.144	13100.34
481.348	12422.47
481.553	12741.95
481.757	12404.03
481.961	12582.21
482.166	12500.29
482.37	12733.76
482.574	12254.53
482.778	12475.71
482.983	12879.16
483.187	12488
483.391	12551.49
483.595	12426.56
483.8	12205.38
484.004	12344.64
484.208	12553.54
484.412	12485.95
484.616	12524.86
484.821	12365.12
485.025	12291.4
485.229	12508.48
485.433	12537.15
485.637	12469.57
485.841	12455.23
486.045	12432.71
486.249	12442.95
486.453	12152.13
486.657	12422.47
486.861	12713.28
487.065	12229.96
487.269	12223.81
487.473	12027.21
487.677	12490.05
487.881	12533.06
488.085	12475.71
488.289	12467.52
488.493	12410.18
488.697	12459.33
488.901	12639.55
489.105	12516.67
489.309	12426.56
489.512	12727.61
489.716	12850.49
489.92	12500.29
490.124	12412.23
490.328	12715.33
490.531	12653.89
490.735	12737.85
490.939	12975.42
491.143	12801.34
491.346	12725.57
491.55	13032.76
491.754	13020.47
491.958	13028.67
492.161	13010.23
492.365	13135.16
492.569	12983.61
492.772	13051.19
492.976	13274.42
493.18	13307.19
493.383	13563.19
493.587	13450.55
493.79	13600.05
493.994	13671.73
494.197	13851.95
494.401	13800.75
494.605	13888.81
494.808	14064.94
495.012	14165.29
495.215	14251.3
495.419	14253.35
495.622	14359.84
495.825	14355.75
496.029	14525.73
496.232	15056.15
496.436	14683.42
496.639	15019.29
496.843	14996.76
497.046	15189.27
497.249	15449.36
497.453	15295.77
497.656	15832.33
497.859	15443.22
498.063	15912.21
498.266	16262.41
498.469	16510.21
498.673	16272.65
498.876	16655.62
499.079	16807.17
499.282	16676.1
499.485	17470.71
499.689	17138.94
499.892	17388.79
500.095	17612.02
500.298	17868.02
500.501	17825.01
500.705	18496.74
500.908	18398.44
501.111	18705.63
501.314	18672.87
501.517	19092.7
501.72	19162.33
501.923	19363.03
502.126	19578.07
502.329	19932.37
502.532	20090.06
502.735	20245.71
502.938	20585.67
503.141	20591.81
503.344	20839.62
503.547	21224.64
503.75	21144.77
503.953	21761.2
504.156	21820.6
504.359	22111.41
504.562	22078.64
504.765	22727.85
504.968	22731.94
505.17	22912.16
505.373	22840.48
505.576	23248.03
505.779	23739.54
505.982	23747.73
506.185	24280.21
506.387	24454.28
506.59	24538.25
506.793	25068.67
506.996	25113.73
507.198	25656.44
507.401	25547.9
507.604	25990.26
507.807	26483.82
508.009	26553.45
508.212	26598.51
508.415	27030.63
508.617	27487.32
508.82	27339.87
509.022	27634.78
509.225	28105.81
509.428	28482.64
509.63	28742.73
509.833	28626
510.035	29226.05
510.238	29578.3
510.44	29805.63
510.643	30106.68
510.845	30407.73
511.048	30182.45
511.25	31175.72
511.453	31034.41
511.655	32211.99
511.858	32029.72
512.06	32369.68
512.262	32459.79
512.465	32363.54
512.667	32990.22
512.87	32789.52
513.072	33152.01
513.274	34020.34
513.477	34077.69
513.679	34327.54
513.881	34808.81
514.084	35369.96
514.286	35251.17
514.488	35685.34
514.69	36502.48
514.893	36316.12
515.095	36582.35
515.297	37290.95
515.499	36973.52
515.701	37508.04
515.904	38052.8
516.106	38079.42
516.308	38855.6
516.51	39150.51
516.712	39046.06
516.914	39631.78
517.116	39998.37
517.318	40244.12
517.52	39969.69
517.722	40301.47
517.925	41417.61
518.127	41640.84
518.329	41786.24
518.531	41659.27
518.733	42617.72
518.935	42931.06
519.136	43182.96
519.338	43596.65
519.54	43811.68
519.742	44352.35
519.944	44587.86
520.146	45065.04
520.348	45032.27
520.55	45505.35
520.752	45574.98
520.954	46555.96
521.155	45837.12
521.357	46957.36
521.559	47070
521.761	47858.47
521.963	47825.7
522.164	47639.34
522.366	48104.23
522.568	48730.9
522.77	48880.41
522.971	49400.59
523.173	49173.27
523.375	49945.35
523.576	49838.86
523.778	50078.47
523.98	50553.6
524.181	50764.54
524.383	50717.43
524.584	51372.78
524.786	51628.78
524.988	51348.21
525.189	51929.83
525.391	52386.53
525.592	52345.57
525.794	52466.4
525.995	52927.19
526.197	53113.56
526.398	53162.71
526.6	53578.45
526.801	53807.82
527.003	53650.13
527.204	53828.3
527.406	54616.77
527.607	54565.57
527.808	54907.58
528.01	54186.69
528.211	54665.92
528.412	55411.38
528.614	55239.35
528.815	55292.6
529.016	56011.43
529.218	55558.83
529.419	55921.32
529.62	55890.6
529.822	56144.55
530.023	56009.39
530.224	56042.15
530.425	55718.57
530.626	55599.79
530.828	55788.2
531.029	56988.31
531.23	56437.41
531.431	56400.55
531.632	56814.24
531.833	57037.47
532.035	56685.22
532.236	57336.47
532.437	57684.62
532.638	56914.59
532.839	57313.94
533.04	57565.84
533.241	57152.15
533.442	57645.71
533.643	57877.13
533.844	57451.16
534.045	57111.19
534.246	56992.41
534.447	57598.61
534.648	57287.32
534.849	57447.06
535.05	57709.2
535.251	57445.01
535.451	57557.65
535.652	58112.65
535.853	57821.84
536.054	57541.27
536.255	57741.97
536.456	57430.68
536.657	57928.33
536.857	57625.23
537.058	57420.44
537.259	57737.87
537.46	58114.7
537.66	57715.34
537.861	57600.66
538.062	57295.51
538.263	57776.78
538.463	57545.36
538.664	57918.09
538.865	57887.37
539.065	57987.72
539.266	57229.97
539.466	58069.64
539.667	56994.46
539.868	58077.83
540.068	57641.62
540.269	57569.94
540.469	57823.89
540.67	57295.51
540.87	57825.93
541.071	57610.9
541.271	58282.63
541.472	57549.46
541.672	57217.69
541.873	57250.45
542.073	56623.78
542.274	57811.6
542.474	57442.96
542.675	57029.27
542.875	58032.78
543.075	57328.28
543.276	57016.99
543.476	57744.01
543.676	57090.71
543.877	57666.19
544.077	57844.37
544.277	57166.49
544.478	57287.32
544.678	57852.56
544.878	57442.96
545.078	57078.43
545.279	57019.03
545.479	57062.04
545.679	57418.39
545.879	57072.28
546.079	57463.44
546.28	56926.88
546.48	56920.73
546.68	57019.03
546.88	57373.33
547.08	57250.45
547.28	57094.81
547.48	56758.94
547.68	57025.18
547.88	56787.61
548.081	57461.4
548.281	57272.98
548.481	56591.01
548.681	57735.82
548.881	56926.88
549.081	57070.23
549.28	56672.93
549.48	57330.33
549.68	56500.9
549.88	57643.66
550.08	56980.12
550.28	57123.48
550.48	57141.91
550.68	57262.74
550.88	56443.55
551.08	56918.68
551.279	56806.05
551.479	56840.86
551.679	56804
551.879	56912.54
552.079	57234.07
552.278	56996.51
552.478	56832.67
552.678	56634.02
552.878	56769.18
553.077	56636.06
553.277	56519.33
553.477	57098.9
553.676	56494.75
553.876	56730.27
554.076	56847
554.275	56005.29
554.475	55952.04
554.674	56392.36
554.874	56666.78
555.074	55820.97
555.273	56459.94
555.473	56672.93
555.672	56240.81
555.872	56253.09
556.071	56109.74
556.271	56504.99
556.47	55982.76
556.67	55548.59
556.869	55456.43
557.068	55763.63
557.268	55659.18
557.467	55550.64
557.667	55716.53
557.866	55438
558.065	55548.59
558.265	55345.84
558.464	55016.12
558.663	55513.78
558.863	54796.99
559.062	55470.77
559.261	54868.67
559.461	55665.33
559.66	54874.81
559.859	55562.93
560.058	54526.66
560.258	54981.31
560.457	53959.37
560.656	54911.67
560.855	54497.98
561.054	54790.84
561.253	54442.69
561.453	54487.74
561.652	54649.53
561.851	54735.55
562.05	54399.68
562.249	53977.8
562.448	54069.96
562.647	53723.85
562.846	53779.15
563.045	54006.47
563.244	53502.67
563.443	53875.4
563.642	53226.2
563.841	53482.19
564.04	53064.41
564.239	53861.07
564.438	52710.11
564.637	53078.74
564.836	53211.86
565.035	52663
565.234	52478.69
565.432	52591.33
565.631	52255.46
565.83	52703.96
566.029	52048.61
566.228	52357.86
566.427	52243.17
566.625	52224.74
566.824	51505.9
567.023	52396.77
567.222	50877.18
567.42	51905.26
567.619	51301.11
567.818	51311.35
568.016	51180.28
568.215	51772.14
568.414	51020.53
568.612	52079.33
568.811	50998.01
569.01	51036.92
569.208	50594.56
569.407	50285.31
569.605	50512.64
569.804	50920.18
570.002	49994.5
570.201	50529.02
570.4	49963.78
570.598	49744.65
570.797	50070.28
570.995	49724.17
571.193	49109.78
571.392	49853.19
571.59	49472.27
571.789	48947.99
571.987	49052.44
572.186	48853.78
572.384	49040.15
572.582	49423.12
572.781	48952.09
572.979	47985.44
573.177	48782.1
573.376	48665.37
573.574	48370.46
573.772	48321.31
573.971	48448.28
574.169	47762.22
574.367	48016.16
574.565	48067.36
574.763	47704.87
574.962	47631.15
575.16	47180.59
575.358	47461.16
575.556	46576.44
575.754	47817.51
575.952	46422.84
576.151	47098.67
576.349	46838.58
576.547	46480.19
576.745	46572.35
576.943	46814.01
577.141	46613.3
577.339	46191.42
577.537	46123.84
577.735	45904.71
577.933	45720.39
578.131	46187.33
578.329	45683.53
578.527	45601.61
578.725	45384.52
578.923	45507.4
579.121	45241.17
579.319	44966.74
579.516	45386.57
579.714	45454.15
579.912	44778.32
580.11	44819.28
580.308	44614.49
580.506	44503.9
580.704	43639.65
580.901	44540.76
581.099	44534.62
581.297	43670.37
581.495	43907.94
581.692	44096.35
581.89	43582.31
582.088	43821.92
582.285	43928.42
582.483	43926.37
582.681	43217.77
582.878	43385.71
583.076	43000.69
583.274	43594.6
583.471	42419.06
583.669	43008.88
583.866	42447.74
584.064	42828.66
584.262	42259.32
584.459	42642.29
584.657	42287.99
584.854	42437.5
585.052	41714.56
585.249	42009.47
585.447	42240.89
585.644	41984.9
585.841	41597.83
586.039	41913.22
586.236	41145.23
586.434	41503.62
586.631	40997.77
586.828	41192.33
587.026	41051.02
587.223	41014.16
587.42	40803.22
587.618	40891.28
587.815	40100.76
588.012	40317.85
588.21	40364.95
588.407	40741.78
588.604	40342.42
588.801	39504.81
588.999	39766.95
589.196	39936.93
589.393	39381.93
589.59	39558.05
589.787	39287.72
589.984	38992.81
590.182	38656.95
590.379	39320.49
590.576	38757.3
590.773	38984.62
590.97	38599.6
591.167	38808.5
591.364	38220.73
591.561	38742.96
591.758	38175.67
591.955	38065.08
592.152	38308.79
592.349	38237.11
592.546	37868.48
592.743	38067.13
592.94	37254.09
593.137	37278.66
593.334	37651.39
593.531	37309.38
593.727	37493.7
593.924	37514.18
594.121	36938.7
594.318	37442.5
594.515	36901.84
594.712	37239.75
594.908	36940.75
595.105	36934.6
595.302	36398.04
595.499	36449.24
595.696	36084.7
595.892	36039.64
596.089	36041.69
596.286	36053.98
596.482	36142.04
596.679	35757.02
596.876	36078.55
597.072	35644.38
597.269	35619.81
597.466	35578.85
597.662	34989.03
597.859	35175.4
598.055	35288.04
598.252	34722.8
598.448	34726.89
598.645	34624.5
598.841	34354.16
599.038	34702.32
599.234	34368.5
599.431	34446.32
599.627	34350.07
599.824	34571.25
600.02	33760.25
600.217	34161.65
600.413	34087.93
600.609	33985.53
600.806	33297.41
601.002	34092.02
601.198	33473.54
601.395	33520.64
601.591	33479.68
601.787	33338.37
601.984	33117.19
602.18	33385.47
602.376	32961.55
602.572	32830.48
602.769	32848.91
602.965	32760.84
603.161	32805.9
603.357	32461.84
603.553	32334.87
603.75	32547.86
603.946	31867.93
604.142	32125.97
604.338	31855.64
604.534	32089.11
604.73	31482.91
604.926	31509.54
605.122	31980.57
605.318	31663.13
605.514	31466.53
605.71	30948.39
605.906	31157.28
606.102	31085.61
606.298	31036.45
606.494	31249.44
606.69	31198.24
606.886	31073.32
607.082	30682.16
607.278	31153.19
607.474	30491.69
607.67	30452.78
607.866	30633
608.062	30456.88
608.257	30252.08
608.453	30334
608.649	30643.24
608.845	29877.3
609.041	30254.13
609.236	30010.42
609.432	30002.23
609.628	29998.13
609.824	29649.98
610.019	29850.68
610.215	29457.47
610.411	29955.13
610.606	29289.54
610.802	29936.7
610.998	29297.73
611.193	29832.25
611.389	29320.26
611.584	29209.67
611.78	28867.66
611.976	29328.45
612.171	29074.5
612.367	29469.76
612.562	28718.15
612.758	28535.88
612.953	28589.13
613.149	28857.42
613.344	28634.19
613.539	29090.88
613.735	28773.45
613.93	29033.54
614.126	28263.5
614.321	28552.27
614.517	28468.3
614.712	28271.7
614.907	28240.98
615.103	28279.89
615.298	28445.77
615.493	28472.4
615.688	28036.18
615.884	28496.97
616.079	27544.67
616.274	27903.06
616.47	27964.5
616.665	27937.88
616.86	27853.91
617.055	27556.96
617.25	27286.62
617.445	27714.65
617.641	26993.76
617.836	27567.2
618.031	27139.17
618.226	27401.31
618.421	27065.44
618.616	27466.84
618.811	26836.07
619.006	27124.83
619.201	26397.81
619.396	26633.32
619.591	26199.15
619.786	26594.41
619.981	26211.44
620.176	26440.81
620.371	26186.86
620.566	26082.42
620.761	25902.2
620.956	25941.11
621.151	25738.36
621.346	25777.27
621.541	25277.57
621.735	25812.09
621.93	25171.07
622.125	25453.69
622.32	24712.33
622.515	25064.58
622.709	24652.94
622.904	24927.36
623.099	24485
623.294	24464.52
623.488	24347.79
623.683	24269.97
623.878	23966.87
624.072	24255.63
624.267	23831.7
624.462	23913.62
624.656	23471.26
624.851	23563.42
625.046	23370.91
625.24	23372.96
625.435	23018.66
625.629	22758.56
625.824	22996.13
626.018	22754.47
626.213	22242.48
626.407	22545.58
626.602	22381.74
626.796	22119.6
626.991	22209.71
627.185	21988.53
627.38	22015.15
627.574	21599.41
627.768	21365.95
627.963	21746.87
628.157	21517.5
628.352	21431.48
628.546	20997.31
628.74	21234.88
628.935	20972.74
629.129	20776.13
629.323	20563.14
629.517	20671.68
629.712	20729.03
629.906	20452.55
630.1	20096.21
630.294	19948.75
630.489	20006.09
630.683	20315.34
630.877	19760.34
631.071	19872.98
631.265	19858.64
631.459	19578.07
631.653	19326.17
631.848	19231.96
632.042	19266.78
632.236	19270.87
632.43	18879.71
632.624	18762.98
632.818	18695.39
633.012	18691.3
633.206	18652.39
633.4	18521.32
633.594	18408.68
633.788	18138.35
633.982	18588.9
634.176	18228.46
634.369	17927.41
634.563	18042.09
634.757	17655.03
634.951	17640.69
635.145	17736.95
635.339	17847.54
635.533	17569.01
635.726	17724.66
635.92	17169.66
636.114	17235.19
636.308	17255.67
636.501	17093.88
636.695	17126.65
636.889	16844.03
637.083	16565.51
637.276	16835.84
637.47	16397.57
637.664	16368.9
637.857	16428.29
638.051	16370.95
638.244	15977.74
638.438	16053.52
638.632	16014.6
638.825	16094.47
639.019	16010.51
639.212	15705.36
639.406	15783.18
639.599	15625.49
639.793	15590.67
639.986	15303.96
640.18	15219.99
640.373	15607.06
640.567	14941.47
640.76	15236.38
640.954	14769.44
641.147	14931.23
641.34	14734.62
641.534	14964
641.727	14779.68
641.92	14662.94
642.114	14462.24
642.307	14611.75
642.5	14613.79
642.694	14138.66
642.887	14294.31
643.08	14329.13
643.273	14073.13
643.467	14097.7
643.66	13772.08
643.853	13739.31
644.046	13827.37
644.239	13829.42
644.432	13554.99
644.626	13571.38
644.819	13554.99
645.012	13370.68
645.205	13323.57
645.398	13497.65
645.591	13106.49
645.784	13145.4
645.977	13090.1
646.17	13219.13
646.363	12750.14
646.556	12694.85
646.749	12688.7
646.942	12772.67
647.135	12657.98
647.328	12412.23
647.521	12338.5
647.714	12234.05
647.907	12584.26
648.099	12252.49
648.292	12244.29
648.485	11896.14
648.678	12047.69
648.871	12074.31
649.064	11789.64
649.256	12051.78
649.449	11912.52
649.642	11996.49
649.835	11627.85
650.027	11662.67
650.22	11554.13
650.413	11402.58
650.605	11658.57
650.798	11363.67
650.991	11425.11
651.183	11380.05
651.376	11042.14
651.568	11216.21
651.761	11070.81
651.954	11046.23
652.146	10906.97
652.339	11097.43
652.531	10771.8
652.724	10931.55
652.916	10646.88
653.109	10808.67
653.301	10898.78
653.494	10825.05
653.686	10550.62
653.879	10448.22
654.071	10589.53
654.263	10372.45
654.456	10421.6
654.648	10313.06
654.84	10186.08
655.033	10024.3
655.225	10231.14
655.417	9811.31
655.61	10141.03
655.802	10059.11
655.994	9971.05
656.186	10075.49
656.379	9895.27
656.571	9762.16
656.763	9610.61
656.955	9637.23
657.148	9739.63
657.34	9657.71
657.532	9375.09
657.724	9547.12
657.916	9573.74
658.108	9301.36
658.3	9360.75
658.492	9385.33
658.684	9188.72
658.876	9065.85
659.068	9250.16
659.26	9086.33
659.452	8906.1
659.644	8996.21
659.836	8897.91
660.028	8809.85
660.22	9014.65
660.412	8848.76
660.604	8523.13
660.796	8758.65
660.988	8600.96
661.18	8648.06
661.372	8590.72
661.563	8713.6
661.755	8562.05
661.947	8332.67
662.139	8410.5
662.331	8228.23
662.522	8287.62
662.714	8447.36
662.906	8117.64
663.097	8179.08
663.289	8338.82
663.481	8066.44
663.673	7998.85
663.864	8041.86
664.056	8070.53
664.247	7947.65
664.439	7792.01
664.631	7994.76
664.822	7824.78
665.014	7865.74
665.205	7818.63
665.397	7697.8
665.588	7654.8
665.78	7732.62
665.971	7722.38
666.163	7558.54
666.354	7736.71
666.546	7654.8
666.737	7576.97
666.929	7390.61
667.12	7560.59
667.311	7351.7
667.503	7333.26
667.694	7265.68
667.885	7282.06
668.077	7394.7
668.268	7183.76
668.459	7310.74
668.651	7339.41
668.842	7284.11
669.033	7003.54
669.224	7118.23
669.416	6931.86
669.607	7001.49
669.798	7134.61
669.989	7030.16
670.18	7026.07
670.371	7122.32
670.563	6761.88
670.754	6835.61
670.945	6708.63
671.136	6905.24
671.327	6647.19
671.518	6690.2
671.709	6851.99
671.9	6741.4
672.091	6798.74
672.282	6679.96
672.473	6700.44
672.664	6639
672.855	6487.45
673.046	6620.57
673.237	6548.89
673.428	6585.76
673.619	6397.34
673.809	6536.6
674	6401.44
674.191	6380.96
674.382	6378.91
674.573	6352.29
674.764	6174.11
674.954	6290.85
675.145	6274.46
675.336	6112.67
675.527	6348.19
675.717	6137.25
675.908	6143.39
676.099	6178.21
676.289	6172.07
676.48	6219.17
676.671	6122.91
676.861	6200.74
677.052	5916.07
677.243	6131.11
677.433	6213.03
677.624	6149.54
677.814	6057.38
678.005	6075.81
678.195	6092.2
678.386	5997.99
678.576	5901.73
678.767	6110.63
678.957	5846.44
679.148	6014.37
679.338	5930.41
679.529	5889.45
679.719	5920.17
679.909	5844.39
680.1	5772.71
680.29	5813.67
680.481	5815.72
680.671	5963.17
680.861	5983.65
681.052	5848.49
681.242	5866.92
681.432	5907.88
681.622	5623.21
681.813	5760.42
682.003	5805.48
682.193	5793.19
682.383	5762.47
682.573	5889.45
682.764	5875.11
682.954	5619.11
683.144	5719.46
683.334	5795.24
683.524	5795.24
683.714	5692.84
683.904	5664.17
684.094	5731.75
684.284	5664.17
684.474	5600.68
684.664	5729.7
684.854	5559.72
685.044	5641.64
685.234	5559.72
685.424	5606.83
685.614	5615.02
685.804	5619.11
685.994	5494.19
686.184	5391.79
686.374	5498.28
686.564	5426.61
686.753	5543.34
686.943	5273.01
687.133	5352.88
687.323	5287.34
687.513	5406.13
687.702	5115.31
687.892	5248.43
688.082	5279.15
688.272	5266.86
688.461	5273.01
688.651	5277.1
688.841	5285.3
689.03	5223.86
689.22	5133.75
689.41	5107.12
689.599	5037.49
689.789	5143.99
689.979	4926.9
690.168	4969.91
690.358	4826.55
690.547	5062.07
690.737	5008.82
690.926	5027.25
691.116	4873.65
691.305	4849.08
691.495	4920.76
691.684	4908.47
691.874	4963.76
692.063	4976.05
692.252	4961.72
692.442	4670.9
692.631	4781.5
692.82	4775.35
693.01	4816.31
693.199	4779.45
693.388	4756.92
693.578	4752.82
693.767	4685.24
693.956	4595.13
694.146	4484.54
694.335	4552.12
694.524	4718.01
694.713	4570.55
694.902	4451.77
695.092	4584.89
695.281	4439.48
695.47	4457.92
695.659	4570.55
695.848	4490.68
696.037	4629.95
696.226	4511.16
696.415	4429.24
696.604	4337.09
696.793	4332.99
696.982	4505.02
697.171	4509.12
697.36	4505.02
697.549	4459.96
697.738	4234.69
697.927	4349.37
698.116	4365.76
698.305	4365.76
698.494	4369.85
698.683	4335.04
698.872	4332.99
699.061	4308.41
699.25	4394.43
699.438	4412.86
699.627	4316.61
699.816	4363.71
700.005	4304.32
700.193	4339.13
700.382	4431.29
700.571	4330.94
700.76	4439.48
700.948	4332.99
701.137	4263.36
701.326	4324.8
701.514	4304.32
701.703	4269.5
701.892	4316.61
702.08	4177.34
702.269	4298.17
702.457	4214.21
702.646	4255.17
702.834	4249.02
703.023	4312.51
703.212	4271.55
703.4	4322.75
703.589	4335.04
703.777	4195.78
703.965	4255.17
704.154	4226.5
704.342	4259.26
704.531	4232.64
704.719	4146.62
704.907	4292.03
705.096	4292.03
705.284	4294.08
705.472	4365.76
705.661	4126.15
705.849	4273.6
706.037	4380.09
706.226	4222.4
706.414	4324.8
706.602	4169.15
706.79	4273.6
706.979	4152.77
707.167	4140.48
707.355	4146.62
707.543	4253.12
707.731	4165.06
707.919	4302.27
708.107	4076.99
708.296	4199.87
708.484	4255.17
708.672	4134.34
708.86	4128.19
709.048	4304.32
709.236	4124.1
709.424	4255.17
709.612	4341.18
709.8	4257.22
709.988	4216.26
710.176	4398.52
710.364	4169.15
710.551	4144.58
710.739	4296.13
710.927	4228.54
711.115	4324.8
711.303	4300.22
711.491	4142.53
711.679	4222.4
711.866	4244.93
712.054	4326.85
712.242	4169.15
712.43	4287.93
712.617	4197.82
712.805	4255.17
712.993	4142.53
713.181	4234.69
713.368	4179.39
713.556	4210.11
713.744	4066.75
713.931	4228.54
714.119	4265.41
714.306	4306.37
714.494	4175.3
714.682	4283.84
714.869	4076.99
715.057	4267.45
715.244	4238.78
715.432	4191.68
715.619	4206.02
715.807	4238.78
715.994	4156.86
716.182	4206.02
716.369	4345.28
716.556	4320.7
716.744	4169.15
716.931	4189.63
717.119	4285.89
717.306	4138.43
717.493	4142.53
717.681	4347.33
717.868	4126.15
718.055	4210.11
718.242	4163.01
718.43	4185.54
718.617	4220.35
718.804	4234.69
718.991	4138.43
719.179	4169.15
719.366	4234.69
719.553	4255.17
719.74	4289.98
719.927	4181.44
720.114	4212.16
720.301	4046.27
720.488	4175.3
720.676	4185.54
720.863	4289.98
721.05	4148.67
721.237	4087.23
721.424	4206.02
721.611	3995.08
721.798	4132.29
721.985	4156.86
722.172	4099.52
722.358	4306.37
722.545	4175.3
722.732	4242.88
722.919	4273.6
723.106	4109.76
723.293	4187.58
723.48	4357.57
723.667	4189.63
723.853	4148.67
724.04	4220.35
724.227	4175.3
724.414	4193.73
724.6	4029.89
724.787	4183.49
724.974	4163.01
725.161	4085.19
725.347	3939.78
725.534	4068.8
725.72	4126.15
725.907	4007.36
726.094	4095.43
726.28	4097.47
726.467	4109.76
726.653	4175.3
726.84	4226.5
727.027	4158.91
727.213	4042.18
727.4	4203.97
727.586	4046.27
727.773	4009.41
727.959	3980.74
728.145	4152.77
728.332	4003.27
728.518	4132.29
728.705	4087.23
728.891	4128.19
729.077	4011.46
729.264	4115.91
729.45	3986.88
729.636	4036.03
729.823	3958.21
730.009	4054.47
730.195	3962.31
730.382	4128.19
730.568	4042.18
730.754	4148.67
730.94	3980.74
731.126	4019.65
731.313	4048.32
731.499	4058.56
731.685	4036.03
731.871	3952.07
732.057	3954.12
732.243	4070.85
732.429	3974.6
732.615	3970.5
732.801	3935.68
732.987	4003.27
733.173	4115.91
733.359	4076.99
733.545	3894.72
733.731	4048.32
733.917	3859.91
734.103	3872.2
734.289	4021.7
734.475	3857.86
734.661	3909.06
734.847	3980.74
735.033	3954.12
735.219	3960.26
735.404	3900.87
735.59	3878.34
735.776	3978.69
735.962	3947.97
736.148	3950.02
736.333	3835.33
736.519	3767.75
736.705	3808.71
736.89	3943.88
737.076	3814.85
737.262	3868.1
737.447	3898.82
737.633	3728.84
737.819	3767.75
738.004	3790.28
738.19	3833.29
738.375	3767.75
738.561	3919.3
738.747	3722.7
738.932	3782.09
739.118	3788.23
739.303	3804.61
739.489	3835.33
739.674	3653.06
739.859	3759.56
740.045	3608.01
740.23	3612.1
740.416	3620.3
740.601	3747.27
740.786	3661.26
740.972	3560.91
741.157	3616.2
741.342	3593.67
741.528	3573.19
741.713	3544.52
741.898	3579.34
742.084	3493.32
742.269	3622.34
742.454	3546.57
742.639	3626.44
742.824	3495.37
743.01	3481.03
743.195	3507.66
743.38	3495.37
743.565	3548.62
743.75	3489.23
743.935	3294.67
744.12	3397.07
744.305	3358.16
744.49	3415.5
744.675	3266
744.86	3243.47
745.045	3407.31
745.23	3378.64
745.415	3317.2
745.6	3339.73
745.785	3225.04
745.97	3333.58
746.155	3198.42
746.34	3128.78
746.525	3198.42
746.71	3247.57
746.895	3208.66
747.079	3175.89
747.264	3153.36
747.449	3272.14
747.634	3194.32
747.819	3136.98
748.003	3147.22
748.188	2944.47
748.373	3075.54
748.557	3026.39
748.742	3028.43
748.927	2891.22
749.111	2919.89
749.296	2860.5
749.481	2778.58
749.665	2833.88
749.85	2719.19
750.034	2778.58
750.219	2682.33
750.404	2764.25
750.588	2768.34
750.773	2614.74
750.957	2686.42
751.141	2721.24
751.326	2754.01
751.51	2624.98
751.695	2696.66
751.879	2618.84
752.064	2647.51
752.248	2692.57
752.432	2659.8
752.617	2555.35
752.801	2571.74
752.985	2522.59
753.17	2518.49
753.354	2616.79
753.538	2383.32
753.722	2397.66
753.907	2526.68
754.091	2299.36
754.275	2491.87
754.459	2366.94
754.643	2233.82
754.828	2305.5
755.012	2215.39
755.196	2282.97
755.38	2258.4
755.564	2203.1
755.748	2190.81
755.932	2250.21
756.116	2227.68
756.3	2186.72
756.484	2123.23
756.668	2153.95
756.852	2094.56
757.036	2184.67
757.22	2207.2
757.404	2184.67
757.588	2108.9
757.772	2053.6
757.956	2164.19
758.14	2047.46
758.323	2020.83
758.507	2112.99
758.691	1947.11
758.875	1990.11
759.059	1936.87
759.242	2067.94
759.426	1940.96
759.61	1994.21
759.794	1924.58
759.977	1947.11
760.161	1977.83
760.345	1988.07
760.528	1813.99
760.712	1943.01
760.895	1795.56
761.079	1916.39
761.263	1877.48
761.446	1768.93
761.63	1834.47
761.813	1799.65
761.997	1826.28
762.18	1748.45
762.364	1879.52
762.547	1701.35
762.731	1822.18
762.914	1697.25
763.098	1785.32
763.281	1648.1
763.464	1770.98
763.648	1682.92
763.831	1725.93
764.015	1730.02
764.198	1533.42
764.381	1678.82
764.564	1521.13
764.748	1754.6
764.931	1613.29
765.114	1543.66
765.297	1703.4
765.481	1580.52
765.664	1707.49
765.847	1611.24
766.03	1689.06
766.213	1641.96
766.397	1648.1
766.58	1605.1
766.763	1588.71
766.946	1568.23
767.129	1576.42
767.312	1598.95
767.495	1531.37
767.678	1547.75
767.861	1601
768.044	1435.11
768.227	1646.05
768.41	1557.99
768.593	1443.31
768.776	1496.55
768.959	1566.18
769.142	1510.89
769.324	1504.75
769.507	1469.93
769.69	1377.77
769.873	1410.54
770.056	1476.07
770.239	1383.91
770.421	1367.53
770.604	1543.66
770.787	1336.81
770.97	1400.3
771.152	1388.01
771.335	1424.87
771.518	1435.11
771.7	1517.03
771.883	1445.35
772.066	1351.15
772.248	1328.62
772.431	1388.01
772.613	1365.48
772.796	1269.23
772.978	1287.66
773.161	1375.72
773.343	1310.19
773.526	1203.69
773.708	1279.47
773.891	1199.6
774.073	1295.85
774.256	1310.19
774.438	1254.89
774.621	1218.03
774.803	1256.94
774.985	1170.93
775.168	1154.54
775.35	1179.12
775.532	1263.08
775.715	1222.13
775.897	1177.07
776.079	1162.73
776.261	1250.8
776.444	1129.97
776.626	1142.25
776.808	1117.68
776.99	1066.48
777.173	998.9
777.355	996.85
777.537	1179.12
777.719	1060.34
777.901	1105.39
778.083	986.61
778.265	986.61
778.447	1017.33
778.629	1033.71
778.811	1060.34
778.993	978.42
779.175	1115.63
779.357	953.84
779.539	925.17
779.721	1007.09
779.903	1035.76
780.085	1031.66
780.267	1027.57
780.449	998.9
780.631	896.5
780.812	962.03
780.994	826.87
781.176	824.82
781.358	892.4
781.54	902.64
781.721	955.89
781.903	896.5
782.085	814.58
782.267	843.25
782.448	792.05
782.63	945.65
782.812	900.59
782.993	806.39
783.175	839.16
783.357	884.21
783.538	777.72
783.72	851.44
783.901	802.29
784.083	849.4
784.264	759.28
784.446	703.99
784.627	706.04
784.809	773.62
784.99	740.85
785.172	757.24
785.353	611.83
785.535	736.76
785.716	773.62
785.897	679.41
786.079	699.89
786.26	626.17
786.441	718.33
786.623	644.6
786.804	609.78
786.985	730.61
787.167	728.56
787.348	677.37
787.529	658.93
787.71	697.85
787.891	708.09
788.073	681.46
788.254	597.49
788.435	577.02
788.616	630.26
788.797	531.96
788.978	706.04
789.159	601.59
789.34	667.13
789.522	593.4
789.703	523.77
789.884	640.5
790.065	613.88
790.246	663.03
790.427	540.15
790.607	574.97
790.788	601.59
790.969	536.06
791.15	552.44
791.331	572.92
791.512	515.58
791.693	527.86
791.874	546.3
792.054	605.69
792.235	534.01
792.416	505.34
792.597	572.92
792.778	544.25
792.958	531.96
793.139	478.71
793.32	548.34
793.5	452.09
793.681	554.49
793.862	523.77
794.042	536.06
794.223	470.52
794.404	544.25
794.584	517.62
794.765	366.07
794.945	404.99
795.126	540.15
795.306	482.81
795.487	390.65
795.667	400.89
795.848	466.42
796.028	439.8
796.209	511.48
796.389	425.47
796.57	439.8
796.75	411.13
796.93	433.66
797.111	384.51
797.291	529.91
797.471	411.13
797.652	415.23
797.832	355.83
798.012	464.38
798.192	396.79
798.373	378.36
798.553	421.37
798.733	429.56
798.913	370.17
799.093	431.61
799.274	462.33
799.454	437.75
799.634	491
799.814	425.47
799.994	355.83
800.174	413.18
800.354	433.66
800.534	437.75
800.714	423.42
800.894	316.92
801.074	398.84
801.254	316.92
801.434	384.51
801.614	417.27
801.794	409.08
801.974	912.88
802.154	273.92
802.334	370.17
802.514	316.92
802.693	339.45
802.873	429.56
803.053	415.23
803.233	339.45
803.413	372.22
803.592	323.07
803.772	382.46
803.952	337.4
804.131	294.4
804.311	310.78
804.491	280.06
804.67	335.35
804.85	280.06
805.03	278.01
805.209	312.83
805.389	312.83
805.568	292.35
805.748	335.35
805.928	284.16
806.107	278.01
806.287	316.92
806.466	327.16
806.646	321.02
806.825	306.68
807.004	251.39
807.184	306.68
807.363	294.4
807.543	337.4
807.722	282.11
807.901	343.55
808.081	347.64
808.26	275.96
808.439	321.02
808.619	257.53
808.798	282.11
808.977	251.39
809.156	400.89
809.336	321.02
809.515	251.39
809.694	286.2
809.873	220.67
810.052	255.48
810.231	308.73
810.411	327.16
810.59	298.49
810.769	224.76
810.948	302.59
811.127	247.29
811.306	302.59
811.485	243.2
811.664	284.16
811.843	269.82
812.022	275.96
812.201	228.86
812.38	269.82
812.559	243.2
812.737	318.97
812.916	122.37
813.095	241.15
813.274	261.63
813.453	290.3
813.632	228.86
813.811	263.68
813.989	249.34
814.168	228.86
814.347	269.82
814.526	220.67
814.704	196.09
814.883	194.05
815.062	220.67
815.24	187.9
815.419	220.67
815.598	239.1
815.776	224.76
815.955	171.52
816.133	99.84
816.312	251.39
816.49	245.24
816.669	239.1
816.847	200.19
817.026	239.1
817.204	185.85
817.383	253.44
817.561	204.28
817.74	232.96
817.918	249.34
818.097	286.2
818.275	212.48
818.453	148.99
818.632	241.15
818.81	267.77
818.988	210.43
819.167	120.32
819.345	198.14
819.523	196.09
819.701	148.99
819.879	224.76
820.058	216.57
820.236	192
820.414	163.33
820.592	218.62
820.77	220.67
820.948	196.09
821.127	155.13
821.305	251.39
821.483	232.96
821.661	192
821.839	159.23
822.017	122.37
822.195	177.66
822.373	173.57
822.551	163.33
822.729	210.43
822.907	200.19
823.085	130.56
823.262	177.66
823.44	169.47
823.618	97.79
823.796	142.85
823.974	52.74
824.152	93.69
824.329	124.41
824.507	155.13
824.685	95.74
824.863	200.19
825.04	194.05
825.218	138.75
825.396	155.13
825.574	134.65
825.751	169.47
825.929	187.9
826.107	116.22
826.284	146.94
826.462	146.94
826.639	171.52
826.817	93.69
826.994	181.76
827.172	97.79
827.349	175.61
827.527	118.27
827.704	134.65
827.882	171.52
828.059	200.19
828.237	175.61
828.414	140.8
828.591	85.5
828.769	126.46
828.946	77.31
829.124	183.81
829.301	200.19
829.478	99.84
829.655	247.29
829.833	136.7
830.01	148.99
830.187	101.89
830.364	140.8
830.542	124.41
830.719	89.6
830.896	157.18
831.073	83.45
831.25	171.52
831.427	148.99
831.604	140.8
831.782	97.79
831.959	126.46
832.136	69.12
832.313	105.98
832.49	155.13
832.667	167.42
832.844	85.5
833.021	138.75
833.198	138.75
833.374	232.96
833.551	101.89
833.728	44.54
833.905	204.28
834.082	48.64
834.259	134.65
834.436	175.61
834.612	153.09
834.789	132.61
834.966	118.27
835.143	159.23
835.319	110.08
835.496	171.52
835.673	183.81
835.85	89.6
836.026	177.66
836.203	75.26
836.38	142.85
836.556	69.12
836.733	151.04
836.909	173.57
837.086	87.55
837.262	118.27
837.439	112.13
837.616	71.17
837.792	144.89
837.968	83.45
838.145	77.31
838.321	157.18
838.498	118.27
838.674	105.98
838.851	155.13
839.027	101.89
839.203	40.45
839.38	42.5
839.556	105.98
839.732	73.21
839.909	56.83
840.085	60.93
840.261	134.65
840.437	79.36
840.614	93.69
840.79	46.59
840.966	112.13
841.142	89.6
841.318	120.32
841.494	118.27
841.671	56.83
841.847	3.58
842.023	26.11
842.199	155.13
842.375	54.78
842.551	40.45
842.727	77.31
842.903	120.32
843.079	48.64
843.255	65.02
843.431	38.4
843.607	120.32
843.783	15.87
843.959	105.98
844.134	130.56
844.31	87.55
844.486	69.12
844.662	60.93
844.838	93.69
845.013	73.21
845.189	32.26
845.365	103.93
845.541	114.17
845.716	85.5
845.892	85.5
846.068	81.41
846.244	79.36
846.419	-0.51
846.595	62.98
846.77	89.6
846.946	60.93
847.122	99.84
847.297	50.69
847.473	122.37
847.648	3.58
847.824	67.07
847.999	81.41
848.175	95.74
848.35	-0.51
848.526	161.28
848.701	144.89
848.876	93.69
849.052	101.89
849.227	58.88
849.403	69.12
849.578	48.64
849.753	-8.7
849.929	89.6
850.104	67.07
850.279	75.26
850.454	71.17
850.63	97.79
850.805	87.55
850.98	50.69
851.155	26.11
851.33	71.17
851.505	24.06
851.681	81.41
851.856	17.92
852.031	32.26
852.206	144.89
852.381	-4.61
852.556	17.92
852.731	71.17
852.906	93.69
853.081	60.93
853.256	130.56
853.431	91.65
853.606	38.4
853.781	75.26
853.956	-27.14
854.131	73.21
854.305	30.21
854.48	93.69
854.655	67.07
854.83	28.16
855.005	93.69
855.18	9.73
855.354	73.21
855.529	42.5
855.704	46.59
855.879	56.83
856.053	46.59
856.228	48.64
856.403	32.26
856.577	22.02
856.752	30.21
856.926	-12.8
857.101	-0.51
857.276	17.92
857.45	36.35
857.625	-23.04
857.799	30.21
857.974	30.21
858.148	9.73
858.323	22.02
858.497	-20.99
858.672	22.02
858.846	11.78
859.02	97.79
859.195	83.45
859.369	-16.9
859.543	15.87
859.718	-6.66
859.892	5.63
860.066	15.87
860.241	52.74
860.415	-39.42
860.589	26.11
860.763	-14.85
860.938	-8.7
861.112	93.69
861.286	87.55
861.46	52.74
861.634	105.98
861.808	44.54
861.982	77.31
862.157	3.58
862.331	42.5
862.505	67.07
862.679	-82.43
862.853	-6.66
863.027	19.97
863.201	13.82
863.375	-29.18
863.549	-29.18
863.722	56.83
863.896	56.83
864.07	7.68
864.244	36.35
864.418	67.07
864.592	28.16
864.766	48.64
864.939	-27.14
865.113	-0.51
865.287	58.88
865.461	-10.75
865.634	71.17
865.808	7.68
865.982	81.41
866.156	-14.85
866.329	-8.7
866.503	19.97
866.676	44.54
866.85	44.54
867.024	42.5
867.197	13.82
867.371	81.41
867.544	56.83
867.718	17.92
867.891	73.21
868.065	-20.99
868.238	-45.57
868.412	103.93
868.585	50.69
868.759	3.58
868.932	11.78
869.105	11.78
869.279	9.73
869.452	48.64
869.625	22.02
869.799	28.16
869.972	-10.75
870.145	101.89
870.319	54.78
870.492	44.54
870.665	3.58
870.838	42.5
871.011	-0.51
871.185	-18.94
871.358	50.69
871.531	24.06
871.704	-4.61
871.877	-18.94
872.05	40.45
872.223	-57.86
872.396	34.3
872.569	83.45
872.742	24.06
872.915	56.83
873.088	-41.47
873.261	32.26
873.434	46.59
873.607	32.26
873.78	-8.7
873.953	-4.61
874.126	56.83
874.299	36.35
874.471	-20.99
874.644	-64
874.817	-37.38
874.99	89.6
875.163	-20.99
875.335	99.84
875.508	7.68
875.681	95.74
875.853	-57.86
876.026	71.17
876.199	7.68
876.371	24.06
876.544	48.64
876.717	-0.51
876.889	60.93
877.062	-12.8
877.234	40.45
877.407	24.06
877.579	-18.94
877.752	-25.09
877.924	42.5
878.097	-37.38
878.269	42.5
878.442	-59.9
878.614	19.97
878.786	-90.62
878.959	38.4
879.131	-25.09
879.303	22.02
879.476	15.87
879.648	62.98
879.82	28.16
879.993	-23.04
880.165	15.87
880.337	-18.94
880.509	50.69
880.681	-25.09
880.854	22.02
881.026	32.26
881.198	1.54
881.37	3.58
881.542	-2.56
881.714	-18.94
881.886	38.4
882.058	-2.56
882.23	71.17
882.402	81.41
882.574	-4.61
882.746	28.16
882.918	93.69
883.09	-31.23
883.262	-6.66
883.434	7.68
883.606	9.73
883.778	-90.62
883.95	34.3
884.122	-49.66
884.293	-61.95
884.465	26.11
884.637	56.83
884.809	-29.18
884.98	-29.18
885.152	-41.47
885.324	-33.28
885.496	15.87
885.667	52.74
885.839	46.59
886.011	-27.14
886.182	101.89
886.354	-2.56
886.525	56.83
886.697	24.06
886.869	-80.38
887.04	1.54
887.212	65.02
887.383	-0.51
887.555	32.26
887.726	46.59
887.897	3.58
888.069	1.54
888.24	24.06
888.412	40.45
888.583	73.21
888.754	-2.56
888.926	-49.66
889.097	22.02
889.268	19.97
889.44	15.87
889.611	40.45
889.782	-6.66
889.953	15.87
890.125	17.92
890.296	-0.51
890.467	11.78
890.638	-23.04
890.809	9.73
890.98	26.11
891.151	-6.66
891.323	44.54
891.494	77.31
891.665	-6.66
891.836	58.88
892.007	-20.99
892.178	42.5
892.349	-23.04
892.52	-8.7
892.691	30.21
892.862	9.73
893.032	-29.18
893.203	7.68
893.374	13.82
893.545	40.45
893.716	-12.8
893.887	-10.75
894.057	22.02
894.228	-23.04
894.399	-0.51
894.57	5.63
894.74	5.63
894.911	101.89
895.082	46.59
895.253	-59.9
895.423	-8.7
895.594	77.31
895.764	7.68
895.935	26.11
896.106	22.02
896.276	-0.51
896.447	-8.7
896.617	46.59
896.788	1.54
896.958	-35.33
897.129	-25.09
897.299	-41.47
897.47	-33.28
897.64	60.93
897.81	28.16
897.981	48.64
898.151	-27.14
898.322	42.5
898.492	67.07
898.662	-25.09
898.832	5.63
899.003	-4.61
899.173	-39.42
899.343	28.16
899.513	-37.38
