Data from USB4F104151__71__10-24-06-971.txt Node

Date: Wed Mar 12 10:24:06 EDT 2025
User: louis
Spectrometer: USB4F10415
Trigger mode: 4
Integration Time (sec): 3.000000E-2
Scans to average: 1
Electric dark correction enabled: true
Nonlinearity correction enabled: false
Boxcar width: 0
XAxis mode: Wavelengths
Number of Pixels in Spectrum: 3648
>>>>>Begin Spectral Data<<<<<
178.204	-108.54
178.424	-108.54
178.644	-108.54
178.864	-92.16
179.084	-69.63
179.304	-6.14
179.524	-10.24
179.744	36.86
179.964	22.53
180.184	-47.1
180.404	-14.34
180.624	0
180.844	14.34
181.064	-20.48
181.283	20.48
181.503	-43.01
181.723	47.1
181.943	-14.34
182.163	49.15
182.383	26.62
182.602	36.86
182.822	45.06
183.042	88.06
183.262	96.25
183.482	51.2
183.701	47.1
183.921	4.1
184.141	90.11
184.361	81.92
184.58	-2.05
184.8	26.62
185.02	-51.2
185.239	73.73
185.459	4.1
185.679	10.24
185.898	10.24
186.118	-43.01
186.338	-43.01
186.557	26.62
186.777	38.91
186.997	10.24
187.216	4.1
187.436	79.87
187.655	83.97
187.875	81.92
188.095	-16.38
188.314	34.82
188.534	51.2
188.753	-40.96
188.973	98.3
189.192	-2.05
189.412	6.14
189.631	22.53
189.851	90.11
190.07	118.78
190.29	18.43
190.509	79.87
190.729	-2.05
190.948	65.53
191.168	104.45
191.387	75.77
191.607	36.86
191.826	-36.86
192.045	88.06
192.265	57.34
192.484	98.3
192.704	51.2
192.923	45.06
193.142	43.01
193.362	-2.05
193.581	38.91
193.8	122.88
194.02	38.91
194.239	0
194.458	10.24
194.678	24.58
194.897	100.35
195.116	8.19
195.335	34.82
195.555	110.59
195.774	59.39
195.993	8.19
196.212	-12.29
196.432	-18.43
196.651	47.1
196.87	2.05
197.089	77.82
197.308	53.25
197.528	28.67
197.747	6.14
197.966	51.2
198.185	75.77
198.404	55.3
198.623	86.01
198.842	14.34
199.062	49.15
199.281	22.53
199.5	47.1
199.719	61.44
199.938	124.93
200.157	124.93
200.376	59.39
200.595	57.34
200.814	43.01
201.033	-10.24
201.252	94.21
201.471	36.86
201.69	61.44
201.909	49.15
202.128	92.16
202.347	40.96
202.566	-2.05
202.785	26.62
203.004	30.72
203.223	167.93
203.442	-10.24
203.661	38.91
203.879	53.25
204.098	-18.43
204.317	24.58
204.536	20.48
204.755	12.29
204.974	16.38
205.193	49.15
205.411	69.63
205.63	34.82
205.849	34.82
206.068	26.62
206.287	36.86
206.505	28.67
206.724	14.34
206.943	-22.53
207.162	51.2
207.381	-6.14
207.599	20.48
207.818	94.21
208.037	22.53
208.255	-10.24
208.474	36.86
208.693	88.06
208.911	45.06
209.13	36.86
209.349	40.96
209.567	47.1
209.786	124.93
210.005	53.25
210.223	40.96
210.442	18.43
210.661	69.63
210.879	47.1
211.098	-16.38
211.316	16.38
211.535	61.44
211.753	102.4
211.972	112.64
212.191	14.34
212.409	88.06
212.628	69.63
212.846	81.92
213.065	30.72
213.283	67.58
213.502	-4.1
213.72	47.1
213.938	59.39
214.157	77.82
214.375	67.58
214.594	4.1
214.812	43.01
215.031	34.82
215.249	20.48
215.467	67.58
215.686	10.24
215.904	81.92
216.122	26.62
216.341	-28.67
216.559	22.53
216.778	45.06
216.996	49.15
217.214	38.91
217.432	116.73
217.651	83.97
217.869	6.14
218.087	67.58
218.306	61.44
218.524	43.01
218.742	-2.05
218.96	65.53
219.179	4.1
219.397	30.72
219.615	102.4
219.833	53.25
220.051	-40.96
220.27	-36.86
220.488	102.4
220.706	-8.19
220.924	14.34
221.142	69.63
221.36	65.53
221.578	86.01
221.796	-14.34
222.015	34.82
222.233	30.72
222.451	45.06
222.669	28.67
222.887	88.06
223.105	61.44
223.323	102.4
223.541	2.05
223.759	118.78
223.977	32.77
224.195	100.35
224.413	71.68
224.631	32.77
224.849	55.3
225.067	81.92
225.285	55.3
225.503	86.01
225.721	24.58
225.939	45.06
226.157	59.39
226.375	96.25
226.592	2.05
226.81	79.87
227.028	2.05
227.246	120.83
227.464	22.53
227.682	34.82
227.9	110.59
228.117	69.63
228.335	24.58
228.553	63.49
228.771	69.63
228.989	38.91
229.206	59.39
229.424	98.3
229.642	0
229.86	18.43
230.077	65.53
230.295	20.48
230.513	-10.24
230.731	22.53
230.948	116.73
231.166	79.87
231.384	69.63
231.601	28.67
231.819	155.65
232.037	30.72
232.254	8.19
232.472	-30.72
232.689	-4.1
232.907	32.77
233.125	86.01
233.342	8.19
233.56	92.16
233.777	-10.24
233.995	-45.06
234.213	57.34
234.43	110.59
234.648	65.53
234.865	34.82
235.083	73.73
235.3	38.91
235.518	139.26
235.735	61.44
235.953	124.93
236.17	10.24
236.388	16.38
236.605	45.06
236.822	14.34
237.04	108.54
237.257	45.06
237.475	67.58
237.692	-24.58
237.909	73.73
238.127	-10.24
238.344	14.34
238.562	43.01
238.779	83.97
238.996	4.1
239.214	59.39
239.431	49.15
239.648	16.38
239.865	20.48
240.083	22.53
240.3	71.68
240.517	108.54
240.735	36.86
240.952	63.49
241.169	106.49
241.386	71.68
241.603	22.53
241.821	59.39
242.038	45.06
242.255	47.1
242.472	83.97
242.689	102.4
242.907	30.72
243.124	43.01
243.341	100.35
243.558	-10.24
243.775	22.53
243.992	71.68
244.209	4.1
244.426	79.87
244.643	108.54
244.86	47.1
245.078	45.06
245.295	83.97
245.512	57.34
245.729	-53.25
245.946	10.24
246.163	120.83
246.38	57.34
246.597	28.67
246.814	90.11
247.031	22.53
247.248	59.39
247.464	36.86
247.681	59.39
247.898	71.68
248.115	28.67
248.332	55.3
248.549	137.21
248.766	217.08
248.983	108.54
249.2	36.86
249.417	51.2
249.633	47.1
249.85	53.25
250.067	30.72
250.284	28.67
250.501	79.87
250.717	16.38
250.934	4.1
251.151	133.12
251.368	32.77
251.585	51.2
251.801	34.82
252.018	28.67
252.235	71.68
252.451	36.86
252.668	2.05
252.885	63.49
253.102	55.3
253.318	28.67
253.535	-18.43
253.752	53.25
253.968	47.1
254.185	96.25
254.401	14.34
254.618	2.05
254.835	-86.01
255.051	65.53
255.268	133.12
255.484	51.2
255.701	12.29
255.917	55.3
256.134	88.06
256.351	51.2
256.567	32.77
256.784	30.72
257	47.1
257.217	151.55
257.433	32.77
257.65	65.53
257.866	71.68
258.082	-81.92
258.299	-12.29
258.515	71.68
258.732	43.01
258.948	26.62
259.165	6.14
259.381	38.91
259.597	28.67
259.814	4.1
260.03	63.49
260.246	6.14
260.463	71.68
260.679	137.21
260.895	98.3
261.112	51.2
261.328	77.82
261.544	-4.1
261.761	94.21
261.977	26.62
262.193	-18.43
262.409	77.82
262.626	94.21
262.842	2.05
263.058	4.1
263.274	63.49
263.49	-14.34
263.707	122.88
263.923	104.45
264.139	51.2
264.355	45.06
264.571	100.35
264.787	-4.1
265.004	40.96
265.22	38.91
265.436	22.53
265.652	18.43
265.868	59.39
266.084	16.38
266.3	2.05
266.516	-22.53
266.732	100.35
266.948	96.25
267.164	69.63
267.38	71.68
267.596	108.54
267.812	69.63
268.028	63.49
268.244	61.44
268.46	67.58
268.676	-28.67
268.892	57.34
269.108	22.53
269.324	86.01
269.54	-59.39
269.756	73.73
269.972	-45.06
270.188	98.3
270.403	-6.14
270.619	26.62
270.835	49.15
271.051	79.87
271.267	12.29
271.483	67.58
271.698	45.06
271.914	-8.19
272.13	40.96
272.346	81.92
272.562	-14.34
272.777	38.91
272.993	53.25
273.209	102.4
273.425	75.77
273.64	12.29
273.856	73.73
274.072	92.16
274.287	22.53
274.503	36.86
274.719	59.39
274.934	69.63
275.15	14.34
275.366	36.86
275.581	2.05
275.797	43.01
276.012	51.2
276.228	129.02
276.444	16.38
276.659	51.2
276.875	38.91
277.09	38.91
277.306	77.82
277.521	120.83
277.737	100.35
277.952	94.21
278.168	-34.82
278.383	71.68
278.599	-28.67
278.814	90.11
279.03	88.06
279.245	67.58
279.461	-4.1
279.676	71.68
279.892	22.53
280.107	81.92
280.322	32.77
280.538	104.45
280.753	92.16
280.969	-14.34
281.184	34.82
281.399	83.97
281.615	18.43
281.83	86.01
282.045	51.2
282.26	96.25
282.476	57.34
282.691	116.73
282.906	59.39
283.122	38.91
283.337	71.68
283.552	34.82
283.767	129.02
283.983	124.93
284.198	92.16
284.413	43.01
284.628	34.82
284.843	20.48
285.058	71.68
285.274	75.77
285.489	16.38
285.704	104.45
285.919	-6.14
286.134	-20.48
286.349	14.34
286.564	96.25
286.779	75.77
286.995	71.68
287.21	-38.91
287.425	47.1
287.64	-26.62
287.855	79.87
288.07	32.77
288.285	14.34
288.5	102.4
288.715	49.15
288.93	20.48
289.145	38.91
289.36	18.43
289.575	30.72
289.79	55.3
290.004	38.91
290.219	86.01
290.434	75.77
290.649	49.15
290.864	6.14
291.079	53.25
291.294	88.06
291.509	67.58
291.724	8.19
291.938	55.3
292.153	131.07
292.368	55.3
292.583	34.82
292.798	86.01
293.012	40.96
293.227	100.35
293.442	55.3
293.657	126.97
293.871	94.21
294.086	30.72
294.301	61.44
294.516	75.77
294.73	30.72
294.945	12.29
295.16	43.01
295.374	69.63
295.589	106.49
295.804	45.06
296.018	28.67
296.233	131.07
296.447	22.53
296.662	-2.05
296.877	4.1
297.091	40.96
297.306	98.3
297.52	75.77
297.735	57.34
297.949	131.07
298.164	24.58
298.378	2.05
298.593	49.15
298.807	-20.48
299.022	90.11
299.236	114.69
299.451	10.24
299.665	129.02
299.88	2.05
300.094	47.1
300.309	63.49
300.523	59.39
300.737	100.35
300.952	22.53
301.166	47.1
301.381	8.19
301.595	61.44
301.809	59.39
302.024	20.48
302.238	-12.29
302.452	149.5
302.667	-2.05
302.881	104.45
303.095	51.2
303.309	53.25
303.524	94.21
303.738	24.58
303.952	108.54
304.166	8.19
304.381	-43.01
304.595	133.12
304.809	-14.34
305.023	116.73
305.237	34.82
305.452	96.25
305.666	79.87
305.88	141.31
306.094	83.97
306.308	86.01
306.522	88.06
306.736	67.58
306.95	45.06
307.164	-6.14
307.379	-4.1
307.593	135.17
307.807	77.82
308.021	59.39
308.235	94.21
308.449	67.58
308.663	86.01
308.877	71.68
309.091	96.25
309.305	65.53
309.519	49.15
309.733	94.21
309.947	38.91
310.161	77.82
310.374	96.25
310.588	38.91
310.802	-20.48
311.016	43.01
311.23	45.06
311.444	47.1
311.658	18.43
311.872	28.67
312.085	61.44
312.299	73.73
312.513	129.02
312.727	-47.1
312.941	6.14
313.154	88.06
313.368	18.43
313.582	102.4
313.796	71.68
314.009	59.39
314.223	49.15
314.437	45.06
314.651	79.87
314.864	59.39
315.078	63.49
315.292	88.06
315.505	59.39
315.719	88.06
315.933	75.77
316.146	-45.06
316.36	6.14
316.573	75.77
316.787	24.58
317.001	106.49
317.214	32.77
317.428	83.97
317.641	47.1
317.855	63.49
318.068	4.1
318.282	71.68
318.495	100.35
318.709	57.34
318.922	94.21
319.136	96.25
319.349	55.3
319.563	4.1
319.776	8.19
319.99	47.1
320.203	22.53
320.417	51.2
320.63	47.1
320.843	114.69
321.057	-51.2
321.27	147.45
321.483	40.96
321.697	45.06
321.91	124.93
322.124	71.68
322.337	67.58
322.55	65.53
322.763	30.72
322.977	6.14
323.19	38.91
323.403	43.01
323.617	88.06
323.83	55.3
324.043	69.63
324.256	49.15
324.469	49.15
324.683	61.44
324.896	18.43
325.109	34.82
325.322	-26.62
325.535	83.97
325.748	34.82
325.962	53.25
326.175	126.97
326.388	51.2
326.601	83.97
326.814	116.73
327.027	47.1
327.24	147.45
327.453	22.53
327.666	38.91
327.879	-24.58
328.092	61.44
328.305	47.1
328.518	38.91
328.731	73.73
328.944	61.44
329.157	79.87
329.37	-2.05
329.583	135.17
329.796	73.73
330.009	79.87
330.222	43.01
330.435	79.87
330.648	57.34
330.861	55.3
331.073	38.91
331.286	22.53
331.499	124.93
331.712	32.77
331.925	135.17
332.138	51.2
332.35	51.2
332.563	38.91
332.776	67.58
332.989	55.3
333.202	40.96
333.414	69.63
333.627	61.44
333.84	16.38
334.053	10.24
334.265	-71.68
334.478	-8.19
334.691	75.77
334.903	10.24
335.116	36.86
335.329	112.64
335.541	104.45
335.754	133.12
335.966	49.15
336.179	51.2
336.392	6.14
336.604	73.73
336.817	59.39
337.029	86.01
337.242	38.91
337.454	47.1
337.667	45.06
337.88	126.97
338.092	131.07
338.305	63.49
338.517	38.91
338.729	79.87
338.942	40.96
339.154	-24.58
339.367	-18.43
339.579	61.44
339.792	20.48
340.004	120.83
340.217	0
340.429	65.53
340.641	-26.62
340.854	-6.14
341.066	129.02
341.278	79.87
341.491	43.01
341.703	108.54
341.915	53.25
342.128	67.58
342.34	10.24
342.552	26.62
342.764	100.35
342.977	116.73
343.189	22.53
343.401	18.43
343.613	4.1
343.826	34.82
344.038	6.14
344.25	98.3
344.462	22.53
344.674	59.39
344.886	88.06
345.099	96.25
345.311	88.06
345.523	53.25
345.735	71.68
345.947	16.38
346.159	147.45
346.371	20.48
346.583	30.72
346.795	73.73
347.007	55.3
347.219	-34.82
347.431	55.3
347.643	137.21
347.855	38.91
348.067	139.26
348.279	47.1
348.491	104.45
348.703	90.11
348.915	12.29
349.127	4.1
349.339	-2.05
349.551	40.96
349.763	71.68
349.975	24.58
350.187	81.92
350.399	86.01
350.61	34.82
350.822	43.01
351.034	30.72
351.246	124.93
351.458	77.82
351.669	-10.24
351.881	147.45
352.093	147.45
352.305	63.49
352.517	59.39
352.728	135.17
352.94	43.01
353.152	141.31
353.363	-45.06
353.575	38.91
353.787	43.01
353.999	51.2
354.21	124.93
354.422	83.97
354.633	34.82
354.845	71.68
355.057	126.97
355.268	92.16
355.48	114.69
355.692	83.97
355.903	114.69
356.115	112.64
356.326	12.29
356.538	83.97
356.749	100.35
356.961	122.88
357.172	43.01
357.384	63.49
357.595	92.16
357.807	75.77
358.018	86.01
358.23	63.49
358.441	6.14
358.653	53.25
358.864	43.01
359.075	43.01
359.287	18.43
359.498	149.5
359.709	71.68
359.921	110.59
360.132	43.01
360.344	100.35
360.555	6.14
360.766	98.3
360.977	92.16
361.189	61.44
361.4	22.53
361.611	79.87
361.823	77.82
362.034	83.97
362.245	104.45
362.456	143.36
362.667	43.01
362.879	14.34
363.09	71.68
363.301	45.06
363.512	53.25
363.723	18.43
363.935	-2.05
364.146	133.12
364.357	47.1
364.568	6.14
364.779	40.96
364.99	67.58
365.201	28.67
365.412	116.73
365.623	71.68
365.834	49.15
366.045	28.67
366.256	135.17
366.467	79.87
366.678	75.77
366.889	-12.29
367.1	38.91
367.311	98.3
367.522	20.48
367.733	65.53
367.944	106.49
368.155	86.01
368.366	45.06
368.577	65.53
368.788	71.68
368.999	-10.24
369.209	88.06
369.42	159.74
369.631	67.58
369.842	118.78
370.053	63.49
370.264	45.06
370.474	102.4
370.685	59.39
370.896	75.77
371.107	108.54
371.317	104.45
371.528	55.3
371.739	192.51
371.95	104.45
372.16	104.45
372.371	61.44
372.582	55.3
372.792	94.21
373.003	38.91
373.214	73.73
373.424	112.64
373.635	22.53
373.846	118.78
374.056	53.25
374.267	43.01
374.477	69.63
374.688	63.49
374.898	75.77
375.109	34.82
375.319	108.54
375.53	116.73
375.74	-2.05
375.951	32.77
376.161	81.92
376.372	174.08
376.582	28.67
376.793	108.54
377.003	94.21
377.214	65.53
377.424	98.3
377.635	129.02
377.845	32.77
378.055	106.49
378.266	28.67
378.476	57.34
378.686	38.91
378.897	6.14
379.107	102.4
379.317	110.59
379.528	-16.38
379.738	18.43
379.948	96.25
380.158	178.17
380.369	94.21
380.579	59.39
380.789	24.58
380.999	47.1
381.21	143.36
381.42	79.87
381.63	77.82
381.84	124.93
382.05	88.06
382.261	30.72
382.471	104.45
382.681	51.2
382.891	38.91
383.101	57.34
383.311	-2.05
383.521	22.53
383.731	53.25
383.941	149.5
384.151	-2.05
384.361	51.2
384.571	14.34
384.781	118.78
384.991	92.16
385.201	188.41
385.411	133.12
385.621	63.49
385.831	6.14
386.041	118.78
386.251	38.91
386.461	110.59
386.671	45.06
386.881	94.21
387.091	81.92
387.301	116.73
387.511	71.68
387.72	45.06
387.93	120.83
388.14	100.35
388.35	40.96
388.56	26.62
388.769	143.36
388.979	59.39
389.189	55.3
389.399	92.16
389.609	26.62
389.818	45.06
390.028	98.3
390.238	36.86
390.447	163.84
390.657	129.02
390.867	43.01
391.076	26.62
391.286	94.21
391.496	77.82
391.705	137.21
391.915	120.83
392.125	96.25
392.334	92.16
392.544	104.45
392.753	30.72
392.963	49.15
393.172	135.17
393.382	-6.14
393.591	192.51
393.801	112.64
394.01	129.02
394.22	178.17
394.429	143.36
394.639	69.63
394.848	122.88
395.058	151.55
395.267	155.65
395.477	188.41
395.686	145.41
395.895	102.4
396.105	153.6
396.314	135.17
396.524	104.45
396.733	86.01
396.942	145.41
397.152	180.22
397.361	98.3
397.57	135.17
397.78	116.73
397.989	167.93
398.198	153.6
398.407	79.87
398.617	192.51
398.826	118.78
399.035	192.51
399.244	122.88
399.453	6.14
399.663	131.07
399.872	180.22
400.081	116.73
400.29	147.45
400.499	126.97
400.708	139.26
400.917	131.07
401.127	190.46
401.336	129.02
401.545	192.51
401.754	153.6
401.963	131.07
402.172	98.3
402.381	124.93
402.59	108.54
402.799	67.58
403.008	149.5
403.217	141.31
403.426	186.37
403.635	118.78
403.844	147.45
404.053	174.08
404.262	92.16
404.471	167.93
404.68	147.45
404.888	172.03
405.097	114.69
405.306	268.28
405.515	139.26
405.724	114.69
405.933	161.79
406.142	169.98
406.35	223.23
406.559	237.56
406.768	165.89
406.977	200.7
407.185	202.75
407.394	169.98
407.603	192.51
407.812	208.89
408.02	309.24
408.229	235.52
408.438	227.32
408.646	270.33
408.855	311.29
409.064	239.61
409.272	317.44
409.481	342.01
409.69	352.25
409.898	296.96
410.107	382.97
410.315	282.62
410.524	337.91
410.733	378.87
410.941	364.54
411.15	350.2
411.358	399.35
411.567	407.55
411.775	391.16
411.984	405.5
412.192	460.79
412.401	440.31
412.609	452.6
412.818	538.62
413.026	479.22
413.234	493.56
413.443	456.7
413.651	598.01
413.86	614.39
414.068	704.5
414.276	643.06
414.485	702.45
414.693	626.68
414.901	761.84
415.11	790.52
415.318	712.69
415.526	770.04
415.734	870.39
415.943	763.89
416.151	815.09
416.359	839.67
416.567	966.64
416.776	968.69
416.984	913.39
417.192	1124.33
417.4	1087.47
417.608	1009.65
417.817	1075.18
418.025	1114.1
418.233	1173.49
418.441	1171.44
418.649	1271.79
418.857	1339.37
419.065	1341.42
419.273	1304.56
419.481	1480.68
419.689	1603.56
419.897	1437.67
420.105	1630.18
420.313	1632.23
420.521	1658.85
420.729	1701.86
420.937	1753.06
421.145	1761.25
421.353	1812.45
421.561	1937.38
421.769	2037.73
421.977	2131.94
422.185	2084.83
422.393	2269.15
422.601	2385.88
422.809	2353.12
423.017	2410.46
423.224	2516.95
423.432	2666.46
423.64	2602.97
423.848	2861.01
424.056	2719.7
424.263	2842.58
424.471	2910.16
424.679	2965.46
424.887	3098.58
425.094	3334.09
425.302	3233.74
425.51	3446.73
425.718	3569.61
425.925	3557.32
426.133	3735.49
426.341	3872.71
426.548	4024.26
426.756	3872.71
426.964	4022.21
427.171	4308.93
427.379	4380.61
427.586	4407.23
427.794	4564.92
428.001	4763.58
428.209	5001.14
428.417	4859.83
428.624	5298.1
428.832	5175.22
429.039	5261.23
429.247	5334.96
429.454	5734.31
429.662	6100.9
429.869	5877.67
430.076	6154.15
430.284	6139.81
430.491	6301.6
430.699	6551.45
430.906	6508.44
431.114	6645.66
431.321	6999.96
431.528	7100.31
431.736	7651.21
431.943	7681.93
432.15	7624.59
432.358	7755.66
432.565	8079.24
432.772	8075.14
432.979	8419.2
433.187	8611.71
433.394	8654.72
433.601	9381.74
433.808	9363.31
434.016	9222
434.223	9633.65
434.43	10114.92
434.637	10114.92
434.844	10520.42
435.052	10856.28
435.259	10784.6
435.466	11124.57
435.673	10719.07
435.88	11530.06
436.087	11972.43
436.294	12050.25
436.501	11738.96
436.708	12123.98
436.915	12451.65
437.122	12867.39
437.329	12912.44
437.537	13307.7
437.743	13506.35
437.95	13322.04
438.157	14130.98
438.364	14722.85
438.571	14548.77
438.778	14468.9
438.985	16154.38
439.192	15365.91
439.399	15701.78
439.606	15646.48
439.813	16432.9
440.02	17385.21
440.227	17000.19
440.433	16817.92
440.64	17309.43
440.847	17006.33
441.054	17540.85
441.261	19003.1
441.467	18570.98
441.674	19082.97
441.881	19705.56
442.088	19676.88
442.294	19554.01
442.501	19863.25
442.708	20154.06
442.914	21085.89
443.121	22146.73
443.328	21503.67
443.534	22752.93
443.741	22437.55
443.948	21980.85
444.154	23680.66
444.361	23336.6
444.568	23766.68
444.774	23537.3
444.981	24233.61
445.187	24549
445.394	25470.59
445.6	25212.54
445.807	27663.96
446.013	26197.62
446.22	26967.65
446.426	27885.14
446.633	28192.34
446.839	29113.92
447.046	27999.83
447.252	29374.02
447.459	29609.53
447.665	29333.06
447.871	30713.39
448.078	31768.09
448.284	30168.63
448.491	31045.16
448.697	31956.5
448.903	32531.98
449.11	32986.63
449.316	32362
449.522	33136.13
449.728	33560.06
449.935	33983.99
450.141	33889.79
450.347	34538.99
450.553	33435.14
450.76	33981.95
450.966	35118.57
451.172	34633.2
451.378	35687.9
451.584	34489.84
451.791	35395.04
451.997	35397.09
452.203	35933.66
452.409	35894.75
452.615	35603.94
452.821	34373.11
453.027	33930.75
453.233	35501.54
453.44	34096.63
453.646	34420.21
453.852	34856.43
454.058	35347.94
454.264	34143.74
454.47	34878.96
454.676	33926.65
454.882	34913.77
455.088	32022.04
455.294	32456.21
455.5	32826.89
455.705	33482.24
455.911	31995.42
456.117	31399.46
456.323	30907.94
456.529	29308.48
456.735	30592.56
456.941	29777.47
457.147	29412.93
457.352	28386.89
457.558	27858.52
457.764	27979.35
457.97	27489.88
458.176	26797.67
458.381	26642.03
458.587	25585.27
458.793	25566.84
458.999	24430.22
459.204	25847.41
459.41	25196.16
459.616	23621.27
459.821	23545.5
460.027	23445.15
460.233	23037.6
460.438	21817.01
460.644	21909.17
460.85	21157.57
461.055	21110.46
461.261	20838.08
461.466	19502.81
461.672	18650.85
461.878	20121.29
462.083	18697.95
462.289	18302.7
462.494	18038.51
462.7	17422.07
462.905	17069.82
463.111	17221.37
463.316	17661.68
463.522	17282.81
463.727	17542.9
463.932	17155.83
464.138	17032.96
464.343	17000.19
464.549	16695.04
464.754	17319.67
464.959	17014.52
465.165	17035
465.37	16154.38
465.575	15650.58
465.781	16414.47
465.986	16369.41
466.191	15886.09
466.397	15447.83
466.602	14821.15
466.807	15169.3
467.012	15537.94
467.218	15539.99
467.423	15097.63
467.628	15185.69
467.833	15628.05
468.038	15146.78
468.244	14812.96
468.449	15329.05
468.654	14667.55
468.859	14665.5
469.064	14493.47
469.269	14475.04
469.474	14393.12
469.679	14473
469.885	14214.95
470.09	14102.31
470.295	14241.57
470.5	13831.98
470.705	14096.17
470.91	13467.44
471.115	13393.72
471.32	13752.11
471.525	13674.29
471.73	13297.46
471.935	13166.39
472.139	12730.17
472.344	12971.83
472.549	12799.8
472.754	12558.14
472.959	12359.49
473.164	12080.97
473.369	12070.73
473.574	12398.4
473.778	12341.06
473.983	12054.34
474.188	12326.72
474.393	11628.37
474.598	11579.22
474.802	11568.98
475.007	11544.4
475.212	11452.24
475.417	10991.45
475.621	11077.46
475.826	11183.96
476.031	10948.44
476.235	10774.36
476.44	10934.11
476.645	10495.84
476.849	10624.86
477.054	10485.6
477.259	10520.42
477.463	10512.22
477.668	10094.44
477.872	10059.62
478.077	10198.88
478.282	9846.63
478.486	9916.26
478.691	9840.49
478.895	9809.77
479.1	9891.69
479.304	9555.82
479.509	9320.31
479.713	9588.59
479.918	9254.77
480.122	9340.79
480.326	9301.87
480.531	9308.02
480.735	9222
480.94	9283.44
481.144	9424.75
481.348	9004.92
481.553	9033.59
481.757	9103.22
481.961	9201.52
482.166	9027.45
482.37	9123.7
482.574	8939.38
482.778	8961.91
482.983	9176.95
483.187	9017.21
483.391	9074.55
483.595	8861.56
483.8	8941.43
484.004	9013.11
484.208	9092.98
484.412	9009.01
484.616	8984.44
484.821	9092.98
485.025	8910.71
485.229	8961.91
485.433	8939.38
485.637	9088.89
485.841	8912.76
486.045	9074.55
486.249	8879.99
486.453	8912.76
486.657	9045.88
486.861	9043.83
487.065	8791.93
487.269	9006.97
487.473	8771.45
487.677	9123.7
487.881	9060.21
488.085	9131.89
488.289	9039.73
488.493	8992.63
488.697	9058.17
488.901	8972.15
489.105	9152.37
489.309	9004.92
489.512	9144.18
489.716	9017.21
489.92	8982.39
490.124	9129.84
490.328	9248.63
490.531	9105.27
490.735	9230.2
490.939	9240.43
491.143	9097.08
491.346	9103.22
491.55	9373.55
491.754	9299.83
491.958	9543.53
492.161	9318.26
492.365	9795.43
492.569	9385.84
492.772	9416.56
492.976	9729.9
493.18	9598.83
493.383	9903.98
493.587	9785.19
493.79	9727.85
493.994	9690.99
494.197	9936.74
494.401	10141.54
494.605	9987.94
494.808	10227.56
495.012	10043.24
495.215	10215.27
495.419	10340.19
495.622	10223.46
495.825	10618.72
496.029	10456.93
496.232	10950.49
496.436	10676.06
496.639	10889.05
496.843	10637.15
497.046	11110.23
497.249	11214.68
497.453	11206.48
497.656	11632.46
497.859	11390.8
498.063	11556.69
498.266	11691.85
498.469	11794.25
498.673	11910.99
498.876	12298.05
499.079	12140.36
499.282	12089.16
499.485	12560.19
499.689	12566.34
499.892	12519.23
500.095	12705.6
500.298	13092.66
500.501	13000.51
500.705	13387.57
500.908	13223.73
501.111	13559.6
501.314	13707.05
501.517	13776.69
501.72	14073.64
501.923	13938.48
502.126	14503.71
502.329	14421.8
502.532	14501.67
502.735	14528.29
502.938	15230.74
503.141	15161.11
503.344	14978.84
503.547	15439.64
503.75	15644.43
503.953	15834.89
504.156	15922.96
504.359	15865.61
504.562	16150.28
504.765	16680.71
504.968	16795.39
505.17	16836.35
505.373	16856.83
505.576	17299.19
505.779	17411.83
505.982	17571.57
506.185	17839.86
506.387	17508.08
506.59	17841.9
506.793	18544.36
506.996	18304.74
507.198	19039.97
507.401	18853.6
507.604	19082.97
507.807	19379.93
508.009	19439.32
508.212	19527.38
508.415	19795.67
508.617	20209.36
508.82	20092.62
509.022	19982.03
509.225	20637.38
509.428	20973.25
509.63	20940.48
509.833	21161.66
510.035	21616.31
510.238	21395.13
510.44	21837.49
510.643	22169.26
510.845	22349.48
511.048	22294.19
511.25	22820.52
511.453	22810.28
511.655	23633.56
511.858	23344.8
512.06	23660.18
512.262	23955.09
512.465	24045.2
512.667	24381.07
512.87	24555.15
513.072	24735.37
513.274	25253.5
513.477	25370.24
513.679	25394.81
513.881	25839.22
514.084	25697.91
514.286	26216.05
514.488	26254.96
514.69	27147.87
514.893	26996.32
515.095	27088.48
515.297	27410.01
515.499	27496.03
515.701	27940.44
515.904	28141.14
516.106	28745.29
516.308	28249.68
516.51	28931.65
516.712	28989
516.914	29546.05
517.116	29718.07
517.318	30015.03
517.52	30146.1
517.722	30547.5
517.925	30680.62
518.127	30983.72
518.329	30973.48
518.531	31104.55
518.733	32091.67
518.935	31888.92
519.136	31993.37
519.338	32427.54
519.54	32734.73
519.742	33000.97
519.944	33277.44
520.146	33859.07
520.348	34020.86
520.55	33959.42
520.752	34147.83
520.954	35036.65
521.155	34518.51
521.357	35108.33
521.559	35538.4
521.761	35755.49
521.963	35855.84
522.164	36201.94
522.366	36357.59
522.568	36789.71
522.77	37221.83
522.971	37273.03
523.173	37035.47
523.375	37522.88
523.576	37617.09
523.778	37842.37
523.98	38249.91
524.181	38321.59
524.383	38536.63
524.584	38829.49
524.786	39009.71
524.988	38817.2
525.189	39542.18
525.391	39757.22
525.592	39716.26
525.794	39923.1
525.995	40453.53
526.197	40203.67
526.398	40246.68
526.6	40359.32
526.801	40949.14
527.003	41086.35
527.204	41217.42
527.406	41631.11
527.607	41541
527.808	41858.43
528.01	41280.91
528.211	41416.07
528.412	42528.12
528.614	42255.74
528.815	42818.93
529.016	42599.8
529.218	42456.44
529.419	42691.96
529.62	42724.72
529.822	42474.87
530.023	43040.11
530.224	43447.66
530.425	43025.78
530.626	43011.44
530.828	42749.3
531.029	43812.2
531.23	43156.85
531.431	43326.83
531.632	43703.65
531.833	43814.24
532.035	43548.01
532.236	44000.61
532.437	44060
532.638	43674.98
532.839	44113.25
533.04	44342.62
533.241	43838.82
533.442	44399.96
533.643	43967.84
533.844	44094.82
534.045	44328.28
534.246	43804
534.447	44674.39
534.648	44283.23
534.849	44760.4
535.05	44029.28
535.251	44643.67
535.451	44305.76
535.652	44416.35
535.853	44391.77
536.054	44711.25
536.255	44342.62
536.456	44438.87
536.657	44987.73
536.857	44363.1
537.058	44146.01
537.259	44965.2
537.46	44645.72
537.66	44588.38
537.861	44649.81
538.062	44588.38
538.263	44711.25
538.463	44522.84
538.664	44258.65
538.865	44899.67
539.065	44633.43
539.266	44236.12
539.466	44873.04
539.667	44326.24
539.868	44752.21
540.068	44467.55
540.269	44705.11
540.469	44991.83
540.67	44492.12
540.87	44430.68
541.071	44510.55
541.271	44819.8
541.472	44539.22
541.672	44399.96
541.873	44320.09
542.073	43973.99
542.274	45094.22
542.474	44217.69
542.675	44404.06
542.875	44961.11
543.075	44672.34
543.276	43885.92
543.476	44784.98
543.676	44465.5
543.877	44696.92
544.077	44557.66
544.277	44430.68
544.478	44361.05
544.678	44737.88
544.878	44365.15
545.078	44502.36
545.279	44580.18
545.479	44633.43
545.679	44580.18
545.879	44270.94
546.079	44375.39
546.28	44094.82
546.48	44080.48
546.68	44350.81
546.88	44463.45
547.08	44334.43
547.28	44285.28
547.48	44410.2
547.68	44692.82
547.88	43910.5
548.081	44383.58
548.281	44316
548.481	44350.81
548.681	44406.11
548.881	43697.51
549.081	44258.65
549.28	43955.55
549.48	44879.19
549.68	44060
549.88	44655.96
550.08	43681.13
550.28	44262.75
550.48	44023.14
550.68	44330.33
550.88	44090.72
551.08	44113.25
551.279	43978.08
551.479	44064.1
551.679	44262.75
551.879	43896.16
552.079	43818.34
552.278	44064.1
552.478	43797.86
552.678	43963.75
552.878	44090.72
553.077	44039.52
553.277	43425.13
553.477	44334.43
553.676	43613.54
553.876	43890.02
554.076	43883.87
554.275	43253.1
554.475	43081.07
554.674	43613.54
554.874	43550.06
555.074	43625.83
555.273	43742.56
555.473	44162.4
555.672	43457.9
555.872	43588.97
556.071	43369.83
556.271	43724.13
556.47	43320.68
556.67	42820.98
556.869	43421.03
557.068	43550.06
557.268	43378.03
557.467	43240.81
557.667	43392.36
557.866	43091.31
558.065	43240.81
558.265	43249
558.464	42671.48
558.663	43023.73
558.863	42407.29
559.062	43253.1
559.261	42413.43
559.461	43240.81
559.66	42282.36
559.859	42419.58
560.058	42444.15
560.258	42841.46
560.457	42354.04
560.656	42411.38
560.855	42288.51
561.054	42229.12
561.253	41913.73
561.453	41885.06
561.652	42206.59
561.851	42069.37
562.05	41909.63
562.249	41811.33
562.448	42233.21
562.647	41805.19
562.846	41614.72
563.045	41708.93
563.244	41575.81
563.443	41450.89
563.642	40895.89
563.841	41266.57
564.04	41078.16
564.239	41115.02
564.438	40740.24
564.637	41186.7
564.836	40693.14
565.035	40287.64
565.234	41008.53
565.432	40578.45
565.631	40564.12
565.83	40687
566.029	40199.58
566.228	40127.9
566.427	40177.05
566.625	39896.48
566.824	39185.83
567.023	39953.82
567.222	38917.55
567.42	39822.75
567.619	39222.7
567.818	39378.34
568.016	39667.11
568.215	40011.17
568.414	38876.59
568.612	39435.69
568.811	39101.87
569.01	39110.06
569.208	38456.76
569.407	38790.58
569.605	38313.4
569.804	38935.98
570.002	38278.58
570.201	38567.35
570.4	38325.69
570.598	38100.41
570.797	38190.52
570.995	38004.16
571.193	37731.78
571.392	38079.93
571.59	38075.83
571.789	37250.5
571.987	37719.49
572.186	37131.72
572.384	37152.2
572.582	37367.24
572.781	36998.6
572.979	36724.18
573.177	37387.72
573.376	37002.7
573.574	36371.93
573.772	37019.08
573.971	36945.36
574.169	36105.69
574.367	36421.08
574.565	36707.79
574.763	36261.33
574.962	36363.73
575.16	35978.71
575.358	35894.75
575.556	35415.52
575.754	36312.53
575.952	35718.62
576.151	35902.94
576.349	35620.32
576.547	35243.49
576.745	35184.1
576.943	34905.58
577.141	35472.87
577.339	35098.09
577.537	34938.35
577.735	35184.1
577.933	34708.97
578.131	34725.36
578.329	34526.71
578.527	34010.62
578.725	34262.52
578.923	34332.15
579.121	34203.13
579.319	34110.97
579.516	34326
579.714	34207.22
579.912	34041.34
580.11	33572.35
580.308	33678.85
580.506	33865.21
580.704	33095.18
580.901	33345.03
581.099	33897.98
581.297	33017.35
581.495	33252.87
581.692	33365.51
581.89	32749.07
582.088	33209.86
582.285	32955.91
582.483	32927.24
582.681	32714.25
582.878	32443.92
583.076	32378.39
583.274	32630.29
583.471	32216.6
583.669	31776.28
583.866	31809.05
584.064	32214.55
584.262	31897.11
584.459	32327.19
584.657	31858.2
584.854	31989.27
585.052	31516.19
585.249	31563.29
585.447	31893.02
585.644	31000.1
585.841	31614.49
586.039	31467.04
586.236	31147.56
586.434	31090.21
586.631	30848.55
586.828	31264.29
587.026	30930.47
587.223	31000.1
587.42	30588.46
587.618	30535.21
587.815	30332.47
588.012	30232.11
588.21	30170.68
588.407	30383.66
588.604	30023.22
588.801	29877.82
588.999	29904.44
589.196	29875.77
589.393	29840.95
589.59	29527.61
589.787	29605.44
589.984	29564.48
590.182	29111.88
590.379	29210.18
590.576	29247.04
590.773	29466.17
590.97	29187.65
591.167	28972.61
591.364	29001.29
591.561	29181.51
591.758	28849.74
591.955	28472.91
592.152	28857.93
592.349	28460.62
592.546	28487.25
592.743	28778.06
592.94	27686.49
593.137	28366.42
593.334	28249.68
593.531	27745.88
593.727	28216.91
593.924	27983.44
594.121	27715.16
594.318	27946.58
594.515	27508.32
594.712	27606.62
594.908	27430.49
595.105	27534.94
595.302	27549.28
595.499	27334.24
595.696	27123.3
595.892	26967.65
596.089	26785.38
596.286	27272.8
596.482	26934.88
596.679	26594.92
596.876	26689.13
597.072	26426.99
597.269	26472.04
597.466	26232.43
597.662	26484.33
597.859	26429.04
598.055	26336.88
598.252	25880.18
598.448	26355.31
598.645	26095.22
598.841	25765.49
599.038	25837.17
599.234	25929.33
599.431	25734.78
599.627	25665.14
599.824	25544.31
600.02	25419.39
600.217	25499.26
600.413	25163.39
600.609	25360
600.806	25114.24
601.002	25128.58
601.198	25085.57
601.395	24829.57
601.591	24931.97
601.787	24987.27
601.984	24714.89
602.18	25144.96
602.376	24616.58
602.572	24618.63
602.769	24663.69
602.965	24096.4
603.161	24352.4
603.357	24383.12
603.553	24014.48
603.75	24196.75
603.946	23854.74
604.142	24043.15
604.338	23183.01
604.534	24153.74
604.73	23723.67
604.926	23586.46
605.122	23678.61
605.318	23598.74
605.514	23107.23
605.71	23443.1
605.906	23338.65
606.102	23240.35
606.298	23332.51
606.494	22916.77
606.69	23232.16
606.886	23189.15
607.082	22822.56
607.278	22908.58
607.474	22746.79
607.67	22765.22
607.866	22664.87
608.062	22681.25
608.257	22576.81
608.453	22412.97
608.649	22359.72
608.845	22324.91
609.041	22398.63
609.236	22488.74
609.432	22355.63
609.628	22144.69
609.824	22169.26
610.019	22136.49
610.215	22216.36
610.411	22156.97
610.606	21751.48
610.802	21685.94
610.998	21761.72
611.193	21788.34
611.389	21790.39
611.584	21831.35
611.78	21726.9
611.976	21642.93
612.171	21612.21
612.367	21657.27
612.562	21309.11
612.758	21153.47
612.953	21044.93
613.149	21323.45
613.344	21161.66
613.539	21464.76
613.735	21366.46
613.93	21204.67
614.126	20889.28
614.321	21008.06
614.517	20756.16
614.712	20879.04
614.907	20848.32
615.103	21114.56
615.298	20700.87
615.493	20692.68
615.688	20227.79
615.884	20823.75
616.079	20281.03
616.274	20805.31
616.47	20235.98
616.665	20627.14
616.86	20256.46
617.055	20367.05
617.25	20180.68
617.445	20553.41
617.641	19918.54
617.836	20283.08
618.031	19941.07
618.226	19967.7
618.421	19703.51
618.616	20244.17
618.811	19805.91
619.006	19807.95
619.201	19537.62
619.396	19656.4
619.591	19345.11
619.786	19517.14
619.981	19203.8
620.176	19619.54
620.371	19326.68
620.566	19074.78
620.761	19136.22
620.956	19044.06
621.151	18781.92
621.346	19035.87
621.541	18648.8
621.735	18683.62
621.93	18269.93
622.125	18470.63
622.32	18050.8
622.515	18134.76
622.709	18161.39
622.904	18069.23
623.099	18179.82
623.294	18073.32
623.488	17809.14
623.683	17770.22
623.878	17477.37
624.072	17618.68
624.267	17716.98
624.462	17610.48
624.656	17432.31
624.851	17567.48
625.046	16854.78
625.24	16936.7
625.435	16867.07
625.629	16862.97
625.824	16885.5
626.018	16580.35
626.213	16269.06
626.407	16711.42
626.602	16195.34
626.796	16348.93
626.991	16277.26
627.185	16449.28
627.38	15947.53
627.574	16260.87
627.768	15587.09
627.963	15677.2
628.157	15609.62
628.352	15628.05
628.546	15183.64
628.74	15472.4
628.935	15165.21
629.129	15296.28
629.323	15083.29
629.517	15064.86
629.712	15087.39
629.906	15107.87
630.1	14698.27
630.294	14798.62
630.489	14743.33
630.683	14663.46
630.877	14466.85
631.071	14503.71
631.265	14444.32
631.459	14303.01
631.653	14214.95
631.848	14219.05
632.042	14268.2
632.236	14214.95
632.43	14200.62
632.624	14079.79
632.818	13940.52
633.012	13621.04
633.206	13670.19
633.4	13610.8
633.594	13377.33
633.788	13373.24
633.982	13547.31
634.176	13295.41
634.369	13219.64
634.563	13307.7
634.757	13018.94
634.951	13129.53
635.145	13217.59
635.339	13033.27
635.533	12599.1
635.726	12783.42
635.92	12758.85
636.114	12650.3
636.308	12547.9
636.501	12531.52
636.695	12406.59
636.889	12246.85
637.083	12388.16
637.276	12068.68
637.47	12146.5
637.664	12234.57
637.857	12017.48
638.051	11806.54
638.244	11620.17
638.438	11556.69
638.632	11728.72
638.825	11581.26
639.019	11681.61
639.212	11583.31
639.406	11450.19
639.599	11325.27
639.793	11497.3
639.986	11255.64
640.18	11331.41
640.373	11171.67
640.567	11249.49
640.76	10975.06
640.954	10952.54
641.147	10813.27
641.34	10749.79
641.534	10841.95
641.727	10563.42
641.92	10860.38
642.114	10524.51
642.307	10549.09
642.5	10495.84
642.694	10364.77
642.887	10213.22
643.08	10483.55
643.273	10293.09
643.467	10319.71
643.66	9936.74
643.853	10151.78
644.046	10024.81
644.239	10139.49
644.432	9887.59
644.626	9811.82
644.819	9809.77
645.012	9817.96
645.205	9813.87
645.398	9690.99
645.591	9590.64
645.784	9367.41
645.977	9320.31
646.17	9391.98
646.363	9381.74
646.556	9240.43
646.749	9322.35
646.942	9461.62
647.135	9056.12
647.328	9131.89
647.521	9174.9
647.714	9035.64
647.907	9097.08
648.099	9037.69
648.292	8888.18
648.485	8785.79
648.678	8619.9
648.871	8804.22
649.064	8701.82
649.256	8654.72
649.449	8771.45
649.642	8728.44
649.835	8472.45
650.027	8376.19
650.22	8511.36
650.413	8114.05
650.605	8324.99
650.798	8447.87
650.991	8296.32
651.183	8384.38
651.376	7913.35
651.568	8169.35
651.761	8118.15
651.954	8189.83
652.146	8044.42
652.339	7960.45
652.531	7980.93
652.724	7960.45
652.916	7636.88
653.109	7769.99
653.301	7829.38
653.494	7755.66
653.686	7677.83
653.879	7784.33
654.071	7671.69
654.263	7395.22
654.456	7376.78
654.648	7522.19
654.84	7382.93
655.033	7393.17
655.225	7417.74
655.417	7315.34
655.61	7217.04
655.802	7356.3
655.994	7094.16
656.186	7219.09
656.379	7069.59
656.571	7006.1
656.763	7016.34
656.955	6985.62
657.148	7131.03
657.34	7026.58
657.532	6913.94
657.724	6692.76
657.916	6641.56
658.108	6723.48
658.3	6793.11
658.492	6870.94
658.684	6510.49
658.876	6555.55
659.068	6567.84
659.26	6522.78
659.452	6447.01
659.644	6565.79
659.836	6377.37
660.028	6492.06
660.22	6436.77
660.412	6455.2
660.604	6291.36
660.796	6338.46
660.988	6354.85
661.18	6252.45
661.372	6252.45
661.563	6279.07
661.755	6053.8
661.947	6010.79
662.139	6158.24
662.331	6100.9
662.522	6055.84
662.714	5961.64
662.906	5986.21
663.097	5984.16
663.289	5865.38
663.481	6021.03
663.673	5959.59
663.864	5857.19
664.056	5666.73
664.247	5879.72
664.439	5588.91
664.631	5705.64
664.822	5693.35
665.014	5767.08
665.205	5570.47
665.397	5805.99
665.588	5597.1
665.78	5689.26
665.971	5582.76
666.163	5742.5
666.354	5521.32
666.546	5488.56
666.737	5400.49
666.929	5404.59
667.12	5525.42
667.311	5296.05
667.503	5351.34
667.694	5277.62
667.885	5402.54
668.077	5361.58
668.268	5382.06
668.459	5298.1
668.651	5099.44
668.842	5183.41
669.033	5181.36
669.224	4929.46
669.416	5048.24
669.607	5167.03
669.798	5095.35
669.989	5031.86
670.18	4980.66
670.371	5023.67
670.563	5017.52
670.754	5052.34
670.945	4960.18
671.136	4999.09
671.327	4958.13
671.518	5068.72
671.709	4898.74
671.9	4937.65
672.091	4956.08
672.282	4865.97
672.473	4769.72
672.664	4825.01
672.855	4673.46
673.046	4906.93
673.237	4837.3
673.428	4782.01
673.619	4827.06
673.809	4626.36
674	4810.68
674.191	4765.62
674.382	4657.08
674.573	4741.05
674.764	4712.38
674.954	4792.25
675.145	4589.5
675.336	4706.23
675.527	4614.07
675.717	4548.54
675.908	4593.59
676.099	4571.07
676.289	4435.9
676.48	4560.83
676.671	4480.96
676.861	4681.66
677.052	4620.22
677.243	4493.24
677.433	4632.51
677.624	4546.49
677.814	4550.59
678.005	4560.83
678.195	4466.62
678.386	4483
678.576	4515.77
678.767	4464.57
678.957	4487.1
679.148	4437.95
679.338	4581.31
679.529	4536.25
679.719	4571.07
679.909	4425.66
680.1	4487.1
680.29	4302.78
680.481	4419.52
680.671	4474.81
680.861	4519.87
681.052	4433.85
681.242	4458.43
681.432	4483
681.622	4462.52
681.813	4286.4
682.003	4351.93
682.193	4331.45
682.383	4405.18
682.573	4421.56
682.764	4274.11
682.954	4394.94
683.144	4200.38
683.334	4313.02
683.524	4372.41
683.714	4353.98
683.904	4296.64
684.094	4304.83
684.284	4292.54
684.474	4382.65
684.664	4304.83
684.854	4270.01
685.044	4231.1
685.234	4229.06
685.424	4110.27
685.614	4028.35
685.804	4392.89
685.994	4241.34
686.184	4255.68
686.374	4067.27
686.564	4034.5
686.753	4184
686.943	4186.05
687.133	4241.34
687.323	4073.41
687.513	3960.77
687.702	4069.31
687.892	3897.28
688.082	4036.55
688.272	4102.08
688.461	3987.4
688.651	4102.08
688.841	3950.53
689.03	3964.87
689.22	3985.35
689.41	3917.76
689.599	3893.19
689.789	3946.44
689.979	3776.45
690.168	3837.89
690.358	3893.19
690.547	3823.56
690.737	3848.13
690.926	3846.09
691.116	3807.17
691.305	3887.04
691.495	3801.03
691.684	3913.67
691.874	3837.89
692.063	3788.74
692.252	3659.72
692.442	3639.24
692.631	3545.03
692.82	3729.35
693.01	3712.97
693.199	3600.33
693.388	3502.03
693.578	3600.33
693.767	3553.23
693.956	3555.27
694.146	3532.75
694.335	3598.28
694.524	3536.84
694.713	3573.71
694.902	3614.66
695.092	3604.43
695.281	3516.36
695.47	3508.17
695.659	3506.12
695.848	3493.83
696.037	3528.65
696.226	3491.79
696.415	3504.07
696.604	3577.8
696.793	3436.49
696.982	3532.75
697.171	3381.2
697.36	3413.96
697.549	3317.71
697.738	3442.64
697.927	3317.71
698.116	3471.31
698.305	3370.96
698.494	3393.48
698.683	3346.38
698.872	3467.21
699.061	3362.76
699.25	3280.85
699.438	3411.92
699.627	3499.98
699.816	3444.68
700.005	3282.89
700.193	3405.77
700.382	3395.53
700.571	3278.8
700.76	3258.32
700.948	3422.16
701.137	3418.06
701.326	3291.09
701.514	3340.24
701.703	3325.9
701.892	3387.34
702.08	3440.59
702.269	3375.05
702.457	3284.94
702.646	3409.87
702.834	3286.99
703.023	3373
703.212	3356.62
703.4	3397.58
703.589	3502.03
703.777	3258.32
703.965	3262.41
704.154	3379.15
704.342	3227.6
704.531	3309.52
704.719	3264.46
704.907	3395.53
705.096	3354.57
705.284	3338.19
705.472	3391.44
705.661	3311.57
705.849	3461.07
706.037	3295.18
706.226	3256.27
706.414	3225.55
706.602	3420.11
706.79	3389.39
706.979	3289.04
707.167	3442.64
707.355	3354.57
707.543	3268.56
707.731	3336.14
707.919	3385.29
708.107	3270.61
708.296	3262.41
708.484	3200.98
708.672	3368.91
708.86	3344.33
709.048	3397.58
709.236	3297.23
709.424	3368.91
709.612	3456.97
709.8	3250.13
709.988	3186.64
710.176	3360.72
710.364	3348.43
710.551	3354.57
710.739	3356.62
710.927	3491.79
711.115	3307.47
711.303	3442.64
711.491	3268.56
711.679	3205.07
711.866	3332.05
712.054	3391.44
712.242	3289.04
712.43	3397.58
712.617	3229.65
712.805	3268.56
712.993	3284.94
713.181	3227.6
713.368	3264.46
713.556	3274.7
713.744	3313.61
713.931	3241.93
714.119	3272.65
714.306	3317.71
714.494	3393.48
714.682	3346.38
714.869	3307.47
715.057	3311.57
715.244	3139.54
715.432	3221.45
715.619	3162.06
715.807	3471.31
715.994	3266.51
716.182	3286.99
716.369	3151.82
716.556	3373
716.744	3200.98
716.931	3301.33
717.119	3354.57
717.306	3246.03
717.493	3289.04
717.681	3330
717.868	3295.18
718.055	3274.7
718.242	3368.91
718.43	3160.02
718.617	3319.76
718.804	3295.18
718.991	3313.61
719.179	3264.46
719.366	3155.92
719.553	3307.47
719.74	3184.59
719.927	3377.1
720.114	3192.78
720.301	3381.2
720.488	3274.7
720.676	3166.16
720.863	3196.88
721.05	3254.22
721.237	3313.61
721.424	3235.79
721.611	3350.48
721.798	3127.25
721.985	3137.49
722.172	3182.54
722.358	3174.35
722.545	3205.07
722.732	3221.45
722.919	3235.79
723.106	3200.98
723.293	3233.74
723.48	3217.36
723.667	3151.82
723.853	3131.34
724.04	3180.5
724.227	3207.12
724.414	3119.06
724.6	3149.78
724.787	3205.07
724.974	3094.48
725.161	3237.84
725.347	3065.81
725.534	3078.1
725.72	3243.98
725.907	3239.89
726.094	3254.22
726.28	3129.3
726.467	3198.93
726.653	3102.67
726.84	3057.62
727.027	3147.73
727.213	3151.82
727.4	3127.25
727.586	3125.2
727.773	3102.67
727.959	3098.58
728.145	3067.86
728.332	3108.82
728.518	3000.27
728.705	3096.53
728.891	3168.21
729.077	3172.3
729.264	3145.68
729.45	3250.13
729.636	3090.38
729.823	3123.15
730.009	3094.48
730.195	3237.84
730.382	3203.02
730.568	3114.96
730.754	3098.58
730.94	3166.16
731.126	3108.82
731.313	3194.83
731.499	3100.62
731.685	3155.92
731.871	3141.58
732.057	2973.65
732.243	2998.23
732.429	3096.53
732.615	3067.86
732.801	3010.51
732.987	3039.19
733.173	3033.04
733.359	3121.1
733.545	2969.55
733.731	3016.66
733.917	2987.99
734.103	3129.3
734.289	3080.15
734.475	2865.11
734.661	3055.57
734.847	3041.23
735.033	3043.28
735.219	3037.14
735.404	2992.08
735.59	2936.79
735.776	2838.48
735.962	2930.64
736.148	2973.65
736.333	2951.12
736.519	2881.49
736.705	2842.58
736.89	2887.64
737.076	2797.53
737.262	2791.38
737.447	2916.31
737.633	2852.82
737.819	2987.99
738.004	2836.44
738.19	2877.4
738.375	2897.88
738.561	3022.8
738.747	2805.72
738.932	2815.96
739.118	2881.49
739.303	2791.38
739.489	2885.59
739.674	2881.49
739.859	2701.27
740.045	2813.91
740.23	2750.42
740.416	2725.85
740.601	2885.59
740.786	2787.29
740.972	2793.43
741.157	2729.94
741.342	2572.25
741.528	2650.07
741.713	2713.56
741.898	2762.71
742.084	2645.98
742.269	2691.03
742.454	2668.5
742.639	2709.46
742.824	2697.17
743.01	2676.7
743.195	2578.39
743.38	2738.13
743.565	2615.26
743.75	2574.3
743.935	2641.88
744.12	2664.41
744.305	2469.85
744.49	2711.51
744.675	2645.98
744.86	2525.15
745.045	2504.67
745.23	2455.51
745.415	2447.32
745.6	2494.43
745.785	2467.8
745.97	2408.41
746.155	2404.32
746.34	2375.64
746.525	2398.17
746.71	2459.61
746.895	2260.96
747.079	2332.64
747.264	2316.25
747.449	2396.12
747.634	2265.05
747.819	2189.28
748.003	2246.62
748.188	2252.77
748.373	2185.18
748.557	2281.44
748.742	2107.36
748.927	2275.29
749.111	2174.94
749.296	2263.01
749.481	2150.37
749.665	2267.1
749.85	2127.84
750.034	2152.42
750.219	2117.6
750.404	2111.46
750.588	2152.42
750.773	2107.36
750.957	2082.78
751.141	1959.91
751.326	2021.35
751.51	1984.48
751.695	2019.3
751.879	2029.54
752.064	1906.66
752.248	1923.04
752.432	1949.67
752.617	2043.87
752.801	1908.71
752.985	1974.24
753.17	1970.15
753.354	1955.81
753.538	1884.13
753.722	1894.37
753.907	1755.11
754.091	1816.55
754.275	1720.29
754.459	1828.84
754.643	1785.83
754.828	1751.01
755.012	1724.39
755.196	1775.59
755.38	1693.67
755.564	1736.68
755.748	1726.44
755.932	1665
756.116	1648.61
756.3	1675.24
756.484	1699.81
756.668	1656.81
756.852	1599.46
757.036	1601.51
757.22	1679.33
757.404	1566.7
757.588	1544.17
757.772	1554.41
757.956	1562.6
758.14	1603.56
758.323	1464.3
758.507	1388.52
758.691	1523.69
758.875	1472.49
759.059	1566.7
759.242	1495.02
759.426	1404.91
759.61	1427.43
759.794	1396.71
759.977	1462.25
760.161	1544.17
760.345	1523.69
760.528	1423.34
760.712	1359.85
760.895	1415.15
761.079	1372.14
761.263	1312.75
761.446	1304.56
761.63	1316.84
761.813	1400.81
761.997	1388.52
762.18	1357.8
762.364	1370.09
762.547	1314.8
762.731	1322.99
762.914	1353.71
763.098	1261.55
763.281	1312.75
763.464	1300.46
763.648	1275.88
763.831	1239.02
764.015	1202.16
764.198	1249.26
764.381	1275.88
764.564	1300.46
764.748	1286.12
764.931	1325.04
765.114	1267.69
765.297	1198.06
765.481	1206.25
765.664	1304.56
765.847	1110
766.03	1187.82
766.213	1202.16
766.397	1284.08
766.58	1169.39
766.763	1206.25
766.946	1306.6
767.129	1179.63
767.312	1218.54
767.495	1136.62
767.678	1107.95
767.861	1101.81
768.044	1153.01
768.227	1193.97
768.41	1171.44
768.593	1265.64
768.776	1136.62
768.959	1103.86
769.142	1136.62
769.324	1144.81
769.507	1144.81
769.69	993.26
769.873	1040.37
770.056	1169.39
770.239	1173.49
770.421	1128.43
770.604	1081.33
770.787	1073.14
770.97	997.36
771.152	1030.13
771.335	1140.72
771.518	1032.18
771.7	987.12
771.883	1128.43
772.066	1023.98
772.248	995.31
772.431	1019.89
772.613	978.93
772.796	909.3
772.978	964.59
773.161	954.35
773.343	942.07
773.526	1005.55
773.708	978.93
773.891	972.79
774.073	950.26
774.256	962.55
774.438	993.26
774.621	923.63
774.803	944.11
774.985	860.15
775.168	968.69
775.35	839.67
775.532	854
775.715	915.44
775.897	841.72
776.079	817.14
776.261	808.95
776.444	876.53
776.626	825.33
776.808	778.23
776.99	794.61
777.173	804.85
777.355	833.52
777.537	833.52
777.719	817.14
777.901	827.38
778.083	837.62
778.265	655.35
778.447	786.42
778.629	780.28
778.811	770.04
778.993	733.17
779.175	759.8
779.357	800.76
779.539	747.51
779.721	710.65
779.903	788.47
780.085	782.32
780.267	632.82
780.449	729.08
780.631	724.98
780.812	751.6
780.994	700.41
781.176	696.31
781.358	665.59
781.54	600.05
781.721	729.08
781.903	759.8
782.085	776.18
782.267	729.08
782.448	677.88
782.63	638.97
782.812	583.67
782.993	567.29
783.175	624.63
783.357	534.52
783.538	624.63
783.72	620.53
783.901	602.1
784.083	614.39
784.264	628.73
784.446	653.3
784.627	575.48
784.809	616.44
784.99	667.64
785.172	604.15
785.353	579.58
785.535	589.81
785.716	606.2
785.897	546.81
786.079	524.28
786.26	587.77
786.441	526.33
786.623	511.99
786.804	555
786.985	514.04
787.167	546.81
787.348	518.14
787.529	511.99
787.71	686.07
787.891	555
788.073	491.51
788.254	483.32
788.435	522.23
788.616	534.52
788.797	526.33
788.978	489.46
789.159	479.22
789.34	501.75
789.522	481.27
789.703	511.99
789.884	479.22
790.065	446.46
790.246	436.22
790.427	499.7
790.607	479.22
790.788	528.38
790.969	417.79
791.15	448.51
791.331	385.02
791.512	440.31
791.693	477.18
791.874	415.74
792.054	464.89
792.235	444.41
792.416	325.63
792.597	419.83
792.778	391.16
792.958	397.31
793.139	354.3
793.32	415.74
793.5	391.16
793.681	436.22
793.862	376.83
794.042	466.94
794.223	385.02
794.404	284.67
794.584	382.97
794.765	364.54
794.945	358.39
795.126	387.07
795.306	444.41
795.487	325.63
795.667	354.3
795.848	446.46
796.028	415.74
796.209	350.2
796.389	401.4
796.57	403.45
796.75	419.83
796.93	350.2
797.111	356.35
797.291	278.52
797.471	356.35
797.652	319.48
797.832	313.34
798.012	313.34
798.192	251.9
798.373	323.58
798.553	333.82
798.733	354.3
798.913	337.91
799.093	360.44
799.274	372.73
799.454	323.58
799.634	354.3
799.814	366.59
799.994	329.72
800.174	358.39
800.354	372.73
800.534	311.29
800.714	366.59
800.894	354.3
801.074	305.15
801.254	346.11
801.434	284.67
801.614	243.71
801.794	239.61
801.974	843.76
802.154	260.09
802.334	360.44
802.514	221.18
802.693	303.1
802.873	264.19
803.053	241.66
803.233	268.28
803.413	256
803.592	274.43
803.772	278.52
803.952	329.72
804.131	223.23
804.311	282.62
804.491	309.24
804.67	241.66
804.85	239.61
805.03	210.94
805.209	296.96
805.389	329.72
805.568	294.91
805.748	256
805.928	296.96
806.107	174.08
806.287	243.71
806.466	256
806.646	239.61
806.825	190.46
807.004	305.15
807.184	286.72
807.363	268.28
807.543	301.05
807.722	231.42
807.901	284.67
808.081	313.34
808.26	174.08
808.439	237.56
808.619	198.65
808.798	282.62
808.977	210.94
809.156	169.98
809.336	276.48
809.515	198.65
809.694	188.41
809.873	288.76
810.052	251.9
810.231	233.47
810.411	339.96
810.59	268.28
810.769	225.28
810.948	202.75
811.127	221.18
811.306	208.89
811.485	210.94
811.664	223.23
811.843	198.65
812.022	247.8
812.201	180.22
812.38	178.17
812.559	192.51
812.737	219.13
812.916	188.41
813.095	137.21
813.274	180.22
813.453	182.27
813.632	202.75
813.811	294.91
813.989	165.89
814.168	231.42
814.347	135.17
814.526	202.75
814.704	227.32
814.883	208.89
815.062	196.61
815.24	239.61
815.419	192.51
815.598	247.8
815.776	190.46
815.955	149.5
816.133	143.36
816.312	161.79
816.49	219.13
816.669	180.22
816.847	198.65
817.026	268.28
817.204	135.17
817.383	153.6
817.561	157.69
817.74	167.93
817.918	108.54
818.097	135.17
818.275	129.02
818.453	208.89
818.632	126.97
818.81	133.12
818.988	206.84
819.167	215.04
819.345	157.69
819.523	133.12
819.701	137.21
819.879	124.93
820.058	81.92
820.236	122.88
820.414	202.75
820.592	196.61
820.77	75.77
820.948	188.41
821.127	77.82
821.305	75.77
821.483	116.73
821.661	178.17
821.839	129.02
822.017	141.31
822.195	104.45
822.373	118.78
822.551	180.22
822.729	174.08
822.907	159.74
823.085	157.69
823.262	137.21
823.44	180.22
823.618	153.6
823.796	92.16
823.974	155.65
824.152	145.41
824.329	169.98
824.507	153.6
824.685	151.55
824.863	159.74
825.04	178.17
825.218	153.6
825.396	161.79
825.574	194.56
825.751	92.16
825.929	149.5
826.107	118.78
826.284	112.64
826.462	172.03
826.639	174.08
826.817	155.65
826.994	215.04
827.172	124.93
827.349	155.65
827.527	100.35
827.704	81.92
827.882	106.49
828.059	79.87
828.237	67.58
828.414	190.46
828.591	139.26
828.769	38.91
828.946	83.97
829.124	133.12
829.301	106.49
829.478	153.6
829.655	169.98
829.833	206.84
830.01	108.54
830.187	110.59
830.364	86.01
830.542	96.25
830.719	182.27
830.896	167.93
831.073	137.21
831.25	188.41
831.427	55.3
831.604	81.92
831.782	75.77
831.959	106.49
832.136	38.91
832.313	174.08
832.49	167.93
832.667	118.78
832.844	120.83
833.021	145.41
833.198	51.2
833.374	106.49
833.551	79.87
833.728	157.69
833.905	110.59
834.082	43.01
834.259	141.31
834.436	-2.05
834.612	141.31
834.789	71.68
834.966	116.73
835.143	53.25
835.319	-45.06
835.496	151.55
835.673	47.1
835.85	137.21
836.026	100.35
836.203	79.87
836.38	73.73
836.556	124.93
836.733	51.2
836.909	110.59
837.086	104.45
837.262	61.44
837.439	75.77
837.616	12.29
837.792	59.39
837.968	51.2
838.145	18.43
838.321	53.25
838.498	100.35
838.674	129.02
838.851	122.88
839.027	112.64
839.203	114.69
839.38	141.31
839.556	137.21
839.732	86.01
839.909	96.25
840.085	47.1
840.261	118.78
840.437	55.3
840.614	75.77
840.79	178.17
840.966	61.44
841.142	65.53
841.318	34.82
841.494	86.01
841.671	75.77
841.847	69.63
842.023	126.97
842.199	106.49
842.375	83.97
842.551	-16.38
842.727	26.62
842.903	61.44
843.079	10.24
843.255	120.83
843.431	131.07
843.607	141.31
843.783	86.01
843.959	133.12
844.134	86.01
844.31	157.69
844.486	36.86
844.662	122.88
844.838	98.3
845.013	59.39
845.189	75.77
845.365	49.15
845.541	53.25
845.716	90.11
845.892	96.25
846.068	71.68
846.244	55.3
846.419	55.3
846.595	71.68
846.77	100.35
846.946	104.45
847.122	55.3
847.297	108.54
847.473	102.4
847.648	61.44
847.824	104.45
847.999	69.63
848.175	59.39
848.35	79.87
848.526	118.78
848.701	112.64
848.876	92.16
849.052	73.73
849.227	67.58
849.403	43.01
849.578	116.73
849.753	147.45
849.929	38.91
850.104	137.21
850.279	32.77
850.454	0
850.63	55.3
850.805	79.87
850.98	8.19
851.155	90.11
851.33	6.14
851.505	81.92
851.681	88.06
851.856	-10.24
852.031	30.72
852.206	100.35
852.381	45.06
852.556	2.05
852.731	75.77
852.906	69.63
853.081	92.16
853.256	47.1
853.431	131.07
853.606	75.77
853.781	104.45
853.956	28.67
854.131	26.62
854.305	14.34
854.48	83.97
854.655	-53.25
854.83	-51.2
855.005	26.62
855.18	71.68
855.354	12.29
855.529	108.54
855.704	71.68
855.879	108.54
856.053	28.67
856.228	-18.43
856.403	30.72
856.577	116.73
856.752	67.58
856.926	-2.05
857.101	-47.1
857.276	-2.05
857.45	79.87
857.625	114.69
857.799	14.34
857.974	-4.1
858.148	28.67
858.323	96.25
858.497	65.53
858.672	55.3
858.846	6.14
859.02	118.78
859.195	-4.1
859.369	16.38
859.543	38.91
859.718	28.67
859.892	71.68
860.066	-40.96
860.241	55.3
860.415	20.48
860.589	79.87
860.763	26.62
860.938	102.4
861.112	55.3
861.286	26.62
861.46	104.45
861.634	-16.38
861.808	6.14
861.982	36.86
862.157	63.49
862.331	47.1
862.505	-8.19
862.679	-4.1
862.853	112.64
863.027	-51.2
863.201	45.06
863.375	102.4
863.549	2.05
863.722	83.97
863.896	47.1
864.07	-12.29
864.244	57.34
864.418	83.97
864.592	38.91
864.766	38.91
864.939	55.3
865.113	2.05
865.287	53.25
865.461	-12.29
865.634	22.53
865.808	73.73
865.982	92.16
866.156	32.77
866.329	18.43
866.503	51.2
866.676	77.82
866.85	43.01
867.024	49.15
867.197	63.49
867.371	65.53
867.544	38.91
867.718	6.14
867.891	32.77
868.065	-51.2
868.238	-32.77
868.412	112.64
868.585	38.91
868.759	86.01
868.932	79.87
869.105	69.63
869.279	77.82
869.452	0
869.625	2.05
869.799	36.86
869.972	-20.48
870.145	28.67
870.319	12.29
870.492	59.39
870.665	-4.1
870.838	34.82
871.011	-12.29
871.185	59.39
871.358	32.77
871.531	8.19
871.704	-24.58
871.877	-14.34
872.05	-4.1
872.223	-14.34
872.396	75.77
872.569	18.43
872.742	36.86
872.915	65.53
873.088	43.01
873.261	116.73
873.434	-53.25
873.607	79.87
873.78	22.53
873.953	-6.14
874.126	30.72
874.299	2.05
874.471	65.53
874.644	88.06
874.817	30.72
874.99	86.01
875.163	-45.06
875.335	-6.14
875.508	49.15
875.681	112.64
875.853	43.01
876.026	12.29
876.199	104.45
876.371	16.38
876.544	40.96
876.717	53.25
876.889	-47.1
877.062	6.14
877.234	28.67
877.407	-24.58
877.579	28.67
877.752	49.15
877.924	38.91
878.097	-8.19
878.269	24.58
878.442	26.62
878.614	51.2
878.786	77.82
878.959	-12.29
879.131	47.1
879.303	-2.05
879.476	18.43
879.648	90.11
879.82	73.73
879.993	-47.1
880.165	14.34
880.337	-12.29
880.509	14.34
880.681	38.91
880.854	-6.14
881.026	108.54
881.198	86.01
881.37	2.05
881.542	-22.53
881.714	94.21
881.886	57.34
882.058	6.14
882.23	59.39
882.402	6.14
882.574	61.44
882.746	26.62
882.918	63.49
883.09	-2.05
883.262	100.35
883.434	30.72
883.606	-8.19
883.778	26.62
883.95	34.82
884.122	-14.34
884.293	88.06
884.465	30.72
884.637	81.92
884.809	14.34
884.98	83.97
885.152	55.3
885.324	30.72
885.496	-45.06
885.667	4.1
885.839	100.35
886.011	10.24
886.182	12.29
886.354	75.77
886.525	30.72
886.697	43.01
886.869	-6.14
887.04	-26.62
887.212	26.62
887.383	14.34
887.555	-12.29
887.726	40.96
887.897	-4.1
888.069	-83.97
888.24	10.24
888.412	71.68
888.583	-12.29
888.754	104.45
888.926	-34.82
889.097	18.43
889.268	38.91
889.44	12.29
889.611	-22.53
889.782	-34.82
889.953	28.67
890.125	149.5
890.296	-20.48
890.467	30.72
890.638	-16.38
890.809	38.91
890.98	22.53
891.151	43.01
891.323	94.21
891.494	90.11
891.665	-18.43
891.836	32.77
892.007	43.01
892.178	112.64
892.349	18.43
892.52	6.14
892.691	28.67
892.862	-6.14
893.032	20.48
893.203	40.96
893.374	-4.1
893.545	71.68
893.716	59.39
893.887	65.53
894.057	-12.29
894.228	45.06
894.399	-22.53
894.57	92.16
894.74	75.77
894.911	26.62
895.082	26.62
895.253	-26.62
895.423	-4.1
895.594	108.54
895.764	83.97
895.935	0
896.106	88.06
896.276	-40.96
896.447	40.96
896.617	8.19
896.788	40.96
896.958	-34.82
897.129	-2.05
897.299	6.14
897.47	30.72
897.64	6.14
897.81	16.38
897.981	28.67
898.151	47.1
898.322	30.72
898.492	0
898.662	14.34
898.832	-40.96
899.003	16.38
899.173	81.92
899.343	45.06
899.513	-32.77
