Data from USB4F104151__243__10-30-56-424.txt Node

Date: Wed Mar 12 10:30:56 EDT 2025
User: louis
Spectrometer: USB4F10415
Trigger mode: 4
Integration Time (sec): 3.000000E-2
Scans to average: 1
Electric dark correction enabled: true
Nonlinearity correction enabled: false
Boxcar width: 0
XAxis mode: Wavelengths
Number of Pixels in Spectrum: 3648
>>>>>Begin Spectral Data<<<<<
178.204	-122.2
178.424	-122.2
178.644	-122.2
178.864	-124.24
179.084	-197.97
179.304	6.83
179.524	-62.8
179.744	0.68
179.964	4.78
180.184	-54.61
180.404	58.03
180.624	-21.85
180.844	25.26
181.064	0.68
181.283	49.83
181.503	-3.41
181.723	-3.41
181.943	-21.85
182.163	121.51
182.383	-25.94
182.602	-1.37
182.822	29.35
183.042	0.68
183.262	78.51
183.482	4.78
183.701	55.98
183.921	43.69
184.141	-9.56
184.361	17.07
184.58	4.78
184.8	51.88
185.02	8.87
185.239	0.68
185.459	4.78
185.679	47.79
185.898	25.26
186.118	8.87
186.338	-13.65
186.557	60.07
186.777	76.46
186.997	17.07
187.216	72.36
187.436	78.51
187.655	80.55
187.875	60.07
188.095	-9.56
188.314	17.07
188.534	33.45
188.753	29.35
188.973	53.93
189.192	74.41
189.412	6.83
189.631	19.11
189.851	49.83
190.07	58.03
190.29	39.59
190.509	29.35
190.729	45.74
190.948	21.16
191.168	119.46
191.387	-34.13
191.607	10.92
191.826	21.16
192.045	-30.04
192.265	39.59
192.484	62.12
192.704	10.92
192.923	-9.56
193.142	66.22
193.362	78.51
193.581	45.74
193.8	37.55
194.02	58.03
194.239	21.16
194.458	86.7
194.678	27.31
194.897	39.59
195.116	47.79
195.335	-1.37
195.555	62.12
195.774	29.35
195.993	49.83
196.212	49.83
196.432	86.7
196.651	0.68
196.87	-44.37
197.089	92.84
197.308	58.03
197.528	41.64
197.747	8.87
197.966	12.97
198.185	53.93
198.404	62.12
198.623	72.36
198.842	27.31
199.062	96.94
199.281	55.98
199.5	15.02
199.719	150.18
199.938	111.27
200.157	64.17
200.376	17.07
200.595	92.84
200.814	51.88
201.033	8.87
201.252	90.79
201.471	-40.28
201.69	60.07
201.909	60.07
202.128	21.16
202.347	-56.66
202.566	19.11
202.785	-21.85
203.004	12.97
203.223	101.03
203.442	12.97
203.661	92.84
203.879	92.84
204.098	31.4
204.317	35.5
204.536	-19.8
204.755	49.83
204.974	12.97
205.193	2.73
205.411	88.75
205.63	31.4
205.849	21.16
206.068	-21.85
206.287	15.02
206.505	12.97
206.724	62.12
206.943	68.27
207.162	49.83
207.381	25.26
207.599	58.03
207.818	4.78
208.037	19.11
208.255	-3.41
208.474	45.74
208.693	51.88
208.911	53.93
209.13	70.31
209.349	37.55
209.567	47.79
209.786	98.99
210.005	17.07
210.223	51.88
210.442	-27.99
210.661	58.03
210.879	45.74
211.098	60.07
211.316	45.74
211.535	103.08
211.753	68.27
211.972	29.35
212.191	33.45
212.409	84.65
212.628	-23.89
212.846	68.27
213.065	74.41
213.283	76.46
213.502	27.31
213.72	-27.99
213.938	2.73
214.157	47.79
214.375	49.83
214.594	60.07
214.812	111.27
215.031	45.74
215.249	2.73
215.467	41.64
215.686	70.31
215.904	80.55
216.122	80.55
216.341	21.16
216.559	62.12
216.778	51.88
216.996	88.75
217.214	70.31
217.432	29.35
217.651	4.78
217.869	98.99
218.087	76.46
218.306	-19.8
218.524	68.27
218.742	60.07
218.96	74.41
219.179	2.73
219.397	17.07
219.615	92.84
219.833	68.27
220.051	107.18
220.27	35.5
220.488	21.16
220.706	12.97
220.924	12.97
221.142	70.31
221.36	45.74
221.578	17.07
221.796	-11.61
222.015	-5.46
222.233	-7.51
222.451	-21.85
222.669	-32.08
222.887	105.13
223.105	43.69
223.323	29.35
223.541	-19.8
223.759	49.83
223.977	37.55
224.195	33.45
224.413	121.51
224.631	64.17
224.849	-60.76
225.067	62.12
225.285	45.74
225.503	55.98
225.721	-3.41
225.939	27.31
226.157	66.22
226.375	53.93
226.592	2.73
226.81	66.22
227.028	37.55
227.246	60.07
227.464	-27.99
227.682	33.45
227.9	21.16
228.117	2.73
228.335	23.21
228.553	6.83
228.771	45.74
228.989	101.03
229.206	107.18
229.424	19.11
229.642	41.64
229.86	25.26
230.077	39.59
230.295	45.74
230.513	6.83
230.731	4.78
230.948	31.4
231.166	62.12
231.384	-3.41
231.601	51.88
231.819	103.08
232.037	55.98
232.254	-38.23
232.472	-7.51
232.689	-15.7
232.907	29.35
233.125	10.92
233.342	70.31
233.56	6.83
233.777	47.79
233.995	27.31
234.213	62.12
234.43	53.93
234.648	-46.42
234.865	43.69
235.083	74.41
235.3	31.4
235.518	-54.61
235.735	8.87
235.953	62.12
236.17	21.16
236.388	39.59
236.605	66.22
236.822	55.98
237.04	47.79
237.257	27.31
237.475	-21.85
237.692	98.99
237.909	29.35
238.127	-5.46
238.344	31.4
238.562	33.45
238.779	-17.75
238.996	-48.47
239.214	39.59
239.431	58.03
239.648	27.31
239.865	23.21
240.083	-52.56
240.3	-36.18
240.517	62.12
240.735	33.45
240.952	125.61
241.169	45.74
241.386	-36.18
241.603	31.4
241.821	66.22
242.038	78.51
242.255	19.11
242.472	-5.46
242.689	45.74
242.907	31.4
243.124	-7.51
243.341	68.27
243.558	33.45
243.775	23.21
243.992	-30.04
244.209	43.69
244.426	109.22
244.643	49.83
244.86	0.68
245.078	78.51
245.295	29.35
245.512	53.93
245.729	53.93
245.946	25.26
246.163	135.85
246.38	76.46
246.597	66.22
246.814	19.11
247.031	-36.18
247.248	33.45
247.464	41.64
247.681	12.97
247.898	17.07
248.115	53.93
248.332	2.73
248.549	29.35
248.766	0.68
248.983	12.97
249.2	80.55
249.417	70.31
249.633	62.12
249.85	60.07
250.067	94.89
250.284	21.16
250.501	62.12
250.717	-11.61
250.934	49.83
251.151	-44.37
251.368	-19.8
251.585	49.83
251.801	35.5
252.018	17.07
252.235	29.35
252.451	-21.85
252.668	2.73
252.885	8.87
253.102	53.93
253.318	-32.08
253.535	62.12
253.752	86.7
253.968	29.35
254.185	8.87
254.401	-17.75
254.618	80.55
254.835	12.97
255.051	139.94
255.268	-25.94
255.484	78.51
255.701	17.07
255.917	62.12
256.134	-3.41
256.351	45.74
256.567	29.35
256.784	78.51
257	17.07
257.217	-1.37
257.433	-21.85
257.65	37.55
257.866	82.6
258.082	41.64
258.299	62.12
258.515	41.64
258.732	15.02
258.948	21.16
259.165	33.45
259.381	2.73
259.597	74.41
259.814	43.69
260.03	12.97
260.246	-40.28
260.463	70.31
260.679	27.31
260.895	55.98
261.112	68.27
261.328	66.22
261.544	60.07
261.761	55.98
261.977	51.88
262.193	12.97
262.409	17.07
262.626	-23.89
262.842	78.51
263.058	-1.37
263.274	74.41
263.49	2.73
263.707	49.83
263.923	2.73
264.139	45.74
264.355	10.92
264.571	-17.75
264.787	98.99
265.004	107.18
265.22	105.13
265.436	45.74
265.652	64.17
265.868	-1.37
266.084	-1.37
266.3	17.07
266.516	84.65
266.732	51.88
266.948	-60.76
267.164	45.74
267.38	37.55
267.596	66.22
267.812	111.27
268.028	92.84
268.244	8.87
268.46	2.73
268.676	-44.37
268.892	-11.61
269.108	-23.89
269.324	62.12
269.54	101.03
269.756	53.93
269.972	19.11
270.188	51.88
270.403	41.64
270.619	27.31
270.835	72.36
271.051	31.4
271.267	27.31
271.483	88.75
271.698	51.88
271.914	-3.41
272.13	-34.13
272.346	0.68
272.562	29.35
272.777	96.94
272.993	21.16
273.209	109.22
273.425	92.84
273.64	80.55
273.856	-7.51
274.072	51.88
274.287	74.41
274.503	45.74
274.719	-38.23
274.934	72.36
275.15	-44.37
275.366	119.46
275.581	8.87
275.797	62.12
276.012	8.87
276.228	2.73
276.444	43.69
276.659	94.89
276.875	29.35
277.09	25.26
277.306	19.11
277.521	88.75
277.737	45.74
277.952	78.51
278.168	115.37
278.383	37.55
278.599	17.07
278.814	86.7
279.03	70.31
279.245	72.36
279.461	-5.46
279.676	68.27
279.892	27.31
280.107	-79.19
280.322	-44.37
280.538	64.17
280.753	43.69
280.969	55.98
281.184	10.92
281.399	76.46
281.615	70.31
281.83	21.16
282.045	33.45
282.26	25.26
282.476	43.69
282.691	29.35
282.906	-13.65
283.122	68.27
283.337	55.98
283.552	62.12
283.767	66.22
283.983	62.12
284.198	-3.41
284.413	-21.85
284.628	15.02
284.843	92.84
285.058	-9.56
285.274	25.26
285.489	10.92
285.704	37.55
285.919	25.26
286.134	139.94
286.349	23.21
286.564	-13.65
286.779	109.22
286.995	0.68
287.21	68.27
287.425	-3.41
287.64	4.78
287.855	25.26
288.07	21.16
288.285	119.46
288.5	60.07
288.715	23.21
288.93	-38.23
289.145	0.68
289.36	-19.8
289.575	60.07
289.79	148.14
290.004	25.26
290.219	10.92
290.434	6.83
290.649	-19.8
290.864	37.55
291.079	21.16
291.294	45.74
291.509	144.04
291.724	15.02
291.938	41.64
292.153	96.94
292.368	51.88
292.583	49.83
292.798	101.03
293.012	72.36
293.227	113.32
293.442	-1.37
293.657	33.45
293.871	80.55
294.086	-1.37
294.301	131.75
294.516	72.36
294.73	33.45
294.945	70.31
295.16	47.79
295.374	43.69
295.589	43.69
295.804	15.02
296.018	-5.46
296.233	74.41
296.447	55.98
296.662	86.7
296.877	160.42
297.091	10.92
297.306	68.27
297.52	-56.66
297.735	60.07
297.949	60.07
298.164	6.83
298.378	66.22
298.593	-11.61
298.807	-3.41
299.022	25.26
299.236	62.12
299.451	29.35
299.665	21.16
299.88	86.7
300.094	15.02
300.309	49.83
300.523	96.94
300.737	64.17
300.952	-11.61
301.166	101.03
301.381	43.69
301.595	78.51
301.809	27.31
302.024	33.45
302.238	53.93
302.452	105.13
302.667	21.16
302.881	92.84
303.095	109.22
303.309	10.92
303.524	51.88
303.738	-3.41
303.952	66.22
304.166	27.31
304.381	-7.51
304.595	94.89
304.809	-34.13
305.023	33.45
305.237	53.93
305.452	23.21
305.666	19.11
305.88	101.03
306.094	135.85
306.308	43.69
306.522	29.35
306.736	-17.75
306.95	103.08
307.164	60.07
307.379	43.69
307.593	82.6
307.807	23.21
308.021	43.69
308.235	111.27
308.449	-60.76
308.663	70.31
308.877	146.09
309.091	78.51
309.305	31.4
309.519	37.55
309.733	49.83
309.947	6.83
310.161	68.27
310.374	70.31
310.588	76.46
310.802	31.4
311.016	78.51
311.23	39.59
311.444	55.98
311.658	-21.85
311.872	146.09
312.085	74.41
312.299	43.69
312.513	80.55
312.727	86.7
312.941	-11.61
313.154	123.56
313.368	78.51
313.582	12.97
313.796	-11.61
314.009	6.83
314.223	119.46
314.437	49.83
314.651	43.69
314.864	-17.75
315.078	84.65
315.292	58.03
315.505	-13.65
315.719	66.22
315.933	25.26
316.146	53.93
316.36	-23.89
316.573	70.31
316.787	66.22
317.001	-3.41
317.214	31.4
317.428	0.68
317.641	62.12
317.855	37.55
318.068	-44.37
318.282	37.55
318.495	0.68
318.709	78.51
318.922	49.83
319.136	70.31
319.349	35.5
319.563	64.17
319.776	111.27
319.99	62.12
320.203	127.66
320.417	-21.85
320.63	39.59
320.843	74.41
321.057	49.83
321.27	25.26
321.483	80.55
321.697	98.99
321.91	-21.85
322.124	21.16
322.337	103.08
322.55	49.83
322.763	6.83
322.977	21.16
323.19	117.42
323.403	-15.7
323.617	101.03
323.83	94.89
324.043	-25.94
324.256	70.31
324.469	-11.61
324.683	103.08
324.896	-7.51
325.109	62.12
325.322	4.78
325.535	49.83
325.748	58.03
325.962	-48.47
326.175	90.79
326.388	43.69
326.601	62.12
326.814	25.26
327.027	94.89
327.24	82.6
327.453	115.37
327.666	70.31
327.879	37.55
328.092	111.27
328.305	-19.8
328.518	103.08
328.731	12.97
328.944	60.07
329.157	58.03
329.37	64.17
329.583	111.27
329.796	88.75
330.009	25.26
330.222	103.08
330.435	103.08
330.648	-13.65
330.861	103.08
331.073	90.79
331.286	141.99
331.499	21.16
331.712	-3.41
331.925	64.17
332.138	78.51
332.35	-3.41
332.563	2.73
332.776	125.61
332.989	27.31
333.202	21.16
333.414	31.4
333.627	76.46
333.84	47.79
334.053	47.79
334.265	133.8
334.478	133.8
334.691	64.17
334.903	84.65
335.116	78.51
335.329	-27.99
335.541	62.12
335.754	103.08
335.966	23.21
336.179	33.45
336.392	25.26
336.604	8.87
336.817	64.17
337.029	90.79
337.242	66.22
337.454	0.68
337.667	51.88
337.88	47.79
338.092	27.31
338.305	29.35
338.517	-19.8
338.729	17.07
338.942	35.5
339.154	123.56
339.367	2.73
339.579	68.27
339.792	-11.61
340.004	78.51
340.217	27.31
340.429	98.99
340.641	78.51
340.854	53.93
341.066	17.07
341.278	94.89
341.491	111.27
341.703	47.79
341.915	17.07
342.128	25.26
342.34	74.41
342.552	-13.65
342.764	82.6
342.977	51.88
343.189	86.7
343.401	76.46
343.613	2.73
343.826	45.74
344.038	-3.41
344.25	21.16
344.462	35.5
344.674	84.65
344.886	29.35
345.099	92.84
345.311	-19.8
345.523	23.21
345.735	66.22
345.947	78.51
346.159	25.26
346.371	76.46
346.583	41.64
346.795	98.99
347.007	41.64
347.219	62.12
347.431	92.84
347.643	68.27
347.855	41.64
348.067	86.7
348.279	2.73
348.491	133.8
348.703	103.08
348.915	101.03
349.127	-19.8
349.339	53.93
349.551	31.4
349.763	70.31
349.975	-3.41
350.187	135.85
350.399	29.35
350.61	70.31
350.822	68.27
351.034	37.55
351.246	37.55
351.458	39.59
351.669	51.88
351.881	72.36
352.093	121.51
352.305	115.37
352.517	78.51
352.728	76.46
352.94	66.22
353.152	129.7
353.363	12.97
353.575	45.74
353.787	92.84
353.999	39.59
354.21	66.22
354.422	35.5
354.633	12.97
354.845	80.55
355.057	88.75
355.268	76.46
355.48	101.03
355.692	-30.04
355.903	27.31
356.115	55.98
356.326	8.87
356.538	84.65
356.749	96.94
356.961	88.75
357.172	45.74
357.384	-1.37
357.595	115.37
357.807	90.79
358.018	-11.61
358.23	111.27
358.441	58.03
358.653	115.37
358.864	68.27
359.075	82.6
359.287	82.6
359.498	-9.56
359.709	70.31
359.921	29.35
360.132	70.31
360.344	94.89
360.555	41.64
360.766	133.8
360.977	58.03
361.189	98.99
361.4	90.79
361.611	115.37
361.823	94.89
362.034	127.66
362.245	86.7
362.456	94.89
362.667	111.27
362.879	23.21
363.09	-7.51
363.301	78.51
363.512	84.65
363.723	117.42
363.935	43.69
364.146	98.99
364.357	119.46
364.568	101.03
364.779	10.92
364.99	90.79
365.201	68.27
365.412	10.92
365.623	35.5
365.834	41.64
366.045	-13.65
366.256	58.03
366.467	35.5
366.678	92.84
366.889	137.9
367.1	35.5
367.311	103.08
367.522	-23.89
367.733	47.79
367.944	60.07
368.155	88.75
368.366	43.69
368.577	115.37
368.788	64.17
368.999	47.79
369.209	98.99
369.42	94.89
369.631	137.9
369.842	121.51
370.053	125.61
370.264	8.87
370.474	49.83
370.685	21.16
370.896	90.79
371.107	51.88
371.317	160.42
371.528	74.41
371.739	84.65
371.95	82.6
372.16	115.37
372.371	53.93
372.582	66.22
372.792	15.02
373.003	23.21
373.214	53.93
373.424	96.94
373.635	62.12
373.846	43.69
374.056	98.99
374.267	29.35
374.477	139.94
374.688	31.4
374.898	90.79
375.109	76.46
375.319	17.07
375.53	74.41
375.74	41.64
375.951	41.64
376.161	12.97
376.372	101.03
376.582	12.97
376.793	2.73
377.003	86.7
377.214	39.59
377.424	94.89
377.635	82.6
377.845	10.92
378.055	109.22
378.266	43.69
378.476	49.83
378.686	33.45
378.897	35.5
379.107	43.69
379.317	62.12
379.528	21.16
379.738	94.89
379.948	121.51
380.158	45.74
380.369	58.03
380.579	90.79
380.789	84.65
380.999	45.74
381.21	33.45
381.42	131.75
381.63	-11.61
381.84	125.61
382.05	55.98
382.261	152.23
382.471	127.66
382.681	35.5
382.891	66.22
383.101	66.22
383.311	127.66
383.521	41.64
383.731	-23.89
383.941	78.51
384.151	41.64
384.361	111.27
384.571	70.31
384.781	45.74
384.991	74.41
385.201	105.13
385.411	103.08
385.621	135.85
385.831	70.31
386.041	141.99
386.251	25.26
386.461	103.08
386.671	37.55
386.881	156.33
387.091	45.74
387.301	27.31
387.511	17.07
387.72	53.93
387.93	74.41
388.14	19.11
388.35	45.74
388.56	58.03
388.769	144.04
388.979	94.89
389.189	74.41
389.399	74.41
389.609	47.79
389.818	150.18
390.028	123.56
390.238	62.12
390.447	0.68
390.657	156.33
390.867	47.79
391.076	60.07
391.286	86.7
391.496	66.22
391.705	86.7
391.915	92.84
392.125	113.32
392.334	115.37
392.544	82.6
392.753	121.51
392.963	96.94
393.172	88.75
393.382	84.65
393.591	176.81
393.801	43.69
394.01	80.55
394.22	51.88
394.429	176.81
394.639	174.76
394.848	148.14
395.058	113.32
395.267	123.56
395.477	103.08
395.686	27.31
395.895	176.81
396.105	201.38
396.314	187.05
396.524	182.95
396.733	117.42
396.942	117.42
397.152	178.86
397.361	123.56
397.57	92.84
397.78	127.66
397.989	170.66
398.198	127.66
398.407	164.52
398.617	150.18
398.826	70.31
399.035	111.27
399.244	170.66
399.453	164.52
399.663	213.67
399.872	160.42
400.081	133.8
400.29	232.1
400.499	156.33
400.708	213.67
400.917	174.76
401.127	107.18
401.336	156.33
401.545	234.15
401.754	139.94
401.963	103.08
402.172	160.42
402.381	123.56
402.59	131.75
402.799	154.28
403.008	90.79
403.217	178.86
403.426	170.66
403.635	113.32
403.844	205.48
404.053	213.67
404.262	207.53
404.471	168.62
404.68	199.34
404.888	193.19
405.097	268.97
405.306	238.25
405.515	238.25
405.724	211.62
405.933	273.06
406.142	166.57
406.35	273.06
406.559	187.05
406.768	283.3
406.977	260.77
407.185	236.2
407.394	320.17
407.603	256.68
407.812	283.3
408.02	316.07
408.229	279.21
408.438	338.6
408.646	320.17
408.855	326.31
409.064	354.98
409.272	406.18
409.481	404.13
409.69	348.84
409.898	443.04
410.107	336.55
410.315	475.81
410.524	500.39
410.733	545.44
410.941	385.7
411.15	496.29
411.358	529.06
411.567	596.64
411.775	553.63
411.984	529.06
412.192	561.83
412.401	629.41
412.609	668.32
412.818	699.04
413.026	676.51
413.234	666.27
413.443	750.24
413.651	764.58
413.86	830.11
414.068	758.43
414.276	873.12
414.485	852.64
414.693	848.54
414.901	948.89
415.11	914.08
415.318	938.65
415.526	957.08
415.734	1002.14
415.943	1120.92
416.151	1143.45
416.359	1163.93
416.567	1200.79
416.776	1200.79
416.984	1417.88
417.192	1270.42
417.4	1370.77
417.608	1288.85
417.817	1413.78
418.025	1575.57
418.233	1577.62
418.441	1610.39
418.649	1639.06
418.857	1766.03
419.065	1876.62
419.273	1811.09
419.481	1757.84
419.689	2105.99
419.897	2036.36
420.105	2048.65
420.313	2083.47
420.521	2294.41
420.729	2177.67
420.937	2318.98
421.145	2439.81
421.353	2652.8
421.561	2636.42
421.769	2751.1
421.977	2736.77
422.185	2849.41
422.393	2931.33
422.601	3115.64
422.809	3187.32
423.017	3127.93
423.224	3236.47
423.432	3451.51
423.64	3502.71
423.848	3773.04
424.056	3670.64
424.263	4002.41
424.471	4000.37
424.679	3920.49
424.887	4239.98
425.094	4221.55
425.302	4430.44
425.51	4514.41
425.718	4754.02
425.925	4723.3
426.133	5102.17
426.341	5132.89
426.548	5386.84
426.756	5413.46
426.964	5435.99
427.171	5773.91
427.379	6017.61
427.586	6117.97
427.794	6273.61
428.001	6517.32
428.209	6906.43
428.417	6701.64
428.624	7111.23
428.832	7281.21
429.039	7023.17
429.247	7027.26
429.454	7914.03
429.662	8370.73
429.869	7746.1
430.076	8280.62
430.284	8172.08
430.491	8393.26
430.699	8962.59
430.906	8972.83
431.114	9036.32
431.321	9380.38
431.528	9542.17
431.736	10308.11
431.943	10535.43
432.15	10365.45
432.358	10502.67
432.565	10975.75
432.772	10701.32
432.979	11297.28
433.187	11694.58
433.394	11692.54
433.601	12722.66
433.808	12392.94
434.016	12610.03
434.223	13017.57
434.43	13953.49
434.637	13511.13
434.844	14334.42
435.052	14830.02
435.259	14576.08
435.466	14795.21
435.673	14957
435.88	15454.65
436.087	16497.07
436.294	16568.75
436.501	15970.74
436.708	16210.36
436.915	16767.4
437.122	17582.49
437.329	17709.47
437.537	18071.96
437.743	18340.24
437.95	18377.11
438.157	19020.17
438.364	19908.99
438.571	19814.78
438.778	19921.27
438.985	21578.08
439.192	20930.92
439.399	21559.65
439.606	20892.01
439.813	22159.7
440.02	23431.49
440.227	23099.72
440.433	22622.55
440.64	23726.4
440.847	23380.29
441.054	23710.02
441.261	25626.92
441.467	25372.97
441.674	26044.7
441.881	26759.44
442.088	26648.85
442.294	26343.7
442.501	27195.66
442.708	27560.2
442.914	28348.67
443.121	29925.6
443.328	28920.05
443.534	31285.45
443.741	30058.72
443.948	29829.35
444.154	32106.69
444.361	31940.8
444.568	31936.71
444.774	32018.63
444.981	32217.28
445.187	33214.64
445.394	34611.35
445.6	33831.08
445.807	37320.82
446.013	36044.93
446.22	36526.21
446.426	38039.65
446.633	38514.78
446.839	39323.73
447.046	37988.45
447.252	39708.75
447.459	40001.61
447.665	39213.14
447.871	41603.12
448.078	42825.76
448.284	40869.95
448.491	41842.73
448.697	43767.82
448.903	44355.59
449.11	44417.03
449.316	43794.45
449.522	44365.83
449.728	45895.66
449.935	45944.81
450.141	46059.5
450.347	46899.17
450.553	45432.82
450.76	46090.22
450.966	47536.09
451.172	46757.86
451.378	47890.38
451.584	46802.91
451.791	47925.2
451.997	47986.64
452.203	48658.37
452.409	48410.57
452.615	48109.52
452.821	46622.69
453.027	46155.75
453.233	48418.76
453.44	46340.07
453.646	47241.18
453.852	47429.59
454.058	47736.79
454.264	46030.83
454.47	47202.27
454.676	46352.36
454.882	47714.26
455.088	43503.63
455.294	44273.67
455.5	44791.81
455.705	45477.88
455.911	43587.6
456.117	42625.06
456.323	41959.47
456.529	39624.78
456.735	41408.56
456.941	40534.08
457.147	40013.9
457.352	38951
457.558	37812.33
457.764	38420.58
457.97	37875.82
458.176	36882.55
458.381	37087.35
458.587	34783.38
458.793	34758.81
458.999	33292.46
459.204	35651.72
459.41	34279.58
459.616	32071.87
459.821	32426.17
460.027	32209.09
460.233	31649.99
460.438	29694.18
460.644	30472.41
460.85	28926.19
461.055	28463.35
461.261	28567.8
461.466	26446.1
461.672	25477.41
461.878	27369.74
462.083	25954.59
462.289	25301.29
462.494	24799.54
462.7	24021.31
462.905	23503.17
463.111	23947.58
463.316	24037.69
463.522	23415.11
463.727	23824.7
463.932	23437.64
464.138	23402.82
464.343	23605.57
464.549	22700.37
464.754	23621.95
464.959	23359.81
465.165	23157.07
465.37	22348.12
465.575	21436.77
465.781	22524.24
465.986	22423.89
466.191	21485.92
466.397	21578.08
466.602	20126.07
466.807	21199.21
467.012	21090.66
467.218	20666.74
467.423	20732.27
467.628	21111.14
467.833	21660
468.038	20939.12
468.244	20504.95
468.449	21334.37
468.654	20543.86
468.859	20394.36
469.064	20400.5
469.269	19325.32
469.474	19507.58
469.679	20113.78
469.885	19249.54
470.09	19634.56
470.295	19863.93
470.5	19136.9
470.705	19132.81
470.91	18442.64
471.115	18352.53
471.32	18983.3
471.525	18360.72
471.73	18454.93
471.935	18035.1
472.139	17523.1
472.344	17813.91
472.549	17686.94
472.754	17420.7
472.959	17205.67
473.164	16697.77
473.369	16404.91
473.574	17156.52
473.778	16562.61
473.983	16644.52
474.188	16816.55
474.393	16341.43
474.598	16101.81
474.802	15960.5
475.007	15681.98
475.212	15923.64
475.417	15393.22
475.621	15335.87
475.826	15512
476.031	14934.47
476.235	14627.28
476.44	14954.95
476.645	14633.42
476.849	14744.01
477.054	14707.15
477.259	14178.77
477.463	14633.42
477.668	13980.12
477.872	14223.83
478.077	13976.02
478.282	13605.34
478.486	13717.98
478.691	13574.62
478.895	13453.79
479.1	13287.9
479.304	13300.19
479.509	12796.39
479.713	13218.27
479.918	12943.85
480.122	12669.42
480.326	13017.57
480.531	12798.44
480.735	12837.35
480.94	12507.63
481.144	12970.47
481.348	12503.53
481.553	12536.3
481.757	12288.5
481.961	12483.05
482.166	12759.53
482.37	12513.77
482.574	12257.78
482.778	12474.86
482.983	12720.62
483.187	12216.82
483.391	12440.04
483.595	12245.49
483.8	12409.33
484.004	12339.69
484.208	12528.11
484.412	12206.58
484.616	12509.68
484.821	12333.55
485.025	12212.72
485.229	12345.84
485.433	12392.94
485.637	12472.81
485.841	12032.5
486.045	12108.27
486.249	12448.24
486.453	12419.57
486.657	12247.54
486.861	12349.93
487.065	12165.62
487.269	12265.97
487.473	12024.31
487.677	12626.41
487.881	12521.96
488.085	12438
488.289	12530.16
488.493	12345.84
488.697	12677.61
488.901	12511.72
489.105	12530.16
489.309	12513.77
489.512	12478.96
489.716	12306.93
489.92	12278.26
490.124	12345.84
490.328	12386.8
490.531	12528.11
490.735	12677.61
490.939	12644.84
491.143	12575.21
491.346	12777.96
491.55	12866.02
491.754	12888.55
491.958	13097.44
492.161	12882.41
492.365	12978.66
492.569	13208.03
492.772	13076.96
492.976	13144.55
493.18	13367.77
493.383	13398.49
493.587	13476.32
493.79	13730.27
493.994	13396.45
494.197	13832.66
494.401	13689.31
494.605	13767.13
494.808	13885.91
495.012	14068.18
495.215	14137.81
495.419	14219.73
495.622	14291.41
495.825	14248.4
496.029	14457.29
496.232	14733.77
496.436	14528.97
496.639	15276.48
496.843	15200.71
497.046	15315.39
497.249	15282.63
497.453	15614.4
497.656	15651.26
497.859	15479.23
498.063	15991.22
498.266	16257.46
498.469	16136.63
498.673	16388.53
498.876	16644.52
499.079	16789.93
499.282	16892.33
499.485	17084.84
499.689	17299.87
499.892	17402.27
500.095	17326.5
500.298	17926.55
500.501	17713.56
500.705	18428.31
500.908	18325.91
501.111	18196.88
501.314	18928.01
501.517	18702.73
501.72	19157.38
501.923	19321.22
502.126	19650.94
502.329	19900.79
502.532	19992.95
502.735	20101.5
502.938	20425.07
503.141	20390.26
503.344	20851.05
503.547	20777.33
503.75	21043.56
503.953	21649.76
504.156	21979.48
504.359	22051.16
504.562	21997.91
504.765	22436.18
504.968	22737.23
505.17	23015.76
505.373	22808.91
505.576	23617.86
505.779	23259.46
505.982	23632.19
506.185	24115.51
506.387	24463.67
506.59	24480.05
506.793	24926.51
506.996	24729.91
507.198	25870.62
507.401	25483.56
507.604	25749.79
507.807	26308.89
508.009	26509.59
508.212	26583.32
508.415	27183.37
508.617	27343.11
508.82	27390.22
509.022	27181.32
509.225	27660.55
509.428	28369.15
509.63	28254.46
509.833	28395.77
510.035	29235.44
510.238	29300.97
510.44	29632.74
510.643	29987.04
510.845	30482.65
511.048	30281.95
511.25	30695.64
511.453	30812.37
511.655	31805.64
511.858	31420.62
512.06	31723.72
512.262	32155.84
512.465	31942.85
512.667	32450.75
512.87	32954.55
513.072	32794.81
513.274	33822.89
513.477	33630.38
513.679	34171.04
513.881	34554.01
514.084	35127.44
514.286	34879.64
514.488	35102.87
514.69	36063.36
514.893	35971.21
515.095	36685.95
515.297	36753.53
515.499	36837.5
515.701	37054.58
515.904	37865.58
516.106	38248.55
516.308	38385.76
516.51	38725.72
516.712	38418.53
516.914	38985.82
517.116	39825.48
517.318	39888.97
517.52	40233.03
517.722	40108.1
517.925	40960.06
518.127	41033.78
518.329	41474.1
518.531	41357.36
518.733	42352.68
518.935	42364.96
519.136	42653.73
519.338	43247.64
519.54	43661.33
519.742	43763.73
519.944	44005.39
520.146	44574.72
520.348	44427.27
520.55	45039.61
520.752	45000.7
520.954	45930.48
521.155	45930.48
521.357	46645.22
521.559	46569.44
521.761	47017.95
521.963	46913.5
522.164	47585.24
522.366	47413.21
522.568	47980.49
522.77	48404.42
522.971	49252.28
523.173	49010.62
523.375	49190.84
523.576	49532.85
523.778	49811.38
523.98	49797.04
524.181	50636.71
524.383	50460.58
524.584	51099.55
524.786	50941.86
524.988	50886.56
525.189	51462.04
525.391	51759
525.592	52299.66
525.794	52807.56
525.995	52234.13
526.197	52649.86
526.398	52899.72
526.6	52617.1
526.801	53450.62
527.003	53456.76
527.204	53362.56
527.406	54470.51
527.607	54163.31
527.808	54398.83
528.01	53614.46
528.211	54364.01
528.412	55326.56
528.614	54839.14
528.815	54974.31
529.016	55582.55
529.218	54939.49
529.419	55504.73
529.62	55494.49
529.822	55476.06
530.023	55347.04
530.224	55441.24
530.425	55514.97
530.626	55109.47
530.828	55375.71
531.029	56313.68
531.23	55844.69
531.431	55998.29
531.632	55910.23
531.833	56790.86
532.035	56131.41
532.236	56655.69
532.437	56383.31
532.638	56407.89
532.839	56872.77
533.04	56854.34
533.241	56074.07
533.442	57276.22
533.643	56608.59
533.844	56612.68
534.045	57206.59
534.246	56594.25
534.447	57489.21
534.648	56866.63
534.849	57018.18
535.05	56747.85
535.251	56960.84
535.451	56629.07
535.652	56797
535.853	57106.24
536.054	57364.29
536.255	57188.16
536.456	56883.01
536.657	57567.04
536.857	57284.42
537.058	56688.46
537.259	57349.95
537.46	57311.04
537.66	57405.25
537.861	57259.84
538.062	57253.7
538.263	57341.76
538.463	56821.58
538.664	57016.13
538.865	57163.59
539.065	57450.3
539.266	56579.92
539.466	57769.79
539.667	57075.52
539.868	57820.98
540.068	56932.17
540.269	57241.41
540.469	57429.82
540.67	56973.13
540.87	57042.76
541.071	57218.88
541.271	57329.47
541.472	56973.13
541.672	56883.01
541.873	56756.04
542.073	56514.38
542.274	57534.27
542.474	56891.21
542.675	56653.64
542.875	57315.14
543.075	56958.79
543.276	56280.91
543.476	57040.71
543.676	56670.03
543.877	57413.44
544.077	56713.03
544.277	57186.11
544.478	56817.48
544.678	57153.35
544.878	56723.27
545.078	57063.24
545.279	56811.34
545.479	56489.8
545.679	57186.11
545.879	57204.55
546.079	56915.78
546.28	56997.7
546.48	56201.04
546.68	57153.35
546.88	56829.77
547.08	57032.52
547.28	56735.56
547.48	56252.24
547.68	56899.4
547.88	56317.78
548.081	56923.97
548.281	56657.74
548.481	56364.88
548.681	57122.63
548.881	56747.85
549.081	56680.27
549.28	56190.8
549.48	56885.06
549.68	56418.13
549.88	56858.44
550.08	56416.08
550.28	56911.69
550.48	56287.06
550.68	56584.01
550.88	56346.45
551.08	56432.46
551.279	56653.64
551.479	56311.63
551.679	56346.45
551.879	56776.52
552.079	56530.76
552.278	55965.52
552.478	56092.5
552.678	56780.62
552.878	56563.53
553.077	55787.35
553.277	55562.07
553.477	56813.38
553.676	55916.37
553.876	55938.9
554.076	55779.16
554.275	55809.88
554.475	55400.29
554.674	56129.36
554.874	55990.1
555.074	55883.61
555.273	56059.73
555.473	55895.89
555.672	55830.36
555.872	56184.66
556.071	55773.02
556.271	55979.86
556.47	55285.6
556.67	55207.78
556.869	55408.48
557.068	55218.02
557.268	55359.33
557.467	55367.52
557.667	55469.92
557.866	55236.45
558.065	54912.87
558.265	54851.43
558.464	54654.82
558.663	55490.4
558.863	54321.01
559.062	55486.3
559.261	54157.17
559.461	55301.98
559.66	54167.41
559.859	54724.46
560.058	54228.85
560.258	54282.09
560.457	53690.23
560.656	54394.73
560.855	53786.49
561.054	54349.68
561.253	53927.8
561.453	54034.29
561.652	54126.45
561.851	54759.27
562.05	53950.32
562.249	53886.84
562.448	53817.21
562.647	53675.9
562.846	53528.44
563.045	53649.27
563.244	52483.98
563.443	53639.03
563.642	52922.24
563.841	53213.05
564.04	52985.73
564.239	53319.55
564.438	52508.55
564.637	52688.77
564.836	52506.51
565.035	52242.32
565.234	52090.77
565.432	52656.01
565.631	52332.43
565.83	51775.38
566.029	51814.29
566.228	52019.09
566.427	51595.16
566.625	51429.27
566.824	51271.58
567.023	51820.44
567.222	50618.28
567.42	51722.13
567.619	51226.52
567.818	51699.61
568.016	50448.3
568.215	51314.59
568.414	50593.7
568.612	50714.53
568.811	50431.91
569.01	50780.07
569.208	50186.16
569.407	50259.88
569.605	49727.41
569.804	49829.81
570.002	49487.8
570.201	50012.08
570.4	49514.42
570.598	49805.23
570.797	49215.42
570.995	49235.9
571.193	48691.14
571.392	49375.16
571.59	48928.7
571.789	48519.11
571.987	49117.12
572.186	48723.91
572.384	48332.75
572.582	48478.15
572.781	48746.43
572.979	47699.92
573.177	47908.82
573.376	48330.7
573.574	48068.56
573.772	48230.35
573.971	47826.9
574.169	47519.7
574.367	47126.49
574.565	47470.55
574.763	46946.27
574.962	47112.16
575.16	46559.2
575.358	46852.06
575.556	46118.89
575.754	47130.59
575.952	46020.59
576.151	47124.44
576.349	45764.59
576.547	46223.34
576.745	46090.22
576.943	46348.26
577.141	45795.31
577.339	45893.61
577.537	45893.61
577.735	45864.94
577.933	45586.42
578.131	45799.41
578.329	45039.61
578.527	45332.47
578.725	44847.1
578.923	45367.29
579.121	44650.5
579.319	44879.87
579.516	44937.21
579.714	44322.82
579.912	44603.39
580.11	43857.93
580.308	44599.3
580.506	44474.37
580.704	43593.75
580.901	44017.67
581.099	44070.92
581.297	43952.14
581.495	43472.92
581.692	44328.97
581.89	43141.14
582.088	43761.68
582.285	43132.95
582.483	43319.32
582.681	43048.99
582.878	42571.81
583.076	42676.26
583.274	42872.86
583.471	42225.7
583.669	42326.05
583.866	42281
584.064	42186.79
584.262	42049.58
584.459	42209.32
584.657	41769.01
584.854	42053.67
585.052	41695.28
585.249	41457.71
585.447	41441.33
585.644	41257.01
585.841	41451.57
586.039	41175.09
586.236	41097.27
586.434	41082.94
586.631	40845.37
586.828	40878.14
587.026	40581.18
587.223	40646.72
587.42	40251.46
587.618	40687.68
587.815	40050.76
588.012	39946.31
588.21	39848.01
588.407	40255.56
588.604	39999.56
588.801	39979.08
588.999	39600.21
589.196	39733.32
589.393	39282.77
589.59	39075.93
589.787	39293.01
589.984	39270.48
590.182	38547.55
590.379	38938.71
590.576	39049.3
590.773	38803.55
590.97	38531.17
591.167	38887.51
591.364	38361.19
591.561	38285.41
591.758	37965.93
591.955	38119.52
592.152	38174.82
592.349	37967.98
592.546	37875.82
592.743	37783.66
592.94	37265.52
593.137	37230.71
593.334	37861.48
593.531	36769.91
593.727	37486.7
593.924	36872.31
594.121	36882.55
594.318	36976.76
594.515	36737.15
594.712	36991.09
594.908	36640.89
595.105	36657.28
595.302	35973.25
595.499	36376.7
595.696	36354.18
595.892	35809.42
596.089	35932.29
596.286	36020.36
596.482	35745.93
596.679	35629.19
596.876	35676.3
597.072	35338.38
597.269	35545.23
597.466	35109.01
597.662	34652.31
597.859	35311.76
598.055	34855.06
598.252	34676.89
598.448	34592.92
598.645	34574.49
598.841	33892.52
599.038	34402.46
599.234	34392.22
599.431	33853.61
599.627	33718.44
599.824	33970.34
600.02	33583.27
600.217	34201.76
600.413	33818.79
600.609	33763.5
600.806	33511.6
601.002	33054.9
601.198	33216.69
601.395	33249.46
601.591	33013.94
601.787	33364.14
601.984	32819.38
602.18	33325.23
602.376	32741.56
602.572	32751.8
602.769	32563.39
602.965	32182.46
603.161	32192.7
603.357	32082.11
603.553	31801.54
603.75	32049.35
603.946	31631.56
604.142	31955.14
604.338	31307.98
604.534	31887.56
604.73	31256.78
604.926	31543.5
605.122	31377.61
605.318	31275.21
605.514	30742.74
605.71	30982.35
605.906	30943.44
606.102	30927.06
606.298	31080.66
606.494	30845.14
606.69	30738.65
606.886	30591.19
607.082	30474.46
607.278	30593.24
607.474	29991.14
607.67	30744.79
607.866	29806.82
608.062	30392.54
608.257	30197.98
608.453	29841.64
608.649	29999.33
608.845	29685.99
609.041	29745.38
609.236	29817.06
609.432	29483.24
609.628	29745.38
609.824	29395.18
610.019	29423.85
610.215	29688.04
610.411	29391.08
610.606	29090.03
610.802	29552.87
610.998	28973.3
611.193	29278.44
611.389	29284.59
611.584	28731.64
611.78	28891.38
611.976	28872.95
612.171	29059.31
612.367	28870.9
612.562	28831.99
612.758	28526.84
612.953	28565.75
613.149	28508.41
613.344	28315.9
613.539	28885.23
613.735	28438.78
613.93	28737.78
614.126	28485.88
614.321	28457.21
614.517	28291.32
614.712	28203.26
614.907	27672.84
615.103	28408.06
615.298	28035.33
615.493	28498.17
615.688	27646.21
615.884	27961.6
616.079	27691.27
616.274	27619.59
616.47	27728.13
616.665	27787.52
616.86	27320.59
617.055	27437.32
617.25	27488.52
617.445	27588.87
617.641	26956.05
617.836	27451.66
618.031	27083.02
618.226	27549.96
618.421	26773.78
618.616	27138.32
618.811	26702.1
619.006	27111.69
619.201	26790.16
619.396	26738.96
619.591	26362.14
619.786	26884.37
619.981	26186.01
620.176	26214.68
620.371	25633.06
620.566	25776.42
620.761	25878.82
620.956	25467.17
621.151	25348.39
621.346	25444.65
621.541	25379.11
621.735	25327.91
621.93	24822.06
622.125	24842.54
622.32	24643.89
622.515	24721.71
622.709	24734
622.904	24690.99
623.099	24475.96
623.294	24344.89
623.488	23945.53
623.683	24090.94
623.878	23695.68
624.072	23935.29
624.267	23783.74
624.462	23517.51
624.656	23187.78
624.851	23425.35
625.046	22675.79
625.24	22802.77
625.435	22954.32
625.629	22956.36
625.824	22575.44
626.018	22679.89
626.213	22307.16
626.407	22315.35
626.602	22264.15
626.796	22292.82
626.991	22053.21
627.185	21651.81
627.38	21553.51
627.574	21385.57
627.768	21385.57
627.963	21211.49
628.157	21059.95
628.352	21221.73
628.546	21031.27
628.74	21191.02
628.935	20740.46
629.129	20996.46
629.323	20461.94
629.517	20291.96
629.712	20341.11
629.906	20271.48
630.1	19779.96
630.294	20212.09
630.489	19749.25
630.683	19716.48
630.877	19458.43
631.071	19483.01
631.265	19769.72
631.459	19423.62
631.653	19353.99
631.848	19194.25
632.042	18954.63
632.236	19306.88
632.43	18719.12
632.624	19024.26
632.818	18909.58
633.012	18559.38
633.206	18313.62
633.4	18641.29
633.594	18289.04
633.788	18493.84
633.982	18186.65
634.176	18188.69
634.369	17805.72
634.563	17848.73
634.757	17803.67
634.951	17924.51
635.145	17600.93
635.339	17602.97
635.533	17342.88
635.726	17306.02
635.92	16902.57
636.114	16982.44
636.308	17060.26
636.501	16978.34
636.695	16972.2
636.889	16535.98
637.083	16716.2
637.276	16728.49
637.47	16433.58
637.664	16538.03
637.857	16540.08
638.051	16267.7
638.244	15931.83
638.438	16103.86
638.632	15874.49
638.825	15839.67
639.019	15677.88
639.212	15710.65
639.406	15583.68
639.599	15393.22
639.793	15458.75
639.986	15165.89
640.18	15129.03
640.373	15147.46
640.567	14911.94
640.76	15094.21
640.954	14766.54
641.147	14617.04
641.34	14920.14
641.534	14805.45
641.727	14535.12
641.92	14627.28
642.114	14461.39
642.307	14248.4
642.5	14203.35
642.694	14170.58
642.887	14115.28
643.08	14447.05
643.273	13904.34
643.467	13853.14
643.66	13863.38
643.853	13875.67
644.046	13533.66
644.239	13498.84
644.432	13394.4
644.626	13267.42
644.819	13320.67
645.012	13431.26
645.205	13373.92
645.398	13365.73
645.591	13218.27
645.784	13050.34
645.977	12954.08
646.17	12835.3
646.363	12763.62
646.556	12560.88
646.749	12890.6
646.942	12718.57
647.135	12519.92
647.328	12288.5
647.521	12390.89
647.714	12325.36
647.907	12360.17
648.099	12059.12
648.292	12304.88
648.485	12159.47
648.678	11823.61
648.871	12095.99
649.064	11776.5
649.256	11928.05
649.449	11473.4
649.642	11915.76
649.835	11551.23
650.027	11452.92
650.22	11459.07
650.413	11301.37
650.605	11201.02
650.798	11117.06
650.991	11145.73
651.183	11328
651.376	10883.59
651.568	11151.87
651.761	11078.15
651.954	10998.27
652.146	11033.09
652.339	10627.59
652.531	10994.18
652.724	10773
652.916	10725.9
653.109	10719.75
653.301	10600.97
653.494	10580.49
653.686	10258.96
653.879	10576.39
654.071	10158.61
654.263	10244.62
654.456	10289.68
654.648	10293.77
654.84	10127.89
655.033	10013.2
655.225	10007.06
655.417	9957.91
655.61	9951.76
655.802	9814.55
655.994	9773.59
656.186	9824.79
656.379	9718.29
656.571	9617.94
656.763	9460.25
656.955	9652.76
657.148	9450.01
657.34	9480.73
657.532	9466.39
657.724	9540.12
657.916	9357.85
658.108	9323.04
658.3	9269.79
658.492	9230.88
658.684	9005.6
658.876	9144.86
659.068	8970.79
659.26	8999.46
659.452	8821.28
659.644	8952.35
659.836	8761.89
660.028	9087.52
660.22	8661.54
660.412	8800.8
660.604	8700.45
660.796	8677.93
660.988	8589.86
661.18	8438.31
661.372	8503.85
661.563	8380.97
661.755	8485.42
661.947	8464.94
662.139	8491.56
662.331	8284.72
662.522	8147.5
662.714	8340.01
662.906	8225.33
663.097	8098.35
663.289	7998
663.481	8139.31
663.673	8079.92
663.864	8116.78
664.056	7844.4
664.247	7969.33
664.439	7711.28
664.631	7866.93
664.822	7893.55
665.014	7785.01
665.205	7834.16
665.397	7619.13
665.588	7725.62
665.78	7651.89
665.971	7508.54
666.163	7561.78
666.354	7402.04
666.546	7406.14
666.737	7426.62
666.929	7408.19
667.12	7506.49
667.311	7236.16
667.503	7168.57
667.694	7332.41
667.885	7342.65
668.077	7092.8
668.268	7123.52
668.459	7213.63
668.651	7215.68
668.842	7088.7
669.033	7107.13
669.224	7074.37
669.416	7119.42
669.607	6926.91
669.798	6847.04
669.989	6898.24
670.18	6816.32
670.371	6849.09
670.563	6939.2
670.754	6844.99
670.945	6859.33
671.136	6777.41
671.327	6722.12
671.518	6713.92
671.709	6652.49
671.9	6650.44
672.091	6605.38
672.282	6726.21
672.473	6562.37
672.664	6453.83
672.855	6470.22
673.046	6554.18
673.237	6419.02
673.428	6425.16
673.619	6425.16
673.809	6419.02
674	6414.92
674.191	6378.06
674.382	6224.46
674.573	6337.1
674.764	6347.34
674.954	6310.47
675.145	6267.47
675.336	6091.34
675.527	6244.94
675.717	6142.54
675.908	6134.35
676.099	6222.41
676.289	6281.8
676.48	6224.46
676.671	5988.94
676.861	6238.8
677.052	6070.86
677.243	5976.66
677.433	5988.94
677.624	6206.03
677.814	6101.58
678.005	6001.23
678.195	5841.49
678.386	6058.57
678.576	5876.3
678.767	5870.16
678.957	5831.25
679.148	5933.65
679.338	5892.69
679.529	5886.54
679.719	5640.79
679.909	6025.81
680.1	5806.67
680.29	5886.54
680.481	5663.32
680.671	5806.67
680.861	5814.87
681.052	6021.71
681.242	5763.67
681.432	5741.14
681.622	5765.71
681.813	5769.81
682.003	5718.61
682.193	5878.35
682.383	5728.85
682.573	5636.69
682.764	5612.12
682.954	5689.94
683.144	5845.59
683.334	5739.09
683.524	5511.77
683.714	5659.22
683.904	5536.34
684.094	5648.98
684.284	5679.7
684.474	5603.93
684.664	5642.84
684.854	5775.95
685.044	5534.29
685.234	5298.78
685.424	5440.09
685.614	5407.32
685.804	5665.36
685.994	5495.38
686.184	5479
686.374	5376.6
686.564	5509.72
686.753	5472.86
686.943	5186.14
687.133	5392.98
687.323	5356.12
687.513	5376.6
687.702	5233.24
687.892	5098.08
688.082	5257.82
688.272	5208.67
688.461	5042.78
688.651	5134.94
688.841	5180
689.03	5053.02
689.22	4985.44
689.41	5120.6
689.599	5001.82
689.789	5085.79
689.979	4917.86
690.168	4930.14
690.358	4944.48
690.547	5014.11
690.737	5003.87
690.926	4997.73
691.116	4706.91
691.305	4731.49
691.495	4799.07
691.684	4778.59
691.874	4631.14
692.063	4794.98
692.252	4805.22
692.442	4770.4
692.631	4729.44
692.82	4600.42
693.01	4633.19
693.199	4698.72
693.388	4618.85
693.578	4661.86
693.767	4686.44
693.956	4526.69
694.146	4569.7
694.335	4690.53
694.524	4514.41
694.713	4678.24
694.902	4633.19
695.092	4565.6
695.281	4412.01
695.47	4502.12
695.659	4467.3
695.848	4375.14
696.037	4532.84
696.226	4592.23
696.415	4508.26
696.604	4498.02
696.793	4321.9
696.982	4407.91
697.171	4457.06
697.36	4432.49
697.549	4495.97
697.738	4340.33
697.927	4301.42
698.116	4502.12
698.305	4471.4
698.494	4332.14
698.683	4229.74
698.872	4256.36
699.061	4369
699.25	4352.62
699.438	4354.66
699.627	4422.25
699.816	4317.8
700.005	4364.9
700.193	4301.42
700.382	4166.25
700.571	4201.07
700.76	4244.07
700.948	4274.79
701.137	4348.52
701.326	4246.12
701.514	4297.32
701.703	4233.83
701.892	4196.97
702.08	4455.01
702.269	4315.75
702.457	4319.85
702.646	4201.07
702.834	4278.89
703.023	4330.09
703.212	4280.94
703.4	4211.31
703.589	3977.84
703.777	4239.98
703.965	4168.3
704.154	4106.86
704.342	4297.32
704.531	4405.86
704.719	4196.97
704.907	4274.79
705.096	4270.7
705.284	4125.29
705.472	4168.3
705.661	4207.21
705.849	4231.79
706.037	4266.6
706.226	4088.43
706.414	4188.78
706.602	4211.31
706.79	4205.16
706.979	4199.02
707.167	4190.83
707.355	4108.91
707.543	4080.24
707.731	4158.06
707.919	4158.06
708.107	4178.54
708.296	4190.83
708.484	4246.12
708.672	4100.72
708.86	4149.87
709.048	4272.75
709.236	4272.75
709.424	4170.35
709.612	4244.07
709.8	4221.55
709.988	4358.76
710.176	4129.39
710.364	4090.48
710.551	4145.77
710.739	4184.68
710.927	4225.64
711.115	4248.17
711.303	4221.55
711.491	4295.27
711.679	4104.81
711.866	4215.4
712.054	4160.11
712.242	3969.65
712.43	4280.94
712.617	4301.42
712.805	4145.77
712.993	4192.87
713.181	4059.76
713.368	4199.02
713.556	4180.59
713.744	4153.96
713.931	4258.41
714.119	4082.28
714.306	4248.17
714.494	4235.88
714.682	4172.39
714.869	4125.29
715.057	4260.46
715.244	4094.57
715.432	4205.16
715.619	4190.83
715.807	4176.49
715.994	4338.28
716.182	4184.68
716.369	4196.97
716.556	4133.48
716.744	4121.2
716.931	3981.93
717.119	4158.06
717.306	4356.71
717.493	4215.4
717.681	4186.73
717.868	4227.69
718.055	4332.14
718.242	4166.25
718.43	4346.47
718.617	4196.97
718.804	4205.16
718.991	4106.86
719.179	4346.47
719.366	4221.55
719.553	4262.51
719.74	4205.16
719.927	4424.3
720.114	4231.79
720.301	4149.87
720.488	3981.93
720.676	4196.97
720.863	4178.54
721.05	4121.2
721.237	4149.87
721.424	4139.63
721.611	4121.2
721.798	4188.78
721.985	4119.15
722.172	4119.15
722.358	4170.35
722.545	4180.59
722.732	4225.64
722.919	4096.62
723.106	4117.1
723.293	4067.95
723.48	4162.16
723.667	4033.13
723.853	3979.89
724.04	4186.73
724.227	4053.61
724.414	4196.97
724.6	4113
724.787	4104.81
724.974	4033.13
725.161	4147.82
725.347	4174.44
725.534	4106.86
725.72	4024.94
725.907	4100.72
726.094	4098.67
726.28	4168.3
726.467	4133.48
726.653	4164.2
726.84	4026.99
727.027	4287.08
727.213	3953.26
727.4	4059.76
727.586	4156.01
727.773	4135.53
727.959	3998.32
728.145	4180.59
728.332	4029.04
728.518	4063.85
728.705	3992.17
728.891	4117.1
729.077	4041.32
729.264	4084.33
729.45	4002.41
729.636	4057.71
729.823	4049.52
730.009	4067.95
730.195	3916.4
730.382	4033.13
730.568	4004.46
730.754	4000.37
730.94	4024.94
731.126	4055.66
731.313	4096.62
731.499	3953.26
731.685	3859.06
731.871	3996.27
732.057	3986.03
732.243	3953.26
732.429	4059.76
732.615	4018.8
732.801	4121.2
732.987	3926.64
733.173	3975.79
733.359	3920.49
733.545	4022.89
733.731	3842.67
733.917	3895.92
734.103	3918.45
734.289	4102.76
734.475	3768.95
734.661	3961.45
734.847	4065.9
735.033	3945.07
735.219	3871.34
735.404	3996.27
735.59	3854.96
735.776	3932.78
735.962	3969.65
736.148	3969.65
736.333	3900.02
736.519	3885.68
736.705	3971.69
736.89	3949.17
737.076	3953.26
737.262	3779.18
737.447	3904.11
737.633	3822.19
737.819	3846.77
738.004	3785.33
738.19	3764.85
738.375	3791.47
738.561	3928.69
738.747	3736.18
738.932	3859.06
739.118	3596.92
739.303	3742.32
739.489	3594.87
739.674	3631.73
739.859	3732.08
740.045	3768.95
740.23	3740.27
740.416	3633.78
740.601	3705.46
740.786	3584.63
740.972	3467.89
741.157	3609.2
741.342	3592.82
741.528	3580.53
741.713	3674.74
741.898	3574.39
742.084	3584.63
742.269	3621.49
742.454	3549.81
742.639	3637.88
742.824	3543.67
743.01	3453.56
743.195	3392.12
743.38	3383.93
743.565	3379.83
743.75	3402.36
743.935	3488.37
744.12	3465.85
744.305	3394.17
744.49	3398.26
744.675	3314.3
744.86	3275.38
745.045	3330.68
745.23	3222.14
745.415	3420.79
745.6	3234.43
745.785	3246.71
745.97	3205.75
746.155	3220.09
746.34	3252.86
746.525	3052.16
746.71	3199.61
746.895	3078.78
747.079	3152.51
747.264	3086.97
747.449	3179.13
747.634	3181.18
747.819	3019.39
748.003	2962.05
748.188	2947.71
748.373	2982.53
748.557	3101.31
748.742	3062.4
748.927	2886.27
749.111	2892.41
749.296	2855.55
749.481	2914.94
749.665	2941.57
749.85	2787.97
750.034	2845.31
750.219	2792.06
750.404	2828.93
750.588	2697.86
750.773	2763.39
750.957	2740.86
751.141	2636.42
751.326	2724.48
751.51	2523.78
751.695	2601.6
751.879	2482.82
752.064	2665.09
752.248	2607.75
752.432	2536.07
752.617	2507.4
752.801	2525.83
752.985	2538.12
753.17	2509.44
753.354	2552.45
753.538	2519.68
753.722	2441.86
753.907	2544.26
754.091	2257.54
754.275	2439.81
754.459	2312.84
754.643	2351.75
754.828	2413.19
755.012	2290.31
755.196	2220.68
755.38	2230.92
755.564	2273.93
755.748	2255.5
755.932	2208.39
756.116	2251.4
756.3	2243.21
756.484	2126.47
756.668	2134.67
756.852	2122.38
757.036	2173.58
757.22	2030.22
757.404	2138.76
757.588	2149
757.772	2163.34
757.956	2044.56
758.14	2028.17
758.323	1974.92
758.507	2118.28
758.691	1960.59
758.875	1944.2
759.059	1948.3
759.242	1962.64
759.426	1895.05
759.61	1913.49
759.794	2024.08
759.977	1835.66
760.161	2022.03
760.345	1823.37
760.528	1929.87
760.712	1823.37
760.895	1864.33
761.079	1813.13
761.263	1866.38
761.446	1763.98
761.63	1768.08
761.813	1741.46
761.997	1792.66
762.18	1802.9
762.364	1882.77
762.547	1712.78
762.731	1800.85
762.914	1622.67
763.098	1680.02
763.281	1688.21
763.464	1766.03
763.648	1712.78
763.831	1651.35
764.015	1784.46
764.198	1741.46
764.381	1702.54
764.564	1653.39
764.748	1737.36
764.931	1620.63
765.114	1684.11
765.297	1553.04
765.481	1550.99
765.664	1641.11
765.847	1520.28
766.03	1555.09
766.213	1540.76
766.397	1526.42
766.58	1471.12
766.763	1618.58
766.946	1532.56
767.129	1618.58
767.312	1450.64
767.495	1553.04
767.678	1499.8
767.861	1520.28
768.044	1507.99
768.227	1524.37
768.41	1569.43
768.593	1606.29
768.776	1440.4
768.959	1524.37
769.142	1442.45
769.324	1469.08
769.507	1497.75
769.69	1323.67
769.873	1495.7
770.056	1581.71
770.239	1514.13
770.421	1493.65
770.604	1507.99
770.787	1350.29
770.97	1372.82
771.152	1352.34
771.335	1301.14
771.518	1338.01
771.7	1356.44
771.883	1352.34
772.066	1356.44
772.248	1290.9
772.431	1303.19
772.613	1307.29
772.796	1297.05
772.978	1358.49
773.161	1327.77
773.343	1249.94
773.526	1180.31
773.708	1219.22
773.891	1176.22
774.073	1335.96
774.256	1249.94
774.438	1264.28
774.621	1192.6
774.803	1254.04
774.985	1165.98
775.168	1262.23
775.35	1176.22
775.532	1168.02
775.715	1182.36
775.897	1192.6
776.079	1147.55
776.261	1176.22
776.444	1266.33
776.626	1159.83
776.808	1092.25
776.99	1049.24
777.173	1127.07
777.355	1041.05
777.537	1069.72
777.719	932.51
777.901	1067.67
778.083	1057.43
778.265	1082.01
778.447	1036.95
778.629	1110.68
778.811	1077.91
778.993	1016.48
779.175	1045.15
779.357	965.28
779.539	1002.14
779.721	955.04
779.903	885.41
780.085	934.56
780.267	977.56
780.449	907.93
780.631	934.56
780.812	979.61
780.994	1000.09
781.176	844.45
781.358	922.27
781.54	850.59
781.721	869.02
781.903	838.3
782.085	854.69
782.267	852.64
782.448	846.49
782.63	774.81
782.812	840.35
782.993	832.16
783.175	815.77
783.357	723.62
783.538	795.29
783.72	783.01
783.901	821.92
784.083	905.88
784.264	797.34
784.446	750.24
784.627	789.15
784.809	785.05
784.99	703.14
785.172	772.77
785.353	696.99
785.535	723.62
785.716	690.85
785.897	692.9
786.079	770.72
786.26	721.57
786.441	746.14
786.623	606.88
786.804	731.81
786.985	658.08
787.167	608.93
787.348	660.13
787.529	653.98
787.71	723.62
787.891	656.03
788.073	668.32
788.254	653.98
788.435	733.86
788.616	682.66
788.797	555.68
788.978	596.64
789.159	694.94
789.34	713.38
789.522	627.36
789.703	578.21
789.884	606.88
790.065	508.58
790.246	555.68
790.427	592.55
790.607	570.02
790.788	590.5
790.969	539.3
791.15	535.2
791.331	535.2
791.512	520.87
791.693	576.16
791.874	549.54
792.054	506.53
792.235	565.92
792.416	504.48
792.597	459.43
792.778	529.06
792.958	506.53
793.139	518.82
793.32	537.25
793.5	529.06
793.681	586.4
793.862	567.97
794.042	473.76
794.223	481.96
794.404	524.96
794.584	461.48
794.765	400.04
794.945	524.96
795.126	543.39
795.306	535.2
795.487	481.96
795.667	463.52
795.848	436.9
796.028	453.28
796.209	486.05
796.389	412.32
796.57	502.43
796.75	428.71
796.93	527.01
797.111	496.29
797.291	465.57
797.471	481.96
797.652	379.56
797.832	475.81
798.012	502.43
798.192	402.08
798.373	402.08
798.553	354.98
798.733	350.89
798.913	428.71
799.093	393.89
799.274	479.91
799.454	359.08
799.634	406.18
799.814	414.37
799.994	416.42
800.174	492.2
800.354	371.36
800.534	369.32
800.714	375.46
800.894	434.85
801.074	453.28
801.254	375.46
801.434	451.24
801.614	377.51
801.794	397.99
801.974	877.21
802.154	361.13
802.334	424.61
802.514	311.97
802.693	346.79
802.873	379.56
803.053	344.74
803.233	420.52
803.413	397.99
803.592	377.51
803.772	287.4
803.952	385.7
804.131	354.98
804.311	418.47
804.491	344.74
804.67	369.32
804.85	326.31
805.03	326.31
805.209	377.51
805.389	295.59
805.568	375.46
805.748	330.41
805.928	352.93
806.107	264.87
806.287	338.6
806.466	320.17
806.646	242.34
806.825	309.93
807.004	297.64
807.184	455.33
807.363	324.26
807.543	316.07
807.722	293.54
807.901	338.6
808.081	295.59
808.26	303.78
808.439	305.83
808.619	273.06
808.798	336.55
808.977	299.69
809.156	230.06
809.336	254.63
809.515	232.1
809.694	334.5
809.873	295.59
810.052	277.16
810.231	324.26
810.411	279.21
810.59	254.63
810.769	273.06
810.948	326.31
811.127	160.42
811.306	232.1
811.485	297.64
811.664	277.16
811.843	248.49
812.022	283.3
812.201	238.25
812.38	264.87
812.559	271.01
812.737	271.01
812.916	148.14
813.095	223.91
813.274	301.73
813.453	258.73
813.632	266.92
813.811	266.92
813.989	215.72
814.168	289.45
814.347	279.21
814.526	305.83
814.704	305.83
814.883	297.64
815.062	127.66
815.24	266.92
815.419	287.4
815.598	199.34
815.776	133.8
815.955	256.68
816.133	156.33
816.312	189.1
816.49	248.49
816.669	264.87
816.847	150.18
817.026	250.53
817.204	182.95
817.383	209.58
817.561	221.86
817.74	148.14
817.918	185
818.097	230.06
818.275	178.86
818.453	228.01
818.632	217.77
818.81	156.33
818.988	180.9
819.167	127.66
819.345	264.87
819.523	230.06
819.701	242.34
819.879	242.34
820.058	230.06
820.236	213.67
820.414	178.86
820.592	248.49
820.77	129.7
820.948	211.62
821.127	193.19
821.305	197.29
821.483	148.14
821.661	170.66
821.839	187.05
822.017	141.99
822.195	205.48
822.373	289.45
822.551	113.32
822.729	160.42
822.907	164.52
823.085	211.62
823.262	103.08
823.44	152.23
823.618	158.38
823.796	221.86
823.974	199.34
824.152	111.27
824.329	133.8
824.507	131.75
824.685	146.09
824.863	185
825.04	185
825.218	109.22
825.396	182.95
825.574	162.47
825.751	162.47
825.929	189.1
826.107	156.33
826.284	119.46
826.462	131.75
826.639	160.42
826.817	37.55
826.994	154.28
827.172	148.14
827.349	203.43
827.527	223.91
827.704	168.62
827.882	221.86
828.059	113.32
828.237	127.66
828.414	168.62
828.591	127.66
828.769	166.57
828.946	236.2
829.124	160.42
829.301	156.33
829.478	158.38
829.655	166.57
829.833	236.2
830.01	29.35
830.187	119.46
830.364	80.55
830.542	219.82
830.719	125.61
830.896	78.51
831.073	125.61
831.25	180.9
831.427	148.14
831.604	185
831.782	207.53
831.959	139.94
832.136	41.64
832.313	119.46
832.49	94.89
832.667	189.1
832.844	123.56
833.021	139.94
833.198	156.33
833.374	137.9
833.551	158.38
833.728	117.42
833.905	92.84
834.082	144.04
834.259	137.9
834.436	221.86
834.612	62.12
834.789	123.56
834.966	101.03
835.143	141.99
835.319	164.52
835.496	109.22
835.673	137.9
835.85	148.14
836.026	144.04
836.203	152.23
836.38	90.79
836.556	60.07
836.733	82.6
836.909	125.61
837.086	107.18
837.262	113.32
837.439	94.89
837.616	68.27
837.792	115.37
837.968	123.56
838.145	111.27
838.321	101.03
838.498	25.26
838.674	117.42
838.851	127.66
839.027	115.37
839.203	96.94
839.38	68.27
839.556	23.21
839.732	113.32
839.909	70.31
840.085	66.22
840.261	62.12
840.437	64.17
840.614	90.79
840.79	139.94
840.966	131.75
841.142	68.27
841.318	101.03
841.494	125.61
841.671	137.9
841.847	74.41
842.023	92.84
842.199	121.51
842.375	72.36
842.551	58.03
842.727	115.37
842.903	174.76
843.079	94.89
843.255	152.23
843.431	123.56
843.607	107.18
843.783	111.27
843.959	-32.08
844.134	94.89
844.31	76.46
844.486	64.17
844.662	-23.89
844.838	80.55
845.013	131.75
845.189	80.55
845.365	41.64
845.541	37.55
845.716	66.22
845.892	133.8
846.068	92.84
846.244	51.88
846.419	82.6
846.595	107.18
846.77	51.88
846.946	94.89
847.122	88.75
847.297	45.74
847.473	127.66
847.648	-9.56
847.824	101.03
847.999	45.74
848.175	162.47
848.35	78.51
848.526	111.27
848.701	172.71
848.876	98.99
849.052	103.08
849.227	98.99
849.403	70.31
849.578	76.46
849.753	86.7
849.929	98.99
850.104	62.12
850.279	45.74
850.454	60.07
850.63	98.99
850.805	6.83
850.98	-15.7
851.155	117.42
851.33	29.35
851.505	45.74
851.681	49.83
851.856	-44.37
852.031	78.51
852.206	47.79
852.381	45.74
852.556	8.87
852.731	-5.46
852.906	43.69
853.081	55.98
853.256	72.36
853.431	68.27
853.606	90.79
853.781	92.84
853.956	-19.8
854.131	41.64
854.305	37.55
854.48	39.59
854.655	43.69
854.83	76.46
855.005	37.55
855.18	72.36
855.354	-3.41
855.529	68.27
855.704	17.07
855.879	101.03
856.053	-19.8
856.228	111.27
856.403	-7.51
856.577	21.16
856.752	86.7
856.926	19.11
857.101	41.64
857.276	-52.56
857.45	33.45
857.625	39.59
857.799	55.98
857.974	29.35
858.148	37.55
858.323	68.27
858.497	45.74
858.672	19.11
858.846	53.93
859.02	53.93
859.195	12.97
859.369	-3.41
859.543	25.26
859.718	51.88
859.892	107.18
860.066	10.92
860.241	92.84
860.415	23.21
860.589	-19.8
860.763	39.59
860.938	51.88
861.112	78.51
861.286	25.26
861.46	6.83
861.634	92.84
861.808	135.85
861.982	35.5
862.157	64.17
862.331	68.27
862.505	19.11
862.679	-27.99
862.853	103.08
863.027	-58.71
863.201	82.6
863.375	0.68
863.549	29.35
863.722	23.21
863.896	64.17
864.07	29.35
864.244	47.79
864.418	53.93
864.592	53.93
864.766	21.16
864.939	33.45
865.113	29.35
865.287	96.94
865.461	27.31
865.634	123.56
865.808	-25.94
865.982	45.74
866.156	-85.33
866.329	4.78
866.503	23.21
866.676	47.79
866.85	25.26
867.024	62.12
867.197	29.35
867.371	39.59
867.544	21.16
867.718	-62.8
867.891	82.6
868.065	-32.08
868.238	-48.47
868.412	70.31
868.585	45.74
868.759	25.26
868.932	29.35
869.105	49.83
869.279	60.07
869.452	23.21
869.625	-1.37
869.799	19.11
869.972	66.22
870.145	92.84
870.319	78.51
870.492	12.97
870.665	58.03
870.838	-5.46
871.011	-58.71
871.185	-1.37
871.358	12.97
871.531	-11.61
871.704	-23.89
871.877	4.78
872.05	33.45
872.223	6.83
872.396	84.65
872.569	66.22
872.742	25.26
872.915	43.69
873.088	-27.99
873.261	-15.7
873.434	-21.85
873.607	37.55
873.78	21.16
873.953	10.92
874.126	51.88
874.299	82.6
874.471	17.07
874.644	66.22
874.817	60.07
874.99	-19.8
875.163	158.38
875.335	37.55
875.508	-38.23
875.681	33.45
875.853	29.35
876.026	78.51
876.199	62.12
876.371	15.02
876.544	17.07
876.717	19.11
876.889	-23.89
877.062	-5.46
877.234	37.55
877.407	-30.04
877.579	49.83
877.752	39.59
877.924	0.68
878.097	47.79
878.269	80.55
878.442	-11.61
878.614	-25.94
878.786	125.61
878.959	62.12
879.131	-83.28
879.303	51.88
879.476	2.73
879.648	-30.04
879.82	55.98
879.993	-3.41
880.165	55.98
880.337	29.35
880.509	29.35
880.681	0.68
880.854	74.41
881.026	-3.41
881.198	47.79
881.37	-19.8
881.542	21.16
881.714	6.83
881.886	19.11
882.058	82.6
882.23	60.07
882.402	-54.61
882.574	2.73
882.746	55.98
882.918	37.55
883.09	72.36
883.262	37.55
883.434	33.45
883.606	-7.51
883.778	-11.61
883.95	10.92
884.122	31.4
884.293	10.92
884.465	39.59
884.637	29.35
884.809	-54.61
884.98	37.55
885.152	94.89
885.324	-3.41
885.496	0.68
885.667	12.97
885.839	55.98
886.011	37.55
886.182	-75.09
886.354	-50.52
886.525	0.68
886.697	62.12
886.869	-81.24
887.04	12.97
887.212	53.93
887.383	111.27
887.555	12.97
887.726	2.73
887.897	25.26
888.069	-40.28
888.24	41.64
888.412	90.79
888.583	45.74
888.754	17.07
888.926	-13.65
889.097	68.27
889.268	68.27
889.44	-19.8
889.611	21.16
889.782	4.78
889.953	-9.56
890.125	27.31
890.296	-27.99
890.467	84.65
890.638	31.4
890.809	29.35
890.98	-27.99
891.151	29.35
891.323	86.7
891.494	55.98
891.665	55.98
891.836	-19.8
892.007	17.07
892.178	15.02
892.349	-1.37
892.52	-30.04
892.691	49.83
892.862	-38.23
893.032	-19.8
893.203	-3.41
893.374	-9.56
893.545	64.17
893.716	-3.41
893.887	-40.28
894.057	-11.61
894.228	-9.56
894.399	-11.61
894.57	31.4
894.74	10.92
894.911	-54.61
895.082	12.97
895.253	15.02
895.423	70.31
895.594	62.12
895.764	29.35
895.935	-30.04
896.106	107.18
896.276	55.98
896.447	33.45
896.617	-38.23
896.788	10.92
896.958	33.45
897.129	-5.46
897.299	25.26
897.47	39.59
897.64	45.74
897.81	53.93
897.981	10.92
898.151	-23.89
898.322	-15.7
898.492	47.79
898.662	-17.75
898.832	-40.28
899.003	45.74
899.173	6.83
899.343	-73.04
899.513	-1.37
