Data from USB4F104151__207__10-29-50-943.txt Node

Date: Wed Mar 12 10:29:50 EDT 2025
User: louis
Spectrometer: USB4F10415
Trigger mode: 4
Integration Time (sec): 3.000000E-2
Scans to average: 1
Electric dark correction enabled: true
Nonlinearity correction enabled: false
Boxcar width: 0
XAxis mode: Wavelengths
Number of Pixels in Spectrum: 3648
>>>>>Begin Spectral Data<<<<<
178.204	-160.08
178.424	-160.08
178.644	-160.08
178.864	-131.41
179.084	-131.41
179.304	28.33
179.524	11.95
179.744	52.91
179.964	7.85
180.184	-6.49
180.404	28.33
180.624	9.9
180.844	-69.97
181.064	-72.02
181.283	1.71
181.503	18.09
181.723	-10.58
181.943	-59.73
182.163	132.78
182.383	61.1
182.602	-47.44
182.822	9.9
183.042	52.91
183.262	-14.68
183.482	75.43
183.701	-39.25
183.921	9.9
184.141	30.38
184.361	-6.49
184.58	9.9
184.8	65.19
185.02	26.28
185.239	69.29
185.459	-51.54
185.679	104.11
185.898	9.9
186.118	42.67
186.338	-16.73
186.557	104.11
186.777	-20.82
186.997	57
187.216	34.47
187.436	48.81
187.655	-4.44
187.875	-10.58
188.095	-24.92
188.314	65.19
188.534	57
188.753	54.95
188.973	44.71
189.192	73.39
189.412	54.95
189.631	1.71
189.851	-0.34
190.07	100.01
190.29	-6.49
190.509	9.9
190.729	-12.63
190.948	71.34
191.168	95.91
191.387	59.05
191.607	13.99
191.826	7.85
192.045	52.91
192.265	-39.25
192.484	87.72
192.704	-22.87
192.923	-61.78
193.142	50.86
193.362	13.99
193.581	50.86
193.8	40.62
194.02	18.09
194.239	-41.3
194.458	54.95
194.678	-10.58
194.897	-8.53
195.116	-6.49
195.335	63.15
195.555	59.05
195.774	13.99
195.993	-2.39
196.212	7.85
196.432	-26.96
196.651	16.04
196.87	20.14
197.089	124.58
197.308	-10.58
197.528	38.57
197.747	-4.44
197.966	46.76
198.185	-6.49
198.404	-24.92
198.623	32.43
198.842	48.81
199.062	63.15
199.281	77.48
199.5	36.52
199.719	-4.44
199.938	28.33
200.157	34.47
200.376	-4.44
200.595	26.28
200.814	-31.06
201.033	24.23
201.252	11.95
201.471	11.95
201.69	59.05
201.909	24.23
202.128	-8.53
202.347	28.33
202.566	3.75
202.785	-59.73
203.004	38.57
203.223	69.29
203.442	-51.54
203.661	-37.2
203.879	59.05
204.098	77.48
204.317	-61.78
204.536	42.67
204.755	54.95
204.974	77.48
205.193	22.19
205.411	38.57
205.63	38.57
205.849	-37.2
206.068	52.91
206.287	-6.49
206.505	26.28
206.724	24.23
206.943	-0.34
207.162	18.09
207.381	-4.44
207.599	22.19
207.818	16.04
208.037	71.34
208.255	-63.83
208.474	-41.3
208.693	-10.58
208.911	38.57
209.13	46.76
209.349	52.91
209.567	9.9
209.786	13.99
210.005	13.99
210.223	-2.39
210.442	-18.77
210.661	59.05
210.879	-41.3
211.098	50.86
211.316	75.43
211.535	28.33
211.753	30.38
211.972	-12.63
212.191	-37.2
212.409	42.67
212.628	16.04
212.846	-39.25
213.065	-14.68
213.283	9.9
213.502	36.52
213.72	1.71
213.938	-2.39
214.157	30.38
214.375	67.24
214.594	-18.77
214.812	69.29
215.031	63.15
215.249	40.62
215.467	44.71
215.686	16.04
215.904	36.52
216.122	-10.58
216.341	28.33
216.559	71.34
216.778	42.67
216.996	46.76
217.214	-37.2
217.432	-6.49
217.651	13.99
217.869	22.19
218.087	50.86
218.306	38.57
218.524	20.14
218.742	26.28
218.96	28.33
219.179	1.71
219.397	16.04
219.615	140.97
219.833	54.95
220.051	-26.96
220.27	67.24
220.488	63.15
220.706	28.33
220.924	-67.92
221.142	26.28
221.36	77.48
221.578	-8.53
221.796	-16.73
222.015	-53.59
222.233	-61.78
222.451	83.63
222.669	42.67
222.887	26.28
223.105	46.76
223.323	65.19
223.541	16.04
223.759	71.34
223.977	79.53
224.195	16.04
224.413	-33.11
224.631	102.06
224.849	-24.92
225.067	149.16
225.285	32.43
225.503	30.38
225.721	-31.06
225.939	38.57
226.157	40.62
226.375	83.63
226.592	1.71
226.81	34.47
227.028	118.44
227.246	93.87
227.464	-12.63
227.682	104.11
227.9	32.43
228.117	36.52
228.335	-12.63
228.553	1.71
228.771	38.57
228.989	-2.39
229.206	5.8
229.424	-18.77
229.642	-35.16
229.86	-67.92
230.077	102.06
230.295	16.04
230.513	9.9
230.731	89.77
230.948	52.91
231.166	44.71
231.384	-84.31
231.601	32.43
231.819	1.71
232.037	38.57
232.254	30.38
232.472	-14.68
232.689	16.04
232.907	30.38
233.125	-39.25
233.342	13.99
233.56	-88.4
233.777	38.57
233.995	20.14
234.213	52.91
234.43	3.75
234.648	13.99
234.865	-18.77
235.083	42.67
235.3	93.87
235.518	7.85
235.735	-14.68
235.953	42.67
236.17	34.47
236.388	24.23
236.605	20.14
236.822	87.72
237.04	50.86
237.257	-18.77
237.475	-80.21
237.692	26.28
237.909	-14.68
238.127	26.28
238.344	13.99
238.562	7.85
238.779	-26.96
238.996	-2.39
239.214	87.72
239.431	-43.35
239.648	-31.06
239.865	11.95
240.083	44.71
240.3	-0.34
240.517	28.33
240.735	-26.96
240.952	22.19
241.169	95.91
241.386	28.33
241.603	9.9
241.821	48.81
242.038	79.53
242.255	-14.68
242.472	20.14
242.689	69.29
242.907	28.33
243.124	-4.44
243.341	30.38
243.558	9.9
243.775	11.95
243.992	-4.44
244.209	-10.58
244.426	95.91
244.643	44.71
244.86	-6.49
245.078	110.25
245.295	71.34
245.512	59.05
245.729	-69.97
245.946	28.33
246.163	-18.77
246.38	87.72
246.597	-12.63
246.814	20.14
247.031	30.38
247.248	50.86
247.464	20.14
247.681	44.71
247.898	93.87
248.115	-4.44
248.332	-29.01
248.549	59.05
248.766	11.95
248.983	71.34
249.2	5.8
249.417	13.99
249.633	13.99
249.85	-57.68
250.067	32.43
250.284	-12.63
250.501	54.95
250.717	63.15
250.934	-2.39
251.151	3.75
251.368	9.9
251.585	-4.44
251.801	11.95
252.018	-8.53
252.235	57
252.451	-41.3
252.668	13.99
252.885	26.28
253.102	36.52
253.318	1.71
253.535	42.67
253.752	63.15
253.968	-37.2
254.185	-74.07
254.401	-6.49
254.618	54.95
254.835	26.28
255.051	-6.49
255.268	73.39
255.484	65.19
255.701	-10.58
255.917	20.14
256.134	-37.2
256.351	57
256.567	20.14
256.784	83.63
257	-0.34
257.217	-2.39
257.433	71.34
257.65	34.47
257.866	38.57
258.082	-2.39
258.299	28.33
258.515	16.04
258.732	5.8
258.948	-72.02
259.165	20.14
259.381	-6.49
259.597	34.47
259.814	-49.49
260.03	22.19
260.246	9.9
260.463	-14.68
260.679	42.67
260.895	18.09
261.112	-14.68
261.328	67.24
261.544	-14.68
261.761	118.44
261.977	-51.54
262.193	-18.77
262.409	22.19
262.626	-8.53
262.842	69.29
263.058	16.04
263.274	38.57
263.49	44.71
263.707	65.19
263.923	26.28
264.139	-10.58
264.355	5.8
264.571	57
264.787	26.28
265.004	67.24
265.22	5.8
265.436	18.09
265.652	40.62
265.868	52.91
266.084	22.19
266.3	26.28
266.516	-39.25
266.732	13.99
266.948	22.19
267.164	11.95
267.38	-39.25
267.596	42.67
267.812	79.53
268.028	26.28
268.244	-80.21
268.46	38.57
268.676	79.53
268.892	46.76
269.108	-18.77
269.324	-45.4
269.54	-24.92
269.756	32.43
269.972	-35.16
270.188	-2.39
270.403	-22.87
270.619	-26.96
270.835	-20.82
271.051	22.19
271.267	3.75
271.483	30.38
271.698	30.38
271.914	36.52
272.13	9.9
272.346	13.99
272.562	13.99
272.777	54.95
272.993	-33.11
273.209	40.62
273.425	77.48
273.64	-24.92
273.856	18.09
274.072	38.57
274.287	-31.06
274.503	-6.49
274.719	-4.44
274.934	50.86
275.15	-43.35
275.366	-2.39
275.581	-8.53
275.797	-22.87
276.012	7.85
276.228	13.99
276.444	30.38
276.659	46.76
276.875	-6.49
277.09	-2.39
277.306	1.71
277.521	-18.77
277.737	42.67
277.952	-10.58
278.168	73.39
278.383	-4.44
278.599	-10.58
278.814	50.86
279.03	20.14
279.245	26.28
279.461	69.29
279.676	-26.96
279.892	-43.35
280.107	36.52
280.322	5.8
280.538	26.28
280.753	-45.4
280.969	-2.39
281.184	63.15
281.399	-10.58
281.615	40.62
281.83	50.86
282.045	1.71
282.26	22.19
282.476	11.95
282.691	110.25
282.906	22.19
283.122	73.39
283.337	22.19
283.552	26.28
283.767	38.57
283.983	-24.92
284.198	9.9
284.413	-2.39
284.628	-39.25
284.843	52.91
285.058	-2.39
285.274	-39.25
285.489	-22.87
285.704	-10.58
285.919	-33.11
286.134	36.52
286.349	-6.49
286.564	-20.82
286.779	63.15
286.995	-6.49
287.21	-49.49
287.425	-18.77
287.64	7.85
287.855	3.75
288.07	30.38
288.285	16.04
288.5	38.57
288.715	63.15
288.93	36.52
289.145	46.76
289.36	3.75
289.575	54.95
289.79	28.33
290.004	1.71
290.219	108.2
290.434	11.95
290.649	-37.2
290.864	42.67
291.079	30.38
291.294	5.8
291.509	20.14
291.724	-2.39
291.938	7.85
292.153	38.57
292.368	28.33
292.583	52.91
292.798	13.99
293.012	87.72
293.227	-8.53
293.442	18.09
293.657	83.63
293.871	63.15
294.086	16.04
294.301	34.47
294.516	38.57
294.73	79.53
294.945	-67.92
295.16	81.58
295.374	71.34
295.589	-8.53
295.804	-72.02
296.018	63.15
296.233	16.04
296.447	36.52
296.662	61.1
296.877	63.15
297.091	93.87
297.306	-53.59
297.52	9.9
297.735	24.23
297.949	1.71
298.164	85.67
298.378	3.75
298.593	48.81
298.807	11.95
299.022	-12.63
299.236	77.48
299.451	-31.06
299.665	-10.58
299.88	16.04
300.094	22.19
300.309	26.28
300.523	7.85
300.737	32.43
300.952	16.04
301.166	42.67
301.381	20.14
301.595	46.76
301.809	24.23
302.024	52.91
302.238	5.8
302.452	87.72
302.667	-12.63
302.881	48.81
303.095	26.28
303.309	18.09
303.524	44.71
303.738	-57.68
303.952	-2.39
304.166	-31.06
304.381	-67.92
304.595	54.95
304.809	13.99
305.023	34.47
305.237	-47.44
305.452	-14.68
305.666	20.14
305.88	-6.49
306.094	50.86
306.308	22.19
306.522	-14.68
306.736	11.95
306.95	63.15
307.164	52.91
307.379	-6.49
307.593	71.34
307.807	42.67
308.021	75.43
308.235	38.57
308.449	-55.64
308.663	36.52
308.877	-12.63
309.091	28.33
309.305	69.29
309.519	-47.44
309.733	28.33
309.947	13.99
310.161	89.77
310.374	50.86
310.588	7.85
310.802	-2.39
311.016	3.75
311.23	13.99
311.444	-2.39
311.658	18.09
311.872	114.34
312.085	63.15
312.299	-2.39
312.513	50.86
312.727	42.67
312.941	5.8
313.154	30.38
313.368	-6.49
313.582	9.9
313.796	57
314.009	106.15
314.223	63.15
314.437	120.49
314.651	28.33
314.864	38.57
315.078	26.28
315.292	18.09
315.505	38.57
315.719	5.8
315.933	48.81
316.146	59.05
316.36	57
316.573	108.2
316.787	-43.35
317.001	44.71
317.214	-10.58
317.428	75.43
317.641	-12.63
317.855	52.91
318.068	77.48
318.282	61.1
318.495	20.14
318.709	-26.96
318.922	-10.58
319.136	34.47
319.349	79.53
319.563	3.75
319.776	-0.34
319.99	44.71
320.203	63.15
320.417	-20.82
320.63	52.91
320.843	-4.44
321.057	32.43
321.27	-2.39
321.483	52.91
321.697	38.57
321.91	-18.77
322.124	65.19
322.337	-6.49
322.55	59.05
322.763	22.19
322.977	20.14
323.19	-14.68
323.403	5.8
323.617	7.85
323.83	42.67
324.043	-29.01
324.256	28.33
324.469	34.47
324.683	26.28
324.896	44.71
325.109	1.71
325.322	5.8
325.535	95.91
325.748	-6.49
325.962	40.62
326.175	38.57
326.388	-39.25
326.601	85.67
326.814	1.71
327.027	-65.88
327.24	30.38
327.453	20.14
327.666	28.33
327.879	57
328.092	52.91
328.305	116.39
328.518	7.85
328.731	-2.39
328.944	87.72
329.157	-12.63
329.37	9.9
329.583	116.39
329.796	40.62
330.009	5.8
330.222	22.19
330.435	26.28
330.648	20.14
330.861	-2.39
331.073	1.71
331.286	79.53
331.499	7.85
331.712	3.75
331.925	18.09
332.138	-0.34
332.35	71.34
332.563	34.47
332.776	38.57
332.989	16.04
333.202	75.43
333.414	-16.73
333.627	24.23
333.84	28.33
334.053	9.9
334.265	9.9
334.478	3.75
334.691	-26.96
334.903	-31.06
335.116	1.71
335.329	-6.49
335.541	81.58
335.754	26.28
335.966	-45.4
336.179	-2.39
336.392	71.34
336.604	28.33
336.817	40.62
337.029	44.71
337.242	1.71
337.454	7.85
337.667	38.57
337.88	81.58
338.092	48.81
338.305	34.47
338.517	54.95
338.729	11.95
338.942	-10.58
339.154	11.95
339.367	-6.49
339.579	13.99
339.792	-4.44
340.004	20.14
340.217	42.67
340.429	32.43
340.641	77.48
340.854	13.99
341.066	-14.68
341.278	77.48
341.491	104.11
341.703	106.15
341.915	-16.73
342.128	18.09
342.34	71.34
342.552	-35.16
342.764	9.9
342.977	13.99
343.189	106.15
343.401	24.23
343.613	11.95
343.826	13.99
344.038	-67.92
344.25	-55.64
344.462	-41.3
344.674	87.72
344.886	75.43
345.099	1.71
345.311	-0.34
345.523	36.52
345.735	-6.49
345.947	22.19
346.159	-4.44
346.371	11.95
346.583	38.57
346.795	104.11
347.007	13.99
347.219	69.29
347.431	7.85
347.643	57
347.855	36.52
348.067	24.23
348.279	30.38
348.491	24.23
348.703	13.99
348.915	132.78
349.127	-47.44
349.339	104.11
349.551	-26.96
349.763	-12.63
349.975	50.86
350.187	-20.82
350.399	46.76
350.61	-2.39
350.822	-4.44
351.034	77.48
351.246	38.57
351.458	79.53
351.669	124.58
351.881	18.09
352.093	71.34
352.305	50.86
352.517	34.47
352.728	1.71
352.94	3.75
353.152	40.62
353.363	-33.11
353.575	75.43
353.787	52.91
353.999	34.47
354.21	89.77
354.422	-29.01
354.633	63.15
354.845	59.05
355.057	69.29
355.268	50.86
355.48	36.52
355.692	24.23
355.903	124.58
356.115	44.71
356.326	48.81
356.538	-4.44
356.749	20.14
356.961	13.99
357.172	-8.53
357.384	1.71
357.595	69.29
357.807	46.76
358.018	85.67
358.23	75.43
358.441	71.34
358.653	85.67
358.864	-29.01
359.075	44.71
359.287	24.23
359.498	59.05
359.709	136.87
359.921	42.67
360.132	83.63
360.344	75.43
360.555	22.19
360.766	24.23
360.977	-33.11
361.189	36.52
361.4	42.67
361.611	85.67
361.823	85.67
362.034	1.71
362.245	24.23
362.456	71.34
362.667	67.24
362.879	30.38
363.09	-22.87
363.301	48.81
363.512	28.33
363.723	50.86
363.935	13.99
364.146	-12.63
364.357	-8.53
364.568	28.33
364.779	-41.3
364.99	46.76
365.201	-2.39
365.412	91.82
365.623	-67.92
365.834	9.9
366.045	46.76
366.256	-29.01
366.467	32.43
366.678	67.24
366.889	3.75
367.1	36.52
367.311	46.76
367.522	61.1
367.733	18.09
367.944	48.81
368.155	3.75
368.366	57
368.577	138.92
368.788	110.25
368.999	-39.25
369.209	26.28
369.42	120.49
369.631	93.87
369.842	34.47
370.053	59.05
370.264	24.23
370.474	-18.77
370.685	46.76
370.896	3.75
371.107	89.77
371.317	46.76
371.528	44.71
371.739	28.33
371.95	48.81
372.16	75.43
372.371	63.15
372.582	-29.01
372.792	54.95
373.003	79.53
373.214	59.05
373.424	-14.68
373.635	40.62
373.846	-14.68
374.056	59.05
374.267	18.09
374.477	40.62
374.688	30.38
374.898	67.24
375.109	7.85
375.319	38.57
375.53	54.95
375.74	34.47
375.951	-12.63
376.161	-10.58
376.372	95.91
376.582	85.67
376.793	26.28
377.003	59.05
377.214	-8.53
377.424	30.38
377.635	61.1
377.845	20.14
378.055	61.1
378.266	13.99
378.476	-16.73
378.686	38.57
378.897	24.23
379.107	104.11
379.317	52.91
379.528	22.19
379.738	79.53
379.948	34.47
380.158	42.67
380.369	71.34
380.579	-67.92
380.789	3.75
380.999	36.52
381.21	22.19
381.42	91.82
381.63	11.95
381.84	-4.44
382.05	32.43
382.261	42.67
382.471	9.9
382.681	71.34
382.891	126.63
383.101	38.57
383.311	24.23
383.521	9.9
383.731	28.33
383.941	42.67
384.151	11.95
384.361	75.43
384.571	65.19
384.781	-35.16
384.991	100.01
385.201	100.01
385.411	95.91
385.621	13.99
385.831	40.62
386.041	3.75
386.251	42.67
386.461	161.45
386.671	71.34
386.881	22.19
387.091	20.14
387.301	52.91
387.511	91.82
387.72	28.33
387.93	59.05
388.14	16.04
388.35	26.28
388.56	16.04
388.769	104.11
388.979	69.29
389.189	-8.53
389.399	-2.39
389.609	69.29
389.818	79.53
390.028	54.95
390.238	102.06
390.447	-43.35
390.657	65.19
390.867	48.81
391.076	9.9
391.286	77.48
391.496	18.09
391.705	34.47
391.915	104.11
392.125	93.87
392.334	130.73
392.544	108.2
392.753	57
392.963	9.9
393.172	95.91
393.382	38.57
393.591	54.95
393.801	42.67
394.01	71.34
394.22	54.95
394.429	106.15
394.639	71.34
394.848	75.43
395.058	73.39
395.267	59.05
395.477	71.34
395.686	114.34
395.895	124.58
396.105	75.43
396.314	112.3
396.524	3.75
396.733	30.38
396.942	118.44
397.152	145.06
397.361	147.11
397.57	73.39
397.78	-0.34
397.989	59.05
398.198	128.68
398.407	30.38
398.617	71.34
398.826	63.15
399.035	120.49
399.244	67.24
399.453	97.96
399.663	134.82
399.872	67.24
400.081	79.53
400.29	136.87
400.499	73.39
400.708	159.4
400.917	9.9
401.127	108.2
401.336	91.82
401.545	214.7
401.754	153.26
401.963	112.3
402.172	73.39
402.381	112.3
402.59	75.43
402.799	59.05
403.008	61.1
403.217	110.25
403.426	124.58
403.635	71.34
403.844	97.96
404.053	91.82
404.262	136.87
404.471	181.93
404.68	134.82
404.888	87.72
405.097	104.11
405.306	91.82
405.515	196.26
405.724	128.68
405.933	136.87
406.142	159.4
406.35	183.98
406.559	165.54
406.768	114.34
406.977	169.64
407.185	222.89
407.394	169.64
407.603	130.73
407.812	220.84
408.02	235.18
408.229	235.18
408.438	188.07
408.646	108.2
408.855	210.6
409.064	255.65
409.272	239.27
409.481	308.9
409.69	251.56
409.898	257.7
410.107	315.05
410.315	298.66
410.524	282.28
410.733	300.71
410.941	290.47
411.15	267.94
411.358	333.48
411.567	386.72
411.775	339.62
411.984	364.2
412.192	452.26
412.401	390.82
412.609	532.13
412.818	523.94
413.026	499.36
413.234	403.11
413.443	511.65
413.651	513.7
413.86	421.54
414.068	583.33
414.276	530.08
414.485	542.37
414.693	679.58
414.901	685.73
415.11	685.73
415.318	648.86
415.526	722.59
415.734	638.62
415.943	706.21
416.151	796.32
416.359	683.68
416.567	724.64
416.776	841.37
416.984	872.09
417.192	902.81
417.4	816.8
417.608	892.57
417.817	972.44
418.025	1027.74
418.233	1017.5
418.441	1007.26
418.649	972.44
418.857	1205.91
419.065	1142.43
419.273	1191.58
419.481	1285.78
419.689	1420.95
419.897	1365.65
420.105	1396.37
420.313	1390.23
420.521	1431.19
420.729	1396.37
420.937	1527.44
421.145	1580.69
421.353	1769.1
421.561	1746.58
421.769	1808.02
421.977	1898.13
422.185	1887.89
422.393	1955.47
422.601	2059.92
422.809	2115.21
423.017	2053.77
423.224	2117.26
423.432	2260.62
423.64	2217.61
423.848	2424.45
424.056	2442.89
424.263	2619.01
424.471	2606.72
424.679	2700.93
424.887	2770.56
425.094	2948.73
425.302	2850.43
425.51	2963.07
425.718	2954.88
425.925	3006.08
426.133	3161.72
426.341	3450.49
426.548	3569.27
426.756	3534.45
426.964	3595.89
427.171	3999.34
427.379	3923.57
427.586	3929.71
427.794	4068.97
428.001	4238.95
428.209	4419.18
428.417	4425.32
428.624	4767.33
428.832	4744.8
429.039	4783.71
429.247	4822.63
429.454	5224.03
429.662	5504.6
429.869	5230.17
430.076	5400.15
430.284	5256.79
430.491	5387.86
430.699	5742.16
430.906	5852.75
431.114	6041.17
431.321	6272.59
431.528	6356.55
431.736	6600.26
431.943	7126.59
432.15	7026.24
432.358	6899.27
432.565	7261.76
432.772	7284.28
432.979	7675.45
433.187	7652.92
433.394	7777.84
433.601	8298.03
433.808	8320.56
434.016	8189.49
434.223	8400.43
434.43	9049.63
434.637	9012.77
434.844	9467.42
435.052	9719.32
435.259	9649.69
435.466	9942.55
435.673	9672.22
435.88	10251.79
436.087	10675.72
436.294	10741.25
436.501	10501.64
436.708	10636.81
436.915	10868.23
437.122	11374.08
437.329	11433.47
437.537	11941.36
437.743	12070.39
437.95	12002.8
438.157	12568.04
438.364	13053.41
438.571	13120.99
438.778	13049.32
438.985	14357.97
439.192	13559.26
439.399	14048.72
439.606	13870.55
439.813	14644.68
440.02	15359.42
440.227	15273.41
440.433	15148.48
440.64	15730.11
440.847	15246.79
441.054	15742.39
441.261	16919.98
441.467	16917.93
441.674	17182.12
441.881	17429.92
442.088	17638.81
442.294	17329.57
442.501	18036.12
442.708	18263.44
442.914	18906.51
443.121	19858.81
443.328	19139.97
443.534	20692.33
443.741	20166.01
443.948	19791.23
444.154	21198.18
444.361	21046.63
444.568	21466.47
444.774	20950.38
444.981	21327.21
445.187	21765.47
445.394	22926.67
445.6	22226.26
445.807	24661.3
446.013	23536.96
446.22	24194.36
446.426	24988.97
446.633	25554.21
446.839	26164.51
447.046	25011.5
447.252	26488.09
447.459	26551.57
447.665	26070.3
447.871	27487.5
448.078	28333.31
448.284	27221.26
448.491	27933.95
448.697	28990.7
448.903	29410.54
449.11	29197.55
449.316	28728.56
449.522	29555.94
449.728	30123.23
449.935	30549.21
450.141	30526.68
450.347	31362.25
450.553	30170.33
450.76	30401.75
450.966	31384.78
451.172	30954.71
451.378	31638.73
451.584	30887.12
451.791	31857.86
451.997	31714.5
452.203	32341.18
452.409	32163.01
452.615	32150.72
452.821	30747.86
453.027	30653.65
453.233	32545.98
453.44	30579.93
453.646	31366.35
453.852	31341.77
454.058	31825.09
454.264	30694.61
454.47	31481.03
454.676	30520.54
454.882	31526.09
455.088	28509.43
455.294	29609.19
455.5	29748.45
455.705	29779.17
455.911	28583.16
456.117	28220.67
456.323	27747.59
456.529	26371.35
456.735	27610.37
456.941	26938.64
457.147	26281.24
457.352	25228.59
457.558	24902.96
457.764	24976.69
457.97	24519.99
458.176	24350.01
458.381	24161.59
458.587	22924.62
458.793	22859.09
458.999	21810.53
459.204	23381.32
459.41	22746.45
459.616	21333.35
459.821	21220.71
460.027	21226.85
460.233	20733.29
460.438	19504.51
460.644	19959.16
460.85	18881.93
461.055	18765.2
461.261	18777.48
461.466	17040.81
461.672	16962.98
461.878	17937.82
462.083	16842.15
462.289	16541.1
462.494	16231.86
462.7	15738.3
462.905	15044.04
463.111	15910.33
463.316	15695.29
463.522	15445.44
463.727	15470.01
463.932	15523.26
464.138	15226.31
464.343	15437.25
464.549	14990.79
464.754	15379.9
464.959	15035.85
465.165	15158.72
465.37	14636.49
465.575	14239.19
465.781	14624.2
465.986	14624.2
466.191	14142.93
466.397	14001.62
466.602	13477.34
466.807	14003.67
467.012	13698.52
467.218	13647.32
467.423	13811.16
467.628	13729.24
467.833	14319.06
468.038	13522.4
468.244	13395.42
468.449	13784.54
468.654	13354.46
468.859	13192.67
469.064	13086.18
469.269	12668.39
469.474	12778.98
469.679	12936.68
469.885	12748.26
470.09	12928.49
470.295	12832.23
470.5	12301.81
470.705	12547.56
470.91	12195.31
471.115	12187.12
471.32	12320.24
471.525	12203.5
471.73	11906.55
471.935	11830.77
472.139	11388.41
472.344	11621.88
472.549	11439.61
472.754	11396.6
472.959	11191.81
473.164	10778.12
473.369	10862.08
473.574	11212.29
473.778	10954.24
473.983	11023.87
474.188	11036.16
474.393	10243.6
474.598	10434.06
474.802	10176.02
475.007	10489.35
475.212	10346
475.417	9909.78
475.621	9811.48
475.826	10022.42
476.031	9928.21
476.235	9489.95
476.44	9829.91
476.645	9745.94
476.849	9659.93
477.054	9596.44
477.259	9268.77
477.463	9270.81
477.668	9225.76
477.872	9252.38
478.077	9176.61
478.282	8920.61
478.486	8957.47
478.691	8951.33
478.895	8734.25
479.1	8701.48
479.304	8531.5
479.509	8580.65
479.713	8513.06
479.918	8412.71
480.122	8265.26
480.326	8431.15
480.531	8486.44
480.735	8302.12
480.94	8255.02
481.144	8685.09
481.348	8080.94
481.553	8169.01
481.757	8035.89
481.961	8404.52
482.166	8418.86
482.37	8236.59
482.574	8025.65
482.778	8205.87
482.983	8068.66
483.187	7988.78
483.391	8199.73
483.595	8080.94
483.8	7970.35
484.004	8121.9
484.208	8107.57
484.412	8091.18
484.616	8189.49
484.821	8068.66
485.025	7927.35
485.229	8257.07
485.433	8164.91
485.637	8197.68
485.841	7951.92
486.045	8050.22
486.249	8142.38
486.453	8164.91
486.657	8189.49
486.861	8109.61
487.065	7960.11
487.269	8078.9
487.473	7847.47
487.677	8093.23
487.881	8261.16
488.085	8105.52
488.289	8191.53
488.493	8091.18
488.697	8121.9
488.901	8115.76
489.105	8134.19
489.309	8023.6
489.512	8197.68
489.716	8230.45
489.92	8082.99
490.124	8007.22
490.328	8193.58
490.531	8394.28
490.735	8377.9
490.939	8318.51
491.143	8365.61
491.346	8187.44
491.55	8541.74
491.754	8494.63
491.958	8724.01
492.161	8414.76
492.365	8498.73
492.569	8447.53
492.772	8568.36
492.976	8652.33
493.18	8703.53
493.383	8740.39
493.587	8873.51
493.79	8848.93
493.994	8721.96
494.197	8996.39
494.401	9041.44
494.605	8924.71
494.808	9053.73
495.012	9379.36
495.215	9350.68
495.419	9283.1
495.622	9313.82
495.825	9428.51
496.029	9547.29
496.232	9758.23
496.436	9608.73
496.639	9934.36
496.843	9782.81
497.046	10171.92
497.249	10071.57
497.453	10190.35
497.656	10329.61
497.859	10417.68
498.063	10208.78
498.266	10634.76
498.469	10667.53
498.673	10804.74
498.876	11159.04
499.079	10964.48
499.282	11081.22
499.485	11302.4
499.689	11544.06
499.892	11406.84
500.095	11668.98
500.298	11628.03
500.501	11437.56
500.705	12086.77
500.908	11980.28
501.111	12266.99
501.314	12355.05
501.517	12344.81
501.72	12674.54
501.923	12625.39
502.126	13131.23
502.329	13145.57
502.532	13159.91
502.735	13266.4
502.938	13479.39
503.141	13972.95
503.344	14011.86
503.547	13956.57
503.75	14202.32
503.953	14431.69
504.156	14671.31
504.359	14605.77
504.562	14517.71
504.765	15140.29
504.968	14996.93
505.17	15347.14
505.373	15457.73
505.576	15687.1
505.779	15916.47
505.982	15979.96
506.185	16135.6
506.387	16272.82
506.59	16481.71
506.793	16758.19
506.996	16661.93
507.198	16831.91
507.401	17022.37
507.604	17339.81
507.807	17601.95
508.009	17806.75
508.212	18038.17
508.415	18316.69
508.617	18259.35
508.82	18453.91
509.022	18292.12
509.225	18965.9
509.428	18926.99
509.63	19060.1
509.833	19068.3
510.035	19613.06
510.238	19592.58
510.44	19930.49
510.643	20139.38
510.845	20467.06
511.048	20358.52
511.25	20854.12
511.453	20917.61
511.655	21761.37
511.858	21230.95
512.06	21493.09
512.262	21796.19
512.465	21923.16
512.667	22170.97
512.87	22386.01
513.072	22451.54
513.274	22898
513.477	23051.59
513.679	23450.95
513.881	23631.17
514.084	23874.88
514.286	23809.34
514.488	24042.81
514.69	24917.29
514.893	24595.76
515.095	24931.63
515.297	25345.32
515.499	25230.63
515.701	25439.53
515.904	25738.53
516.106	26180.89
516.308	26066.2
516.51	26703.12
516.712	26813.71
516.914	27233.55
517.116	27579.65
517.318	27542.79
517.52	27755.78
517.722	27933.95
517.925	28337.4
518.127	28794.1
518.329	28888.31
518.531	28646.65
518.733	29738.21
518.935	29369.58
519.136	29369.58
519.338	29953.25
519.54	30375.13
519.742	30801.11
519.944	30493.91
520.146	31020.24
520.348	31124.69
520.55	31618.25
520.752	31859.91
520.954	32269.5
521.155	32001.22
521.357	32804.02
521.559	32652.47
521.761	33266.86
521.963	33483.95
522.164	33424.56
522.366	33852.58
522.568	34301.09
522.77	33979.56
522.971	34647.19
523.173	34718.87
523.375	35040.4
523.576	34868.37
523.778	35157.14
523.98	35513.48
524.181	35378.32
524.383	36002.95
524.584	36273.28
524.786	36363.39
524.988	36048
525.189	36752.51
525.391	36793.47
525.592	37301.36
525.794	37375.09
525.995	37432.43
526.197	37524.59
526.398	37856.36
526.6	37854.31
526.801	38282.34
527.003	38493.28
527.204	38257.76
527.406	38952.02
527.607	38591.58
527.808	39105.62
528.01	38638.69
528.211	39146.58
528.412	39828.55
528.614	39869.51
528.815	39799.88
529.016	39867.47
529.218	39775.31
529.419	39427.15
529.62	39967.82
529.822	40344.64
530.023	39615.57
530.224	40467.52
530.425	40361.03
530.626	40008.78
530.828	40000.58
531.029	41430.07
531.23	40508.48
531.431	40647.74
531.632	40672.32
531.833	41286.71
532.035	40887.35
532.236	40766.52
532.437	41081.91
532.638	41348.15
532.839	41212.98
533.04	41360.44
533.241	41262.13
533.442	41608.24
533.643	41651.25
533.844	41421.87
534.045	41759.79
534.246	41552.94
534.447	41755.69
534.648	41557.04
534.849	42005.55
535.05	41485.36
535.251	41303.09
535.451	41479.22
535.652	41968.68
535.853	41540.66
536.054	42003.5
536.255	41712.69
536.456	41638.96
536.657	42107.94
536.857	41675.82
537.058	41477.17
537.259	42044.46
537.46	41417.78
537.66	41663.53
537.861	41845.8
538.062	41571.38
538.263	42103.85
538.463	41645.1
538.664	41575.47
538.865	42155.05
539.065	42253.35
539.266	41729.07
539.466	42482.72
539.667	41528.37
539.868	42052.65
540.068	41929.77
540.269	41905.2
540.469	41991.21
540.67	41913.39
540.87	41550.9
541.071	41567.28
541.271	42114.09
541.472	42189.86
541.672	41647.15
541.873	41823.28
542.073	41141.3
542.274	42361.89
542.474	41753.65
542.675	41618.48
542.875	41806.89
543.075	41950.25
543.276	41407.54
543.476	42193.96
543.676	41657.39
543.877	41843.76
544.077	41667.63
544.277	41868.33
544.478	41987.11
544.678	41716.78
544.878	41882.67
545.078	42052.65
545.279	41212.98
545.479	41702.45
545.679	42009.64
545.879	41815.08
546.079	41712.69
546.28	41673.77
546.48	41223.22
546.68	41995.31
546.88	41688.11
547.08	41886.76
547.28	41505.84
547.48	41139.25
547.68	41784.37
547.88	41587.76
548.081	41755.69
548.281	41630.77
548.481	41385.01
548.681	41819.18
548.881	41743.41
549.081	41368.63
549.28	41354.29
549.48	42122.28
549.68	41372.72
549.88	42333.22
550.08	41368.63
550.28	41481.27
550.48	41425.97
550.68	41643.06
550.88	41501.75
551.08	41337.91
551.279	41706.54
551.479	41288.76
551.679	41444.4
551.879	41268.28
552.079	41804.84
552.278	41176.12
552.478	41546.8
552.678	41258.04
552.878	41356.34
553.077	41309.24
553.277	40854.59
553.477	41565.23
553.676	41126.97
553.876	41393.2
554.076	41204.79
554.275	41118.78
554.475	40879.16
554.674	41038.9
554.874	41077.82
555.074	40819.77
555.273	41133.11
555.473	41374.77
555.672	40524.86
555.872	40797.24
556.071	40836.16
556.271	41174.07
556.47	40238.15
556.67	40821.82
556.869	40531.01
557.068	40873.02
557.268	40125.51
557.467	40416.32
557.667	40090.69
557.866	40223.81
558.065	40348.74
558.265	39922.76
558.464	40166.47
558.663	40666.17
558.863	39724.11
559.062	39963.72
559.261	39079
559.461	40143.94
559.66	39470.16
559.859	39654.48
560.058	39556.18
560.258	39869.51
560.457	39437.39
560.656	39959.62
560.855	39158.87
561.054	39599.18
561.253	39289.94
561.453	39171.16
561.652	39527.5
561.851	39361.62
562.05	38706.27
562.249	38587.49
562.448	38724.7
562.647	38853.72
562.846	38595.68
563.045	38239.33
563.244	38392.93
563.443	38827.1
563.642	38308.96
563.841	38382.69
564.04	38386.78
564.239	38347.87
564.438	37989.48
564.637	38165.6
564.836	38198.37
565.035	37923.94
565.234	37973.1
565.432	37428.34
565.631	38181.99
565.83	37665.9
566.029	37289.07
566.228	37403.76
566.427	37188.72
566.625	37063.8
566.824	36867.19
567.023	36861.05
567.222	36873.34
567.42	37076.08
567.619	37235.83
567.818	36805.75
568.016	36873.34
568.215	36734.07
568.414	36226.18
568.612	36576.38
568.811	35980.42
569.01	36056.2
569.208	35703.95
569.407	36279.43
569.605	35251.34
569.804	36084.87
570.002	35519.63
570.201	35671.18
570.4	35142.8
570.598	35134.61
570.797	35019.92
570.995	35228.82
571.193	34874.52
571.392	35294.35
571.59	34892.95
571.789	34618.52
571.987	34749.59
572.186	34804.89
572.384	34282.66
572.582	34178.21
572.781	34667.67
572.979	34253.98
573.177	34124.96
573.376	34358.43
573.574	33897.64
573.772	34151.59
573.971	33701.03
574.169	33451.18
574.367	33133.75
574.565	33717.42
574.763	33180.85
574.962	33242.29
575.16	32591.03
575.358	32986.29
575.556	32584.89
575.754	33463.47
575.952	32783.54
576.151	32890.04
576.349	32353.47
576.547	32523.45
576.745	32326.85
576.943	32636.09
577.141	31925.44
577.339	32093.38
577.537	31757.51
577.735	32251.07
577.933	31716.55
578.131	31931.59
578.329	31605.96
578.527	31403.21
578.725	31411.4
578.923	31438.03
579.121	31161.55
579.319	31493.32
579.516	31143.12
579.714	30975.19
579.912	31243.47
580.11	30735.57
580.308	30903.51
580.506	30604.5
580.704	30276.83
580.901	30725.33
581.099	30639.32
581.297	30080.22
581.495	30293.21
581.692	30409.95
581.89	30237.92
582.088	30100.7
582.285	30061.79
582.483	29992.16
582.681	29750.5
582.878	29498.6
583.076	29371.63
583.274	29785.32
583.471	29691.11
583.669	29549.8
583.866	29017.33
584.064	29355.24
584.262	28820.72
584.459	29134.06
584.657	29211.88
584.854	29076.72
585.052	28493.05
585.249	28744.95
585.447	28701.94
585.644	28579.06
585.841	28329.21
586.039	28613.88
586.236	27841.79
586.434	28318.97
586.631	28312.83
586.828	27868.42
587.026	28359.93
587.223	27809.03
587.42	27690.24
587.618	27950.34
587.815	27577.61
588.012	27639.04
588.21	27286.79
588.407	27643.14
588.604	27415.82
588.801	27135.24
588.999	26967.31
589.196	27057.42
589.393	27182.35
589.59	26928.4
589.787	26782.99
589.984	26791.19
590.182	26551.57
590.379	26815.76
590.576	26606.87
590.773	26369.3
590.97	26146.08
591.167	26469.65
591.364	25879.84
591.561	26090.78
591.758	26029.34
591.955	26326.3
592.152	26340.63
592.349	25863.46
592.546	25986.33
592.743	25957.66
592.94	25378.09
593.137	25568.55
593.334	25431.33
593.531	25175.34
593.727	25148.71
593.924	25443.62
594.121	25146.67
594.318	25115.95
594.515	24984.88
594.712	24948.01
594.908	24792.37
595.105	24786.22
595.302	24663.35
595.499	24382.77
595.696	24472.89
595.892	24425.78
596.089	24526.13
596.286	24352.06
596.482	24479.03
596.679	24431.93
596.876	24188.22
597.072	24237.37
597.269	23891.26
597.466	23637.31
597.662	23653.7
597.859	23795.01
598.055	23807.3
598.252	23256.39
598.448	23534.92
598.645	23653.7
598.841	23323.97
599.038	23252.3
599.234	23272.78
599.431	23141.71
599.627	23037.26
599.824	22904.14
600.02	22773.07
600.217	23039.31
600.413	22898
600.609	22680.91
600.806	22355.29
601.002	22584.66
601.198	22707.54
601.395	22146.39
601.591	22322.52
601.787	22463.83
601.984	22078.81
602.18	22402.39
602.376	22392.15
602.572	22039.9
602.769	21861.73
602.965	21615.97
603.161	21978.46
603.357	21757.28
603.553	21572.96
603.75	21505.38
603.946	21642.59
604.142	21630.3
604.338	21273.96
604.534	21581.15
604.73	21124.46
604.926	21171.56
605.122	21284.2
605.318	21181.8
605.514	20905.32
605.71	21005.67
605.906	20870.51
606.102	20712.81
606.298	20911.47
606.494	20868.46
606.69	20596.08
606.886	20485.49
607.082	20227.45
607.278	20465.01
607.474	20288.89
607.67	20381.04
607.866	20024.7
608.062	20313.46
608.257	20186.49
608.453	20159.86
608.649	20290.93
608.845	20094.33
609.041	20057.46
609.236	19938.68
609.432	19920.25
609.628	20030.84
609.824	19957.11
610.019	19791.23
610.215	19617.15
610.411	19803.52
610.606	19621.25
610.802	19701.12
610.998	19787.13
611.193	19414.4
611.389	19479.94
611.584	18988.42
611.78	19225.99
611.976	19103.11
612.171	19285.38
612.367	19221.89
612.562	18912.65
612.758	18820.49
612.953	18994.57
613.149	19056.01
613.344	18851.21
613.539	19289.48
613.735	18982.28
613.93	18871.69
614.126	18771.34
614.321	18892.17
614.517	18777.48
614.712	18816.4
614.907	18625.93
615.103	18658.7
615.298	18480.53
615.493	18666.89
615.688	18247.06
615.884	19002.76
616.079	18437.52
616.274	18458
616.47	18427.28
616.665	18187.67
616.86	18273.68
617.055	18269.59
617.25	18154.9
617.445	18371.99
617.641	17999.26
617.836	17870.23
618.031	17845.66
618.226	18083.22
618.421	17948.06
618.616	17925.53
618.811	17804.7
619.006	17782.17
619.201	17517.98
619.396	17728.92
619.591	17331.62
619.786	17515.94
619.981	17049
620.176	17237.41
620.371	17417.63
620.566	17368.48
620.761	17184.16
620.956	17241.51
621.151	16651.69
621.346	16836.01
621.541	16635.31
621.735	16864.68
621.93	16428.46
622.125	16588.21
622.32	16065.97
622.515	16481.71
622.709	16379.31
622.904	15990.2
623.099	16235.95
623.294	15990.2
623.488	15656.38
623.683	16162.23
623.878	15568.32
624.072	15943.1
624.267	15635.9
624.462	15515.07
624.656	15451.58
624.851	15377.86
625.046	15142.34
625.24	15297.99
625.435	15197.63
625.629	14900.68
625.824	15013.32
626.018	15013.32
626.213	14622.16
626.407	14646.73
626.602	14550.48
626.796	14644.68
626.991	14583.24
627.185	14536.14
627.38	14183.89
627.574	14314.96
627.768	14036.44
627.963	14085.59
628.157	13983.19
628.352	13807.06
628.546	13489.63
628.74	13862.36
628.935	13653.47
629.129	13903.32
629.323	13684.19
629.517	13323.74
629.712	13317.6
629.906	13262.3
630.1	13129.19
630.294	13360.61
630.489	13098.47
630.683	13168.1
630.877	13137.38
631.071	12998.12
631.265	12955.11
631.459	12705.26
631.653	12776.94
631.848	12789.22
632.042	12621.29
632.236	12684.78
632.43	12393.97
632.624	12506.6
632.818	12445.16
633.012	12232.18
633.206	12492.27
633.4	12228.08
633.594	12056.05
633.788	12283.38
633.982	12051.95
634.176	11826.68
634.369	11812.34
634.563	11761.14
634.757	11652.6
634.951	11830.77
635.145	11519.48
635.339	11705.85
635.533	11587.07
635.726	11580.92
635.92	11537.91
636.114	11521.53
636.308	11249.15
636.501	11417.08
636.695	11329.02
636.889	11113.99
637.083	10929.67
637.276	11081.22
637.47	11070.98
637.664	10817.03
637.857	10933.76
638.051	10739.21
638.244	10624.52
638.438	10728.97
638.632	10804.74
638.825	10300.94
639.019	10499.59
639.212	10282.51
639.406	10479.11
639.599	10282.51
639.793	10251.79
639.986	10147.34
640.18	10378.76
640.373	10042.9
640.567	9911.83
640.76	9969.17
640.954	9934.36
641.147	9780.76
641.34	9578.01
641.534	9551.38
641.727	9688.6
641.92	9582.1
642.114	9563.67
642.307	9387.55
642.5	9473.56
642.694	9188.89
642.887	9227.81
643.08	9293.34
643.273	9248.29
643.467	9219.61
643.66	9180.7
643.853	9135.65
644.046	8799.78
644.239	9055.78
644.432	8719.91
644.626	8885.8
644.819	8715.81
645.012	8834.6
645.205	8859.17
645.398	8693.29
645.591	8519.21
645.784	8650.28
645.977	8592.94
646.17	8586.79
646.363	8394.28
646.556	8246.83
646.749	8525.35
646.942	8238.64
647.135	8386.09
647.328	8281.64
647.521	8218.16
647.714	8107.57
647.907	8169.01
648.099	8248.88
648.292	8013.36
648.485	7972.4
648.678	7931.44
648.871	7886.39
649.064	7714.36
649.256	7835.19
649.449	7697.97
649.642	7706.17
649.835	7579.19
650.027	7540.28
650.22	7765.56
650.413	7583.29
650.605	7589.43
650.798	7544.38
650.991	7476.79
651.183	7392.83
651.376	7267.9
651.568	7437.88
651.761	7190.08
651.954	7224.89
652.146	7282.24
652.339	7185.98
652.531	7161.41
652.724	6964.8
652.916	7022.14
653.109	7077.44
653.301	7140.93
653.494	7044.67
653.686	6764.1
653.879	7069.25
654.071	6862.4
654.263	6630.98
654.456	6823.49
654.648	6755.91
654.84	6655.56
655.033	6717
655.225	6809.15
655.417	6563.4
655.61	6655.56
655.802	6727.24
655.994	6518.34
656.186	6575.69
656.379	6512.2
656.571	6520.39
656.763	6288.97
656.955	6401.61
657.148	6329.93
657.34	6278.73
657.532	6116.94
657.724	6137.42
657.916	6123.09
658.108	6116.94
658.3	6026.83
658.492	6063.69
658.684	6051.41
658.876	5983.82
659.068	5987.92
659.26	6053.45
659.452	6055.5
659.644	6088.27
659.836	5910.1
660.028	5955.15
660.22	5856.85
660.412	5858.9
660.604	5828.18
660.796	5672.53
660.988	5865.04
661.18	5477.98
661.372	5602.9
661.563	5803.6
661.755	5693.01
661.947	5656.15
662.139	5645.91
662.331	5523.03
662.522	5441.11
662.714	5434.97
662.906	5305.95
663.097	5445.21
663.289	5494.36
663.481	5344.86
663.673	5371.48
663.864	5217.88
664.056	5365.34
664.247	5224.03
664.439	5285.47
664.631	5244.51
664.822	5269.08
665.014	5320.28
665.205	5060.19
665.397	5213.79
665.588	5035.61
665.78	5025.37
665.971	5166.68
666.163	5219.93
666.354	5172.83
666.546	5021.28
666.737	4943.46
666.929	5088.86
667.12	4931.17
667.311	5023.33
667.503	4900.45
667.694	5017.18
667.885	4955.74
668.077	4892.26
668.268	4865.63
668.459	4671.08
668.651	4830.82
668.842	4769.38
669.033	4675.17
669.224	4826.72
669.416	4814.43
669.607	4726.37
669.798	4748.9
669.989	4787.81
670.18	4718.18
670.371	4664.93
670.563	4638.31
670.754	4671.08
670.945	4636.26
671.136	4652.64
671.327	4685.41
671.518	4503.14
671.709	4546.15
671.9	4691.56
672.091	4499.05
672.282	4484.71
672.473	4486.76
672.664	4535.91
672.855	4363.88
673.046	4585.06
673.237	4511.33
673.428	4355.69
673.619	4478.57
673.809	4513.38
674	4523.62
674.191	4546.15
674.382	4490.85
674.573	4443.75
674.764	4413.03
674.954	4470.37
675.145	4423.27
675.336	4419.18
675.527	4367.98
675.717	4408.94
675.908	4425.32
676.099	4355.69
676.289	4238.95
676.48	4273.77
676.671	4337.26
676.861	4306.54
677.052	4253.29
677.243	4202.09
677.433	4300.39
677.624	4271.72
677.814	4220.52
678.005	4345.45
678.195	4241
678.386	4288.11
678.576	4390.5
678.767	4202.09
678.957	4372.07
679.148	4398.7
679.338	4253.29
679.529	4281.96
679.719	4140.65
679.909	4222.57
680.1	4339.3
680.29	4099.69
680.481	4228.71
680.671	4294.25
680.861	4083.31
681.052	4322.92
681.242	4249.19
681.432	4484.71
681.622	4208.23
681.813	4181.61
682.003	4197.99
682.193	4165.23
682.383	4261.48
682.573	4228.71
682.764	4204.14
682.954	4122.22
683.144	4218.47
683.334	4136.56
683.524	4210.28
683.714	4232.81
683.904	4286.06
684.094	4267.63
684.284	4193.9
684.474	4382.31
684.664	4111.98
684.854	4185.71
685.044	4058.73
685.234	4058.73
685.424	4230.76
685.614	4044.4
685.804	4279.91
685.994	4181.61
686.184	4099.69
686.374	4003.44
686.564	3952.24
686.753	4109.93
686.943	4091.5
687.133	3948.14
687.323	4023.92
687.513	3999.34
687.702	3976.81
687.892	3839.6
688.082	4025.97
688.272	3978.86
688.461	3880.56
688.651	3790.45
688.841	3898.99
689.03	3870.32
689.22	3874.42
689.41	3741.3
689.599	3704.43
689.789	3806.83
689.979	3745.39
690.168	3759.73
690.358	3767.92
690.547	3618.42
690.737	3757.68
690.926	3690.1
691.116	3657.33
691.305	3679.86
691.495	3606.13
691.684	3630.71
691.874	3733.11
692.063	3559.03
692.252	3731.06
692.442	3643
692.631	3626.61
692.82	3485.3
693.01	3466.87
693.199	3542.64
693.388	3425.91
693.578	3556.98
693.767	3483.25
693.956	3505.78
694.146	3417.72
694.335	3505.78
694.524	3413.62
694.713	3610.23
694.902	3528.31
695.092	3436.15
695.281	3423.86
695.47	3389.05
695.659	3376.76
695.848	3499.64
696.037	3411.57
696.226	3397.24
696.415	3368.57
696.604	3380.86
696.793	3313.27
696.982	3395.19
697.171	3343.99
697.36	3352.18
697.549	3325.56
697.738	3278.46
697.927	3284.6
698.116	3343.99
698.305	3290.74
698.494	3380.86
698.683	3364.47
698.872	3364.47
699.061	3167.87
699.25	3288.7
699.438	3348.09
699.627	3286.65
699.816	3442.29
700.005	3376.76
700.193	3341.94
700.382	3374.71
700.571	3204.73
700.76	3364.47
700.948	3266.17
701.137	3249.79
701.326	3282.55
701.514	3305.08
701.703	3362.42
701.892	3387
702.08	3335.8
702.269	3255.93
702.457	3266.17
702.646	3423.86
702.834	3294.84
703.023	3276.41
703.212	3307.13
703.4	3341.94
703.589	3237.5
703.777	3419.77
703.965	3233.4
704.154	3407.48
704.342	3274.36
704.531	3343.99
704.719	3192.44
704.907	3241.59
705.096	3147.39
705.284	3337.85
705.472	3305.08
705.661	3245.69
705.849	3243.64
706.037	3257.98
706.226	3180.15
706.414	3176.06
706.602	3182.2
706.79	3315.32
706.979	3294.84
707.167	3253.88
707.355	3249.79
707.543	3274.36
707.731	3313.27
707.919	3294.84
708.107	3104.38
708.296	3331.7
708.484	3155.58
708.672	3333.75
708.86	3255.93
709.048	3298.94
709.236	3239.55
709.424	3217.02
709.612	3282.55
709.8	3274.36
709.988	3219.07
710.176	3225.21
710.364	3290.74
710.551	3333.75
710.739	3327.61
710.927	3206.78
711.115	3153.53
711.303	3364.47
711.491	3096.19
711.679	3200.63
711.866	3208.83
712.054	3155.58
712.242	3274.36
712.43	3341.94
712.617	3268.22
712.805	3245.69
712.993	3300.98
713.181	3251.83
713.368	3305.08
713.556	3237.5
713.744	3233.4
713.931	3432.05
714.119	3192.44
714.306	3245.69
714.494	3284.6
714.682	3329.66
714.869	3174.01
715.057	3292.79
715.244	3346.04
715.432	3337.85
715.619	3225.21
715.807	3241.59
715.994	3245.69
716.182	3329.66
716.369	3255.93
716.556	3339.9
716.744	3233.4
716.931	3247.74
717.119	3235.45
717.306	3360.38
717.493	3262.07
717.681	3288.7
717.868	3186.3
718.055	3333.75
718.242	3196.54
718.43	3442.29
718.617	3264.12
718.804	3217.02
718.991	3171.96
719.179	3192.44
719.366	3149.43
719.553	3255.93
719.74	3241.59
719.927	3192.44
720.114	3346.04
720.301	3270.26
720.488	3223.16
720.676	3395.19
720.863	3270.26
721.05	3315.32
721.237	3196.54
721.424	3204.73
721.611	3245.69
721.798	3169.91
721.985	3149.43
722.172	3198.59
722.358	3180.15
722.545	3264.12
722.732	3184.25
722.919	3059.32
723.106	3157.63
723.293	3126.91
723.48	3329.66
723.667	3088
723.853	3102.33
724.04	3217.02
724.227	3120.76
724.414	3114.62
724.6	3186.3
724.787	3313.27
724.974	3067.52
725.161	2991.74
725.347	3161.72
725.534	3225.21
725.72	3208.83
725.907	3147.39
726.094	3217.02
726.28	3161.72
726.467	3108.48
726.653	3190.39
726.84	3182.2
727.027	3208.83
727.213	3182.2
727.4	3155.58
727.586	3243.64
727.773	3124.86
727.959	2971.26
728.145	3221.11
728.332	3182.2
728.518	3176.06
728.705	3167.87
728.891	3128.95
729.077	3190.39
729.264	3051.13
729.45	3024.51
729.636	3116.67
729.823	3061.37
730.009	3169.91
730.195	3010.17
730.382	3176.06
730.568	3004.03
730.754	3108.48
730.94	3122.81
731.126	3149.43
731.313	3067.52
731.499	3194.49
731.685	3210.87
731.871	3184.25
732.057	2991.74
732.243	3155.58
732.429	3059.32
732.615	3059.32
732.801	3102.33
732.987	3065.47
733.173	3047.04
733.359	3028.6
733.545	3067.52
733.731	2901.63
733.917	3128.95
734.103	3061.37
734.289	3192.44
734.475	2971.26
734.661	2975.36
734.847	3085.95
735.033	2977.41
735.219	3008.12
735.404	2928.25
735.59	2889.34
735.776	2944.64
735.962	2967.17
736.148	3118.72
736.333	3016.32
736.519	2926.21
736.705	2975.36
736.89	3036.8
737.076	2918.01
737.262	2870.91
737.447	2864.77
737.633	2872.96
737.819	2940.54
738.004	2983.55
738.19	2995.84
738.375	2926.21
738.561	2981.5
738.747	2905.73
738.932	2885.25
739.118	3022.46
739.303	2897.53
739.489	2760.32
739.674	2772.61
739.859	2848.38
740.045	2864.77
740.23	2903.68
740.416	2727.55
740.601	2821.76
740.786	2774.66
740.972	2811.52
741.157	2725.51
741.342	2684.55
741.528	2788.99
741.713	2766.46
741.898	2649.73
742.084	2778.75
742.269	2774.66
742.454	2762.37
742.639	2676.35
742.824	2707.07
743.01	2659.97
743.195	2686.59
743.38	2786.94
743.565	2559.62
743.75	2676.35
743.935	2629.25
744.12	2637.44
744.305	2487.94
744.49	2639.49
744.675	2557.57
744.86	2434.69
745.045	2590.34
745.23	2629.25
745.415	2475.65
745.6	2549.38
745.785	2471.56
745.97	2449.03
746.155	2418.31
746.34	2444.93
746.525	2389.64
746.71	2397.83
746.895	2467.46
747.079	2291.34
747.264	2211.46
747.449	2313.86
747.634	2365.06
747.819	2313.86
748.003	2369.16
748.188	2242.18
748.373	2322.06
748.557	2363.01
748.742	2184.84
748.927	2227.85
749.111	2219.66
749.296	2113.16
749.481	2078.35
749.665	2109.07
749.85	2135.69
750.034	2190.99
750.219	2143.88
750.404	2137.74
750.588	2123.4
750.773	2000.52
750.957	2119.31
751.141	2086.54
751.326	2025.1
751.51	2027.15
751.695	2006.67
751.879	1998.48
752.064	1994.38
752.248	1980.04
752.432	1902.22
752.617	1945.23
752.801	1928.85
752.985	1928.85
753.17	1920.65
753.354	1951.37
753.538	1848.97
753.722	1756.82
753.907	1900.17
754.091	1791.63
754.275	1830.54
754.459	1834.64
754.643	1818.25
754.828	1851.02
755.012	1744.53
755.196	1799.82
755.38	1726.1
755.564	1676.95
755.748	1699.47
755.932	1676.95
756.116	1719.95
756.3	1633.94
756.484	1674.9
756.668	1658.51
756.852	1676.95
757.036	1609.36
757.22	1609.36
757.404	1521.3
757.588	1527.44
757.772	1601.17
757.956	1578.64
758.14	1638.03
758.323	1492.63
758.507	1492.63
758.691	1541.78
758.875	1552.02
759.059	1490.58
759.242	1427.09
759.426	1570.45
759.61	1420.95
759.794	1377.94
759.977	1439.38
760.161	1617.55
760.345	1451.67
760.528	1414.81
760.712	1441.43
760.895	1349.27
761.079	1322.65
761.263	1353.37
761.446	1361.56
761.63	1425.04
761.813	1373.85
761.997	1304.21
762.18	1318.55
762.364	1365.65
762.547	1263.26
762.731	1357.46
762.914	1300.12
763.098	1232.54
763.281	1410.71
763.464	1312.41
763.648	1296.02
763.831	1287.83
764.015	1230.49
764.198	1234.58
764.381	1293.97
764.564	1271.45
764.748	1289.88
764.931	1238.68
765.114	1205.91
765.297	1312.41
765.481	1181.34
765.664	1142.43
765.847	1226.39
766.03	1205.91
766.213	1171.1
766.397	1175.19
766.58	1123.99
766.763	1203.86
766.946	1148.57
767.129	1183.38
767.312	1189.53
767.495	1179.29
767.678	1117.85
767.861	1164.95
768.044	1123.99
768.227	1173.14
768.41	1146.52
768.593	1044.12
768.776	1050.27
768.959	1074.84
769.142	1068.7
769.324	1058.46
769.507	1117.85
769.69	1167
769.873	1056.41
770.056	1138.33
770.239	1054.36
770.421	1070.75
770.604	1080.99
770.787	1103.51
770.97	1066.65
771.152	947.87
771.335	1107.61
771.518	1068.7
771.7	1013.4
771.883	982.68
772.066	997.02
772.248	929.44
772.431	954.01
772.613	1070.75
772.796	999.07
772.978	941.72
773.161	997.02
773.343	986.78
773.526	923.29
773.708	935.58
773.891	902.81
774.073	935.58
774.256	943.77
774.438	911
774.621	900.76
774.803	954.01
774.985	892.57
775.168	892.57
775.35	865.95
775.532	839.33
775.715	890.53
775.897	800.41
776.079	865.95
776.261	890.53
776.444	843.42
776.626	781.98
776.808	824.99
776.99	857.76
777.173	732.83
777.355	806.56
777.537	876.19
777.719	728.74
777.901	655.01
778.083	794.27
778.265	763.55
778.447	718.5
778.629	745.12
778.811	706.21
778.993	743.07
779.175	775.84
779.357	716.45
779.539	661.15
779.721	698.02
779.903	691.87
780.085	806.56
780.267	683.68
780.449	759.46
780.631	648.86
780.812	695.97
780.994	677.54
781.176	634.53
781.358	644.77
781.54	663.2
781.721	728.74
781.903	626.34
782.085	665.25
782.267	683.68
782.448	575.14
782.63	571.04
782.812	587.43
782.993	693.92
783.175	532.13
783.357	616.1
783.538	638.62
783.72	593.57
783.901	624.29
784.083	597.67
784.264	579.23
784.446	605.86
784.627	530.08
784.809	562.85
784.99	554.66
785.172	573.09
785.353	472.74
785.535	587.43
785.716	538.27
785.897	523.94
786.079	573.09
786.26	544.42
786.441	513.7
786.623	405.16
786.804	470.69
786.985	546.47
787.167	435.88
787.348	519.84
787.529	464.55
787.71	501.41
787.891	480.93
788.073	478.88
788.254	493.22
788.435	499.36
788.616	460.45
788.797	495.27
788.978	517.79
789.159	429.73
789.34	403.11
789.522	431.78
789.703	388.77
789.884	423.59
790.065	439.97
790.246	462.5
790.427	386.72
790.607	425.64
790.788	372.39
790.969	485.03
791.15	347.81
791.331	431.78
791.512	448.16
791.693	415.4
791.874	388.77
792.054	444.07
792.235	388.77
792.416	353.96
792.597	417.44
792.778	388.77
792.958	437.92
793.139	390.82
793.32	396.96
793.5	353.96
793.681	310.95
793.862	380.58
794.042	335.53
794.223	349.86
794.404	401.06
794.584	333.48
794.765	386.72
794.945	337.57
795.126	362.15
795.306	423.59
795.487	386.72
795.667	263.85
795.848	329.38
796.028	372.39
796.209	247.46
796.389	411.3
796.57	280.23
796.75	356.01
796.93	327.33
797.111	286.37
797.291	321.19
797.471	399.01
797.652	269.99
797.832	321.19
798.012	331.43
798.192	282.28
798.373	278.18
798.553	313
798.733	300.71
798.913	300.71
799.093	337.57
799.274	304.81
799.454	370.34
799.634	231.08
799.814	394.92
799.994	325.29
800.174	284.33
800.354	257.7
800.534	280.23
800.714	315.05
800.894	280.23
801.074	388.77
801.254	255.65
801.434	325.29
801.614	231.08
801.794	247.46
801.974	722.59
802.154	233.13
802.334	255.65
802.514	198.31
802.693	190.12
802.873	296.61
803.053	333.48
803.233	317.09
803.413	235.18
803.592	190.12
803.772	302.76
803.952	218.79
804.131	194.22
804.311	341.67
804.491	300.71
804.67	186.02
804.85	206.5
805.03	304.81
805.209	267.94
805.389	188.07
805.568	177.83
805.748	224.94
805.928	194.22
806.107	235.18
806.287	206.5
806.466	145.06
806.646	302.76
806.825	308.9
807.004	259.75
807.184	202.41
807.363	233.13
807.543	159.4
807.722	186.02
807.901	241.32
808.081	237.22
808.26	147.11
808.439	222.89
808.619	194.22
808.798	194.22
808.977	157.35
809.156	243.37
809.336	241.32
809.515	251.56
809.694	224.94
809.873	206.5
810.052	169.64
810.231	276.13
810.411	249.51
810.59	286.37
810.769	212.65
810.948	243.37
811.127	122.54
811.306	218.79
811.485	210.6
811.664	257.7
811.843	104.11
812.022	140.97
812.201	151.21
812.38	204.46
812.559	165.54
812.737	226.98
812.916	183.98
813.095	149.16
813.274	200.36
813.453	204.46
813.632	220.84
813.811	175.78
813.989	130.73
814.168	167.59
814.347	85.67
814.526	173.74
814.704	120.49
814.883	235.18
815.062	173.74
815.24	214.7
815.419	198.31
815.598	186.02
815.776	188.07
815.955	183.98
816.133	112.3
816.312	169.64
816.49	138.92
816.669	190.12
816.847	186.02
817.026	102.06
817.204	192.17
817.383	130.73
817.561	132.78
817.74	165.54
817.918	100.01
818.097	169.64
818.275	140.97
818.453	198.31
818.632	151.21
818.81	130.73
818.988	128.68
819.167	95.91
819.345	165.54
819.523	67.24
819.701	183.98
819.879	181.93
820.058	120.49
820.236	120.49
820.414	186.02
820.592	132.78
820.77	161.45
820.948	165.54
821.127	136.87
821.305	140.97
821.483	108.2
821.661	159.4
821.839	140.97
822.017	169.64
822.195	118.44
822.373	100.01
822.551	77.48
822.729	57
822.907	128.68
823.085	112.3
823.262	85.67
823.44	128.68
823.618	79.53
823.796	179.88
823.974	102.06
824.152	145.06
824.329	79.53
824.507	138.92
824.685	157.35
824.863	85.67
825.04	145.06
825.218	186.02
825.396	120.49
825.574	71.34
825.751	71.34
825.929	112.3
826.107	81.58
826.284	136.87
826.462	149.16
826.639	57
826.817	114.34
826.994	63.15
827.172	85.67
827.349	143.02
827.527	77.48
827.704	102.06
827.882	46.76
828.059	93.87
828.237	75.43
828.414	132.78
828.591	22.19
828.769	106.15
828.946	22.19
829.124	122.54
829.301	46.76
829.478	46.76
829.655	159.4
829.833	50.86
830.01	91.82
830.187	71.34
830.364	73.39
830.542	83.63
830.719	136.87
830.896	89.77
831.073	42.67
831.25	95.91
831.427	108.2
831.604	95.91
831.782	52.91
831.959	102.06
832.136	67.24
832.313	102.06
832.49	95.91
832.667	91.82
832.844	79.53
833.021	136.87
833.198	7.85
833.374	44.71
833.551	100.01
833.728	77.48
833.905	112.3
834.082	-14.68
834.259	126.63
834.436	132.78
834.612	81.58
834.789	83.63
834.966	30.38
835.143	69.29
835.319	40.62
835.496	122.54
835.673	9.9
835.85	30.38
836.026	112.3
836.203	63.15
836.38	91.82
836.556	71.34
836.733	-31.06
836.909	122.54
837.086	91.82
837.262	79.53
837.439	54.95
837.616	67.24
837.792	81.58
837.968	65.19
838.145	16.04
838.321	106.15
838.498	50.86
838.674	48.81
838.851	44.71
839.027	102.06
839.203	59.05
839.38	104.11
839.556	34.47
839.732	18.09
839.909	194.22
840.085	1.71
840.261	38.57
840.437	89.77
840.614	57
840.79	112.3
840.966	93.87
841.142	93.87
841.318	59.05
841.494	63.15
841.671	145.06
841.847	95.91
842.023	-20.82
842.199	108.2
842.375	38.57
842.551	16.04
842.727	22.19
842.903	34.47
843.079	46.76
843.255	102.06
843.431	118.44
843.607	44.71
843.783	-10.58
843.959	-2.39
844.134	104.11
844.31	11.95
844.486	46.76
844.662	-6.49
844.838	48.81
845.013	24.23
845.189	128.68
845.365	32.43
845.541	110.25
845.716	59.05
845.892	112.3
846.068	26.28
846.244	30.38
846.419	38.57
846.595	-10.58
846.77	32.43
846.946	26.28
847.122	-4.44
847.297	75.43
847.473	71.34
847.648	-35.16
847.824	87.72
847.999	-26.96
848.175	61.1
848.35	38.57
848.526	73.39
848.701	77.48
848.876	38.57
849.052	42.67
849.227	54.95
849.403	16.04
849.578	40.62
849.753	38.57
849.929	48.81
850.104	-6.49
850.279	118.44
850.454	52.91
850.63	50.86
850.805	50.86
850.98	95.91
851.155	1.71
851.33	134.82
851.505	3.75
851.681	57
851.856	85.67
852.031	34.47
852.206	-16.73
852.381	26.28
852.556	-12.63
852.731	22.19
852.906	42.67
853.081	81.58
853.256	13.99
853.431	54.95
853.606	3.75
853.781	-2.39
853.956	81.58
854.131	36.52
854.305	-51.54
854.48	38.57
854.655	36.52
854.83	54.95
855.005	63.15
855.18	112.3
855.354	-2.39
855.529	61.1
855.704	91.82
855.879	104.11
856.053	-10.58
856.228	-24.92
856.403	18.09
856.577	26.28
856.752	71.34
856.926	22.19
857.101	52.91
857.276	30.38
857.45	30.38
857.625	5.8
857.799	85.67
857.974	-22.87
858.148	1.71
858.323	-43.35
858.497	-59.73
858.672	13.99
858.846	54.95
859.02	67.24
859.195	-4.44
859.369	-8.53
859.543	7.85
859.718	18.09
859.892	-2.39
860.066	9.9
860.241	24.23
860.415	11.95
860.589	40.62
860.763	13.99
860.938	-4.44
861.112	38.57
861.286	-2.39
861.46	-33.11
861.634	-2.39
861.808	57
861.982	-8.53
862.157	-102.74
862.331	13.99
862.505	20.14
862.679	-0.34
862.853	91.82
863.027	22.19
863.201	71.34
863.375	-33.11
863.549	42.67
863.722	11.95
863.896	83.63
864.07	-29.01
864.244	28.33
864.418	11.95
864.592	-6.49
864.766	-6.49
864.939	28.33
865.113	-20.82
865.287	97.96
865.461	-49.49
865.634	-16.73
865.808	32.43
865.982	48.81
866.156	5.8
866.329	-51.54
866.503	38.57
866.676	50.86
866.85	79.53
867.024	28.33
867.197	-16.73
867.371	32.43
867.544	1.71
867.718	-47.44
867.891	-88.4
868.065	-65.88
868.238	-6.49
868.412	50.86
868.585	-14.68
868.759	-53.59
868.932	-24.92
869.105	3.75
869.279	48.81
869.452	-10.58
869.625	24.23
869.799	42.67
869.972	-29.01
870.145	57
870.319	13.99
870.492	50.86
870.665	-74.07
870.838	18.09
871.011	50.86
871.185	38.57
871.358	-8.53
871.531	112.3
871.704	18.09
871.877	-14.68
872.05	34.47
872.223	5.8
872.396	46.76
872.569	32.43
872.742	-63.83
872.915	-18.77
873.088	9.9
873.261	34.47
873.434	65.19
873.607	26.28
873.78	-16.73
873.953	-26.96
874.126	-2.39
874.299	28.33
874.471	44.71
874.644	5.8
874.817	18.09
874.99	67.24
875.163	-8.53
875.335	-6.49
875.508	-2.39
875.681	50.86
875.853	42.67
876.026	-41.3
876.199	11.95
876.371	-20.82
876.544	11.95
876.717	-65.88
876.889	1.71
877.062	30.38
877.234	-29.01
877.407	-29.01
877.579	-35.16
877.752	13.99
877.924	-6.49
878.097	38.57
878.269	-35.16
878.442	-55.64
878.614	38.57
878.786	-8.53
878.959	-24.92
879.131	13.99
879.303	-22.87
879.476	44.71
879.648	-31.06
879.82	-37.2
879.993	-20.82
880.165	-47.44
880.337	1.71
880.509	-18.77
880.681	-16.73
880.854	-20.82
881.026	-0.34
881.198	83.63
881.37	85.67
881.542	-2.39
881.714	-2.39
881.886	-4.44
882.058	52.91
882.23	-47.44
882.402	-24.92
882.574	46.76
882.746	42.67
882.918	-10.58
883.09	-8.53
883.262	16.04
883.434	-6.49
883.606	38.57
883.778	-37.2
883.95	73.39
884.122	16.04
884.293	112.3
884.465	-67.92
884.637	-18.77
884.809	13.99
884.98	28.33
885.152	-18.77
885.324	-47.44
885.496	-106.84
885.667	59.05
885.839	-43.35
886.011	5.8
886.182	-33.11
886.354	-18.77
886.525	-33.11
886.697	-0.34
886.869	13.99
887.04	-26.96
887.212	-35.16
887.383	71.34
887.555	1.71
887.726	3.75
887.897	1.71
888.069	36.52
888.24	46.76
888.412	-10.58
888.583	38.57
888.754	22.19
888.926	7.85
889.097	-43.35
889.268	-92.5
889.44	-20.82
889.611	-100.69
889.782	-39.25
889.953	30.38
890.125	59.05
890.296	-59.73
890.467	-20.82
890.638	52.91
890.809	-51.54
890.98	-55.64
891.151	22.19
891.323	-20.82
891.494	-45.4
891.665	9.9
891.836	-14.68
892.007	11.95
892.178	-6.49
892.349	28.33
892.52	-39.25
892.691	28.33
892.862	-16.73
893.032	-0.34
893.203	38.57
893.374	-26.96
893.545	-26.96
893.716	44.71
893.887	-49.49
894.057	59.05
894.228	73.39
894.399	-37.2
894.57	13.99
894.74	-49.49
894.911	-47.44
895.082	-26.96
895.253	-18.77
895.423	5.8
895.594	5.8
895.764	-45.4
895.935	-0.34
896.106	-2.39
896.276	-18.77
896.447	-35.16
896.617	44.71
896.788	30.38
896.958	22.19
897.129	-57.68
897.299	44.71
897.47	5.8
897.64	42.67
897.81	-59.73
897.981	44.71
898.151	-20.82
898.322	-6.49
898.492	-12.63
898.662	-4.44
898.832	46.76
899.003	-16.73
899.173	7.85
899.343	20.14
899.513	-14.68
