Data from USB4F104151__164__10-27-15-741.txt Node

Date: Wed Mar 12 10:27:15 EDT 2025
User: louis
Spectrometer: USB4F10415
Trigger mode: 4
Integration Time (sec): 3.000000E-2
Scans to average: 1
Electric dark correction enabled: true
Nonlinearity correction enabled: false
Boxcar width: 0
XAxis mode: Wavelengths
Number of Pixels in Spectrum: 3648
>>>>>Begin Spectral Data<<<<<
178.204	-89.94
178.424	-89.94
178.644	-89.94
178.864	-91.99
179.084	-126.8
179.304	-59.22
179.524	67.75
179.744	-20.31
179.964	14.51
180.184	-32.6
180.404	67.75
180.624	51.37
180.844	-5.97
181.064	-34.64
181.283	-53.08
181.503	-26.45
181.723	30.89
181.943	51.37
182.163	90.28
182.383	-1.88
182.602	34.99
182.822	28.84
183.042	-22.36
183.262	45.23
183.482	20.65
183.701	-18.26
183.921	47.27
184.141	4.27
184.361	75.95
184.58	37.03
184.8	75.95
185.02	16.55
185.239	55.47
185.459	-1.88
185.679	6.31
185.898	12.46
186.118	39.08
186.338	34.99
186.557	43.18
186.777	-32.6
186.997	-26.45
187.216	28.84
187.436	10.41
187.655	47.27
187.875	127.14
188.095	22.7
188.314	84.14
188.534	63.66
188.753	26.79
188.973	34.99
189.192	67.75
189.412	55.47
189.631	61.61
189.851	-16.21
190.07	127.14
190.29	53.42
190.509	16.55
190.729	-12.12
190.948	94.38
191.168	161.96
191.387	41.13
191.607	34.99
191.826	37.03
192.045	49.32
192.265	32.94
192.484	-28.5
192.704	6.31
192.923	18.6
193.142	174.25
193.362	59.56
193.581	182.44
193.8	80.04
194.02	39.08
194.239	-91.99
194.458	28.84
194.678	-1.88
194.897	14.51
195.116	41.13
195.335	-26.45
195.555	-5.97
195.774	18.6
195.993	84.14
196.212	59.56
196.432	63.66
196.651	45.23
196.87	71.85
197.089	26.79
197.308	20.65
197.528	47.27
197.747	-1.88
197.966	94.38
198.185	61.61
198.404	12.46
198.623	86.19
198.842	104.62
199.062	100.52
199.281	63.66
199.5	84.14
199.719	94.38
199.938	-8.02
200.157	4.27
200.376	77.99
200.595	131.24
200.814	47.27
201.033	43.18
201.252	67.75
201.471	-32.6
201.69	114.86
201.909	108.71
202.128	57.51
202.347	47.27
202.566	39.08
202.785	0.17
203.004	63.66
203.223	73.9
203.442	73.9
203.661	26.79
203.879	86.19
204.098	80.04
204.317	-42.84
204.536	88.23
204.755	32.94
204.974	84.14
205.193	14.51
205.411	75.95
205.63	41.13
205.849	-30.55
206.068	-1.88
206.287	65.71
206.505	-22.36
206.724	37.03
206.943	-8.02
207.162	73.9
207.381	18.6
207.599	-44.88
207.818	10.41
208.037	92.33
208.255	55.47
208.474	16.55
208.693	59.56
208.911	24.75
209.13	59.56
209.349	26.79
209.567	47.27
209.786	100.52
210.005	84.14
210.223	71.85
210.442	75.95
210.661	10.41
210.879	69.8
211.098	20.65
211.316	26.79
211.535	59.56
211.753	65.71
211.972	108.71
212.191	43.18
212.409	12.46
212.628	30.89
212.846	59.56
213.065	20.65
213.283	123.05
213.502	-14.17
213.72	34.99
213.938	39.08
214.157	18.6
214.375	53.42
214.594	32.94
214.812	143.53
215.031	6.31
215.249	61.61
215.467	20.65
215.686	14.51
215.904	88.23
216.122	16.55
216.341	121
216.559	47.27
216.778	92.33
216.996	71.85
217.214	43.18
217.432	4.27
217.651	16.55
217.869	-5.97
218.087	-42.84
218.306	16.55
218.524	45.23
218.742	-55.12
218.96	8.36
219.179	-1.88
219.397	28.84
219.615	82.09
219.833	80.04
220.051	-20.31
220.27	30.89
220.488	90.28
220.706	125.1
220.924	45.23
221.142	34.99
221.36	6.31
221.578	-10.07
221.796	59.56
222.015	51.37
222.233	30.89
222.451	98.47
222.669	-32.6
222.887	-10.07
223.105	18.6
223.323	18.6
223.541	-63.32
223.759	37.03
223.977	-40.79
224.195	73.9
224.413	94.38
224.631	61.61
224.849	51.37
225.067	88.23
225.285	86.19
225.503	22.7
225.721	-20.31
225.939	80.04
226.157	6.31
226.375	121
226.592	12.46
226.81	98.47
227.028	82.09
227.246	108.71
227.464	24.75
227.682	125.1
227.9	12.46
228.117	112.81
228.335	67.75
228.553	51.37
228.771	34.99
228.989	-1.88
229.206	18.6
229.424	12.46
229.642	24.75
229.86	2.22
230.077	10.41
230.295	86.19
230.513	116.9
230.731	77.99
230.948	0.17
231.166	63.66
231.384	96.43
231.601	10.41
231.819	141.48
232.037	47.27
232.254	32.94
232.472	-5.97
232.689	20.65
232.907	30.89
233.125	143.53
233.342	92.33
233.56	-1.88
233.777	61.61
233.995	129.19
234.213	100.52
234.43	77.99
234.648	22.7
234.865	-42.84
235.083	96.43
235.3	22.7
235.518	28.84
235.735	59.56
235.953	63.66
236.17	41.13
236.388	88.23
236.605	26.79
236.822	-10.07
237.04	10.41
237.257	16.55
237.475	41.13
237.692	51.37
237.909	22.7
238.127	-38.74
238.344	57.51
238.562	71.85
238.779	43.18
238.996	34.99
239.214	12.46
239.431	39.08
239.648	-3.93
239.865	67.75
240.083	47.27
240.3	-28.5
240.517	63.66
240.735	-10.07
240.952	43.18
241.169	84.14
241.386	14.51
241.603	41.13
241.821	16.55
242.038	10.41
242.255	18.6
242.472	12.46
242.689	55.47
242.907	125.1
243.124	63.66
243.341	67.75
243.558	59.56
243.775	37.03
243.992	26.79
244.209	55.47
244.426	59.56
244.643	6.31
244.86	12.46
245.078	-5.97
245.295	-16.21
245.512	69.8
245.729	14.51
245.946	45.23
246.163	69.8
246.38	71.85
246.597	-28.5
246.814	41.13
247.031	63.66
247.248	80.04
247.464	37.03
247.681	69.8
247.898	34.99
248.115	116.9
248.332	-12.12
248.549	55.47
248.766	86.19
248.983	12.46
249.2	30.89
249.417	-3.93
249.633	-5.97
249.85	51.37
250.067	4.27
250.284	59.56
250.501	88.23
250.717	90.28
250.934	-34.64
251.151	6.31
251.368	24.75
251.585	43.18
251.801	67.75
252.018	20.65
252.235	98.47
252.451	16.55
252.668	-71.51
252.885	69.8
253.102	63.66
253.318	14.51
253.535	22.7
253.752	20.65
253.968	22.7
254.185	53.42
254.401	80.04
254.618	43.18
254.835	22.7
255.051	77.99
255.268	18.6
255.484	73.9
255.701	30.89
255.917	88.23
256.134	45.23
256.351	59.56
256.567	41.13
256.784	82.09
257	6.31
257.217	110.76
257.433	108.71
257.65	108.71
257.866	92.33
258.082	-79.7
258.299	-16.21
258.515	-14.17
258.732	77.99
258.948	6.31
259.165	-1.88
259.381	-20.31
259.597	18.6
259.814	32.94
260.03	34.99
260.246	-32.6
260.463	47.27
260.679	112.81
260.895	20.65
261.112	104.62
261.328	69.8
261.544	14.51
261.761	88.23
261.977	75.95
262.193	18.6
262.409	18.6
262.626	10.41
262.842	-1.88
263.058	14.51
263.274	80.04
263.49	-10.07
263.707	14.51
263.923	84.14
264.139	53.42
264.355	110.76
264.571	69.8
264.787	18.6
265.004	41.13
265.22	18.6
265.436	37.03
265.652	67.75
265.868	32.94
266.084	10.41
266.3	45.23
266.516	41.13
266.732	75.95
266.948	71.85
267.164	22.7
267.38	-38.74
267.596	88.23
267.812	96.43
268.028	47.27
268.244	80.04
268.46	20.65
268.676	14.51
268.892	4.27
269.108	16.55
269.324	30.89
269.54	20.65
269.756	71.85
269.972	30.89
270.188	69.8
270.403	55.47
270.619	73.9
270.835	92.33
271.051	18.6
271.267	49.32
271.483	-30.55
271.698	28.84
271.914	82.09
272.13	53.42
272.346	39.08
272.562	24.75
272.777	39.08
272.993	16.55
273.209	106.67
273.425	41.13
273.64	18.6
273.856	32.94
274.072	61.61
274.287	-5.97
274.503	39.08
274.719	98.47
274.934	16.55
275.15	6.31
275.366	45.23
275.581	41.13
275.797	24.75
276.012	-34.64
276.228	39.08
276.444	96.43
276.659	100.52
276.875	12.46
277.09	55.47
277.306	80.04
277.521	80.04
277.737	77.99
277.952	98.47
278.168	118.95
278.383	47.27
278.599	-42.84
278.814	55.47
279.03	26.79
279.245	110.76
279.461	20.65
279.676	12.46
279.892	53.42
280.107	-14.17
280.322	10.41
280.538	-8.02
280.753	-28.5
280.969	-5.97
281.184	-1.88
281.399	55.47
281.615	77.99
281.83	26.79
282.045	-8.02
282.26	59.56
282.476	67.75
282.691	75.95
282.906	39.08
283.122	28.84
283.337	16.55
283.552	53.42
283.767	49.32
283.983	71.85
284.198	-8.02
284.413	51.37
284.628	-14.17
284.843	92.33
285.058	6.31
285.274	28.84
285.489	12.46
285.704	84.14
285.919	4.27
286.134	71.85
286.349	-42.84
286.564	55.47
286.779	47.27
286.995	-10.07
287.21	43.18
287.425	32.94
287.64	22.7
287.855	55.47
288.07	39.08
288.285	43.18
288.5	112.81
288.715	18.6
288.93	104.62
289.145	49.32
289.36	-81.75
289.575	6.31
289.79	-14.17
290.004	4.27
290.219	135.34
290.434	26.79
290.649	-22.36
290.864	-8.02
291.079	49.32
291.294	88.23
291.509	-32.6
291.724	75.95
291.938	34.99
292.153	-5.97
292.368	-26.45
292.583	65.71
292.798	69.8
293.012	63.66
293.227	-1.88
293.442	61.61
293.657	39.08
293.871	24.75
294.086	12.46
294.301	4.27
294.516	161.96
294.73	2.22
294.945	34.99
295.16	-5.97
295.374	80.04
295.589	20.65
295.804	-16.21
296.018	30.89
296.233	108.71
296.447	-67.41
296.662	22.7
296.877	55.47
297.091	102.57
297.306	20.65
297.52	-24.4
297.735	82.09
297.949	63.66
298.164	-1.88
298.378	47.27
298.593	-3.93
298.807	55.47
299.022	41.13
299.236	14.51
299.451	-3.93
299.665	63.66
299.88	67.75
300.094	92.33
300.309	2.22
300.523	63.66
300.737	75.95
300.952	34.99
301.166	8.36
301.381	-14.17
301.595	53.42
301.809	96.43
302.024	-10.07
302.238	51.37
302.452	118.95
302.667	63.66
302.881	26.79
303.095	-46.93
303.309	22.7
303.524	37.03
303.738	63.66
303.952	80.04
304.166	51.37
304.381	-38.74
304.595	77.99
304.809	6.31
305.023	8.36
305.237	-18.26
305.452	37.03
305.666	63.66
305.88	22.7
306.094	49.32
306.308	65.71
306.522	-1.88
306.736	14.51
306.95	47.27
307.164	45.23
307.379	49.32
307.593	41.13
307.807	55.47
308.021	73.9
308.235	88.23
308.449	24.75
308.663	37.03
308.877	106.67
309.091	73.9
309.305	14.51
309.519	-28.5
309.733	55.47
309.947	6.31
310.161	80.04
310.374	143.53
310.588	96.43
310.802	41.13
311.016	20.65
311.23	20.65
311.444	69.8
311.658	47.27
311.872	34.99
312.085	75.95
312.299	104.62
312.513	-10.07
312.727	49.32
312.941	43.18
313.154	118.95
313.368	39.08
313.582	51.37
313.796	-57.17
314.009	96.43
314.223	43.18
314.437	77.99
314.651	37.03
314.864	-10.07
315.078	53.42
315.292	26.79
315.505	69.8
315.719	82.09
315.933	32.94
316.146	6.31
316.36	69.8
316.573	75.95
316.787	63.66
317.001	63.66
317.214	51.37
317.428	53.42
317.641	12.46
317.855	10.41
318.068	0.17
318.282	-71.51
318.495	123.05
318.709	88.23
318.922	49.32
319.136	43.18
319.349	80.04
319.563	20.65
319.776	80.04
319.99	-16.21
320.203	-26.45
320.417	32.94
320.63	55.47
320.843	69.8
321.057	57.51
321.27	2.22
321.483	30.89
321.697	106.67
321.91	94.38
322.124	59.56
322.337	94.38
322.55	30.89
322.763	63.66
322.977	53.42
323.19	18.6
323.403	22.7
323.617	71.85
323.83	88.23
324.043	2.22
324.256	16.55
324.469	43.18
324.683	90.28
324.896	32.94
325.109	71.85
325.322	-34.64
325.535	73.9
325.748	-3.93
325.962	116.9
326.175	104.62
326.388	43.18
326.601	135.34
326.814	45.23
327.027	28.84
327.24	84.14
327.453	6.31
327.666	71.85
327.879	88.23
328.092	90.28
328.305	-10.07
328.518	71.85
328.731	71.85
328.944	57.51
329.157	53.42
329.37	20.65
329.583	0.17
329.796	14.51
330.009	88.23
330.222	98.47
330.435	123.05
330.648	112.81
330.861	116.9
331.073	114.86
331.286	53.42
331.499	45.23
331.712	-1.88
331.925	143.53
332.138	30.89
332.35	82.09
332.563	26.79
332.776	94.38
332.989	-5.97
333.202	129.19
333.414	16.55
333.627	53.42
333.84	-10.07
334.053	55.47
334.265	77.99
334.478	59.56
334.691	41.13
334.903	49.32
335.116	77.99
335.329	41.13
335.541	82.09
335.754	104.62
335.966	82.09
336.179	43.18
336.392	4.27
336.604	-28.5
336.817	94.38
337.029	14.51
337.242	69.8
337.454	94.38
337.667	51.37
337.88	75.95
338.092	47.27
338.305	121
338.517	24.75
338.729	100.52
338.942	104.62
339.154	8.36
339.367	32.94
339.579	84.14
339.792	43.18
340.004	110.76
340.217	88.23
340.429	53.42
340.641	55.47
340.854	-5.97
341.066	-20.31
341.278	59.56
341.491	106.67
341.703	-42.84
341.915	80.04
342.128	100.52
342.34	104.62
342.552	24.75
342.764	65.71
342.977	18.6
343.189	45.23
343.401	63.66
343.613	39.08
343.826	24.75
344.038	-16.21
344.25	90.28
344.462	-10.07
344.674	73.9
344.886	112.81
345.099	67.75
345.311	100.52
345.523	69.8
345.735	-16.21
345.947	22.7
346.159	20.65
346.371	-30.55
346.583	-14.17
346.795	92.33
347.007	12.46
347.219	84.14
347.431	-10.07
347.643	80.04
347.855	-5.97
348.067	123.05
348.279	37.03
348.491	39.08
348.703	-10.07
348.915	10.41
349.127	90.28
349.339	24.75
349.551	34.99
349.763	67.75
349.975	12.46
350.187	69.8
350.399	121
350.61	69.8
350.822	51.37
351.034	77.99
351.246	45.23
351.458	28.84
351.669	67.75
351.881	34.99
352.093	168.1
352.305	88.23
352.517	92.33
352.728	37.03
352.94	53.42
353.152	45.23
353.363	88.23
353.575	41.13
353.787	145.58
353.999	67.75
354.21	73.9
354.422	59.56
354.633	-1.88
354.845	34.99
355.057	28.84
355.268	43.18
355.48	84.14
355.692	43.18
355.903	47.27
356.115	82.09
356.326	43.18
356.538	100.52
356.749	34.99
356.961	100.52
357.172	116.9
357.384	41.13
357.595	116.9
357.807	84.14
358.018	45.23
358.23	45.23
358.441	116.9
358.653	71.85
358.864	-10.07
359.075	63.66
359.287	51.37
359.498	34.99
359.709	32.94
359.921	8.36
360.132	118.95
360.344	90.28
360.555	65.71
360.766	69.8
360.977	43.18
361.189	53.42
361.4	45.23
361.611	28.84
361.823	92.33
362.034	80.04
362.245	22.7
362.456	47.27
362.667	73.9
362.879	26.79
363.09	-10.07
363.301	51.37
363.512	4.27
363.723	22.7
363.935	86.19
364.146	2.22
364.357	69.8
364.568	123.05
364.779	-1.88
364.99	82.09
365.201	39.08
365.412	55.47
365.623	-32.6
365.834	84.14
366.045	-10.07
366.256	75.95
366.467	65.71
366.678	61.61
366.889	110.76
367.1	69.8
367.311	90.28
367.522	39.08
367.733	98.47
367.944	63.66
368.155	73.9
368.366	110.76
368.577	53.42
368.788	55.47
368.999	71.85
369.209	-3.93
369.42	39.08
369.631	151.72
369.842	88.23
370.053	39.08
370.264	71.85
370.474	20.65
370.685	59.56
370.896	135.34
371.107	94.38
371.317	-20.31
371.528	-42.84
371.739	98.47
371.95	112.81
372.16	121
372.371	-48.98
372.582	82.09
372.792	61.61
373.003	22.7
373.214	71.85
373.424	8.36
373.635	100.52
373.846	59.56
374.056	71.85
374.267	-18.26
374.477	67.75
374.688	28.84
374.898	77.99
375.109	47.27
375.319	77.99
375.53	71.85
375.74	110.76
375.951	80.04
376.161	88.23
376.372	96.43
376.582	129.19
376.793	127.14
377.003	69.8
377.214	47.27
377.424	55.47
377.635	26.79
377.845	41.13
378.055	92.33
378.266	-22.36
378.476	49.32
378.686	73.9
378.897	30.89
379.107	108.71
379.317	112.81
379.528	37.03
379.738	112.81
379.948	32.94
380.158	57.51
380.369	-12.12
380.579	16.55
380.789	71.85
380.999	12.46
381.21	168.1
381.42	135.34
381.63	16.55
381.84	8.36
382.05	100.52
382.261	55.47
382.471	90.28
382.681	71.85
382.891	110.76
383.101	55.47
383.311	37.03
383.521	53.42
383.731	96.43
383.941	125.1
384.151	86.19
384.361	55.47
384.571	49.32
384.781	43.18
384.991	69.8
385.201	77.99
385.411	80.04
385.621	22.7
385.831	131.24
386.041	32.94
386.251	28.84
386.461	108.71
386.671	90.28
386.881	98.47
387.091	59.56
387.301	71.85
387.511	12.46
387.72	61.61
387.93	55.47
388.14	59.56
388.35	104.62
388.56	96.43
388.769	108.71
388.979	110.76
389.189	61.61
389.399	82.09
389.609	80.04
389.818	106.67
390.028	110.76
390.238	34.99
390.447	16.55
390.657	110.76
390.867	-8.02
391.076	30.89
391.286	75.95
391.496	22.7
391.705	88.23
391.915	49.32
392.125	145.58
392.334	41.13
392.544	82.09
392.753	88.23
392.963	92.33
393.172	49.32
393.382	-1.88
393.591	131.24
393.801	84.14
394.01	92.33
394.22	67.75
394.429	26.79
394.639	26.79
394.848	22.7
395.058	61.61
395.267	55.47
395.477	32.94
395.686	75.95
395.895	198.82
396.105	153.77
396.314	96.43
396.524	49.32
396.733	-1.88
396.942	172.2
397.152	106.67
397.361	67.75
397.57	88.23
397.78	198.82
397.989	90.28
398.198	137.38
398.407	10.41
398.617	125.1
398.826	90.28
399.035	133.29
399.244	63.66
399.453	123.05
399.663	61.61
399.872	49.32
400.081	125.1
400.29	202.92
400.499	77.99
400.708	147.62
400.917	75.95
401.127	28.84
401.336	114.86
401.545	139.43
401.754	80.04
401.963	96.43
402.172	133.29
402.381	22.7
402.59	110.76
402.799	116.9
403.008	110.76
403.217	121
403.426	143.53
403.635	88.23
403.844	71.85
404.053	104.62
404.262	98.47
404.471	215.21
404.68	127.14
404.888	121
405.097	166.06
405.306	159.91
405.515	104.62
405.724	198.82
405.933	151.72
406.142	125.1
406.35	106.67
406.559	114.86
406.768	47.27
406.977	250.02
407.185	243.88
407.394	219.3
407.603	161.96
407.812	192.68
408.02	266.41
408.229	258.21
408.438	233.64
408.646	264.36
408.855	200.87
409.064	239.78
409.272	276.65
409.481	233.64
409.69	276.65
409.898	270.5
410.107	325.8
410.315	299.17
410.524	188.58
410.733	301.22
410.941	395.43
411.15	428.2
411.358	379.04
411.567	397.48
411.775	297.13
411.984	354.47
412.192	379.04
412.401	389.28
412.609	393.38
412.818	424.1
413.026	399.52
413.234	460.96
413.443	493.73
413.651	465.06
413.86	497.83
414.068	530.59
414.276	577.7
414.485	518.31
414.693	641.18
414.901	620.71
415.11	518.31
415.318	651.42
415.526	637.09
415.734	692.38
415.943	598.18
416.151	712.86
416.359	833.69
416.567	848.03
416.776	770.21
416.984	823.45
417.192	856.22
417.4	899.23
417.608	809.12
417.817	886.94
418.025	1048.73
418.233	1093.79
418.441	985.24
418.649	1054.87
418.857	1050.78
419.065	1124.51
419.273	1118.36
419.481	1136.79
419.689	1298.58
419.897	1366.17
420.105	1355.93
420.313	1304.73
420.521	1417.37
420.729	1448.08
420.937	1542.29
421.145	1538.2
421.353	1618.07
421.561	1591.44
421.769	1693.84
421.977	1824.91
422.185	1816.72
422.393	1861.77
422.601	2029.71
422.809	1861.77
423.017	2037.9
423.224	2173.07
423.432	2160.78
423.64	2185.35
423.848	2275.46
424.056	2273.42
424.263	2467.97
424.471	2553.99
424.679	2588.8
424.887	2553.99
425.094	2738.3
425.302	2637.95
425.51	2912.38
425.718	2971.77
425.925	3084.41
426.133	3027.07
426.341	3295.35
426.548	3438.71
426.756	3405.94
426.964	3342.46
427.171	3698.8
427.379	3668.08
427.586	3709.04
427.794	3919.98
428.001	4135.02
428.209	4192.36
428.417	4135.02
428.624	4403.3
428.832	4585.57
429.039	4456.55
429.247	4384.87
429.454	4870.24
429.662	5224.54
429.869	4997.21
430.076	5247.07
430.284	5079.13
430.491	5363.8
430.699	5435.48
430.906	5478.49
431.114	5736.53
431.321	5742.68
431.528	5961.81
431.736	6518.86
431.943	6514.76
432.15	6383.69
432.358	6453.32
432.565	6785.09
432.772	6797.38
432.979	7075.9
433.187	7348.28
433.394	7245.88
433.601	7829.56
433.808	7725.11
434.016	7731.25
434.223	8093.74
434.43	8671.27
434.637	8460.33
434.844	8714.28
435.052	9189.41
435.259	9029.66
435.466	9318.43
435.673	8966.18
435.88	9621.53
436.087	10104.85
436.294	10233.87
436.501	9855
436.708	10108.94
436.915	10582.03
437.122	10977.28
437.329	10887.17
437.537	11110.4
437.743	11436.03
437.95	11487.23
438.157	11898.87
438.364	12521.45
438.571	12476.4
438.778	12253.17
438.985	13598.68
439.192	12863.46
439.399	13338.59
439.606	13006.82
439.813	13942.74
440.02	14610.38
440.227	14290.9
440.433	14251.99
440.64	14673.87
440.847	14757.83
441.054	15081.41
441.261	15972.28
441.467	15808.44
441.674	16107.44
441.881	16621.49
442.088	16662.44
442.294	16578.48
442.501	17014.7
442.708	17266.6
442.914	17835.93
443.121	18608.01
443.328	18126.74
443.534	19519.36
443.741	18939.79
443.948	18728.84
444.154	20242.29
444.361	19906.43
444.568	20146.04
444.774	19937.15
444.981	20197.24
445.187	21073.77
445.394	21946.2
445.6	21041
445.807	23437.13
446.013	22200.15
446.22	22730.58
446.426	23940.93
446.633	23793.47
446.839	24768.3
447.046	23537.48
447.252	24774.45
447.459	25102.12
447.665	25163.56
447.871	25820.96
448.078	26771.22
448.284	25818.91
448.491	26486.55
448.697	27633.41
448.903	27997.95
449.11	27754.24
449.316	27209.48
449.522	28081.92
449.728	28745.46
449.935	29038.32
450.141	28557.05
450.347	29017.84
450.553	28497.66
450.76	28665.59
450.966	29466.35
451.172	29718.25
451.378	30064.35
451.584	29404.91
451.791	30271.2
451.997	29986.53
452.203	30670.55
452.409	30289.63
452.615	30400.22
452.821	29277.93
453.027	28794.61
453.233	30678.74
453.44	28786.42
453.646	29511.4
453.852	29683.43
454.058	30066.4
454.264	28866.29
454.47	29636.33
454.676	28876.53
454.882	29998.82
455.088	27025.17
455.294	27959.04
455.5	28217.08
455.705	28286.72
455.911	27248.39
456.117	26320.67
456.323	26136.35
456.529	24829.74
456.735	25847.58
456.941	25339.69
457.147	24882.99
457.352	23967.55
457.558	23500.61
457.764	23629.63
457.97	23316.29
458.176	22800.21
458.381	22810.45
458.587	21798.75
458.793	21430.12
458.999	20678.51
459.204	22290.26
459.41	21299.05
459.616	19953.53
459.821	19914.62
460.027	19922.81
460.233	19312.52
460.438	18313.11
460.644	18714.51
460.85	17756.06
461.055	17639.33
461.261	17698.72
461.466	16160.69
461.672	15904.7
461.878	16854.95
462.083	16072.63
462.289	15605.69
462.494	15292.35
462.7	14849.99
462.905	14436.3
463.111	14577.61
463.316	14798.79
463.522	14528.46
463.727	14823.37
463.932	14446.54
464.138	14520.27
464.343	14526.41
464.549	13834.2
464.754	14456.78
464.959	14309.33
465.165	14020.56
465.37	13627.35
465.575	13318.11
465.781	13754.33
465.986	13889.49
466.191	13432.8
466.397	13072.36
466.602	12494.83
466.807	13096.93
467.012	13037.54
467.218	12978.15
467.423	12765.16
467.628	12740.58
467.833	13453.28
468.038	12799.98
468.244	12580.84
468.449	13039.59
468.654	12609.51
468.859	12351.47
469.064	12529.64
469.269	11915.25
469.474	11956.21
469.679	12222.45
469.885	11915.25
470.09	12115.95
470.295	12019.7
470.5	11720.7
470.705	11878.39
470.91	11544.57
471.115	11558.91
471.32	11601.91
471.525	11448.32
471.73	11253.76
471.935	11102.21
472.139	10827.78
472.344	10850.31
472.549	10844.17
472.754	10684.42
472.959	10604.55
473.164	10283.02
473.369	10358.8
473.574	10524.68
473.778	10258.45
473.983	10295.31
474.188	9977.87
474.393	9670.68
474.598	9633.82
474.802	9826.32
475.007	9605.14
475.212	9764.89
475.417	9369.63
475.621	9426.97
475.826	9283.61
476.031	9238.56
476.235	8933.41
476.44	9281.57
476.645	9015.33
476.849	8906.79
477.054	9097.25
477.259	8734.76
477.463	8867.88
477.668	8575.02
477.872	8667.17
478.077	8413.23
478.282	8448.04
478.486	8429.61
478.691	8302.64
478.895	8063.02
479.1	8224.81
479.304	8224.81
479.509	7946.29
479.713	8149.04
479.918	7833.65
480.122	7850.03
480.326	7907.38
480.531	7860.27
480.735	7743.54
480.94	7671.86
481.144	7925.81
481.348	7737.4
481.553	7700.53
481.757	7565.37
481.961	7649.33
482.166	7786.55
482.37	7786.55
482.574	7540.79
482.778	7450.68
482.983	7796.79
483.187	7565.37
483.391	7786.55
483.595	7565.37
483.8	7696.44
484.004	7731.25
484.208	7778.36
484.412	7579.7
484.616	7735.35
484.821	7714.87
485.025	7471.16
485.229	7710.77
485.433	7432.25
485.637	7544.89
485.841	7481.4
486.045	7405.63
486.249	7608.37
486.453	7518.26
486.657	7462.97
486.861	7514.17
487.065	7338.04
487.269	7628.85
487.473	7424.06
487.677	7624.76
487.881	7743.54
488.085	7794.74
488.289	7518.26
488.493	7528.5
488.697	7628.85
488.901	7721.01
489.105	7743.54
489.309	7559.22
489.512	7620.66
489.716	7663.67
489.92	7710.77
490.124	7671.86
490.328	7913.52
490.531	7575.61
490.735	7929.91
490.939	7907.38
491.143	7893.04
491.346	7841.84
491.55	7956.53
491.754	7833.65
491.958	7880.75
492.161	7807.03
492.365	7905.33
492.569	8054.83
492.772	7952.43
492.976	8194.09
493.18	8069.17
493.383	8288.3
493.587	8499.24
493.79	8271.92
493.994	8099.89
494.197	8472.62
494.401	8509.48
494.605	8450.09
494.808	8405.03
495.012	8648.74
495.215	8656.93
495.419	8876.07
495.622	8599.59
495.825	8841.25
496.029	9023.52
496.232	8980.51
496.436	8898.59
496.639	9213.98
496.843	9066.53
497.046	9308.19
497.249	9422.87
497.453	9697.3
497.656	9672.73
497.859	9551.9
498.063	10043.41
498.266	9967.63
498.469	9965.59
498.673	9975.83
498.876	10227.73
499.079	10219.53
499.282	10299.41
499.485	10563.59
499.689	10641.42
499.892	10795.01
500.095	10823.69
500.298	11057.15
500.501	11083.78
500.705	11081.73
500.908	11374.59
501.111	11470.84
501.314	11343.87
501.517	11718.65
501.72	11954.16
501.923	11614.2
502.126	11933.68
502.329	12365.81
502.532	12273.65
502.735	12195.82
502.938	12654.57
503.141	12648.43
503.344	12988.39
503.547	12892.13
503.75	13113.31
503.953	13408.22
504.156	13531.1
504.359	13412.32
504.562	13774.81
504.765	14016.47
504.968	14008.28
505.17	14317.52
505.373	14139.35
505.576	14702.54
505.779	14565.32
505.982	14882.76
506.185	15089.6
506.387	15144.9
506.59	15050.69
506.793	15204.29
506.996	15402.94
507.198	16179.12
507.401	15845.3
507.604	16007.09
507.807	16607.15
508.009	16639.92
508.212	16744.36
508.415	16889.77
508.617	17141.67
508.82	16996.26
509.022	17131.43
509.225	17665.95
509.428	17459.1
509.63	17887.13
509.833	17876.89
510.035	18159.51
510.238	18102.17
510.44	18280.34
510.643	18718.61
510.845	18847.63
511.048	18829.2
511.25	19033.99
511.453	19228.55
511.655	20006.78
511.858	19652.48
512.06	19752.83
512.262	19910.52
512.465	19976.06
512.667	20305.78
512.87	20639.6
513.072	20641.65
513.274	21290.85
513.477	21374.82
513.679	21686.11
513.881	21641.06
514.084	21854.05
514.286	21753.69
514.488	22097.75
514.69	22683.47
514.893	22835.02
515.095	22804.3
515.297	23013.2
515.499	23379.78
515.701	23492.42
515.904	23592.77
516.106	23867.2
516.308	24207.16
516.51	24096.57
516.712	24545.08
516.914	24815.41
517.116	25122.6
517.318	25360.17
517.52	25591.59
517.722	25233.19
517.925	25913.12
518.127	26406.68
518.329	26144.54
518.531	26373.91
518.733	26584.85
518.935	27008.78
519.136	27197.2
519.338	27272.97
519.54	27508.49
519.742	27946.75
519.944	28094.21
520.146	28485.37
520.348	28671.73
520.55	28542.71
520.752	28950.26
520.954	29396.71
521.155	29185.77
521.357	29802.21
521.559	29638.37
521.761	30469.85
521.963	30217.95
522.164	30115.55
522.366	30529.24
522.568	30994.13
522.77	30897.88
522.971	31680.2
523.173	31694.54
523.375	31825.61
523.576	31645.38
523.778	32157.38
523.98	32421.56
524.181	32515.77
524.383	32147.14
524.584	32888.5
524.786	32896.69
524.988	32646.84
525.189	33218.22
525.391	33717.93
525.592	33670.82
525.794	33787.56
525.995	33558.19
526.197	33455.79
526.398	34072.23
526.6	34461.34
526.801	34643.61
527.003	34844.31
527.204	34301.6
527.406	35325.58
527.607	34899.61
527.808	35505.8
528.01	34653.85
528.211	35294.86
528.412	35856.01
528.614	35573.39
528.815	35786.38
529.016	36122.24
529.218	35909.25
529.419	35767.94
529.62	36040.32
529.822	36007.56
530.023	36378.24
530.224	36236.93
530.425	36601.47
530.626	36013.7
530.828	36109.96
531.029	37052.02
531.23	36249.22
531.431	36363.9
531.632	36642.43
531.833	37084.79
532.035	36595.32
532.236	36597.37
532.437	37109.36
532.638	36781.69
532.839	37133.94
533.04	37277.3
533.241	36937.34
533.442	37381.74
533.643	36767.35
533.844	37002.87
534.045	37131.89
534.246	36947.57
534.447	37502.57
534.648	36824.7
534.849	37410.42
535.05	37133.94
535.251	37486.19
535.451	37236.34
535.652	37351.02
535.853	37146.23
536.054	37629.55
536.255	37647.98
536.456	37105.27
536.657	37762.67
536.857	37660.27
537.058	37219.95
537.259	37934.7
537.46	37459.57
537.66	37781.1
537.861	37502.57
538.062	37516.91
538.263	37428.85
538.463	37652.08
538.664	37525.1
538.865	37584.49
539.065	37703.28
539.266	37338.74
539.466	38047.33
539.667	36746.87
539.868	38063.72
540.068	37570.16
540.269	37535.34
540.469	37688.94
540.67	37389.94
540.87	37424.75
541.071	37578.35
541.271	37725.8
541.472	37568.11
541.672	37369.46
541.873	37414.51
542.073	37211.76
542.274	37875.3
542.474	37365.36
542.675	37402.22
542.875	37969.51
543.075	37432.94
543.276	36724.35
543.476	37707.37
543.676	36941.43
543.877	37500.53
544.077	37205.62
544.277	37039.73
544.478	37412.46
544.678	37746.28
544.878	37207.67
545.078	37523.05
545.279	37215.86
545.479	37330.55
545.679	36982.39
545.879	37228.15
546.079	37330.55
546.28	37295.73
546.48	37033.59
546.68	37469.81
546.88	37289.59
547.08	37265.01
547.28	37101.17
547.48	36888.18
547.68	37375.6
547.88	37154.42
548.081	37013.11
548.281	37305.97
548.481	36847.22
548.681	37336.69
548.881	37326.45
549.081	37310.07
549.28	37308.02
549.48	37021.3
549.68	37088.88
549.88	37357.17
550.08	36945.53
550.28	37174.9
550.48	37144.18
550.68	37113.46
550.88	36982.39
551.08	36779.64
551.279	37078.64
551.479	36556.41
551.679	36771.45
551.879	36859.51
552.079	36929.14
552.278	36710.01
552.478	36923
552.678	36957.81
552.878	36734.59
553.077	36685.43
553.277	36552.32
553.477	36929.14
553.676	36624
553.876	36429.44
554.076	36390.53
554.275	36630.14
554.475	36243.07
554.674	36425.34
554.874	36232.83
555.074	36406.91
555.273	36566.65
555.473	36949.62
555.672	36544.13
555.872	36433.53
556.071	36871.8
556.271	36609.66
556.47	36306.56
556.67	35944.07
556.869	36175.49
557.068	36185.73
557.268	35843.72
557.467	36075.14
557.667	36077.19
557.866	36206.21
558.065	35913.35
558.265	35659.4
558.464	35839.62
558.663	36243.07
558.863	35100.31
559.062	35645.07
559.261	35389.07
559.461	35798.66
559.66	35214.99
559.859	35661.45
560.058	35387.02
560.258	35878.54
560.457	34780.82
560.656	35405.45
560.855	34954.9
561.054	35618.44
561.253	34868.89
561.453	34995.86
561.652	35403.41
561.851	35098.26
562.05	34893.46
562.249	34774.68
562.448	34989.72
562.647	34926.23
562.846	34684.57
563.045	34850.45
563.244	34481.82
563.443	34846.36
563.642	34135.71
563.841	34330.27
564.04	34303.65
564.239	34674.33
564.438	34055.84
564.637	34164.39
564.836	34406.05
565.035	34023.08
565.234	33930.92
565.432	33732.26
565.631	33695.4
565.83	33717.93
566.029	33277.61
566.228	33488.56
566.427	33287.85
566.625	33324.72
566.824	32820.92
567.023	33543.85
567.222	32573.11
567.42	33496.75
567.619	32999.09
567.818	32671.42
568.016	33175.22
568.215	32761.53
568.414	32677.56
568.612	33189.55
568.811	32362.17
569.01	32741.05
569.208	32126.66
569.407	32532.15
569.605	31946.44
569.804	32198.34
570.002	31905.48
570.201	32184
570.4	31934.15
570.598	31764.17
570.797	31585.99
570.995	31661.77
571.193	31090.38
571.392	31211.21
571.59	31286.99
571.789	31352.52
571.987	31188.69
572.186	31182.54
572.384	30756.57
572.582	31231.69
572.781	31239.89
572.979	30789.33
573.177	30877.4
573.376	30883.54
573.574	30574.3
573.772	30713.56
573.971	30529.24
574.169	30281.44
574.367	30531.29
574.565	30160.61
574.763	29867.75
574.962	30058.21
575.16	29640.42
575.358	30050.02
575.556	29566.7
575.754	29910.75
575.952	29542.12
576.151	29757.16
576.349	29234.92
576.547	29597.42
576.745	29365.99
576.943	29505.26
577.141	29501.16
577.339	29568.74
577.537	28772.08
577.735	29140.72
577.933	28677.88
578.131	28602.1
578.329	28774.13
578.527	28358.39
578.725	28499.7
578.923	28565.24
579.121	28528.38
579.319	28471.03
579.516	28458.74
579.714	28608.25
579.912	28043.01
580.11	28083.97
580.308	28202.75
580.506	28169.98
580.704	27588.36
580.901	27893.51
581.099	27793.15
581.297	27631.37
581.495	27475.72
581.692	27842.31
581.89	27238.16
582.088	27934.46
582.285	27283.21
582.483	27254.54
582.681	27260.68
582.878	27004.69
583.076	26963.73
583.274	27068.17
583.471	26541.85
583.669	26736.4
583.866	26883.86
584.064	27082.51
584.262	26445.59
584.459	26836.75
584.657	26412.82
584.854	26482.45
585.052	26005.28
585.249	26214.17
585.447	26285.85
585.644	25919.26
585.841	26304.28
586.039	26238.75
586.236	25845.54
586.434	25968.41
586.631	25747.23
586.828	25620.26
587.026	25657.12
587.223	25726.75
587.42	25292.58
587.618	25573.16
587.815	25202.47
588.012	24954.67
588.21	25227.05
588.407	25421.61
588.604	24991.53
588.801	24874.8
588.999	24975.15
589.196	24973.1
589.393	24706.87
589.59	24786.74
589.787	24772.4
589.984	24715.06
590.182	24631.09
590.379	24385.33
590.576	24452.92
590.773	24411.96
590.97	24340.28
591.167	24297.27
591.364	23938.88
591.561	24170.3
591.758	23725.89
591.955	23891.77
592.152	23754.56
592.349	23820.1
592.546	23582.53
592.743	23596.87
592.94	23502.66
593.137	23349.06
593.334	23539.52
593.531	23039.82
593.727	23433.03
593.924	23234.38
594.121	22875.98
594.318	23150.41
594.515	22998.86
594.712	23115.59
594.908	22773.58
595.105	22853.45
595.302	22525.78
595.499	23039.82
595.696	22722.38
595.892	22478.68
596.089	22503.25
596.286	22576.98
596.482	22615.89
596.679	22730.58
596.876	21970.78
597.072	22003.55
597.269	22333.27
597.466	21886.81
597.662	22003.55
597.859	21702.5
598.055	22011.74
598.252	21567.33
598.448	22095.71
598.645	21624.67
598.841	21288.81
599.038	21661.54
599.234	21583.71
599.431	21563.23
599.627	21292.9
599.824	21372.77
600.02	21368.68
600.217	21055.34
600.413	21247.85
600.609	21161.83
600.806	20991.85
601.002	21079.91
601.198	20846.44
601.395	20842.35
601.591	20735.85
601.787	20971.37
601.984	20764.53
602.18	20832.11
602.376	20541.3
602.572	20582.26
602.769	20488.05
602.965	20152.18
603.161	20332.4
603.357	20227.96
603.553	20434.8
603.75	20209.53
603.946	20012.92
604.142	19888
604.338	19844.99
604.534	20023.16
604.73	19812.22
604.926	19789.69
605.122	19920.76
605.318	19871.61
605.514	19535.74
605.71	19578.75
605.906	19466.11
606.102	19580.8
606.298	19455.87
606.494	19429.25
606.69	19455.87
606.886	19560.32
607.082	18943.88
607.278	19072.9
607.474	19054.47
607.67	19103.62
607.866	18913.16
608.062	19181.45
608.257	18962.31
608.453	19111.82
608.649	18835.34
608.845	18874.25
609.041	18923.4
609.236	18986.89
609.432	18884.49
609.628	18515.86
609.824	18628.49
610.019	18481.04
610.215	18544.53
610.411	18583.44
610.606	18593.68
610.802	18573.2
610.998	18499.47
611.193	18732.94
611.389	18130.84
611.584	18149.27
611.78	18112.41
611.976	18198.42
612.171	18327.44
612.367	17846.17
612.562	17989.53
612.758	17717.15
612.953	17870.75
613.149	18091.93
613.344	17923.99
613.539	18159.51
613.735	18055.06
613.93	17975.19
614.126	17887.13
614.321	18167.7
614.517	17848.22
614.712	17807.26
614.907	17586.08
615.103	17723.29
615.298	17569.69
615.493	17737.63
615.688	17487.78
615.884	17979.29
616.079	17276.84
616.274	17512.35
616.47	17282.98
616.665	17362.85
616.86	17174.44
617.055	17301.41
617.25	17483.68
617.445	17438.62
617.641	17317.79
617.836	17264.55
618.031	17010.6
618.226	17074.09
618.421	16910.25
618.616	17082.28
618.811	16983.98
619.006	17268.64
619.201	16547.76
619.396	16969.64
619.591	16566.19
619.786	16875.43
619.981	16601.01
620.176	16496.56
620.371	16326.58
620.566	16500.65
620.761	16023.48
620.956	16170.93
621.151	16144.31
621.346	16023.48
621.541	16109.49
621.735	15966.14
621.93	15562.69
622.125	15556.54
622.32	15331.26
622.515	15777.72
622.709	15658.94
622.904	15615.93
623.099	15280.07
623.294	15259.59
623.488	15261.63
623.683	15423.42
623.878	14964.68
624.072	14862.28
624.267	14927.81
624.462	14997.45
624.656	14743.5
624.851	14809.03
625.046	14819.27
625.24	14637
625.435	14338
625.629	14321.62
625.824	14387.15
626.018	14401.49
626.213	14098.39
626.407	14176.21
626.602	13871.06
626.796	13926.36
626.991	14045.14
627.185	13783
627.38	13555.68
627.574	13651.93
627.768	13590.49
627.963	13479.9
628.157	13455.33
628.352	13430.75
628.546	13518.81
628.74	13281.25
628.935	13109.22
629.129	13084.64
629.323	12990.44
629.517	13027.3
629.712	13025.25
629.906	12984.29
630.1	12642.28
630.294	12722.15
630.489	13051.88
630.683	12683.24
630.877	12152.82
631.071	12365.81
631.265	12443.63
631.459	12443.63
631.653	12429.29
631.848	12195.82
632.042	12294.13
632.236	12140.53
632.43	11796.47
632.624	11925.49
632.818	11790.33
633.012	11671.54
633.206	11685.88
633.4	11597.82
633.594	11503.61
633.788	11544.57
633.982	11608.06
634.176	11632.63
634.369	11442.17
634.563	11544.57
634.757	11440.12
634.951	11194.37
635.145	11356.16
635.339	11128.83
635.533	11173.89
635.726	11106.31
635.92	10864.64
636.114	10897.41
636.308	10909.7
636.501	10852.36
636.695	10838.02
636.889	10784.77
637.083	10555.4
637.276	10518.54
637.47	10541.07
637.664	10506.25
637.857	10332.17
638.051	10549.26
638.244	10199.06
638.438	10297.36
638.632	10119.18
638.825	10041.36
639.019	10131.47
639.212	9908.24
639.406	9994.26
639.599	9912.34
639.793	9908.24
639.986	9697.3
640.18	9709.59
640.373	9621.53
640.567	9670.68
640.76	9596.95
640.954	9537.56
641.147	9451.55
641.34	9328.67
641.534	9429.02
641.727	9515.03
641.92	9201.69
642.114	9353.24
642.307	9369.63
642.5	9242.65
642.694	8972.32
642.887	9105.44
643.08	9054.24
643.273	9062.43
643.467	8943.65
643.66	8757.29
643.853	8861.73
644.046	8577.06
644.239	8730.66
644.432	8575.02
644.626	8732.71
644.819	8646.69
645.012	8493.1
645.205	8597.54
645.398	8284.2
645.591	8388.65
645.784	8255.53
645.977	8362.03
646.17	8507.43
646.363	8124.46
646.556	8048.69
646.749	7960.63
646.942	8120.37
647.135	8110.13
647.328	8005.68
647.521	7958.58
647.714	7907.38
647.907	7911.47
648.099	7850.03
648.292	8005.68
648.485	7700.53
648.678	7667.77
648.871	7796.79
649.064	7686.2
649.256	7477.3
649.449	7456.82
649.642	7661.62
649.835	7532.6
650.027	7434.3
650.22	7458.87
650.413	7340.09
650.605	7399.48
650.798	7215.16
650.991	7258.17
651.183	7174.21
651.376	7280.7
651.568	7422.01
651.761	7147.58
651.954	7049.28
652.146	6809.67
652.339	7053.38
652.531	6948.93
652.724	6774.85
652.916	6799.43
653.109	6815.81
653.301	6793.28
653.494	6899.78
653.686	6793.28
653.879	6746.18
654.071	6682.69
654.263	6490.18
654.456	6629.45
654.648	6600.77
654.84	6457.42
655.033	6576.2
655.225	6549.57
655.417	6359.11
655.61	6383.69
655.802	6305.87
655.994	6293.58
656.186	6375.5
656.379	6234.19
656.571	6203.47
656.763	6139.98
656.955	6109.26
657.148	6174.8
657.34	6230.09
657.532	6094.93
657.724	6076.49
657.916	6101.07
658.108	6041.68
658.3	5926.99
658.492	5912.66
658.684	5865.55
658.876	5830.74
659.068	5861.46
659.26	5617.75
659.452	5918.8
659.644	5722.2
659.836	5812.31
660.028	5849.17
660.22	5627.99
660.412	5675.09
660.604	5390.42
660.796	5685.33
660.988	5439.58
661.18	5310.55
661.372	5339.23
661.563	5437.53
661.755	5339.23
661.947	5406.81
662.139	5408.86
662.331	5261.4
662.522	5314.65
662.714	5378.14
662.906	5202.01
663.097	5165.15
663.289	5134.43
663.481	5181.53
663.673	5202.01
663.864	5185.63
664.056	5013.6
664.247	5060.7
664.439	5140.57
664.631	5109.85
664.822	4986.97
665.014	4962.4
665.205	4829.28
665.397	4814.95
665.588	4816.99
665.78	4896.86
665.971	4886.62
666.163	4827.23
666.354	4816.99
666.546	4712.55
666.737	4778.08
666.929	4698.21
667.12	4667.49
667.311	4720.74
667.503	4696.16
667.694	4608.1
667.885	4743.27
668.077	4657.25
668.268	4597.86
668.459	4431.98
668.651	4440.17
668.842	4364.39
669.033	4386.92
669.224	4468.84
669.416	4528.23
669.607	4386.92
669.798	4442.21
669.989	4542.57
670.18	4464.74
670.371	4368.49
670.563	4294.76
670.754	4419.69
670.945	4274.28
671.136	4130.92
671.327	4264.04
671.518	4245.61
671.709	4257.9
671.9	4409.45
672.091	4253.8
672.282	4235.37
672.473	4198.51
672.664	4153.45
672.855	4122.73
673.046	4155.5
673.237	4182.12
673.428	4202.6
673.619	4169.84
673.809	4038.77
674	4155.5
674.191	4116.59
674.382	3860.59
674.573	3942.51
674.764	3948.65
674.954	4032.62
675.145	3985.52
675.336	3885.17
675.527	3971.18
675.717	4032.62
675.908	3948.65
676.099	3973.23
676.289	3940.46
676.48	3868.78
676.671	3889.26
676.861	3858.54
677.052	3856.5
677.243	3778.67
677.433	3856.5
677.624	3960.94
677.814	3803.25
678.005	3668.08
678.195	3807.34
678.386	3676.27
678.576	3760.24
678.767	3797.1
678.957	3684.47
679.148	3946.61
679.338	3770.48
679.529	3641.46
679.719	3737.71
679.909	3774.58
680.1	3731.57
680.29	3803.25
680.481	3737.71
680.671	3823.73
680.861	3655.79
681.052	3709.04
681.242	3747.95
681.432	3635.32
681.622	3713.14
681.813	3745.91
682.003	3594.36
682.193	3758.19
682.383	3745.91
682.573	3704.95
682.764	3649.65
682.954	3569.78
683.144	3680.37
683.334	3537.01
683.524	3696.75
683.714	3453.05
683.904	3563.64
684.094	3651.7
684.284	3539.06
684.474	3625.08
684.664	3498.1
684.854	3604.6
685.044	3526.77
685.234	3430.52
685.424	3580.02
685.614	3453.05
685.804	3477.62
685.994	3479.67
686.184	3459.19
686.374	3315.83
686.564	3498.1
686.753	3393.65
686.943	3399.8
687.133	3303.54
687.323	3446.9
687.513	3377.27
687.702	3479.67
687.892	3342.46
688.082	3379.32
688.272	3414.13
688.461	3371.13
688.651	3362.94
688.841	3373.18
689.03	3305.59
689.22	3217.53
689.41	3385.46
689.599	3293.3
689.789	3227.77
689.979	3303.54
690.168	3145.85
690.358	3287.16
690.547	3192.95
690.737	3274.87
690.926	3192.95
691.116	3268.73
691.305	3276.92
691.495	2951.29
691.684	3164.28
691.874	3190.91
692.063	3154.04
692.252	3094.65
692.442	3205.24
692.631	3043.45
692.82	3086.46
693.01	2965.63
693.199	2932.86
693.388	3016.83
693.578	2965.63
693.767	3092.6
693.956	2912.38
694.146	2943.1
694.335	2896
694.524	2904.19
694.713	2898.05
694.902	2986.11
695.092	2977.92
695.281	2869.37
695.47	2939.01
695.659	2918.53
695.848	2922.62
696.037	2969.73
696.226	2928.77
696.415	2922.62
696.604	2787.46
696.793	3010.68
696.982	2939.01
697.171	2865.28
697.36	2920.57
697.549	3065.98
697.738	2826.37
697.927	2869.37
698.116	2893.95
698.305	2867.33
698.494	2822.27
698.683	2807.94
698.872	2783.36
699.061	2855.04
699.25	2812.03
699.438	2748.54
699.627	2824.32
699.816	2818.18
700.005	2943.1
700.193	2855.04
700.382	2812.03
700.571	2754.69
700.76	2771.07
700.948	2740.35
701.137	2746.5
701.326	2697.35
701.514	2783.36
701.703	2779.26
701.892	2656.39
702.08	2885.76
702.269	2662.53
702.457	2730.11
702.646	2840.7
702.834	2783.36
703.023	2732.16
703.212	2766.98
703.4	2824.32
703.589	2764.93
703.777	2754.69
703.965	2728.07
704.154	2709.63
704.342	2762.88
704.531	2734.21
704.719	2726.02
704.907	2771.07
705.096	2732.16
705.284	2752.64
705.472	2658.43
705.661	2672.77
705.849	2812.03
706.037	2748.54
706.226	2644.1
706.414	2791.55
706.602	2734.21
706.79	2658.43
706.979	2674.82
707.167	2779.26
707.355	2750.59
707.543	2803.84
707.731	2773.12
707.919	2816.13
708.107	2674.82
708.296	2646.15
708.484	2627.71
708.672	2807.94
708.86	2742.4
709.048	2781.31
709.236	2764.93
709.424	2754.69
709.612	2744.45
709.8	2676.87
709.988	2789.5
710.176	2652.29
710.364	2756.74
710.551	2658.43
710.739	2713.73
710.927	2707.59
711.115	2719.87
711.303	2652.29
711.491	2637.95
711.679	2701.44
711.866	2748.54
712.054	2728.07
712.242	2670.72
712.43	2742.4
712.617	2742.4
712.805	2617.47
712.993	2650.24
713.181	2734.21
713.368	2789.5
713.556	2644.1
713.744	2578.56
713.931	2844.8
714.119	2797.7
714.306	2652.29
714.494	2738.3
714.682	2764.93
714.869	2721.92
715.057	2832.51
715.244	2750.59
715.432	2609.28
715.619	2758.78
715.807	2744.45
715.994	2769.02
716.182	2730.11
716.369	2805.89
716.556	2736.26
716.744	2713.73
716.931	2678.91
717.119	2687.11
717.306	2726.02
717.493	2734.21
717.681	2773.12
717.868	2705.54
718.055	2728.07
718.242	2795.65
718.43	2846.85
718.617	2648.19
718.804	2728.07
718.991	2715.78
719.179	2697.35
719.366	2701.44
719.553	2617.47
719.74	2709.63
719.927	2717.83
720.114	2623.62
720.301	2627.71
720.488	2680.96
720.676	2693.25
720.863	2738.3
721.05	2791.55
721.237	2734.21
721.424	2787.46
721.611	2742.4
721.798	2613.38
721.985	2570.37
722.172	2644.1
722.358	2717.83
722.545	2705.54
722.732	2691.2
722.919	2648.19
723.106	2766.98
723.293	2674.82
723.48	2590.85
723.667	2650.24
723.853	2584.71
724.04	2668.67
724.227	2721.92
724.414	2711.68
724.6	2558.08
724.787	2756.74
724.974	2658.43
725.161	2656.39
725.347	2633.86
725.534	2750.59
725.72	2605.19
725.907	2650.24
726.094	2670.72
726.28	2697.35
726.467	2584.71
726.653	2652.29
726.84	2640
727.027	2758.78
727.213	2498.69
727.4	2613.38
727.586	2609.28
727.773	2654.34
727.959	2537.6
728.145	2617.47
728.332	2580.61
728.518	2625.67
728.705	2658.43
728.891	2619.52
729.077	2664.58
729.264	2525.32
729.45	2615.43
729.636	2556.04
729.823	2553.99
730.009	2625.67
730.195	2525.32
730.382	2685.06
730.568	2666.63
730.754	2508.93
730.94	2601.09
731.126	2670.72
731.313	2504.84
731.499	2592.9
731.685	2502.79
731.871	2619.52
732.057	2590.85
732.243	2627.71
732.429	2642.05
732.615	2707.59
732.801	2594.95
732.987	2553.99
733.173	2490.5
733.359	2566.28
733.545	2531.46
733.731	2670.72
733.917	2588.8
734.103	2459.78
734.289	2455.69
734.475	2533.51
734.661	2576.52
734.847	2519.17
735.033	2502.79
735.219	2476.16
735.404	2396.29
735.59	2519.17
735.776	2467.97
735.962	2697.35
736.148	2527.36
736.333	2543.75
736.519	2408.58
736.705	2457.73
736.89	2459.78
737.076	2502.79
737.262	2396.29
737.447	2412.68
737.633	2341
737.819	2427.01
738.004	2390.15
738.19	2457.73
738.375	2402.44
738.561	2361.48
738.747	2394.25
738.932	2449.54
739.118	2484.36
739.303	2472.07
739.489	2322.57
739.674	2343.05
739.859	2316.42
740.045	2365.57
740.23	2328.71
740.416	2330.76
740.601	2320.52
740.786	2222.22
740.972	2302.09
741.157	2271.37
741.342	2222.22
741.528	2277.51
741.713	2341
741.898	2308.23
742.084	2246.79
742.269	2269.32
742.454	2297.99
742.639	2334.86
742.824	2193.55
743.01	2275.46
743.195	2291.85
743.38	2158.73
743.565	2144.39
743.75	2160.78
743.935	2050.19
744.12	2267.27
744.305	2152.59
744.49	2148.49
744.675	2111.63
744.86	2121.87
745.045	2203.79
745.23	2130.06
745.415	2103.43
745.6	2181.26
745.785	2162.83
745.97	2085
746.155	2101.39
746.34	2013.32
746.525	1988.75
746.71	2099.34
746.895	2105.48
747.079	1996.94
747.264	1923.21
747.449	1953.93
747.634	1904.78
747.819	2027.66
748.003	1927.31
748.188	1935.5
748.373	1835.15
748.557	1892.49
748.742	1884.3
748.927	1900.69
749.111	1767.57
749.296	1919.12
749.481	1855.63
749.665	1826.96
749.85	1779.86
750.034	1857.68
750.219	1882.25
750.404	1738.9
750.588	1810.58
750.773	1742.99
750.957	1767.57
751.141	1659.03
751.326	1640.59
751.51	1718.42
751.695	1640.59
751.879	1738.9
752.064	1745.04
752.248	1607.83
752.432	1716.37
752.617	1640.59
752.801	1677.46
752.985	1626.26
753.17	1618.07
753.354	1646.74
753.538	1628.31
753.722	1560.72
753.907	1667.22
754.091	1575.06
754.275	1534.1
754.459	1579.15
754.643	1435.8
754.828	1517.72
755.012	1536.15
755.196	1482.9
755.38	1515.67
755.564	1525.91
755.748	1466.52
755.932	1472.66
756.116	1439.89
756.3	1439.89
756.484	1421.46
756.668	1439.89
756.852	1368.21
757.036	1366.17
757.22	1378.45
757.404	1466.52
757.588	1335.45
757.772	1329.3
757.956	1231
758.14	1390.74
758.323	1390.74
758.507	1263.77
758.691	1261.72
758.875	1378.45
759.059	1276.06
759.242	1288.34
759.426	1228.95
759.61	1345.69
759.794	1323.16
759.977	1255.58
760.161	1314.97
760.345	1296.53
760.528	1206.42
760.712	1247.38
760.895	1155.23
761.079	1140.89
761.263	1167.51
761.446	1054.87
761.63	1165.46
761.813	1210.52
761.997	1093.79
762.18	1104.03
762.364	1140.89
762.547	1108.12
762.731	1177.75
762.914	1083.55
763.098	1214.62
763.281	1151.13
763.464	1126.55
763.648	1077.4
763.831	1124.51
764.015	1063.07
764.198	1116.31
764.381	1149.08
764.564	1099.93
764.748	1075.35
764.931	1044.63
765.114	1063.07
765.297	1151.13
765.481	1013.92
765.664	1032.35
765.847	1038.49
766.03	1120.41
766.213	966.81
766.397	1030.3
766.58	1003.68
766.763	1083.55
766.946	1013.92
767.129	1022.11
767.312	960.67
767.495	983.2
767.678	940.19
767.861	1015.96
768.044	1022.11
768.227	1038.49
768.41	1018.01
768.593	946.33
768.776	970.91
768.959	1038.49
769.142	948.38
769.324	903.32
769.507	940.19
769.69	960.67
769.873	874.65
770.056	882.85
770.239	938.14
770.421	911.52
770.604	897.18
770.787	940.19
770.97	936.09
771.152	893.09
771.335	938.14
771.518	932
771.7	839.84
771.883	911.52
772.066	841.89
772.248	866.46
772.431	907.42
772.613	903.32
772.796	919.71
772.978	897.18
773.161	835.74
773.343	788.64
773.526	852.13
773.708	792.73
773.891	766.11
774.073	743.58
774.256	827.55
774.438	866.46
774.621	768.16
774.803	805.02
774.985	788.64
775.168	776.35
775.35	802.97
775.532	805.02
775.715	733.34
775.897	792.73
776.079	762.02
776.261	716.96
776.444	811.17
776.626	684.19
776.808	741.54
776.99	733.34
777.173	727.2
777.355	714.91
777.537	733.34
777.719	673.95
777.901	678.05
778.083	628.9
778.265	727.2
778.447	669.86
778.629	655.52
778.811	706.72
778.993	665.76
779.175	641.18
779.357	608.42
779.539	587.94
779.721	635.04
779.903	600.23
780.085	630.95
780.267	669.86
780.449	645.28
780.631	610.47
780.812	577.7
780.994	686.24
781.176	612.51
781.358	604.32
781.54	538.79
781.721	616.61
781.903	643.23
782.085	604.32
782.267	563.36
782.448	489.64
782.63	592.03
782.812	551.07
782.993	559.27
783.175	544.93
783.357	510.11
783.538	469.16
783.72	571.55
783.901	495.78
784.083	661.66
784.264	573.6
784.446	471.2
784.627	538.79
784.809	538.79
784.99	546.98
785.172	528.55
785.353	579.75
785.535	452.77
785.716	561.31
785.897	333.99
786.079	522.4
786.26	465.06
786.441	520.35
786.623	452.77
786.804	460.96
786.985	483.49
787.167	307.37
787.348	420
787.529	469.16
787.71	463.01
787.891	438.44
788.073	415.91
788.254	350.37
788.435	528.55
788.616	454.82
788.797	389.28
788.978	407.72
789.159	342.18
789.34	354.47
789.522	360.61
789.703	440.48
789.884	401.57
790.065	452.77
790.246	401.57
790.427	383.14
790.607	479.4
790.788	333.99
790.969	452.77
791.15	452.77
791.331	342.18
791.512	340.13
791.693	383.14
791.874	362.66
792.054	407.72
792.235	366.76
792.416	360.61
792.597	272.55
792.778	456.87
792.958	385.19
793.139	297.13
793.32	321.7
793.5	331.94
793.681	368.81
793.862	440.48
794.042	325.8
794.223	333.99
794.404	276.65
794.584	258.21
794.765	268.45
794.945	233.64
795.126	381.09
795.306	391.33
795.487	389.28
795.667	342.18
795.848	340.13
796.028	243.88
796.209	252.07
796.389	278.69
796.57	309.41
796.75	313.51
796.93	350.37
797.111	354.47
797.291	299.17
797.471	329.89
797.652	262.31
797.832	329.89
798.012	321.7
798.192	260.26
798.373	260.26
798.553	237.74
798.733	321.7
798.913	268.45
799.093	295.08
799.274	243.88
799.454	288.93
799.634	350.37
799.814	270.5
799.994	303.27
800.174	256.17
800.354	186.54
800.534	215.21
800.714	276.65
800.894	207.02
801.074	235.69
801.254	227.5
801.434	305.32
801.614	225.45
801.794	178.34
801.974	782.49
802.154	241.83
802.334	276.65
802.514	301.22
802.693	260.26
802.873	276.65
803.053	260.26
803.233	260.26
803.413	241.83
803.592	223.4
803.772	196.78
803.952	301.22
804.131	196.78
804.311	243.88
804.491	280.74
804.67	223.4
804.85	256.17
805.03	229.54
805.209	213.16
805.389	235.69
805.568	221.35
805.748	321.7
805.928	211.11
806.107	247.97
806.287	166.06
806.466	153.77
806.646	225.45
806.825	135.34
807.004	188.58
807.184	209.06
807.363	282.79
807.543	202.92
807.722	188.58
807.901	272.55
808.081	219.3
808.26	141.48
808.439	157.86
808.619	229.54
808.798	231.59
808.977	202.92
809.156	176.3
809.336	178.34
809.515	243.88
809.694	182.44
809.873	159.91
810.052	137.38
810.231	268.45
810.411	190.63
810.59	247.97
810.769	239.78
810.948	231.59
811.127	174.25
811.306	121
811.485	194.73
811.664	184.49
811.843	211.11
812.022	145.58
812.201	258.21
812.38	252.07
812.559	141.48
812.737	221.35
812.916	141.48
813.095	116.9
813.274	133.29
813.453	186.54
813.632	186.54
813.811	204.97
813.989	172.2
814.168	233.64
814.347	147.62
814.526	202.92
814.704	129.19
814.883	114.86
815.062	151.72
815.24	118.95
815.419	102.57
815.598	168.1
815.776	143.53
815.955	86.19
816.133	65.71
816.312	225.45
816.49	157.86
816.669	180.39
816.847	200.87
817.026	161.96
817.204	194.73
817.383	215.21
817.561	166.06
817.74	168.1
817.918	170.15
818.097	178.34
818.275	141.48
818.453	145.58
818.632	202.92
818.81	112.81
818.988	155.82
819.167	133.29
819.345	223.4
819.523	88.23
819.701	164.01
819.879	135.34
820.058	123.05
820.236	182.44
820.414	86.19
820.592	209.06
820.77	100.52
820.948	96.43
821.127	80.04
821.305	141.48
821.483	141.48
821.661	147.62
821.839	153.77
822.017	178.34
822.195	145.58
822.373	121
822.551	129.19
822.729	116.9
822.907	86.19
823.085	178.34
823.262	143.53
823.44	53.42
823.618	80.04
823.796	116.9
823.974	100.52
824.152	47.27
824.329	49.32
824.507	98.47
824.685	223.4
824.863	112.81
825.04	96.43
825.218	178.34
825.396	80.04
825.574	75.95
825.751	139.43
825.929	157.86
826.107	73.9
826.284	41.13
826.462	133.29
826.639	88.23
826.817	43.18
826.994	34.99
827.172	121
827.349	207.02
827.527	186.54
827.704	67.75
827.882	86.19
828.059	118.95
828.237	34.99
828.414	186.54
828.591	127.14
828.769	80.04
828.946	104.62
829.124	123.05
829.301	161.96
829.478	123.05
829.655	80.04
829.833	135.34
830.01	100.52
830.187	112.81
830.364	118.95
830.542	127.14
830.719	34.99
830.896	137.38
831.073	112.81
831.25	61.61
831.427	133.29
831.604	88.23
831.782	71.85
831.959	141.48
832.136	92.33
832.313	67.75
832.49	39.08
832.667	174.25
832.844	116.9
833.021	200.87
833.198	118.95
833.374	88.23
833.551	123.05
833.728	133.29
833.905	131.24
834.082	6.31
834.259	100.52
834.436	116.9
834.612	47.27
834.789	71.85
834.966	61.61
835.143	88.23
835.319	6.31
835.496	141.48
835.673	90.28
835.85	75.95
836.026	75.95
836.203	161.96
836.38	139.43
836.556	47.27
836.733	45.23
836.909	104.62
837.086	168.1
837.262	69.8
837.439	88.23
837.616	28.84
837.792	71.85
837.968	92.33
838.145	47.27
838.321	55.47
838.498	110.76
838.674	71.85
838.851	143.53
839.027	73.9
839.203	116.9
839.38	127.14
839.556	88.23
839.732	137.38
839.909	80.04
840.085	41.13
840.261	30.89
840.437	133.29
840.614	69.8
840.79	71.85
840.966	112.81
841.142	67.75
841.318	69.8
841.494	22.7
841.671	129.19
841.847	51.37
842.023	86.19
842.199	100.52
842.375	133.29
842.551	-53.08
842.727	84.14
842.903	114.86
843.079	16.55
843.255	67.75
843.431	118.95
843.607	112.81
843.783	47.27
843.959	57.51
844.134	59.56
844.31	41.13
844.486	-5.97
844.662	24.75
844.838	16.55
845.013	94.38
845.189	143.53
845.365	43.18
845.541	90.28
845.716	30.89
845.892	86.19
846.068	63.66
846.244	8.36
846.419	100.52
846.595	110.76
846.77	30.89
846.946	127.14
847.122	10.41
847.297	104.62
847.473	88.23
847.648	55.47
847.824	98.47
847.999	45.23
848.175	82.09
848.35	90.28
848.526	55.47
848.701	102.57
848.876	82.09
849.052	53.42
849.227	84.14
849.403	14.51
849.578	94.38
849.753	-28.5
849.929	114.86
850.104	10.41
850.279	39.08
850.454	0.17
850.63	102.57
850.805	37.03
850.98	116.9
851.155	26.79
851.33	63.66
851.505	82.09
851.681	108.71
851.856	14.51
852.031	34.99
852.206	-12.12
852.381	47.27
852.556	10.41
852.731	51.37
852.906	47.27
853.081	94.38
853.256	22.7
853.431	55.47
853.606	39.08
853.781	57.51
853.956	14.51
854.131	18.6
854.305	41.13
854.48	-3.93
854.655	45.23
854.83	-26.45
855.005	-14.17
855.18	49.32
855.354	-26.45
855.529	34.99
855.704	-14.17
855.879	59.56
856.053	12.46
856.228	47.27
856.403	26.79
856.577	47.27
856.752	55.47
856.926	28.84
857.101	43.18
857.276	10.41
857.45	59.56
857.625	55.47
857.799	-8.02
857.974	-10.07
858.148	20.65
858.323	-3.93
858.497	47.27
858.672	18.6
858.846	80.04
859.02	45.23
859.195	73.9
859.369	-44.88
859.543	24.75
859.718	4.27
859.892	14.51
860.066	49.32
860.241	0.17
860.415	30.89
860.589	-57.17
860.763	49.32
860.938	12.46
861.112	67.75
861.286	12.46
861.46	121
861.634	16.55
861.808	94.38
861.982	110.76
862.157	63.66
862.331	39.08
862.505	-53.08
862.679	-22.36
862.853	26.79
863.027	-75.6
863.201	86.19
863.375	-1.88
863.549	71.85
863.722	-1.88
863.896	84.14
864.07	-18.26
864.244	59.56
864.418	80.04
864.592	86.19
864.766	-1.88
864.939	43.18
865.113	59.56
865.287	88.23
865.461	10.41
865.634	6.31
865.808	22.7
865.982	22.7
866.156	-18.26
866.329	-46.93
866.503	-14.17
866.676	16.55
866.85	6.31
867.024	22.7
867.197	75.95
867.371	37.03
867.544	55.47
867.718	20.65
867.891	32.94
868.065	-10.07
868.238	57.51
868.412	10.41
868.585	102.57
868.759	39.08
868.932	-8.02
869.105	80.04
869.279	16.55
869.452	16.55
869.625	80.04
869.799	-1.88
869.972	63.66
870.145	129.19
870.319	6.31
870.492	59.56
870.665	22.7
870.838	18.6
871.011	-34.64
871.185	-30.55
871.358	18.6
871.531	47.27
871.704	16.55
871.877	30.89
872.05	28.84
872.223	-32.6
872.396	88.23
872.569	67.75
872.742	0.17
872.915	-22.36
873.088	34.99
873.261	20.65
873.434	30.89
873.607	77.99
873.78	51.37
873.953	-16.21
874.126	43.18
874.299	-1.88
874.471	39.08
874.644	32.94
874.817	67.75
874.99	65.71
875.163	12.46
875.335	82.09
875.508	80.04
875.681	49.32
875.853	30.89
876.026	55.47
876.199	96.43
876.371	-32.6
876.544	22.7
876.717	34.99
876.889	6.31
877.062	-1.88
877.234	16.55
877.407	41.13
877.579	32.94
877.752	47.27
877.924	34.99
878.097	92.33
878.269	118.95
878.442	16.55
878.614	16.55
878.786	41.13
878.959	12.46
879.131	28.84
879.303	-30.55
879.476	39.08
879.648	26.79
879.82	34.99
879.993	10.41
880.165	-12.12
880.337	-20.31
880.509	32.94
880.681	34.99
880.854	90.28
881.026	55.47
881.198	75.95
881.37	14.51
881.542	4.27
881.714	30.89
881.886	22.7
882.058	4.27
882.23	34.99
882.402	-63.32
882.574	49.32
882.746	16.55
882.918	18.6
883.09	14.51
883.262	-26.45
883.434	43.18
883.606	28.84
883.778	34.99
883.95	41.13
884.122	82.09
884.293	32.94
884.465	28.84
884.637	18.6
884.809	-26.45
884.98	65.71
885.152	-18.26
885.324	100.52
885.496	-30.55
885.667	-3.93
885.839	10.41
886.011	96.43
886.182	22.7
886.354	49.32
886.525	10.41
886.697	63.66
886.869	34.99
887.04	67.75
887.212	96.43
887.383	20.65
887.555	-26.45
887.726	-30.55
887.897	61.61
888.069	71.85
888.24	131.24
888.412	34.99
888.583	39.08
888.754	47.27
888.926	34.99
889.097	-14.17
889.268	-1.88
889.44	10.41
889.611	12.46
889.782	41.13
889.953	-65.36
890.125	88.23
890.296	6.31
890.467	-28.5
890.638	2.22
890.809	34.99
890.98	43.18
891.151	-20.31
891.323	55.47
891.494	12.46
891.665	96.43
891.836	-5.97
892.007	75.95
892.178	24.75
892.349	-20.31
892.52	41.13
892.691	43.18
892.862	47.27
893.032	-59.22
893.203	22.7
893.374	59.56
893.545	26.79
893.716	-46.93
893.887	118.95
894.057	34.99
894.228	-18.26
894.399	10.41
894.57	4.27
894.74	-3.93
894.911	26.79
895.082	-22.36
895.253	-53.08
895.423	34.99
895.594	86.19
895.764	51.37
895.935	20.65
896.106	-1.88
896.276	12.46
896.447	49.32
896.617	37.03
896.788	10.41
896.958	28.84
897.129	-1.88
897.299	32.94
897.47	-1.88
897.64	10.41
897.81	-73.56
897.981	37.03
898.151	-12.12
898.322	2.22
898.492	80.04
898.662	14.51
898.832	118.95
899.003	-71.51
899.173	-10.07
899.343	-12.12
899.513	8.36
