Data from USB4F104151__288__10-42-21-911.txt Node

Date: Wed Mar 12 10:42:21 EDT 2025
User: louis
Spectrometer: USB4F10415
Trigger mode: 4
Integration Time (sec): 3.000000E-2
Scans to average: 1
Electric dark correction enabled: true
Nonlinearity correction enabled: false
Boxcar width: 0
XAxis mode: Wavelengths
Number of Pixels in Spectrum: 3648
>>>>>Begin Spectral Data<<<<<
178.204	-82.94
178.424	-82.94
178.644	-82.94
178.864	-68.61
179.084	-107.52
179.304	29.7
179.524	-25.6
179.744	52.22
179.964	-41.98
180.184	-15.36
180.404	23.55
180.624	-41.98
180.844	-19.46
181.064	5.12
181.283	25.6
181.503	-52.22
181.723	60.42
181.943	-50.18
182.163	130.05
182.383	21.5
182.602	35.84
182.822	35.84
183.042	56.32
183.262	54.27
183.482	23.55
183.701	31.74
183.921	111.61
184.141	5.12
184.361	72.7
184.58	60.42
184.8	60.42
185.02	19.46
185.239	37.89
185.459	95.23
185.679	64.51
185.898	-13.31
186.118	19.46
186.338	25.6
186.557	70.65
186.777	64.51
186.997	76.8
187.216	-29.7
187.436	68.61
187.655	64.51
187.875	29.7
188.095	21.5
188.314	64.51
188.534	76.8
188.753	105.47
188.973	-3.07
189.192	115.71
189.412	3.07
189.631	-27.65
189.851	97.28
190.07	-9.22
190.29	19.46
190.509	-5.12
190.729	-11.26
190.948	68.61
191.168	195.58
191.387	97.28
191.607	97.28
191.826	39.94
192.045	41.98
192.265	5.12
192.484	11.26
192.704	52.22
192.923	29.7
193.142	95.23
193.362	54.27
193.581	72.7
193.8	72.7
194.02	68.61
194.239	-11.26
194.458	31.74
194.678	68.61
194.897	37.89
195.116	13.31
195.335	64.51
195.555	25.6
195.774	29.7
195.993	95.23
196.212	50.18
196.432	3.07
196.651	60.42
196.87	11.26
197.089	128
197.308	60.42
197.528	74.75
197.747	11.26
197.966	15.36
198.185	87.04
198.404	35.84
198.623	62.46
198.842	117.76
199.062	7.17
199.281	44.03
199.5	-5.12
199.719	23.55
199.938	78.85
200.157	46.08
200.376	29.7
200.595	48.13
200.814	48.13
201.033	29.7
201.252	111.61
201.471	52.22
201.69	76.8
201.909	101.37
202.128	52.22
202.347	93.18
202.566	48.13
202.785	-39.94
203.004	109.57
203.223	132.09
203.442	48.13
203.661	80.89
203.879	13.31
204.098	89.09
204.317	3.07
204.536	31.74
204.755	39.94
204.974	23.55
205.193	21.5
205.411	97.28
205.63	48.13
205.849	-25.6
206.068	54.27
206.287	52.22
206.505	78.85
206.724	37.89
206.943	3.07
207.162	89.09
207.381	58.37
207.599	76.8
207.818	31.74
208.037	-54.27
208.255	-58.37
208.474	33.79
208.693	82.94
208.911	25.6
209.13	60.42
209.349	44.03
209.567	60.42
209.786	64.51
210.005	62.46
210.223	50.18
210.442	3.07
210.661	113.66
210.879	56.32
211.098	64.51
211.316	-13.31
211.535	142.33
211.753	76.8
211.972	84.99
212.191	15.36
212.409	56.32
212.628	101.37
212.846	17.41
213.065	48.13
213.283	103.42
213.502	21.5
213.72	19.46
213.938	62.46
214.157	7.17
214.375	68.61
214.594	9.22
214.812	-13.31
215.031	-7.17
215.249	7.17
215.467	-23.55
215.686	72.7
215.904	64.51
216.122	-5.12
216.341	54.27
216.559	33.79
216.778	113.66
216.996	25.6
217.214	11.26
217.432	-7.17
217.651	44.03
217.869	7.17
218.087	7.17
218.306	9.22
218.524	58.37
218.742	9.22
218.96	56.32
219.179	39.94
219.397	72.7
219.615	115.71
219.833	52.22
220.051	17.41
220.27	128
220.488	11.26
220.706	58.37
220.924	23.55
221.142	80.89
221.36	23.55
221.578	-52.22
221.796	87.04
222.015	62.46
222.233	-66.56
222.451	111.61
222.669	103.42
222.887	109.57
223.105	54.27
223.323	13.31
223.541	-41.98
223.759	44.03
223.977	-17.41
224.195	-3.07
224.413	82.94
224.631	23.55
224.849	-5.12
225.067	105.47
225.285	46.08
225.503	27.65
225.721	-17.41
225.939	19.46
226.157	15.36
226.375	91.13
226.592	46.08
226.81	72.7
227.028	78.85
227.246	95.23
227.464	93.18
227.682	48.13
227.9	21.5
228.117	19.46
228.335	87.04
228.553	66.56
228.771	7.17
228.989	-15.36
229.206	111.61
229.424	17.41
229.642	62.46
229.86	25.6
230.077	37.89
230.295	101.37
230.513	89.09
230.731	113.66
230.948	29.7
231.166	29.7
231.384	25.6
231.601	58.37
231.819	3.07
232.037	78.85
232.254	-9.22
232.472	56.32
232.689	58.37
232.907	44.03
233.125	-1.02
233.342	60.42
233.56	9.22
233.777	-5.12
233.995	-11.26
234.213	62.46
234.43	154.62
234.648	60.42
234.865	5.12
235.083	60.42
235.3	19.46
235.518	68.61
235.735	60.42
235.953	80.89
236.17	87.04
236.388	39.94
236.605	-29.7
236.822	58.37
237.04	134.14
237.257	125.95
237.475	41.98
237.692	76.8
237.909	70.65
238.127	-31.74
238.344	87.04
238.562	70.65
238.779	-11.26
238.996	1.02
239.214	152.57
239.431	74.75
239.648	72.7
239.865	11.26
240.083	119.81
240.3	62.46
240.517	64.51
240.735	78.85
240.952	15.36
241.169	-11.26
241.386	82.94
241.603	80.89
241.821	19.46
242.038	68.61
242.255	68.61
242.472	27.65
242.689	15.36
242.907	33.79
243.124	29.7
243.341	76.8
243.558	-13.31
243.775	89.09
243.992	46.08
244.209	89.09
244.426	123.9
244.643	27.65
244.86	111.61
245.078	84.99
245.295	56.32
245.512	62.46
245.729	72.7
245.946	19.46
246.163	72.7
246.38	33.79
246.597	-9.22
246.814	101.37
247.031	72.7
247.248	17.41
247.464	27.65
247.681	91.13
247.898	52.22
248.115	13.31
248.332	5.12
248.549	72.7
248.766	68.61
248.983	68.61
249.2	121.85
249.417	97.28
249.633	37.89
249.85	89.09
250.067	134.14
250.284	109.57
250.501	87.04
250.717	91.13
250.934	33.79
251.151	17.41
251.368	19.46
251.585	39.94
251.801	46.08
252.018	72.7
252.235	56.32
252.451	48.13
252.668	-1.02
252.885	84.99
253.102	-25.6
253.318	72.7
253.535	5.12
253.752	60.42
253.968	70.65
254.185	-37.89
254.401	3.07
254.618	97.28
254.835	84.99
255.051	132.09
255.268	46.08
255.484	44.03
255.701	64.51
255.917	48.13
256.134	31.74
256.351	7.17
256.567	13.31
256.784	15.36
257	11.26
257.217	19.46
257.433	109.57
257.65	99.33
257.866	97.28
258.082	39.94
258.299	84.99
258.515	52.22
258.732	37.89
258.948	48.13
259.165	41.98
259.381	68.61
259.597	97.28
259.814	84.99
260.03	21.5
260.246	95.23
260.463	48.13
260.679	25.6
260.895	-15.36
261.112	46.08
261.328	46.08
261.544	19.46
261.761	74.75
261.977	68.61
262.193	82.94
262.409	54.27
262.626	76.8
262.842	84.99
263.058	84.99
263.274	25.6
263.49	48.13
263.707	121.85
263.923	11.26
264.139	39.94
264.355	39.94
264.571	84.99
264.787	21.5
265.004	66.56
265.22	115.71
265.436	37.89
265.652	48.13
265.868	-33.79
266.084	29.7
266.3	35.84
266.516	5.12
266.732	140.29
266.948	62.46
267.164	-23.55
267.38	80.89
267.596	56.32
267.812	109.57
268.028	78.85
268.244	39.94
268.46	52.22
268.676	-11.26
268.892	93.18
269.108	68.61
269.324	11.26
269.54	35.84
269.756	41.98
269.972	31.74
270.188	50.18
270.403	50.18
270.619	72.7
270.835	39.94
271.051	58.37
271.267	29.7
271.483	11.26
271.698	84.99
271.914	29.7
272.13	17.41
272.346	93.18
272.562	46.08
272.777	76.8
272.993	-11.26
273.209	60.42
273.425	44.03
273.64	19.46
273.856	-1.02
274.072	5.12
274.287	-1.02
274.503	95.23
274.719	89.09
274.934	87.04
275.15	-7.17
275.366	15.36
275.581	-9.22
275.797	64.51
276.012	15.36
276.228	74.75
276.444	103.42
276.659	44.03
276.875	25.6
277.09	-25.6
277.306	5.12
277.521	72.7
277.737	48.13
277.952	54.27
278.168	46.08
278.383	44.03
278.599	39.94
278.814	93.18
279.03	46.08
279.245	44.03
279.461	56.32
279.676	56.32
279.892	-17.41
280.107	19.46
280.322	113.66
280.538	66.56
280.753	13.31
280.969	7.17
281.184	68.61
281.399	87.04
281.615	68.61
281.83	68.61
282.045	128
282.26	68.61
282.476	44.03
282.691	103.42
282.906	-3.07
283.122	15.36
283.337	25.6
283.552	11.26
283.767	121.85
283.983	101.37
284.198	27.65
284.413	70.65
284.628	15.36
284.843	84.99
285.058	74.75
285.274	66.56
285.489	91.13
285.704	84.99
285.919	19.46
286.134	37.89
286.349	70.65
286.564	35.84
286.779	101.37
286.995	68.61
287.21	-7.17
287.425	148.48
287.64	23.55
287.855	48.13
288.07	58.37
288.285	37.89
288.5	123.9
288.715	31.74
288.93	13.31
289.145	44.03
289.36	60.42
289.575	7.17
289.79	72.7
290.004	62.46
290.219	-27.65
290.434	52.22
290.649	48.13
290.864	72.7
291.079	-9.22
291.294	33.79
291.509	76.8
291.724	160.77
291.938	95.23
292.153	64.51
292.368	5.12
292.583	29.7
292.798	60.42
293.012	56.32
293.227	27.65
293.442	-31.74
293.657	60.42
293.871	111.61
294.086	64.51
294.301	93.18
294.516	31.74
294.73	-17.41
294.945	31.74
295.16	87.04
295.374	101.37
295.589	89.09
295.804	72.7
296.018	97.28
296.233	84.99
296.447	80.89
296.662	29.7
296.877	54.27
297.091	80.89
297.306	171.01
297.52	-5.12
297.735	-72.7
297.949	64.51
298.164	101.37
298.378	21.5
298.593	64.51
298.807	33.79
299.022	52.22
299.236	64.51
299.451	48.13
299.665	72.7
299.88	60.42
300.094	89.09
300.309	31.74
300.523	70.65
300.737	68.61
300.952	70.65
301.166	48.13
301.381	-1.02
301.595	-7.17
301.809	-21.5
302.024	95.23
302.238	11.26
302.452	95.23
302.667	35.84
302.881	70.65
303.095	99.33
303.309	84.99
303.524	82.94
303.738	7.17
303.952	78.85
304.166	46.08
304.381	27.65
304.595	41.98
304.809	-23.55
305.023	119.81
305.237	62.46
305.452	25.6
305.666	21.5
305.88	101.37
306.094	29.7
306.308	64.51
306.522	46.08
306.736	33.79
306.95	72.7
307.164	39.94
307.379	84.99
307.593	72.7
307.807	62.46
308.021	78.85
308.235	74.75
308.449	17.41
308.663	54.27
308.877	84.99
309.091	62.46
309.305	46.08
309.519	-5.12
309.733	93.18
309.947	48.13
310.161	93.18
310.374	162.81
310.588	33.79
310.802	17.41
311.016	74.75
311.23	56.32
311.444	7.17
311.658	37.89
311.872	117.76
312.085	66.56
312.299	23.55
312.513	121.85
312.727	64.51
312.941	41.98
313.154	52.22
313.368	123.9
313.582	68.61
313.796	78.85
314.009	44.03
314.223	27.65
314.437	58.37
314.651	25.6
314.864	35.84
315.078	17.41
315.292	35.84
315.505	58.37
315.719	97.28
315.933	-1.02
316.146	68.61
316.36	84.99
316.573	115.71
316.787	72.7
317.001	103.42
317.214	13.31
317.428	78.85
317.641	-7.17
317.855	58.37
318.068	89.09
318.282	119.81
318.495	132.09
318.709	101.37
318.922	46.08
319.136	109.57
319.349	173.05
319.563	78.85
319.776	78.85
319.99	11.26
320.203	52.22
320.417	56.32
320.63	130.05
320.843	117.76
321.057	80.89
321.27	39.94
321.483	46.08
321.697	113.66
321.91	56.32
322.124	136.19
322.337	11.26
322.55	60.42
322.763	62.46
322.977	91.13
323.19	31.74
323.403	-13.31
323.617	3.07
323.83	70.65
324.043	15.36
324.256	21.5
324.469	25.6
324.683	128
324.896	99.33
325.109	50.18
325.322	-17.41
325.535	89.09
325.748	54.27
325.962	41.98
326.175	89.09
326.388	95.23
326.601	140.29
326.814	41.98
327.027	62.46
327.24	64.51
327.453	-29.7
327.666	111.61
327.879	91.13
328.092	105.47
328.305	95.23
328.518	109.57
328.731	5.12
328.944	13.31
329.157	-3.07
329.37	48.13
329.583	87.04
329.796	117.76
330.009	21.5
330.222	64.51
330.435	113.66
330.648	33.79
330.861	97.28
331.073	50.18
331.286	123.9
331.499	136.19
331.712	11.26
331.925	70.65
332.138	46.08
332.35	74.75
332.563	-15.36
332.776	82.94
332.989	50.18
333.202	89.09
333.414	78.85
333.627	89.09
333.84	31.74
334.053	84.99
334.265	15.36
334.478	56.32
334.691	44.03
334.903	91.13
335.116	76.8
335.329	52.22
335.541	74.75
335.754	125.95
335.966	37.89
336.179	80.89
336.392	115.71
336.604	171.01
336.817	158.72
337.029	44.03
337.242	66.56
337.454	84.99
337.667	84.99
337.88	87.04
338.092	35.84
338.305	19.46
338.517	-13.31
338.729	62.46
338.942	103.42
339.154	-31.74
339.367	78.85
339.579	84.99
339.792	41.98
340.004	78.85
340.217	62.46
340.429	117.76
340.641	58.37
340.854	64.51
341.066	140.29
341.278	111.61
341.491	134.14
341.703	27.65
341.915	23.55
342.128	60.42
342.34	56.32
342.552	15.36
342.764	89.09
342.977	76.8
343.189	68.61
343.401	107.52
343.613	11.26
343.826	89.09
344.038	19.46
344.25	128
344.462	142.33
344.674	121.85
344.886	35.84
345.099	72.7
345.311	25.6
345.523	99.33
345.735	31.74
345.947	25.6
346.159	97.28
346.371	35.84
346.583	15.36
346.795	154.62
347.007	123.9
347.219	97.28
347.431	95.23
347.643	78.85
347.855	19.46
348.067	121.85
348.279	48.13
348.491	84.99
348.703	138.24
348.915	60.42
349.127	37.89
349.339	13.31
349.551	72.7
349.763	152.57
349.975	54.27
350.187	115.71
350.399	99.33
350.61	89.09
350.822	37.89
351.034	105.47
351.246	103.42
351.458	60.42
351.669	1.02
351.881	19.46
352.093	113.66
352.305	95.23
352.517	111.61
352.728	117.76
352.94	68.61
353.152	95.23
353.363	-41.98
353.575	111.61
353.787	15.36
353.999	93.18
354.21	52.22
354.422	33.79
354.633	95.23
354.845	37.89
355.057	113.66
355.268	-13.31
355.48	64.51
355.692	-39.94
355.903	39.94
356.115	74.75
356.326	31.74
356.538	70.65
356.749	193.53
356.961	107.52
357.172	56.32
357.384	60.42
357.595	66.56
357.807	23.55
358.018	48.13
358.23	21.5
358.441	48.13
358.653	107.52
358.864	31.74
359.075	27.65
359.287	136.19
359.498	31.74
359.709	27.65
359.921	130.05
360.132	93.18
360.344	113.66
360.555	87.04
360.766	56.32
360.977	35.84
361.189	91.13
361.4	105.47
361.611	64.51
361.823	95.23
362.034	89.09
362.245	72.7
362.456	95.23
362.667	56.32
362.879	25.6
363.09	70.65
363.301	109.57
363.512	113.66
363.723	93.18
363.935	48.13
364.146	158.72
364.357	19.46
364.568	109.57
364.779	35.84
364.99	64.51
365.201	11.26
365.412	84.99
365.623	105.47
365.834	60.42
366.045	125.95
366.256	48.13
366.467	70.65
366.678	87.04
366.889	35.84
367.1	76.8
367.311	52.22
367.522	113.66
367.733	60.42
367.944	27.65
368.155	103.42
368.366	54.27
368.577	89.09
368.788	17.41
368.999	-7.17
369.209	17.41
369.42	152.57
369.631	130.05
369.842	52.22
370.053	39.94
370.264	68.61
370.474	175.1
370.685	62.46
370.896	111.61
371.107	101.37
371.317	128
371.528	62.46
371.739	91.13
371.95	58.37
372.16	31.74
372.371	97.28
372.582	64.51
372.792	84.99
373.003	101.37
373.214	138.24
373.424	117.76
373.635	-15.36
373.846	130.05
374.056	80.89
374.267	72.7
374.477	84.99
374.688	21.5
374.898	82.94
375.109	50.18
375.319	91.13
375.53	146.43
375.74	76.8
375.951	80.89
376.161	76.8
376.372	84.99
376.582	39.94
376.793	35.84
377.003	95.23
377.214	50.18
377.424	46.08
377.635	199.68
377.845	87.04
378.055	117.76
378.266	-19.46
378.476	117.76
378.686	46.08
378.897	103.42
379.107	97.28
379.317	93.18
379.528	89.09
379.738	78.85
379.948	74.75
380.158	62.46
380.369	80.89
380.579	50.18
380.789	21.5
380.999	101.37
381.21	29.7
381.42	142.33
381.63	70.65
381.84	142.33
382.05	72.7
382.261	52.22
382.471	117.76
382.681	33.79
382.891	84.99
383.101	50.18
383.311	70.65
383.521	48.13
383.731	144.38
383.941	52.22
384.151	89.09
384.361	46.08
384.571	91.13
384.781	11.26
384.991	99.33
385.201	74.75
385.411	70.65
385.621	60.42
385.831	113.66
386.041	62.46
386.251	154.62
386.461	136.19
386.671	48.13
386.881	130.05
387.091	89.09
387.301	103.42
387.511	97.28
387.72	125.95
387.93	109.57
388.14	66.56
388.35	89.09
388.56	91.13
388.769	74.75
388.979	54.27
389.189	93.18
389.399	134.14
389.609	121.85
389.818	99.33
390.028	121.85
390.238	142.33
390.447	70.65
390.657	58.37
390.867	121.85
391.076	130.05
391.286	87.04
391.496	13.31
391.705	50.18
391.915	101.37
392.125	123.9
392.334	103.42
392.544	93.18
392.753	78.85
392.963	132.09
393.172	95.23
393.382	68.61
393.591	109.57
393.801	111.61
394.01	91.13
394.22	117.76
394.429	150.53
394.639	19.46
394.848	140.29
395.058	146.43
395.267	128
395.477	142.33
395.686	132.09
395.895	193.53
396.105	193.53
396.314	101.37
396.524	128
396.733	97.28
396.942	125.95
397.152	84.99
397.361	80.89
397.57	72.7
397.78	125.95
397.989	154.62
398.198	171.01
398.407	136.19
398.617	166.91
398.826	162.81
399.035	222.2
399.244	218.11
399.453	130.05
399.663	146.43
399.872	226.3
400.081	130.05
400.29	152.57
400.499	21.5
400.708	183.29
400.917	134.14
401.127	150.53
401.336	181.25
401.545	263.16
401.754	175.1
401.963	152.57
402.172	214.01
402.381	117.76
402.59	138.24
402.799	171.01
403.008	113.66
403.217	148.48
403.426	154.62
403.635	136.19
403.844	130.05
404.053	199.68
404.262	201.72
404.471	203.77
404.68	183.29
404.888	234.49
405.097	224.25
405.306	207.87
405.515	160.77
405.724	197.63
405.933	207.87
406.142	259.07
406.35	238.59
406.559	271.36
406.768	318.46
406.977	205.82
407.185	257.02
407.394	269.31
407.603	259.07
407.812	326.65
408.02	277.5
408.229	316.41
408.438	312.32
408.646	246.78
408.855	312.32
409.064	359.42
409.272	336.89
409.481	410.62
409.69	412.67
409.898	326.65
410.107	357.37
410.315	523.26
410.524	375.8
410.733	418.81
410.941	490.49
411.15	461.82
411.358	545.78
411.567	574.46
411.775	474.1
411.984	474.1
412.192	576.5
412.401	533.5
412.609	625.65
412.818	646.13
413.026	588.79
413.234	734.2
413.443	676.85
413.651	754.68
413.86	744.44
414.068	793.59
414.276	820.21
414.485	850.93
414.693	857.07
414.901	943.09
415.11	928.75
415.318	924.66
415.526	979.95
415.734	1006.58
415.943	1029.1
416.151	1045.49
416.359	1125.36
416.567	1141.74
416.776	1182.7
416.984	1299.44
417.192	1260.52
417.4	1246.19
417.608	1324.01
417.817	1336.3
418.025	1407.98
418.233	1565.67
418.441	1416.17
418.649	1580.01
418.857	1655.78
419.065	1809.38
419.273	1641.45
419.481	1721.32
419.689	1770.47
419.897	1985.51
420.105	1926.11
420.313	2085.86
420.521	2102.24
420.729	2137.06
420.937	2194.4
421.145	2292.7
421.353	2374.62
421.561	2505.69
421.769	2532.31
421.977	2579.42
422.185	2657.24
422.393	2802.65
422.601	3042.26
422.809	2915.28
423.017	2978.77
423.224	3083.22
423.432	3236.81
423.64	3199.95
423.848	3544.01
424.056	3398.6
424.263	3595.21
424.471	3675.08
424.679	3845.06
424.887	3986.37
425.094	4107.2
425.302	4174.78
425.51	4176.83
425.718	4340.67
425.925	4494.27
426.133	4570.04
426.341	4912.05
426.548	5159.86
426.756	5043.12
426.964	5047.22
427.171	5305.26
427.379	5733.29
427.586	5528.49
427.794	5886.89
428.001	6171.55
428.209	6269.86
428.417	6374.3
428.624	6785.94
428.832	6687.64
429.039	6712.22
429.247	6794.14
429.454	7365.52
429.662	7707.53
429.869	7254.93
430.076	7744.39
430.284	7662.48
430.491	7981.96
430.699	8405.89
430.906	8461.18
431.114	8534.91
431.321	8711.04
431.528	9042.81
431.736	9446.26
431.943	9988.97
432.15	9864.04
432.358	9911.14
432.565	10273.64
432.772	10390.37
432.979	10730.33
433.187	11080.53
433.394	11223.89
433.601	11881.29
433.808	11690.83
434.016	11608.91
434.223	12473.15
434.43	13089.59
434.637	12708.67
434.844	13560.63
435.052	14019.37
435.259	13865.77
435.466	13957.93
435.673	13706.03
435.88	14834.46
436.087	15426.32
436.294	15297.3
436.501	15192.86
436.708	15471.38
436.915	15973.13
437.122	16702.21
437.329	16618.24
437.537	17171.19
437.743	17554.16
437.95	17210.11
438.157	18123.5
438.364	18660.07
438.571	18926.3
438.778	18846.43
438.985	20574.92
439.192	19880.66
439.399	20607.69
439.606	19985.1
439.813	21058.24
440.02	22624.93
440.227	21856.95
440.433	21893.81
440.64	22508.2
440.847	22332.08
441.054	23163.55
441.261	24341.13
441.467	24220.3
441.674	24840.84
441.881	25688.7
442.088	25584.25
442.294	25053.83
442.501	26061.43
442.708	26583.66
442.914	27333.21
443.121	28652.11
443.328	27773.53
443.534	29839.93
443.741	29243.97
443.948	28623.44
444.154	30767.66
444.361	30566.96
444.568	30435.89
444.774	30663.21
444.981	31418.91
445.187	32010.78
445.394	33563.14
445.6	33049.1
445.807	36051.42
446.013	34431.47
446.22	35299.81
446.426	36438.48
446.633	36749.78
446.839	38064.57
447.046	36278.74
447.252	38291.9
447.459	38304.18
447.665	38330.81
447.871	40038.81
448.078	41429.38
448.284	39754.15
448.491	40479.13
448.697	42074.49
448.903	42797.43
449.11	42998.13
449.316	42164.6
449.522	42881.39
449.728	43786.6
449.935	44474.71
450.141	43962.72
450.347	45377.87
450.553	43630.95
450.76	44374.36
450.966	45500.75
451.172	45461.83
451.378	46434.62
451.584	45392.2
451.791	46328.13
451.997	46233.92
452.203	46584.12
452.409	46823.73
452.615	46457.15
452.821	44812.63
453.027	44462.43
453.233	46315.84
453.44	44773.72
453.646	45418.83
453.852	45445.45
454.058	46123.33
454.264	44523.86
454.47	45261.13
454.676	44609.88
454.882	45668.68
455.088	41820.55
455.294	42393.98
455.5	42793.33
455.705	43432.3
455.911	41742.72
456.117	40917.39
456.323	40231.32
456.529	37700.03
456.735	39592.36
456.941	38703.54
457.147	38330.81
457.352	37114.31
457.558	36395.48
457.764	36438.48
457.97	36004.31
458.176	34816.49
458.381	35131.88
458.587	33337.86
458.793	33059.34
458.999	31451.68
459.204	33700.35
459.41	32864.78
459.616	31017.51
459.821	30616.11
460.027	30569.01
460.233	30048.82
460.438	28852.81
460.644	28850.76
460.85	27576.92
461.055	27277.92
461.261	27056.74
461.466	24494.73
461.672	24519.31
461.878	26161.78
462.083	24402.57
462.289	24154.77
462.494	23816.85
462.7	22803.11
462.905	22244.01
463.111	22626.98
463.316	22917.79
463.522	22528.68
463.727	22516.39
463.932	22555.3
464.138	22512.3
464.343	22348.46
464.549	21652.15
464.754	22340.27
464.959	22327.98
465.165	21842.61
465.37	21281.47
465.575	20890.31
465.781	21363.39
465.986	21684.92
466.191	20693.7
466.397	20345.55
466.602	19419.86
466.807	20150.99
467.012	20294.35
467.218	20210.38
467.423	19704.53
467.628	20011.73
467.833	20638.41
468.038	20075.21
468.244	19458.78
468.449	20263.63
468.654	19559.13
468.859	19481.3
469.064	19235.55
469.269	18723.55
469.474	19012.32
469.679	19086.04
469.885	18399.98
470.09	18746.08
470.295	18643.68
470.5	17994.48
470.705	18307.82
470.91	18072.3
471.115	17652.47
471.32	18154.22
471.525	17801.97
471.73	17527.54
471.935	17201.91
472.139	16931.58
472.344	17044.22
472.549	16915.2
472.754	16550.66
472.959	16382.73
473.164	15878.93
473.369	15733.52
473.574	16462.6
473.778	16227.08
473.983	16079.63
474.188	15883.02
474.393	14914.33
474.598	15139.61
474.802	15309.59
475.007	15059.74
475.212	15029.02
475.417	14410.53
475.621	14551.84
475.826	14519.07
476.031	14228.26
476.235	13931.31
476.44	14158.63
476.645	13947.69
476.849	14050.09
477.054	13871.92
477.259	13620.02
477.463	13628.21
477.668	13398.84
477.872	13660.98
478.077	13306.68
478.282	12880.7
478.486	13116.22
478.691	12897.08
478.895	12702.53
479.1	12778.3
479.304	12602.18
479.509	12256.07
479.713	12530.5
479.918	12542.78
480.122	12002.12
480.326	12454.72
480.531	12294.98
480.735	12036.94
480.94	12266.31
481.144	12583.74
481.348	11774.8
481.553	12032.84
481.757	11815.76
481.961	11813.71
482.166	12088.14
482.37	12071.75
482.574	11600.72
482.778	11926.35
482.983	12094.28
483.187	11813.71
483.391	11850.57
483.595	11866.95
483.8	11572.05
484.004	11934.54
484.208	12120.9
484.412	11770.7
484.616	12000.07
484.821	12137.29
485.025	11713.36
485.229	11832.14
485.433	11713.36
485.637	11862.86
485.841	11807.56
486.045	11590.48
486.249	11871.05
486.453	11817.8
486.657	11834.19
486.861	12086.09
487.065	11586.38
487.269	11895.63
487.473	11674.45
487.677	11885.39
487.881	11983.69
488.085	11664.21
488.289	11832.14
488.493	11780.94
488.697	11889.48
488.901	12020.55
489.105	11826
489.309	12147.53
489.512	11895.63
489.716	12049.22
489.92	12051.27
490.124	12024.65
490.328	12274.5
490.531	11885.39
490.735	12135.24
490.939	12376.9
491.143	12356.42
491.346	12335.94
491.55	12553.02
491.754	12376.9
491.958	12309.32
492.161	12493.63
492.365	12604.22
492.569	12665.66
492.772	12583.74
492.976	12680
493.18	12600.13
493.383	12911.42
493.587	12804.92
493.79	13040.44
493.994	12995.39
494.197	13189.94
494.401	13255.48
494.605	13218.61
494.808	13476.66
495.012	13556.53
495.215	13421.36
495.419	13568.82
495.622	13540.15
495.825	13781.81
496.029	13855.53
496.232	13935.4
496.436	14039.85
496.639	14336.81
496.843	14252.84
497.046	14594.85
497.249	14850.85
497.453	15082.27
497.656	15016.73
497.859	15053.59
498.063	15366.93
498.266	15100.7
498.469	15389.46
498.673	15731.47
498.876	16089.87
499.079	16089.87
499.282	15930.12
499.485	16464.64
499.689	16452.36
499.892	16937.73
500.095	16870.14
500.298	17322.74
500.501	17029.88
500.705	17736.43
500.908	17955.57
501.111	17894.13
501.314	17959.66
501.517	18395.88
501.72	18350.82
501.923	18520.81
502.126	18963.17
502.329	19434.2
502.532	19366.62
502.735	19423.96
502.938	19624.66
503.141	19817.17
503.344	20091.6
503.547	20144.84
503.75	20384.46
503.953	21013.18
504.156	21134.01
504.359	21277.37
504.562	21217.98
504.765	21918.39
504.968	22090.41
505.17	22432.43
505.373	22397.61
505.576	22858.4
505.779	22938.27
505.982	23147.17
506.185	23399.07
506.387	23339.68
506.59	23921.3
506.793	24334.99
506.996	24171.15
507.198	24906.37
507.401	24717.96
507.604	25184.9
507.807	25512.57
508.009	25811.57
508.212	25936.5
508.415	26462.83
508.617	26595.95
508.82	26614.38
509.022	26446.44
509.225	27292.26
509.428	27538.01
509.63	27550.3
509.833	27642.46
510.035	28553.8
510.238	28068.44
510.44	28738.12
510.643	29125.19
510.845	29168.19
511.048	29006.41
511.25	29801.02
511.453	29995.57
511.655	30886.44
511.858	30595.63
512.06	30978.6
512.262	31255.08
512.465	31244.84
512.667	32049.69
512.87	32324.11
513.072	32254.48
513.274	32746
513.477	33276.42
513.679	33518.08
513.881	33931.77
514.084	34230.77
514.286	34071.03
514.488	34259.45
514.69	35434.98
514.893	35389.92
515.095	35398.12
515.297	35895.77
515.499	36385.24
515.701	36331.99
515.904	36567.51
516.106	37425.6
516.308	37372.36
516.51	38040
516.712	37724.61
516.914	38406.58
517.116	38855.09
517.318	39031.21
517.52	39186.86
517.722	38961.58
517.925	40067.48
518.127	40110.49
518.329	40653.2
518.531	40716.69
518.733	40960.4
518.935	41542.02
519.136	41560.45
519.338	42322.3
519.54	42441.08
519.742	42772.85
519.944	42901.87
520.146	43571.56
520.348	43430.25
520.55	43766.12
520.752	44353.88
520.954	44941.65
521.155	44695.89
521.357	45218.13
521.559	45660.49
521.761	46264.64
521.963	46035.27
522.164	46590.27
522.366	46498.11
522.568	46643.51
522.77	47235.38
522.971	48011.56
523.173	48111.91
523.375	48388.38
523.576	48232.74
523.778	48304.41
523.98	48951.57
524.181	49533.2
524.383	49131.79
524.584	49858.82
524.786	49897.73
524.988	49701.13
525.189	50327.81
525.391	50725.11
525.592	50630.91
525.794	51214.58
525.995	51339.5
526.197	51237.11
526.398	51239.15
526.6	51855.59
526.801	51673.32
527.003	52338.91
527.204	52318.43
527.406	52875.48
527.607	52365.54
527.808	52588.77
528.01	52193.51
528.211	52805.85
528.412	54014.15
528.614	53514.45
528.815	53627.09
529.016	54231.24
529.218	53463.25
529.419	53733.58
529.62	54216.9
529.822	53604.56
530.023	54259.91
530.224	54319.3
530.425	54282.44
530.626	53723.34
530.828	54001.86
531.029	54941.88
531.23	54229.19
531.431	54755.52
531.632	54624.45
531.833	55015.61
532.035	54569.15
532.236	54898.87
532.437	55279.8
532.638	54526.14
532.839	55124.15
533.04	55312.56
533.241	54806.72
533.442	55511.22
533.643	55412.91
533.844	55566.51
534.045	55367.86
534.246	55304.37
534.447	55763.12
534.648	55107.77
534.849	55683.25
535.05	55574.7
535.251	55632.05
535.451	55052.47
535.652	55705.77
535.853	55697.58
536.054	55613.62
536.255	56039.59
536.456	55234.74
536.657	56279.21
536.857	55466.16
537.058	55156.92
537.259	56291.49
537.46	55787.69
537.66	55451.83
537.861	55607.47
538.062	55259.32
538.263	55556.27
538.463	55308.47
538.664	55922.86
538.865	55726.25
539.065	55689.39
539.266	55431.35
539.466	56322.21
539.667	54792.38
539.868	56230.05
540.068	55894.19
540.269	55683.25
540.469	56019.11
540.67	55007.42
540.87	55478.45
541.071	55693.49
541.271	55533.74
541.472	55457.97
541.672	55640.24
541.873	55447.73
542.073	54776
542.274	56107.18
542.474	55095.48
542.675	54962.36
542.875	55689.39
543.075	55525.55
543.276	54710.46
543.476	56025.26
543.676	55122.1
543.877	55656.62
544.077	55644.33
544.277	55654.57
544.478	55007.42
544.678	55873.71
544.878	55193.78
545.078	55586.99
545.279	55050.42
545.479	55371.96
545.679	55345.33
545.879	55113.91
546.079	54980.79
546.28	55347.38
546.48	54862.01
546.68	55357.62
546.88	55445.68
547.08	55165.11
547.28	55322.8
547.48	54786.24
547.68	55126.2
547.88	54896.83
548.081	55273.65
548.281	55070.9
548.481	54943.93
548.681	55087.29
548.881	55347.38
549.081	55097.53
549.28	54757.56
549.48	55374
549.68	54988.98
549.88	55703.73
550.08	54120.65
550.28	54964.41
550.48	55095.48
550.68	55550.13
550.88	54739.13
551.08	55199.93
551.279	54763.71
551.479	54321.35
551.679	54792.38
551.879	54542.53
552.079	55222.45
552.278	54513.86
552.478	54706.37
552.678	55009.46
552.878	54808.76
553.077	54767.8
553.277	54423.75
553.477	55423.15
553.676	54225.09
553.876	54485.18
554.076	54522.05
554.275	54169.8
554.475	53698.76
554.674	54225.09
554.874	54309.06
555.074	54360.26
555.273	54651.07
555.473	54575.3
555.672	53766.35
555.872	54264
556.071	54190.28
556.271	54147.27
556.47	54003.91
556.67	53766.35
556.869	53323.99
557.068	54171.85
557.268	53876.94
557.467	54075.59
557.667	53700.81
557.866	54180.04
558.065	53692.62
558.265	53199.06
558.464	53154
558.663	53903.56
558.863	53072.09
559.062	54038.73
559.261	53027.03
559.461	53416.14
559.66	52697.31
559.859	53086.42
560.058	52883.67
560.258	52830.43
560.457	52316.39
560.656	52945.11
560.855	52648.16
561.054	52750.56
561.253	52310.24
561.453	52756.7
561.652	52654.3
561.851	52445.41
562.05	52408.54
562.249	51839.21
562.448	52779.23
562.647	52160.74
562.846	51912.94
563.045	52113.64
563.244	51489.01
563.443	52195.56
563.642	51056.88
563.841	51867.88
564.04	51446
564.239	52158.69
564.438	51302.64
564.637	51517.68
564.836	51702
565.035	50645.24
565.234	51075.32
565.432	50786.55
565.631	50737.4
565.83	51216.63
566.029	50548.99
566.228	50626.81
566.427	50422.01
566.625	50479.36
566.824	49897.73
567.023	50546.94
567.222	49832.2
567.42	50049.28
567.619	50127.11
567.818	49856.78
568.016	49649.93
568.215	49930.5
568.414	49707.27
568.612	49815.82
568.811	49584.4
569.01	49557.77
569.208	48881.94
569.407	49553.68
569.605	48429.34
569.804	49187.09
570.002	48484.64
570.201	48759.06
570.4	48621.85
570.598	48300.32
570.797	48206.11
570.995	48486.68
571.193	47862.05
571.392	48402.72
571.59	47575.34
571.789	47761.7
571.987	47749.42
572.186	47704.36
572.384	47206.7
572.582	47575.34
572.781	47939.88
572.979	47130.93
573.177	47305.01
573.376	47315.25
573.574	47003.95
573.772	47255.85
573.971	46846.26
574.169	46721.34
574.367	46098.75
574.565	46588.22
574.763	46416.19
574.962	46219.58
575.16	45826.37
575.358	45644.1
575.556	45336.91
575.754	46182.72
575.952	45302.09
576.151	46051.65
576.349	45551.94
576.547	45402.44
576.745	45658.44
576.943	44943.7
577.141	45125.97
577.339	45162.83
577.537	44693.85
577.735	44826.96
577.933	44241.24
578.131	45056.34
578.329	44556.63
578.527	43999.58
578.725	44409.18
578.923	44118.37
579.121	43676.01
579.319	44038.5
579.516	44065.12
579.714	43893.09
579.912	43475.3
580.11	43329.9
580.308	43379.05
580.506	43311.47
580.704	42760.56
580.901	42776.95
581.099	43520.36
581.297	43000.18
581.495	42637.69
581.692	43147.63
581.89	42631.54
582.088	42772.85
582.285	42135.93
582.483	42516.86
582.681	42015.1
582.878	41714.05
583.076	41722.24
583.274	41869.7
583.471	41615.75
583.669	41863.55
583.866	41034.13
584.064	41652.61
584.262	40839.57
584.459	41492.87
584.657	40999.31
584.854	41060.75
585.052	40049.05
585.249	41114
585.447	40454.55
585.644	40337.82
585.841	40616.34
586.039	40984.97
586.236	40339.86
586.434	39805.34
586.631	39856.54
586.828	40163.74
587.026	39584.16
587.223	39733.67
587.42	39670.18
587.618	39670.18
587.815	39465.38
588.012	39068.08
588.21	39100.84
588.407	39285.16
588.604	38631.86
588.801	38574.52
588.999	38937.01
589.196	39016.88
589.393	38658.48
589.59	38347.19
589.787	38339
589.984	38629.81
590.182	37874.11
590.379	38044.09
590.576	37939.65
590.773	37495.24
590.97	37638.59
591.167	37974.46
591.364	37142.99
591.561	37845.44
591.758	37120.46
591.955	37317.06
592.152	37401.03
592.349	36788.69
592.546	36694.48
592.743	37106.12
592.94	36329.94
593.137	36581.84
593.334	36647.38
593.531	36055.51
593.727	36573.65
593.924	36155.86
594.121	35717.6
594.318	36252.12
594.515	35590.62
594.712	36039.13
594.908	35549.67
595.105	35906.01
595.302	35271.14
595.499	35219.94
595.696	35092.97
595.892	35045.87
596.089	35133.93
596.286	35103.21
596.482	35013.1
596.679	34722.29
596.876	34712.05
597.072	34560.5
597.269	34497.01
597.466	34204.15
597.662	34058.74
597.859	34220.53
598.055	33913.34
598.252	34007.55
598.448	34257.4
598.645	33853.95
598.841	33634.81
599.038	33384.96
599.234	33513.98
599.431	33491.46
599.627	33225.22
599.824	33374.72
600.02	32600.59
600.217	33022.47
600.413	32924.17
600.609	32746
600.806	32473.62
601.002	32481.81
601.198	32354.83
601.395	32268.82
601.591	32252.44
601.787	32391.7
601.984	31984.15
602.18	32385.55
602.376	31984.15
602.572	31474.21
602.769	31896.09
602.965	31425.06
603.161	31392.29
603.357	31091.24
603.553	31621.66
603.75	31611.42
603.946	30857.77
604.142	31535.65
604.338	30814.76
604.534	30968.36
604.73	30503.47
604.926	30532.14
605.122	30569.01
605.318	30431.79
605.514	30278.19
605.71	29962.81
605.906	30188.08
606.102	30229.04
606.298	30278.19
606.494	29690.43
606.69	29649.47
606.886	30050.87
607.082	29499.97
607.278	29938.23
607.474	29133.38
607.67	29772.35
607.866	29049.41
608.062	29712.95
608.257	28883.53
608.453	29209.15
608.649	29096.52
608.845	28916.29
609.041	28871.24
609.236	29180.48
609.432	29026.89
609.628	28867.14
609.824	28803.66
610.019	28588.62
610.215	28787.27
610.411	28543.56
610.606	28428.88
610.802	28478.03
610.998	28537.42
611.193	28549.71
611.389	28054.1
611.584	28420.69
611.78	27992.66
611.976	28058.2
612.171	27980.37
612.367	27849.3
612.562	27869.78
612.758	27427.42
612.953	27085.41
613.149	27949.65
613.344	27497.05
613.539	28013.14
613.735	27329.12
613.93	27751
614.126	27632.22
614.321	27517.53
614.517	27357.79
614.712	27202.14
614.907	27173.47
615.103	27466.33
615.298	27142.75
615.493	27402.85
615.688	26692.2
615.884	27198.05
616.079	26657.39
616.274	27095.65
616.47	27056.74
616.665	26602.09
616.86	26776.17
617.055	26878.57
617.25	26624.62
617.445	26810.98
617.641	26389.1
617.836	26735.21
618.031	26243.7
618.226	26436.2
618.421	26092.15
618.616	26659.43
618.811	25711.22
619.006	26233.46
619.201	25684.6
619.396	25696.89
619.591	25444.99
619.786	25555.58
619.981	25068.16
620.176	25524.86
620.371	24773.25
620.566	25197.18
620.761	24986.24
620.956	25127.55
621.151	24613.51
621.346	24949.38
621.541	24679.05
621.735	24281.74
621.93	24414.86
622.125	24171.15
622.32	23878.29
622.515	23966.35
622.709	23874.2
622.904	23818.9
623.099	23638.68
623.294	23698.07
623.488	23280.28
623.683	23370.4
623.878	23106.21
624.072	23282.33
624.267	23007.9
624.462	22700.71
624.656	22284.97
624.851	22753.96
625.046	22459.05
625.24	22512.3
625.435	22608.55
625.629	22194.86
625.824	22012.59
626.018	21830.32
626.213	21463.74
626.407	21951.15
626.602	21396.15
626.796	21500.6
626.991	21316.28
627.185	21203.64
627.38	20964.03
627.574	21074.62
627.768	20669.12
627.963	20513.48
628.157	20316.87
628.352	20599.49
628.546	20081.36
628.74	20443.85
628.935	20019.92
629.129	20370.12
629.323	19856.08
629.517	19815.12
629.712	19929.81
629.906	19675.86
630.1	19251.93
630.294	19679.96
630.489	19325.66
630.683	19575.51
630.877	19165.92
631.071	18959.07
631.265	18809.57
631.459	18746.08
631.653	18694.88
631.848	18473.7
632.042	18389.74
632.236	18414.31
632.43	18295.53
632.624	18322.15
632.818	18017.01
633.012	18055.92
633.206	18082.54
633.4	17900.27
633.594	17613.56
633.788	17588.98
633.982	17601.27
634.176	17541.88
634.369	17349.37
634.563	17324.79
634.757	17468.15
634.951	17265.4
635.145	16931.58
635.339	17062.65
635.533	16845.57
635.726	16626.43
635.92	16591.62
636.114	16622.34
636.308	16501.51
636.501	16528.13
636.695	16534.28
636.889	16280.33
637.083	16171.79
637.276	15938.32
637.47	15971.08
637.664	16012.04
637.857	16024.33
638.051	16106.25
638.244	15891.21
638.438	15536.91
638.632	15674.13
638.825	15600.4
639.019	15280.92
639.212	15205.14
639.406	15248.15
639.599	15141.66
639.793	15026.97
639.986	14764.83
640.18	15018.78
640.373	15059.74
640.567	14461.73
640.76	14707.49
640.954	14605.09
641.147	14310.18
641.34	14267.17
641.534	14437.16
641.727	14293.8
641.92	14349.09
642.114	14007.08
642.307	13953.84
642.5	13933.36
642.694	13810.48
642.887	13876.01
643.08	13773.61
643.273	13712.17
643.467	13935.4
643.66	13585.2
643.853	13507.38
644.046	13194.04
644.239	13357.88
644.432	13046.58
644.626	13257.53
644.819	12991.29
645.012	13148.98
645.205	12950.33
645.398	13028.15
645.591	12778.3
645.784	12735.29
645.977	12440.39
646.17	12532.54
646.363	12436.29
646.556	12475.2
646.749	12559.17
646.942	12497.73
647.135	12202.82
647.328	12114.76
647.521	12344.13
647.714	12125
647.907	12088.14
648.099	12084.04
648.292	11914.06
648.485	11828.04
648.678	11807.56
648.871	11705.17
649.064	11629.39
649.256	11600.72
649.449	11656.01
649.642	11506.51
649.835	11311.96
650.027	11227.99
650.22	11203.41
650.413	11088.73
650.605	11135.83
650.798	11023.19
650.991	11168.6
651.183	10988.38
651.376	10992.47
651.568	10926.94
651.761	10881.88
651.954	10623.84
652.146	10697.56
652.339	10689.37
652.531	10754.91
652.724	10451.81
652.916	10384.23
653.109	10263.4
653.301	10513.25
653.494	10355.55
653.686	10183.52
653.879	10300.26
654.071	10281.83
654.263	10158.95
654.456	10105.7
654.648	10025.83
654.84	9913.19
655.033	9937.77
655.225	9741.16
655.417	9749.36
655.61	9833.32
655.802	9642.86
655.994	9622.38
656.186	9802.6
656.379	9562.99
656.571	9583.47
656.763	9407.34
656.955	9612.14
657.148	9380.72
657.34	9263.99
657.532	9081.72
657.724	9145.2
657.916	9368.43
658.108	9085.81
658.3	9048.95
658.492	9063.29
658.684	8936.31
658.876	8921.98
659.068	8768.38
659.26	8833.91
659.452	8684.41
659.644	8723.32
659.836	8700.8
660.028	8790.91
660.22	8373.12
660.412	8432.51
660.604	8328.06
660.796	8436.61
660.988	8551.29
661.18	8209.28
661.372	8184.71
661.563	8280.96
661.755	8360.83
661.947	8342.4
662.139	8037.25
662.331	8162.18
662.522	7914.38
662.714	8049.54
662.906	8016.77
663.097	7805.83
663.289	7861.13
663.481	7908.23
663.673	7928.71
663.864	7748.49
664.056	7541.64
664.247	7699.34
664.439	7463.82
664.631	7523.21
664.822	7469.97
665.014	7631.76
665.205	7572.36
665.397	7594.89
665.588	7598.99
665.78	7486.35
665.971	7424.91
666.163	7306.13
666.354	7228.31
666.546	7164.82
666.737	7181.2
666.929	7254.93
667.12	7125.91
667.311	7132.05
667.503	6984.6
667.694	7168.91
667.885	7011.22
668.077	7138.2
668.268	6865.82
668.459	7175.06
668.651	6900.63
668.842	6900.63
669.033	6833.05
669.224	6579.1
669.416	6982.55
669.607	6624.15
669.798	6615.96
669.989	6767.51
670.18	6697.88
670.371	6650.78
670.563	6519.71
670.754	6615.96
670.945	6577.05
671.136	6644.63
671.327	6493.08
671.518	6554.52
671.709	6417.31
671.9	6462.37
672.091	6478.75
672.282	6435.74
672.473	6388.64
672.664	6433.69
672.855	6146.98
673.046	6343.58
673.237	6243.23
673.428	6216.61
673.619	6359.97
673.809	6077.35
674	6198.18
674.191	6241.18
674.382	6155.17
674.573	6144.93
674.764	5956.52
674.954	6054.82
675.145	6044.58
675.336	6069.16
675.527	5899.17
675.717	6146.98
675.908	6013.86
676.099	5899.17
676.289	5991.33
676.48	5966.76
676.671	5938.09
676.861	5962.66
677.052	5917.61
677.243	5895.08
677.433	5774.25
677.624	5837.73
677.814	5823.4
678.005	5903.27
678.195	5862.31
678.386	5755.82
678.576	5768.1
678.767	5667.75
678.957	5692.33
679.148	5727.14
679.338	5817.26
679.529	5786.54
679.719	5647.27
679.909	5716.9
680.1	5688.23
680.29	5682.09
680.481	5733.29
680.671	5643.18
680.861	5528.49
681.052	5688.23
681.242	5553.07
681.432	5465
681.622	5563.31
681.813	5487.53
682.003	5444.52
682.193	5571.5
682.383	5647.27
682.573	5546.92
682.764	5471.15
682.954	5608.36
683.144	5469.1
683.334	5436.33
683.524	5475.24
683.714	5387.18
683.904	5432.24
684.094	5338.03
684.284	5528.49
684.474	5258.16
684.664	5229.49
684.854	5333.93
685.044	5358.51
685.234	5299.12
685.424	5245.87
685.614	5129.14
685.804	5358.51
685.994	5247.92
686.184	5288.88
686.374	5094.32
686.564	5151.67
686.753	5241.78
686.943	5096.37
687.133	5184.43
687.323	5073.84
687.513	4963.25
687.702	5094.32
687.892	5016.5
688.082	5057.46
688.272	4887.48
688.461	4959.16
688.651	4985.78
688.841	4922.29
689.03	4922.29
689.22	4910.01
689.41	4772.79
689.599	4950.96
689.789	4932.53
689.979	4807.61
690.168	4719.54
690.358	4723.64
690.547	4647.87
690.737	4649.91
690.926	4594.62
691.116	4606.91
691.305	4656.06
691.495	4713.4
691.684	4649.91
691.874	4662.2
692.063	4459.45
692.252	4522.94
692.442	4649.91
692.631	4572.09
692.82	4486.08
693.01	4418.49
693.199	4434.88
693.388	4451.26
693.578	4385.73
693.767	4453.31
693.956	4418.49
694.146	4359.1
694.335	4426.68
694.524	4434.88
694.713	4524.99
694.902	4338.62
695.092	4287.42
695.281	4185.02
695.47	4240.32
695.659	4285.37
695.848	4187.07
696.037	4230.08
696.226	4232.13
696.415	4215.74
696.604	4201.41
696.793	4160.45
696.982	4201.41
697.171	4168.64
697.36	4242.37
697.549	4043.71
697.738	4111.3
697.927	3914.69
698.116	4099.01
698.305	4103.11
698.494	4135.87
698.683	4056
698.872	4148.16
699.061	4156.35
699.25	4045.76
699.438	4172.74
699.627	4033.47
699.816	4137.92
700.005	4162.5
700.193	4017.09
700.382	3955.65
700.571	4070.34
700.76	4023.23
700.948	3998.66
701.137	3984.32
701.326	4033.47
701.514	4019.14
701.703	3982.28
701.892	3828.68
702.08	4051.91
702.269	3978.18
702.457	4002.75
702.646	4086.72
702.834	3947.46
703.023	3941.32
703.212	4139.97
703.4	3916.74
703.589	4021.19
703.777	3881.92
703.965	3793.86
704.154	3982.28
704.342	3855.3
704.531	3931.08
704.719	3918.79
704.907	3881.92
705.096	3754.95
705.284	3791.81
705.472	3820.49
705.661	3871.68
705.849	3871.68
706.037	3972.04
706.226	3806.15
706.414	3826.63
706.602	3933.12
706.79	3886.02
706.979	3836.87
707.167	3800.01
707.355	3908.55
707.543	3904.45
707.731	3916.74
707.919	3859.4
708.107	3916.74
708.296	3718.09
708.484	3820.49
708.672	3683.27
708.86	3724.23
709.048	3871.68
709.236	3888.07
709.424	3795.91
709.612	3656.65
709.8	3615.69
709.988	3591.11
710.176	3777.48
710.364	3713.99
710.551	3810.25
710.739	3795.91
710.927	3869.64
711.115	3734.47
711.303	3726.28
711.491	3734.47
711.679	3765.19
711.866	3636.17
712.054	3754.95
712.242	3861.45
712.43	3711.94
712.617	3558.35
712.805	3875.78
712.993	3734.47
713.181	3800.01
713.368	3693.51
713.556	3642.31
713.744	3648.46
713.931	3656.65
714.119	3734.47
714.306	3687.37
714.494	3785.67
714.682	3732.42
714.869	3685.32
715.057	3771.33
715.244	3574.73
715.432	3838.92
715.619	3759.05
715.807	3593.16
715.994	3867.59
716.182	3687.37
716.369	3763.14
716.556	3744.71
716.744	3587.02
716.931	3695.56
717.119	3730.38
717.306	3816.39
717.493	3517.39
717.681	3625.93
717.868	3703.75
718.055	3759.05
718.242	3773.38
718.43	3621.83
718.617	3765.19
718.804	3722.18
718.991	3742.66
719.179	3660.74
719.366	3722.18
719.553	3816.39
719.74	3689.42
719.927	3562.44
720.114	3617.74
720.301	3771.33
720.488	3636.17
720.676	3718.09
720.863	3550.15
721.05	3511.24
721.237	3621.83
721.424	3611.59
721.611	3673.03
721.798	3630.02
721.985	3470.28
722.172	3650.5
722.358	3552.2
722.545	3564.49
722.732	3605.45
722.919	3476.43
723.106	3488.71
723.293	3591.11
723.48	3541.96
723.667	3484.62
723.853	3574.73
724.04	3617.74
724.227	3527.63
724.414	3691.46
724.6	3374.03
724.787	3564.49
724.974	3501
725.161	3605.45
725.347	3519.43
725.534	3548.11
725.72	3435.47
725.907	3541.96
726.094	3664.84
726.28	3458
726.467	3365.84
726.653	3515.34
726.84	3429.32
727.027	3470.28
727.213	3494.86
727.4	3498.95
727.586	3505.1
727.773	3468.24
727.959	3458
728.145	3460.04
728.332	3439.56
728.518	3488.71
728.705	3394.51
728.891	3464.14
729.077	3369.93
729.264	3494.86
729.45	3439.56
729.636	3601.35
729.823	3347.4
730.009	3437.52
730.195	3394.51
730.382	3392.46
730.568	3396.56
730.754	3460.04
730.94	3386.32
731.126	3584.97
731.313	3417.04
731.499	3496.91
731.685	3369.93
731.871	3312.59
732.057	3328.97
732.243	3331.02
732.429	3388.36
732.615	3283.92
732.801	3308.49
732.987	3279.82
733.173	3224.53
733.359	3347.4
733.545	3451.85
733.731	3281.87
733.917	3267.53
734.103	3400.65
734.289	3269.58
734.475	3339.21
734.661	3234.77
734.847	3283.92
735.033	3242.96
735.219	3306.45
735.404	3353.55
735.59	3271.63
735.776	3300.3
735.962	3240.91
736.148	3249.1
736.333	3312.59
736.519	3220.43
736.705	3333.07
736.89	3228.62
737.076	3263.44
737.262	3216.33
737.447	3115.98
737.633	3257.29
737.819	3222.48
738.004	3148.75
738.19	3087.31
738.375	3161.04
738.561	3257.29
738.747	3304.4
738.932	3025.87
739.118	3253.2
739.303	3085.26
739.489	3126.22
739.674	3075.03
739.859	3140.56
740.045	3025.87
740.23	3189.71
740.416	2896.85
740.601	3107.79
740.786	3005.39
740.972	2978.77
741.157	3003.35
741.342	2948.05
741.528	3042.26
741.713	3034.07
741.898	3107.79
742.084	3038.16
742.269	2960.34
742.454	2925.52
742.639	2923.48
742.824	2989.01
743.01	2915.28
743.195	3027.92
743.38	2929.62
743.565	2859.99
743.75	2802.65
743.935	2792.41
744.12	2921.43
744.305	2882.52
744.49	2874.32
744.675	2753.49
744.86	2749.4
745.045	2814.93
745.23	2790.36
745.415	2681.82
745.6	2759.64
745.785	2759.64
745.97	2876.37
746.155	2687.96
746.34	2708.44
746.525	2632.66
746.71	2659.29
746.895	2606.04
747.079	2567.13
747.264	2636.76
747.449	2743.25
747.634	2649.05
747.819	2513.88
748.003	2485.21
748.188	2511.83
748.373	2507.74
748.557	2528.22
748.742	2442.2
748.927	2505.69
749.111	2575.32
749.296	2405.34
749.481	2411.48
749.665	2442.2
749.85	2272.22
750.034	2399.2
750.219	2423.77
750.404	2304.99
750.588	2317.28
750.773	2251.74
750.957	2235.36
751.141	2241.5
751.326	2241.5
751.51	2261.98
751.695	2223.07
751.879	2257.89
752.064	2147.3
752.248	2184.16
752.432	2198.49
752.617	2073.57
752.801	2171.87
752.985	2069.47
753.17	1936.35
753.354	2104.29
753.538	1989.6
753.722	1999.84
753.907	1981.41
754.091	2018.27
754.275	1975.27
754.459	1979.36
754.643	1930.21
754.828	1893.35
755.012	1858.53
755.196	2040.8
755.38	1887.2
755.564	1844.2
755.748	1889.25
755.932	1825.76
756.116	1891.3
756.3	1819.62
756.484	1895.4
756.668	1829.86
756.852	1745.89
757.036	1821.67
757.22	1758.18
757.404	1952.74
757.588	1698.79
757.772	1670.12
757.956	1838.05
758.14	1676.26
758.323	1719.27
758.507	1711.08
758.691	1645.54
758.875	1780.71
759.059	1686.5
759.242	1702.89
759.426	1653.73
759.61	1588.2
759.794	1661.93
759.977	1776.61
760.161	1743.85
760.345	1563.62
760.528	1678.31
760.712	1473.51
760.895	1606.63
761.079	1514.47
761.263	1563.62
761.446	1506.28
761.63	1493.99
761.813	1514.47
761.997	1481.71
762.18	1491.95
762.364	1520.62
762.547	1547.24
762.731	1493.99
762.914	1461.23
763.098	1479.66
763.281	1522.66
763.464	1491.95
763.648	1532.9
763.831	1405.93
764.015	1463.27
764.198	1414.12
764.381	1410.03
764.564	1377.26
764.748	1342.44
764.931	1457.13
765.114	1416.17
765.297	1397.74
765.481	1387.5
765.664	1395.69
765.847	1407.98
766.03	1434.6
766.213	1379.31
766.397	1426.41
766.58	1336.3
766.763	1354.73
766.946	1371.12
767.129	1293.29
767.312	1274.86
767.495	1362.92
767.678	1352.68
767.861	1328.11
768.044	1350.64
768.227	1309.68
768.41	1248.24
768.593	1203.18
768.776	1297.39
768.959	1264.62
769.142	1291.24
769.324	1293.29
769.507	1324.01
769.69	1244.14
769.873	1223.66
770.056	1324.01
770.239	1244.14
770.421	1285.1
770.604	1307.63
770.787	1184.75
770.97	1184.75
771.152	1209.33
771.335	1137.65
771.518	1192.94
771.7	1147.89
771.883	1203.18
772.066	1117.17
772.248	1115.12
772.431	1068.02
772.613	1113.07
772.796	1043.44
772.978	1072.11
773.161	1170.41
773.343	1068.02
773.526	1029.1
773.708	1113.07
773.891	1031.15
774.073	1020.91
774.256	1088.5
774.438	1022.96
774.621	1068.02
774.803	1047.54
774.985	963.57
775.168	1121.26
775.35	1133.55
775.532	1020.91
775.715	986.1
775.897	1002.48
776.079	994.29
776.261	1025.01
776.444	920.56
776.626	904.18
776.808	955.38
776.99	1010.67
777.173	1055.73
777.355	912.37
777.537	973.81
777.719	924.66
777.901	863.22
778.083	986.1
778.265	930.8
778.447	967.67
778.629	826.36
778.811	910.32
778.993	859.12
779.175	879.6
779.357	826.36
779.539	898.03
779.721	785.4
779.903	867.31
780.085	809.97
780.267	844.79
780.449	818.16
780.631	881.65
780.812	750.58
780.994	793.59
781.176	818.16
781.358	758.77
781.54	828.4
781.721	809.97
781.903	766.96
782.085	740.34
782.267	809.97
782.448	728.05
782.63	683
782.812	723.96
782.993	752.63
783.175	754.68
783.357	629.75
783.538	721.91
783.72	660.47
783.901	703.48
784.083	660.47
784.264	654.33
784.446	631.8
784.627	678.9
784.809	691.19
784.99	584.7
785.172	699.38
785.353	603.13
785.535	680.95
785.716	744.44
785.897	652.28
786.079	635.89
786.26	664.57
786.441	639.99
786.623	633.85
786.804	584.7
786.985	576.5
787.167	572.41
787.348	560.12
787.529	508.92
787.71	588.79
787.891	564.22
788.073	558.07
788.254	578.55
788.435	594.93
788.616	543.74
788.797	517.11
788.978	558.07
789.159	539.64
789.34	580.6
789.522	578.55
789.703	449.53
789.884	584.7
790.065	531.45
790.246	590.84
790.427	490.49
790.607	615.41
790.788	482.3
790.969	506.87
791.15	490.49
791.331	455.67
791.512	531.45
791.693	500.73
791.874	455.67
792.054	527.35
792.235	439.29
792.416	498.68
792.597	461.82
792.778	424.95
792.958	457.72
793.139	410.62
793.32	453.63
793.5	396.28
793.681	510.97
793.862	433.15
794.042	519.16
794.223	476.15
794.404	459.77
794.584	422.91
794.765	437.24
794.945	506.87
795.126	390.14
795.306	422.91
795.487	338.94
795.667	406.52
795.848	433.15
796.028	392.19
796.209	429.05
796.389	375.8
796.57	412.67
796.75	420.86
796.93	340.99
797.111	371.71
797.291	408.57
797.471	373.75
797.652	295.93
797.832	416.76
798.012	338.94
798.192	359.42
798.373	336.89
798.553	390.14
798.733	369.66
798.913	418.81
799.093	406.52
799.274	265.21
799.454	392.19
799.634	402.43
799.814	443.39
799.994	316.41
800.174	408.57
800.354	371.71
800.534	318.46
800.714	363.51
800.894	345.08
801.074	322.56
801.254	418.81
801.434	357.37
801.614	322.56
801.794	244.73
801.974	955.38
802.154	318.46
802.334	263.16
802.514	338.94
802.693	359.42
802.873	345.08
803.053	273.4
803.233	318.46
803.413	279.55
803.592	281.6
803.772	273.4
803.952	308.22
804.131	271.36
804.311	222.2
804.491	332.79
804.67	261.12
804.85	310.27
805.03	293.88
805.209	300.03
805.389	310.27
805.568	310.27
805.748	242.68
805.928	345.08
806.107	310.27
806.287	375.8
806.466	238.59
806.646	302.08
806.825	302.08
807.004	316.41
807.184	175.1
807.363	281.6
807.543	273.4
807.722	271.36
807.901	242.68
808.081	269.31
808.26	201.72
808.439	267.26
808.619	271.36
808.798	230.4
808.977	357.37
809.156	314.36
809.336	183.29
809.515	271.36
809.694	220.16
809.873	222.2
810.052	351.23
810.231	304.12
810.411	189.44
810.59	308.22
810.769	228.35
810.948	306.17
811.127	187.39
811.306	240.64
811.485	269.31
811.664	252.92
811.843	238.59
812.022	236.54
812.201	244.73
812.38	191.49
812.559	166.91
812.737	261.12
812.916	252.92
813.095	203.77
813.274	173.05
813.453	209.92
813.632	267.26
813.811	293.88
813.989	259.07
814.168	214.01
814.347	187.39
814.526	183.29
814.704	267.26
814.883	265.21
815.062	146.43
815.24	214.01
815.419	130.05
815.598	269.31
815.776	142.33
815.955	203.77
816.133	148.48
816.312	232.44
816.49	160.77
816.669	250.88
816.847	297.98
817.026	220.16
817.204	240.64
817.383	173.05
817.561	158.72
817.74	220.16
817.918	228.35
818.097	201.72
818.275	154.62
818.453	222.2
818.632	156.67
818.81	242.68
818.988	175.1
819.167	138.24
819.345	183.29
819.523	195.58
819.701	220.16
819.879	244.73
820.058	195.58
820.236	144.38
820.414	185.34
820.592	281.6
820.77	214.01
820.948	240.64
821.127	175.1
821.305	187.39
821.483	207.87
821.661	248.83
821.839	228.35
822.017	144.38
822.195	150.53
822.373	166.91
822.551	138.24
822.729	230.4
822.907	148.48
823.085	175.1
823.262	191.49
823.44	140.29
823.618	173.05
823.796	185.34
823.974	132.09
824.152	216.06
824.329	177.15
824.507	179.2
824.685	197.63
824.863	179.2
825.04	125.95
825.218	171.01
825.396	248.83
825.574	148.48
825.751	146.43
825.929	195.58
826.107	119.81
826.284	236.54
826.462	158.72
826.639	177.15
826.817	166.91
826.994	164.86
827.172	175.1
827.349	119.81
827.527	138.24
827.704	121.85
827.882	113.66
828.059	154.62
828.237	162.81
828.414	187.39
828.591	48.13
828.769	97.28
828.946	103.42
829.124	80.89
829.301	209.92
829.478	191.49
829.655	144.38
829.833	158.72
830.01	89.09
830.187	211.96
830.364	195.58
830.542	166.91
830.719	224.25
830.896	175.1
831.073	130.05
831.25	199.68
831.427	177.15
831.604	218.11
831.782	37.89
831.959	140.29
832.136	54.27
832.313	132.09
832.49	156.67
832.667	222.2
832.844	76.8
833.021	181.25
833.198	128
833.374	117.76
833.551	80.89
833.728	41.98
833.905	130.05
834.082	29.7
834.259	142.33
834.436	177.15
834.612	87.04
834.789	99.33
834.966	48.13
835.143	146.43
835.319	148.48
835.496	68.61
835.673	103.42
835.85	78.85
836.026	148.48
836.203	148.48
836.38	195.58
836.556	25.6
836.733	52.22
836.909	175.1
837.086	121.85
837.262	68.61
837.439	66.56
837.616	115.71
837.792	64.51
837.968	37.89
838.145	89.09
838.321	97.28
838.498	101.37
838.674	113.66
838.851	62.46
839.027	13.31
839.203	105.47
839.38	173.05
839.556	84.99
839.732	111.61
839.909	87.04
840.085	31.74
840.261	39.94
840.437	64.51
840.614	13.31
840.79	138.24
840.966	144.38
841.142	125.95
841.318	103.42
841.494	62.46
841.671	84.99
841.847	54.27
842.023	31.74
842.199	140.29
842.375	130.05
842.551	56.32
842.727	146.43
842.903	111.61
843.079	3.07
843.255	105.47
843.431	37.89
843.607	109.57
843.783	72.7
843.959	70.65
844.134	46.08
844.31	74.75
844.486	25.6
844.662	70.65
844.838	101.37
845.013	132.09
845.189	166.91
845.365	95.23
845.541	84.99
845.716	95.23
845.892	136.19
846.068	72.7
846.244	74.75
846.419	109.57
846.595	87.04
846.77	101.37
846.946	130.05
847.122	29.7
847.297	-17.41
847.473	99.33
847.648	33.79
847.824	44.03
847.999	119.81
848.175	119.81
848.35	50.18
848.526	95.23
848.701	76.8
848.876	130.05
849.052	117.76
849.227	105.47
849.403	-9.22
849.578	72.7
849.753	70.65
849.929	46.08
850.104	37.89
850.279	7.17
850.454	142.33
850.63	72.7
850.805	17.41
850.98	80.89
851.155	84.99
851.33	52.22
851.505	-48.13
851.681	80.89
851.856	78.85
852.031	60.42
852.206	64.51
852.381	1.02
852.556	78.85
852.731	78.85
852.906	148.48
853.081	11.26
853.256	48.13
853.431	-9.22
853.606	-3.07
853.781	52.22
853.956	35.84
854.131	39.94
854.305	113.66
854.48	13.31
854.655	52.22
854.83	41.98
855.005	29.7
855.18	121.85
855.354	60.42
855.529	99.33
855.704	60.42
855.879	140.29
856.053	50.18
856.228	27.65
856.403	48.13
856.577	50.18
856.752	11.26
856.926	64.51
857.101	107.52
857.276	60.42
857.45	95.23
857.625	19.46
857.799	52.22
857.974	115.71
858.148	-27.65
858.323	68.61
858.497	136.19
858.672	64.51
858.846	54.27
859.02	68.61
859.195	142.33
859.369	101.37
859.543	66.56
859.718	21.5
859.892	68.61
860.066	19.46
860.241	84.99
860.415	64.51
860.589	17.41
860.763	78.85
860.938	91.13
861.112	-37.89
861.286	19.46
861.46	54.27
861.634	31.74
861.808	19.46
861.982	11.26
862.157	33.79
862.331	29.7
862.505	48.13
862.679	19.46
862.853	95.23
863.027	82.94
863.201	121.85
863.375	37.89
863.549	146.43
863.722	87.04
863.896	31.74
864.07	23.55
864.244	21.5
864.418	33.79
864.592	80.89
864.766	52.22
864.939	105.47
865.113	70.65
865.287	62.46
865.461	-11.26
865.634	58.37
865.808	-3.07
865.982	48.13
866.156	29.7
866.329	-7.17
866.503	9.22
866.676	58.37
866.85	35.84
867.024	29.7
867.197	19.46
867.371	19.46
867.544	121.85
867.718	15.36
867.891	68.61
868.065	62.46
868.238	-7.17
868.412	80.89
868.585	46.08
868.759	-48.13
868.932	29.7
869.105	-31.74
869.279	11.26
869.452	111.61
869.625	5.12
869.799	84.99
869.972	-68.61
870.145	7.17
870.319	23.55
870.492	41.98
870.665	48.13
870.838	33.79
871.011	15.36
871.185	91.13
871.358	11.26
871.531	25.6
871.704	-3.07
871.877	19.46
872.05	11.26
872.223	39.94
872.396	48.13
872.569	39.94
872.742	39.94
872.915	37.89
873.088	19.46
873.261	3.07
873.434	35.84
873.607	121.85
873.78	39.94
873.953	103.42
874.126	23.55
874.299	70.65
874.471	50.18
874.644	-29.7
874.817	13.31
874.99	54.27
875.163	52.22
875.335	103.42
875.508	74.75
875.681	48.13
875.853	-25.6
876.026	35.84
876.199	29.7
876.371	48.13
876.544	5.12
876.717	52.22
876.889	27.65
877.062	5.12
877.234	-76.8
877.407	-33.79
877.579	19.46
877.752	31.74
877.924	72.7
878.097	68.61
878.269	-29.7
878.442	60.42
878.614	60.42
878.786	23.55
878.959	23.55
879.131	7.17
879.303	9.22
879.476	-27.65
879.648	31.74
879.82	-9.22
879.993	-13.31
880.165	29.7
880.337	19.46
880.509	48.13
880.681	-25.6
880.854	-7.17
881.026	117.76
881.198	31.74
881.37	25.6
881.542	29.7
881.714	7.17
881.886	68.61
882.058	87.04
882.23	82.94
882.402	-70.65
882.574	46.08
882.746	19.46
882.918	74.75
883.09	68.61
883.262	13.31
883.434	89.09
883.606	35.84
883.778	70.65
883.95	93.18
884.122	48.13
884.293	41.98
884.465	19.46
884.637	89.09
884.809	-3.07
884.98	91.13
885.152	-44.03
885.324	52.22
885.496	37.89
885.667	9.22
885.839	-23.55
886.011	105.47
886.182	54.27
886.354	78.85
886.525	64.51
886.697	54.27
886.869	-123.9
887.04	37.89
887.212	25.6
887.383	99.33
887.555	60.42
887.726	48.13
887.897	-9.22
888.069	11.26
888.24	-17.41
888.412	91.13
888.583	52.22
888.754	105.47
888.926	-41.98
889.097	7.17
889.268	-1.02
889.44	39.94
889.611	62.46
889.782	52.22
889.953	-35.84
890.125	64.51
890.296	-5.12
890.467	23.55
890.638	27.65
890.809	19.46
890.98	-68.61
891.151	95.23
891.323	97.28
891.494	31.74
891.665	11.26
891.836	68.61
892.007	39.94
892.178	50.18
892.349	48.13
892.52	35.84
892.691	1.02
892.862	17.41
893.032	1.02
893.203	-7.17
893.374	48.13
893.545	-5.12
893.716	46.08
893.887	35.84
894.057	105.47
894.228	74.75
894.399	-33.79
894.57	93.18
894.74	15.36
894.911	31.74
895.082	3.07
895.253	80.89
895.423	-9.22
895.594	48.13
895.764	-9.22
895.935	58.37
896.106	39.94
896.276	72.7
896.447	-25.6
896.617	46.08
896.788	-5.12
896.958	50.18
897.129	31.74
897.299	-56.32
897.47	39.94
897.64	80.89
897.81	66.56
897.981	-9.22
898.151	19.46
898.322	-56.32
898.492	89.09
898.662	-9.22
898.832	60.42
899.003	-27.65
899.173	-1.02
899.343	1.02
899.513	11.26
