Data from USB4F104151__64__10-23-59-053.txt Node

Date: Wed Mar 12 10:23:59 EDT 2025
User: louis
Spectrometer: USB4F10415
Trigger mode: 4
Integration Time (sec): 3.000000E-2
Scans to average: 1
Electric dark correction enabled: true
Nonlinearity correction enabled: false
Boxcar width: 0
XAxis mode: Wavelengths
Number of Pixels in Spectrum: 3648
>>>>>Begin Spectral Data<<<<<
178.204	-66.9
178.424	-66.9
178.644	-66.9
178.864	-130.39
179.084	-136.53
179.304	-19.8
179.524	-30.04
179.744	96.94
179.964	33.45
180.184	41.64
180.404	68.27
180.624	-48.47
180.844	-54.61
181.064	-38.23
181.283	-30.04
181.503	21.16
181.723	-40.28
181.943	10.92
182.163	115.37
182.383	74.41
182.602	47.79
182.822	23.21
183.042	-1.37
183.262	58.03
183.482	25.26
183.701	64.17
183.921	-7.51
184.141	45.74
184.361	21.16
184.58	-48.47
184.8	109.22
185.02	10.92
185.239	-7.51
185.459	80.55
185.679	10.92
185.898	35.5
186.118	64.17
186.338	80.55
186.557	96.94
186.777	33.45
186.997	-11.61
187.216	33.45
187.436	21.16
187.655	68.27
187.875	51.88
188.095	43.69
188.314	72.36
188.534	90.79
188.753	2.73
188.973	4.78
189.192	107.18
189.412	10.92
189.631	43.69
189.851	23.21
190.07	80.55
190.29	6.83
190.509	15.02
190.729	64.17
190.948	19.11
191.168	148.14
191.387	76.46
191.607	-17.75
191.826	8.87
192.045	41.64
192.265	107.18
192.484	96.94
192.704	55.98
192.923	-73.04
193.142	21.16
193.362	39.59
193.581	127.66
193.8	17.07
194.02	55.98
194.239	-3.41
194.458	96.94
194.678	-13.65
194.897	111.27
195.116	98.99
195.335	-21.85
195.555	39.59
195.774	15.02
195.993	55.98
196.212	6.83
196.432	-54.61
196.651	-11.61
196.87	64.17
197.089	109.22
197.308	58.03
197.528	72.36
197.747	2.73
197.966	-3.41
198.185	64.17
198.404	68.27
198.623	70.31
198.842	47.79
199.062	101.03
199.281	74.41
199.5	-7.51
199.719	68.27
199.938	115.37
200.157	62.12
200.376	43.69
200.595	60.07
200.814	68.27
201.033	70.31
201.252	15.02
201.471	19.11
201.69	60.07
201.909	43.69
202.128	41.64
202.347	25.26
202.566	72.36
202.785	51.88
203.004	35.5
203.223	35.5
203.442	131.75
203.661	43.69
203.879	19.11
204.098	150.18
204.317	45.74
204.536	141.99
204.755	39.59
204.974	117.42
205.193	82.6
205.411	94.89
205.63	0.68
205.849	78.51
206.068	-17.75
206.287	53.93
206.505	45.74
206.724	96.94
206.943	47.79
207.162	35.5
207.381	72.36
207.599	88.75
207.818	-1.37
208.037	60.07
208.255	53.93
208.474	49.83
208.693	70.31
208.911	80.55
209.13	58.03
209.349	117.42
209.567	74.41
209.786	10.92
210.005	37.55
210.223	53.93
210.442	49.83
210.661	84.65
210.879	55.98
211.098	21.16
211.316	58.03
211.535	-42.32
211.753	33.45
211.972	68.27
212.191	117.42
212.409	55.98
212.628	51.88
212.846	27.31
213.065	51.88
213.283	10.92
213.502	60.07
213.72	-3.41
213.938	82.6
214.157	84.65
214.375	68.27
214.594	51.88
214.812	27.31
215.031	27.31
215.249	-1.37
215.467	68.27
215.686	-38.23
215.904	58.03
216.122	60.07
216.341	37.55
216.559	68.27
216.778	27.31
216.996	53.93
217.214	64.17
217.432	-1.37
217.651	33.45
217.869	12.97
218.087	96.94
218.306	31.4
218.524	84.65
218.742	-19.8
218.96	53.93
219.179	43.69
219.397	119.46
219.615	45.74
219.833	31.4
220.051	43.69
220.27	88.75
220.488	29.35
220.706	39.59
220.924	2.73
221.142	43.69
221.36	47.79
221.578	94.89
221.796	101.03
222.015	146.09
222.233	88.75
222.451	76.46
222.669	53.93
222.887	88.75
223.105	-40.28
223.323	-25.94
223.541	58.03
223.759	39.59
223.977	109.22
224.195	80.55
224.413	31.4
224.631	55.98
224.849	49.83
225.067	-11.61
225.285	29.35
225.503	47.79
225.721	31.4
225.939	29.35
226.157	51.88
226.375	111.27
226.592	-13.65
226.81	62.12
227.028	58.03
227.246	150.18
227.464	-3.41
227.682	160.42
227.9	51.88
228.117	109.22
228.335	-11.61
228.553	68.27
228.771	55.98
228.989	51.88
229.206	17.07
229.424	29.35
229.642	35.5
229.86	31.4
230.077	21.16
230.295	37.55
230.513	47.79
230.731	82.6
230.948	84.65
231.166	8.87
231.384	-27.99
231.601	21.16
231.819	109.22
232.037	0.68
232.254	2.73
232.472	49.83
232.689	27.31
232.907	55.98
233.125	68.27
233.342	8.87
233.56	66.22
233.777	21.16
233.995	12.97
234.213	129.7
234.43	17.07
234.648	66.22
234.865	84.65
235.083	101.03
235.3	27.31
235.518	72.36
235.735	76.46
235.953	172.71
236.17	-38.23
236.388	84.65
236.605	62.12
236.822	37.55
237.04	37.55
237.257	-54.61
237.475	10.92
237.692	31.4
237.909	113.32
238.127	78.51
238.344	33.45
238.562	47.79
238.779	-34.13
238.996	10.92
239.214	101.03
239.431	72.36
239.648	27.31
239.865	41.64
240.083	82.6
240.3	51.88
240.517	-9.56
240.735	19.11
240.952	10.92
241.169	41.64
241.386	6.83
241.603	19.11
241.821	17.07
242.038	115.37
242.255	33.45
242.472	15.02
242.689	27.31
242.907	35.5
243.124	31.4
243.341	29.35
243.558	92.84
243.775	-3.41
243.992	-1.37
244.209	82.6
244.426	125.61
244.643	92.84
244.86	19.11
245.078	51.88
245.295	39.59
245.512	15.02
245.729	-36.18
245.946	37.55
246.163	17.07
246.38	82.6
246.597	49.83
246.814	129.7
247.031	45.74
247.248	113.32
247.464	31.4
247.681	31.4
247.898	70.31
248.115	117.42
248.332	86.7
248.549	86.7
248.766	41.64
248.983	23.21
249.2	92.84
249.417	72.36
249.633	10.92
249.85	127.66
250.067	76.46
250.284	-13.65
250.501	43.69
250.717	70.31
250.934	84.65
251.151	66.22
251.368	-5.46
251.585	74.41
251.801	35.5
252.018	66.22
252.235	41.64
252.451	41.64
252.668	-23.89
252.885	-5.46
253.102	25.26
253.318	33.45
253.535	27.31
253.752	-13.65
253.968	-3.41
254.185	-19.8
254.401	66.22
254.618	86.7
254.835	-1.37
255.051	96.94
255.268	98.99
255.484	55.98
255.701	2.73
255.917	39.59
256.134	-5.46
256.351	49.83
256.567	21.16
256.784	60.07
257	31.4
257.217	58.03
257.433	-38.23
257.65	0.68
257.866	55.98
258.082	-13.65
258.299	19.11
258.515	98.99
258.732	113.32
258.948	55.98
259.165	74.41
259.381	107.18
259.597	68.27
259.814	72.36
260.03	-3.41
260.246	21.16
260.463	103.08
260.679	39.59
260.895	53.93
261.112	43.69
261.328	4.78
261.544	8.87
261.761	109.22
261.977	25.26
262.193	15.02
262.409	6.83
262.626	8.87
262.842	66.22
263.058	21.16
263.274	23.21
263.49	43.69
263.707	58.03
263.923	-11.61
264.139	37.55
264.355	4.78
264.571	127.66
264.787	15.02
265.004	148.14
265.22	115.37
265.436	76.46
265.652	15.02
265.868	49.83
266.084	72.36
266.3	64.17
266.516	-1.37
266.732	17.07
266.948	-7.51
267.164	76.46
267.38	64.17
267.596	12.97
267.812	92.84
268.028	96.94
268.244	19.11
268.46	31.4
268.676	80.55
268.892	66.22
269.108	39.59
269.324	53.93
269.54	68.27
269.756	53.93
269.972	43.69
270.188	103.08
270.403	19.11
270.619	29.35
270.835	25.26
271.051	6.83
271.267	39.59
271.483	39.59
271.698	55.98
271.914	92.84
272.13	55.98
272.346	45.74
272.562	27.31
272.777	60.07
272.993	21.16
273.209	62.12
273.425	-1.37
273.64	33.45
273.856	39.59
274.072	8.87
274.287	35.5
274.503	96.94
274.719	90.79
274.934	37.55
275.15	6.83
275.366	92.84
275.581	8.87
275.797	-30.04
276.012	23.21
276.228	60.07
276.444	-7.51
276.659	78.51
276.875	43.69
277.09	68.27
277.306	64.17
277.521	103.08
277.737	60.07
277.952	37.55
278.168	66.22
278.383	62.12
278.599	66.22
278.814	51.88
279.03	23.21
279.245	117.42
279.461	-13.65
279.676	107.18
279.892	4.78
280.107	-21.85
280.322	45.74
280.538	19.11
280.753	86.7
280.969	31.4
281.184	-5.46
281.399	111.27
281.615	72.36
281.83	101.03
282.045	19.11
282.26	19.11
282.476	53.93
282.691	119.46
282.906	84.65
283.122	55.98
283.337	53.93
283.552	60.07
283.767	29.35
283.983	-9.56
284.198	68.27
284.413	15.02
284.628	47.79
284.843	49.83
285.058	68.27
285.274	55.98
285.489	64.17
285.704	98.99
285.919	84.65
286.134	23.21
286.349	66.22
286.564	15.02
286.779	60.07
286.995	51.88
287.21	10.92
287.425	-17.75
287.64	41.64
287.855	41.64
288.07	41.64
288.285	49.83
288.5	64.17
288.715	96.94
288.93	60.07
289.145	92.84
289.36	29.35
289.575	10.92
289.79	74.41
290.004	39.59
290.219	90.79
290.434	53.93
290.649	64.17
290.864	78.51
291.079	68.27
291.294	51.88
291.509	17.07
291.724	25.26
291.938	74.41
292.153	49.83
292.368	96.94
292.583	37.55
292.798	92.84
293.012	-23.89
293.227	92.84
293.442	-11.61
293.657	96.94
293.871	121.51
294.086	10.92
294.301	133.8
294.516	25.26
294.73	86.7
294.945	74.41
295.16	-54.61
295.374	74.41
295.589	27.31
295.804	90.79
296.018	6.83
296.233	68.27
296.447	70.31
296.662	33.45
296.877	60.07
297.091	29.35
297.306	58.03
297.52	27.31
297.735	51.88
297.949	72.36
298.164	8.87
298.378	23.21
298.593	68.27
298.807	25.26
299.022	41.64
299.236	53.93
299.451	58.03
299.665	43.69
299.88	51.88
300.094	23.21
300.309	121.51
300.523	53.93
300.737	82.6
300.952	98.99
301.166	88.75
301.381	25.26
301.595	-7.51
301.809	25.26
302.024	88.75
302.238	10.92
302.452	162.47
302.667	25.26
302.881	154.28
303.095	94.89
303.309	96.94
303.524	94.89
303.738	51.88
303.952	37.55
304.166	43.69
304.381	-42.32
304.595	-7.51
304.809	27.31
305.023	111.27
305.237	10.92
305.452	74.41
305.666	49.83
305.88	51.88
306.094	53.93
306.308	4.78
306.522	41.64
306.736	76.46
306.95	90.79
307.164	62.12
307.379	47.79
307.593	92.84
307.807	-1.37
308.021	29.35
308.235	88.75
308.449	4.78
308.663	53.93
308.877	70.31
309.091	68.27
309.305	178.86
309.519	27.31
309.733	76.46
309.947	15.02
310.161	94.89
310.374	41.64
310.588	70.31
310.802	55.98
311.016	47.79
311.23	92.84
311.444	41.64
311.658	53.93
311.872	33.45
312.085	43.69
312.299	76.46
312.513	25.26
312.727	21.16
312.941	35.5
313.154	88.75
313.368	6.83
313.582	31.4
313.796	41.64
314.009	19.11
314.223	74.41
314.437	41.64
314.651	113.32
314.864	68.27
315.078	47.79
315.292	47.79
315.505	-3.41
315.719	88.75
315.933	64.17
316.146	55.98
316.36	27.31
316.573	64.17
316.787	45.74
317.001	29.35
317.214	60.07
317.428	51.88
317.641	39.59
317.855	23.21
318.068	94.89
318.282	98.99
318.495	49.83
318.709	127.66
318.922	-21.85
319.136	101.03
319.349	72.36
319.563	19.11
319.776	29.35
319.99	31.4
320.203	92.84
320.417	31.4
320.63	31.4
320.843	103.08
321.057	74.41
321.27	-7.51
321.483	41.64
321.697	41.64
321.91	31.4
322.124	78.51
322.337	33.45
322.55	23.21
322.763	60.07
322.977	84.65
323.19	76.46
323.403	64.17
323.617	51.88
323.83	2.73
324.043	51.88
324.256	78.51
324.469	92.84
324.683	23.21
324.896	51.88
325.109	31.4
325.322	0.68
325.535	101.03
325.748	80.55
325.962	17.07
326.175	21.16
326.388	17.07
326.601	39.59
326.814	19.11
327.027	17.07
327.24	33.45
327.453	88.75
327.666	123.56
327.879	39.59
328.092	92.84
328.305	37.55
328.518	78.51
328.731	60.07
328.944	96.94
329.157	39.59
329.37	8.87
329.583	101.03
329.796	60.07
330.009	17.07
330.222	43.69
330.435	68.27
330.648	27.31
330.861	-38.23
331.073	105.13
331.286	68.27
331.499	-32.08
331.712	23.21
331.925	84.65
332.138	84.65
332.35	43.69
332.563	43.69
332.776	119.46
332.989	88.75
333.202	23.21
333.414	47.79
333.627	66.22
333.84	10.92
334.053	74.41
334.265	90.79
334.478	49.83
334.691	41.64
334.903	80.55
335.116	78.51
335.329	19.11
335.541	49.83
335.754	78.51
335.966	4.78
336.179	53.93
336.392	58.03
336.604	-7.51
336.817	127.66
337.029	31.4
337.242	17.07
337.454	62.12
337.667	86.7
337.88	105.13
338.092	53.93
338.305	31.4
338.517	17.07
338.729	105.13
338.942	123.56
339.154	43.69
339.367	-23.89
339.579	115.37
339.792	6.83
340.004	154.28
340.217	-3.41
340.429	90.79
340.641	-58.71
340.854	33.45
341.066	21.16
341.278	64.17
341.491	86.7
341.703	-21.85
341.915	96.94
342.128	90.79
342.34	35.5
342.552	70.31
342.764	29.35
342.977	64.17
343.189	121.51
343.401	8.87
343.613	-15.7
343.826	80.55
344.038	-50.52
344.25	96.94
344.462	96.94
344.674	109.22
344.886	84.65
345.099	58.03
345.311	37.55
345.523	64.17
345.735	-5.46
345.947	58.03
346.159	51.88
346.371	21.16
346.583	82.6
346.795	55.98
347.007	78.51
347.219	58.03
347.431	19.11
347.643	101.03
347.855	68.27
348.067	82.6
348.279	21.16
348.491	60.07
348.703	19.11
348.915	101.03
349.127	45.74
349.339	15.02
349.551	76.46
349.763	82.6
349.975	35.5
350.187	98.99
350.399	60.07
350.61	111.27
350.822	109.22
351.034	111.27
351.246	49.83
351.458	131.75
351.669	144.04
351.881	6.83
352.093	92.84
352.305	84.65
352.517	115.37
352.728	133.8
352.94	43.69
353.152	148.14
353.363	27.31
353.575	62.12
353.787	72.36
353.999	101.03
354.21	58.03
354.422	94.89
354.633	49.83
354.845	58.03
355.057	84.65
355.268	123.56
355.48	137.9
355.692	4.78
355.903	4.78
356.115	53.93
356.326	47.79
356.538	113.32
356.749	150.18
356.961	113.32
357.172	33.45
357.384	60.07
357.595	103.08
357.807	49.83
358.018	43.69
358.23	98.99
358.441	164.52
358.653	103.08
358.864	45.74
359.075	31.4
359.287	64.17
359.498	166.57
359.709	64.17
359.921	88.75
360.132	96.94
360.344	0.68
360.555	47.79
360.766	101.03
360.977	68.27
361.189	98.99
361.4	53.93
361.611	107.18
361.823	33.45
362.034	84.65
362.245	45.74
362.456	43.69
362.667	66.22
362.879	39.59
363.09	98.99
363.301	74.41
363.512	27.31
363.723	60.07
363.935	107.18
364.146	103.08
364.357	-5.46
364.568	70.31
364.779	25.26
364.99	111.27
365.201	80.55
365.412	62.12
365.623	58.03
365.834	80.55
366.045	72.36
366.256	133.8
366.467	43.69
366.678	88.75
366.889	123.56
367.1	-5.46
367.311	35.5
367.522	43.69
367.733	41.64
367.944	152.23
368.155	6.83
368.366	60.07
368.577	88.75
368.788	107.18
368.999	25.26
369.209	90.79
369.42	137.9
369.631	109.22
369.842	84.65
370.053	86.7
370.264	80.55
370.474	33.45
370.685	84.65
370.896	51.88
371.107	94.89
371.317	80.55
371.528	109.22
371.739	4.78
371.95	66.22
372.16	109.22
372.371	25.26
372.582	39.59
372.792	29.35
373.003	94.89
373.214	43.69
373.424	117.42
373.635	-7.51
373.846	76.46
374.056	152.23
374.267	101.03
374.477	139.94
374.688	86.7
374.898	84.65
375.109	86.7
375.319	150.18
375.53	96.94
375.74	107.18
375.951	-19.8
376.161	80.55
376.372	137.9
376.582	72.36
376.793	146.09
377.003	64.17
377.214	60.07
377.424	47.79
377.635	113.32
377.845	15.02
378.055	101.03
378.266	98.99
378.476	96.94
378.686	137.9
378.897	90.79
379.107	53.93
379.317	68.27
379.528	98.99
379.738	107.18
379.948	17.07
380.158	90.79
380.369	31.4
380.579	58.03
380.789	49.83
380.999	94.89
381.21	60.07
381.42	121.51
381.63	117.42
381.84	125.61
382.05	35.5
382.261	72.36
382.471	49.83
382.681	43.69
382.891	164.52
383.101	37.55
383.311	39.59
383.521	113.32
383.731	43.69
383.941	66.22
384.151	139.94
384.361	92.84
384.571	27.31
384.781	58.03
384.991	109.22
385.201	62.12
385.411	101.03
385.621	43.69
385.831	62.12
386.041	55.98
386.251	96.94
386.461	133.8
386.671	70.31
386.881	53.93
387.091	64.17
387.301	60.07
387.511	66.22
387.72	72.36
387.93	139.94
388.14	76.46
388.35	135.85
388.56	78.51
388.769	96.94
388.979	68.27
389.189	72.36
389.399	51.88
389.609	101.03
389.818	133.8
390.028	141.99
390.238	131.75
390.447	27.31
390.657	74.41
390.867	47.79
391.076	62.12
391.286	144.04
391.496	162.47
391.705	58.03
391.915	125.61
392.125	164.52
392.334	135.85
392.544	58.03
392.753	88.75
392.963	127.66
393.172	121.51
393.382	115.37
393.591	133.8
393.801	121.51
394.01	96.94
394.22	193.19
394.429	98.99
394.639	101.03
394.848	103.08
395.058	172.71
395.267	109.22
395.477	125.61
395.686	109.22
395.895	174.76
396.105	162.47
396.314	137.9
396.524	139.94
396.733	58.03
396.942	172.71
397.152	33.45
397.361	144.04
397.57	94.89
397.78	84.65
397.989	174.76
398.198	178.86
398.407	101.03
398.617	146.09
398.826	139.94
399.035	98.99
399.244	137.9
399.453	141.99
399.663	101.03
399.872	135.85
400.081	117.42
400.29	125.61
400.499	62.12
400.708	109.22
400.917	119.46
401.127	111.27
401.336	92.84
401.545	223.91
401.754	82.6
401.963	170.66
402.172	201.38
402.381	10.92
402.59	101.03
402.799	154.28
403.008	133.8
403.217	105.13
403.426	178.86
403.635	166.57
403.844	133.8
404.053	133.8
404.262	113.32
404.471	244.39
404.68	182.95
404.888	230.06
405.097	146.09
405.306	131.75
405.515	123.56
405.724	146.09
405.933	201.38
406.142	287.4
406.35	262.82
406.559	238.25
406.768	191.14
406.977	178.86
407.185	195.24
407.394	174.76
407.603	133.8
407.812	219.82
408.02	279.21
408.229	297.64
408.438	244.39
408.646	195.24
408.855	215.72
409.064	295.59
409.272	295.59
409.481	371.36
409.69	309.93
409.898	316.07
410.107	430.76
410.315	373.41
410.524	361.13
410.733	352.93
410.941	359.08
411.15	430.76
411.358	457.38
411.567	434.85
411.775	412.32
411.984	510.63
412.192	477.86
412.401	463.52
412.609	510.63
412.818	527.01
413.026	524.96
413.234	516.77
413.443	520.87
413.651	584.35
413.86	653.98
414.068	645.79
414.276	682.66
414.485	658.08
414.693	604.83
414.901	694.94
415.11	756.38
415.318	715.42
415.526	791.2
415.734	746.14
415.943	762.53
416.151	856.73
416.359	791.2
416.567	899.74
416.776	883.36
416.984	881.31
417.192	987.8
417.4	991.9
417.608	1069.72
417.817	1090.2
418.025	1108.63
418.233	1157.78
418.441	1149.59
418.649	1268.38
418.857	1311.38
419.065	1292.95
419.273	1452.69
419.481	1333.91
419.689	1538.71
419.897	1514.13
420.105	1569.43
420.313	1534.61
420.521	1624.72
420.729	1665.68
420.937	1661.59
421.145	1837.71
421.353	1772.18
421.561	2013.84
421.769	1989.26
421.977	2060.94
422.185	2067.08
422.393	2261.64
422.601	2290.31
422.809	2302.6
423.017	2280.07
423.224	2523.78
423.432	2474.63
423.64	2564.74
423.848	2828.93
424.056	2726.53
424.263	2876.03
424.471	2873.98
424.679	2949.76
424.887	3119.74
425.094	3287.67
425.302	3121.79
425.51	3375.74
425.718	3404.41
425.925	3426.93
426.133	3572.34
426.341	3705.46
426.548	3990.13
426.756	3826.29
426.964	3973.74
427.171	4260.46
427.379	4307.56
427.586	4364.9
427.794	4491.88
428.001	4762.21
428.209	4960.86
428.417	4938.34
428.624	5175.9
428.832	5411.42
429.039	5143.13
429.247	5223
429.454	5636.69
429.662	6195.79
429.869	5687.89
430.076	6134.35
430.284	5622.36
430.491	6212.17
430.699	6457.93
430.906	6464.07
431.114	6593.09
431.321	6838.85
431.528	6941.25
431.736	7375.42
431.943	7727.67
432.15	7520.82
432.358	7365.18
432.565	8022.58
432.772	7885.36
432.979	8460.84
433.187	8700.45
433.394	8602.15
433.601	9146.91
433.808	9007.65
434.016	8911.39
434.223	9425.43
434.43	10140.18
434.637	9804.31
434.844	10435.08
435.052	10691.08
435.259	10590.73
435.466	10678.79
435.673	10459.66
435.88	11260.41
436.087	11864.57
436.294	12009.97
436.501	11536.89
436.708	11862.52
436.915	12265.97
437.122	12986.85
437.329	12675.56
437.537	13218.27
437.743	13179.36
437.95	13203.94
438.157	13887.96
438.364	14397.9
438.571	14293.46
438.778	14426.57
438.985	16052.66
439.192	15221.19
439.399	15491.52
439.606	15120.84
439.813	16495.02
440.02	17082.79
440.227	16935.34
440.433	16615.85
440.64	17424.8
440.847	16992.68
441.054	17504.67
441.261	18698.64
441.467	18522.51
441.674	18565.52
441.881	19204.49
442.088	19304.84
442.294	19057.03
442.501	19577.22
442.708	20101.5
442.914	20816.24
443.121	21565.79
443.328	21193.06
443.534	22694.22
443.741	21844.32
443.948	21817.69
444.154	23443.78
444.361	22993.23
444.568	23355.72
444.774	23255.37
444.981	23736.64
445.187	24299.83
445.394	25188.65
445.6	25016.62
445.807	27080.97
446.013	26046.75
446.22	26566.93
446.426	27576.58
446.633	27652.36
446.839	28469.5
447.046	27490.57
447.252	29073.65
447.459	28950.77
447.665	29065.46
447.871	30314.72
448.078	31340.75
448.284	30157.02
448.491	30771.41
448.697	31836.36
448.903	32360.64
449.11	32215.23
449.316	31992
449.522	32460.99
449.728	33259.7
449.935	33566.89
450.141	33542.31
450.347	34238.62
450.553	33245.36
450.76	33634.47
450.966	34920.6
451.172	34029.73
451.378	34723.99
451.584	34343.07
451.791	34922.65
451.997	35164.31
452.203	35600.52
452.409	35471.5
452.615	35233.94
452.821	33951.91
453.027	33599.66
453.233	35139.73
453.44	33972.39
453.646	34115.75
453.852	34373.79
454.058	34324.64
454.264	33423.53
454.47	34390.17
454.676	33702.06
454.882	34496.67
455.088	31707.33
455.294	31938.76
455.5	32368.83
455.705	32721.08
455.911	31793.35
456.117	30795.99
456.323	30505.18
456.529	28565.75
456.735	30560.47
456.941	29114.61
457.147	28950.77
457.352	28168.44
457.558	27660.55
457.764	27734.28
457.97	27136.27
458.176	26724.63
458.381	26300.7
458.587	25413.93
458.793	25233.71
458.999	24054.08
459.204	25540.9
459.41	24770.86
459.616	23519.56
459.821	23513.41
460.027	23370.05
460.233	22733.14
460.438	21739.87
460.644	21764.45
460.85	20877.68
461.055	20498.8
461.261	20658.54
461.466	19054.98
461.672	18518.42
461.878	19798.4
462.083	18508.18
462.289	18182.55
462.494	17959.32
462.7	17258.92
462.905	16769.45
463.111	17215.91
463.316	17101.22
463.522	16910.76
463.727	16869.8
463.932	16722.35
464.138	16767.4
464.343	16703.92
464.549	16421.3
464.754	16710.06
464.959	16746.92
465.165	16619.95
465.37	16054.71
465.575	15753.66
465.781	16048.57
465.986	16249.27
466.191	15649.21
466.397	15270.34
466.602	14545.36
466.807	15112.64
467.012	15186.37
467.218	15196.61
467.423	14770.63
467.628	15014.34
467.833	15489.47
468.038	14840.26
468.244	14623.18
468.449	14899.66
468.654	14563.79
468.859	14445.01
469.064	14639.56
469.269	13926.87
469.474	14070.23
469.679	14318.03
469.885	13832.66
470.09	14176.72
470.295	13963.73
470.5	13558.24
470.705	13677.02
470.91	13283.81
471.115	13248.99
471.32	13480.41
471.525	13283.81
471.73	12880.36
471.935	13064.68
472.139	12612.07
472.344	12720.62
472.549	12575.21
472.754	12507.63
472.959	12261.87
473.164	11901.43
473.369	11678.2
473.574	12278.26
473.778	11930.1
473.983	11909.62
474.188	11837.94
474.393	11420.16
474.598	11338.24
474.802	11313.66
475.007	11354.62
475.212	11330.05
475.417	10959.36
475.621	10990.08
475.826	10824.2
476.031	10732.04
476.235	10461.71
476.44	10770.95
476.645	10394.12
476.849	10584.59
477.054	10281.49
477.259	10240.53
477.463	10220.05
477.668	10062.35
477.872	10068.5
478.077	9777.69
478.282	9638.42
478.486	9548.31
478.691	9540.12
478.895	9675.29
479.1	9523.74
479.304	9669.14
479.509	9173.53
479.713	9222.69
479.918	9067.04
480.122	8993.31
480.326	9257.5
480.531	9036.32
480.735	8895.01
480.94	9165.34
481.144	9210.4
481.348	8741.41
481.553	8694.31
481.757	8747.56
481.961	9005.6
482.166	8870.44
482.37	8954.4
482.574	8538.66
482.778	8530.47
482.983	8845.86
483.187	8733.22
483.391	8882.72
483.595	8751.65
483.8	8585.77
484.004	8679.97
484.208	8686.12
484.412	8862.24
484.616	8706.6
484.821	8772.13
485.025	8634.92
485.229	8694.31
485.433	8575.53
485.637	8811.04
485.841	8737.32
486.045	8702.5
486.249	8802.85
486.453	8469.03
486.657	8786.47
486.861	9019.94
487.065	8555.05
487.269	8659.49
487.473	8610.34
487.677	8905.25
487.881	8823.33
488.085	8653.35
488.289	8874.53
488.493	8702.5
488.697	8872.48
488.901	8872.48
489.105	8673.83
489.309	8847.91
489.512	8841.76
489.716	8768.04
489.92	8798.76
490.124	8706.6
490.328	9026.08
490.531	8995.36
490.735	9085.47
490.939	9085.47
491.143	9011.75
491.346	9097.76
491.55	9036.32
491.754	9153.05
491.958	9038.37
492.161	9257.5
492.365	9435.67
492.569	9288.22
492.772	9364
492.976	9431.58
493.18	9415.19
493.383	9488.92
493.587	9685.53
493.79	9658.9
493.994	9370.14
494.197	9581.08
494.401	9902.61
494.605	9650.71
494.808	9865.75
495.012	9941.52
495.215	9822.74
495.419	10068.5
495.622	9998.87
495.825	10170.9
496.029	10117.65
496.232	10547.72
496.436	10375.69
496.639	10668.55
496.843	10680.84
497.046	10834.44
497.249	10998.27
497.453	11000.32
497.656	11084.29
497.859	11069.95
498.063	11377.15
498.266	11461.12
498.469	11366.91
498.673	11444.73
498.876	11639.29
499.079	11719.16
499.282	11770.36
499.485	12091.89
499.689	12182
499.892	12417.52
500.095	12204.53
500.298	12646.89
500.501	12407.28
500.705	12894.69
500.908	13083.11
501.111	13191.65
501.314	13412.83
501.517	13318.62
501.72	13666.78
501.923	13593.05
502.126	13851.1
502.329	14068.18
502.532	14344.66
502.735	13963.73
502.938	14281.17
503.141	14315.98
503.344	14918.09
503.547	14809.54
503.75	14848.46
503.953	15342.02
504.156	15374.78
504.359	15684.03
504.562	15505.85
504.765	16015.8
504.968	16189.88
505.17	16312.75
505.373	16413.1
505.576	16622
505.779	16630.19
505.982	16896.42
506.185	17254.82
506.387	17295.78
506.59	17320.35
506.793	17844.63
506.996	17553.82
507.198	18284.95
507.401	18332.05
507.604	18444.69
507.807	18710.93
508.009	18694.54
508.212	19052.94
508.415	19202.44
508.617	19163.53
508.82	19245.44
509.022	19173.77
509.225	20013.43
509.428	19902.84
509.63	20015.48
509.833	20177.27
510.035	20601.2
510.238	20697.45
510.44	21043.56
510.643	21389.67
510.845	21455.2
511.048	21207.4
511.25	21799.26
511.453	22135.13
511.655	22538.58
511.858	22090.07
512.06	22669.65
512.262	22866.25
512.465	22952.27
512.667	23314.76
512.87	23750.98
513.072	23374.15
513.274	23994.68
513.477	24219.96
513.679	24166.71
513.881	24473.91
514.084	24705.33
514.286	25002.29
514.488	24975.66
514.69	25860.38
514.893	25923.87
515.095	25927.97
515.297	26104.09
515.499	26482.97
515.701	26906.9
515.904	26892.56
516.106	27095.31
516.308	27447.56
516.51	27627.78
516.712	27724.04
516.914	28262.65
517.116	28580.09
517.318	29036.78
517.52	28700.92
517.722	28971.25
517.925	29255.92
518.127	29784.29
518.329	30028
518.531	29843.68
518.733	30275.8
518.935	30281.95
519.136	30402.78
519.338	30920.91
519.54	31125.71
519.742	31668.42
519.944	31631.56
520.146	32432.32
520.348	32460.99
520.55	32319.68
520.752	32805.05
520.954	33599.66
521.155	32993.46
521.357	33663.15
521.559	34027.68
521.761	34238.62
521.963	34599.07
522.164	34486.43
522.366	34934.93
522.568	34795.67
522.77	34990.23
522.971	35358.86
523.173	35688.59
523.375	35864.71
523.576	35854.47
523.778	35975.3
523.98	36640.89
524.181	36778.11
524.383	36597.88
524.584	37169.27
524.786	37462.13
524.988	37490.8
525.189	37953.64
525.391	37761.13
525.592	38406.24
525.794	38254.69
525.995	37982.31
526.197	38219.88
526.398	38273.12
526.6	38940.76
526.801	39030.87
527.003	39135.32
527.204	39186.52
527.406	39893.07
527.607	39415.89
527.808	39972.94
528.01	39352.4
528.211	39651.41
528.412	40548.42
528.614	40534.08
528.815	40517.7
529.016	40931.39
529.218	40564.8
529.419	40843.32
529.62	40706.11
529.822	40896.57
530.023	40882.23
530.224	41105.46
530.425	41259.06
530.626	41115.7
530.828	40988.73
531.029	41674.8
531.23	41480.24
531.431	41586.74
531.632	41455.67
531.833	41779.25
532.035	41951.27
532.236	41734.19
532.437	42131.5
532.638	41537.58
532.839	42377.25
533.04	42121.26
533.241	41680.94
533.442	42631.2
533.643	42430.5
533.844	42383.4
534.045	42393.64
534.246	42217.51
534.447	42295.33
534.648	42324
534.849	42543.14
535.05	42211.37
535.251	42508.32
535.451	42465.31
535.652	42528.8
535.853	42450.98
536.054	42379.3
536.255	42463.27
536.456	42532.9
536.657	43173.91
536.857	42620.96
537.058	42684.45
537.259	42715.17
537.46	42719.26
537.66	42985.5
537.861	42680.35
538.062	42446.88
538.263	42948.64
538.463	42641.44
538.664	42391.59
538.865	42868.76
539.065	43319.32
539.266	42424.36
539.466	43507.73
539.667	42389.54
539.868	42899.48
540.068	42645.54
540.269	42686.5
540.469	42852.38
540.67	42401.83
540.87	42848.28
541.071	42686.5
541.271	42805.28
541.472	42661.92
541.672	42651.68
541.873	43016.22
542.073	42180.65
542.274	42942.49
542.474	42545.19
542.675	42332.2
542.875	43016.22
543.075	42520.61
543.276	42225.7
543.476	42858.52
543.676	42434.6
543.877	42618.91
544.077	42483.75
544.277	42094.63
544.478	42387.49
544.678	42809.37
544.878	42459.17
545.078	42555.43
545.279	42573.86
545.479	42455.07
545.679	42303.53
545.879	42225.7
546.079	42391.59
546.28	42170.41
546.48	41764.91
546.68	42561.57
546.88	42391.59
547.08	42342.44
547.28	42399.78
547.48	41541.68
547.68	42248.23
547.88	42324
548.081	42350.63
548.281	42874.91
548.481	42287.14
548.681	42743.84
548.881	42405.92
549.081	41863.21
549.28	42168.36
549.48	42274.85
549.68	42022.95
549.88	42498.08
550.08	41959.47
550.28	42068.01
550.48	42203.17
550.68	42352.68
550.88	42299.43
551.08	41623.6
551.279	41947.18
551.479	41852.97
551.679	41943.08
551.879	42022.95
552.079	42156.07
552.278	42174.5
552.478	41793.58
552.678	41947.18
552.878	42432.55
553.077	41777.2
553.277	41726
553.477	42446.88
553.676	41527.35
553.876	41779.25
554.076	41726
554.275	41529.39
554.475	41445.43
554.674	41842.73
554.874	41920.56
555.074	41893.93
555.273	41648.18
555.473	41857.07
555.672	41447.47
555.872	41539.63
556.071	41816.11
556.271	41543.73
556.47	41400.37
556.67	41087.03
556.869	41144.37
557.068	41424.95
557.268	41271.35
557.467	41443.38
557.667	41316.4
557.866	40972.35
558.065	40808.51
558.265	41011.26
558.464	40900.67
558.663	41177.14
558.863	40433.73
559.062	41132.09
559.261	40304.71
559.461	40831.04
559.66	40187.97
559.859	40685.63
560.058	40187.97
560.258	40233.03
560.457	40091.72
560.656	39964.74
560.855	40022.09
561.054	40153.16
561.253	40169.54
561.453	40177.73
561.652	39809.1
561.851	39747.66
562.05	39858.25
562.249	39639.12
562.448	39960.65
562.647	39475.28
562.846	39528.53
563.045	39542.86
563.244	39047.25
563.443	39587.92
563.642	39075.93
563.841	39243.86
564.04	38928.47
564.239	38985.82
564.438	38518.88
564.637	39155.8
564.836	38420.58
565.035	38400.1
565.234	38834.27
565.432	38283.36
565.631	37888.1
565.83	38314.08
566.029	38056.04
566.228	38258.79
566.427	38191.2
566.625	37920.87
566.824	37324.91
567.023	37927.02
567.222	37269.62
567.42	37503.09
567.619	37542
567.818	37484.65
568.016	37175.41
568.215	37625.96
568.414	36943.99
568.612	37097.59
568.811	36845.69
569.01	36733.05
569.208	36720.76
569.407	36833.4
569.605	36352.13
569.804	36538.49
570.002	35965.06
570.201	36438.14
570.4	36114.56
570.598	35829.9
570.797	35717.26
570.995	35991.69
571.193	35528.84
571.392	35897.48
571.59	35516.56
571.789	35721.35
571.987	35266.7
572.186	35266.7
572.384	35543.18
572.582	34885.78
572.781	35250.32
572.979	34451.61
573.177	34955.41
573.376	35043.48
573.574	34842.78
573.772	34558.11
573.971	34402.46
574.169	34132.13
574.367	34140.32
574.565	34373.79
574.763	33994.92
574.962	33935.52
575.16	33847.46
575.358	34189.47
575.556	33319.09
575.754	33941.67
575.952	33489.07
576.151	34183.33
576.349	33132.72
576.547	33292.46
576.745	33585.32
576.943	33108.15
577.141	33128.63
577.339	33159.34
577.537	33214.64
577.735	33034.42
577.933	32596.15
578.131	32854.2
578.329	32444.6
578.527	32184.51
578.725	32592.06
578.923	32442.56
579.121	32428.22
579.319	32090.3
579.516	32387.26
579.714	31942.85
579.912	31795.4
580.11	31631.56
580.308	31670.47
580.506	31969.47
580.704	31211.73
580.901	31697.09
581.099	31451.34
581.297	31240.4
581.495	31338.7
581.692	31561.93
581.89	30859.48
582.088	31338.7
582.285	30961.87
582.483	30834.9
582.681	30253.28
582.878	30613.72
583.076	30255.32
583.274	30894.29
583.471	30406.87
583.669	30159.07
583.866	29858.02
584.064	30429.4
584.262	29669.61
584.459	30146.78
584.657	29896.93
584.854	29933.79
585.052	29591.78
585.249	29741.28
585.447	29855.97
585.644	29407.47
585.841	29673.7
586.039	29417.71
586.236	29135.09
586.434	29544.68
586.631	28979.44
586.828	29067.5
587.026	28897.52
587.223	28930.29
587.42	28662.01
587.618	28913.91
587.815	28684.53
588.012	28475.64
588.21	28074.24
588.407	28668.15
588.604	28258.56
588.801	28049.66
588.999	28268.8
589.196	27599.11
589.393	27683.08
589.59	27734.28
589.787	27689.22
589.984	27619.59
590.182	27078.93
590.379	27476.23
590.576	27568.39
590.773	27468.04
590.97	27183.37
591.167	27263.24
591.364	27033.87
591.561	26781.97
591.758	26921.23
591.955	26960.14
592.152	26927.38
592.349	26411.29
592.546	26779.92
592.743	26939.66
592.94	26308.89
593.137	26431.77
593.334	26315.03
593.531	25854.24
593.727	26243.35
593.924	26190.11
594.121	25815.33
594.318	25911.58
594.515	25805.09
594.712	26077.47
594.908	25549.09
595.105	25610.53
595.302	25575.72
595.499	25612.58
595.696	25432.36
595.892	25123.12
596.089	25258.28
596.286	25332.01
596.482	25282.86
596.679	24682.8
596.876	24836.4
597.072	25139.5
597.269	24832.3
597.466	24820.02
597.662	24647.99
597.859	24604.98
598.055	24711.47
598.252	24242.49
598.448	24172.86
598.645	24101.18
598.841	24391.99
599.038	23941.44
599.234	24002.88
599.431	23777.6
599.627	23966.01
599.824	24379.7
600.02	23671.11
600.217	23519.56
600.413	23681.35
600.609	23458.12
600.806	23198.02
601.002	23482.69
601.198	23228.74
601.395	23296.33
601.591	23327.05
601.787	23279.94
601.984	23144.78
602.18	23161.16
602.376	22899.02
602.572	22813.01
602.769	23089.48
602.965	22475.09
603.161	22587.73
603.357	22526.29
603.553	22657.36
603.75	22667.6
603.946	22178.14
604.142	22475.09
604.338	22194.52
604.534	22311.25
604.73	22032.73
604.926	21883.23
605.122	21936.48
605.318	21789.02
605.514	21668.19
605.71	21567.84
605.906	21862.75
606.102	21635.42
606.298	21639.52
606.494	21346.66
606.69	21481.83
606.886	21129.58
607.082	21160.3
607.278	21385.57
607.474	21088.62
607.67	21289.32
607.866	20953.45
608.062	21197.16
608.257	21105
608.453	20924.78
608.649	21268.84
608.845	20978.03
609.041	20707.69
609.236	20509.04
609.432	20644.21
609.628	20619.63
609.824	20697.45
610.019	20535.67
610.215	20447.6
610.411	20443.51
610.606	20353.4
610.802	20506.99
610.998	20582.77
611.193	20572.53
611.389	20066.68
611.584	20236.66
611.78	19890.56
611.976	20115.83
612.171	20046.2
612.367	19921.27
612.562	19921.27
612.758	19577.22
612.953	19671.42
613.149	20009.34
613.344	19691.9
613.539	19829.12
613.735	19495.3
613.93	19827.07
614.126	19741.05
614.321	19718.53
614.517	19829.12
614.712	19294.6
614.907	19427.71
615.103	19540.35
615.298	19456.39
615.493	19540.35
615.688	19112.33
615.884	19640.7
616.079	19067.27
616.274	19415.43
616.47	18905.48
616.665	19040.65
616.86	18956.68
617.055	18934.15
617.25	18872.71
617.445	19036.55
617.641	18629.01
617.836	18870.67
618.031	18413.97
618.226	18749.84
618.421	18717.07
618.616	18588.05
618.811	18399.63
619.006	18721.16
619.201	18391.44
619.396	18334.1
619.591	18217.36
619.786	18375.06
619.981	17750.43
620.176	17953.18
620.371	17727.9
620.566	17897.88
620.761	17820.06
620.956	17850.78
621.151	17609.12
621.346	17543.58
621.541	17269.16
621.735	17770.91
621.93	17029.54
622.125	17142.18
622.32	17000.87
622.515	17084.84
622.709	16996.78
622.904	17097.13
623.099	16777.64
623.294	16884.14
623.488	16368.05
623.683	16646.57
623.878	16421.3
624.072	16398.77
624.267	16390.58
624.462	16368.05
624.656	16249.27
624.851	16179.64
625.046	16140.72
625.24	16120.24
625.435	15798.71
625.629	15602.11
625.824	15499.71
626.018	15659.45
626.213	15370.69
626.407	15413.7
626.602	15040.97
626.796	15286.72
626.991	15155.65
627.185	15096.26
627.38	15120.84
627.574	14950.85
627.768	14680.52
627.963	14694.86
628.157	14602.7
628.352	14784.97
628.546	14365.14
628.74	14432.72
628.935	14334.42
629.129	14283.22
629.323	13957.59
629.517	14057.94
629.712	13961.69
629.906	13918.68
630.1	13703.64
630.294	13996.5
630.489	13603.29
630.683	13758.94
630.877	13545.95
631.071	13449.69
631.265	13613.53
631.459	13427.17
631.653	13568.48
631.848	13292
632.042	13324.77
632.236	13158.88
632.43	13162.98
632.624	13162.98
632.818	13031.91
633.012	12876.26
633.206	12751.34
633.4	12829.16
633.594	12610.03
633.788	12495.34
633.982	12536.3
634.176	12399.09
634.369	12345.84
634.563	12372.46
634.757	12276.21
634.951	12378.61
635.145	12206.58
635.339	12323.31
635.533	11932.15
635.726	11958.77
635.92	11725.3
636.114	11616.76
636.308	11647.48
636.501	11936.24
636.695	11835.89
636.889	11721.21
637.083	11581.95
637.276	11366.91
637.47	11344.38
637.664	11522.55
637.857	11430.4
638.051	11309.57
638.244	11049.47
638.438	11024.9
638.632	11235.84
638.825	10940.93
639.019	10977.8
639.212	10709.51
639.406	10668.55
639.599	10830.34
639.793	10609.16
639.986	10547.72
640.18	10527.24
640.373	10449.42
640.567	10353.16
640.76	10510.86
640.954	10437.13
641.147	10220.05
641.34	9994.77
641.534	10119.7
641.727	10236.43
641.92	10248.72
642.114	9902.61
642.307	9837.08
642.5	9974.29
642.694	9691.67
642.887	9800.21
643.08	9765.4
643.273	9814.55
643.467	9626.14
643.66	9366.04
643.853	9533.98
644.046	9525.79
644.239	9554.46
644.432	9378.33
644.626	9316.89
644.819	9220.64
645.012	9120.29
645.205	9329.18
645.398	9210.4
645.591	9077.28
645.784	8929.83
645.977	8923.68
646.17	9032.22
646.363	8860.2
646.556	8921.63
646.749	8757.8
646.942	8913.44
647.135	8636.97
647.328	8628.77
647.521	8675.88
647.714	8505.9
647.907	8421.93
648.099	8340.01
648.292	8600.1
648.485	8264.24
648.678	8460.84
648.871	8190.51
649.064	8157.74
649.256	8301.1
649.449	8213.04
649.642	8102.45
649.835	8030.77
650.027	7942.71
650.22	7948.85
650.413	7998
650.605	7916.08
650.798	7952.95
650.991	7766.58
651.183	7801.4
651.376	7723.57
651.568	7701.05
651.761	7639.61
651.954	7725.62
652.146	7486.01
652.339	7635.51
652.531	7545.4
652.724	7361.08
652.916	7391.8
653.109	7395.9
653.301	7199.29
653.494	7492.15
653.686	7199.29
653.879	7426.62
654.071	7178.81
654.263	7144
654.456	7068.22
654.648	7096.89
654.84	7082.56
655.033	6922.82
655.225	7049.79
655.417	6793.79
655.61	6928.96
655.802	6879.81
655.994	6851.14
656.186	6922.82
656.379	6650.44
656.571	6826.56
656.763	6625.86
656.955	6771.27
657.148	6675.01
657.34	6683.2
657.532	6589
657.724	6404.68
657.916	6541.89
658.108	6589
658.3	6292.04
658.492	6425.16
658.684	6320.71
658.876	6433.35
659.068	6373.96
659.26	6255.18
659.452	6294.09
659.644	6326.86
659.836	6238.8
660.028	6339.15
660.22	6066.77
660.412	6163.02
660.604	5929.55
660.796	6068.81
660.988	6181.45
661.18	5880.4
661.372	5919.31
661.563	5851.73
661.755	5894.74
661.947	5931.6
662.139	5751.38
662.331	5792.34
662.522	5761.62
662.714	5642.84
662.906	5775.95
663.097	5673.56
663.289	5591.64
663.481	5628.5
663.673	5657.17
663.864	5558.87
664.056	5622.36
664.247	5403.22
664.439	5397.08
664.631	5392.98
664.822	5532.25
665.014	5339.74
665.205	5435.99
665.397	5401.18
665.588	5464.66
665.78	5296.73
665.971	5304.92
666.163	5266.01
666.354	5362.26
666.546	5032.54
666.737	5237.34
666.929	5259.87
667.12	5077.6
667.311	5130.84
667.503	4960.86
667.694	5126.75
667.885	4950.62
668.077	4958.81
668.268	4971.1
668.459	5018.21
668.651	4948.58
668.842	4903.52
669.033	4893.28
669.224	4805.22
669.416	4883.04
669.607	4934.24
669.798	4807.27
669.989	4874.85
670.18	4942.43
670.371	4760.16
670.563	4625
670.754	4792.93
670.945	4846.18
671.136	4770.4
671.327	4723.3
671.518	4766.31
671.709	4852.32
671.9	4534.89
672.091	4741.73
672.282	4553.32
672.473	4573.8
672.664	4614.76
672.855	4741.73
673.046	4608.61
673.237	4590.18
673.428	4500.07
673.619	4565.6
673.809	4579.94
674	4563.56
674.191	4553.32
674.382	4520.55
674.573	4457.06
674.764	4463.21
674.954	4336.23
675.145	4444.77
675.336	4346.47
675.527	4448.87
675.717	4487.78
675.908	4455.01
676.099	4285.03
676.289	4450.92
676.48	4178.54
676.671	4309.61
676.861	4348.52
677.052	4211.31
677.243	4301.42
677.433	4369
677.624	4366.95
677.814	4309.61
678.005	4139.63
678.195	4192.87
678.386	4170.35
678.576	4147.82
678.767	4244.07
678.957	4260.46
679.148	4319.85
679.338	4235.88
679.529	4272.75
679.719	4176.49
679.909	4270.7
680.1	4156.01
680.29	4121.2
680.481	4172.39
680.671	4201.07
680.861	4094.57
681.052	4237.93
681.242	3975.79
681.432	4156.01
681.622	4196.97
681.813	4129.39
682.003	4176.49
682.193	4057.71
682.383	4018.8
682.573	4170.35
682.764	4115.05
682.954	4049.52
683.144	4248.17
683.334	4162.16
683.524	4110.96
683.714	4067.95
683.904	4063.85
684.094	4063.85
684.284	4078.19
684.474	3902.06
684.664	4041.32
684.854	4057.71
685.044	4108.91
685.234	3975.79
685.424	4070
685.614	3926.64
685.804	4022.89
685.994	3971.69
686.184	3758.71
686.374	3887.73
686.564	4000.37
686.753	3914.35
686.943	3727.99
687.133	3922.54
687.323	3865.2
687.513	3981.93
687.702	3801.71
687.892	3783.28
688.082	3932.78
688.272	3754.61
688.461	3844.72
688.651	3785.33
688.841	3795.57
689.03	3795.57
689.22	3844.72
689.41	3779.18
689.599	3779.18
689.789	3596.92
689.979	3705.46
690.168	3736.18
690.358	3476.09
690.547	3619.44
690.737	3703.41
690.926	3687.03
691.116	3574.39
691.305	3605.11
691.495	3537.52
691.684	3639.92
691.874	3670.64
692.063	3603.06
692.252	3465.85
692.442	3537.52
692.631	3461.75
692.82	3515
693.01	3531.38
693.199	3498.61
693.388	3465.85
693.578	3371.64
693.767	3390.07
693.956	3455.61
694.146	3406.45
694.335	3471.99
694.524	3416.69
694.713	3353.21
694.902	3291.77
695.092	3410.55
695.281	3373.69
695.47	3314.3
695.659	3244.67
695.848	3433.08
696.037	3361.4
696.226	3371.64
696.415	3424.89
696.604	3437.17
696.793	3228.28
696.982	3259
697.171	3295.86
697.36	3224.19
697.549	3269.24
697.738	3195.51
697.927	3361.4
698.116	3306.1
698.305	3287.67
698.494	3175.03
698.683	3246.71
698.872	3365.5
699.061	3140.22
699.25	3144.31
699.438	3316.34
699.627	3224.19
699.816	3332.73
700.005	3043.96
700.193	3259
700.382	3312.25
700.571	3312.25
700.76	3205.75
700.948	3170.94
701.137	3164.79
701.326	3287.67
701.514	3277.43
701.703	3267.19
701.892	3269.24
702.08	3213.95
702.269	3218.04
702.457	3259
702.646	3172.99
702.834	3144.31
703.023	3224.19
703.212	3138.17
703.4	3314.3
703.589	3189.37
703.777	3154.55
703.965	3148.41
704.154	3125.88
704.342	3209.85
704.531	3127.93
704.719	3213.95
704.907	3138.17
705.096	3089.02
705.284	3148.41
705.472	3242.62
705.661	3209.85
705.849	3277.43
706.037	3166.84
706.226	3265.14
706.414	3043.96
706.602	3187.32
706.79	3273.34
706.979	3168.89
707.167	3259
707.355	3228.28
707.543	3209.85
707.731	3279.48
707.919	3265.14
708.107	3142.27
708.296	3220.09
708.484	3156.6
708.672	3213.95
708.86	3279.48
709.048	3271.29
709.236	3238.52
709.424	3187.32
709.612	3211.9
709.8	3209.85
709.988	3297.91
710.176	3209.85
710.364	3254.9
710.551	3234.43
710.739	3283.58
710.927	3209.85
711.115	3230.33
711.303	3209.85
711.491	3267.19
711.679	3226.23
711.866	3103.36
712.054	3379.83
712.242	3168.89
712.43	3330.68
712.617	3119.74
712.805	3263.1
712.993	3451.51
713.181	3246.71
713.368	3246.71
713.556	3308.15
713.744	3123.83
713.931	3289.72
714.119	3263.1
714.306	3215.99
714.494	3369.59
714.682	3181.18
714.869	3144.31
715.057	3394.17
715.244	3209.85
715.432	3351.16
715.619	3248.76
715.807	3347.06
715.994	3246.71
716.182	3402.36
716.369	3261.05
716.556	3259
716.744	3353.21
716.931	3080.83
717.119	3246.71
717.306	3345.02
717.493	3345.02
717.681	3306.1
717.868	3281.53
718.055	3283.58
718.242	3304.06
718.43	3277.43
718.617	3279.48
718.804	3244.67
718.991	3416.69
719.179	3302.01
719.366	3236.47
719.553	3261.05
719.74	3293.82
719.927	3234.43
720.114	3218.04
720.301	3191.42
720.488	3275.38
720.676	3209.85
720.863	3345.02
721.05	3342.97
721.237	3336.82
721.424	3332.73
721.611	3269.24
721.798	3244.67
721.985	3320.44
722.172	3189.37
722.358	3310.2
722.545	3306.1
722.732	3213.95
722.919	3242.62
723.106	3275.38
723.293	3287.67
723.48	3156.6
723.667	3320.44
723.853	3209.85
724.04	3283.58
724.227	3353.21
724.414	3213.95
724.6	3201.66
724.787	3398.26
724.974	3334.78
725.161	3234.43
725.347	3254.9
725.534	3342.97
725.72	3353.21
725.907	3240.57
726.094	3242.62
726.28	3121.79
726.467	3168.89
726.653	3295.86
726.84	3254.9
727.027	3334.78
727.213	3199.61
727.4	3226.23
727.586	3304.06
727.773	3275.38
727.959	3236.47
728.145	3304.06
728.332	3263.1
728.518	3105.4
728.705	3160.7
728.891	3218.04
729.077	3236.47
729.264	3246.71
729.45	3263.1
729.636	3152.51
729.823	3197.56
730.009	3250.81
730.195	3275.38
730.382	3232.38
730.568	3234.43
730.754	3189.37
730.94	3271.29
731.126	3179.13
731.313	3189.37
731.499	3132.03
731.685	3308.15
731.871	3127.93
732.057	3140.22
732.243	3086.97
732.429	3263.1
732.615	3402.36
732.801	3138.17
732.987	3189.37
733.173	3172.99
733.359	3228.28
733.545	3226.23
733.731	3080.83
733.917	3142.27
734.103	3064.44
734.289	3095.16
734.475	3095.16
734.661	3267.19
734.847	3074.68
735.033	3279.48
735.219	3187.32
735.404	3160.7
735.59	3121.79
735.776	2988.67
735.962	3218.04
736.148	3127.93
736.333	3132.03
736.519	3136.12
736.705	3054.2
736.89	2994.81
737.076	3123.83
737.262	2968.19
737.447	3062.4
737.633	2859.65
737.819	3037.82
738.004	2992.76
738.19	3035.77
738.375	2894.46
738.561	3097.21
738.747	3115.64
738.932	2869.89
739.118	2988.67
739.303	2988.67
739.489	2968.19
739.674	2876.03
739.859	2933.37
740.045	2896.51
740.23	2876.03
740.416	3005.05
740.601	2937.47
740.786	2816.64
740.972	2771.58
741.157	3025.53
741.342	2927.23
741.528	2771.58
741.713	3013.24
741.898	2783.87
742.084	2810.5
742.269	2953.85
742.454	2724.48
742.639	2853.5
742.824	2740.86
743.01	2830.98
743.195	2894.46
743.38	2843.26
743.565	2882.17
743.75	2755.2
743.935	2675.33
744.12	2783.87
744.305	2650.75
744.49	2720.39
744.675	2769.54
744.86	2583.17
745.045	2673.28
745.23	2603.65
745.415	2425.48
745.6	2671.23
745.785	2577.03
745.97	2704
746.155	2540.16
746.34	2617.99
746.525	2433.67
746.71	2632.32
746.895	2439.81
747.079	2488.96
747.264	2409.09
747.449	2493.06
747.634	2411.14
747.819	2419.33
748.003	2402.95
748.188	2343.56
748.373	2300.55
748.557	2341.51
748.742	2376.33
748.927	2405
749.111	2228.87
749.296	2304.65
749.481	2333.32
749.665	2378.37
749.85	2331.27
750.034	2286.22
750.219	2275.98
750.404	2220.68
750.588	2273.93
750.773	2243.21
750.957	2222.73
751.141	2230.92
751.326	2189.96
751.51	2036.36
751.695	2112.14
751.879	2124.43
752.064	2019.98
752.248	1999.5
752.432	2132.62
752.617	2038.41
752.801	2112.14
752.985	2128.52
753.17	2120.33
753.354	2015.88
753.538	1976.97
753.722	1854.09
753.907	1981.07
754.091	1936.01
754.275	1958.54
754.459	1893.01
754.643	1884.81
754.828	1843.85
755.012	1925.77
755.196	1761.94
755.38	1841.81
755.564	1852.05
755.748	1833.61
755.932	1804.94
756.116	1790.61
756.3	1847.95
756.484	1796.75
756.668	1772.18
756.852	1718.93
757.036	1712.78
757.22	1589.91
757.404	1600.15
757.588	1743.5
757.772	1704.59
757.956	1632.91
758.14	1727.12
758.323	1616.53
758.507	1600.15
758.691	1600.15
758.875	1702.54
759.059	1618.58
759.242	1462.93
759.426	1649.3
759.61	1522.32
759.794	1596.05
759.977	1548.95
760.161	1624.72
760.345	1600.15
760.528	1577.62
760.712	1442.45
760.895	1485.46
761.079	1479.32
761.263	1450.64
761.446	1450.64
761.63	1454.74
761.813	1464.98
761.997	1403.54
762.18	1434.26
762.364	1432.21
762.547	1458.84
762.731	1376.92
762.914	1389.21
763.098	1426.07
763.281	1438.36
763.464	1370.77
763.648	1362.58
763.831	1421.97
764.015	1456.79
764.198	1424.02
764.381	1342.1
764.564	1391.25
764.748	1286.81
764.931	1348.25
765.114	1274.52
765.297	1311.38
765.481	1391.25
765.664	1323.67
765.847	1305.24
766.03	1229.46
766.213	1288.85
766.397	1329.81
766.58	1264.28
766.763	1266.33
766.946	1288.85
767.129	1282.71
767.312	1208.98
767.495	1288.85
767.678	1174.17
767.861	1266.33
768.044	1202.84
768.227	1215.13
768.41	1284.76
768.593	1174.17
768.776	1190.55
768.959	1168.02
769.142	1186.46
769.324	1172.12
769.507	1186.46
769.69	1237.66
769.873	1215.13
770.056	1172.12
770.239	1208.98
770.421	1217.18
770.604	1149.59
770.787	1131.16
770.97	1051.29
771.152	1088.15
771.335	1122.97
771.518	1036.95
771.7	1198.74
771.883	1051.29
772.066	1057.43
772.248	1067.67
772.431	1034.91
772.613	1065.63
772.796	991.9
772.978	1059.48
773.161	1041.05
773.343	1055.39
773.526	1084.06
773.708	998.04
773.891	959.13
774.073	1061.53
774.256	1004.19
774.438	1057.43
774.621	987.8
774.803	981.66
774.985	1024.67
775.168	1008.28
775.35	909.98
775.532	955.04
775.715	905.88
775.897	973.47
776.079	912.03
776.261	920.22
776.444	850.59
776.626	1008.28
776.808	854.69
776.99	860.83
777.173	817.82
777.355	819.87
777.537	850.59
777.719	764.57
777.901	760.48
778.083	869.02
778.265	821.92
778.447	819.87
778.629	809.63
778.811	768.67
778.993	799.39
779.175	819.87
779.357	850.59
779.539	711.33
779.721	758.43
779.903	727.71
780.085	727.71
780.267	764.57
780.449	766.62
780.631	711.33
780.812	748.19
780.994	719.52
781.176	783.01
781.358	764.57
781.54	780.96
781.721	723.62
781.903	690.85
782.085	649.89
782.267	748.19
782.448	709.28
782.63	680.61
782.812	748.19
782.993	688.8
783.175	649.89
783.357	627.36
783.538	643.74
783.72	633.5
783.901	680.61
784.083	737.95
784.264	645.79
784.446	637.6
784.627	598.69
784.809	615.07
784.99	557.73
785.172	639.65
785.353	598.69
785.535	608.93
785.716	662.18
785.897	559.78
786.079	506.53
786.26	656.03
786.441	498.34
786.623	488.1
786.804	543.39
786.985	553.63
787.167	516.77
787.348	481.96
787.529	559.78
787.71	570.02
787.891	512.67
788.073	549.54
788.254	529.06
788.435	514.72
788.616	522.91
788.797	492.2
788.978	494.24
789.159	600.74
789.34	541.35
789.522	547.49
789.703	617.12
789.884	486.05
790.065	502.43
790.246	481.96
790.427	453.28
790.607	459.43
790.788	481.96
790.969	479.91
791.15	402.08
791.331	451.24
791.512	434.85
791.693	402.08
791.874	453.28
792.054	576.16
792.235	494.24
792.416	424.61
792.597	385.7
792.778	391.84
792.958	371.36
793.139	457.38
793.32	512.67
793.5	455.33
793.681	436.9
793.862	463.52
794.042	367.27
794.223	371.36
794.404	400.04
794.584	402.08
794.765	367.27
794.945	443.04
795.126	422.56
795.306	475.81
795.487	334.5
795.667	393.89
795.848	428.71
796.028	342.69
796.209	346.79
796.389	424.61
796.57	314.02
796.75	334.5
796.93	379.56
797.111	363.17
797.291	373.41
797.471	465.57
797.652	361.13
797.832	303.78
798.012	383.65
798.192	334.5
798.373	297.64
798.553	340.65
798.733	389.8
798.913	350.89
799.093	330.41
799.274	332.45
799.454	318.12
799.634	367.27
799.814	359.08
799.994	328.36
800.174	346.79
800.354	287.4
800.534	346.79
800.714	277.16
800.894	264.87
801.074	293.54
801.254	314.02
801.434	445.09
801.614	334.5
801.794	242.34
801.974	846.49
802.154	279.21
802.334	305.83
802.514	295.59
802.693	291.49
802.873	266.92
803.053	346.79
803.233	318.12
803.413	314.02
803.592	209.58
803.772	371.36
803.952	338.6
804.131	242.34
804.311	301.73
804.491	320.17
804.67	324.26
804.85	281.25
805.03	238.25
805.209	330.41
805.389	338.6
805.568	273.06
805.748	266.92
805.928	295.59
806.107	260.77
806.287	287.4
806.466	293.54
806.646	240.29
806.825	228.01
807.004	232.1
807.184	268.97
807.363	363.17
807.543	287.4
807.722	314.02
807.901	357.03
808.081	338.6
808.26	252.58
808.439	215.72
808.619	275.11
808.798	207.53
808.977	260.77
809.156	250.53
809.336	254.63
809.515	297.64
809.694	273.06
809.873	170.66
810.052	199.34
810.231	338.6
810.411	201.38
810.59	228.01
810.769	223.91
810.948	293.54
811.127	193.19
811.306	215.72
811.485	139.94
811.664	309.93
811.843	262.82
812.022	189.1
812.201	178.86
812.38	246.44
812.559	187.05
812.737	248.49
812.916	158.38
813.095	185
813.274	238.25
813.453	248.49
813.632	213.67
813.811	180.9
813.989	160.42
814.168	182.95
814.347	164.52
814.526	213.67
814.704	264.87
814.883	260.77
815.062	187.05
815.24	209.58
815.419	199.34
815.598	240.29
815.776	187.05
815.955	203.43
816.133	178.86
816.312	150.18
816.49	158.38
816.669	209.58
816.847	221.86
817.026	215.72
817.204	174.76
817.383	199.34
817.561	185
817.74	232.1
817.918	219.82
818.097	230.06
818.275	213.67
818.453	273.06
818.632	148.14
818.81	228.01
818.988	107.18
819.167	174.76
819.345	199.34
819.523	182.95
819.701	162.47
819.879	125.61
820.058	207.53
820.236	193.19
820.414	170.66
820.592	195.24
820.77	211.62
820.948	129.7
821.127	260.77
821.305	234.15
821.483	115.37
821.661	191.14
821.839	205.48
822.017	199.34
822.195	168.62
822.373	207.53
822.551	127.66
822.729	152.23
822.907	148.14
823.085	195.24
823.262	135.85
823.44	191.14
823.618	141.99
823.796	189.1
823.974	191.14
824.152	98.99
824.329	209.58
824.507	166.57
824.685	82.6
824.863	152.23
825.04	121.51
825.218	139.94
825.396	86.7
825.574	178.86
825.751	94.89
825.929	150.18
826.107	92.84
826.284	70.31
826.462	197.29
826.639	141.99
826.817	182.95
826.994	209.58
827.172	117.42
827.349	166.57
827.527	150.18
827.704	189.1
827.882	111.27
828.059	105.13
828.237	189.1
828.414	109.22
828.591	53.93
828.769	152.23
828.946	84.65
829.124	131.75
829.301	55.98
829.478	205.48
829.655	115.37
829.833	129.7
830.01	58.03
830.187	76.46
830.364	131.75
830.542	113.32
830.719	166.57
830.896	111.27
831.073	35.5
831.25	98.99
831.427	55.98
831.604	197.29
831.782	135.85
831.959	162.47
832.136	123.56
832.313	107.18
832.49	86.7
832.667	101.03
832.844	101.03
833.021	150.18
833.198	137.9
833.374	119.46
833.551	178.86
833.728	207.53
833.905	215.72
834.082	51.88
834.259	172.71
834.436	150.18
834.612	96.94
834.789	84.65
834.966	72.36
835.143	121.51
835.319	131.75
835.496	225.96
835.673	133.8
835.85	103.08
836.026	156.33
836.203	88.75
836.38	74.41
836.556	88.75
836.733	66.22
836.909	119.46
837.086	150.18
837.262	72.36
837.439	84.65
837.616	98.99
837.792	86.7
837.968	180.9
838.145	107.18
838.321	144.04
838.498	72.36
838.674	176.81
838.851	119.46
839.027	109.22
839.203	78.51
839.38	60.07
839.556	86.7
839.732	160.42
839.909	58.03
840.085	107.18
840.261	88.75
840.437	109.22
840.614	72.36
840.79	103.08
840.966	131.75
841.142	141.99
841.318	109.22
841.494	72.36
841.671	107.18
841.847	72.36
842.023	53.93
842.199	72.36
842.375	129.7
842.551	119.46
842.727	29.35
842.903	150.18
843.079	47.79
843.255	152.23
843.431	105.13
843.607	131.75
843.783	19.11
843.959	96.94
844.134	60.07
844.31	70.31
844.486	37.55
844.662	105.13
844.838	62.12
845.013	55.98
845.189	123.56
845.365	107.18
845.541	94.89
845.716	158.38
845.892	115.37
846.068	17.07
846.244	62.12
846.419	92.84
846.595	33.45
846.77	125.61
846.946	84.65
847.122	109.22
847.297	31.4
847.473	168.62
847.648	62.12
847.824	84.65
847.999	-15.7
848.175	-9.56
848.35	68.27
848.526	115.37
848.701	96.94
848.876	15.02
849.052	90.79
849.227	82.6
849.403	8.87
849.578	96.94
849.753	117.42
849.929	49.83
850.104	25.26
850.279	144.04
850.454	123.56
850.63	51.88
850.805	60.07
850.98	127.66
851.155	133.8
851.33	103.08
851.505	29.35
851.681	129.7
851.856	-66.9
852.031	78.51
852.206	107.18
852.381	66.22
852.556	-30.04
852.731	49.83
852.906	166.57
853.081	86.7
853.256	80.55
853.431	27.31
853.606	39.59
853.781	82.6
853.956	58.03
854.131	64.17
854.305	-5.46
854.48	66.22
854.655	37.55
854.83	60.07
855.005	2.73
855.18	80.55
855.354	68.27
855.529	109.22
855.704	12.97
855.879	27.31
856.053	27.31
856.228	51.88
856.403	78.51
856.577	76.46
856.752	60.07
856.926	51.88
857.101	68.27
857.276	-1.37
857.45	80.55
857.625	47.79
857.799	33.45
857.974	27.31
858.148	4.78
858.323	76.46
858.497	-3.41
858.672	39.59
858.846	-11.61
859.02	58.03
859.195	19.11
859.369	4.78
859.543	47.79
859.718	49.83
859.892	76.46
860.066	125.61
860.241	23.21
860.415	72.36
860.589	101.03
860.763	62.12
860.938	80.55
861.112	86.7
861.286	-79.19
861.46	78.51
861.634	10.92
861.808	127.66
861.982	-34.13
862.157	-38.23
862.331	66.22
862.505	33.45
862.679	76.46
862.853	23.21
863.027	27.31
863.201	141.99
863.375	33.45
863.549	82.6
863.722	86.7
863.896	27.31
864.07	27.31
864.244	15.02
864.418	51.88
864.592	84.65
864.766	2.73
864.939	66.22
865.113	-30.04
865.287	105.13
865.461	72.36
865.634	-42.32
865.808	72.36
865.982	27.31
866.156	19.11
866.329	39.59
866.503	17.07
866.676	103.08
866.85	27.31
867.024	74.41
867.197	2.73
867.371	31.4
867.544	72.36
867.718	-38.23
867.891	43.69
868.065	2.73
868.238	58.03
868.412	90.79
868.585	43.69
868.759	-46.42
868.932	47.79
869.105	58.03
869.279	62.12
869.452	-13.65
869.625	107.18
869.799	29.35
869.972	43.69
870.145	74.41
870.319	19.11
870.492	51.88
870.665	27.31
870.838	25.26
871.011	25.26
871.185	64.17
871.358	80.55
871.531	39.59
871.704	-7.51
871.877	49.83
872.05	51.88
872.223	-44.37
872.396	80.55
872.569	39.59
872.742	6.83
872.915	74.41
873.088	4.78
873.261	15.02
873.434	66.22
873.607	47.79
873.78	66.22
873.953	-36.18
874.126	-25.94
874.299	-5.46
874.471	25.26
874.644	58.03
874.817	60.07
874.99	74.41
875.163	-9.56
875.335	17.07
875.508	21.16
875.681	-11.61
875.853	-62.8
876.026	31.4
876.199	-1.37
876.371	23.21
876.544	15.02
876.717	80.55
876.889	103.08
877.062	19.11
877.234	39.59
877.407	-17.75
877.579	15.02
877.752	2.73
877.924	60.07
878.097	47.79
878.269	-1.37
878.442	41.64
878.614	-11.61
878.786	96.94
878.959	-21.85
879.131	43.69
879.303	27.31
879.476	27.31
879.648	64.17
879.82	68.27
879.993	31.4
880.165	62.12
880.337	15.02
880.509	105.13
880.681	-21.85
880.854	27.31
881.026	0.68
881.198	49.83
881.37	43.69
881.542	90.79
881.714	10.92
881.886	-46.42
882.058	21.16
882.23	35.5
882.402	51.88
882.574	-17.75
882.746	43.69
882.918	172.71
883.09	27.31
883.262	51.88
883.434	-9.56
883.606	6.83
883.778	158.38
883.95	133.8
884.122	58.03
884.293	72.36
884.465	51.88
884.637	64.17
884.809	94.89
884.98	86.7
885.152	27.31
885.324	0.68
885.496	6.83
885.667	27.31
885.839	115.37
886.011	10.92
886.182	-32.08
886.354	55.98
886.525	43.69
886.697	25.26
886.869	-25.94
887.04	23.21
887.212	27.31
887.383	68.27
887.555	8.87
887.726	19.11
887.897	41.64
888.069	33.45
888.24	60.07
888.412	51.88
888.583	41.64
888.754	17.07
888.926	-21.85
889.097	-7.51
889.268	-13.65
889.44	33.45
889.611	-40.28
889.782	12.97
889.953	-1.37
890.125	47.79
890.296	17.07
890.467	8.87
890.638	70.31
890.809	31.4
890.98	-5.46
891.151	43.69
891.323	43.69
891.494	8.87
891.665	29.35
891.836	31.4
892.007	39.59
892.178	19.11
892.349	-17.75
892.52	0.68
892.691	-34.13
892.862	0.68
893.032	-5.46
893.203	60.07
893.374	6.83
893.545	49.83
893.716	25.26
893.887	35.5
894.057	-13.65
894.228	43.69
894.399	-17.75
894.57	21.16
894.74	10.92
894.911	43.69
895.082	-73.04
895.253	27.31
895.423	92.84
895.594	23.21
895.764	49.83
895.935	53.93
896.106	53.93
896.276	10.92
896.447	6.83
896.617	98.99
896.788	-40.28
896.958	74.41
897.129	27.31
897.299	-3.41
897.47	115.37
897.64	12.97
897.81	-34.13
897.981	60.07
898.151	68.27
898.322	41.64
898.492	86.7
898.662	8.87
898.832	68.27
899.003	101.03
899.173	35.5
899.343	10.92
899.513	17.07
