Data from USB4F104151__36__10-22-12-444.txt Node

Date: Wed Mar 12 10:22:12 EDT 2025
User: louis
Spectrometer: USB4F10415
Trigger mode: 4
Integration Time (sec): 3.000000E-2
Scans to average: 1
Electric dark correction enabled: true
Nonlinearity correction enabled: false
Boxcar width: 0
XAxis mode: Wavelengths
Number of Pixels in Spectrum: 3648
>>>>>Begin Spectral Data<<<<<
178.204	-114.52
178.424	-114.52
178.644	-114.52
178.864	-91.99
179.084	-102.23
179.304	14.51
179.524	14.51
179.744	61.61
179.964	-1.88
180.184	34.99
180.404	26.79
180.624	-46.93
180.844	-96.08
181.064	-48.98
181.283	-14.17
181.503	-1.88
181.723	57.51
181.943	-36.69
182.163	96.43
182.383	55.47
182.602	71.85
182.822	41.13
183.042	43.18
183.262	-14.17
183.482	20.65
183.701	55.47
183.921	-34.64
184.141	-20.31
184.361	139.43
184.58	-1.88
184.8	57.51
185.02	43.18
185.239	18.6
185.459	41.13
185.679	69.8
185.898	-46.93
186.118	80.04
186.338	-14.17
186.557	61.61
186.777	-51.03
186.997	45.23
187.216	45.23
187.436	16.55
187.655	45.23
187.875	28.84
188.095	-10.07
188.314	-1.88
188.534	96.43
188.753	8.36
188.973	6.31
189.192	12.46
189.412	75.95
189.631	57.51
189.851	37.03
190.07	75.95
190.29	-55.12
190.509	28.84
190.729	6.31
190.948	57.51
191.168	127.14
191.387	49.32
191.607	10.41
191.826	-5.97
192.045	24.75
192.265	53.42
192.484	39.08
192.704	32.94
192.923	-3.93
193.142	65.71
193.362	8.36
193.581	127.14
193.8	47.27
194.02	43.18
194.239	12.46
194.458	59.56
194.678	43.18
194.897	12.46
195.116	-34.64
195.335	63.66
195.555	100.52
195.774	-10.07
195.993	34.99
196.212	57.51
196.432	49.32
196.651	-42.84
196.87	24.75
197.089	90.28
197.308	51.37
197.528	34.99
197.747	14.51
197.966	14.51
198.185	77.99
198.404	24.75
198.623	-5.97
198.842	86.19
199.062	28.84
199.281	-3.93
199.5	55.47
199.719	32.94
199.938	65.71
200.157	49.32
200.376	116.9
200.595	34.99
200.814	6.31
201.033	26.79
201.252	14.51
201.471	39.08
201.69	14.51
201.909	57.51
202.128	-8.02
202.347	39.08
202.566	-28.5
202.785	2.22
203.004	26.79
203.223	20.65
203.442	102.57
203.661	-34.64
203.879	30.89
204.098	49.32
204.317	8.36
204.536	55.47
204.755	41.13
204.974	30.89
205.193	-3.93
205.411	84.14
205.63	-34.64
205.849	67.75
206.068	12.46
206.287	43.18
206.505	-1.88
206.724	4.27
206.943	67.75
207.162	34.99
207.381	32.94
207.599	-48.98
207.818	37.03
208.037	37.03
208.255	75.95
208.474	47.27
208.693	-48.98
208.911	-30.55
209.13	2.22
209.349	49.32
209.567	-16.21
209.786	80.04
210.005	-44.88
210.223	47.27
210.442	-71.51
210.661	57.51
210.879	10.41
211.098	51.37
211.316	-42.84
211.535	59.56
211.753	26.79
211.972	67.75
212.191	112.81
212.409	77.99
212.628	75.95
212.846	67.75
213.065	-12.12
213.283	-1.88
213.502	47.27
213.72	20.65
213.938	41.13
214.157	41.13
214.375	47.27
214.594	22.7
214.812	-1.88
215.031	-8.02
215.249	-1.88
215.467	108.71
215.686	34.99
215.904	6.31
216.122	75.95
216.341	84.14
216.559	45.23
216.778	-10.07
216.996	53.42
217.214	34.99
217.432	96.43
217.651	-34.64
217.869	6.31
218.087	6.31
218.306	20.65
218.524	-8.02
218.742	45.23
218.96	39.08
219.179	-5.97
219.397	55.47
219.615	49.32
219.833	20.65
220.051	-42.84
220.27	28.84
220.488	43.18
220.706	47.27
220.924	41.13
221.142	55.47
221.36	73.9
221.578	6.31
221.796	26.79
222.015	53.42
222.233	67.75
222.451	18.6
222.669	-18.26
222.887	4.27
223.105	2.22
223.323	55.47
223.541	-34.64
223.759	82.09
223.977	20.65
224.195	45.23
224.413	55.47
224.631	71.85
224.849	96.43
225.067	86.19
225.285	24.75
225.503	71.85
225.721	0.17
225.939	-12.12
226.157	53.42
226.375	116.9
226.592	6.31
226.81	90.28
227.028	2.22
227.246	94.38
227.464	12.46
227.682	96.43
227.9	-16.21
228.117	92.33
228.335	22.7
228.553	-14.17
228.771	22.7
228.989	39.08
229.206	-5.97
229.424	57.51
229.642	-3.93
229.86	12.46
230.077	20.65
230.295	80.04
230.513	41.13
230.731	-14.17
230.948	30.89
231.166	63.66
231.384	67.75
231.601	73.9
231.819	63.66
232.037	30.89
232.254	28.84
232.472	57.51
232.689	-5.97
232.907	53.42
233.125	28.84
233.342	16.55
233.56	20.65
233.777	-3.93
233.995	86.19
234.213	116.9
234.43	80.04
234.648	96.43
234.865	110.76
235.083	4.27
235.3	92.33
235.518	102.57
235.735	82.09
235.953	-18.26
236.17	86.19
236.388	75.95
236.605	-20.31
236.822	82.09
237.04	53.42
237.257	12.46
237.475	22.7
237.692	30.89
237.909	80.04
238.127	41.13
238.344	59.56
238.562	67.75
238.779	32.94
238.996	6.31
239.214	75.95
239.431	57.51
239.648	77.99
239.865	37.03
240.083	108.71
240.3	118.95
240.517	-24.4
240.735	-26.45
240.952	75.95
241.169	96.43
241.386	110.76
241.603	145.58
241.821	-51.03
242.038	37.03
242.255	61.61
242.472	-12.12
242.689	47.27
242.907	100.52
243.124	30.89
243.341	12.46
243.558	43.18
243.775	57.51
243.992	61.61
244.209	-1.88
244.426	67.75
244.643	53.42
244.86	69.8
245.078	45.23
245.295	12.46
245.512	88.23
245.729	18.6
245.946	71.85
246.163	86.19
246.38	-22.36
246.597	22.7
246.814	-10.07
247.031	4.27
247.248	45.23
247.464	59.56
247.681	12.46
247.898	20.65
248.115	14.51
248.332	-24.4
248.549	69.8
248.766	53.42
248.983	45.23
249.2	96.43
249.417	22.7
249.633	55.47
249.85	125.1
250.067	37.03
250.284	84.14
250.501	88.23
250.717	22.7
250.934	6.31
251.151	16.55
251.368	41.13
251.585	69.8
251.801	43.18
252.018	22.7
252.235	47.27
252.451	47.27
252.668	71.85
252.885	26.79
253.102	98.47
253.318	133.29
253.535	-30.55
253.752	20.65
253.968	63.66
254.185	51.37
254.401	34.99
254.618	131.24
254.835	14.51
255.051	39.08
255.268	-5.97
255.484	14.51
255.701	47.27
255.917	39.08
256.134	-5.97
256.351	86.19
256.567	12.46
256.784	10.41
257	47.27
257.217	14.51
257.433	143.53
257.65	51.37
257.866	30.89
258.082	10.41
258.299	116.9
258.515	37.03
258.732	41.13
258.948	49.32
259.165	30.89
259.381	28.84
259.597	94.38
259.814	61.61
260.03	55.47
260.246	-10.07
260.463	82.09
260.679	92.33
260.895	2.22
261.112	43.18
261.328	-5.97
261.544	14.51
261.761	96.43
261.977	10.41
262.193	24.75
262.409	18.6
262.626	51.37
262.842	37.03
263.058	16.55
263.274	69.8
263.49	96.43
263.707	98.47
263.923	75.95
264.139	-18.26
264.355	39.08
264.571	96.43
264.787	26.79
265.004	108.71
265.22	12.46
265.436	18.6
265.652	6.31
265.868	22.7
266.084	43.18
266.3	71.85
266.516	63.66
266.732	53.42
266.948	14.51
267.164	-36.69
267.38	53.42
267.596	32.94
267.812	53.42
268.028	32.94
268.244	-24.4
268.46	0.17
268.676	8.36
268.892	118.95
269.108	-55.12
269.324	14.51
269.54	-28.5
269.756	90.28
269.972	-10.07
270.188	65.71
270.403	30.89
270.619	22.7
270.835	32.94
271.051	22.7
271.267	20.65
271.483	55.47
271.698	67.75
271.914	112.81
272.13	37.03
272.346	26.79
272.562	121
272.777	45.23
272.993	59.56
273.209	22.7
273.425	47.27
273.64	0.17
273.856	47.27
274.072	12.46
274.287	30.89
274.503	49.32
274.719	34.99
274.934	39.08
275.15	59.56
275.366	102.57
275.581	12.46
275.797	14.51
276.012	20.65
276.228	-8.02
276.444	-75.6
276.659	22.7
276.875	71.85
277.09	57.51
277.306	86.19
277.521	-28.5
277.737	26.79
277.952	20.65
278.168	45.23
278.383	-18.26
278.599	112.81
278.814	59.56
279.03	43.18
279.245	88.23
279.461	18.6
279.676	32.94
279.892	0.17
280.107	51.37
280.322	37.03
280.538	65.71
280.753	2.22
280.969	57.51
281.184	30.89
281.399	77.99
281.615	43.18
281.83	82.09
282.045	32.94
282.26	49.32
282.476	75.95
282.691	80.04
282.906	-12.12
283.122	55.47
283.337	-20.31
283.552	-3.93
283.767	75.95
283.983	39.08
284.198	6.31
284.413	57.51
284.628	-28.5
284.843	22.7
285.058	34.99
285.274	-12.12
285.489	34.99
285.704	90.28
285.919	34.99
286.134	61.61
286.349	51.37
286.564	14.51
286.779	86.19
286.995	69.8
287.21	-3.93
287.425	86.19
287.64	63.66
287.855	12.46
288.07	-59.22
288.285	92.33
288.5	149.67
288.715	45.23
288.93	0.17
289.145	39.08
289.36	184.49
289.575	28.84
289.79	61.61
290.004	59.56
290.219	43.18
290.434	84.14
290.649	22.7
290.864	18.6
291.079	32.94
291.294	94.38
291.509	59.56
291.724	43.18
291.938	39.08
292.153	80.04
292.368	77.99
292.583	14.51
292.798	12.46
293.012	155.82
293.227	75.95
293.442	61.61
293.657	96.43
293.871	84.14
294.086	92.33
294.301	100.52
294.516	67.75
294.73	96.43
294.945	-1.88
295.16	82.09
295.374	80.04
295.589	129.19
295.804	61.61
296.018	67.75
296.233	102.57
296.447	96.43
296.662	47.27
296.877	166.06
297.091	90.28
297.306	32.94
297.52	63.66
297.735	80.04
297.949	41.13
298.164	53.42
298.378	45.23
298.593	12.46
298.807	65.71
299.022	16.55
299.236	86.19
299.451	14.51
299.665	69.8
299.88	18.6
300.094	57.51
300.309	71.85
300.523	59.56
300.737	24.75
300.952	39.08
301.166	112.81
301.381	26.79
301.595	131.24
301.809	4.27
302.024	8.36
302.238	28.84
302.452	55.47
302.667	34.99
302.881	123.05
303.095	16.55
303.309	-8.02
303.524	20.65
303.738	80.04
303.952	-67.41
304.166	-40.79
304.381	47.27
304.595	75.95
304.809	102.57
305.023	71.85
305.237	-18.26
305.452	67.75
305.666	77.99
305.88	84.14
306.094	94.38
306.308	39.08
306.522	10.41
306.736	98.47
306.95	86.19
307.164	30.89
307.379	14.51
307.593	88.23
307.807	86.19
308.021	86.19
308.235	67.75
308.449	-3.93
308.663	6.31
308.877	73.9
309.091	45.23
309.305	86.19
309.519	-46.93
309.733	94.38
309.947	22.7
310.161	55.47
310.374	114.86
310.588	96.43
310.802	14.51
311.016	47.27
311.23	157.86
311.444	8.36
311.658	53.42
311.872	24.75
312.085	49.32
312.299	49.32
312.513	16.55
312.727	32.94
312.941	14.51
313.154	28.84
313.368	41.13
313.582	39.08
313.796	6.31
314.009	41.13
314.223	110.76
314.437	18.6
314.651	22.7
314.864	67.75
315.078	57.51
315.292	55.47
315.505	129.19
315.719	-5.97
315.933	73.9
316.146	75.95
316.36	-5.97
316.573	71.85
316.787	106.67
317.001	84.14
317.214	14.51
317.428	65.71
317.641	55.47
317.855	57.51
318.068	147.62
318.282	63.66
318.495	69.8
318.709	59.56
318.922	112.81
319.136	133.29
319.349	84.14
319.563	51.37
319.776	47.27
319.99	-12.12
320.203	94.38
320.417	84.14
320.63	100.52
320.843	125.1
321.057	80.04
321.27	-30.55
321.483	12.46
321.697	96.43
321.91	71.85
322.124	32.94
322.337	61.61
322.55	30.89
322.763	57.51
322.977	121
323.19	14.51
323.403	47.27
323.617	24.75
323.83	14.51
324.043	-18.26
324.256	96.43
324.469	49.32
324.683	77.99
324.896	16.55
325.109	63.66
325.322	2.22
325.535	92.33
325.748	59.56
325.962	43.18
326.175	67.75
326.388	4.27
326.601	67.75
326.814	67.75
327.027	30.89
327.24	73.9
327.453	65.71
327.666	71.85
327.879	112.81
328.092	67.75
328.305	73.9
328.518	14.51
328.731	47.27
328.944	55.47
329.157	77.99
329.37	39.08
329.583	30.89
329.796	77.99
330.009	4.27
330.222	63.66
330.435	65.71
330.648	157.86
330.861	45.23
331.073	63.66
331.286	137.38
331.499	47.27
331.712	10.41
331.925	34.99
332.138	20.65
332.35	112.81
332.563	100.52
332.776	41.13
332.989	45.23
333.202	37.03
333.414	102.57
333.627	110.76
333.84	20.65
334.053	116.9
334.265	2.22
334.478	59.56
334.691	71.85
334.903	34.99
335.116	61.61
335.329	131.24
335.541	63.66
335.754	100.52
335.966	8.36
336.179	102.57
336.392	-1.88
336.604	57.51
336.817	104.62
337.029	59.56
337.242	47.27
337.454	77.99
337.667	63.66
337.88	75.95
338.092	75.95
338.305	104.62
338.517	49.32
338.729	47.27
338.942	98.47
339.154	22.7
339.367	47.27
339.579	65.71
339.792	39.08
340.004	26.79
340.217	18.6
340.429	28.84
340.641	30.89
340.854	39.08
341.066	6.31
341.278	47.27
341.491	127.14
341.703	121
341.915	47.27
342.128	30.89
342.34	2.22
342.552	84.14
342.764	59.56
342.977	88.23
343.189	14.51
343.401	47.27
343.613	61.61
343.826	30.89
344.038	88.23
344.25	55.47
344.462	69.8
344.674	41.13
344.886	26.79
345.099	94.38
345.311	47.27
345.523	26.79
345.735	-20.31
345.947	67.75
346.159	57.51
346.371	55.47
346.583	69.8
346.795	80.04
347.007	26.79
347.219	88.23
347.431	10.41
347.643	80.04
347.855	114.86
348.067	121
348.279	34.99
348.491	75.95
348.703	4.27
348.915	18.6
349.127	51.37
349.339	77.99
349.551	37.03
349.763	51.37
349.975	90.28
350.187	37.03
350.399	61.61
350.61	61.61
350.822	86.19
351.034	41.13
351.246	86.19
351.458	110.76
351.669	53.42
351.881	190.63
352.093	71.85
352.305	53.42
352.517	47.27
352.728	84.14
352.94	100.52
353.152	84.14
353.363	10.41
353.575	65.71
353.787	96.43
353.999	32.94
354.21	45.23
354.422	84.14
354.633	-8.02
354.845	55.47
355.057	51.37
355.268	92.33
355.48	88.23
355.692	45.23
355.903	39.08
356.115	24.75
356.326	-16.21
356.538	118.95
356.749	80.04
356.961	86.19
357.172	-26.45
357.384	22.7
357.595	80.04
357.807	43.18
358.018	51.37
358.23	6.31
358.441	26.79
358.653	45.23
358.864	77.99
359.075	18.6
359.287	47.27
359.498	53.42
359.709	20.65
359.921	55.47
360.132	34.99
360.344	32.94
360.555	57.51
360.766	22.7
360.977	8.36
361.189	61.61
361.4	90.28
361.611	121
361.823	108.71
362.034	108.71
362.245	-10.07
362.456	51.37
362.667	71.85
362.879	133.29
363.09	61.61
363.301	39.08
363.512	116.9
363.723	129.19
363.935	96.43
364.146	53.42
364.357	63.66
364.568	30.89
364.779	18.6
364.99	61.61
365.201	37.03
365.412	114.86
365.623	30.89
365.834	61.61
366.045	108.71
366.256	32.94
366.467	-12.12
366.678	57.51
366.889	71.85
367.1	39.08
367.311	84.14
367.522	10.41
367.733	116.9
367.944	69.8
368.155	45.23
368.366	125.1
368.577	39.08
368.788	133.29
368.999	12.46
369.209	88.23
369.42	69.8
369.631	102.57
369.842	47.27
370.053	73.9
370.264	73.9
370.474	47.27
370.685	86.19
370.896	55.47
371.107	96.43
371.317	121
371.528	141.48
371.739	61.61
371.95	39.08
372.16	129.19
372.371	75.95
372.582	131.24
372.792	55.47
373.003	39.08
373.214	30.89
373.424	145.58
373.635	6.31
373.846	34.99
374.056	30.89
374.267	84.14
374.477	47.27
374.688	73.9
374.898	57.51
375.109	30.89
375.319	118.95
375.53	65.71
375.74	12.46
375.951	32.94
376.161	100.52
376.372	-18.26
376.582	34.99
376.793	96.43
377.003	14.51
377.214	86.19
377.424	75.95
377.635	67.75
377.845	43.18
378.055	59.56
378.266	88.23
378.476	88.23
378.686	67.75
378.897	18.6
379.107	104.62
379.317	108.71
379.528	53.42
379.738	88.23
379.948	67.75
380.158	73.9
380.369	18.6
380.579	80.04
380.789	34.99
380.999	69.8
381.21	86.19
381.42	92.33
381.63	-22.36
381.84	71.85
382.05	53.42
382.261	92.33
382.471	84.14
382.681	82.09
382.891	112.81
383.101	110.76
383.311	90.28
383.521	100.52
383.731	137.38
383.941	129.19
384.151	98.47
384.361	133.29
384.571	63.66
384.781	86.19
384.991	108.71
385.201	22.7
385.411	94.38
385.621	32.94
385.831	92.33
386.041	125.1
386.251	88.23
386.461	51.37
386.671	-5.97
386.881	28.84
387.091	51.37
387.301	22.7
387.511	106.67
387.72	110.76
387.93	57.51
388.14	16.55
388.35	73.9
388.56	53.42
388.769	92.33
388.979	141.48
389.189	71.85
389.399	129.19
389.609	84.14
389.818	94.38
390.028	55.47
390.238	69.8
390.447	47.27
390.657	108.71
390.867	55.47
391.076	145.58
391.286	125.1
391.496	92.33
391.705	71.85
391.915	94.38
392.125	112.81
392.334	88.23
392.544	123.05
392.753	82.09
392.963	125.1
393.172	84.14
393.382	75.95
393.591	112.81
393.801	61.61
394.01	108.71
394.22	123.05
394.429	104.62
394.639	96.43
394.848	98.47
395.058	121
395.267	84.14
395.477	100.52
395.686	166.06
395.895	80.04
396.105	104.62
396.314	172.2
396.524	123.05
396.733	34.99
396.942	161.96
397.152	207.02
397.361	164.01
397.57	116.9
397.78	155.82
397.989	153.77
398.198	172.2
398.407	176.3
398.617	153.77
398.826	49.32
399.035	182.44
399.244	121
399.453	100.52
399.663	159.91
399.872	131.24
400.081	84.14
400.29	227.5
400.499	98.47
400.708	213.16
400.917	90.28
401.127	207.02
401.336	63.66
401.545	174.25
401.754	161.96
401.963	135.34
402.172	213.16
402.381	182.44
402.59	135.34
402.799	161.96
403.008	125.1
403.217	139.43
403.426	145.58
403.635	256.17
403.844	211.11
404.053	141.48
404.262	209.06
404.471	176.3
404.68	200.87
404.888	157.86
405.097	182.44
405.306	235.69
405.515	276.65
405.724	202.92
405.933	266.41
406.142	268.45
406.35	237.74
406.559	221.35
406.768	239.78
406.977	274.6
407.185	243.88
407.394	297.13
407.603	229.54
407.812	258.21
408.02	278.69
408.229	313.51
408.438	309.41
408.646	338.09
408.855	331.94
409.064	395.43
409.272	333.99
409.481	360.61
409.69	321.7
409.898	354.47
410.107	381.09
410.315	483.49
410.524	409.76
410.733	485.54
410.941	503.97
411.15	448.68
411.358	497.83
411.567	510.11
411.775	456.87
411.984	579.75
412.192	557.22
412.401	551.07
412.609	680.1
412.818	573.6
413.026	663.71
413.234	610.47
413.443	708.77
413.651	667.81
413.86	737.44
414.068	741.54
414.276	790.69
414.485	790.69
414.693	811.17
414.901	845.98
415.11	858.27
415.318	833.69
415.526	925.85
415.734	970.91
415.943	1042.59
416.151	1081.5
416.359	979.1
416.567	1144.99
416.776	1185.94
416.984	1177.75
417.192	1261.72
417.4	1202.33
417.608	1183.9
417.817	1345.69
418.025	1296.53
418.233	1489.04
418.441	1489.04
418.649	1411.22
418.857	1560.72
419.065	1669.27
419.273	1689.74
419.481	1767.57
419.689	1816.72
419.897	1908.88
420.105	1990.8
420.313	2031.76
420.521	2001.04
420.729	2119.82
420.937	2115.72
421.145	2295.94
421.353	2326.66
421.561	2390.15
421.769	2504.84
421.977	2615.43
422.185	2709.63
422.393	2783.36
422.601	2836.61
422.809	2961.53
423.017	2963.58
423.224	3051.64
423.432	3199.1
423.64	3369.08
423.848	3393.65
424.056	3414.13
424.263	3651.7
424.471	3752.05
424.679	3627.12
424.887	3911.79
425.094	4022.38
425.302	4020.33
425.51	4208.75
425.718	4339.82
425.925	4356.2
426.133	4517.99
426.341	4956.26
426.548	4976.73
426.756	4997.21
426.964	5011.55
427.171	5365.85
427.379	5519.45
427.586	5396.57
427.794	5761.11
428.001	6015.05
428.209	6400.07
428.417	6023.25
428.624	6826.05
428.832	6731.84
429.039	6604.87
429.247	6379.59
429.454	7368.76
429.662	7788.6
429.869	7147.58
430.076	7727.16
430.284	7542.84
430.491	7802.93
430.699	8140.85
430.906	8331.31
431.114	8226.86
431.321	8669.22
431.528	8962.08
431.736	9451.55
431.943	9928.72
432.15	9465.88
432.358	9789.46
432.565	10358.8
432.772	10074.13
432.979	10590.22
433.187	10926.08
433.394	10965
433.601	11739.13
433.808	11735.03
434.016	11431.93
434.223	12271.6
434.43	12929
434.637	12371.95
434.844	13369.31
435.052	13875.16
435.259	13502.43
435.466	13785.05
435.673	13479.9
435.88	14643.15
436.087	15251.39
436.294	15306.69
436.501	14782.41
436.708	15216.58
436.915	15607.74
437.122	16306.1
437.329	16123.83
437.537	16742.32
437.743	17188.77
437.95	17063.85
438.157	17624.99
438.364	18323.35
438.571	18530.19
438.778	18468.75
438.985	19892.09
439.192	19615.62
439.399	20129.66
439.606	19947.39
439.813	20694.89
440.02	21952.35
440.227	21331.81
440.433	21432.16
440.64	22228.82
440.847	22062.94
441.054	22333.27
441.261	23723.84
441.467	23629.63
441.674	24110.91
441.881	24977.2
442.088	25098.03
442.294	24575.8
442.501	25691.94
442.708	25935.65
442.914	27068.17
443.121	27641.6
443.328	27377.42
443.534	29153.01
443.741	28315.39
443.948	27701
444.154	29802.21
444.361	29986.53
444.568	29789.92
444.774	30148.32
444.981	30197.47
445.187	31286.99
445.394	32227.01
445.6	31891.14
445.807	35212.95
446.013	33593
446.22	33803.94
446.426	35446.41
446.633	35587.72
446.839	36611.71
447.046	35432.08
447.252	37346.93
447.459	37422.7
447.665	36824.7
447.871	38784.6
448.078	40232.52
448.284	38624.86
448.491	38977.11
448.697	41010.74
448.903	41643.57
449.11	41731.63
449.316	41170.49
449.522	41451.06
449.728	42685.98
449.935	42991.13
450.141	42866.2
450.347	43722.26
450.553	42458.66
450.76	42862.11
450.966	44328.45
451.172	43544.08
451.378	45125.11
451.584	43990.54
451.791	44881.41
451.997	44877.31
452.203	45547
452.409	45561.33
452.615	44914.17
452.821	43838.99
453.027	43085.34
453.233	45282.81
453.44	43286.04
453.646	43761.17
453.852	44162.57
454.058	44762.62
454.264	43185.69
454.47	44328.45
454.676	42905.12
454.882	44359.17
455.088	41213.49
455.294	41256.5
455.5	41616.94
455.705	42442.28
455.911	40502.85
456.117	39933.51
456.323	39341.65
456.529	37232.24
456.735	38487.65
456.941	37693.04
457.147	37092.98
457.352	36458.11
457.558	35645.07
457.764	35509.9
457.97	35280.53
458.176	34162.34
458.381	34285.22
458.587	32454.33
458.793	32863.93
458.999	30584.54
459.204	33222.32
459.41	31966.91
459.616	30244.57
459.821	29880.03
460.027	30361.31
460.233	29099.76
460.438	28061.44
460.644	28264.19
460.85	26787.6
461.055	26554.13
461.261	26701.59
461.466	24688.43
461.672	23893.82
461.878	25716.51
462.083	24022.84
462.289	23611.2
462.494	23271.24
462.7	22458.2
462.905	21596
463.111	22353.75
463.316	22505.3
463.522	22093.66
463.727	22024.03
463.932	21958.49
464.138	21774.17
464.343	22073.18
464.549	21049.19
464.754	22337.37
464.959	21733.22
465.165	21450.6
465.37	20545.39
465.575	20475.76
465.781	20950.89
465.986	21020.52
466.191	20156.28
466.397	20209.53
466.602	19007.37
466.807	19703.68
467.012	19752.83
467.218	19863.42
467.423	19414.91
467.628	19552.13
467.833	20469.62
468.038	19154.82
468.244	19091.34
468.449	19705.73
468.654	19187.59
468.859	19044.23
469.064	18857.87
469.269	17971.1
469.474	18296.72
469.679	18902.92
469.885	18247.57
470.09	18329.49
470.295	18231.19
470.5	18136.98
470.705	18259.86
470.91	17553.31
471.115	17289.12
471.32	17706.91
471.525	17325.99
471.73	16981.93
471.935	16992.17
472.139	16502.7
472.344	16523.18
472.549	16682.92
472.754	16428.98
472.959	16025.53
473.164	15718.33
473.369	15380.42
473.574	15855.54
473.778	16017.33
473.983	15755.19
474.188	15876.02
474.393	15013.83
474.598	15028.17
474.802	14921.67
475.007	14907.34
475.212	14782.41
475.417	14174.16
475.621	14305.23
475.826	14342.1
476.031	14122.96
476.235	14012.37
476.44	13936.6
476.645	13613.02
476.849	13727.71
477.054	13635.55
477.259	13207.52
477.463	13406.17
477.668	13064.16
477.872	13072.36
478.077	12937.19
478.282	12679.15
478.486	12761.06
478.691	12701.67
478.895	12629.99
479.1	12347.37
479.304	12503.02
479.509	12081.14
479.713	12445.68
479.918	12036.08
480.122	12062.71
480.326	12072.95
480.531	12302.32
480.735	12072.95
480.94	11847.67
481.144	12103.67
481.348	11661.3
481.553	11814.9
481.757	11450.36
481.961	11915.25
482.166	11886.58
482.37	11892.73
482.574	11462.65
482.778	11638.78
482.983	11667.45
483.187	11708.41
483.391	11612.15
483.595	11474.94
483.8	11589.63
484.004	11630.59
484.208	11728.89
484.412	11821.05
484.616	11673.59
484.821	11683.83
485.025	11517.95
485.229	11679.74
485.433	11438.08
485.637	11722.74
485.841	11438.08
486.045	11610.11
486.249	11569.15
486.453	11767.8
486.657	11509.76
486.861	11857.91
487.065	11364.35
487.269	11577.34
487.473	11436.03
487.677	11876.34
487.881	11735.03
488.085	11421.69
488.289	11696.12
488.493	11718.65
488.697	11915.25
488.901	11732.98
489.105	11708.41
489.309	11751.42
489.512	11632.63
489.716	11845.62
489.92	11925.49
490.124	11939.83
490.328	12138.48
490.531	11982.84
490.735	11986.93
490.939	12007.41
491.143	11888.63
491.346	12122.1
491.55	12300.27
491.754	12261.36
491.958	12369.9
492.161	12292.08
492.365	12394.48
492.569	12470.25
492.772	12107.76
492.976	12644.33
493.18	12619.75
493.383	12804.07
493.587	12711.91
493.79	13101.03
493.994	12859.37
494.197	12908.52
494.401	12920.81
494.605	13043.68
494.808	13354.97
495.012	13369.31
495.215	13447.13
495.419	13473.76
495.622	13615.07
495.825	13647.83
496.029	13604.83
496.232	14096.34
496.436	14000.09
496.639	14266.32
496.843	14268.37
497.046	14456.78
497.249	14503.89
497.453	14852.04
497.656	14946.25
497.859	15099.84
498.063	15169.48
498.266	15652.8
498.469	15333.31
498.673	15679.42
498.876	15812.54
499.079	15945.66
499.282	15988.66
499.485	16510.89
499.689	16441.26
499.892	16660.4
500.095	16727.98
500.298	17131.43
500.501	17166.24
500.705	17465.25
500.908	17631.13
501.111	17639.33
501.314	17797.02
501.517	18358.16
501.72	18376.59
501.923	18499.47
502.126	18933.64
502.329	19134.34
502.532	19306.37
502.735	19459.97
502.938	19722.11
503.141	19799.93
503.344	20017.02
503.547	20346.74
503.75	20504.43
503.953	20873.07
504.156	21139.3
504.359	20887.4
504.562	21292.9
504.765	21708.64
504.968	21876.57
505.17	22351.7
505.373	21983.07
505.576	22286.17
505.779	22949.71
505.982	23015.24
506.185	23701.31
506.387	23304.01
506.59	23705.41
506.793	24098.62
506.996	24274.74
507.198	25009.97
507.401	24821.55
507.604	25100.08
507.807	25739.04
508.009	25878.3
508.212	25806.62
508.415	25870.11
508.617	26605.33
508.82	26453.78
509.022	26410.78
509.225	27477.77
509.428	27393.8
509.63	27703.04
509.833	27799.3
510.035	28466.94
510.238	28317.43
510.44	28985.07
510.643	29175.53
510.845	29335.28
511.048	29359.85
511.25	29714.15
511.453	30074.59
511.655	31260.37
511.858	30639.83
512.06	30895.83
512.262	31577.8
512.465	31393.48
512.667	32028.35
512.87	32171.71
513.072	32542.39
513.274	32853.69
513.477	33640.11
513.679	33535.66
513.881	34180.77
514.084	34340.51
514.286	34074.27
514.488	34594.46
514.69	35583.63
514.893	35534.48
515.095	35913.35
515.297	36251.27
515.499	36507.26
515.701	36800.12
515.904	36941.43
516.106	37211.76
516.308	37471.85
516.51	37891.69
516.712	38264.42
516.914	38493.79
517.116	39468.62
517.318	39427.67
517.52	39880.27
517.722	39915.08
517.925	40398.4
518.127	40853.05
518.329	41162.29
518.531	40822.33
518.733	42047.02
518.935	41854.51
519.136	41915.95
519.338	42794.53
519.54	42901.02
519.742	43359.77
519.944	43152.92
520.146	44068.36
520.348	44637.7
520.55	44746.24
520.752	44768.77
520.954	45587.96
521.155	45503.99
521.357	45917.68
521.559	46190.06
521.761	46919.13
521.963	46464.49
522.164	47087.07
522.366	47480.28
522.568	47898.06
522.77	48186.83
522.971	48876.99
523.173	48645.57
523.375	49053.12
523.576	48979.39
523.778	49008.06
523.98	49802.67
524.181	49520.06
524.383	49806.77
524.584	50849.19
524.786	50630.05
524.988	50609.57
525.189	50736.55
525.391	51430.81
525.592	51658.13
525.794	51813.78
525.995	51512.73
526.197	51953.04
526.398	52028.82
526.6	52643.21
526.801	52587.91
527.003	52954.5
527.204	53343.61
527.406	53575.03
527.607	53519.74
527.808	54005.11
528.01	53214.59
528.211	53615.99
528.412	54363.5
528.614	54091.12
528.815	54205.81
529.016	54560.11
529.218	54394.22
529.419	55014.76
529.62	54394.22
529.822	54867.3
530.023	55113.06
530.224	55237.98
530.425	54904.16
530.626	55033.19
530.828	54984.04
531.029	56491.34
531.23	55831.89
531.431	55608.67
531.632	55680.35
531.833	55647.58
532.035	55807.32
532.236	55670.11
532.437	56229.2
532.638	55786.84
532.839	56485.2
533.04	55864.66
533.241	55414.11
533.442	57021.76
533.643	55815.51
533.844	56139.09
534.045	56184.15
534.246	55803.22
534.447	56698.19
534.648	55844.18
534.849	56565.07
535.05	55799.13
535.251	56225.1
535.451	56438.09
535.652	56671.56
535.853	56589.64
536.054	56927.56
536.255	56335.7
536.456	56505.68
536.657	56839.5
536.857	56290.64
537.058	56483.15
537.259	56991.05
537.46	56921.41
537.66	56655.18
537.861	56517.96
538.062	56169.81
538.263	56483.15
538.463	56511.82
538.664	56632.65
538.865	56610.12
539.065	56601.93
539.266	56167.76
539.466	57294.14
539.667	55999.83
539.868	56737.1
540.068	56540.49
540.269	56556.88
540.469	57083.2
540.67	56073.56
540.87	56786.25
541.071	56603.98
541.271	56798.54
541.472	57042.24
541.672	56495.44
541.873	56149.33
542.073	56042.84
542.274	56796.49
542.474	56640.84
542.675	56141.14
542.875	56970.57
543.075	56520.01
543.276	55950.68
543.476	56499.53
543.676	56147.28
543.877	56212.82
544.077	56141.14
544.277	56003.92
544.478	56014.16
544.678	56585.55
544.878	56442.19
545.078	56583.5
545.279	55534.94
545.479	56450.38
545.679	56462.67
545.879	55962.96
546.079	56180.05
546.28	56646.99
546.48	56122.71
546.68	56683.85
546.88	56255.82
547.08	56319.31
547.28	56124.75
547.48	55823.7
547.68	56069.46
547.88	55713.11
548.081	56307.02
548.281	55942.49
548.481	55856.47
548.681	56370.51
548.881	55860.57
549.081	56059.22
549.28	55813.46
549.48	56159.57
549.68	56032.6
549.88	56835.4
550.08	56165.71
550.28	56477
550.48	55729.5
550.68	56057.17
550.88	55811.42
551.08	55835.99
551.279	55780.7
551.479	55674.2
551.679	56032.6
551.879	55821.65
552.079	56266.06
552.278	55709.02
552.478	55856.47
552.678	56038.74
552.878	55991.64
553.077	55295.33
553.277	55164.26
553.477	56130.9
553.676	55401.82
553.876	55485.79
554.076	55352.67
554.275	55549.28
554.475	54783.33
554.674	56034.64
554.874	55532.89
555.074	55223.65
555.273	55631.19
555.473	55776.6
555.672	55401.82
555.872	54988.13
556.071	55575.9
556.271	55764.31
556.47	54865.25
556.67	54861.16
556.869	55000.42
557.068	55549.28
557.268	54551.91
557.467	54842.73
557.667	55084.39
557.866	55082.34
558.065	54578.54
558.265	54420.84
558.464	54328.69
558.663	54746.47
558.863	53769.59
559.062	54922.6
559.261	53915
559.461	54822.25
559.66	53929.33
559.859	54394.22
560.058	53894.52
560.258	54648.17
560.457	53640.57
560.656	54328.69
560.855	53845.37
561.054	54136.18
561.253	53247.36
561.453	53941.62
561.652	54023.54
561.851	53859.7
562.05	53697.91
562.249	53437.82
562.448	53560.7
562.647	53374.33
562.846	53867.89
563.045	53489.02
563.244	53122.43
563.443	53546.36
563.642	52772.23
563.841	52854.15
564.04	52452.75
564.239	53386.62
564.438	52338.06
564.637	52630.92
564.836	52696.45
565.035	52120.98
565.234	52467.08
565.432	52274.57
565.631	52114.83
565.83	52403.6
566.029	51977.62
566.228	51826.07
566.427	51555.74
566.625	51490.2
566.824	51432.86
567.023	51596.7
567.222	50941.35
567.42	51778.96
567.619	51160.48
567.818	50994.59
568.016	51013.02
568.215	51113.37
568.414	51371.42
568.612	51072.42
568.811	50986.4
569.01	50806.18
569.208	50195.88
569.407	50732.45
569.605	49905.07
569.804	50513.32
570.002	50124.21
570.201	50308.52
570.4	50077.1
570.598	49962.42
570.797	49286.59
570.995	49753.52
571.193	49012.16
571.392	50052.53
571.59	49022.4
571.789	49647.03
571.987	49239.48
572.186	48735.68
572.384	48690.63
572.582	49085.89
572.781	49114.56
572.979	48176.59
573.177	48569.8
573.376	48225.74
573.574	47939.02
573.772	48510.41
573.971	47971.79
574.169	47791.57
574.367	47979.98
574.565	47941.07
574.763	47746.51
574.962	47664.6
575.16	47140.32
575.358	47330.78
575.556	46970.33
575.754	47578.58
575.952	47097.31
576.151	47474.13
576.349	46808.54
576.547	46814.69
576.745	47185.37
576.943	46689.76
577.141	46542.31
577.339	46564.84
577.537	46024.17
577.735	46274.02
577.933	45854.19
578.131	46065.13
578.329	46003.69
578.527	45460.98
578.725	45899.25
578.923	46018.03
579.121	45143.55
579.319	45026.81
579.516	45846
579.714	45286.9
579.912	45012.48
580.11	44375.56
580.308	45037.05
580.506	44889.6
580.704	44391.94
580.901	44686.85
581.099	44848.64
581.297	43763.21
581.495	44142.09
581.692	44480
581.89	43814.41
582.088	44219.91
582.285	43628.05
582.483	43849.23
582.681	43783.69
582.878	43546.13
583.076	43476.5
583.274	44033.55
583.471	42946.08
583.669	43449.88
583.866	43148.82
584.064	43189.78
584.262	42450.47
584.459	42925.6
584.657	42796.57
584.854	43060.76
585.052	41639.47
585.249	42376.74
585.447	42333.73
585.644	41537.07
585.841	42196.52
586.039	42296.87
586.236	41825.84
586.434	41385.52
586.631	41887.28
586.828	41510.45
587.026	41215.54
587.223	41643.57
587.42	40992.31
587.618	41283.12
587.815	41125.43
588.012	40576.58
588.21	40242.76
588.407	40717.89
588.604	40549.95
588.801	40287.81
588.999	39921.23
589.196	40209.99
589.393	40246.85
589.59	40091.21
589.787	39845.45
589.984	39761.48
590.182	39382.61
590.379	39929.42
590.576	39024.22
590.773	39685.71
590.97	39274.07
591.167	39485.01
591.364	38659.68
591.561	39003.74
591.758	38512.22
591.955	38735.45
592.152	38964.82
592.349	38446.69
592.546	38733.4
592.743	38325.86
592.94	37772.91
593.137	38180.45
593.334	38555.23
593.531	37473.9
593.727	37869.16
593.924	37918.31
594.121	37428.85
594.318	37791.34
594.515	37066.36
594.712	37514.86
594.908	37416.56
595.105	37056.12
595.302	37062.26
595.499	37045.88
595.696	36767.35
595.892	36578.94
596.089	36697.72
596.286	36767.35
596.482	36486.78
596.679	36640.38
596.876	36527.74
597.072	36230.79
597.269	36073.09
597.466	35489.42
597.662	35262.1
597.859	35853.96
598.055	35669.64
598.252	35696.27
598.448	35417.74
598.645	35581.58
598.841	35071.64
599.038	35114.64
599.234	35292.82
599.431	34721.43
599.627	34965.14
599.824	35204.75
600.02	34725.53
600.217	34647.71
600.413	34649.75
600.609	34324.13
600.806	34010.79
601.002	34250.4
601.198	33896.1
601.395	34125.47
601.591	34086.56
601.787	33959.59
601.984	33691.3
602.18	33859.24
602.376	33611.43
602.572	32974.52
602.769	33539.75
602.965	32759.48
603.161	33349.29
603.357	33046.19
603.553	32794.29
603.75	33042.1
603.946	32593.59
604.142	33326.77
604.338	32249.53
604.534	32483
604.73	32382.65
604.926	32161.47
605.122	32097.98
605.318	32042.69
605.514	32073.41
605.71	31747.78
605.906	31962.82
606.102	31968.96
606.298	31672.01
606.494	31954.63
606.69	31579.85
606.886	31854.28
607.082	31205.07
607.278	31567.56
607.474	31205.07
607.67	31710.92
607.866	30744.28
608.062	31569.61
608.257	31096.53
608.453	30695.13
608.649	30981.84
608.845	30832.34
609.041	30562.01
609.236	30686.93
609.432	30840.53
609.628	30371.55
609.824	30627.54
610.019	30230.24
610.215	30174.94
610.411	30672.6
610.606	30043.87
610.802	30195.42
610.998	30408.41
611.193	30437.08
611.389	30013.15
611.584	29916.9
611.78	29605.61
611.976	29871.84
612.171	29703.91
612.367	29650.66
612.562	29456.11
612.758	29374.19
612.953	29226.73
613.149	29800.16
613.344	29490.92
613.539	29822.69
613.735	29241.07
613.93	29413.1
614.126	29015.79
614.321	29488.87
614.517	29161.2
614.712	28966.64
614.907	28931.83
615.103	29028.08
615.298	28952.3
615.493	29122.29
615.688	28569.33
615.884	29181.68
616.079	28323.58
616.274	28796.66
616.47	28612.34
616.665	28755.7
616.86	28614.39
617.055	28354.3
617.25	28045.05
617.445	28542.71
617.641	27979.52
617.836	28270.33
618.031	27893.51
618.226	27815.68
618.421	27858.69
618.616	28126.97
618.811	27797.25
619.006	28090.11
619.201	27551.49
619.396	27649.8
619.591	27424.52
619.786	27594.5
619.981	27156.24
620.176	27549.45
620.371	26646.29
620.566	27111.18
620.761	26726.16
620.956	27082.51
621.151	26228.51
621.346	26746.64
621.541	25978.65
621.735	26388.25
621.93	26107.68
622.125	25855.78
622.32	25884.45
622.515	26197.79
622.709	25610.02
622.904	25800.48
623.099	25356.07
623.294	25427.75
623.488	25198.38
623.683	25171.75
623.878	24692.53
624.072	24762.16
624.267	24907.57
624.462	24643.38
624.656	24389.43
624.851	24581.94
625.046	24086.33
625.24	24149.82
625.435	23912.25
625.629	23887.68
625.824	23551.81
626.018	23623.49
626.213	23191.37
626.407	23387.97
626.602	23158.6
626.796	23117.64
626.991	23115.59
627.185	22437.72
627.38	22632.27
627.574	22525.78
627.768	22138.71
627.963	22355.8
628.157	22161.24
628.352	22142.81
628.546	22099.8
628.74	21985.12
628.935	21722.98
629.129	21481.31
629.323	21548.9
629.517	21284.71
629.712	21415.78
629.906	21407.59
630.1	20729.71
630.294	21278.57
630.489	20793.2
630.683	20813.68
630.877	20529.01
631.071	20506.48
631.265	20508.53
631.459	20539.25
631.653	20215.67
631.848	20129.66
632.042	19967.87
632.236	20014.97
632.43	19894.14
632.624	19791.74
632.818	19646.33
633.012	19597.18
633.206	19437.44
633.4	19560.32
633.594	19382.15
633.788	19349.38
633.982	19169.16
634.176	19054.47
634.369	18913.16
634.563	18642.83
634.757	18634.64
634.951	18483.09
635.145	18474.9
635.339	18476.94
635.533	18206.61
635.726	18087.83
635.92	17944.47
636.114	18055.06
636.308	17967
636.501	17889.18
636.695	17756.06
636.889	17762.2
637.083	17457.06
637.276	17446.82
637.47	17399.71
637.664	17340.32
637.857	17418.14
638.051	17246.12
638.244	16986.02
638.438	16920.49
638.632	16867.24
638.825	16723.88
639.019	16592.81
639.212	16568.24
639.406	16537.52
639.599	16381.87
639.793	16445.36
639.986	16101.3
640.18	16152.5
640.373	15972.28
640.567	15939.51
640.76	16177.08
640.954	15804.35
641.147	15474.62
641.34	15747
641.534	15550.4
641.727	15544.25
641.92	15413.18
642.114	15222.72
642.307	15368.13
642.5	15105.99
642.694	15026.12
642.887	14833.61
643.08	15149
643.273	14847.94
643.467	14751.69
643.66	14575.56
643.853	14708.68
644.046	14573.52
644.239	14428.11
644.432	14362.58
644.626	14237.65
644.819	14147.54
645.012	14284.75
645.205	14196.69
645.398	14206.93
645.591	13930.45
645.784	13864.92
645.977	13684.7
646.17	13643.74
646.363	13416.41
646.556	13578.2
646.749	13471.71
646.942	13494.24
647.135	13256.67
647.328	13246.43
647.521	13174.75
647.714	12972
647.907	13008.87
648.099	13125.6
648.292	12935.14
648.485	12898.28
648.678	12808.17
648.871	12683.24
649.064	12529.64
649.256	12498.92
649.449	12466.16
649.642	12580.84
649.835	12353.52
650.027	12238.83
650.22	12451.82
650.413	12173.3
650.605	12173.3
650.798	12253.17
650.991	11988.98
651.183	11941.88
651.376	11622.39
651.568	11810.81
651.761	11720.7
651.954	11790.33
652.146	11644.92
652.339	11606.01
652.531	11474.94
652.724	11468.8
652.916	11366.4
653.109	11102.21
653.301	11352.06
653.494	11288.57
653.686	11030.53
653.879	11186.18
654.071	11182.08
654.263	11020.29
654.456	11094.02
654.648	10825.73
654.84	10584.07
655.033	10647.56
655.225	10807.3
655.417	10711.05
655.61	10455.05
655.802	10655.75
655.994	10524.68
656.186	10332.17
656.379	10418.19
656.571	10450.96
656.763	10278.93
656.955	10201.1
657.148	10403.85
657.34	10164.24
657.532	9918.48
657.724	9840.66
657.916	9895.96
658.108	9834.52
658.3	9836.56
658.492	9930.77
658.684	9768.98
658.876	9857.04
659.068	9656.34
659.26	9658.39
659.452	9494.55
659.644	9332.76
659.836	9357.34
660.028	9457.69
660.22	9170.97
660.412	9302.04
660.604	9119.78
660.796	9162.78
660.988	9091.1
661.18	9005.09
661.372	8992.8
661.563	9134.11
661.755	9066.53
661.947	8908.83
662.139	8851.49
662.331	8765.48
662.522	8783.91
662.714	8718.37
662.906	8585.26
663.097	8714.28
663.289	8831.01
663.481	8661.03
663.673	8515.62
663.864	8411.18
664.056	8325.16
664.247	8491.05
664.439	8245.29
664.631	8296.49
664.822	8335.4
665.014	8108.08
665.205	8065.07
665.397	7987.25
665.588	7839.8
665.78	8089.65
665.971	8093.74
666.163	7952.43
666.354	7847.99
666.546	7944.24
666.737	7925.81
666.929	7927.86
667.12	7819.32
667.311	7825.46
667.503	7598.13
667.694	7798.84
667.885	7489.59
668.077	7542.84
668.268	7399.48
668.459	7438.39
668.651	7309.37
668.842	7346.23
669.033	7393.34
669.224	7391.29
669.416	7411.77
669.607	7440.44
669.798	7411.77
669.989	7120.96
670.18	7223.36
670.371	7120.96
670.563	7106.62
670.754	7028.8
670.945	6953.02
671.136	7075.9
671.327	6924.35
671.518	6977.6
671.709	6709.32
671.9	6998.08
672.091	6690.88
672.282	6764.61
672.473	6660.17
672.664	6781
672.855	6791.24
673.046	6807.62
673.237	6711.36
673.428	6617.16
673.619	6674.5
673.809	6514.76
674	6637.64
674.191	6639.69
674.382	6309.96
674.573	6578.25
674.764	6527.05
674.954	6572.1
675.145	6336.59
675.336	6316.11
675.527	6324.3
675.717	6557.77
675.908	6330.44
676.099	6367.31
676.289	6172.75
676.48	6240.33
676.671	6176.84
676.861	6213.71
677.052	6099.02
677.243	6121.55
677.433	6137.93
677.624	6041.68
677.814	5959.76
678.005	6058.06
678.195	6142.03
678.386	6078.54
678.576	6008.91
678.767	6021.2
678.957	5937.23
679.148	5974.1
679.338	5824.59
679.529	6010.96
679.719	5916.75
679.909	5732.44
680.1	5781.59
680.29	5959.76
680.481	5759.06
680.671	5722.2
680.861	5593.17
681.052	5793.87
681.242	5632.08
681.432	5935.18
681.622	5546.07
681.813	5662.8
682.003	5544.02
682.193	5726.29
682.383	5556.31
682.573	5593.17
682.764	5527.64
682.954	5490.77
683.144	5636.18
683.334	5570.65
683.524	5621.84
683.714	5462.1
683.904	5515.35
684.094	5509.21
684.284	5468.25
684.474	5527.64
684.664	5398.62
684.854	5476.44
685.044	5380.18
685.234	5376.09
685.424	5339.23
685.614	5283.93
685.804	5298.27
685.994	5275.74
686.184	5257.31
686.374	5318.75
686.564	5095.52
686.753	5302.36
686.943	5144.67
687.133	5128.28
687.323	5134.43
687.513	4968.54
687.702	5103.71
687.892	4982.88
688.082	5107.8
688.272	5044.32
688.461	5136.48
688.651	5013.6
688.841	5001.31
689.03	4837.47
689.22	4884.58
689.41	4829.28
689.599	4921.44
689.789	4921.44
689.979	4851.81
690.168	4923.49
690.358	4749.41
690.547	4782.18
690.737	4706.4
690.926	4675.68
691.116	4696.16
691.305	4816.99
691.495	4675.68
691.684	4722.79
691.874	4767.84
692.063	4718.69
692.252	4655.2
692.442	4585.57
692.631	4614.24
692.82	4444.26
693.01	4415.59
693.199	4575.33
693.388	4579.43
693.578	4515.94
693.767	4601.96
693.956	4601.96
694.146	4345.96
694.335	4513.89
694.524	4298.86
694.713	4360.3
694.902	4319.34
695.092	4427.88
695.281	4438.12
695.47	4370.54
695.659	4485.22
695.848	4116.59
696.037	4214.89
696.226	4337.77
696.415	4317.29
696.604	4300.91
696.793	4081.77
696.982	4348.01
697.171	4182.12
697.36	4350.06
697.549	4116.59
697.738	4075.63
697.927	4126.83
698.116	4206.7
698.305	4161.64
698.494	4237.42
698.683	4100.2
698.872	4110.44
699.061	4198.51
699.25	4087.92
699.438	4055.15
699.627	4106.35
699.816	4028.53
700.005	3932.27
700.193	3932.27
700.382	3932.27
700.571	3954.8
700.76	3965.04
700.948	3993.71
701.137	4096.11
701.326	3989.61
701.514	3962.99
701.703	3971.18
701.892	3950.7
702.08	3971.18
702.269	3940.46
702.457	3887.22
702.646	3872.88
702.834	3909.74
703.023	3872.88
703.212	3969.13
703.4	4020.33
703.589	3852.4
703.777	3803.25
703.965	3825.78
704.154	3860.59
704.342	3745.91
704.531	3958.89
704.719	3876.98
704.907	4104.3
705.096	3780.72
705.284	3797.1
705.472	3809.39
705.661	3799.15
705.849	3795.06
706.037	3868.78
706.226	3641.46
706.414	3639.41
706.602	3692.66
706.79	3846.26
706.979	3774.58
707.167	3817.58
707.355	3694.71
707.543	3616.88
707.731	3870.83
707.919	3668.08
708.107	3629.17
708.296	3731.57
708.484	3682.42
708.672	3641.46
708.86	3608.69
709.048	3735.67
709.236	3709.04
709.424	3577.97
709.612	3659.89
709.8	3561.59
709.988	3678.32
710.176	3702.9
710.364	3629.17
710.551	3442.81
710.739	3563.64
710.927	3594.36
711.115	3590.26
711.303	3395.7
711.491	3604.6
711.679	3496.05
711.866	3496.05
712.054	3565.68
712.242	3463.29
712.43	3524.72
712.617	3428.47
712.805	3455.09
712.993	3340.41
713.181	3551.35
713.368	3489.91
713.556	3606.64
713.744	3397.75
713.931	3543.16
714.119	3512.44
714.306	3459.19
714.494	3412.09
714.682	3467.38
714.869	3256.44
715.057	3504.25
715.244	3291.26
715.432	3383.42
715.619	3340.41
715.807	3295.35
715.994	3422.33
716.182	3362.94
716.369	3407.99
716.556	3393.65
716.744	3307.64
716.931	3330.17
717.119	3285.11
717.306	3307.64
717.493	3188.86
717.681	3369.08
717.868	3295.35
718.055	3293.3
718.242	3213.43
718.43	3217.53
718.617	3289.21
718.804	3295.35
718.991	3201.15
719.179	3291.26
719.366	3154.04
719.553	3137.66
719.74	3303.54
719.927	3266.68
720.114	3115.13
720.301	3192.95
720.488	3160.19
720.676	2984.06
720.863	3164.28
721.05	3242.11
721.237	3141.75
721.424	3080.32
721.611	3106.94
721.798	3045.5
721.985	3119.23
722.172	3154.04
722.358	3078.27
722.545	3160.19
722.732	2996.35
722.919	3037.31
723.106	3104.89
723.293	3031.16
723.48	3016.83
723.667	3078.27
723.853	2957.44
724.04	3000.44
724.227	2939.01
724.414	3018.88
724.6	2953.34
724.787	3049.6
724.974	2947.2
725.161	2885.76
725.347	2879.61
725.534	3037.31
725.72	3000.44
725.907	2902.14
726.094	2934.91
726.28	2971.77
726.467	2726.02
726.653	2945.15
726.84	2814.08
727.027	2941.05
727.213	2900.09
727.4	2941.05
727.586	2832.51
727.773	2988.16
727.959	2736.26
728.145	2918.53
728.332	2826.37
728.518	2693.25
728.705	2838.66
728.891	2715.78
729.077	2740.35
729.264	2760.83
729.45	2822.27
729.636	2848.9
729.823	2703.49
730.009	2773.12
730.195	2822.27
730.382	2738.3
730.568	2732.16
730.754	2730.11
730.94	2734.21
731.126	2781.31
731.313	2701.44
731.499	2631.81
731.685	2578.56
731.871	2754.69
732.057	2758.78
732.243	2773.12
732.429	2656.39
732.615	2676.87
732.801	2691.2
732.987	2711.68
733.173	2656.39
733.359	2695.3
733.545	2599.04
733.731	2566.28
733.917	2605.19
734.103	2547.84
734.289	2652.29
734.475	2578.56
734.661	2584.71
734.847	2607.23
735.033	2515.08
735.219	2549.89
735.404	2594.95
735.59	2599.04
735.776	2549.89
735.962	2609.28
736.148	2578.56
736.333	2582.66
736.519	2437.25
736.705	2607.23
736.89	2519.17
737.076	2490.5
737.262	2537.6
737.447	2453.64
737.633	2467.97
737.819	2484.36
738.004	2406.53
738.19	2484.36
738.375	2429.06
738.561	2455.69
738.747	2336.9
738.932	2345.09
739.118	2408.58
739.303	2441.35
739.489	2384.01
739.674	2361.48
739.859	2287.75
740.045	2459.78
740.23	2379.91
740.416	2240.65
740.601	2283.66
740.786	2226.31
740.972	2302.09
741.157	2379.91
741.342	2267.27
741.528	2226.31
741.713	2295.94
741.898	2230.41
742.084	2250.89
742.269	2295.94
742.454	2115.72
742.639	2304.14
742.824	2152.59
743.01	2146.44
743.195	2230.41
743.38	2189.45
743.565	2197.64
743.75	2158.73
743.935	2101.39
744.12	2070.67
744.305	2191.5
744.49	2085
744.675	2082.95
744.86	1931.41
745.045	2123.91
745.23	2097.29
745.415	2164.87
745.6	2103.43
745.785	2009.23
745.97	2050.19
746.155	2060.43
746.34	2003.08
746.525	1984.65
746.71	1931.41
746.895	1984.65
747.079	1882.25
747.264	1872.01
747.449	1865.87
747.634	1857.68
747.819	1915.02
748.003	1863.82
748.188	1843.34
748.373	1763.47
748.557	1839.25
748.742	1888.4
748.927	1810.58
749.111	1736.85
749.296	1904.78
749.481	1822.86
749.665	1771.66
749.85	1779.86
750.034	1704.08
750.219	1798.29
750.404	1552.53
750.588	1730.7
750.773	1724.56
750.957	1726.61
751.141	1730.7
751.326	1675.41
751.51	1685.65
751.695	1650.83
751.879	1603.73
752.064	1716.37
752.248	1630.35
752.432	1638.55
752.617	1620.11
752.801	1644.69
752.985	1630.35
753.17	1554.58
753.354	1527.96
753.538	1587.35
753.722	1411.22
753.907	1435.8
754.091	1497.24
754.275	1472.66
754.459	1472.66
754.643	1460.37
754.828	1423.51
755.012	1384.6
755.196	1468.56
755.38	1419.41
755.564	1325.21
755.748	1417.37
755.932	1489.04
756.116	1460.37
756.3	1372.31
756.484	1308.82
756.668	1392.79
756.852	1337.49
757.036	1261.72
757.22	1280.15
757.404	1341.59
757.588	1290.39
757.772	1441.94
757.956	1351.83
758.14	1317.01
758.323	1224.86
758.507	1274.01
758.691	1317.01
758.875	1282.2
759.059	1290.39
759.242	1231
759.426	1247.38
759.61	1292.44
759.794	1147.03
759.977	1200.28
760.161	1292.44
760.345	1079.45
760.528	1208.47
760.712	1101.98
760.895	1177.75
761.079	1138.84
761.263	1124.51
761.446	1116.31
761.63	1218.71
761.813	1210.52
761.997	1149.08
762.18	1030.3
762.364	1175.7
762.547	985.24
762.731	1083.55
762.914	1179.8
763.098	1085.59
763.281	1079.45
763.464	1147.03
763.648	1048.73
763.831	1079.45
764.015	1116.31
764.198	1058.97
764.381	1112.22
764.564	1056.92
764.748	1097.88
764.931	1083.55
765.114	936.09
765.297	1075.35
765.481	1046.68
765.664	999.58
765.847	1099.93
766.03	1058.97
766.213	983.2
766.397	1054.87
766.58	1054.87
766.763	1052.83
766.946	952.48
767.129	999.58
767.312	968.86
767.495	975
767.678	962.72
767.861	946.33
768.044	1003.68
768.227	958.62
768.41	925.85
768.593	972.96
768.776	921.76
768.959	913.56
769.142	932
769.324	901.28
769.507	923.8
769.69	970.91
769.873	972.96
770.056	981.15
770.239	942.24
770.421	956.57
770.604	964.76
770.787	962.72
770.97	921.76
771.152	915.61
771.335	792.73
771.518	888.99
771.7	915.61
771.883	901.28
772.066	891.04
772.248	798.88
772.431	776.35
772.613	891.04
772.796	897.18
772.978	903.32
773.161	956.57
773.343	829.6
773.526	882.85
773.708	825.5
773.891	817.31
774.073	897.18
774.256	829.6
774.438	747.68
774.621	805.02
774.803	809.12
774.985	780.45
775.168	747.68
775.35	792.73
775.532	731.3
775.715	800.93
775.897	807.07
776.079	772.25
776.261	776.35
776.444	800.93
776.626	778.4
776.808	708.77
776.99	731.3
777.173	739.49
777.355	841.89
777.537	776.35
777.719	784.54
777.901	692.38
778.083	645.28
778.265	657.57
778.447	694.43
778.629	706.72
778.811	708.77
778.993	698.53
779.175	663.71
779.357	608.42
779.539	714.91
779.721	684.19
779.903	682.14
780.085	612.51
780.267	682.14
780.449	604.32
780.631	706.72
780.812	659.62
780.994	657.57
781.176	620.71
781.358	600.23
781.54	653.47
781.721	612.51
781.903	659.62
782.085	542.88
782.267	600.23
782.448	577.7
782.63	534.69
782.812	614.56
782.993	557.22
783.175	506.02
783.357	448.68
783.538	563.36
783.72	538.79
783.901	528.55
784.083	612.51
784.264	510.11
784.446	536.74
784.627	524.45
784.809	479.4
784.99	544.93
785.172	577.7
785.353	489.64
785.535	518.31
785.716	526.5
785.897	510.11
786.079	506.02
786.26	485.54
786.441	499.88
786.623	364.71
786.804	379.04
786.985	385.19
787.167	581.79
787.348	460.96
787.529	397.48
787.71	477.35
787.891	446.63
788.073	366.76
788.254	383.14
788.435	407.72
788.616	499.88
788.797	420
788.978	473.25
789.159	440.48
789.34	448.68
789.522	436.39
789.703	368.81
789.884	356.52
790.065	403.62
790.246	407.72
790.427	387.24
790.607	428.2
790.788	377
790.969	389.28
791.15	286.89
791.331	473.25
791.512	370.85
791.693	340.13
791.874	333.99
792.054	407.72
792.235	372.9
792.416	391.33
792.597	317.61
792.778	366.76
792.958	350.37
793.139	401.57
793.32	309.41
793.5	401.57
793.681	495.78
793.862	387.24
794.042	354.47
794.223	391.33
794.404	284.84
794.584	268.45
794.765	370.85
794.945	266.41
795.126	317.61
795.306	377
795.487	301.22
795.667	354.47
795.848	303.27
796.028	301.22
796.209	245.93
796.389	352.42
796.57	313.51
796.75	293.03
796.93	307.37
797.111	280.74
797.291	358.57
797.471	381.09
797.652	340.13
797.832	252.07
798.012	305.32
798.192	313.51
798.373	254.12
798.553	239.78
798.733	276.65
798.913	331.94
799.093	327.85
799.274	221.35
799.454	276.65
799.634	321.7
799.814	211.11
799.994	225.45
800.174	370.85
800.354	321.7
800.534	295.08
800.714	344.23
800.894	268.45
801.074	213.16
801.254	243.88
801.434	266.41
801.614	305.32
801.794	186.54
801.974	733.34
802.154	329.89
802.334	307.37
802.514	245.93
802.693	207.02
802.873	254.12
803.053	348.33
803.233	297.13
803.413	241.83
803.592	241.83
803.772	174.25
803.952	325.8
804.131	260.26
804.311	288.93
804.491	233.64
804.67	194.73
804.85	256.17
805.03	231.59
805.209	309.41
805.389	264.36
805.568	180.39
805.748	223.4
805.928	190.63
806.107	153.77
806.287	256.17
806.466	225.45
806.646	202.92
806.825	157.86
807.004	231.59
807.184	202.92
807.363	219.3
807.543	174.25
807.722	188.58
807.901	192.68
808.081	186.54
808.26	129.19
808.439	196.78
808.619	202.92
808.798	262.31
808.977	235.69
809.156	207.02
809.336	272.55
809.515	313.51
809.694	225.45
809.873	145.58
810.052	241.83
810.231	282.79
810.411	250.02
810.59	231.59
810.769	170.15
810.948	186.54
811.127	133.29
811.306	137.38
811.485	211.11
811.664	184.49
811.843	186.54
812.022	188.58
812.201	178.34
812.38	151.72
812.559	202.92
812.737	198.82
812.916	118.95
813.095	110.76
813.274	207.02
813.453	186.54
813.632	213.16
813.811	166.06
813.989	41.13
814.168	182.44
814.347	174.25
814.526	190.63
814.704	235.69
814.883	211.11
815.062	168.1
815.24	209.06
815.419	102.57
815.598	147.62
815.776	198.82
815.955	186.54
816.133	168.1
816.312	192.68
816.49	264.36
816.669	112.81
816.847	166.06
817.026	184.49
817.204	143.53
817.383	211.11
817.561	170.15
817.74	209.06
817.918	104.62
818.097	161.96
818.275	102.57
818.453	151.72
818.632	155.82
818.81	151.72
818.988	121
819.167	161.96
819.345	104.62
819.523	139.43
819.701	176.3
819.879	145.58
820.058	141.48
820.236	170.15
820.414	137.38
820.592	135.34
820.77	123.05
820.948	194.73
821.127	182.44
821.305	153.77
821.483	131.24
821.661	178.34
821.839	118.95
822.017	137.38
822.195	135.34
822.373	139.43
822.551	147.62
822.729	123.05
822.907	94.38
823.085	143.53
823.262	108.71
823.44	121
823.618	86.19
823.796	82.09
823.974	71.85
824.152	166.06
824.329	166.06
824.507	155.82
824.685	102.57
824.863	194.73
825.04	77.99
825.218	104.62
825.396	125.1
825.574	84.14
825.751	34.99
825.929	192.68
826.107	104.62
826.284	82.09
826.462	34.99
826.639	63.66
826.817	125.1
826.994	110.76
827.172	129.19
827.349	260.26
827.527	139.43
827.704	161.96
827.882	164.01
828.059	71.85
828.237	227.5
828.414	129.19
828.591	28.84
828.769	145.58
828.946	43.18
829.124	121
829.301	-14.17
829.478	127.14
829.655	104.62
829.833	106.67
830.01	88.23
830.187	94.38
830.364	94.38
830.542	47.27
830.719	102.57
830.896	137.38
831.073	100.52
831.25	149.67
831.427	98.47
831.604	108.71
831.782	88.23
831.959	125.1
832.136	86.19
832.313	137.38
832.49	88.23
832.667	127.14
832.844	73.9
833.021	77.99
833.198	168.1
833.374	67.75
833.551	67.75
833.728	59.56
833.905	159.91
834.082	65.71
834.259	77.99
834.436	153.77
834.612	80.04
834.789	67.75
834.966	51.37
835.143	75.95
835.319	82.09
835.496	80.04
835.673	47.27
835.85	80.04
836.026	129.19
836.203	92.33
836.38	86.19
836.556	53.42
836.733	75.95
836.909	94.38
837.086	55.47
837.262	100.52
837.439	14.51
837.616	-3.93
837.792	86.19
837.968	86.19
838.145	88.23
838.321	53.42
838.498	55.47
838.674	94.38
838.851	77.99
839.027	77.99
839.203	135.34
839.38	96.43
839.556	37.03
839.732	24.75
839.909	86.19
840.085	88.23
840.261	22.7
840.437	53.42
840.614	41.13
840.79	131.24
840.966	71.85
841.142	121
841.318	22.7
841.494	125.1
841.671	63.66
841.847	86.19
842.023	57.51
842.199	34.99
842.375	61.61
842.551	86.19
842.727	61.61
842.903	100.52
843.079	47.27
843.255	118.95
843.431	-26.45
843.607	77.99
843.783	-32.6
843.959	20.65
844.134	6.31
844.31	143.53
844.486	92.33
844.662	-24.4
844.838	28.84
845.013	51.37
845.189	84.14
845.365	49.32
845.541	57.51
845.716	90.28
845.892	104.62
846.068	-20.31
846.244	71.85
846.419	51.37
846.595	67.75
846.77	63.66
846.946	18.6
847.122	22.7
847.297	28.84
847.473	143.53
847.648	110.76
847.824	45.23
847.999	32.94
848.175	82.09
848.35	53.42
848.526	59.56
848.701	84.14
848.876	51.37
849.052	51.37
849.227	45.23
849.403	88.23
849.578	18.6
849.753	61.61
849.929	98.47
850.104	127.14
850.279	75.95
850.454	45.23
850.63	4.27
850.805	4.27
850.98	100.52
851.155	53.42
851.33	22.7
851.505	100.52
851.681	84.14
851.856	41.13
852.031	6.31
852.206	90.28
852.381	110.76
852.556	125.1
852.731	-3.93
852.906	55.47
853.081	10.41
853.256	75.95
853.431	8.36
853.606	12.46
853.781	82.09
853.956	8.36
854.131	94.38
854.305	12.46
854.48	92.33
854.655	43.18
854.83	37.03
855.005	-20.31
855.18	-1.88
855.354	18.6
855.529	63.66
855.704	20.65
855.879	41.13
856.053	26.79
856.228	123.05
856.403	37.03
856.577	53.42
856.752	6.31
856.926	51.37
857.101	61.61
857.276	41.13
857.45	6.31
857.625	26.79
857.799	75.95
857.974	65.71
858.148	-12.12
858.323	34.99
858.497	71.85
858.672	63.66
858.846	2.22
859.02	84.14
859.195	45.23
859.369	57.51
859.543	-14.17
859.718	65.71
859.892	34.99
860.066	10.41
860.241	47.27
860.415	24.75
860.589	-10.07
860.763	77.99
860.938	41.13
861.112	45.23
861.286	55.47
861.46	18.6
861.634	20.65
861.808	71.85
861.982	12.46
862.157	77.99
862.331	2.22
862.505	39.08
862.679	2.22
862.853	84.14
863.027	-12.12
863.201	34.99
863.375	-24.4
863.549	116.9
863.722	77.99
863.896	106.67
864.07	-18.26
864.244	39.08
864.418	-14.17
864.592	-8.02
864.766	82.09
864.939	30.89
865.113	61.61
865.287	80.04
865.461	47.27
865.634	4.27
865.808	-24.4
865.982	34.99
866.156	-46.93
866.329	110.76
866.503	-30.55
866.676	104.62
866.85	61.61
867.024	75.95
867.197	92.33
867.371	51.37
867.544	26.79
867.718	-20.31
867.891	45.23
868.065	80.04
868.238	2.22
868.412	100.52
868.585	55.47
868.759	26.79
868.932	-1.88
869.105	37.03
869.279	45.23
869.452	2.22
869.625	39.08
869.799	-1.88
869.972	47.27
870.145	84.14
870.319	-1.88
870.492	26.79
870.665	-26.45
870.838	18.6
871.011	-20.31
871.185	-18.26
871.358	-28.5
871.531	37.03
871.704	18.6
871.877	86.19
872.05	2.22
872.223	16.55
872.396	-1.88
872.569	0.17
872.742	14.51
872.915	45.23
873.088	30.89
873.261	59.56
873.434	63.66
873.607	63.66
873.78	39.08
873.953	-34.64
874.126	22.7
874.299	61.61
874.471	-38.74
874.644	18.6
874.817	37.03
874.99	22.7
875.163	-30.55
875.335	-28.5
875.508	-3.93
875.681	6.31
875.853	37.03
876.026	12.46
876.199	34.99
876.371	67.75
876.544	10.41
876.717	24.75
876.889	69.8
877.062	104.62
877.234	30.89
877.407	-12.12
877.579	16.55
877.752	61.61
877.924	10.41
878.097	90.28
878.269	20.65
878.442	-14.17
878.614	80.04
878.786	0.17
878.959	34.99
879.131	-34.64
879.303	-30.55
879.476	-14.17
879.648	82.09
879.82	39.08
879.993	69.8
880.165	37.03
880.337	-30.55
880.509	-10.07
880.681	43.18
880.854	-77.65
881.026	22.7
881.198	18.6
881.37	4.27
881.542	-81.75
881.714	92.33
881.886	67.75
882.058	4.27
882.23	-8.02
882.402	80.04
882.574	-34.64
882.746	-10.07
882.918	69.8
883.09	53.42
883.262	12.46
883.434	94.38
883.606	41.13
883.778	14.51
883.95	47.27
884.122	39.08
884.293	12.46
884.465	-10.07
884.637	53.42
884.809	-5.97
884.98	34.99
885.152	49.32
885.324	26.79
885.496	-59.22
885.667	57.51
885.839	90.28
886.011	28.84
886.182	71.85
886.354	34.99
886.525	12.46
886.697	41.13
886.869	-81.75
887.04	-18.26
887.212	110.76
887.383	71.85
887.555	-42.84
887.726	55.47
887.897	20.65
888.069	28.84
888.24	39.08
888.412	-32.6
888.583	-3.93
888.754	57.51
888.926	-24.4
889.097	80.04
889.268	28.84
889.44	-24.4
889.611	-18.26
889.782	-14.17
889.953	59.56
890.125	67.75
890.296	30.89
890.467	0.17
890.638	16.55
890.809	43.18
890.98	6.31
891.151	6.31
891.323	55.47
891.494	84.14
891.665	24.75
891.836	-5.97
892.007	-18.26
892.178	51.37
892.349	57.51
892.52	6.31
892.691	53.42
892.862	-12.12
893.032	-32.6
893.203	14.51
893.374	63.66
893.545	77.99
893.716	14.51
893.887	39.08
894.057	-30.55
894.228	20.65
894.399	30.89
894.57	51.37
894.74	-26.45
894.911	6.31
895.082	6.31
895.253	-48.98
895.423	14.51
895.594	26.79
895.764	-10.07
895.935	-63.32
896.106	47.27
896.276	30.89
896.447	-8.02
896.617	-26.45
896.788	-22.36
896.958	18.6
897.129	14.51
897.299	24.75
897.47	53.42
897.64	67.75
897.81	4.27
897.981	18.6
898.151	-3.93
898.322	4.27
898.492	41.13
898.662	-14.17
898.832	-12.12
899.003	67.75
899.173	26.79
899.343	53.42
899.513	-51.03
