Data from USB4F104151__245__10-30-57-446.txt Node

Date: Wed Mar 12 10:30:57 EDT 2025
User: louis
Spectrometer: USB4F10415
Trigger mode: 4
Integration Time (sec): 3.000000E-2
Scans to average: 1
Electric dark correction enabled: true
Nonlinearity correction enabled: false
Boxcar width: 0
XAxis mode: Wavelengths
Number of Pixels in Spectrum: 3648
>>>>>Begin Spectral Data<<<<<
178.204	24.58
178.424	24.58
178.644	24.58
178.864	-143.36
179.084	-96.25
179.304	4.1
179.524	28.67
179.744	-22.53
179.964	20.48
180.184	-4.1
180.404	24.58
180.624	-28.67
180.844	18.43
181.064	-16.38
181.283	-32.77
181.503	4.1
181.723	4.1
181.943	-77.82
182.163	36.86
182.383	49.15
182.602	-10.24
182.822	32.77
183.042	45.06
183.262	-40.96
183.482	36.86
183.701	-49.15
183.921	-8.19
184.141	-104.45
184.361	28.67
184.58	32.77
184.8	30.72
185.02	0
185.239	28.67
185.459	12.29
185.679	-2.05
185.898	-4.1
186.118	36.86
186.338	-8.19
186.557	4.1
186.777	36.86
186.997	49.15
187.216	81.92
187.436	88.06
187.655	32.77
187.875	28.67
188.095	12.29
188.314	-32.77
188.534	73.73
188.753	-2.05
188.973	18.43
189.192	106.49
189.412	24.58
189.631	-38.91
189.851	14.34
190.07	26.62
190.29	4.1
190.509	30.72
190.729	86.01
190.948	8.19
191.168	114.69
191.387	18.43
191.607	-2.05
191.826	4.1
192.045	-26.62
192.265	36.86
192.484	38.91
192.704	86.01
192.923	-49.15
193.142	53.25
193.362	0
193.581	71.68
193.8	6.14
194.02	-8.19
194.239	79.87
194.458	0
194.678	-8.19
194.897	2.05
195.116	69.63
195.335	-12.29
195.555	-8.19
195.774	40.96
195.993	-8.19
196.212	28.67
196.432	28.67
196.651	-24.58
196.87	47.1
197.089	36.86
197.308	-36.86
197.528	24.58
197.747	-20.48
197.966	59.39
198.185	110.59
198.404	-30.72
198.623	-8.19
198.842	-16.38
199.062	-67.58
199.281	32.77
199.5	24.58
199.719	32.77
199.938	38.91
200.157	4.1
200.376	65.54
200.595	12.29
200.814	77.82
201.033	8.19
201.252	32.77
201.471	22.53
201.69	16.38
201.909	57.34
202.128	30.72
202.347	-32.77
202.566	45.06
202.785	-71.68
203.004	92.16
203.223	81.92
203.442	8.19
203.661	-28.67
203.879	38.91
204.098	49.15
204.317	18.43
204.536	92.16
204.755	-2.05
204.974	-24.58
205.193	30.72
205.411	73.73
205.63	98.3
205.849	71.68
206.068	16.38
206.287	90.11
206.505	49.15
206.724	24.58
206.943	10.24
207.162	4.1
207.381	6.14
207.599	40.96
207.818	38.91
208.037	30.72
208.255	47.1
208.474	75.77
208.693	55.3
208.911	49.15
209.13	32.77
209.349	18.43
209.567	38.91
209.786	86.01
210.005	-26.62
210.223	-16.38
210.442	24.58
210.661	-12.29
210.879	14.34
211.098	16.38
211.316	28.67
211.535	-24.58
211.753	55.3
211.972	24.58
212.191	-32.77
212.409	90.11
212.628	12.29
212.846	40.96
213.065	81.92
213.283	45.06
213.502	-8.19
213.72	40.96
213.938	16.38
214.157	63.49
214.375	6.14
214.594	-65.53
214.812	-12.29
215.031	12.29
215.249	-6.14
215.467	16.38
215.686	67.58
215.904	51.2
216.122	40.96
216.341	57.34
216.559	40.96
216.778	22.53
216.996	8.19
217.214	-73.73
217.432	55.3
217.651	0
217.869	65.54
218.087	18.43
218.306	-4.1
218.524	73.73
218.742	-2.05
218.96	-4.1
219.179	22.53
219.397	57.34
219.615	8.19
219.833	96.25
220.051	-4.1
220.27	55.3
220.488	22.53
220.706	51.2
220.924	45.06
221.142	34.82
221.36	55.3
221.578	16.38
221.796	32.77
222.015	40.96
222.233	20.48
222.451	-16.38
222.669	-24.58
222.887	26.62
223.105	2.05
223.323	69.63
223.541	22.53
223.759	77.82
223.977	-22.53
224.195	47.1
224.413	12.29
224.631	49.15
224.849	36.86
225.067	106.49
225.285	-34.82
225.503	34.82
225.721	-36.86
225.939	53.25
226.157	2.05
226.375	55.3
226.592	-16.38
226.81	20.48
227.028	65.54
227.246	57.34
227.464	57.34
227.682	55.3
227.9	30.72
228.117	49.15
228.335	-16.38
228.553	90.11
228.771	88.06
228.989	43.01
229.206	24.58
229.424	-12.29
229.642	-8.19
229.86	75.77
230.077	59.39
230.295	24.58
230.513	40.96
230.731	28.67
230.948	90.11
231.166	16.38
231.384	-10.24
231.601	0
231.819	53.25
232.037	124.93
232.254	-8.19
232.472	12.29
232.689	24.58
232.907	51.2
233.125	73.73
233.342	-24.58
233.56	-38.91
233.777	2.05
233.995	-8.19
234.213	65.54
234.43	79.87
234.648	14.34
234.865	57.34
235.083	4.1
235.3	-4.1
235.518	71.68
235.735	22.53
235.953	4.1
236.17	-26.62
236.388	-18.43
236.605	-32.77
236.822	55.3
237.04	24.58
237.257	6.14
237.475	24.58
237.692	-36.86
237.909	90.11
238.127	79.87
238.344	77.82
238.562	30.72
238.779	-36.86
238.996	12.29
239.214	51.2
239.431	90.11
239.648	32.77
239.865	-24.58
240.083	40.96
240.3	14.34
240.517	8.19
240.735	30.72
240.952	90.11
241.169	40.96
241.386	18.43
241.603	38.91
241.821	12.29
242.038	38.91
242.255	59.39
242.472	-38.91
242.689	47.1
242.907	67.58
243.124	22.53
243.341	-22.53
243.558	4.1
243.775	6.14
243.992	2.05
244.209	88.06
244.426	81.92
244.643	110.59
244.86	-26.62
245.078	-26.62
245.295	28.67
245.512	143.36
245.729	-18.43
245.946	-10.24
246.163	57.34
246.38	-12.29
246.597	-4.1
246.814	-12.29
247.031	-47.1
247.248	26.62
247.464	55.3
247.681	49.15
247.898	-24.58
248.115	59.39
248.332	10.24
248.549	2.05
248.766	94.21
248.983	30.72
249.2	47.1
249.417	8.19
249.633	-16.38
249.85	61.44
250.067	32.77
250.284	0
250.501	0
250.717	20.48
250.934	83.97
251.151	90.11
251.368	98.3
251.585	45.06
251.801	45.06
252.018	4.1
252.235	-34.82
252.451	8.19
252.668	-28.67
252.885	65.54
253.102	75.77
253.318	36.86
253.535	4.1
253.752	24.58
253.968	12.29
254.185	16.38
254.401	24.58
254.618	18.43
254.835	49.15
255.051	55.3
255.268	73.73
255.484	79.87
255.701	81.92
255.917	26.62
256.134	12.29
256.351	38.91
256.567	30.72
256.784	63.49
257	34.82
257.217	-10.24
257.433	71.68
257.65	61.44
257.866	88.06
258.082	32.77
258.299	-24.58
258.515	28.67
258.732	12.29
258.948	4.1
259.165	53.25
259.381	34.82
259.597	88.06
259.814	36.86
260.03	-59.39
260.246	-16.38
260.463	94.21
260.679	26.62
260.895	96.25
261.112	102.4
261.328	-30.72
261.544	45.06
261.761	116.73
261.977	12.29
262.193	16.38
262.409	67.58
262.626	75.77
262.842	118.78
263.058	45.06
263.274	81.92
263.49	57.34
263.707	32.77
263.923	51.2
264.139	38.91
264.355	16.38
264.571	96.25
264.787	8.19
265.004	28.67
265.22	-12.29
265.436	14.34
265.652	8.19
265.868	61.44
266.084	-4.1
266.3	59.39
266.516	-57.34
266.732	57.34
266.948	22.53
267.164	90.11
267.38	57.34
267.596	6.14
267.812	45.06
268.028	79.87
268.244	90.11
268.46	45.06
268.676	34.82
268.892	55.3
269.108	22.53
269.324	65.54
269.54	18.43
269.756	69.63
269.972	-49.15
270.188	43.01
270.403	-45.06
270.619	-14.34
270.835	-16.38
271.051	34.82
271.267	53.25
271.483	63.49
271.698	-61.44
271.914	0
272.13	47.1
272.346	6.14
272.562	43.01
272.777	110.59
272.993	-8.19
273.209	-20.48
273.425	14.34
273.64	22.53
273.856	73.73
274.072	40.96
274.287	-34.82
274.503	38.91
274.719	79.87
274.934	40.96
275.15	51.2
275.366	57.34
275.581	28.67
275.797	16.38
276.012	71.68
276.228	67.58
276.444	40.96
276.659	-6.14
276.875	-40.96
277.09	45.06
277.306	67.58
277.521	81.92
277.737	71.68
277.952	2.05
278.168	63.49
278.383	59.39
278.599	-6.14
278.814	67.58
279.03	73.73
279.245	110.59
279.461	49.15
279.676	92.16
279.892	-20.48
280.107	-79.87
280.322	51.2
280.538	61.44
280.753	12.29
280.969	45.06
281.184	18.43
281.399	100.35
281.615	30.72
281.83	30.72
282.045	10.24
282.26	59.39
282.476	4.1
282.691	-8.19
282.906	28.67
283.122	81.92
283.337	-34.82
283.552	57.34
283.767	73.73
283.983	67.58
284.198	-18.43
284.413	53.25
284.628	-73.73
284.843	6.14
285.058	69.63
285.274	-10.24
285.489	69.63
285.704	120.83
285.919	-53.25
286.134	22.53
286.349	71.68
286.564	6.14
286.779	16.38
286.995	98.3
287.21	6.14
287.425	45.06
287.64	-12.29
287.855	49.15
288.07	-8.19
288.285	139.26
288.5	12.29
288.715	63.49
288.93	16.38
289.145	63.49
289.36	118.78
289.575	28.67
289.79	133.12
290.004	63.49
290.219	51.2
290.434	-24.58
290.649	47.1
290.864	0
291.079	-40.96
291.294	-63.49
291.509	38.91
291.724	77.82
291.938	30.72
292.153	59.39
292.368	-22.53
292.583	92.16
292.798	71.68
293.012	90.11
293.227	-8.19
293.442	73.73
293.657	-53.25
293.871	47.1
294.086	38.91
294.301	6.14
294.516	30.72
294.73	43.01
294.945	-24.58
295.16	71.68
295.374	92.16
295.589	34.82
295.804	38.91
296.018	16.38
296.233	104.45
296.447	8.19
296.662	57.34
296.877	63.49
297.091	32.77
297.306	45.06
297.52	81.92
297.735	102.4
297.949	16.38
298.164	18.43
298.378	49.15
298.593	-43.01
298.807	77.82
299.022	-2.05
299.236	-30.72
299.451	108.54
299.665	16.38
299.88	104.45
300.094	45.06
300.309	18.43
300.523	-32.77
300.737	-8.19
300.952	73.73
301.166	32.77
301.381	30.72
301.595	34.82
301.809	-16.38
302.024	55.3
302.238	36.86
302.452	61.44
302.667	28.67
302.881	-2.05
303.095	53.25
303.309	49.15
303.524	-2.05
303.738	94.21
303.952	71.68
304.166	16.38
304.381	20.48
304.595	77.82
304.809	40.96
305.023	55.3
305.237	-2.05
305.452	83.97
305.666	40.96
305.88	63.49
306.094	47.1
306.308	-18.43
306.522	24.58
306.736	47.1
306.95	32.77
307.164	53.25
307.379	18.43
307.593	32.77
307.807	43.01
308.021	6.14
308.235	-18.43
308.449	6.14
308.663	69.63
308.877	49.15
309.091	-32.77
309.305	12.29
309.519	-43.01
309.733	120.83
309.947	-40.96
310.161	57.34
310.374	71.68
310.588	77.82
310.802	6.14
311.016	22.53
311.23	18.43
311.444	16.38
311.658	51.2
311.872	79.87
312.085	24.58
312.299	108.54
312.513	83.97
312.727	75.77
312.941	-47.1
313.154	47.1
313.368	-4.1
313.582	81.92
313.796	81.92
314.009	61.44
314.223	77.82
314.437	40.96
314.651	16.38
314.864	51.2
315.078	63.49
315.292	6.14
315.505	83.97
315.719	81.92
315.933	0
316.146	-18.43
316.36	51.2
316.573	94.21
316.787	73.73
317.001	-18.43
317.214	24.58
317.428	49.15
317.641	-36.86
317.855	36.86
318.068	30.72
318.282	24.58
318.495	53.25
318.709	71.68
318.922	-4.1
319.136	61.44
319.349	90.11
319.563	8.19
319.776	67.58
319.99	4.1
320.203	65.54
320.417	12.29
320.63	18.43
320.843	94.21
321.057	22.53
321.27	114.69
321.483	-20.48
321.697	106.49
321.91	45.06
322.124	6.14
322.337	90.11
322.55	-12.29
322.763	24.58
322.977	4.1
323.19	24.58
323.403	-8.19
323.617	57.34
323.83	45.06
324.043	22.53
324.256	20.48
324.469	4.1
324.683	75.77
324.896	55.3
325.109	12.29
325.322	-10.24
325.535	20.48
325.748	88.06
325.962	53.25
326.175	22.53
326.388	10.24
326.601	61.44
326.814	30.72
327.027	20.48
327.24	73.73
327.453	30.72
327.666	51.2
327.879	73.73
328.092	100.35
328.305	34.82
328.518	40.96
328.731	49.15
328.944	57.34
329.157	61.44
329.37	100.35
329.583	67.58
329.796	167.93
330.009	30.72
330.222	73.73
330.435	139.26
330.648	34.82
330.861	77.82
331.073	61.44
331.286	118.78
331.499	96.25
331.712	34.82
331.925	57.34
332.138	18.43
332.35	73.73
332.563	-24.58
332.776	81.92
332.989	-32.77
333.202	26.62
333.414	32.77
333.627	112.64
333.84	12.29
334.053	38.91
334.265	40.96
334.478	36.86
334.691	88.06
334.903	96.25
335.116	40.96
335.329	45.06
335.541	61.44
335.754	81.92
335.966	30.72
336.179	77.82
336.392	112.64
336.604	51.2
336.817	122.88
337.029	67.58
337.242	20.48
337.454	63.49
337.667	22.53
337.88	98.3
338.092	34.82
338.305	118.78
338.517	73.73
338.729	18.43
338.942	22.53
339.154	-2.05
339.367	55.3
339.579	81.92
339.792	61.44
340.004	71.68
340.217	79.87
340.429	79.87
340.641	-81.92
340.854	116.73
341.066	94.21
341.278	26.62
341.491	43.01
341.703	45.06
341.915	-12.29
342.128	61.44
342.34	4.1
342.552	-12.29
342.764	22.53
342.977	40.96
343.189	94.21
343.401	65.54
343.613	8.19
343.826	73.73
344.038	-8.19
344.25	65.54
344.462	10.24
344.674	118.78
344.886	57.34
345.099	73.73
345.311	30.72
345.523	45.06
345.735	61.44
345.947	86.01
346.159	43.01
346.371	67.58
346.583	86.01
346.795	139.26
347.007	12.29
347.219	38.91
347.431	6.14
347.643	106.49
347.855	61.44
348.067	133.12
348.279	24.58
348.491	40.96
348.703	112.64
348.915	47.1
349.127	55.3
349.339	116.73
349.551	88.06
349.763	61.44
349.975	28.67
350.187	79.87
350.399	20.48
350.61	71.68
350.822	20.48
351.034	28.67
351.246	28.67
351.458	104.45
351.669	65.54
351.881	59.39
352.093	104.45
352.305	124.93
352.517	36.86
352.728	63.49
352.94	24.58
353.152	98.3
353.363	-16.38
353.575	86.01
353.787	57.34
353.999	20.48
354.21	104.45
354.422	-24.58
354.633	30.72
354.845	10.24
355.057	-6.14
355.268	83.97
355.48	43.01
355.692	26.62
355.903	40.96
356.115	30.72
356.326	-12.29
356.538	45.06
356.749	47.1
356.961	61.44
357.172	12.29
357.384	73.73
357.595	143.36
357.807	-8.19
358.018	61.44
358.23	65.54
358.441	96.25
358.653	79.87
358.864	36.86
359.075	53.25
359.287	12.29
359.498	120.83
359.709	28.67
359.921	-20.48
360.132	96.25
360.344	53.25
360.555	0
360.766	18.43
360.977	28.67
361.189	88.06
361.4	40.96
361.611	61.44
361.823	71.68
362.034	24.58
362.245	106.49
362.456	77.82
362.667	106.49
362.879	88.06
363.09	49.15
363.301	40.96
363.512	77.82
363.723	67.58
363.935	61.44
364.146	69.63
364.357	-24.58
364.568	118.78
364.779	90.11
364.99	69.63
365.201	49.15
365.412	96.25
365.623	32.77
365.834	83.97
366.045	77.82
366.256	92.16
366.467	88.06
366.678	59.39
366.889	55.3
367.1	20.48
367.311	57.34
367.522	55.3
367.733	65.54
367.944	32.77
368.155	59.39
368.366	45.06
368.577	83.97
368.788	114.69
368.999	49.15
369.209	38.91
369.42	98.3
369.631	98.3
369.842	30.72
370.053	22.53
370.264	59.39
370.474	94.21
370.685	18.43
370.896	51.2
371.107	18.43
371.317	61.44
371.528	24.58
371.739	129.02
371.95	57.34
372.16	28.67
372.371	32.77
372.582	63.49
372.792	16.38
373.003	14.34
373.214	69.63
373.424	90.11
373.635	6.14
373.846	110.59
374.056	122.88
374.267	102.4
374.477	83.97
374.688	32.77
374.898	18.43
375.109	110.59
375.319	-12.29
375.53	100.35
375.74	14.34
375.951	-26.62
376.161	36.86
376.372	57.34
376.582	40.96
376.793	40.96
377.003	79.87
377.214	-18.43
377.424	104.45
377.635	10.24
377.845	63.49
378.055	73.73
378.266	16.38
378.476	90.11
378.686	63.49
378.897	61.44
379.107	124.93
379.317	116.73
379.528	40.96
379.738	100.35
379.948	43.01
380.158	110.59
380.369	108.54
380.579	90.11
380.789	88.06
380.999	90.11
381.21	118.78
381.42	77.82
381.63	63.49
381.84	59.39
382.05	10.24
382.261	102.4
382.471	34.82
382.681	0
382.891	137.21
383.101	18.43
383.311	65.54
383.521	108.54
383.731	40.96
383.941	137.21
384.151	90.11
384.361	30.72
384.571	77.82
384.781	65.54
384.991	16.38
385.201	67.58
385.411	118.78
385.621	73.73
385.831	53.25
386.041	139.26
386.251	73.73
386.461	57.34
386.671	57.34
386.881	59.39
387.091	55.3
387.301	114.69
387.511	96.25
387.72	110.59
387.93	79.87
388.14	116.73
388.35	73.73
388.56	98.3
388.769	122.88
388.979	-14.34
389.189	86.01
389.399	47.1
389.609	59.39
389.818	71.68
390.028	49.15
390.238	106.49
390.447	53.25
390.657	110.59
390.867	90.11
391.076	40.96
391.286	100.35
391.496	57.34
391.705	30.72
391.915	36.86
392.125	98.3
392.334	79.87
392.544	98.3
392.753	94.21
392.963	129.02
393.172	106.49
393.382	102.4
393.591	135.17
393.801	55.3
394.01	188.41
394.22	118.78
394.429	100.35
394.639	100.35
394.848	131.07
395.058	131.07
395.267	159.74
395.477	139.26
395.686	122.88
395.895	139.26
396.105	163.84
396.314	118.78
396.524	157.69
396.733	114.69
396.942	186.37
397.152	45.06
397.361	83.97
397.57	71.68
397.78	124.93
397.989	131.07
398.198	225.28
398.407	65.54
398.617	137.21
398.826	169.98
399.035	100.35
399.244	141.31
399.453	159.74
399.663	120.83
399.872	225.28
400.081	88.06
400.29	210.94
400.499	98.3
400.708	194.56
400.917	118.78
401.127	102.4
401.336	184.32
401.545	268.28
401.754	184.32
401.963	124.93
402.172	143.36
402.381	71.68
402.59	139.26
402.799	172.03
403.008	192.51
403.217	200.7
403.426	122.88
403.635	200.7
403.844	225.28
404.053	204.8
404.262	188.41
404.471	270.33
404.68	180.22
404.888	215.04
405.097	204.8
405.306	268.28
405.515	241.66
405.724	219.13
405.933	229.37
406.142	286.72
406.35	239.61
406.559	339.96
406.768	276.48
406.977	260.09
407.185	303.1
407.394	296.96
407.603	258.04
407.812	247.8
408.02	350.2
408.229	276.48
408.438	352.25
408.646	327.68
408.855	415.74
409.064	354.3
409.272	393.21
409.481	380.92
409.69	460.79
409.898	362.49
410.107	532.47
410.315	393.21
410.524	448.51
410.733	507.9
410.941	567.29
411.15	503.8
411.358	593.91
411.567	653.3
411.775	544.76
411.984	612.34
412.192	622.58
412.401	610.29
412.609	684.02
412.818	694.26
413.026	702.45
413.234	710.65
413.443	774.13
413.651	849.91
413.86	825.33
414.068	821.24
414.276	845.81
414.485	878.58
414.693	956.4
414.901	970.74
415.11	964.59
415.318	962.55
415.526	1069.04
415.734	1126.38
415.943	1105.9
416.151	1212.4
416.359	1210.35
416.567	1212.4
416.776	1359.85
416.984	1462.25
417.192	1474.54
417.4	1433.58
417.608	1417.19
417.817	1523.69
418.025	1574.89
418.233	1630.18
418.441	1679.33
418.649	1759.21
418.857	1888.23
419.065	1867.75
419.273	1888.23
419.481	1869.8
419.689	2054.11
419.897	2220
420.105	2250.72
420.313	2263.01
420.521	2439.13
420.729	2471.9
420.937	2504.67
421.145	2613.21
421.353	2641.88
421.561	2772.95
421.769	2887.64
421.977	3194.83
422.185	3012.56
422.393	3141.58
422.601	3348.43
422.809	3289.04
423.017	3305.42
423.224	3452.88
423.432	3602.38
423.64	3676.1
423.848	3901.38
424.056	3911.62
424.263	4138.94
424.471	4167.62
424.679	4126.66
424.887	4435.9
425.094	4558.78
425.302	4685.75
425.51	4777.91
425.718	4982.71
425.925	4992.95
426.133	5275.57
426.341	5590.95
426.548	5699.5
426.756	5703.59
426.964	5799.85
427.171	6121.38
427.379	6240.16
427.586	6365.09
427.794	6567.84
428.001	7135.12
428.209	7235.47
428.417	7145.36
428.624	7741.32
428.832	7501.71
429.039	7380.88
429.247	7561.1
429.454	8402.82
429.662	8908.66
429.869	8216.45
430.076	8712.06
430.284	8454.01
430.491	9025.4
430.699	9623.41
430.906	9449.33
431.114	9852.78
431.321	9838.44
431.528	10084.2
431.736	10571.61
431.943	11128.66
432.15	10919.77
432.358	11198.29
432.565	11673.42
432.772	11611.98
432.979	12191.56
433.187	12320.58
433.394	12603.2
433.601	13442.87
433.808	13502.26
434.016	13242.17
434.223	14065.45
434.43	14698.27
434.637	14319.4
434.844	15322.9
435.052	15462.16
435.259	15451.92
435.466	15732.5
435.673	15478.55
435.88	16510.72
436.087	17293.05
436.294	17194.75
436.501	16707.33
436.708	17190.65
436.915	17846
437.122	18657
437.329	18671.33
437.537	19347.16
437.743	19386.07
437.95	19394.26
438.157	20106.96
438.364	20950.72
438.571	21034.69
438.778	21001.92
438.985	23166.62
439.192	22111.92
439.399	22781.6
439.606	22550.18
439.813	23656.09
440.02	25028.23
440.227	24671.88
440.433	24313.49
440.64	25278.08
440.847	25077.38
441.054	25669.24
441.261	27373.15
441.467	26906.21
441.674	27547.23
441.881	28231.25
442.088	28460.62
442.294	28042.84
442.501	28825.16
442.708	29359.68
442.914	30764.59
443.121	31841.82
443.328	30697
443.534	33144.33
443.741	32048.66
443.948	31673.88
444.154	33748.48
444.361	33768.96
444.568	33998.33
444.774	34350.58
444.981	34256.37
445.187	35194.34
445.394	36943.31
445.6	35804.64
445.807	39536.04
446.013	38299.06
446.22	38657.46
446.426	39855.52
446.633	40537.49
446.839	41725.32
447.046	39996.83
447.252	42216.83
447.459	42210.68
447.665	42009.98
447.871	43570.54
448.078	45622.6
448.284	43222.38
448.491	44729.69
448.697	46644.54
448.903	46736.69
449.11	47285.55
449.316	46540.09
449.522	46945.59
449.728	48094.5
449.935	48786.71
450.141	48543
450.347	49734.92
450.553	48325.92
450.76	48751.9
450.966	50160.9
451.172	49595.66
451.378	50806.01
451.584	49730.83
451.791	50754.81
451.997	50857.21
452.203	51717.35
452.409	51533.04
452.615	51217.65
452.821	49229.07
453.027	48858.39
453.233	51551.47
453.44	49214.74
453.646	50156.8
453.852	50324.74
454.058	51135.73
454.264	49276.18
454.47	50308.35
454.676	49077.52
454.882	50496.77
455.088	46320.96
455.294	47195.44
455.5	47516.97
455.705	47848.74
455.911	45960.51
456.117	45233.49
456.323	44590.42
456.529	42364.28
456.735	43894.11
456.941	42730.87
457.147	42472.82
457.352	40752.53
457.558	40619.41
457.764	40705.43
457.97	39873.95
458.176	38989.23
458.381	39073.2
458.587	36935.12
458.793	37160.39
458.999	35579.36
459.204	37868.99
459.41	36890.06
459.616	34516.47
459.821	34125.3
460.027	34659.82
460.233	33338.88
460.438	32210.45
460.644	32544.27
460.85	30651.95
461.055	30185.01
461.261	30201.4
461.466	28104.28
461.672	27410.01
461.878	29294.15
462.083	27412.06
462.289	27039.33
462.494	26484.33
462.7	25169.54
462.905	24614.54
463.111	25652.86
463.316	25693.82
463.522	25198.21
463.727	25484.92
463.932	25063.04
464.138	24866.44
464.343	24796.81
464.549	23944.85
464.754	25081.47
464.959	24733.32
465.165	24692.36
465.37	23488.15
465.575	23129.76
465.781	23793.3
465.986	24147.6
466.191	23250.59
466.397	22662.82
466.602	21243.58
466.807	22533.8
467.012	22433.45
467.218	22329
467.423	22021.81
467.628	22259.37
467.833	23240.35
468.038	22406.83
468.244	21567.16
468.449	22376.11
468.654	21892.79
468.859	21819.06
469.064	21536.44
469.269	20627.14
469.474	21124.8
469.679	21290.68
469.885	20541.13
470.09	20868.8
470.295	20750.02
470.5	20119.24
470.705	20135.63
470.91	19834.58
471.115	19723.99
471.32	19957.46
471.525	19867.34
471.73	19660.5
471.935	19130.08
472.139	18577.12
472.344	18849.5
472.549	18530.02
472.754	18423.53
472.959	18280.17
473.164	18052.84
473.369	17444.6
473.574	18165.48
473.778	17962.73
473.983	17903.34
474.188	17784.56
474.393	17102.59
474.598	16989.95
474.802	16715.52
475.007	16740.1
475.212	16883.45
475.417	16197.38
475.621	16217.86
475.826	16312.07
476.031	16035.6
476.235	15544.08
476.44	15992.59
476.645	15513.36
476.849	15474.45
477.054	15589.14
477.259	15445.78
477.463	15167.26
477.668	14769.95
477.872	14925.6
478.077	14892.83
478.282	14413.6
478.486	14399.27
478.691	14327.59
478.895	14237.48
479.1	14094.12
479.304	14214.95
479.509	13879.08
479.713	13817.65
479.918	13860.65
480.122	13293.37
480.326	13764.4
480.531	13936.43
480.735	13410.1
480.94	13563.7
481.144	13563.7
481.348	13229.88
481.553	13334.32
481.757	12969.79
481.961	13219.64
482.166	13428.53
482.37	13326.13
482.574	12900.16
482.778	13119.29
482.983	13350.71
483.187	13164.34
483.391	13428.53
483.595	13166.39
483.8	13059.9
484.004	13041.46
484.208	13309.75
484.412	13123.38
484.616	13074.23
484.821	13279.03
485.025	12805.95
485.229	13285.17
485.433	13133.62
485.637	13098.81
485.841	12992.31
486.045	12959.55
486.249	13102.9
486.453	13133.62
486.657	12947.26
486.861	13188.92
487.065	12881.72
487.269	13236.02
487.473	13117.24
487.677	13305.65
487.881	13287.22
488.085	13172.53
488.289	13260.6
488.493	13279.03
488.697	13291.32
488.901	13238.07
489.105	13246.26
489.309	13336.37
489.512	13166.39
489.716	13414.2
489.92	13154.1
490.124	13053.75
490.328	13705.01
490.531	13236.02
490.735	13612.85
490.939	13721.39
491.143	13336.37
491.346	13618.99
491.55	13735.73
491.754	13502.26
491.958	13645.62
492.161	13532.98
492.365	14073.64
492.569	13795.12
492.772	13795.12
492.976	13991.72
493.18	14036.78
493.383	14255.91
493.587	14247.72
493.79	14563.11
493.994	14206.76
494.197	14311.21
494.401	14522.15
494.605	14657.31
494.808	15019.8
495.012	14763.81
495.215	15083.29
495.419	15050.52
495.622	15109.91
495.825	15363.86
496.029	15314.71
496.232	15855.37
496.436	15705.87
496.639	16015.12
496.843	16037.64
497.046	16553.73
497.249	16594.69
497.453	16551.68
497.656	16727.81
497.859	16690.95
498.063	16727.81
498.266	17178.36
498.469	17204.99
498.673	17387.25
498.876	17610.48
499.079	17553.14
499.282	17596.15
499.485	18370.28
499.689	18441.96
499.892	18509.54
500.095	18609.89
500.298	19068.64
500.501	18630.37
500.705	19455.7
500.908	19881.68
501.111	19633.88
501.314	19971.79
501.517	19871.44
501.72	20244.17
501.923	20240.08
502.126	20981.44
502.329	21008.06
502.532	21522.1
502.735	21450.42
502.938	21866.16
503.141	21659.32
503.344	22320.81
503.547	22408.87
503.75	22585
503.953	23092.9
504.156	23080.61
504.359	23508.63
504.562	23465.63
504.765	23967.38
504.968	23979.67
505.17	24084.11
505.373	24436.36
505.576	24643.21
505.779	25058.95
505.982	25067.14
506.185	25849.46
506.387	25738.87
506.59	26152.56
506.793	26599.02
506.996	26150.51
507.198	27479.64
507.401	27078.24
507.604	27356.77
507.807	28051.03
508.009	28274.26
508.212	28366.42
508.415	28935.75
508.617	28708.43
508.82	29058.63
509.022	29097.54
509.225	29701.69
509.428	30017.08
509.63	29955.64
509.833	30193.2
510.035	31241.76
510.238	30934.57
510.44	31553.05
510.643	31634.97
510.845	32400.91
511.048	31966.74
511.25	32802.32
511.453	32583.18
511.655	33398.27
511.858	33244.68
512.06	33803.77
512.262	33983.99
512.465	33938.94
512.667	34534.9
512.87	35128.81
513.072	35124.71
513.274	35993.05
513.477	36214.23
513.679	36388.31
513.881	37092.81
514.084	37101
514.286	37025.23
514.488	37490.12
514.69	38372.79
514.893	38303.16
515.095	38512.05
515.297	39003.56
515.499	39024.04
515.701	39527.84
515.904	40117.66
516.106	40105.37
516.308	41047.44
516.51	41319.82
516.712	41039.25
516.914	41532.81
517.116	42100.09
517.318	42526.07
517.52	42476.92
517.722	42968.43
517.925	43439.47
518.127	43828.58
518.329	43877.73
518.531	43541.86
518.733	44758.36
518.935	45626.7
519.136	44944.72
519.338	45878.6
519.54	46370.11
519.742	46607.67
519.944	46267.71
520.146	47125.81
520.348	47670.57
520.55	47813.93
520.752	47779.11
520.954	48712.98
521.155	48223.52
521.357	48930.07
521.559	49435.92
521.761	50089.22
521.963	49992.97
522.164	50216.19
522.366	50488.57
522.568	50791.67
522.77	51029.24
522.971	51860.71
523.173	51418.35
523.375	51727.59
523.576	52079.85
523.778	52090.09
523.98	53218.52
524.181	53132.5
524.383	53277.91
524.584	53814.47
524.786	53826.76
524.988	53376.21
525.189	54486.21
525.391	54813.88
525.592	54480.06
525.794	55348.4
525.995	55377.07
526.197	54920.38
526.398	56132.78
526.6	55932.07
526.801	55956.65
527.003	56259.75
527.204	56659.1
527.406	56911
527.607	56749.21
527.808	57525.39
528.01	56673.44
528.211	57425.04
528.412	58033.29
528.614	57861.26
528.815	58145.93
529.016	58395.78
529.218	57564.31
529.419	58334.34
529.62	58516.61
529.822	58590.34
530.023	58606.72
530.224	58911.87
530.425	58672.26
530.626	58631.3
530.828	58547.33
531.029	59298.94
531.23	58674.3
531.431	58860.67
531.632	59131
531.833	59518.07
532.035	59516.02
532.236	59061.37
532.437	59909.23
532.638	59102.33
532.839	59747.44
533.04	59593.84
533.241	59704.43
533.442	60152.94
533.643	59583.6
533.844	60097.64
534.045	59819.12
534.246	59548.79
534.447	59989.1
534.648	59196.54
534.849	60261.48
535.05	59634.8
535.251	59819.12
535.451	59905.13
535.652	60238.95
535.853	59982.96
536.054	60181.61
536.255	60400.74
536.456	59552.88
536.657	60476.52
536.857	59616.37
537.058	59784.3
537.259	60236.9
537.46	60236.9
537.66	59956.33
537.861	60013.68
538.062	59565.17
538.263	60255.34
538.463	59663.47
538.664	60134.51
538.865	59755.63
539.065	60292.2
539.266	59352.18
539.466	60300.39
539.667	59546.74
539.868	60310.63
540.068	59995.24
540.269	59829.36
540.469	60728.42
540.67	59729.01
540.87	60060.78
541.071	60036.2
541.271	60222.57
541.472	59649.14
541.672	59729.01
541.873	59921.52
542.073	59200.63
542.274	60365.93
542.474	59364.47
542.675	59954.29
542.875	60343.4
543.075	59982.96
543.276	59671.67
543.476	60329.06
543.676	59671.67
543.877	60150.89
544.077	59671.67
544.277	59772.02
544.478	59661.43
544.678	59804.78
544.878	59511.92
545.078	59860.08
545.279	59399.29
545.479	59712.62
545.679	60302.44
545.879	59442.29
546.079	59618.42
546.28	59341.94
546.48	58938.49
546.68	59657.33
546.88	59321.46
547.08	59712.62
547.28	59548.79
547.48	59409.53
547.68	59411.57
547.88	58764.42
548.081	59559.03
548.281	59704.43
548.481	58969.21
548.681	59876.46
548.881	59561.08
549.081	59724.91
549.28	59012.22
549.48	60150.89
549.68	59210.87
549.88	59700.34
550.08	59628.66
550.28	59501.68
550.48	59040.89
550.68	59479.16
550.88	59149.43
551.08	59194.49
551.279	59270.26
551.479	59008.12
551.679	59407.48
551.879	59051.13
552.079	59487.35
552.278	58674.3
552.478	59159.67
552.678	59217.02
552.878	59683.95
553.077	58643.59
553.277	58494.08
553.477	59520.12
553.676	58059.91
553.876	58954.88
554.076	58782.85
554.275	58971.26
554.475	58375.3
554.674	58991.74
554.874	58297.48
555.074	58485.89
555.273	58684.54
555.473	58827.9
555.672	58627.2
555.872	58532.99
556.071	58369.16
556.271	59110.52
556.47	58520.71
556.67	58057.87
556.869	57840.78
557.068	58553.47
557.268	57742.48
557.467	58553.47
557.667	57967.76
557.866	57836.69
558.065	58002.57
558.265	57922.7
558.464	57486.48
558.663	58291.33
558.863	57453.72
559.062	57814.16
559.261	57193.62
559.461	58084.49
559.66	56814.75
559.859	57785.49
560.058	57037.98
560.258	57451.67
560.457	57146.52
560.656	57070.75
560.855	57025.69
561.054	56976.54
561.253	56530.08
561.453	57189.53
561.652	56718.49
561.851	56927.39
562.05	56702.11
562.249	55960.75
562.448	56612
562.647	56691.87
562.846	56091.82
563.045	56437.92
563.244	55796.91
563.443	56265.89
563.642	55563.44
563.841	55676.08
564.04	55616.69
564.239	56278.18
564.438	55215.29
564.637	55946.41
564.836	55651.5
565.035	55104.7
565.234	54899.9
565.432	54990.01
565.631	54990.01
565.83	55004.34
566.029	54756.54
566.228	54244.55
566.427	54330.56
566.625	54555.84
566.824	53929.16
567.023	54320.32
567.222	53376.21
567.42	54344.9
567.619	53515.47
567.818	53996.74
568.016	53990.6
568.215	54093
568.414	53368.02
568.612	53929.16
568.811	53165.27
569.01	53521.62
569.208	52630.75
569.407	53359.83
569.605	52387.04
569.804	53036.25
570.002	52868.31
570.201	52729.05
570.4	52440.29
570.598	52200.68
570.797	51832.04
570.995	52352.23
571.193	51750.12
571.392	52118.76
571.59	51064.05
571.789	51956.97
571.987	51537.13
572.186	51242.23
572.384	51143.92
572.582	51064.05
572.781	51166.45
572.979	50603.26
573.177	50959.61
573.376	51340.53
573.574	50717.95
573.772	50795.77
573.971	50595.07
574.169	50214.15
574.367	50050.31
574.565	50459.9
574.763	49841.42
574.962	49956.1
575.16	49483.02
575.358	49702.15
575.556	48950.55
575.754	49806.6
575.952	49169.68
576.151	49798.41
576.349	48657.69
576.547	49276.18
576.745	48909.59
576.943	48971.03
577.141	48751.9
577.339	48831.77
577.537	48557.34
577.735	48487.71
577.933	48397.6
578.131	48352.54
578.329	48155.94
578.527	47754.54
578.725	47564.07
578.923	47949.09
579.121	47549.74
579.319	47519.02
579.516	47562.03
579.714	47465.77
579.912	47355.18
580.11	46757.17
580.308	46998.83
580.506	47054.13
580.704	46535.99
580.901	46847.29
581.099	46568.76
581.297	46159.17
581.495	46257.47
581.692	46318.91
581.89	45966.66
582.088	46302.53
582.285	45749.57
582.483	46069.06
582.681	45532.49
582.878	45802.82
583.076	44819.8
583.274	45366.6
583.471	45157.71
583.669	45526.35
583.866	45227.34
584.064	45229.39
584.262	44318.04
584.459	44868.95
584.657	44176.73
584.854	44592.47
585.052	43918.69
585.249	44428.63
585.447	44313.95
585.644	43783.52
585.841	43691.37
586.039	44580.18
586.236	43343.21
586.434	43357.55
586.631	43316.59
586.828	43582.82
587.026	43263.34
587.223	43156.85
587.42	42896.75
587.618	42980.72
587.815	42184.06
588.012	42585.46
588.21	42866.03
588.407	42833.27
588.604	42308.99
588.801	42200.44
588.999	42249.6
589.196	41962.88
589.393	41919.87
589.59	41805.19
589.787	41653.64
589.984	41602.44
590.182	41358.73
590.379	41551.24
590.576	41250.19
590.773	41446.79
590.97	40942.99
591.167	41149.84
591.364	40467.86
591.561	40793.49
591.758	40512.92
591.955	40252.83
592.152	40824.21
592.349	40361.37
592.546	40138.14
592.743	40209.82
592.94	39486.89
593.137	40074.65
593.334	40017.31
593.531	39196.07
593.727	39536.04
593.924	39626.15
594.121	39089.58
594.318	39693.73
594.515	38782.38
594.712	39194.03
594.908	38766
595.105	39007.66
595.302	38333.88
595.499	38671.79
595.696	38114.75
595.892	38340.02
596.089	38172.09
596.286	38546.87
596.482	37955
596.679	38340.02
596.876	37897.66
597.072	37402.05
597.269	37647.81
597.466	37205.45
597.662	37101
597.859	37445.06
598.055	37270.98
598.252	36728.27
598.448	36945.36
598.645	36808.14
598.841	36580.82
599.038	36693.46
599.234	36308.44
599.431	36351.45
599.627	36152.79
599.824	36257.24
600.02	36218.33
600.217	36013.53
600.413	35218.92
600.609	35794.4
600.806	35562.98
601.002	35749.34
601.198	35423.72
601.395	35448.29
601.591	35053.03
601.787	35231.21
601.984	34686.45
602.18	35372.52
602.376	34885.1
602.572	34567.66
602.769	34668.01
602.965	34592.24
603.161	34452.98
603.357	34108.92
603.553	33986.04
603.75	34364.92
603.946	33705.47
604.142	34328.05
604.338	33635.84
604.534	33871.36
604.73	33449.47
604.926	33166.85
605.122	33789.44
605.318	33549.82
605.514	32994.82
605.71	33183.24
605.906	33213.96
606.102	32927.24
606.298	32658.96
606.494	32826.89
606.69	32665.1
606.886	32847.37
607.082	32263.7
607.278	32574.99
607.474	32263.7
607.67	32433.68
607.866	32204.31
608.062	32544.27
608.257	32235.03
608.453	32292.37
608.649	32081.43
608.845	31364.64
609.041	31743.52
609.236	32024.09
609.432	31653.41
609.628	31872.54
609.824	31802.91
610.019	31397.41
610.215	31401.5
610.411	31608.35
610.606	31237.67
610.802	31383.07
610.998	31284.77
611.193	31122.98
611.389	31024.68
611.584	30967.34
611.78	30701.1
611.976	30979.62
612.171	30803.5
612.367	30711.34
612.562	30629.42
612.758	30238.26
612.953	30565.93
613.149	31163.94
613.344	29976.12
613.539	30717.48
613.735	30498.35
613.93	30549.55
614.126	30051.89
614.321	30557.74
614.517	30060.09
614.712	30070.33
614.907	29953.59
615.103	29943.35
615.298	30238.26
615.493	30092.85
615.688	29525.57
615.884	30168.63
616.079	29789.75
616.274	29822.52
616.47	29681.21
616.665	29695.55
616.86	29720.12
617.055	29384.26
617.25	29349.44
617.445	29343.3
617.641	28759.63
617.836	29179.46
618.031	28663.37
618.226	29146.69
618.421	28804.68
618.616	28583.5
618.811	28290.64
619.006	28610.12
619.201	28245.58
619.396	28597.84
619.591	27792.98
619.786	28210.77
619.981	27825.75
620.176	28417.61
620.371	27788.89
620.566	27829.85
620.761	27379.29
620.956	27594.33
621.151	27369.05
621.346	27833.94
621.541	26881.64
621.735	27176.55
621.93	26840.68
622.125	26553.96
622.32	26478.19
622.515	26560.11
622.709	26074.74
622.904	26470
623.099	25962.1
623.294	25906.8
623.488	25839.22
623.683	25945.72
623.878	25386.62
624.072	25570.94
624.267	25058.95
624.462	25112.19
624.656	25091.71
624.851	24856.2
625.046	24628.87
625.24	24571.53
625.435	24286.86
625.629	24581.77
625.824	24286.86
626.018	24340.11
626.213	23535.26
626.407	23938.71
626.602	23226.01
626.796	23764.63
626.991	23813.78
627.185	23518.87
627.38	23406.23
627.574	23006.88
627.768	22900.39
627.963	22959.78
628.157	22679.21
628.352	22750.88
628.546	21855.92
628.74	22689.45
628.935	22271.66
629.129	22406.83
629.323	21812.92
629.517	22062.77
629.712	21829.3
629.906	21491.38
630.1	21397.18
630.294	21278.4
630.489	21184.19
630.683	21049.02
630.877	21300.92
631.071	20989.63
631.265	20844.23
631.459	20827.84
631.653	20399.82
631.848	20358.86
632.042	20563.65
632.236	20520.65
632.43	20227.79
632.624	19912.4
632.818	19951.31
633.012	19869.39
633.206	19783.38
633.4	19812.05
633.594	19312.35
633.788	19549.91
633.982	19586.77
634.176	19289.82
634.369	19058.4
634.563	18994.91
634.757	19027.68
634.951	18886.37
635.145	18624.23
635.339	18716.39
635.533	18607.84
635.726	18589.41
635.92	18249.45
636.114	18126.57
636.308	18192.11
636.501	18206.44
636.695	18190.06
636.889	17827.57
637.083	18097.9
637.276	17559.28
637.47	17512.18
637.664	17579.76
637.857	17563.38
638.051	17442.55
638.244	17239.8
638.438	17424.12
638.632	17127.16
638.825	16832.26
639.019	16858.88
639.212	16639.75
639.406	16744.19
639.599	16750.34
639.793	16502.53
639.986	16344.84
640.18	16379.65
640.373	16269.06
640.567	16047.88
640.76	16283.4
640.954	15949.58
641.147	15873.81
641.34	15673.1
641.534	15496.98
641.727	15464.21
641.92	15816.46
642.114	15650.58
642.307	15130.39
642.5	15320.85
642.694	15052.57
642.887	15079.19
643.08	14962.46
643.273	15040.28
643.467	15071
643.66	15052.57
643.853	14743.33
644.046	14518.05
644.239	14755.61
644.432	14511.91
644.626	14417.7
644.819	14374.69
645.012	14137.13
645.205	14073.64
645.398	14022.44
645.591	13879.08
645.784	14016.3
645.977	13842.22
646.17	14010.15
646.363	13821.74
646.556	13582.13
646.749	13524.79
646.942	13623.09
647.135	13416.24
647.328	13313.84
647.521	13082.42
647.714	13156.15
647.907	13178.68
648.099	13102.9
648.292	13051.7
648.485	12959.55
648.678	12840.76
648.871	13125.43
649.064	12502.85
649.256	12851
649.449	12689.21
649.642	12719.93
649.835	12353.35
650.027	12547.9
650.22	12541.76
650.413	12296
650.605	12230.47
650.798	12296
650.991	12048.2
651.183	12023.62
651.376	11886.41
651.568	11837.26
651.761	11640.65
651.954	11890.51
652.146	11433.81
652.339	11687.76
652.531	11593.55
652.724	11644.75
652.916	11433.81
653.109	11435.86
653.301	11403.09
653.494	11351.89
653.686	11186.01
653.879	11290.45
654.071	11214.68
654.263	11063.13
654.456	11046.74
654.648	11069.27
654.84	10956.63
655.033	10932.06
655.225	10755.93
655.417	10581.85
655.61	10571.61
655.802	10520.42
655.994	10481.5
656.186	10495.84
656.379	10329.95
656.571	10530.66
656.763	10297.19
656.955	10303.33
657.148	10284.9
657.34	10176.36
657.532	10121.06
657.724	9977.7
657.916	10057.57
658.108	9989.99
658.3	9842.54
658.492	9887.59
658.684	9564.01
658.876	9822.06
659.068	9666.41
659.26	9652.08
659.452	9475.95
659.644	9566.06
659.836	9566.06
660.028	9617.26
660.22	9451.38
660.412	9273.2
660.604	9244.53
660.796	9215.86
660.988	9273.2
661.18	9039.73
661.372	9248.63
661.563	9142.13
661.755	8820.6
661.947	8925.05
662.139	8884.09
662.331	8806.27
662.522	8759.16
662.714	8787.83
662.906	8761.21
663.097	8851.32
663.289	8705.92
663.481	8804.22
663.673	8667
663.864	8411.01
664.056	8484.73
664.247	8441.73
664.439	8529.79
664.631	8400.77
664.822	8286.08
665.014	8263.55
665.205	8443.78
665.397	8116.1
665.588	8099.72
665.78	7888.78
665.971	8163.2
666.163	7872.39
666.354	7921.54
666.546	7860.1
666.737	7870.34
666.929	7899.02
667.12	7874.44
667.311	7851.91
667.503	7813
667.694	7845.77
667.885	7700.36
668.077	7665.55
668.268	7657.36
668.459	7643.02
668.651	7696.27
668.842	7573.39
669.033	7628.68
669.224	7538.57
669.416	7487.37
669.607	7466.89
669.798	7348.11
669.989	7370.64
670.18	7403.41
670.371	7288.72
670.563	7225.23
670.754	7178.13
670.945	7198.61
671.136	7307.15
671.327	7204.75
671.518	6981.53
671.709	7208.85
671.9	7065.49
672.091	6918.04
672.282	7214.99
672.473	6842.26
672.664	6801.3
672.855	6866.84
673.046	6891.41
673.237	6813.59
673.428	6875.03
673.619	6868.89
673.809	6776.73
674	6674.33
674.191	6797.21
674.382	6852.5
674.573	6760.34
674.764	6727.58
674.954	6748.06
675.145	6582.17
675.336	6541.21
675.527	6582.17
675.717	6541.21
675.908	6371.23
676.099	6479.77
676.289	6477.73
676.48	6623.13
676.671	6582.17
676.861	6590.36
677.052	6401.95
677.243	6293.41
677.433	6397.85
677.624	6559.64
677.814	6412.19
678.005	6307.74
678.195	6344.61
678.386	6414.24
678.576	6328.22
678.767	6119.33
678.957	6215.59
679.148	6395.81
679.338	6324.13
679.529	6109.09
679.719	6324.13
679.909	6342.56
680.1	6266.78
680.29	6121.38
680.481	6111.14
680.671	6256.54
680.861	6102.95
681.052	6205.35
681.242	6229.92
681.432	6178.72
681.622	6111.14
681.813	6188.96
682.003	6023.08
682.193	6074.28
682.383	6184.87
682.573	6231.97
682.764	5904.29
682.954	6078.37
683.144	6002.6
683.334	5912.49
683.524	5910.44
683.714	5922.73
683.904	5918.63
684.094	5719.98
684.284	6018.98
684.474	5758.89
684.664	5789.61
684.854	5844.9
685.044	5861.29
685.234	5691.31
685.424	5676.97
685.614	5842.85
685.804	5615.53
685.994	5826.47
686.184	5719.98
686.374	5679.02
686.564	5613.48
686.753	5644.2
686.943	5392.3
687.133	5582.76
687.323	5570.48
687.513	5504.94
687.702	5603.24
687.892	5578.67
688.082	5511.08
688.272	5652.39
688.461	5482.41
688.651	5476.27
688.841	5242.8
689.03	5162.93
689.22	5404.59
689.41	5435.31
689.599	5287.86
689.789	5179.31
689.979	5332.91
690.168	5136.31
690.358	5201.84
690.547	5250.99
690.737	5193.65
690.926	5265.33
691.116	4923.32
691.305	5154.74
691.495	4949.94
691.684	5005.24
691.874	5097.39
692.063	4951.99
692.252	5038
692.442	5085.11
692.631	4861.88
692.82	5035.96
693.01	4913.08
693.199	4990.9
693.388	4911.03
693.578	4818.87
693.767	5070.77
693.956	4792.25
694.146	4837.3
694.335	4775.86
694.524	4827.06
694.713	4743.1
694.902	4960.18
695.092	4837.3
695.281	4704.18
695.47	4714.42
695.659	4698.04
695.848	4706.23
696.037	4798.39
696.226	4775.86
696.415	4585.4
696.604	4788.15
696.793	4642.75
696.982	4460.48
697.171	4630.46
697.36	4736.95
697.549	4415.42
697.738	4681.66
697.927	4577.21
698.116	4497.34
698.305	4415.42
698.494	4513.72
698.683	4634.55
698.872	4386.75
699.061	4462.52
699.25	4405.18
699.438	4540.35
699.627	4480.96
699.816	4583.35
700.005	4546.49
700.193	4534.2
700.382	4517.82
700.571	4452.28
700.76	4399.04
700.948	4415.42
701.137	4306.88
701.326	4376.51
701.514	4505.53
701.703	4337.6
701.892	4370.37
702.08	4573.11
702.269	4478.91
702.457	4421.56
702.646	4454.33
702.834	4335.55
703.023	4386.75
703.212	4337.6
703.4	4286.4
703.589	4503.48
703.777	4415.42
703.965	4337.6
704.154	4399.04
704.342	4284.35
704.531	4267.97
704.719	4325.31
704.907	4394.94
705.096	4184
705.284	4388.8
705.472	4370.37
705.661	4251.58
705.849	4413.37
706.037	4212.67
706.226	4206.53
706.414	4374.46
706.602	4235.2
706.79	4224.96
706.979	4204.48
707.167	4341.69
707.355	4380.61
707.543	4188.1
707.731	4483
707.919	4382.65
708.107	4249.54
708.296	4315.07
708.484	4239.3
708.672	4292.54
708.86	4415.42
709.048	4366.27
709.236	4288.45
709.424	4218.82
709.612	4272.06
709.8	4382.65
709.988	4380.61
710.176	4282.3
710.364	4237.25
710.551	4507.58
710.739	4341.69
710.927	4349.89
711.115	4202.43
711.303	4337.6
711.491	4308.93
711.679	4442.04
711.866	4267.97
712.054	4298.69
712.242	4171.71
712.43	4429.76
712.617	4343.74
712.805	4323.26
712.993	4247.49
713.181	4243.39
713.368	4196.29
713.556	4427.71
713.744	4243.39
713.931	4267.97
714.119	4261.82
714.306	4327.36
714.494	4370.37
714.682	4270.01
714.869	4255.68
715.057	4349.89
715.244	4237.25
715.432	4458.43
715.619	4372.41
715.807	4470.72
715.994	4169.66
716.182	4345.79
716.369	4405.18
716.556	4347.84
716.744	4138.94
716.931	4280.25
717.119	4233.15
717.306	4186.05
717.493	4138.94
717.681	4368.32
717.868	4337.6
718.055	4265.92
718.242	4263.87
718.43	4341.69
718.617	4280.25
718.804	4218.82
718.991	4255.68
719.179	4313.02
719.366	4300.73
719.553	4296.64
719.74	4276.16
719.927	4251.58
720.114	4204.48
720.301	4251.58
720.488	4233.15
720.676	4237.25
720.863	4304.83
721.05	4267.97
721.237	4220.86
721.424	4233.15
721.611	4054.98
721.798	4259.78
721.985	4071.36
722.172	4145.09
722.358	4159.42
722.545	4401.08
722.732	4243.39
722.919	4202.43
723.106	4259.78
723.293	4212.67
723.48	4188.1
723.667	4280.25
723.853	4147.14
724.04	4280.25
724.227	4284.35
724.414	4345.79
724.6	4116.42
724.787	4151.23
724.974	4184
725.161	4118.47
725.347	4163.52
725.534	4249.54
725.72	4159.42
725.907	4151.23
726.094	4134.85
726.28	4294.59
726.467	4106.18
726.653	4085.7
726.84	4077.51
727.027	4163.52
727.213	4050.88
727.4	4042.69
727.586	4184
727.773	4116.42
727.959	4104.13
728.145	4202.43
728.332	4126.66
728.518	4202.43
728.705	4079.55
728.891	3995.59
729.077	3905.48
729.264	4122.56
729.45	3977.16
729.636	4192.19
729.823	3999.68
730.009	4124.61
730.195	4087.75
730.382	4132.8
730.568	3946.44
730.754	3936.2
730.94	3981.25
731.126	3991.49
731.313	4052.93
731.499	4143.04
731.685	3893.19
731.871	4038.59
732.057	4016.07
732.243	3997.64
732.429	4079.55
732.615	4171.71
732.801	4075.46
732.987	4079.55
733.173	4020.16
733.359	4042.69
733.545	4079.55
733.731	4036.55
733.917	3948.48
734.103	3956.68
734.289	3911.62
734.475	3915.72
734.661	4036.55
734.847	3895.24
735.033	3934.15
735.219	3921.86
735.404	3954.63
735.59	4005.83
735.776	3950.53
735.962	3964.87
736.148	3891.14
736.333	3893.19
736.519	3899.33
736.705	4034.5
736.89	3844.04
737.076	3813.32
737.262	3815.37
737.447	3809.22
737.633	4009.92
737.819	3850.18
738.004	3739.59
738.19	3905.48
738.375	3817.41
738.561	3887.04
738.747	3778.5
738.932	3649.48
739.118	3854.28
739.303	3698.63
739.489	3753.93
739.674	3784.65
739.859	3624.9
740.045	3610.57
740.23	3624.9
740.416	3624.9
740.601	3760.07
740.786	3555.27
740.972	3637.19
741.157	3651.53
741.342	3526.6
741.528	3532.75
741.713	3635.14
741.898	3553.23
742.084	3518.41
742.269	3602.38
742.454	3629
742.639	3616.71
742.824	3557.32
743.01	3555.27
743.195	3469.26
743.38	3452.88
743.565	3407.82
743.75	3538.89
743.935	3321.81
744.12	3471.31
744.305	3317.71
744.49	3350.48
744.675	3299.28
744.86	3293.13
745.045	3397.58
745.23	3323.85
745.415	3330
745.6	3278.8
745.785	3233.74
745.97	3358.67
746.155	3207.12
746.34	3340.24
746.525	3127.25
746.71	3256.27
746.895	3084.24
747.079	3190.74
747.264	3030.99
747.449	3006.42
747.634	3045.33
747.819	3188.69
748.003	3012.56
748.188	3008.47
748.373	2848.72
748.557	3055.57
748.742	2910.16
748.927	2957.27
749.111	2934.74
749.296	2926.55
749.481	2906.07
749.665	2762.71
749.85	2867.16
750.034	3008.47
750.219	2856.92
750.404	2684.89
750.588	2775
750.773	2756.57
750.957	2783.19
751.141	2719.7
751.326	2648.02
751.51	2559.96
751.695	2668.5
751.879	2609.11
752.064	2670.55
752.248	2473.95
752.432	2564.06
752.617	2535.39
752.801	2527.19
752.985	2441.18
753.17	2453.47
753.354	2512.86
753.538	2512.86
753.722	2420.7
753.907	2420.7
754.091	2316.25
754.275	2381.79
754.459	2437.08
754.643	2324.44
754.828	2326.49
755.012	2291.68
755.196	2330.59
755.38	2306.01
755.564	2248.67
755.748	2371.55
755.932	2215.9
756.116	2220
756.3	2359.26
756.484	2187.23
756.668	2197.47
756.852	2138.08
757.036	2027.49
757.22	2115.55
757.404	2160.61
757.588	2099.17
757.772	2162.65
757.956	2015.2
758.14	2144.22
758.323	1976.29
758.507	2045.92
758.691	2009.06
758.875	1994.72
759.059	2125.79
759.242	1933.28
759.426	1900.52
759.61	1923.04
759.794	1820.64
759.977	1847.27
760.161	2113.5
760.345	1982.43
760.528	1857.51
760.712	1875.94
760.895	1841.12
761.079	1769.44
761.263	1832.93
761.446	1824.74
761.63	1875.94
761.813	1761.25
761.997	1769.44
762.18	1726.44
762.364	1871.84
762.547	1761.25
762.731	1693.67
762.914	1740.77
763.098	1683.43
763.281	1679.33
763.464	1671.14
763.648	1679.33
763.831	1699.81
764.015	1697.77
764.198	1667.05
764.381	1718.25
764.564	1681.38
764.748	1710.05
764.931	1660.9
765.114	1589.22
765.297	1644.52
765.481	1564.65
765.664	1546.22
765.847	1632.23
766.03	1605.61
766.213	1554.41
766.397	1572.84
766.58	1611.75
766.763	1554.41
766.946	1585.13
767.129	1585.13
767.312	1615.85
767.495	1554.41
767.678	1548.26
767.861	1611.75
768.044	1501.16
768.227	1466.35
768.41	1525.74
768.593	1527.78
768.776	1546.22
768.959	1429.48
769.142	1406.95
769.324	1472.49
769.507	1552.36
769.69	1368.04
769.873	1398.76
770.056	1482.73
770.239	1417.19
770.421	1458.15
770.604	1421.29
770.787	1484.78
770.97	1306.6
771.152	1320.94
771.335	1398.76
771.518	1310.7
771.7	1417.19
771.883	1382.38
772.066	1308.65
772.248	1351.66
772.431	1304.56
772.613	1347.56
772.796	1339.37
772.978	1234.93
773.161	1286.12
773.343	1259.5
773.526	1261.55
773.708	1228.78
773.891	1241.07
774.073	1286.12
774.256	1234.93
774.438	1316.84
774.621	1171.44
774.803	1243.12
774.985	1163.25
775.168	1224.69
775.35	1114.1
775.532	1187.82
775.715	1155.05
775.897	1234.93
776.079	1052.66
776.261	1187.82
776.444	1159.15
776.626	1081.33
776.808	1204.21
776.99	1179.63
777.173	1146.86
777.355	1226.73
777.537	1028.08
777.719	1112.05
777.901	1038.32
778.083	1132.53
778.265	1058.8
778.447	1021.94
778.629	970.74
778.811	995.31
778.993	1042.42
779.175	1015.79
779.357	1007.6
779.539	1011.7
779.721	956.4
779.903	1066.99
780.085	966.64
780.267	1005.55
780.449	923.63
780.631	950.26
780.812	880.63
780.994	921.59
781.176	960.5
781.358	874.48
781.54	892.91
781.721	913.39
781.903	925.68
782.085	823.28
782.267	882.67
782.448	849.91
782.63	847.86
782.812	845.81
782.993	761.84
783.175	878.58
783.357	804.85
783.538	794.61
783.72	792.56
783.901	757.75
784.083	761.84
784.264	811
784.446	778.23
784.627	720.88
784.809	776.18
784.99	716.79
785.172	749.56
785.353	630.77
785.535	731.12
785.716	737.27
785.897	655.35
786.079	743.41
786.26	761.84
786.441	636.92
786.623	659.45
786.804	673.78
786.985	741.36
787.167	651.25
787.348	602.1
787.529	567.29
787.71	628.73
787.891	724.98
788.073	593.91
788.254	671.73
788.435	638.97
788.616	604.15
788.797	657.4
788.978	679.93
789.159	622.58
789.34	579.58
789.522	643.06
789.703	528.38
789.884	667.64
790.065	616.44
790.246	589.82
790.427	651.25
790.607	561.14
790.788	612.34
790.969	565.24
791.15	643.06
791.331	550.9
791.512	555
791.693	536.57
791.874	503.8
792.054	546.81
792.235	587.77
792.416	497.66
792.597	491.51
792.778	565.24
792.958	559.1
793.139	571.38
793.32	499.7
793.5	565.24
793.681	528.38
793.862	565.24
794.042	505.85
794.223	438.27
794.404	497.66
794.584	475.13
794.765	464.89
794.945	425.98
795.126	499.7
795.306	522.23
795.487	503.8
795.667	497.66
795.848	462.84
796.028	475.13
796.209	526.33
796.389	448.51
796.57	421.88
796.75	532.47
796.93	475.13
797.111	372.73
797.291	452.6
797.471	555
797.652	409.59
797.832	360.44
798.012	454.65
798.192	362.49
798.373	378.87
798.553	407.55
798.733	405.5
798.913	421.88
799.093	354.3
799.274	323.58
799.454	374.78
799.634	362.49
799.814	440.31
799.994	446.46
800.174	409.59
800.354	313.34
800.534	327.68
800.714	458.75
800.894	378.87
801.074	327.68
801.254	382.97
801.434	462.84
801.614	395.26
801.794	282.62
801.974	870.39
802.154	333.82
802.334	417.79
802.514	319.48
802.693	385.02
802.873	391.16
803.053	339.96
803.233	366.59
803.413	368.63
803.592	315.39
803.772	288.76
803.952	444.41
804.131	296.96
804.311	385.02
804.491	362.49
804.67	391.16
804.85	376.83
805.03	393.21
805.209	372.73
805.389	401.4
805.568	305.15
805.748	331.77
805.928	296.96
806.107	309.24
806.287	249.85
806.466	313.34
806.646	344.06
806.825	286.72
807.004	370.68
807.184	278.52
807.363	337.91
807.543	325.63
807.722	284.67
807.901	360.44
808.081	313.34
808.26	245.76
808.439	354.3
808.619	299
808.798	272.38
808.977	241.66
809.156	200.7
809.336	262.14
809.515	321.53
809.694	278.52
809.873	303.1
810.052	270.33
810.231	321.53
810.411	305.15
810.59	339.96
810.769	270.33
810.948	333.82
811.127	208.89
811.306	258.04
811.485	227.32
811.664	339.96
811.843	321.53
812.022	196.61
812.201	241.66
812.38	307.2
812.559	184.32
812.737	344.06
812.916	153.6
813.095	256
813.274	217.08
813.453	258.04
813.632	217.08
813.811	247.8
813.989	262.14
814.168	229.37
814.347	202.75
814.526	178.17
814.704	202.75
814.883	307.2
815.062	212.99
815.24	266.24
815.419	264.19
815.598	225.28
815.776	198.65
815.955	215.04
816.133	129.02
816.312	225.28
816.49	172.03
816.669	274.43
816.847	212.99
817.026	290.81
817.204	192.51
817.383	188.41
817.561	194.56
817.74	163.84
817.918	169.98
818.097	137.21
818.275	249.85
818.453	229.37
818.632	227.32
818.81	225.28
818.988	243.71
819.167	253.95
819.345	235.52
819.523	245.76
819.701	153.6
819.879	225.28
820.058	135.17
820.236	251.9
820.414	245.76
820.592	161.79
820.77	204.8
820.948	94.21
821.127	196.61
821.305	239.61
821.483	151.55
821.661	241.66
821.839	202.75
822.017	231.42
822.195	151.55
822.373	278.52
822.551	139.26
822.729	251.9
822.907	194.56
823.085	237.56
823.262	208.89
823.44	114.69
823.618	178.17
823.796	157.69
823.974	151.55
824.152	147.45
824.329	208.89
824.507	194.56
824.685	147.45
824.863	192.51
825.04	133.12
825.218	165.89
825.396	157.69
825.574	172.03
825.751	155.65
825.929	176.13
826.107	110.59
826.284	217.08
826.462	165.89
826.639	149.5
826.817	153.6
826.994	143.36
827.172	194.56
827.349	215.04
827.527	223.23
827.704	94.21
827.882	145.41
828.059	172.03
828.237	86.01
828.414	186.37
828.591	98.3
828.769	172.03
828.946	28.67
829.124	192.51
829.301	153.6
829.478	169.98
829.655	163.84
829.833	149.5
830.01	40.96
830.187	180.22
830.364	192.51
830.542	79.87
830.719	247.8
830.896	223.23
831.073	172.03
831.25	98.3
831.427	110.59
831.604	186.37
831.782	131.07
831.959	102.4
832.136	145.41
832.313	137.21
832.49	108.54
832.667	61.44
832.844	120.83
833.021	210.94
833.198	94.21
833.374	165.89
833.551	133.12
833.728	108.54
833.905	155.65
834.082	102.4
834.259	139.26
834.436	202.75
834.612	159.74
834.789	86.01
834.966	55.3
835.143	118.78
835.319	2.05
835.496	163.84
835.673	104.45
835.85	79.87
836.026	26.62
836.203	106.49
836.38	106.49
836.556	61.44
836.733	104.45
836.909	112.64
837.086	145.41
837.262	69.63
837.439	92.16
837.616	81.92
837.792	116.73
837.968	90.11
838.145	98.3
838.321	79.87
838.498	124.93
838.674	81.92
838.851	126.97
839.027	2.05
839.203	98.3
839.38	73.73
839.556	71.68
839.732	155.65
839.909	36.86
840.085	186.37
840.261	106.49
840.437	88.06
840.614	59.39
840.79	73.73
840.966	112.64
841.142	106.49
841.318	77.82
841.494	159.74
841.671	36.86
841.847	49.15
842.023	-22.53
842.199	77.82
842.375	163.84
842.551	57.34
842.727	4.1
842.903	73.73
843.079	47.1
843.255	131.07
843.431	38.91
843.607	88.06
843.783	94.21
843.959	161.79
844.134	30.72
844.31	129.02
844.486	88.06
844.662	67.58
844.838	12.29
845.013	47.1
845.189	83.97
845.365	90.11
845.541	79.87
845.716	86.01
845.892	75.77
846.068	63.49
846.244	98.3
846.419	43.01
846.595	73.73
846.77	63.49
846.946	118.78
847.122	-4.1
847.297	24.58
847.473	73.73
847.648	12.29
847.824	112.64
847.999	45.06
848.175	43.01
848.35	129.02
848.526	118.78
848.701	83.97
848.876	104.45
849.052	67.58
849.227	73.73
849.403	28.67
849.578	81.92
849.753	55.3
849.929	59.39
850.104	65.54
850.279	45.06
850.454	135.17
850.63	114.69
850.805	57.34
850.98	77.82
851.155	106.49
851.33	49.15
851.505	67.58
851.681	22.53
851.856	45.06
852.031	6.14
852.206	22.53
852.381	18.43
852.556	-20.48
852.731	106.49
852.906	53.25
853.081	79.87
853.256	96.25
853.431	77.82
853.606	24.58
853.781	34.82
853.956	24.58
854.131	90.11
854.305	6.14
854.48	65.54
854.655	24.58
854.83	43.01
855.005	-59.39
855.18	77.82
855.354	-4.1
855.529	88.06
855.704	-12.29
855.879	26.62
856.053	18.43
856.228	14.34
856.403	0
856.577	61.44
856.752	36.86
856.926	32.77
857.101	90.11
857.276	-22.53
857.45	55.3
857.625	88.06
857.799	40.96
857.974	28.67
858.148	-8.19
858.323	16.38
858.497	22.53
858.672	53.25
858.846	16.38
859.02	-16.38
859.195	6.14
859.369	49.15
859.543	-10.24
859.718	36.86
859.892	-12.29
860.066	112.64
860.241	51.2
860.415	-40.96
860.589	26.62
860.763	49.15
860.938	49.15
861.112	104.45
861.286	53.25
861.46	14.34
861.634	-12.29
861.808	71.68
861.982	-40.96
862.157	47.1
862.331	12.29
862.505	40.96
862.679	51.2
862.853	14.34
863.027	32.77
863.201	-12.29
863.375	36.86
863.549	-4.1
863.722	43.01
863.896	81.92
864.07	40.96
864.244	32.77
864.418	114.69
864.592	47.1
864.766	-43.01
864.939	-8.19
865.113	32.77
865.287	36.86
865.461	-2.05
865.634	34.82
865.808	-65.53
865.982	47.1
866.156	-43.01
866.329	12.29
866.503	49.15
866.676	96.25
866.85	53.25
867.024	53.25
867.197	55.3
867.371	28.67
867.544	108.54
867.718	75.77
867.891	65.54
868.065	-34.82
868.238	65.54
868.412	40.96
868.585	65.54
868.759	-61.44
868.932	81.92
869.105	-2.05
869.279	32.77
869.452	63.49
869.625	-32.77
869.799	53.25
869.972	-20.48
870.145	-4.1
870.319	34.82
870.492	45.06
870.665	16.38
870.838	-69.63
871.011	22.53
871.185	-18.43
871.358	65.54
871.531	-26.62
871.704	-10.24
871.877	14.34
872.05	22.53
872.223	-10.24
872.396	16.38
872.569	116.73
872.742	6.14
872.915	57.34
873.088	-20.48
873.261	-55.3
873.434	45.06
873.607	-28.67
873.78	47.1
873.953	45.06
874.126	55.3
874.299	59.39
874.471	-45.06
874.644	-32.77
874.817	65.54
874.99	0
875.163	-12.29
875.335	49.15
875.508	22.53
875.681	43.01
875.853	-10.24
876.026	51.2
876.199	45.06
876.371	2.05
876.544	20.48
876.717	24.58
876.889	-2.05
877.062	12.29
877.234	112.64
877.407	-30.72
877.579	-36.86
877.752	38.91
877.924	22.53
878.097	-34.82
878.269	12.29
878.442	-2.05
878.614	24.58
878.786	40.96
878.959	24.58
879.131	-24.58
879.303	-14.34
879.476	-47.1
879.648	6.14
879.82	26.62
879.993	26.62
880.165	24.58
880.337	-36.86
880.509	57.34
880.681	-81.92
880.854	55.3
881.026	-83.97
881.198	47.1
881.37	-16.38
881.542	55.3
881.714	-49.15
881.886	-32.77
882.058	65.54
882.23	10.24
882.402	2.05
882.574	55.3
882.746	10.24
882.918	65.54
883.09	75.77
883.262	12.29
883.434	55.3
883.606	-24.58
883.778	49.15
883.95	43.01
884.122	12.29
884.293	77.82
884.465	38.91
884.637	-65.53
884.809	-18.43
884.98	-6.14
885.152	81.92
885.324	40.96
885.496	30.72
885.667	8.19
885.839	63.49
886.011	96.25
886.182	49.15
886.354	-12.29
886.525	59.39
886.697	51.2
886.869	14.34
887.04	-20.48
887.212	32.77
887.383	18.43
887.555	-43.01
887.726	30.72
887.897	-65.53
888.069	-16.38
888.24	61.44
888.412	65.54
888.583	14.34
888.754	-43.01
888.926	-59.39
889.097	47.1
889.268	-4.1
889.44	53.25
889.611	8.19
889.782	-14.34
889.953	22.53
890.125	-16.38
890.296	-22.53
890.467	-16.38
890.638	32.77
890.809	73.73
890.98	-30.72
891.151	47.1
891.323	-24.58
891.494	0
891.665	14.34
891.836	51.2
892.007	-8.19
892.178	79.87
892.349	-16.38
892.52	-67.58
892.691	-10.24
892.862	-26.62
893.032	-36.86
893.203	-32.77
893.374	-65.53
893.545	18.43
893.716	-38.91
893.887	51.2
894.057	12.29
894.228	22.53
894.399	40.96
894.57	43.01
894.74	0
894.911	30.72
895.082	20.48
895.253	18.43
895.423	-32.77
895.594	-20.48
895.764	49.15
895.935	14.34
896.106	10.24
896.276	-8.19
896.447	-36.86
896.617	36.86
896.788	32.77
896.958	30.72
897.129	32.77
897.299	-36.86
897.47	28.67
897.64	16.38
897.81	-6.14
897.981	22.53
898.151	-28.67
898.322	-14.34
898.492	2.05
898.662	-20.48
898.832	59.39
899.003	-6.14
899.173	16.38
899.343	-20.48
899.513	-116.73
