Data from USB4F104151__80__10-24-13-901.txt Node

Date: Wed Mar 12 10:24:13 EDT 2025
User: louis
Spectrometer: USB4F10415
Trigger mode: 4
Integration Time (sec): 3.000000E-2
Scans to average: 1
Electric dark correction enabled: true
Nonlinearity correction enabled: false
Boxcar width: 0
XAxis mode: Wavelengths
Number of Pixels in Spectrum: 3648
>>>>>Begin Spectral Data<<<<<
178.204	-116.05
178.424	-116.05
178.644	-116.05
178.864	-111.96
179.084	-134.48
179.304	-21.84
179.524	60.07
179.744	-52.56
179.964	4.78
180.184	4.78
180.404	12.97
180.624	0.68
180.844	-27.99
181.064	39.59
181.283	-25.94
181.503	-9.56
181.723	15.02
181.943	-15.7
182.163	82.6
182.383	-3.41
182.602	39.59
182.822	55.98
183.042	8.87
183.262	-52.56
183.482	2.73
183.701	4.78
183.921	-62.8
184.141	23.21
184.361	31.4
184.58	-19.8
184.8	-42.32
185.02	37.55
185.239	60.07
185.459	43.69
185.679	62.12
185.898	-1.37
186.118	58.03
186.338	66.22
186.557	72.36
186.777	-7.51
186.997	31.4
187.216	53.93
187.436	156.33
187.655	45.74
187.875	21.16
188.095	8.87
188.314	62.12
188.534	27.31
188.753	4.78
188.973	60.07
189.192	58.03
189.412	17.07
189.631	51.88
189.851	-40.28
190.07	64.17
190.29	45.74
190.509	25.26
190.729	-11.61
190.948	70.31
191.168	105.13
191.387	74.41
191.607	64.17
191.826	-9.56
192.045	74.41
192.265	-56.66
192.484	37.55
192.704	10.92
192.923	-11.61
193.142	47.79
193.362	53.93
193.581	45.74
193.8	68.27
194.02	41.64
194.239	37.55
194.458	49.83
194.678	2.73
194.897	66.22
195.116	53.93
195.335	35.5
195.555	21.16
195.774	101.03
195.993	29.35
196.212	27.31
196.432	-23.89
196.651	62.12
196.87	58.03
197.089	55.98
197.308	12.97
197.528	33.45
197.747	55.98
197.966	74.41
198.185	94.89
198.404	-42.32
198.623	2.73
198.842	4.78
199.062	72.36
199.281	72.36
199.5	55.98
199.719	-3.41
199.938	21.16
200.157	41.64
200.376	-11.61
200.595	39.59
200.814	29.35
201.033	25.26
201.252	96.94
201.471	31.4
201.69	60.07
201.909	58.03
202.128	66.22
202.347	41.64
202.566	76.46
202.785	12.97
203.004	-19.8
203.223	51.88
203.442	10.92
203.661	21.16
203.879	78.51
204.098	94.89
204.317	17.07
204.536	29.35
204.755	10.92
204.974	41.64
205.193	19.11
205.411	129.7
205.63	12.97
205.849	29.35
206.068	-89.43
206.287	27.31
206.505	6.83
206.724	4.78
206.943	35.5
207.162	23.21
207.381	6.83
207.599	35.5
207.818	90.79
208.037	62.12
208.255	10.92
208.474	58.03
208.693	47.79
208.911	-75.09
209.13	31.4
209.349	35.5
209.567	51.88
209.786	-9.56
210.005	0.68
210.223	96.94
210.442	19.11
210.661	94.89
210.879	72.36
211.098	47.79
211.316	86.7
211.535	94.89
211.753	12.97
211.972	10.92
212.191	74.41
212.409	31.4
212.628	84.65
212.846	51.88
213.065	17.07
213.283	19.11
213.502	-15.7
213.72	33.45
213.938	51.88
214.157	92.84
214.375	33.45
214.594	-25.94
214.812	-32.08
215.031	60.07
215.249	-1.37
215.467	-7.51
215.686	43.69
215.904	103.08
216.122	90.79
216.341	-25.94
216.559	-27.99
216.778	53.93
216.996	60.07
217.214	21.16
217.432	-19.8
217.651	6.83
217.869	-15.7
218.087	10.92
218.306	51.88
218.524	78.51
218.742	6.83
218.96	53.93
219.179	-23.89
219.397	0.68
219.615	76.46
219.833	31.4
220.051	15.02
220.27	-36.18
220.488	29.35
220.706	10.92
220.924	21.16
221.142	49.83
221.36	66.22
221.578	25.26
221.796	12.97
222.015	33.45
222.233	-25.94
222.451	148.14
222.669	47.79
222.887	98.99
223.105	27.31
223.323	64.17
223.541	4.78
223.759	86.7
223.977	-42.32
224.195	88.75
224.413	90.79
224.631	17.07
224.849	68.27
225.067	131.75
225.285	37.55
225.503	68.27
225.721	-34.13
225.939	-52.56
226.157	37.55
226.375	160.42
226.592	-23.89
226.81	58.03
227.028	53.93
227.246	72.36
227.464	84.65
227.682	47.79
227.9	55.98
228.117	17.07
228.335	31.4
228.553	2.73
228.771	-23.89
228.989	25.26
229.206	51.88
229.424	80.55
229.642	49.83
229.86	27.31
230.077	47.79
230.295	12.97
230.513	-23.89
230.731	43.69
230.948	37.55
231.166	41.64
231.384	17.07
231.601	55.98
231.819	113.32
232.037	-15.7
232.254	41.64
232.472	45.74
232.689	66.22
232.907	45.74
233.125	121.51
233.342	12.97
233.56	-11.61
233.777	41.64
233.995	23.21
234.213	86.7
234.43	70.31
234.648	12.97
234.865	39.59
235.083	41.64
235.3	58.03
235.518	41.64
235.735	53.93
235.953	43.69
236.17	23.21
236.388	19.11
236.605	80.55
236.822	35.5
237.04	58.03
237.257	82.6
237.475	4.78
237.692	-19.8
237.909	-58.71
238.127	86.7
238.344	21.16
238.562	88.75
238.779	19.11
238.996	33.45
239.214	33.45
239.431	107.18
239.648	-3.41
239.865	-1.37
240.083	49.83
240.3	2.73
240.517	31.4
240.735	39.59
240.952	74.41
241.169	86.7
241.386	103.08
241.603	4.78
241.821	29.35
242.038	29.35
242.255	19.11
242.472	12.97
242.689	64.17
242.907	12.97
243.124	8.87
243.341	51.88
243.558	41.64
243.775	55.98
243.992	-52.56
244.209	82.6
244.426	80.55
244.643	62.12
244.86	-17.75
245.078	0.68
245.295	43.69
245.512	-17.75
245.729	51.88
245.946	74.41
246.163	64.17
246.38	33.45
246.597	41.64
246.814	64.17
247.031	-81.24
247.248	17.07
247.464	62.12
247.681	-17.75
247.898	41.64
248.115	6.83
248.332	12.97
248.549	41.64
248.766	82.6
248.983	88.75
249.2	74.41
249.417	64.17
249.633	66.22
249.85	35.5
250.067	0.68
250.284	23.21
250.501	21.16
250.717	55.98
250.934	-3.41
251.151	-1.37
251.368	-23.89
251.585	76.46
251.801	-30.04
252.018	21.16
252.235	2.73
252.451	6.83
252.668	21.16
252.885	90.79
253.102	70.31
253.318	39.59
253.535	62.12
253.752	10.92
253.968	33.45
254.185	-7.51
254.401	17.07
254.618	-19.8
254.835	-40.28
255.051	82.6
255.268	37.55
255.484	17.07
255.701	25.26
255.917	66.22
256.134	80.55
256.351	53.93
256.567	45.74
256.784	64.17
257	86.7
257.217	25.26
257.433	33.45
257.65	123.56
257.866	33.45
258.082	-142.68
258.299	21.16
258.515	127.66
258.732	72.36
258.948	78.51
259.165	47.79
259.381	4.78
259.597	25.26
259.814	-36.18
260.03	53.93
260.246	0.68
260.463	49.83
260.679	23.21
260.895	25.26
261.112	68.27
261.328	41.64
261.544	-11.61
261.761	180.9
261.977	31.4
262.193	49.83
262.409	70.31
262.626	64.17
262.842	74.41
263.058	15.02
263.274	72.36
263.49	-13.65
263.707	64.17
263.923	49.83
264.139	23.21
264.355	12.97
264.571	68.27
264.787	37.55
265.004	78.51
265.22	4.78
265.436	58.03
265.652	17.07
265.868	55.98
266.084	-5.46
266.3	6.83
266.516	-9.56
266.732	68.27
266.948	39.59
267.164	53.93
267.38	98.99
267.596	25.26
267.812	84.65
268.028	29.35
268.244	-7.51
268.46	45.74
268.676	47.79
268.892	-9.56
269.108	98.99
269.324	4.78
269.54	49.83
269.756	113.32
269.972	8.87
270.188	39.59
270.403	43.69
270.619	-50.52
270.835	25.26
271.051	25.26
271.267	25.26
271.483	39.59
271.698	45.74
271.914	27.31
272.13	-30.04
272.346	37.55
272.562	15.02
272.777	72.36
272.993	76.46
273.209	78.51
273.425	64.17
273.64	98.99
273.856	80.55
274.072	-36.18
274.287	21.16
274.503	98.99
274.719	111.27
274.934	74.41
275.15	-56.66
275.366	21.16
275.581	-3.41
275.797	35.5
276.012	23.21
276.228	51.88
276.444	70.31
276.659	45.74
276.875	-27.99
277.09	8.87
277.306	37.55
277.521	66.22
277.737	41.64
277.952	129.7
278.168	55.98
278.383	31.4
278.599	74.41
278.814	66.22
279.03	25.26
279.245	55.98
279.461	86.7
279.676	64.17
279.892	51.88
280.107	-9.56
280.322	2.73
280.538	144.04
280.753	17.07
280.969	35.5
281.184	72.36
281.399	-1.37
281.615	53.93
281.83	53.93
282.045	70.31
282.26	19.11
282.476	64.17
282.691	74.41
282.906	82.6
283.122	72.36
283.337	64.17
283.552	86.7
283.767	45.74
283.983	60.07
284.198	17.07
284.413	-27.99
284.628	88.75
284.843	96.94
285.058	47.79
285.274	80.55
285.489	-38.23
285.704	8.87
285.919	-9.56
286.134	37.55
286.349	-48.47
286.564	21.16
286.779	17.07
286.995	51.88
287.21	76.46
287.425	23.21
287.64	-1.37
287.855	86.7
288.07	15.02
288.285	29.35
288.5	64.17
288.715	49.83
288.93	90.79
289.145	90.79
289.36	39.59
289.575	103.08
289.79	68.27
290.004	15.02
290.219	68.27
290.434	66.22
290.649	47.79
290.864	58.03
291.079	98.99
291.294	0.68
291.509	107.18
291.724	47.79
291.938	98.99
292.153	74.41
292.368	-15.7
292.583	-9.56
292.798	88.75
293.012	55.98
293.227	0.68
293.442	64.17
293.657	90.79
293.871	94.89
294.086	-27.99
294.301	117.42
294.516	105.13
294.73	17.07
294.945	92.84
295.16	41.64
295.374	74.41
295.589	12.97
295.804	-23.89
296.018	25.26
296.233	103.08
296.447	19.11
296.662	47.79
296.877	103.08
297.091	62.12
297.306	33.45
297.52	107.18
297.735	-1.37
297.949	92.84
298.164	-21.84
298.378	82.6
298.593	17.07
298.807	-3.41
299.022	45.74
299.236	37.55
299.451	62.12
299.665	49.83
299.88	21.16
300.094	74.41
300.309	64.17
300.523	98.99
300.737	21.16
300.952	51.88
301.166	21.16
301.381	41.64
301.595	4.78
301.809	-13.65
302.024	80.55
302.238	64.17
302.452	103.08
302.667	47.79
302.881	62.12
303.095	-7.51
303.309	58.03
303.524	92.84
303.738	2.73
303.952	60.07
304.166	90.79
304.381	27.31
304.595	45.74
304.809	17.07
305.023	39.59
305.237	-27.99
305.452	12.97
305.666	84.65
305.88	-7.51
306.094	62.12
306.308	37.55
306.522	45.74
306.736	41.64
306.95	62.12
307.164	23.21
307.379	55.98
307.593	23.21
307.807	64.17
308.021	49.83
308.235	45.74
308.449	41.64
308.663	27.31
308.877	86.7
309.091	53.93
309.305	45.74
309.519	-25.94
309.733	105.13
309.947	0.68
310.161	90.79
310.374	139.94
310.588	92.84
310.802	6.83
311.016	62.12
311.23	55.98
311.444	-17.75
311.658	144.04
311.872	127.66
312.085	76.46
312.299	-3.41
312.513	78.51
312.727	43.69
312.941	41.64
313.154	117.42
313.368	39.59
313.582	49.83
313.796	39.59
314.009	23.21
314.223	94.89
314.437	64.17
314.651	66.22
314.864	88.75
315.078	78.51
315.292	47.79
315.505	55.98
315.719	86.7
315.933	41.64
316.146	49.83
316.36	27.31
316.573	68.27
316.787	53.93
317.001	68.27
317.214	49.83
317.428	109.23
317.641	-30.04
317.855	29.35
318.068	33.45
318.282	76.46
318.495	84.65
318.709	33.45
318.922	41.64
319.136	150.18
319.349	66.22
319.563	45.74
319.776	49.83
319.99	92.84
320.203	86.7
320.417	29.35
320.63	49.83
320.843	58.03
321.057	80.55
321.27	78.51
321.483	107.18
321.697	96.94
321.91	66.22
322.124	60.07
322.337	98.99
322.55	55.98
322.763	70.31
322.977	84.65
323.19	0.68
323.403	66.22
323.617	-1.37
323.83	94.89
324.043	51.88
324.256	37.55
324.469	23.21
324.683	191.14
324.896	53.93
325.109	70.31
325.322	98.99
325.535	25.26
325.748	29.35
325.962	98.99
326.175	72.36
326.388	96.94
326.601	133.8
326.814	10.92
327.027	6.83
327.24	86.7
327.453	33.45
327.666	66.22
327.879	76.46
328.092	45.74
328.305	82.6
328.518	33.45
328.731	86.7
328.944	64.17
329.157	39.59
329.37	64.17
329.583	168.62
329.796	103.08
330.009	94.89
330.222	31.4
330.435	23.21
330.648	45.74
330.861	25.26
331.073	68.27
331.286	29.35
331.499	43.69
331.712	-5.46
331.925	94.89
332.138	107.18
332.35	-11.61
332.563	88.75
332.776	101.03
332.989	17.07
333.202	160.42
333.414	53.93
333.627	27.31
333.84	2.73
334.053	70.31
334.265	43.69
334.478	-13.65
334.691	111.27
334.903	47.79
335.116	29.35
335.329	64.17
335.541	49.83
335.754	123.56
335.966	45.74
336.179	127.66
336.392	31.4
336.604	31.4
336.817	33.45
337.029	76.46
337.242	15.02
337.454	94.89
337.667	58.03
337.88	111.27
338.092	86.7
338.305	72.36
338.517	41.64
338.729	98.99
338.942	27.31
339.154	0.68
339.367	-3.41
339.579	107.18
339.792	-46.42
340.004	49.83
340.217	90.79
340.429	45.74
340.641	19.11
340.854	23.21
341.066	66.22
341.278	90.79
341.491	144.04
341.703	55.98
341.915	25.26
342.128	33.45
342.34	62.12
342.552	8.87
342.764	31.4
342.977	80.55
343.189	-3.41
343.401	68.27
343.613	41.64
343.826	49.83
344.038	0.68
344.25	25.26
344.462	88.75
344.674	64.17
344.886	90.79
345.099	43.69
345.311	111.27
345.523	121.51
345.735	-1.37
345.947	107.18
346.159	41.64
346.371	49.83
346.583	139.94
346.795	150.18
347.007	-5.46
347.219	55.98
347.431	70.31
347.643	86.7
347.855	27.31
348.067	55.98
348.279	58.03
348.491	47.79
348.703	78.51
348.915	55.98
349.127	64.17
349.339	29.35
349.551	21.16
349.763	84.65
349.975	17.07
350.187	17.07
350.399	111.27
350.61	66.22
350.822	29.35
351.034	72.36
351.246	86.7
351.458	80.55
351.669	37.55
351.881	25.26
352.093	68.27
352.305	33.45
352.517	107.18
352.728	82.6
352.94	115.37
353.152	158.38
353.363	-7.51
353.575	66.22
353.787	115.37
353.999	72.36
354.21	203.43
354.422	33.45
354.633	55.98
354.845	45.74
355.057	76.46
355.268	88.75
355.48	66.22
355.692	6.83
355.903	94.89
356.115	17.07
356.326	-13.65
356.538	101.03
356.749	66.22
356.961	80.55
357.172	58.03
357.384	29.35
357.595	164.52
357.807	27.31
358.018	123.56
358.23	-7.51
358.441	92.84
358.653	82.6
358.864	27.31
359.075	-52.56
359.287	123.56
359.498	55.98
359.709	39.59
359.921	92.84
360.132	6.83
360.344	72.36
360.555	25.26
360.766	98.99
360.977	74.41
361.189	96.94
361.4	-3.41
361.611	88.75
361.823	117.42
362.034	55.98
362.245	90.79
362.456	84.65
362.667	121.51
362.879	4.78
363.09	21.16
363.301	12.97
363.512	66.22
363.723	90.79
363.935	27.31
364.146	119.46
364.357	33.45
364.568	29.35
364.779	-48.47
364.99	88.75
365.201	62.12
365.412	29.35
365.623	21.16
365.834	92.84
366.045	4.78
366.256	98.99
366.467	47.79
366.678	111.27
366.889	39.59
367.1	37.55
367.311	66.22
367.522	101.03
367.733	84.65
367.944	66.22
368.155	6.83
368.366	154.28
368.577	133.8
368.788	86.7
368.999	33.45
369.209	-48.47
369.42	144.04
369.631	84.65
369.842	105.13
370.053	12.97
370.264	90.79
370.474	74.41
370.685	12.97
370.896	160.42
371.107	72.36
371.317	105.13
371.528	70.31
371.739	53.93
371.95	119.46
372.16	64.17
372.371	-23.89
372.582	90.79
372.792	37.55
373.003	133.8
373.214	53.93
373.424	55.98
373.635	80.55
373.846	96.94
374.056	72.36
374.267	127.66
374.477	94.89
374.688	78.51
374.898	55.98
375.109	49.83
375.319	25.26
375.53	133.8
375.74	35.5
375.951	23.21
376.161	55.98
376.372	174.76
376.582	-1.37
376.793	82.6
377.003	117.42
377.214	33.45
377.424	21.16
377.635	17.07
377.845	37.55
378.055	76.46
378.266	-19.8
378.476	66.22
378.686	107.18
378.897	49.83
379.107	105.13
379.317	19.11
379.528	66.22
379.738	103.08
379.948	23.21
380.158	17.07
380.369	41.64
380.579	144.04
380.789	10.92
380.999	70.31
381.21	39.59
381.42	88.75
381.63	17.07
381.84	58.03
382.05	107.18
382.261	107.18
382.471	109.23
382.681	-1.37
382.891	80.55
383.101	139.94
383.311	21.16
383.521	96.94
383.731	72.36
383.941	39.59
384.151	101.03
384.361	98.99
384.571	37.55
384.781	58.03
384.991	127.66
385.201	131.75
385.411	96.94
385.621	64.17
385.831	88.75
386.041	92.84
386.251	86.7
386.461	76.46
386.671	47.79
386.881	33.45
387.091	131.75
387.301	37.55
387.511	88.75
387.72	90.79
387.93	72.36
388.14	98.99
388.35	47.79
388.56	64.17
388.769	103.08
388.979	109.23
389.189	60.07
389.399	125.61
389.609	96.94
389.818	103.08
390.028	131.75
390.238	86.7
390.447	49.83
390.657	111.27
390.867	23.21
391.076	66.22
391.286	80.55
391.496	148.14
391.705	55.98
391.915	115.37
392.125	88.75
392.334	84.65
392.544	60.07
392.753	70.31
392.963	129.7
393.172	123.56
393.382	41.64
393.591	160.42
393.801	94.89
394.01	144.04
394.22	64.17
394.429	74.41
394.639	78.51
394.848	119.46
395.058	115.37
395.267	96.94
395.477	113.32
395.686	105.13
395.895	178.86
396.105	131.75
396.314	158.38
396.524	137.9
396.733	127.66
396.942	230.06
397.152	131.75
397.361	123.56
397.57	98.99
397.78	154.28
397.989	139.94
398.198	244.39
398.407	158.38
398.617	154.28
398.826	127.66
399.035	121.51
399.244	195.24
399.453	98.99
399.663	156.33
399.872	207.53
400.081	121.51
400.29	252.58
400.499	105.13
400.708	185
400.917	101.03
401.127	148.14
401.336	86.7
401.545	219.82
401.754	172.71
401.963	139.94
402.172	162.47
402.381	164.52
402.59	191.14
402.799	213.67
403.008	187.05
403.217	164.52
403.426	158.38
403.635	129.7
403.844	242.34
404.053	160.42
404.262	221.86
404.471	223.91
404.68	152.23
404.888	228.01
405.097	64.17
405.306	187.05
405.515	234.15
405.724	201.38
405.933	213.67
406.142	316.07
406.35	287.4
406.559	219.82
406.768	250.53
406.977	303.78
407.185	379.56
407.394	225.96
407.603	307.88
407.812	279.21
408.02	334.5
408.229	279.21
408.438	299.69
408.646	334.5
408.855	307.88
409.064	318.12
409.272	397.99
409.481	479.91
409.69	418.47
409.898	381.6
410.107	527.01
410.315	469.67
410.524	389.8
410.733	457.38
410.941	479.91
411.15	547.49
411.358	518.82
411.567	561.83
411.775	537.25
411.984	580.26
412.192	621.22
412.401	619.17
412.609	651.94
412.818	690.85
413.026	664.22
413.234	711.33
413.443	715.42
413.651	758.43
413.86	821.92
414.068	905.88
414.276	944.8
414.485	799.39
414.693	918.17
414.901	936.6
415.11	959.13
415.318	922.27
415.526	1104.54
415.734	1090.2
415.943	1131.16
416.151	1211.03
416.359	1262.23
416.567	1188.5
416.776	1301.14
416.984	1360.53
417.192	1405.59
417.4	1303.19
417.608	1489.56
417.817	1426.07
418.025	1551
418.233	1563.28
418.441	1643.15
418.649	1616.53
418.857	1821.33
419.065	1827.47
419.273	1827.47
419.481	1925.77
419.689	2036.36
419.897	2167.43
420.105	2140.81
420.313	2187.91
420.521	2310.79
420.729	2372.23
420.937	2450.05
421.145	2546.31
421.353	2570.88
421.561	2620.03
421.769	2828.93
421.977	2955.9
422.185	2955.9
422.393	3105.4
422.601	3340.92
422.809	3205.75
423.017	3322.49
423.224	3383.93
423.432	3560.05
423.64	3576.44
423.848	4008.56
424.056	3867.25
424.263	3949.17
424.471	4063.85
424.679	4180.59
424.887	4299.37
425.094	4504.17
425.302	4590.18
425.51	4637.28
425.718	4794.98
425.925	4940.38
426.133	5147.23
426.341	5390.94
426.548	5565.01
426.756	5677.65
426.964	5507.67
427.171	5823.06
427.379	5988.94
427.586	6191.69
427.794	6414.92
428.001	6607.43
428.209	7088.7
428.417	6859.33
428.624	7402.04
428.832	7483.96
429.039	7199.29
429.247	7422.52
429.454	7922.23
429.662	8593.96
429.869	7938.61
430.076	8546.86
430.284	8442.41
430.491	8651.3
430.699	9230.88
430.906	9093.66
431.114	9251.36
431.321	9787.93
431.528	9785.88
431.736	10426.89
431.943	10916.36
432.15	10623.5
432.358	10854.92
432.565	11280.89
432.772	11340.29
432.979	11790.84
433.187	12138.99
433.394	12108.27
433.601	13048.29
433.808	12976.61
434.016	12904.93
434.223	13378.01
434.43	14488.01
434.637	13779.42
434.844	14737.87
435.052	15081.92
435.259	15026.63
435.466	15327.68
435.673	14954.95
435.88	15849.91
436.087	16658.86
436.294	16785.83
436.501	16409.01
436.708	16906.66
436.915	17342.88
437.122	18291.09
437.329	18059.67
437.537	18534.8
437.743	19202.44
437.95	18657.68
438.157	19585.41
438.364	20410.74
438.571	20107.64
438.778	20560.24
438.985	22577.49
439.192	21414.24
439.399	22229.34
439.606	21551.46
439.813	22886.73
440.02	24097.08
440.227	23740.74
440.433	23564.61
440.64	24389.94
440.847	24092.99
441.054	24899.89
441.261	26525.97
441.467	25829.66
441.674	26464.53
441.881	27531.53
442.088	27334.92
442.294	27326.73
442.501	27848.96
442.708	28303.61
442.914	29620.45
443.121	30738.65
443.328	30257.37
443.534	31862.98
443.741	30877.91
443.948	30277.85
444.154	32819.38
444.361	32506.04
444.568	33044.66
444.774	33132.72
444.981	33452.2
445.187	34250.91
445.394	35479.69
445.6	35100.82
445.807	38396
446.013	36919.42
446.22	37660.78
446.426	38987.86
446.633	39368.79
446.839	40622.14
447.046	38672.48
447.252	40851.52
447.459	40818.75
447.665	40915
447.871	42440.74
448.078	44359.69
448.284	41814.06
448.491	43169.82
448.697	44943.36
448.903	45268.98
449.11	45647.86
449.316	44445.7
449.522	45770.74
449.728	46647.27
449.935	46979.04
450.141	46876.64
450.347	47974.35
450.553	46403.56
450.76	47032.28
450.966	48117.71
451.172	47368.15
451.378	48539.59
451.584	47900.62
451.791	49008.57
451.997	48748.48
452.203	49301.43
452.409	49362.87
452.615	49051.58
452.821	47536.09
453.027	47173.59
453.233	48871.36
453.44	47278.04
453.646	48105.42
453.852	47654.87
454.058	48826.31
454.264	47196.12
454.47	47697.87
454.676	46671.84
454.882	48621.51
455.088	44349.45
455.294	45234.17
455.5	45717.49
455.705	46215.15
455.911	44085.26
456.117	43337.75
456.323	42819.61
456.529	40415.3
456.735	42096.68
456.941	40804.41
457.147	40472.64
457.352	39145.56
457.558	38692.96
457.764	38463.58
457.97	37955.69
458.176	37027.96
458.381	37335.15
458.587	35229.84
458.793	35254.42
458.999	33269.93
459.204	35891.33
459.41	34965.65
459.616	32653.5
459.821	32692.41
460.027	32676.02
460.233	31916.23
460.438	30214.37
460.644	30652.63
460.85	29274.35
461.055	29006.06
461.261	28801.27
461.466	26693.91
461.672	25850.14
461.878	27826.43
462.083	25817.38
462.289	25245.99
462.494	25000.24
462.7	23826.75
462.905	23228.74
463.111	24324.41
463.316	24217.91
463.522	23812.42
463.727	23869.76
463.932	23789.89
464.138	23337.29
464.343	23533.89
464.549	22917.45
464.754	23732.54
464.959	23748.93
465.165	23382.34
465.37	22288.73
465.575	21885.28
465.781	22653.26
465.986	22786.38
466.191	22016.35
466.397	21762.4
466.602	20525.43
466.807	21494.11
467.012	21385.57
467.218	21256.55
467.423	20881.77
467.628	21047.66
467.833	21545.31
468.038	21109.1
468.244	20416.88
468.449	21250.41
468.654	20451.7
468.859	20169.08
469.064	20414.84
469.269	19665.28
469.474	19519.87
469.679	19732.86
469.885	19511.68
470.09	19751.29
470.295	19669.37
470.5	19011.98
470.705	19134.85
470.91	18708.88
471.115	18516.37
471.32	19095.94
471.525	18635.15
471.73	18373.01
471.935	18221.46
472.139	17488.29
472.344	17803.67
472.549	17600.93
472.754	17582.49
472.959	17013.16
473.164	16755.12
473.369	16449.97
473.574	16998.82
473.778	16759.21
473.983	16701.87
474.188	16921
474.393	15843.77
474.598	16097.72
474.802	15929.78
475.007	15643.07
475.212	16046.52
475.417	15182.27
475.621	15253.95
475.826	15350.21
476.031	15045.06
476.235	14815.69
476.44	14979.53
476.645	14913.99
476.849	14774.73
477.054	14434.77
477.259	14393.81
477.463	14508.49
477.668	13990.36
477.872	14129.62
478.077	13908.44
478.282	13629.91
478.486	13470.17
478.691	13337.06
478.895	13255.14
479.1	13107.68
479.304	13371.87
479.509	12874.21
479.713	13187.55
479.918	12888.55
480.122	12421.61
480.326	12925.41
480.531	13054.44
480.735	12800.49
480.94	12646.89
481.144	13099.49
481.348	12530.16
481.553	12524.01
481.757	12212.72
481.961	12605.93
482.166	12530.16
482.37	12468.72
482.574	12321.26
482.778	12210.67
482.983	12392.94
483.187	12231.15
483.391	12524.01
483.595	12382.7
483.8	12188.14
484.004	12243.44
484.208	12628.46
484.412	12122.61
484.616	12222.96
484.821	12433.9
485.025	12134.9
485.229	12556.78
485.433	12362.22
485.637	12268.02
485.841	12184.05
486.045	12091.89
486.249	12284.4
486.453	12128.75
486.657	12388.85
486.861	12345.84
487.065	11952.63
487.269	12362.22
487.473	12212.72
487.677	12464.62
487.881	12235.25
488.085	12265.97
488.289	12567.02
488.493	12333.55
488.697	12300.78
488.901	12487.15
489.105	12397.04
489.309	12524.01
489.512	12409.33
489.716	12403.18
489.92	12577.26
490.124	12499.44
490.328	12669.42
490.531	12796.39
490.735	12642.79
490.939	12595.69
491.143	12624.36
491.346	12632.55
491.55	13044.2
491.754	12990.95
491.958	13042.15
492.161	12978.66
492.365	12952.04
492.569	12780.01
492.772	13181.41
492.976	13179.36
493.18	13308.38
493.383	13181.41
493.587	13332.96
493.79	13550.04
493.994	13351.39
494.197	13588.96
494.401	13709.79
494.605	13758.94
494.808	13775.32
495.012	13941.21
495.215	13832.66
495.419	14358.99
495.622	14162.39
495.825	14430.67
496.029	14410.19
496.232	14789.06
496.436	14651.85
496.639	15047.11
496.843	14856.65
497.046	15272.39
497.249	15161.8
497.453	15493.57
497.656	15727.03
497.859	15778.23
498.063	15854.01
498.266	16171.44
498.469	16028.09
498.673	16468.4
498.876	16767.4
499.079	16454.06
499.282	16769.45
499.485	17181.09
499.689	17181.09
499.892	17451.42
500.095	17537.44
500.298	17985.94
500.501	17744.28
500.705	18205.08
500.908	18463.12
501.111	18674.06
501.314	18766.22
501.517	18960.78
501.72	19300.74
501.923	19091.85
502.126	19753.34
502.329	20054.39
502.532	20005.24
502.735	19951.99
502.938	20371.83
503.141	20697.45
503.344	21078.38
503.547	20998.51
503.75	21455.2
503.953	21674.34
504.156	21868.89
504.359	21872.99
504.562	22301.01
504.765	23005.52
504.968	22804.81
505.17	23198.02
505.373	23040.33
505.576	23509.32
505.779	23636.29
505.982	24121.66
506.185	24422.71
506.387	24461.62
506.59	24813.87
506.793	25168.17
506.996	24887.6
507.198	25598.24
507.401	25680.16
507.604	25893.15
507.807	26515.73
508.009	26855.7
508.212	26439.96
508.415	27123.98
508.617	27584.77
508.82	27662.6
509.022	27703.56
509.225	28332.28
509.428	28481.78
509.63	28657.91
509.833	28659.96
510.035	29618.41
510.238	29155.57
510.44	29673.7
510.643	29898.98
510.845	30216.41
511.048	30439.64
511.25	30730.45
511.453	31025.36
511.655	32102.59
511.858	31445.19
512.06	32147.65
512.262	32458.94
512.465	32489.66
512.667	33183.92
512.87	33075.38
513.072	33118.39
513.274	34082.98
513.477	34394.27
513.679	34441.37
513.881	34977.94
514.084	35408.01
514.286	35473.55
514.488	35647.63
514.69	36636.8
514.893	36561.02
515.095	36343.94
515.297	37404.78
515.499	37146.74
515.701	37724.27
515.904	38187.11
516.106	38307.94
516.308	38686.81
516.51	39137.37
516.712	39395.41
516.914	39333.97
517.116	40044.62
517.318	40220.74
517.52	40374.34
517.722	40599.62
517.925	41496.63
518.127	41879.6
518.329	41715.76
518.531	42059.82
518.733	42709.02
518.935	43159.58
519.136	42946.59
519.338	43999.24
519.54	43980.81
519.742	44281.86
519.944	44132.36
520.146	45037.56
520.348	45387.77
520.55	45408.25
520.752	45844.46
520.954	46503.91
521.155	46295.02
521.357	46868.45
521.559	47306.71
521.761	48150.48
521.963	47706.07
522.164	47818.7
522.366	48195.53
522.568	48861.12
522.77	48744.39
522.971	49627.06
523.173	49471.42
523.375	49891.25
523.576	49891.25
523.778	50167.73
523.98	50515.88
524.181	50978.72
524.383	51503
524.584	51349.4
524.786	51558.3
524.988	51834.77
525.189	52111.25
525.391	52524.94
525.592	52772.74
525.794	52512.65
525.995	52846.47
526.197	52967.3
526.398	53168
526.6	53495.67
526.801	53925.75
527.003	54402.92
527.204	53929.84
527.406	54658.92
527.607	54904.68
527.808	55097.19
528.01	54196.08
528.211	54712.17
528.412	55506.78
528.614	55488.35
528.815	55322.46
529.016	56055.64
529.218	55256.93
529.419	55650.14
529.62	55875.41
529.822	56133.46
530.023	56018.77
530.224	55891.8
530.425	56268.62
530.626	55850.84
530.828	56002.39
531.029	57145.15
531.23	56260.43
531.431	56117.07
531.632	56454.99
531.833	57182.02
532.035	56928.07
532.236	56917.83
532.437	57198.4
532.638	56815.43
532.839	57298.75
533.04	57032.52
533.241	56305.49
533.442	57806.65
533.643	56997.7
533.844	57280.32
534.045	57521.98
534.246	56688.46
534.447	57423.68
534.648	57175.87
534.849	57550.65
535.05	56878.92
535.251	57370.43
535.451	57306.94
535.652	57839.42
535.853	57640.76
536.054	57616.19
536.255	57911.09
536.456	56911.69
536.657	58124.08
536.857	57263.94
537.058	57493.31
537.259	58015.54
537.46	57732.92
537.66	57298.75
537.861	58007.35
538.062	57329.47
538.263	58068.79
538.463	57337.66
538.664	57624.38
538.865	57820.98
539.065	57763.64
539.266	57130.82
539.466	57833.27
539.667	57345.86
539.868	58033.97
540.068	57608
540.269	57532.22
540.469	57911.09
540.67	57218.88
540.87	57345.86
541.071	57417.53
541.271	57788.22
541.472	57567.04
541.672	57321.28
541.873	57104.2
542.073	57050.95
542.274	57724.73
542.474	57505.6
542.675	56993.6
542.875	57907
543.075	57149.25
543.276	56887.11
543.476	57896.76
543.676	57038.66
543.877	57485.12
544.077	57083.72
544.277	57397.05
544.478	57018.18
544.678	57315.14
544.878	57139.01
545.078	57538.36
545.279	56784.71
545.479	56891.21
545.679	57390.91
545.879	56948.55
546.079	57120.58
546.28	56923.97
546.48	56702.79
546.68	57157.44
546.88	57065.28
547.08	56964.93
547.28	57161.54
547.48	56330.06
547.68	56788.81
547.88	56616.78
548.081	57069.38
548.281	56770.38
548.481	56846.15
548.681	57308.99
548.881	56944.45
549.081	56813.38
549.28	56526.67
549.48	57358.14
549.68	56592.2
549.88	57460.54
550.08	56512.33
550.28	56893.25
550.48	56350.54
550.68	56911.69
550.88	56354.64
551.08	56295.25
551.279	56495.95
551.479	56725.32
551.679	56184.66
551.879	56436.56
552.079	56684.36
552.278	56395.6
552.478	56680.27
552.678	56665.93
552.878	56698.7
553.077	56516.43
553.277	55928.66
553.477	56686.41
553.676	56112.98
553.876	56219.47
554.076	55912.28
554.275	55809.88
554.475	55764.82
554.674	56227.66
554.874	56317.78
555.074	56069.97
555.273	56383.31
555.473	56123.22
555.672	55932.76
555.872	55910.23
556.071	55883.61
556.271	55871.32
556.47	55723.86
556.67	55852.89
556.869	55592.79
557.068	55420.76
557.268	55435.1
557.467	55758.68
557.667	55721.82
557.866	55709.53
558.065	55273.31
558.265	54816.61
558.464	54736.74
558.663	55250.78
558.863	54851.43
559.062	55531.36
559.261	54290.29
559.461	55330.65
559.66	54505.32
559.859	55056.23
560.058	54484.84
560.258	54966.12
560.457	54617.96
560.656	54577
560.855	54161.26
561.054	54853.48
561.253	54278
561.453	54529.9
561.652	54206.32
561.851	54081.39
562.05	54110.06
562.249	54071.15
562.448	54179.7
562.647	53647.22
562.846	53677.94
563.045	53659.51
563.244	53337.98
563.443	53864.31
563.642	52660.1
563.841	53485.43
564.04	52871.04
564.239	53485.43
564.438	52619.14
564.637	53446.52
564.836	53612.41
565.035	52402.06
565.234	52651.91
565.432	52690.82
565.631	52348.81
565.83	52801.41
566.029	52045.71
566.228	52033.42
566.427	51943.31
566.625	51263.39
566.824	51586.97
567.023	51824.53
567.222	50982.82
567.42	51586.97
567.619	51455.9
567.818	51273.63
568.016	51156.89
568.215	51261.34
568.414	51064.74
568.612	51400.6
568.811	50669.48
569.01	50833.31
569.208	50481.06
569.407	50939.81
569.605	49860.53
569.804	50448.3
570.002	50061.23
570.201	50206.64
570.4	49964.98
570.598	49754.04
570.797	49280.95
570.995	49737.65
571.193	49379.26
571.392	49958.83
571.59	49457.08
571.789	49272.76
571.987	49024.96
572.186	49375.16
572.384	49063.87
572.582	48801.73
572.781	49047.49
572.979	48302.03
573.177	48949.18
573.376	49033.15
573.574	47798.23
573.772	48056.27
573.971	48113.61
574.169	47728.59
574.367	47300.57
574.565	47828.94
574.763	47503.32
574.962	47407.06
575.16	47366.1
575.358	47042.52
575.556	46680.03
575.754	47394.78
575.952	46690.27
576.151	47015.9
576.349	46282.73
576.547	46917.6
576.745	46354.41
576.943	46813.15
577.141	46231.53
577.339	46385.13
577.537	45842.42
577.735	45987.82
577.933	45377.53
578.131	45754.35
578.329	45688.82
578.527	45586.42
578.725	45369.33
578.923	46209
579.121	45303.8
579.319	45311.99
579.516	45193.21
579.714	45004.8
579.912	44851.2
580.11	44967.93
580.308	44902.4
580.506	44640.26
580.704	44376.07
580.901	44414.98
581.099	44701.7
581.297	43769.87
581.495	43640.85
581.692	44075.02
581.89	43337.75
582.088	43993.1
582.285	43274.26
582.483	43812.88
582.681	43304.98
582.878	42973.21
583.076	42614.82
583.274	43321.37
583.471	42539.04
583.669	42969.11
583.866	42135.59
584.064	42641.44
584.262	42027.05
584.459	42215.46
584.657	42076.2
584.854	42625.06
585.052	41746.48
585.249	42096.68
585.447	41654.32
585.644	41592.88
585.841	41713.71
586.039	41936.94
586.236	40884.28
586.434	41150.52
586.631	41117.75
586.828	41297.97
587.026	40996.92
587.223	41089.08
587.42	40839.23
587.618	40941.63
587.815	40388.67
588.012	40464.45
588.21	40269.89
588.407	40589.38
588.604	39718.99
588.801	39749.71
588.999	39680.08
589.196	39858.25
589.393	39626.83
589.59	39700.56
589.787	39882.83
589.984	39469.14
590.182	38991.96
590.379	39313.49
590.576	39049.3
590.773	38772.83
590.97	38781.02
591.167	39090.26
591.364	38342.75
591.561	38594.65
591.758	38074.47
591.955	38316.13
592.152	38645.85
592.349	37912.68
592.546	38015.08
592.743	38066.28
592.94	37390.45
593.137	37787.75
593.334	37791.85
593.531	37245.04
593.727	37804.14
593.924	37609.58
594.121	37070.96
594.318	37292.15
594.515	36808.82
594.712	36931.7
594.908	36569.21
595.105	37013.62
595.302	36337.79
595.499	36268.16
595.696	36448.38
595.892	36319.36
596.089	35874.95
596.286	36374.66
596.482	36186.24
596.679	36094.08
596.876	36026.5
597.072	35821.7
597.269	35655.82
597.466	35672.2
597.662	35383.44
597.859	35383.44
598.055	35086.48
598.252	34988.18
598.448	35094.68
598.645	34785.43
598.841	35035.28
599.038	34730.14
599.234	34758.81
599.431	34465.95
599.627	34199.71
599.824	34412.7
600.02	34609.31
600.217	34154.66
600.413	33757.35
600.609	33642.67
600.806	33593.51
601.002	33507.5
601.198	33798.31
601.395	33390.77
601.591	33159.34
601.787	33441.96
601.984	33257.65
602.18	33708.2
602.376	33089.71
602.572	32925.88
602.769	33241.26
602.965	32444.6
603.161	32639.16
603.357	32272.57
603.553	32446.65
603.75	32477.37
603.946	32102.59
604.142	32389.31
604.338	32221.37
604.534	32368.83
604.73	31631.56
604.926	31889.6
605.122	31680.71
605.318	31852.74
605.514	31410.38
605.71	31140.05
605.906	31477.96
606.102	31422.67
606.298	31320.27
606.494	31183.05
606.69	31164.62
606.886	31326.41
607.082	30740.69
607.278	30982.35
607.474	30798.04
607.67	30587.1
607.866	30384.35
608.062	30845.14
608.257	30795.99
608.453	30800.08
608.649	30300.38
608.845	30071.01
609.041	30120.16
609.236	30243.04
609.432	29870.31
609.628	29952.23
609.824	29817.06
610.019	30060.77
610.215	29743.33
610.411	30091.49
610.606	29704.42
610.802	29548.78
610.998	29384.94
611.193	29786.34
611.389	29368.55
611.584	29497.58
611.78	29184.24
611.976	29065.46
612.171	29264.11
612.367	29456.62
612.562	28879.09
612.758	28791.03
612.953	28543.22
613.149	29106.41
613.344	28809.46
613.539	29378.79
613.735	28852.47
613.93	28969.2
614.126	28537.08
614.321	28659.96
614.517	28418.3
614.712	28549.37
614.907	27908.35
615.103	28551.42
615.298	28195.07
615.493	28166.4
615.688	27836.67
615.884	28557.56
616.079	28020.99
616.274	28070.14
616.47	28102.91
616.665	27943.17
616.86	27650.31
617.055	28027.13
617.25	27904.26
617.445	27994.37
617.641	27300.11
617.836	27719.94
618.031	27210
618.226	27273.48
618.421	27347.21
618.616	27273.48
618.811	26867.98
619.006	27386.12
619.201	26702.1
619.396	27117.84
619.591	26542.36
619.786	26554.65
619.981	26175.77
620.176	26728.72
620.371	26050.85
620.566	25921.82
620.761	26020.13
620.956	26267.93
621.151	25807.14
621.346	25829.66
621.541	25364.78
621.735	25561.38
621.93	25284.9
622.125	25420.07
622.32	24879.41
622.515	25147.69
622.709	24840.5
622.904	24912.17
623.099	24942.89
623.294	24910.13
623.488	24443.19
623.683	24330.55
623.878	24133.95
624.072	24144.19
624.267	24086.84
624.462	23867.71
624.656	23580.99
624.851	23540.04
625.046	23591.23
625.24	23435.59
625.435	23341.38
625.629	23056.71
625.824	23118.15
626.018	23148.87
626.213	22464.85
626.407	22597.97
626.602	22274.39
626.796	22374.74
626.991	22301.01
627.185	22217.05
627.38	22145.37
627.574	21877.08
627.768	21487.97
627.963	21844.32
628.157	21580.13
628.352	21563.75
628.546	21055.85
628.74	21225.83
628.935	20820.33
629.129	21191.02
629.323	20699.5
629.517	20918.64
629.712	20617.58
629.906	20758.89
630.1	20367.73
630.294	20388.21
630.489	20365.68
630.683	20261.24
630.877	19861.88
631.071	19720.57
631.265	19792.25
631.459	19595.65
631.653	19648.89
631.848	19706.24
632.042	19259.78
632.236	19417.47
632.43	19036.55
632.624	19224.97
632.818	18907.53
633.012	18678.16
633.206	18813.32
633.4	18901.39
633.594	18573.71
633.788	18393.49
633.982	18471.31
634.176	18377.11
634.369	18047.38
634.563	18215.32
634.757	17965.46
634.951	18067.86
635.145	17918.36
635.339	17899.93
635.533	17502.62
635.726	17654.17
635.92	17381.79
636.114	17314.21
636.308	17283.49
636.501	17129.89
636.695	17023.4
636.889	17037.73
637.083	17072.55
637.276	16853.42
637.47	16513.45
637.664	16654.76
637.857	16679.34
638.051	16447.92
638.244	16341.43
638.438	16535.98
638.632	16060.85
638.825	15917.5
639.019	16089.53
639.212	15937.98
639.406	15991.22
639.599	15921.59
639.793	15653.31
639.986	15421.89
640.18	15485.37
640.373	15624.64
640.567	15393.22
640.76	15276.48
640.954	15102.4
641.147	14899.66
641.34	15186.37
641.534	15002.05
641.727	14938.57
641.92	14860.74
642.114	14586.32
642.307	14723.53
642.5	14561.74
642.694	14506.45
642.887	14393.81
643.08	14209.49
643.273	14160.34
643.467	13986.26
643.66	13990.36
643.853	14113.24
644.046	13767.13
644.239	13814.23
644.432	13820.38
644.626	13707.74
644.819	13599.2
645.012	13421.02
645.205	13570.52
645.398	13365.73
645.591	13322.72
645.784	13183.46
645.977	13091.3
646.17	13251.04
646.363	12995.04
646.556	12857.83
646.749	12988.9
646.942	12796.39
647.135	12906.98
647.328	12829.16
647.521	12603.88
647.714	12392.94
647.907	12501.48
648.099	12487.15
648.292	12460.52
648.485	12390.89
648.678	11899.38
648.871	12317.17
649.064	11923.96
649.256	12151.28
649.449	12046.83
649.642	11942.39
649.835	11827.7
650.027	11762.17
650.22	11538.94
650.413	11600.38
650.605	11596.28
650.798	11512.31
650.991	11586.04
651.183	11608.57
651.376	11252.22
651.568	11219.46
651.761	11188.74
651.954	11223.55
652.146	11182.59
652.339	11139.58
652.531	10940.93
652.724	10928.64
652.916	10924.55
653.109	10838.53
653.301	10592.78
653.494	10701.32
653.686	10629.64
653.879	10617.35
654.071	10439.18
654.263	10334.73
654.456	10494.47
654.648	10619.4
654.84	10291.73
655.033	10172.94
655.225	10201.61
655.417	10330.64
655.61	10052.11
655.802	10310.16
655.994	10048.02
656.186	9986.58
656.379	9976.34
656.571	9904.66
656.763	9810.45
656.955	9796.12
657.148	9531.93
657.34	9732.63
657.532	9411.1
657.724	9376.28
657.916	9601.56
658.108	9548.31
658.3	9368.09
658.492	9351.71
658.684	9312.8
658.876	9124.38
659.068	9232.93
659.26	9167.39
659.452	9175.58
659.644	9116.19
659.836	8991.27
660.028	9071.14
660.22	8741.41
660.412	8833.57
660.604	8692.26
660.796	8604.2
660.988	8813.09
661.18	8817.19
661.372	8612.39
661.563	8706.6
661.755	8557.1
661.947	8610.34
662.139	8698.41
662.331	8370.73
662.522	8397.35
662.714	8237.61
662.906	8380.97
663.097	8292.91
663.289	8106.54
663.481	8147.5
663.673	8122.93
663.864	8049.2
664.056	7893.55
664.247	7871.03
664.439	7995.95
664.631	7952.95
664.822	7893.55
665.014	7764.53
665.205	7793.2
665.397	7701.05
665.588	7797.3
665.78	7715.38
665.971	7649.85
666.163	7864.88
666.354	7701.05
666.546	7629.37
666.737	7426.62
666.929	7490.1
667.12	7598.65
667.311	7393.85
667.503	7430.71
667.694	7574.07
667.885	7352.89
668.077	7172.67
668.268	7168.57
668.459	7289.4
668.651	7076.41
668.842	7158.33
669.033	7006.78
669.224	7039.55
669.416	7107.13
669.607	7107.13
669.798	7189.05
669.989	7082.56
670.18	6996.54
670.371	7057.98
670.563	6840.9
670.754	6963.78
670.945	6775.36
671.136	6769.22
671.327	6785.6
671.518	6748.74
671.709	6844.99
671.9	6699.59
672.091	6611.53
672.282	6672.96
672.473	6584.9
672.664	6724.16
672.855	6652.49
673.046	6582.85
673.237	6758.98
673.428	6605.38
673.619	6572.61
673.809	6500.94
674	6570.57
674.191	6468.17
674.382	6435.4
674.573	6306.38
674.764	6300.23
674.954	6386.25
675.145	6249.04
675.336	6124.11
675.527	6365.77
675.717	6306.38
675.908	6310.47
676.099	6390.35
676.289	6103.63
676.48	6124.11
676.671	6081.1
676.861	6210.12
677.052	6097.49
677.243	6132.3
677.433	6038.09
677.624	6197.84
677.814	6054.48
678.005	6130.25
678.195	6206.03
678.386	6068.81
678.576	6077.01
678.767	6218.32
678.957	5993.04
679.148	5958.22
679.338	5970.51
679.529	5997.14
679.719	5995.09
679.909	5902.93
680.1	5870.16
680.29	5941.84
680.481	5894.74
680.671	5923.41
680.861	5747.28
681.052	6091.34
681.242	5866.07
681.432	5837.39
681.622	5788.24
681.813	5864.02
682.003	5796.43
682.193	5775.95
682.383	5827.15
682.573	5798.48
682.764	5827.15
682.954	5677.65
683.144	5833.3
683.334	5767.76
683.524	5728.85
683.714	5657.17
683.904	5610.07
684.094	5655.12
684.284	5677.65
684.474	5659.22
684.664	5587.54
684.854	5646.93
685.044	5405.27
685.234	5515.86
685.424	5550.68
685.614	5429.85
685.804	5446.23
685.994	5796.43
686.184	5456.47
686.374	5440.09
686.564	5403.22
686.753	5495.38
686.943	5374.55
687.133	5223
687.323	5200.48
687.513	5399.13
687.702	5274.2
687.892	5292.63
688.082	5210.72
688.272	5444.18
688.461	5223
688.651	5239.39
688.841	5227.1
689.03	5128.8
689.22	5292.63
689.41	5239.39
689.599	5239.39
689.789	5007.97
689.979	5243.48
690.168	4993.63
690.358	4928.1
690.547	4883.04
690.737	4864.61
690.926	4799.07
691.116	4960.86
691.305	5022.3
691.495	4842.08
691.684	4993.63
691.874	4962.91
692.063	4725.35
692.252	4846.18
692.442	4747.87
692.631	4735.59
692.82	4788.83
693.01	4774.5
693.199	4758.11
693.388	4584.04
693.578	4641.38
693.767	4575.84
693.956	4528.74
694.146	4573.8
694.335	4547.17
694.524	4498.02
694.713	4563.56
694.902	4668
695.092	4637.28
695.281	4530.79
695.47	4510.31
695.659	4407.91
695.848	4471.4
696.037	4627.04
696.226	4555.37
696.415	4395.62
696.604	4371.05
696.793	4432.49
696.982	4463.21
697.171	4565.61
697.36	4401.77
697.549	4348.52
697.738	4530.79
697.927	4274.79
698.116	4317.8
698.305	4495.97
698.494	4387.43
698.683	4194.92
698.872	4313.7
699.061	4379.24
699.25	4280.94
699.438	4100.72
699.627	4274.79
699.816	4360.81
700.005	4344.42
700.193	4135.53
700.382	4354.66
700.571	4076.14
700.76	4287.08
700.948	4405.86
701.137	4356.71
701.326	4092.52
701.514	4313.7
701.703	4182.63
701.892	4113
702.08	4199.02
702.269	4199.02
702.457	4121.2
702.646	4270.7
702.834	4123.24
703.023	4039.28
703.212	4070
703.4	4176.49
703.589	4008.56
703.777	4178.54
703.965	4135.53
704.154	4184.68
704.342	4072.04
704.531	4170.35
704.719	4072.04
704.907	4153.96
705.096	4201.07
705.284	4084.33
705.472	3961.45
705.661	4043.37
705.849	4135.53
706.037	4203.11
706.226	3934.83
706.414	3979.89
706.602	3971.69
706.79	4039.28
706.979	4012.65
707.167	4106.86
707.355	4031.09
707.543	3910.26
707.731	4051.56
707.919	3990.13
708.107	3977.84
708.296	3834.48
708.484	4110.96
708.672	3967.6
708.86	4043.37
709.048	4108.91
709.236	3889.78
709.424	3885.68
709.612	4053.61
709.8	3916.4
709.988	3897.97
710.176	3918.45
710.364	3902.06
710.551	3957.36
710.739	4006.51
710.927	3967.6
711.115	3994.22
711.303	3977.84
711.491	3779.19
711.679	3768.95
711.866	4018.8
712.054	3824.24
712.242	3918.45
712.43	3900.02
712.617	3895.92
712.805	3834.48
712.993	3986.03
713.181	3777.14
713.368	3717.75
713.556	3883.63
713.744	3830.38
713.931	3916.4
714.119	3770.99
714.306	3865.2
714.494	3736.18
714.682	3805.81
714.869	3785.33
715.057	3773.04
715.244	3641.97
715.432	3924.59
715.619	3738.23
715.807	3807.86
715.994	3826.29
716.182	3826.29
716.369	3766.9
716.556	3785.33
716.744	3715.7
716.931	3660.4
717.119	3930.73
717.306	3756.66
717.493	3797.62
717.681	3748.47
717.868	3895.92
718.055	3725.94
718.242	3807.86
718.43	3725.94
718.617	3826.29
718.804	3611.25
718.991	3689.07
719.179	3781.23
719.366	3781.23
719.553	3785.33
719.74	3736.18
719.927	3732.08
720.114	3662.45
720.301	3770.99
720.488	3693.17
720.676	3527.28
720.863	3777.14
721.05	3633.78
721.237	3672.69
721.424	3637.88
721.611	3797.62
721.798	3619.44
721.985	3543.67
722.172	3752.56
722.358	3635.83
722.545	3447.41
722.732	3527.28
722.919	3631.73
723.106	3775.09
723.293	3601.01
723.48	3531.38
723.667	3553.91
723.853	3496.57
724.04	3480.18
724.227	3492.47
724.414	3572.34
724.6	3404.41
724.787	3560.05
724.974	3570.29
725.161	3531.38
725.347	3541.62
725.534	3455.61
725.72	3527.28
725.907	3498.61
726.094	3502.71
726.28	3463.8
726.467	3500.66
726.653	3492.47
726.84	3447.41
727.027	3596.92
727.213	3347.06
727.4	3355.26
727.586	3355.26
727.773	3500.66
727.959	3365.5
728.145	3424.89
728.332	3474.04
728.518	3424.89
728.705	3369.59
728.891	3531.38
729.077	3318.39
729.264	3379.83
729.45	3414.65
729.636	3394.17
729.823	3363.45
730.009	3293.82
730.195	3457.65
730.382	3351.16
730.568	3322.49
730.754	3318.39
730.94	3355.26
731.126	3414.65
731.313	3287.67
731.499	3347.06
731.685	3396.21
731.871	3261.05
732.057	3302.01
732.243	3390.07
732.429	3269.24
732.615	3381.88
732.801	3269.24
732.987	3244.67
733.173	3297.91
733.359	3267.19
733.545	3326.58
733.731	3199.61
733.917	3269.24
734.103	3261.05
734.289	3320.44
734.475	3228.28
734.661	3187.32
734.847	3289.72
735.033	3261.05
735.219	3123.84
735.404	3197.56
735.59	3127.93
735.776	3101.31
735.962	3203.71
736.148	3207.8
736.333	3121.79
736.519	3158.65
736.705	3089.02
736.89	3189.37
737.076	3170.94
737.262	3132.03
737.447	3086.97
737.633	3041.92
737.819	3132.03
738.004	3019.39
738.19	2953.85
738.375	3121.79
738.561	3170.94
738.747	2982.53
738.932	3035.77
739.118	3074.68
739.303	3041.92
739.489	3095.16
739.674	2992.77
739.859	2925.18
740.045	3074.68
740.23	3025.53
740.416	2873.98
740.601	2925.18
740.786	2974.33
740.972	2937.47
741.157	2794.11
741.342	2880.13
741.528	2996.86
741.713	2853.5
741.898	2884.22
742.084	2816.64
742.269	2861.7
742.454	2734.72
742.639	2892.41
742.824	2910.85
743.01	2802.3
743.195	2800.26
743.38	2783.87
743.565	2732.67
743.75	2636.42
743.935	2679.43
744.12	2740.86
744.305	2921.09
744.49	2652.8
744.675	2579.08
744.86	2675.33
745.045	2613.89
745.23	2687.62
745.415	2640.51
745.6	2679.43
745.785	2568.84
745.97	2585.22
746.155	2560.64
746.34	2605.7
746.525	2536.07
746.71	2597.51
746.895	2466.44
747.079	2478.72
747.264	2454.15
747.449	2429.57
747.634	2427.53
747.819	2531.97
748.003	2409.09
748.188	2384.52
748.373	2407.05
748.557	2443.91
748.742	2470.53
748.927	2382.47
749.111	2339.46
749.296	2273.93
749.481	2376.33
749.665	2185.87
749.85	2259.59
750.034	2251.4
750.219	2232.97
750.404	2192.01
750.588	2255.5
750.773	2116.23
750.957	2116.23
751.141	2122.38
751.326	2103.95
751.51	2083.47
751.695	2202.25
751.879	2028.17
752.064	2060.94
752.248	2065.04
752.432	2142.86
752.617	1968.78
752.801	2083.47
752.985	1999.5
753.17	1952.4
753.354	1933.97
753.538	2036.36
753.722	1788.56
753.907	1913.49
754.091	1958.54
754.275	1888.91
754.459	1847.95
754.643	1893.01
754.828	1684.11
755.012	1839.76
755.196	1825.42
755.38	1835.66
755.564	1757.84
755.748	1759.89
755.932	1811.09
756.116	1925.77
756.3	1702.54
756.484	1704.59
756.668	1751.7
756.852	1778.32
757.036	1643.15
757.22	1768.08
757.404	1673.87
757.588	1628.82
757.772	1727.12
757.956	1618.58
758.14	1688.21
758.323	1510.04
758.507	1700.5
758.691	1583.76
758.875	1565.33
759.059	1649.3
759.242	1489.56
759.426	1581.71
759.61	1608.34
759.794	1540.76
759.977	1458.84
760.161	1577.62
760.345	1561.23
760.528	1524.37
760.712	1499.8
760.895	1573.52
761.079	1467.03
761.263	1434.26
761.446	1440.4
761.63	1434.26
761.813	1411.73
761.997	1419.92
762.18	1403.54
762.364	1389.21
762.547	1344.15
762.731	1401.49
762.914	1376.92
763.098	1372.82
763.281	1372.82
763.464	1458.84
763.648	1450.64
763.831	1333.91
764.015	1428.12
764.198	1403.54
764.381	1219.22
764.564	1397.4
764.748	1333.91
764.931	1366.68
765.114	1286.81
765.297	1338.01
765.481	1295
765.664	1305.24
765.847	1274.52
766.03	1311.38
766.213	1319.57
766.397	1288.86
766.58	1208.98
766.763	1315.48
766.946	1245.85
767.129	1243.8
767.312	1221.27
767.495	1258.14
767.678	1196.7
767.861	1223.32
768.044	1268.38
768.227	1223.32
768.41	1182.36
768.593	1213.08
768.776	1120.92
768.959	1112.73
769.142	1299.09
769.324	1092.25
769.507	1135.26
769.69	1122.97
769.873	1215.13
770.056	1194.65
770.239	1131.16
770.421	1190.55
770.604	1122.97
770.787	1225.37
770.97	1200.79
771.152	1141.4
771.335	1032.86
771.518	1114.78
771.7	1030.81
771.883	1141.4
772.066	1098.39
772.248	1108.63
772.431	1053.34
772.613	1145.5
772.796	1055.39
772.978	1092.25
773.161	1104.54
773.343	926.36
773.526	991.9
773.708	1034.91
773.891	1073.82
774.073	1036.95
774.256	1110.68
774.438	959.13
774.621	936.6
774.803	1047.19
774.985	1071.77
775.168	1039
775.35	983.71
775.532	959.13
775.715	858.78
775.897	950.94
776.079	934.56
776.261	987.8
776.444	895.65
776.626	811.68
776.808	871.07
776.99	926.36
777.173	860.83
777.355	959.13
777.537	914.08
777.719	877.21
777.901	809.63
778.083	793.25
778.265	885.41
778.447	842.4
778.629	729.76
778.811	883.36
778.993	801.44
779.175	811.68
779.357	795.29
779.539	778.91
779.721	778.91
779.903	912.03
780.085	834.21
780.267	819.87
780.449	858.78
780.631	766.62
780.812	756.38
780.994	828.06
781.176	653.98
781.358	731.81
781.54	754.34
781.721	703.14
781.903	811.68
782.085	746.14
782.267	688.8
782.448	631.46
782.63	588.45
782.812	617.12
782.993	625.31
783.175	684.7
783.357	680.61
783.538	674.46
783.72	576.16
783.901	705.18
784.083	656.03
784.264	627.36
784.446	604.83
784.627	592.55
784.809	596.64
784.99	694.94
785.172	592.55
785.353	594.59
785.535	617.12
785.716	625.31
785.897	633.5
786.079	623.27
786.26	586.4
786.441	602.79
786.623	463.52
786.804	553.63
786.985	500.39
787.167	588.45
787.348	582.31
787.529	588.45
787.71	590.5
787.891	617.12
788.073	531.11
788.254	459.43
788.435	463.52
788.616	506.53
788.797	553.63
788.978	498.34
789.159	553.63
789.34	486.05
789.522	520.87
789.703	432.8
789.884	494.24
790.065	518.82
790.246	576.16
790.427	465.57
790.607	504.48
790.788	400.04
790.969	463.52
791.15	508.58
791.331	457.38
791.512	418.47
791.693	422.56
791.874	443.04
792.054	508.58
792.235	481.96
792.416	393.89
792.597	469.67
792.778	373.41
792.958	498.34
793.139	400.04
793.32	428.71
793.5	410.28
793.681	410.28
793.862	443.04
794.042	373.41
794.223	424.61
794.404	420.52
794.584	414.37
794.765	441
794.945	455.33
795.126	379.56
795.306	471.72
795.487	406.18
795.667	408.23
795.848	350.89
796.028	438.95
796.209	369.32
796.389	361.13
796.57	332.45
796.75	311.97
796.93	365.22
797.111	402.08
797.291	416.42
797.471	367.27
797.652	359.08
797.832	363.17
798.012	332.45
798.192	367.27
798.373	271.01
798.553	336.55
798.733	326.31
798.913	266.92
799.093	365.22
799.274	352.93
799.454	357.03
799.634	354.98
799.814	377.51
799.994	314.02
800.174	369.32
800.354	295.59
800.534	279.21
800.714	443.04
800.894	275.11
801.074	307.88
801.254	291.49
801.434	371.37
801.614	354.98
801.794	301.73
801.974	922.27
802.154	275.11
802.334	352.93
802.514	234.15
802.693	244.39
802.873	230.06
803.053	254.63
803.233	268.97
803.413	271.01
803.592	334.5
803.772	297.64
803.952	273.06
804.131	293.54
804.311	281.25
804.491	318.12
804.67	246.44
804.85	225.96
805.03	293.54
805.209	238.25
805.389	262.82
805.568	223.91
805.748	242.34
805.928	264.87
806.107	279.21
806.287	273.06
806.466	271.01
806.646	213.67
806.825	221.86
807.004	256.68
807.184	266.92
807.363	297.64
807.543	250.53
807.722	189.1
807.901	301.73
808.081	232.1
808.26	172.71
808.439	309.93
808.619	234.15
808.798	162.47
808.977	260.77
809.156	330.41
809.336	271.01
809.515	285.35
809.694	242.34
809.873	262.82
810.052	242.34
810.231	156.33
810.411	273.06
810.59	234.15
810.769	225.96
810.948	166.57
811.127	232.1
811.306	230.06
811.485	295.59
811.664	203.43
811.843	264.87
812.022	228.01
812.201	246.44
812.38	219.82
812.559	256.68
812.737	217.77
812.916	164.52
813.095	197.29
813.274	189.1
813.453	250.53
813.632	232.1
813.811	230.06
813.989	230.06
814.168	168.62
814.347	180.9
814.526	148.14
814.704	230.06
814.883	189.1
815.062	170.66
815.24	185
815.419	156.33
815.598	201.38
815.776	203.43
815.955	127.66
816.133	201.38
816.312	193.19
816.49	197.29
816.669	230.06
816.847	178.86
817.026	172.71
817.204	193.19
817.383	160.42
817.561	139.94
817.74	148.14
817.918	133.8
818.097	115.37
818.275	189.1
818.453	98.99
818.632	238.25
818.81	180.9
818.988	205.48
819.167	117.42
819.345	127.66
819.523	160.42
819.701	105.13
819.879	78.51
820.058	98.99
820.236	146.09
820.414	172.71
820.592	191.14
820.77	152.23
820.948	170.66
821.127	82.6
821.305	168.62
821.483	152.23
821.661	109.23
821.839	203.43
822.017	41.64
822.195	64.17
822.373	162.47
822.551	144.04
822.729	139.94
822.907	133.8
823.085	176.81
823.262	228.01
823.44	148.14
823.618	131.75
823.796	141.99
823.974	162.47
824.152	203.43
824.329	154.28
824.507	168.62
824.685	170.66
824.863	86.7
825.04	117.42
825.218	117.42
825.396	144.04
825.574	162.47
825.751	189.1
825.929	144.04
826.107	107.18
826.284	160.42
826.462	148.14
826.639	127.66
826.817	66.22
826.994	139.94
827.172	127.66
827.349	86.7
827.527	148.14
827.704	135.85
827.882	205.48
828.059	154.28
828.237	117.42
828.414	121.51
828.591	60.07
828.769	137.9
828.946	43.69
829.124	131.75
829.301	127.66
829.478	107.18
829.655	94.89
829.833	111.27
830.01	88.75
830.187	164.52
830.364	127.66
830.542	172.71
830.719	160.42
830.896	164.52
831.073	53.93
831.25	127.66
831.427	146.09
831.604	180.9
831.782	53.93
831.959	160.42
832.136	113.32
832.313	133.8
832.49	178.86
832.667	55.98
832.844	94.89
833.021	29.35
833.198	185
833.374	88.75
833.551	70.31
833.728	76.46
833.905	70.31
834.082	58.03
834.259	82.6
834.436	121.51
834.612	101.03
834.789	117.42
834.966	98.99
835.143	129.7
835.319	84.65
835.496	185
835.673	127.66
835.85	168.62
836.026	64.17
836.203	180.9
836.38	35.5
836.556	76.46
836.733	135.85
836.909	123.56
837.086	60.07
837.262	117.42
837.439	109.23
837.616	58.03
837.792	98.99
837.968	4.78
838.145	47.79
838.321	96.94
838.498	64.17
838.674	70.31
838.851	82.6
839.027	62.12
839.203	107.18
839.38	123.56
839.556	72.36
839.732	199.34
839.909	-17.75
840.085	45.74
840.261	58.03
840.437	60.07
840.614	66.22
840.79	94.89
840.966	41.64
841.142	45.74
841.318	86.7
841.494	55.98
841.671	121.51
841.847	19.11
842.023	58.03
842.199	111.27
842.375	58.03
842.551	17.07
842.727	4.78
842.903	82.6
843.079	84.65
843.255	74.41
843.431	43.69
843.607	146.09
843.783	53.93
843.959	27.31
844.134	35.5
844.31	58.03
844.486	19.11
844.662	29.35
844.838	66.22
845.013	86.7
845.189	90.79
845.365	74.41
845.541	23.21
845.716	78.51
845.892	66.22
846.068	21.16
846.244	-25.94
846.419	82.6
846.595	60.07
846.77	37.55
846.946	82.6
847.122	2.73
847.297	49.83
847.473	35.5
847.648	29.35
847.824	105.13
847.999	21.16
848.175	78.51
848.35	96.94
848.526	92.84
848.701	-9.56
848.876	17.07
849.052	88.75
849.227	98.99
849.403	72.36
849.578	154.28
849.753	15.02
849.929	115.37
850.104	25.26
850.279	72.36
850.454	35.5
850.63	27.31
850.805	49.83
850.98	23.21
851.155	82.6
851.33	113.32
851.505	41.64
851.681	66.22
851.856	0.68
852.031	66.22
852.206	43.69
852.381	74.41
852.556	45.74
852.731	43.69
852.906	121.51
853.081	113.32
853.256	80.55
853.431	17.07
853.606	74.41
853.781	60.07
853.956	-46.42
854.131	76.46
854.305	-21.84
854.48	-36.18
854.655	43.69
854.83	33.45
855.005	58.03
855.18	17.07
855.354	82.6
855.529	41.64
855.704	-27.99
855.879	51.88
856.053	17.07
856.228	80.55
856.403	-11.61
856.577	90.79
856.752	23.21
856.926	105.13
857.101	21.16
857.276	6.83
857.45	115.37
857.625	-17.75
857.799	41.64
857.974	68.27
858.148	64.17
858.323	60.07
858.497	70.31
858.672	-11.61
858.846	88.75
859.02	49.83
859.195	58.03
859.369	51.88
859.543	58.03
859.718	72.36
859.892	-5.46
860.066	-27.99
860.241	78.51
860.415	49.83
860.589	62.12
860.763	-17.75
860.938	49.83
861.112	66.22
861.286	25.26
861.46	76.46
861.634	23.21
861.808	64.17
861.982	12.97
862.157	-21.84
862.331	49.83
862.505	-42.32
862.679	-25.94
862.853	41.64
863.027	-11.61
863.201	-38.23
863.375	-11.61
863.549	31.4
863.722	-11.61
863.896	88.75
864.07	66.22
864.244	27.31
864.418	41.64
864.592	2.73
864.766	74.41
864.939	76.46
865.113	-17.75
865.287	80.55
865.461	-17.75
865.634	21.16
865.808	25.26
865.982	4.78
866.156	33.45
866.329	74.41
866.503	45.74
866.676	72.36
866.85	29.35
867.024	55.98
867.197	-38.23
867.371	66.22
867.544	17.07
867.718	-7.51
867.891	27.31
868.065	66.22
868.238	-15.7
868.412	70.31
868.585	29.35
868.759	105.13
868.932	0.68
869.105	80.55
869.279	-3.41
869.452	-17.75
869.625	39.59
869.799	41.64
869.972	2.73
870.145	76.46
870.319	-5.46
870.492	-1.37
870.665	88.75
870.838	12.97
871.011	27.31
871.185	-1.37
871.358	12.97
871.531	70.31
871.704	-25.94
871.877	51.88
872.05	-48.47
872.223	33.45
872.396	-11.61
872.569	29.35
872.742	-3.41
872.915	45.74
873.088	17.07
873.261	15.02
873.434	72.36
873.607	51.88
873.78	25.26
873.953	-3.41
874.126	-46.42
874.299	37.55
874.471	29.35
874.644	25.26
874.817	-27.99
874.99	152.23
875.163	68.27
875.335	37.55
875.508	-48.47
875.681	66.22
875.853	33.45
876.026	43.69
876.199	19.11
876.371	74.41
876.544	53.93
876.717	25.26
876.889	0.68
877.062	45.74
877.234	21.16
877.407	-7.51
877.579	-48.47
877.752	45.74
877.924	72.36
878.097	17.07
878.269	41.64
878.442	-7.51
878.614	90.79
878.786	2.73
878.959	53.93
879.131	29.35
879.303	-17.75
879.476	25.26
879.648	23.21
879.82	39.59
879.993	58.03
880.165	0.68
880.337	4.78
880.509	41.64
880.681	15.02
880.854	-17.75
881.026	-9.56
881.198	82.6
881.37	-13.65
881.542	-42.32
881.714	-68.95
881.886	2.73
882.058	6.83
882.23	76.46
882.402	86.7
882.574	-9.56
882.746	43.69
882.918	111.27
883.09	-1.37
883.262	-64.85
883.434	-64.85
883.606	-64.85
883.778	74.41
883.95	94.89
884.122	19.11
884.293	82.6
884.465	47.79
884.637	76.46
884.809	49.83
884.98	-13.65
885.152	25.26
885.324	35.5
885.496	31.4
885.667	82.6
885.839	43.69
886.011	-27.99
886.182	33.45
886.354	47.79
886.525	-7.51
886.697	27.31
886.869	-23.89
887.04	4.78
887.212	17.07
887.383	78.51
887.555	66.22
887.726	-54.61
887.897	-5.46
888.069	-7.51
888.24	66.22
888.412	4.78
888.583	62.12
888.754	-5.46
888.926	-32.08
889.097	-23.89
889.268	-1.37
889.44	41.64
889.611	-42.32
889.782	0.68
889.953	21.16
890.125	-1.37
890.296	64.17
890.467	37.55
890.638	-9.56
890.809	8.87
890.98	25.26
891.151	80.55
891.323	21.16
891.494	-25.94
891.665	66.22
891.836	41.64
892.007	-32.08
892.178	66.22
892.349	45.74
892.52	-17.75
892.691	23.21
892.862	-25.94
893.032	-27.99
893.203	17.07
893.374	6.83
893.545	88.75
893.716	-15.7
893.887	8.87
894.057	-11.61
894.228	-9.56
894.399	12.97
894.57	10.92
894.74	4.78
894.911	45.74
895.082	43.69
895.253	23.21
895.423	74.41
895.594	-5.46
895.764	-1.37
895.935	33.45
896.106	90.79
896.276	0.68
896.447	-23.89
896.617	-36.18
896.788	8.87
896.958	27.31
897.129	-15.7
897.299	0.68
897.47	17.07
897.64	49.83
897.81	-42.32
897.981	51.88
898.151	76.46
898.322	49.83
898.492	-27.99
898.662	58.03
898.832	-60.76
899.003	-5.46
899.173	49.83
899.343	72.36
899.513	-23.89
