Data from USB4F104151__286__10-42-20-982.txt Node

Date: Wed Mar 12 10:42:20 EDT 2025
User: louis
Spectrometer: USB4F10415
Trigger mode: 4
Integration Time (sec): 3.000000E-2
Scans to average: 1
Electric dark correction enabled: true
Nonlinearity correction enabled: false
Boxcar width: 0
XAxis mode: Wavelengths
Number of Pixels in Spectrum: 3648
>>>>>Begin Spectral Data<<<<<
178.204	-146.77
178.424	-146.77
178.644	-146.77
178.864	-140.63
179.084	-159.06
179.304	70.31
179.524	4.78
179.744	-60.76
179.964	-40.28
180.184	27.31
180.404	39.59
180.624	-13.65
180.844	15.02
181.064	-71
181.283	31.4
181.503	-42.32
181.723	39.59
181.943	51.88
182.163	15.02
182.383	4.78
182.602	43.69
182.822	12.97
183.042	-7.51
183.262	49.83
183.482	33.45
183.701	31.4
183.921	-17.75
184.141	-11.61
184.361	74.41
184.58	53.93
184.8	21.16
185.02	15.02
185.239	6.83
185.459	10.92
185.679	51.88
185.898	2.73
186.118	-25.94
186.338	27.31
186.557	37.55
186.777	15.02
186.997	15.02
187.216	-34.13
187.436	41.64
187.655	-40.28
187.875	62.12
188.095	6.83
188.314	68.27
188.534	113.32
188.753	-9.56
188.973	45.74
189.192	31.4
189.412	27.31
189.631	78.51
189.851	6.83
190.07	121.51
190.29	33.45
190.509	4.78
190.729	86.7
190.948	17.07
191.168	162.47
191.387	-15.7
191.607	12.97
191.826	33.45
192.045	-19.8
192.265	80.55
192.484	23.21
192.704	-36.18
192.923	64.17
193.142	62.12
193.362	55.98
193.581	70.31
193.8	41.64
194.02	47.79
194.239	-1.37
194.458	70.31
194.678	25.26
194.897	6.83
195.116	-73.04
195.335	-36.18
195.555	-5.46
195.774	-5.46
195.993	4.78
196.212	103.08
196.432	37.55
196.651	-44.37
196.87	15.02
197.089	137.9
197.308	29.35
197.528	2.73
197.747	-7.51
197.966	-23.89
198.185	6.83
198.404	12.97
198.623	23.21
198.842	35.5
199.062	31.4
199.281	2.73
199.5	115.37
199.719	68.27
199.938	-21.85
200.157	68.27
200.376	76.46
200.595	39.59
200.814	-21.85
201.033	35.5
201.252	60.07
201.471	10.92
201.69	80.55
201.909	113.32
202.128	17.07
202.347	60.07
202.566	27.31
202.785	60.07
203.004	0.68
203.223	115.37
203.442	10.92
203.661	10.92
203.879	41.64
204.098	15.02
204.317	60.07
204.536	74.41
204.755	-66.9
204.974	74.41
205.193	39.59
205.411	84.65
205.63	35.5
205.849	76.46
206.068	72.36
206.287	2.73
206.505	107.18
206.724	2.73
206.943	68.27
207.162	90.79
207.381	119.46
207.599	70.31
207.818	12.97
208.037	60.07
208.255	4.78
208.474	27.31
208.693	53.93
208.911	-34.13
209.13	31.4
209.349	-38.23
209.567	23.21
209.786	25.26
210.005	19.11
210.223	0.68
210.442	-13.65
210.661	47.79
210.879	41.64
211.098	105.13
211.316	-15.7
211.535	74.41
211.753	23.21
211.972	19.11
212.191	55.98
212.409	-58.71
212.628	2.73
212.846	-9.56
213.065	51.88
213.283	55.98
213.502	6.83
213.72	15.02
213.938	37.55
214.157	-1.37
214.375	-75.09
214.594	6.83
214.812	39.59
215.031	64.17
215.249	-13.65
215.467	41.64
215.686	80.55
215.904	51.88
216.122	70.31
216.341	53.93
216.559	37.55
216.778	49.83
216.996	41.64
217.214	55.98
217.432	-52.56
217.651	-13.65
217.869	29.35
218.087	76.46
218.306	21.16
218.524	23.21
218.742	-11.61
218.96	43.69
219.179	88.75
219.397	86.7
219.615	43.69
219.833	-9.56
220.051	21.16
220.27	70.31
220.488	-1.37
220.706	47.79
220.924	60.07
221.142	0.68
221.36	-19.8
221.578	-3.41
221.796	41.64
222.015	43.69
222.233	51.88
222.451	90.79
222.669	-60.76
222.887	78.51
223.105	-32.08
223.323	29.35
223.541	12.97
223.759	-3.41
223.977	-23.89
224.195	27.31
224.413	49.83
224.631	10.92
224.849	15.02
225.067	80.55
225.285	51.88
225.503	58.03
225.721	-1.37
225.939	-7.51
226.157	39.59
226.375	19.11
226.592	55.98
226.81	33.45
227.028	6.83
227.246	105.13
227.464	105.13
227.682	94.89
227.9	15.02
228.117	15.02
228.335	4.78
228.553	15.02
228.771	119.46
228.989	64.17
229.206	-7.51
229.424	8.87
229.642	29.35
229.86	4.78
230.077	4.78
230.295	-50.52
230.513	0.68
230.731	-50.52
230.948	49.83
231.166	12.97
231.384	-9.56
231.601	27.31
231.819	37.55
232.037	47.79
232.254	21.16
232.472	62.12
232.689	21.16
232.907	72.36
233.125	55.98
233.342	29.35
233.56	-34.13
233.777	49.83
233.995	35.5
234.213	64.17
234.43	6.83
234.648	-48.47
234.865	6.83
235.083	-5.46
235.3	-13.65
235.518	33.45
235.735	80.55
235.953	68.27
236.17	-58.71
236.388	45.74
236.605	-46.42
236.822	-1.37
237.04	-3.41
237.257	-11.61
237.475	45.74
237.692	27.31
237.909	-19.8
238.127	-38.23
238.344	45.74
238.562	2.73
238.779	15.02
238.996	-11.61
239.214	-9.56
239.431	109.23
239.648	17.07
239.865	62.12
240.083	39.59
240.3	29.35
240.517	29.35
240.735	51.88
240.952	96.94
241.169	33.45
241.386	101.03
241.603	15.02
241.821	8.87
242.038	53.93
242.255	58.03
242.472	64.17
242.689	19.11
242.907	31.4
243.124	-1.37
243.341	2.73
243.558	27.31
243.775	49.83
243.992	-11.61
244.209	-9.56
244.426	39.59
244.643	70.31
244.86	96.94
245.078	92.84
245.295	12.97
245.512	39.59
245.729	-79.19
245.946	53.93
246.163	103.08
246.38	84.65
246.597	27.31
246.814	15.02
247.031	21.16
247.248	39.59
247.464	64.17
247.681	82.6
247.898	60.07
248.115	-13.65
248.332	29.35
248.549	74.41
248.766	66.22
248.983	47.79
249.2	35.5
249.417	80.55
249.633	10.92
249.85	39.59
250.067	-9.56
250.284	37.55
250.501	-5.46
250.717	4.78
250.934	43.69
251.151	-66.9
251.368	-66.9
251.585	68.27
251.801	-19.8
252.018	62.12
252.235	105.13
252.451	-36.18
252.668	-25.94
252.885	76.46
253.102	2.73
253.318	74.41
253.535	58.03
253.752	19.11
253.968	70.31
254.185	70.31
254.401	49.83
254.618	12.97
254.835	19.11
255.051	70.31
255.268	-11.61
255.484	64.17
255.701	-9.56
255.917	43.69
256.134	23.21
256.351	70.31
256.567	29.35
256.784	60.07
257	0.68
257.217	47.79
257.433	35.5
257.65	74.41
257.866	96.94
258.082	23.21
258.299	60.07
258.515	74.41
258.732	-23.89
258.948	27.31
259.165	43.69
259.381	49.83
259.597	64.17
259.814	12.97
260.03	80.55
260.246	-40.28
260.463	21.16
260.679	66.22
260.895	80.55
261.112	19.11
261.328	35.5
261.544	-27.99
261.761	88.75
261.977	47.79
262.193	47.79
262.409	96.94
262.626	8.87
262.842	-19.8
263.058	10.92
263.274	19.11
263.49	31.4
263.707	10.92
263.923	55.98
264.139	23.21
264.355	94.89
264.571	27.31
264.787	4.78
265.004	47.79
265.22	-7.51
265.436	129.7
265.652	-7.51
265.868	10.92
266.084	2.73
266.3	6.83
266.516	-17.75
266.732	72.36
266.948	27.31
267.164	60.07
267.38	19.11
267.596	-21.85
267.812	131.75
268.028	-15.7
268.244	49.83
268.46	0.68
268.676	25.26
268.892	17.07
269.108	10.92
269.324	15.02
269.54	-1.37
269.756	-15.7
269.972	-3.41
270.188	-93.52
270.403	29.35
270.619	19.11
270.835	84.65
271.051	74.41
271.267	64.17
271.483	60.07
271.698	21.16
271.914	6.83
272.13	86.7
272.346	-13.65
272.562	-42.32
272.777	12.97
272.993	-13.65
273.209	-11.61
273.425	51.88
273.64	-56.66
273.856	51.88
274.072	62.12
274.287	-27.99
274.503	64.17
274.719	29.35
274.934	0.68
275.15	10.92
275.366	-13.65
275.581	-1.37
275.797	45.74
276.012	27.31
276.228	-3.41
276.444	23.21
276.659	125.61
276.875	15.02
277.09	105.13
277.306	23.21
277.521	33.45
277.737	-9.56
277.952	49.83
278.168	35.5
278.383	41.64
278.599	0.68
278.814	39.59
279.03	23.21
279.245	68.27
279.461	62.12
279.676	41.64
279.892	-9.56
280.107	35.5
280.322	23.21
280.538	10.92
280.753	6.83
280.969	29.35
281.184	47.79
281.399	76.46
281.615	58.03
281.83	31.4
282.045	49.83
282.26	23.21
282.476	45.74
282.691	62.12
282.906	-13.65
283.122	101.03
283.337	55.98
283.552	-13.65
283.767	25.26
283.983	29.35
284.198	70.31
284.413	60.07
284.628	66.22
284.843	41.64
285.058	39.59
285.274	-5.46
285.489	-44.37
285.704	109.23
285.919	-25.94
286.134	41.64
286.349	10.92
286.564	55.98
286.779	74.41
286.995	21.16
287.21	21.16
287.425	41.64
287.64	29.35
287.855	27.31
288.07	43.69
288.285	51.88
288.5	49.83
288.715	64.17
288.93	-7.51
289.145	-40.28
289.36	17.07
289.575	-9.56
289.79	33.45
290.004	53.93
290.219	137.9
290.434	-42.32
290.649	21.16
290.864	23.21
291.079	-13.65
291.294	21.16
291.509	41.64
291.724	0.68
291.938	4.78
292.153	10.92
292.368	-40.28
292.583	15.02
292.798	15.02
293.012	70.31
293.227	-7.51
293.442	76.46
293.657	-13.65
293.871	58.03
294.086	6.83
294.301	123.56
294.516	0.68
294.73	53.93
294.945	-30.04
295.16	31.4
295.374	43.69
295.589	88.75
295.804	31.4
296.018	41.64
296.233	27.31
296.447	2.73
296.662	47.79
296.877	23.21
297.091	23.21
297.306	29.35
297.52	55.98
297.735	-38.23
297.949	25.26
298.164	2.73
298.378	39.59
298.593	-23.89
298.807	37.55
299.022	-19.8
299.236	21.16
299.451	49.83
299.665	51.88
299.88	35.5
300.094	78.51
300.309	84.65
300.523	37.55
300.737	66.22
300.952	92.84
301.166	35.5
301.381	-7.51
301.595	25.26
301.809	-27.99
302.024	15.02
302.238	45.74
302.452	72.36
302.667	10.92
302.881	72.36
303.095	4.78
303.309	21.16
303.524	-46.42
303.738	10.92
303.952	60.07
304.166	76.46
304.381	29.35
304.595	25.26
304.809	47.79
305.023	88.75
305.237	27.31
305.452	64.17
305.666	21.16
305.88	41.64
306.094	31.4
306.308	80.55
306.522	37.55
306.736	39.59
306.95	23.21
307.164	15.02
307.379	49.83
307.593	72.36
307.807	60.07
308.021	109.23
308.235	72.36
308.449	15.02
308.663	39.59
308.877	72.36
309.091	45.74
309.305	23.21
309.519	-44.37
309.733	31.4
309.947	10.92
310.161	23.21
310.374	103.08
310.588	12.97
310.802	53.93
311.016	-46.42
311.23	47.79
311.444	19.11
311.658	74.41
311.872	37.55
312.085	17.07
312.299	51.88
312.513	58.03
312.727	82.6
312.941	-9.56
313.154	66.22
313.368	10.92
313.582	55.98
313.796	43.69
314.009	35.5
314.223	58.03
314.437	-3.41
314.651	-25.94
314.864	-21.85
315.078	-58.71
315.292	-25.94
315.505	-11.61
315.719	23.21
315.933	31.4
316.146	-36.18
316.36	25.26
316.573	82.6
316.787	82.6
317.001	66.22
317.214	-60.76
317.428	90.79
317.641	29.35
317.855	-9.56
318.068	62.12
318.282	-21.85
318.495	123.56
318.709	121.51
318.922	4.78
319.136	88.75
319.349	-19.8
319.563	-77.14
319.776	64.17
319.99	15.02
320.203	146.09
320.417	60.07
320.63	31.4
320.843	92.84
321.057	29.35
321.27	74.41
321.483	15.02
321.697	37.55
321.91	70.31
322.124	74.41
322.337	-25.94
322.55	4.78
322.763	37.55
322.977	-34.13
323.19	33.45
323.403	55.98
323.617	23.21
323.83	10.92
324.043	-21.85
324.256	-7.51
324.469	-1.37
324.683	10.92
324.896	27.31
325.109	72.36
325.322	31.4
325.535	27.31
325.748	23.21
325.962	51.88
326.175	12.97
326.388	62.12
326.601	66.22
326.814	74.41
327.027	10.92
327.24	53.93
327.453	31.4
327.666	43.69
327.879	74.41
328.092	0.68
328.305	53.93
328.518	43.69
328.731	10.92
328.944	41.64
329.157	49.83
329.37	23.21
329.583	80.55
329.796	47.79
330.009	23.21
330.222	43.69
330.435	80.55
330.648	-58.71
330.861	-11.61
331.073	41.64
331.286	-9.56
331.499	15.02
331.712	-15.7
331.925	96.94
332.138	43.69
332.35	98.99
332.563	-5.46
332.776	43.69
332.989	-19.8
333.202	-21.85
333.414	78.51
333.627	-19.8
333.84	35.5
334.053	25.26
334.265	135.85
334.478	-7.51
334.691	27.31
334.903	58.03
335.116	0.68
335.329	25.26
335.541	8.87
335.754	72.36
335.966	4.78
336.179	-9.56
336.392	35.5
336.604	33.45
336.817	-3.41
337.029	45.74
337.242	-3.41
337.454	15.02
337.667	51.88
337.88	-11.61
338.092	64.17
338.305	41.64
338.517	19.11
338.729	15.02
338.942	23.21
339.154	68.27
339.367	23.21
339.579	-58.71
339.792	70.31
340.004	47.79
340.217	96.94
340.429	-19.8
340.641	55.98
340.854	10.92
341.066	45.74
341.278	45.74
341.491	125.61
341.703	72.36
341.915	-5.46
342.128	43.69
342.34	70.31
342.552	-11.61
342.764	45.74
342.977	-75.09
343.189	76.46
343.401	-7.51
343.613	53.93
343.826	107.18
344.038	27.31
344.25	117.42
344.462	33.45
344.674	-7.51
344.886	6.83
345.099	-17.75
345.311	-1.37
345.523	-3.41
345.735	51.88
345.947	-32.08
346.159	15.02
346.371	68.27
346.583	0.68
346.795	86.7
347.007	78.51
347.219	58.03
347.431	105.13
347.643	121.51
347.855	27.31
348.067	27.31
348.279	25.26
348.491	51.88
348.703	6.83
348.915	-5.46
349.127	0.68
349.339	55.98
349.551	0.68
349.763	41.64
349.975	15.02
350.187	80.55
350.399	88.75
350.61	80.55
350.822	23.21
351.034	84.65
351.246	47.79
351.458	62.12
351.669	21.16
351.881	27.31
352.093	47.79
352.305	113.32
352.517	41.64
352.728	64.17
352.94	51.88
353.152	27.31
353.363	51.88
353.575	8.87
353.787	31.4
353.999	-5.46
354.21	60.07
354.422	29.35
354.633	-66.9
354.845	-7.51
355.057	47.79
355.268	33.45
355.48	49.83
355.692	15.02
355.903	-13.65
356.115	4.78
356.326	19.11
356.538	64.17
356.749	-48.47
356.961	43.69
357.172	62.12
357.384	72.36
357.595	109.23
357.807	39.59
358.018	76.46
358.23	154.28
358.441	119.46
358.653	125.61
358.864	51.88
359.075	2.73
359.287	70.31
359.498	119.46
359.709	23.21
359.921	-32.08
360.132	49.83
360.344	51.88
360.555	6.83
360.766	86.7
360.977	-7.51
361.189	88.75
361.4	60.07
361.611	148.14
361.823	72.36
362.034	55.98
362.245	37.55
362.456	-25.94
362.667	53.93
362.879	62.12
363.09	94.89
363.301	146.09
363.512	15.02
363.723	-5.46
363.935	-48.47
364.146	178.86
364.357	-1.37
364.568	84.65
364.779	-13.65
364.99	92.84
365.201	72.36
365.412	23.21
365.623	-42.32
365.834	60.07
366.045	101.03
366.256	105.13
366.467	39.59
366.678	39.59
366.889	146.09
367.1	62.12
367.311	84.65
367.522	21.16
367.733	148.14
367.944	-1.37
368.155	68.27
368.366	51.88
368.577	92.84
368.788	19.11
368.999	21.16
369.209	88.75
369.42	113.32
369.631	-5.46
369.842	47.79
370.053	-7.51
370.264	70.31
370.474	17.07
370.685	70.31
370.896	55.98
371.107	43.69
371.317	92.84
371.528	72.36
371.739	92.84
371.95	2.73
372.16	53.93
372.371	-66.9
372.582	70.31
372.792	37.55
373.003	84.65
373.214	39.59
373.424	92.84
373.635	62.12
373.846	125.61
374.056	84.65
374.267	41.64
374.477	35.5
374.688	2.73
374.898	35.5
375.109	-5.46
375.319	62.12
375.53	78.51
375.74	45.74
375.951	53.93
376.161	33.45
376.372	94.89
376.582	10.92
376.793	58.03
377.003	66.22
377.214	94.89
377.424	82.6
377.635	15.02
377.845	117.42
378.055	43.69
378.266	27.31
378.476	-9.56
378.686	-32.08
378.897	64.17
379.107	101.03
379.317	41.64
379.528	111.27
379.738	-32.08
379.948	35.5
380.158	64.17
380.369	0.68
380.579	-23.89
380.789	84.65
380.999	47.79
381.21	64.17
381.42	68.27
381.63	45.74
381.84	23.21
382.05	53.93
382.261	86.7
382.471	60.07
382.681	31.4
382.891	41.64
383.101	45.74
383.311	53.93
383.521	68.27
383.731	82.6
383.941	62.12
384.151	82.6
384.361	84.65
384.571	41.64
384.781	84.65
384.991	125.61
385.201	119.46
385.411	60.07
385.621	76.46
385.831	80.55
386.041	78.51
386.251	111.27
386.461	45.74
386.671	49.83
386.881	70.31
387.091	68.27
387.301	10.92
387.511	31.4
387.72	76.46
387.93	62.12
388.14	43.69
388.35	25.26
388.56	109.23
388.769	43.69
388.979	98.99
389.189	92.84
389.399	133.8
389.609	86.7
389.818	139.94
390.028	27.31
390.238	39.59
390.447	27.31
390.657	123.56
390.867	49.83
391.076	90.79
391.286	78.51
391.496	37.55
391.705	15.02
391.915	158.38
392.125	166.57
392.334	101.03
392.544	72.36
392.753	-21.85
392.963	31.4
393.172	105.13
393.382	105.13
393.591	113.32
393.801	86.7
394.01	51.88
394.22	150.18
394.429	37.55
394.639	146.09
394.848	64.17
395.058	182.95
395.267	62.12
395.477	105.13
395.686	119.46
395.895	113.32
396.105	119.46
396.314	139.94
396.524	103.08
396.733	80.55
396.942	174.76
397.152	172.71
397.361	107.18
397.57	76.46
397.78	141.99
397.989	109.23
398.198	193.19
398.407	43.69
398.617	103.08
398.826	45.74
399.035	154.28
399.244	160.42
399.453	105.13
399.663	176.81
399.872	80.55
400.081	133.8
400.29	119.46
400.499	103.08
400.708	148.14
400.917	156.33
401.127	92.84
401.336	117.42
401.545	107.18
401.754	111.27
401.963	197.29
402.172	187.05
402.381	121.51
402.59	141.99
402.799	176.81
403.008	158.38
403.217	133.8
403.426	160.42
403.635	137.9
403.844	135.85
404.053	174.76
404.262	139.94
404.471	137.9
404.68	158.38
404.888	166.57
405.097	176.81
405.306	146.09
405.515	180.9
405.724	209.58
405.933	244.39
406.142	189.1
406.35	293.54
406.559	176.81
406.768	213.67
406.977	295.59
407.185	152.23
407.394	293.54
407.603	209.58
407.812	238.25
408.02	273.06
408.229	289.45
408.438	301.73
408.646	187.05
408.855	354.98
409.064	303.78
409.272	365.22
409.481	410.28
409.69	346.79
409.898	309.93
410.107	414.37
410.315	455.33
410.524	361.13
410.733	381.6
410.941	369.32
411.15	420.52
411.358	545.44
411.567	531.11
411.775	463.52
411.984	518.82
412.192	492.2
412.401	516.77
412.609	545.44
412.818	623.27
413.026	578.21
413.234	684.7
413.443	658.08
413.651	715.42
413.86	662.18
414.068	785.05
414.276	793.25
414.485	768.67
414.693	793.25
414.901	864.93
415.11	891.55
415.318	846.49
415.526	946.84
415.734	1088.15
415.943	924.32
416.151	1018.52
416.359	1039
416.567	1088.15
416.776	1208.98
416.984	1170.07
417.192	1329.81
417.4	1251.99
417.608	1202.84
417.817	1276.57
418.025	1407.64
418.233	1475.22
418.441	1581.71
418.649	1448.6
418.857	1604.24
419.065	1620.63
419.273	1747.6
419.481	1690.26
419.689	1854.09
419.897	1811.09
420.105	1972.88
420.313	1907.34
420.521	2105.99
420.729	2062.99
420.937	2101.9
421.145	2245.26
421.353	2329.22
421.561	2407.05
421.769	2501.25
421.977	2572.93
422.185	2519.68
422.393	2841.22
422.601	2998.91
422.809	3037.82
423.017	2904.7
423.224	3181.18
423.432	3179.13
423.64	3181.18
423.848	3365.5
424.056	3420.79
424.263	3684.98
424.471	3697.27
424.679	3854.96
424.887	4110.96
425.094	4084.33
425.302	4049.52
425.51	4252.27
425.718	4360.81
425.925	4430.44
426.133	4557.41
426.341	4954.72
426.548	5196.38
426.756	4952.67
426.964	5106.27
427.171	5571.16
427.379	5616.21
427.586	5732.95
427.794	5855.83
428.001	6115.92
428.209	6378.06
428.417	6210.12
428.624	6816.32
428.832	6795.84
429.039	6623.81
429.247	6918.72
429.454	7367.23
429.662	7846.45
429.869	7395.9
430.076	7832.12
430.284	7543.35
430.491	7946.8
430.699	8460.84
430.906	8436.27
431.114	8364.59
431.321	8823.33
431.528	8925.73
431.736	9519.64
431.943	10064.4
432.15	9646.62
432.358	9861.65
432.565	10435.08
432.772	10365.45
432.979	11008.51
433.187	10979.84
433.394	11135.49
433.601	11887.09
433.808	12065.27
434.016	11665.91
434.223	12444.14
434.43	13062.63
434.637	12583.4
434.844	13597.15
435.052	13959.64
435.259	13599.2
435.466	13918.68
435.673	14057.94
435.88	14731.72
436.087	15548.86
436.294	15491.52
436.501	14961.09
436.708	15446.46
436.915	16030.13
437.122	16931.24
437.329	16581.04
437.537	16978.34
437.743	17248.68
437.95	17582.49
438.157	18168.21
438.364	18753.93
438.571	18563.47
438.778	18768.27
438.985	20781.42
439.192	19835.26
439.399	20244.85
439.606	20150.65
439.813	21137.77
440.02	22374.74
440.227	21879.13
440.433	21774.69
440.64	22471
440.847	22485.33
441.054	23140.68
441.261	24271.16
441.467	24107.32
441.674	24764.72
441.881	25545
442.088	25510.18
442.294	25200.94
442.501	26011.93
442.708	26192.15
442.914	27683.08
443.121	28588.28
443.328	27721.99
443.534	29786.34
443.741	29016.3
443.948	28774.64
444.154	30761.17
444.361	30279.9
444.568	30914.77
444.774	30439.64
444.981	31074.51
445.187	31877.32
445.394	33198.26
445.6	32882.87
445.807	36155.52
446.013	34205.86
446.22	34891.93
446.426	36329.6
446.633	36515.97
446.839	37804.14
447.046	36206.72
447.252	38334.56
447.459	38281.31
447.665	38334.56
447.871	39706.7
448.078	41594.93
448.284	39692.36
448.491	40460.35
448.697	42127.4
448.903	42952.73
449.11	42719.26
449.316	42111.02
449.522	42614.82
449.728	44240.9
449.935	44351.49
450.141	44781.57
450.347	44980.22
450.553	43403.28
450.76	44480.52
450.966	45647.86
451.172	45221.88
451.378	45969.39
451.584	45271.03
451.791	46311.4
451.997	46198.76
452.203	47411.16
452.409	46845.92
452.615	46981.09
452.821	44886.01
453.027	44449.8
453.233	46981.09
453.44	44421.12
453.646	44865.53
453.852	45510.64
454.058	45983.72
454.264	44507.14
454.47	45334.52
454.676	44687.36
454.882	45697.01
455.088	42160.17
455.294	42209.32
455.5	42731.55
455.705	43806.73
455.911	41734.19
456.117	40753.21
456.323	40468.55
456.529	37855.34
456.735	39891.02
456.941	38807.64
457.147	38244.45
457.352	37060.73
457.558	35907.72
457.764	36438.14
457.97	35852.42
458.176	34969.75
458.381	34986.13
458.587	33093.81
458.793	33095.86
458.999	31295.69
459.204	33714.34
459.41	33226.93
459.616	30488.79
459.821	30845.14
460.027	30888.15
460.233	29913.31
460.438	28608.76
460.644	29018.35
460.85	27654.4
461.055	27150.6
461.261	27064.59
461.466	25102.64
461.672	24318.26
461.878	25936.16
462.083	24379.7
462.289	24072.51
462.494	23710.02
462.7	22643.03
462.905	22057.31
463.111	22864.21
463.316	23124.3
463.522	22735.18
463.727	22612.31
463.932	22569.3
464.138	22083.93
464.343	22399.32
464.549	21647.71
464.754	22157.66
464.959	22217.05
465.165	21856.61
465.37	21281.13
465.575	20769.13
465.781	21408.1
465.986	21676.38
466.191	20900.2
466.397	20283.77
466.602	19470.72
466.807	20351.35
467.012	19976.57
467.218	20074.87
467.423	19843.45
467.628	19792.25
467.833	20734.32
468.038	20001.15
468.244	19259.78
468.449	20371.83
468.654	19485.06
468.859	19415.43
469.064	19214.73
469.269	18243.99
469.474	18704.78
469.679	19108.23
469.885	18491.79
470.09	18778.51
470.295	18520.46
470.5	18078.1
470.705	18323.86
470.91	17965.46
471.115	17637.79
471.32	18121.11
471.525	17521.06
471.73	17396.13
471.935	17365.41
472.139	16671.15
472.344	16898.47
472.549	16923.05
472.754	16710.06
472.959	16277.94
473.164	15911.35
473.369	15966.65
473.574	16314.8
473.778	16052.66
473.983	16079.29
474.188	15933.88
474.393	15075.78
474.598	15493.57
474.802	14926.28
475.007	15151.56
475.212	14957
475.417	14350.8
475.621	14391.76
475.826	14381.52
476.031	14160.34
476.235	13982.17
476.44	14408.14
476.645	13803.99
476.849	13879.77
477.054	13742.55
477.259	13566.43
477.463	13554.14
477.668	13165.03
477.872	13548
478.077	13122.02
478.282	12722.66
478.486	12759.53
478.691	12724.71
478.895	12567.02
479.1	12677.61
479.304	12683.75
479.509	12407.28
479.713	12521.96
479.918	12284.4
480.122	12159.47
480.326	12364.27
480.531	12337.65
480.735	12204.53
480.94	12018.16
481.144	12227.06
481.348	11682.3
481.553	11885.05
481.757	11686.39
481.961	11878.9
482.166	11907.57
482.37	11928.05
482.574	11794.93
482.778	11657.72
482.983	12022.26
483.187	11930.1
483.391	11575.8
483.595	11756.02
483.8	11667.96
484.004	11788.79
484.208	12018.16
484.412	11762.17
484.616	11641.34
484.821	11672.06
485.025	11508.22
485.229	11852.28
485.433	11782.65
485.637	11928.05
485.841	11497.98
486.045	11682.3
486.249	11710.97
486.453	11817.46
486.657	11751.93
486.861	11909.62
487.065	11581.95
487.269	11858.42
487.473	11557.37
487.677	11596.28
487.881	11923.96
488.085	11745.78
488.289	11883
488.493	11739.64
488.697	11932.15
488.901	11799.03
489.105	11688.44
489.309	11950.58
489.512	11973.11
489.716	11725.3
489.92	11885.05
490.124	11907.57
490.328	12190.19
490.531	12073.46
490.735	12268.02
490.939	12237.3
491.143	12278.26
491.346	12059.12
491.55	12431.85
491.754	12349.93
491.958	12478.96
492.161	12382.7
492.365	12583.4
492.569	12368.37
492.772	12513.77
492.976	12679.66
493.18	12667.37
493.383	12765.67
493.587	12880.36
493.79	12927.46
493.994	12814.82
494.197	13111.78
494.401	13152.74
494.605	13261.28
494.808	13535.71
495.012	13400.54
495.215	13441.5
495.419	13625.82
495.622	13771.22
495.825	13832.66
496.029	13928.92
496.232	14555.6
496.436	14051.8
496.639	14711.24
496.843	14520.78
497.046	14563.79
497.249	14983.62
497.453	15000.01
497.656	15061.44
497.859	15112.64
498.063	15595.96
498.266	15565.25
498.469	15499.71
498.673	15925.69
498.876	15876.54
499.079	15987.13
499.282	16218.55
499.485	16605.61
499.689	16753.07
499.892	16888.23
500.095	16744.88
500.298	17076.65
500.501	17088.93
500.705	17783.2
500.908	17699.23
501.111	17918.36
501.314	18145.69
501.517	18375.06
501.72	18551.18
501.923	18463.12
502.126	18811.28
502.329	19317.12
502.532	19353.99
502.735	19282.31
502.938	19671.42
503.141	19736.96
503.344	20150.65
503.547	20511.09
503.75	20539.76
503.953	20971.88
504.156	21047.66
504.359	21467.49
504.562	21178.73
504.765	21834.08
504.968	22126.94
505.17	22309.21
505.373	22323.54
505.576	22763.86
505.779	22780.24
505.982	23048.52
506.185	23394.63
506.387	23589.19
506.59	23769.41
506.793	24189.24
506.996	24187.19
507.198	24781.1
507.401	24629.55
507.604	25010.48
507.807	25442.6
508.009	25555.24
508.212	25633.06
508.415	26046.75
508.617	26691.86
508.82	26583.32
509.022	26423.58
509.225	27210
509.428	27633.92
509.63	27390.22
509.833	27664.64
510.035	28123.39
510.238	28297.47
510.44	28803.32
510.643	29040.88
510.845	29448.43
511.048	29292.78
511.25	29741.28
511.453	29931.75
511.655	31062.22
511.858	30654.68
512.06	30386.39
512.262	31097.04
512.465	31287.5
512.667	31510.73
512.87	32354.49
513.072	32010.43
513.274	32934.07
513.477	33228.98
513.679	33349.81
513.881	33607.85
514.084	34107.55
514.286	34097.31
514.488	34218.14
514.69	35092.63
514.893	35420.3
515.095	35311.76
515.297	35635.34
515.499	35901.57
515.701	36204.67
515.904	36921.46
516.106	37003.38
516.308	37433.46
516.51	38125.67
516.712	37881.96
516.914	38271.07
517.116	38838.36
517.318	38725.72
517.52	39426.13
517.722	39481.42
517.925	39764.04
518.127	40230.98
518.329	40493.12
518.531	40312.9
518.733	41017.4
518.935	41306.16
519.136	41680.94
519.338	42272.81
519.54	42016.81
519.742	42842.14
519.944	43038.75
520.146	43765.77
520.348	44091.4
520.55	44019.72
520.752	43821.07
520.954	44556.29
521.155	44593.15
521.357	45305.85
521.559	45432.82
521.761	45787.12
521.963	46495.72
522.164	46383.08
522.366	46778.34
522.568	47210.46
522.77	47329.24
522.971	47556.56
523.173	47409.11
523.375	48267.21
523.576	47980.49
523.778	48191.44
523.98	48854.98
524.181	49162.17
524.383	48926.66
524.584	49694.64
524.786	49774.52
524.988	49573.81
525.189	50454.44
525.391	50603.94
525.592	50620.33
525.794	50982.82
525.995	51021.73
526.197	50853.79
526.398	51199.9
526.6	51759
526.801	51513.24
527.003	52383.63
527.204	52260.75
527.406	52928.39
527.607	52574.09
527.808	52813.7
528.01	52207.5
528.211	53002.11
528.412	53548.92
528.614	53483.39
528.815	53419.9
529.016	54095.73
529.218	53516.15
529.419	53696.38
529.62	53868.4
529.822	54036.34
530.023	54165.36
530.224	54194.03
530.425	53825.4
530.626	54142.83
530.828	53927.8
531.029	54880.1
531.23	54650.73
531.431	54237.04
531.632	54677.35
531.833	54714.22
532.035	54943.59
532.236	55017.32
532.437	55168.86
532.638	55009.12
532.839	54980.45
533.04	55357.28
533.241	54769.51
533.442	55723.86
533.643	55172.96
533.844	55398.24
534.045	55525.21
534.246	54706.02
534.447	55543.64
534.648	55396.19
534.849	55607.13
535.05	54986.6
535.251	55334.75
535.451	55347.04
535.652	55488.35
535.853	55445.34
536.054	55658.33
536.255	55988.05
536.456	55365.47
536.657	55539.55
536.857	55353.18
537.058	55596.89
537.259	55799.64
537.46	56020.82
537.66	55783.26
537.861	55523.16
538.062	55543.64
538.263	55947.09
538.463	55410.53
538.664	55334.75
538.865	55521.12
539.065	55627.61
539.266	55193.44
539.466	56037.2
539.667	55033.7
539.868	56029.01
540.068	55271.26
540.269	55340.89
540.469	55811.93
540.67	55385.95
540.87	55676.76
541.071	55297.89
541.271	55365.47
541.472	55445.34
541.672	55424.86
541.873	55551.83
542.073	54771.56
542.274	55586.65
542.474	55529.31
542.675	55201.63
542.875	55580.51
543.075	55846.74
543.276	54837.09
543.476	55482.2
543.676	55332.7
543.877	55494.49
544.077	55383.9
544.277	55027.55
544.478	55607.13
544.678	55199.58
544.878	55052.13
545.078	55293.79
545.279	54980.45
545.479	55076.71
545.679	54984.55
545.879	55412.57
546.079	54935.4
546.28	55115.62
546.48	54591.34
546.68	55465.82
546.88	55435.1
547.08	54898.53
547.28	55109.47
547.48	54519.66
547.68	55183.2
547.88	55086.95
548.081	55056.23
548.281	55242.59
548.481	54708.07
548.681	55125.86
548.881	55295.84
549.081	55039.84
549.28	54681.45
549.48	55066.47
549.68	54978.4
549.88	55367.52
550.08	54538.09
550.28	55117.67
550.48	54732.65
550.68	55023.46
550.88	54681.45
551.08	54927.2
551.279	55463.77
551.479	54316.91
551.679	54898.53
551.879	54820.71
552.079	54640.49
552.278	54558.57
552.478	54552.43
552.678	54556.52
552.878	55187.3
553.077	54962.02
553.277	53962.61
553.477	54968.16
553.676	54308.72
553.876	53956.47
554.076	54022
554.275	54343.53
554.475	53907.32
554.674	54703.98
554.874	54544.23
555.074	54071.15
555.273	54660.97
555.473	54470.51
555.672	53976.95
555.872	54202.22
556.071	54099.83
556.271	54308.72
556.47	54282.09
556.67	53737.33
556.869	53892.98
557.068	54032.24
557.268	53534.59
557.467	53788.53
557.667	53583.74
557.866	53477.24
558.065	53538.68
558.265	53387.13
558.464	53378.94
558.663	53895.03
558.863	53002.11
559.062	54003.57
559.261	52846.47
559.461	53133.18
559.66	52924.29
559.859	53006.21
560.058	52725.64
560.258	52981.63
560.457	52389.77
560.656	52918.15
560.855	52141.97
561.054	52817.8
561.253	52567.94
561.453	52664.2
561.652	52789.13
561.851	52823.94
562.05	52000.66
562.249	51826.58
562.448	52561.8
562.647	51996.56
562.846	52283.28
563.045	52158.35
563.244	51724.18
563.443	51904.4
563.642	51527.58
563.841	52379.53
564.04	51521.43
564.239	51908.5
564.438	51031.97
564.637	51466.14
564.836	51709.85
565.035	50847.65
565.234	51105.69
565.432	50384.81
565.631	50511.78
565.83	50986.91
566.029	50716.58
566.228	50524.07
566.427	50360.23
566.625	50364.33
566.824	49715.12
567.023	50360.23
567.222	49463.22
567.42	50235.31
567.619	50020.27
567.818	49909.68
568.016	49586.1
568.215	50235.31
568.414	49528.76
568.612	49817.52
568.811	49045.44
569.01	49344.44
569.208	48670.66
569.407	49405.88
569.605	48721.86
569.804	49274.81
570.002	48429
570.201	48797.63
570.4	48308.17
570.598	48596.93
570.797	48259.02
570.995	48351.18
571.193	47886.29
571.392	48373.7
571.59	47646.68
571.789	47849.42
571.987	47415.26
572.186	47693.78
572.384	47349.72
572.582	47591.38
572.781	47542.23
572.979	46735.33
573.177	46976.99
573.376	47015.9
573.574	46551.01
573.772	46968.8
573.971	46419.94
574.169	46374.89
574.367	46407.65
574.565	46614.5
574.763	46350.31
574.962	45809.65
575.16	45539.32
575.358	45932.53
575.556	45377.53
575.754	46350.31
575.952	45225.98
576.151	45694.96
576.349	44806.14
576.547	45518.84
576.745	45088.76
576.943	44945.4
577.141	44965.88
577.339	45053.95
577.537	44505.09
577.735	44558.34
577.933	44451.84
578.131	44820.48
578.329	43810.83
578.527	43567.12
578.725	44146.7
578.923	44109.83
579.121	43909.13
579.319	43763.73
579.516	43911.18
579.714	43749.39
579.912	43558.93
580.11	43304.98
580.308	43317.27
580.506	43151.38
580.704	42076.2
580.901	43237.4
581.099	43208.73
581.297	42422.31
581.495	42610.72
581.692	42946.59
581.89	41842.73
582.088	42657.82
582.285	42246.18
582.483	42651.68
582.681	42496.03
582.878	41752.62
583.076	41330.74
583.274	42354.72
583.471	41332.79
583.669	41560.11
583.866	40874.04
584.064	41521.2
584.262	41084.98
584.459	41400.37
584.657	40853.56
584.854	41148.47
585.052	40534.08
585.249	41095.22
585.447	40865.85
585.644	40073.29
585.841	40034.38
586.039	40689.73
586.236	39800.91
586.434	40112.2
586.631	39723.08
586.828	39725.13
587.026	39796.81
587.223	39458.9
587.42	39170.13
587.618	39565.39
587.815	38983.77
588.012	39157.85
588.21	38762.59
588.407	39178.32
588.604	38776.92
588.801	38688.86
588.999	38398.05
589.196	38600.8
589.393	38637.66
589.59	38219.88
589.787	38266.98
589.984	37834.86
590.182	38019.17
590.379	38123.62
590.576	37585.01
590.773	38154.34
590.97	37312.63
591.167	37720.17
591.364	37163.12
591.561	37312.63
591.758	36751.48
591.955	36810.87
592.152	37202.03
592.349	36673.66
592.546	36903.03
592.743	37009.53
592.94	36089.99
593.137	36753.53
593.334	36929.66
593.531	36395.14
593.727	36233.35
593.924	36237.44
594.121	35717.26
594.318	36294.78
594.515	35352.72
594.712	35885.19
594.908	35518.6
595.105	35440.78
595.302	35113.11
595.499	35190.93
595.696	35059.86
595.892	34789.53
596.089	35221.65
596.286	35156.11
596.482	34744.47
596.679	34523.29
596.876	34562.2
597.072	34394.27
597.269	34420.89
597.466	34259.1
597.662	33904.81
597.859	34314.4
598.055	34250.91
598.252	33788.07
598.448	33933.48
598.645	33869.99
598.841	33613.99
599.038	33427.63
599.234	33521.84
599.431	33036.47
599.627	33046.71
599.824	33216.69
600.02	32567.48
600.217	32923.83
600.413	32655.54
600.609	32547
600.806	32747.7
601.002	32751.8
601.198	32125.12
601.395	32303.29
601.591	32194.75
601.787	32342.21
601.984	31926.47
602.18	32407.74
602.376	31846.6
602.572	31736.01
602.769	31555.79
602.965	31559.88
603.161	31611.08
603.357	31168.72
603.553	30982.35
603.75	31293.65
603.946	31164.62
604.142	31226.06
604.338	30656.73
604.534	31142.1
604.73	30808.28
604.926	30271.71
605.122	30443.74
605.318	30228.7
605.514	30343.39
605.71	30095.58
605.906	30036.19
606.102	30038.24
606.298	30013.66
606.494	29602.02
606.69	29954.27
606.886	29808.87
607.082	29348.07
607.278	29825.25
607.474	29397.23
607.67	29649.13
607.866	29067.5
608.062	29618.41
608.257	29110.51
608.453	29202.67
608.649	29245.68
608.845	29071.6
609.041	29184.24
609.236	29038.83
609.432	28831.99
609.628	29116.65
609.824	28686.58
610.019	28352.76
610.215	28592.37
610.411	28414.2
610.606	28092.67
610.802	28266.75
610.998	28377.34
611.193	28590.33
611.389	28102.91
611.584	28156.16
611.78	27947.26
611.976	28139.77
612.171	28002.56
612.367	28289.27
612.562	27937.02
612.758	27812.1
612.953	27250.95
613.149	27744.52
613.344	27427.08
613.539	28213.5
613.735	27783.43
613.93	27562.25
614.126	27519.24
614.321	27644.16
614.517	27293.96
614.712	27328.78
614.907	26867.98
615.103	27183.37
615.298	27126.03
615.493	27496.71
615.688	26673.43
615.884	27015.44
616.079	26603.8
616.274	26949.9
616.47	26609.94
616.665	26667.28
616.86	26693.91
617.055	26405.14
617.25	26630.42
617.445	26757.39
617.641	26226.97
617.836	26235.16
618.031	26171.68
618.226	26208.54
618.421	26128.67
618.616	26218.78
618.811	25446.69
619.006	26224.92
619.201	25336.1
619.396	25704.74
619.591	25360.68
619.786	25686.31
619.981	25364.78
620.176	25399.59
620.371	24641.84
620.566	25313.58
620.761	25037.1
620.956	24926.51
621.151	24420.66
621.346	24695.09
621.541	24445.24
621.735	24627.51
621.93	24174.91
622.125	24205.63
622.32	23814.46
622.515	24322.36
622.709	23527.75
622.904	23531.84
623.099	23533.89
623.294	23451.97
623.488	23126.35
623.683	23257.42
623.878	23048.52
624.072	22982.99
624.267	23097.67
624.462	22935.88
624.656	22393.17
624.851	22573.39
625.046	22384.98
625.24	22356.31
625.435	22233.43
625.629	22215
625.824	21756.25
626.018	21840.22
626.213	21410.15
626.407	21651.81
626.602	21238.12
626.796	21274.98
626.991	21217.64
627.185	20892.01
627.38	21119.34
627.574	20990.31
627.768	20830.57
627.963	20668.78
628.157	20445.55
628.352	20580.72
628.546	20353.4
628.74	20248.95
628.935	20078.97
629.129	20324.72
629.323	19577.22
629.517	19636.61
629.712	19679.61
629.906	19593.6
630.1	19323.27
630.294	19431.81
630.489	19243.4
630.683	19132.81
630.877	19241.35
631.071	18850.19
631.265	18786.7
631.459	18665.87
631.653	18737.55
631.848	18684.3
632.042	18203.03
632.236	18426.26
632.43	18041.24
632.624	18248.08
632.818	18209.17
633.012	17889.69
633.206	17908.12
633.4	17965.46
633.594	17596.83
633.788	17496.48
633.982	17709.47
634.176	17551.77
634.369	17076.65
634.563	17193.38
634.757	17209.76
634.951	17334.69
635.145	17123.75
635.339	16961.96
635.533	16832.94
635.726	16912.81
635.92	16499.12
636.114	16675.24
636.308	16521.65
636.501	16527.79
636.695	16513.45
636.889	16093.62
637.083	15972.79
637.276	16124.34
637.47	15925.69
637.664	15835.58
637.857	15966.65
638.051	15796.67
638.244	15704.51
638.438	15811
638.632	15309.25
638.825	15219.14
639.019	15593.92
639.212	15327.68
639.406	15131.08
639.599	15190.47
639.793	15000.01
639.986	14805.45
640.18	14954.95
640.373	14662.09
640.567	14739.91
640.76	14627.28
640.954	14506.45
641.147	14404.05
641.34	14402
641.534	14387.66
641.727	14217.68
641.92	14309.84
642.114	13885.91
642.307	14047.7
642.5	14031.32
642.694	13525.47
642.887	13511.13
643.08	13738.46
643.273	13535.71
643.467	13548
643.66	13306.34
643.853	13363.68
644.046	13318.62
644.239	13162.98
644.432	13023.72
644.626	13185.51
644.819	12964.32
645.012	13097.44
645.205	13138.4
645.398	13019.62
645.591	12638.7
645.784	12931.56
645.977	12595.69
646.17	12597.74
646.363	12427.76
646.556	12270.06
646.749	12356.08
646.942	12394.99
647.135	12270.06
647.328	12268.02
647.521	12147.19
647.714	12118.51
647.907	12040.69
648.099	11995.64
648.292	11950.58
648.485	11893.24
648.678	11604.47
648.871	11663.86
649.064	11371.01
649.256	11373.05
649.449	11366.91
649.642	11364.86
649.835	11446.78
650.027	11350.53
650.22	11180.54
650.413	11041.28
650.605	11213.31
650.798	11082.24
650.991	11129.34
651.183	10914.31
651.376	10881.54
651.568	10764.81
651.761	10895.88
651.954	10619.4
652.146	10615.3
652.339	10793.48
652.531	10760.71
652.724	10625.54
652.916	10342.92
653.109	10385.93
653.301	10355.21
653.494	10392.08
653.686	9992.72
653.879	10230.29
654.071	9986.58
654.263	9828.88
654.456	10144.27
654.648	9970.19
654.84	9892.37
655.033	9757.21
655.225	9773.59
655.417	9691.67
655.61	9628.18
655.802	9673.24
655.994	9382.43
656.186	9607.7
656.379	9519.64
656.571	9560.6
656.763	9151.01
656.955	9533.98
657.148	9368.09
657.34	9345.56
657.532	9239.07
657.724	9173.53
657.916	9069.09
658.108	9347.61
658.3	8897.06
658.492	9054.75
658.684	8892.96
658.876	8804.9
659.068	9032.22
659.26	8704.55
659.452	8825.38
659.644	8731.17
659.836	8423.98
660.028	8843.81
660.22	8581.67
660.412	8649.25
660.604	8346.16
660.796	8485.42
660.988	8481.32
661.18	8354.35
661.372	8194.61
661.563	8305.2
661.755	8174.13
661.947	8167.98
662.139	8057.39
662.331	8043.06
662.522	8108.59
662.714	8006.19
662.906	8135.21
663.097	8104.49
663.289	8137.26
663.481	7866.93
663.673	7703.09
663.864	7490.1
664.056	7670.33
664.247	7674.42
664.439	7678.52
664.631	7490.1
664.822	7690.81
665.014	7543.35
665.205	7381.56
665.397	7359.03
665.588	7463.48
665.78	7453.24
665.971	7367.23
666.163	7270.97
666.354	7273.02
666.546	7176.77
666.737	7203.39
666.929	7209.53
667.12	7090.75
667.311	7010.88
667.503	6955.58
667.694	7193.15
667.885	6969.92
668.077	7049.79
668.268	7098.94
668.459	6775.36
668.651	6996.54
668.842	6734.4
669.033	6820.42
669.224	6767.17
669.416	6814.27
669.607	6867.52
669.798	6642.25
669.989	6666.82
670.18	6658.63
670.371	6697.54
670.563	6599.24
670.754	6535.75
670.945	6470.22
671.136	6533.7
671.327	6384.2
671.518	6404.68
671.709	6410.82
671.9	6488.65
672.091	6509.13
672.282	6429.26
672.473	6394.44
672.664	6482.5
672.855	6308.43
673.046	6230.6
673.237	6392.39
673.428	6269.52
673.619	6244.94
673.809	6203.98
674	6085.2
674.191	6124.11
674.382	6103.63
674.573	6201.93
674.764	5980.75
674.954	6050.38
675.145	6191.69
675.336	5990.99
675.527	5945.94
675.717	5890.64
675.908	5962.32
676.099	5933.65
676.289	6060.62
676.48	5900.88
676.671	5759.57
676.861	5712.47
677.052	5853.78
677.243	5798.48
677.433	5978.7
677.624	5898.83
677.814	5724.76
678.005	5712.47
678.195	5751.38
678.386	5712.47
678.576	5683.8
678.767	5679.7
678.957	5638.74
679.148	5870.16
679.338	5558.87
679.529	5689.94
679.719	5696.08
679.909	5704.28
680.1	5646.93
680.29	5597.78
680.481	5567.06
680.671	5546.58
680.861	5507.67
681.052	5683.8
681.242	5495.38
681.432	5640.79
681.622	5569.11
681.813	5577.3
682.003	5460.57
682.193	5431.9
682.383	5388.89
682.573	5483.1
682.764	5497.43
682.954	5460.57
683.144	5136.99
683.334	5327.45
683.524	5321.31
683.714	5413.46
683.904	5319.26
684.094	5255.77
684.284	5399.13
684.474	5466.71
684.664	5268.06
684.854	5349.98
685.044	5333.59
685.234	5253.72
685.424	5284.44
685.614	5266.01
685.804	5427.8
685.994	5245.53
686.184	5050.97
686.374	5192.28
686.564	5110.36
686.753	5102.17
686.943	4983.39
687.133	5245.53
687.323	4962.91
687.513	4969.05
687.702	4985.44
687.892	5030.49
688.082	4942.43
688.272	4946.53
688.461	4754.02
688.651	4872.8
688.841	4756.07
689.03	4946.53
689.22	4751.97
689.41	4731.49
689.599	4764.26
689.789	4868.7
689.979	4827.74
690.168	4827.74
690.358	4702.82
690.547	4608.61
690.737	4721.25
690.926	4872.8
691.116	4588.13
691.305	4665.96
691.495	4625
691.684	4627.04
691.874	4688.48
692.063	4629.09
692.252	4498.02
692.442	4409.96
692.631	4401.77
692.82	4479.59
693.01	4514.41
693.199	4541.03
693.388	4450.92
693.578	4371.05
693.767	4369
693.956	4323.94
694.146	4295.27
694.335	4332.14
694.524	4295.27
694.713	4489.83
694.902	4311.66
695.092	4264.55
695.281	4381.29
695.47	4213.35
695.659	4246.12
695.848	4137.58
696.037	4172.4
696.226	4188.78
696.415	4174.44
696.604	4143.72
696.793	4151.92
696.982	4172.4
697.171	4123.24
697.36	4160.11
697.549	4113
697.738	4108.91
697.927	4049.52
698.116	4047.47
698.305	4049.52
698.494	4010.61
698.683	4031.09
698.872	4108.91
699.061	3943.02
699.25	4078.19
699.438	3949.17
699.627	3949.17
699.816	4026.99
700.005	4033.13
700.193	3986.03
700.382	4078.19
700.571	3906.16
700.76	3973.74
700.948	4061.8
701.137	4010.61
701.326	3943.02
701.514	3848.82
701.703	3930.73
701.892	3932.78
702.08	3951.21
702.269	4037.23
702.457	3842.67
702.646	3930.73
702.834	3834.48
703.023	3924.59
703.212	4008.56
703.4	3885.68
703.589	3807.86
703.777	3840.62
703.965	3826.29
704.154	3814
704.342	3828.34
704.531	3830.38
704.719	3859.06
704.907	3836.53
705.096	3764.85
705.284	3881.58
705.472	3875.44
705.661	3824.24
705.849	3857.01
706.037	3836.53
706.226	3859.06
706.414	3865.2
706.602	3760.75
706.79	3732.08
706.979	3707.51
707.167	3748.47
707.355	3674.74
707.543	3783.28
707.731	3734.13
707.919	3820.14
708.107	3684.98
708.296	3805.81
708.484	3795.57
708.672	3807.86
708.86	3811.95
709.048	3779.19
709.236	3809.9
709.424	3758.71
709.612	3809.9
709.8	3891.82
709.988	3699.31
710.176	3705.46
710.364	3758.71
710.551	3725.94
710.739	3750.51
710.927	3844.72
711.115	3764.85
711.303	3779.19
711.491	3713.65
711.679	3543.67
711.866	3529.33
712.054	3703.41
712.242	3658.35
712.43	3707.51
712.617	3629.68
712.805	3740.27
712.993	3719.79
713.181	3713.65
713.368	3650.16
713.556	3641.97
713.744	3596.92
713.931	3869.3
714.119	3553.91
714.306	3654.26
714.494	3682.93
714.682	3766.9
714.869	3758.71
715.057	3537.52
715.244	3713.65
715.432	3723.89
715.619	3715.7
715.807	3578.48
715.994	3789.42
716.182	3740.27
716.369	3736.18
716.556	3607.16
716.744	3658.35
716.931	3678.83
717.119	3474.04
717.306	3693.17
717.493	3709.55
717.681	3725.94
717.868	3842.67
718.055	3662.45
718.242	3658.35
718.43	3639.92
718.617	3770.99
718.804	3752.56
718.991	3660.4
719.179	3558
719.366	3603.06
719.553	3701.36
719.74	3715.7
719.927	3666.55
720.114	3582.58
720.301	3682.93
720.488	3496.57
720.676	3510.9
720.863	3467.89
721.05	3607.16
721.237	3496.57
721.424	3641.97
721.611	3523.19
721.798	3535.48
721.985	3463.8
722.172	3525.24
722.358	3566.2
722.545	3625.59
722.732	3609.2
722.919	3629.68
723.106	3486.33
723.293	3611.25
723.48	3574.39
723.667	3578.48
723.853	3529.33
724.04	3474.04
724.227	3555.96
724.414	3504.76
724.6	3525.24
724.787	3654.26
724.974	3574.39
725.161	3570.29
725.347	3453.56
725.534	3566.2
725.72	3521.14
725.907	3379.83
726.094	3592.82
726.28	3490.42
726.467	3504.76
726.653	3390.07
726.84	3549.81
727.027	3594.87
727.213	3447.41
727.4	3418.74
727.586	3426.93
727.773	3496.57
727.959	3420.79
728.145	3578.48
728.332	3508.85
728.518	3451.51
728.705	3441.27
728.891	3490.42
729.077	3414.65
729.264	3541.62
729.45	3383.93
729.636	3623.54
729.823	3451.51
730.009	3551.86
730.195	3416.69
730.382	3502.71
730.568	3359.35
730.754	3416.69
730.94	3471.99
731.126	3521.14
731.313	3369.59
731.499	3455.61
731.685	3365.5
731.871	3277.43
732.057	3447.41
732.243	3275.38
732.429	3351.16
732.615	3345.02
732.801	3412.6
732.987	3390.07
733.173	3283.58
733.359	3385.98
733.545	3308.15
733.731	3394.17
733.917	3461.75
734.103	3447.41
734.289	3281.53
734.475	3351.16
734.661	3439.22
734.847	3195.51
735.033	3263.1
735.219	3160.7
735.404	3246.71
735.59	3351.16
735.776	3259
735.962	3283.58
736.148	3422.84
736.333	3304.06
736.519	3189.37
736.705	3332.73
736.89	3453.56
737.076	3256.95
737.262	3332.73
737.447	3115.64
737.633	3308.15
737.819	3195.51
738.004	3129.98
738.19	3232.38
738.375	3156.6
738.561	3314.3
738.747	3109.5
738.932	3242.62
739.118	3158.65
739.303	3170.94
739.489	3234.43
739.674	3129.98
739.859	3101.31
740.045	3076.73
740.23	3003
740.416	3019.39
740.601	2968.19
740.786	2943.61
740.972	3058.3
741.157	3015.29
741.342	3015.29
741.528	3060.35
741.713	3027.58
741.898	3005.05
742.084	2898.56
742.269	3007.1
742.454	2945.66
742.639	2992.77
742.824	2878.08
743.01	2904.7
743.195	3025.53
743.38	2871.93
743.565	2853.5
743.75	2747.01
743.935	2796.16
744.12	2976.38
744.305	2777.73
744.49	2876.03
744.675	2685.57
744.86	2816.64
745.045	2722.43
745.23	2706.05
745.415	2605.7
745.6	2701.95
745.785	2781.82
745.97	2663.04
746.155	2652.8
746.34	2566.79
746.525	2583.17
746.71	2624.13
746.895	2517.64
747.079	2484.87
747.264	2648.71
747.449	2658.95
747.634	2435.72
747.819	2581.12
748.003	2562.69
748.188	2554.5
748.373	2433.67
748.557	2577.03
748.742	2503.3
748.927	2423.43
749.111	2415.24
749.296	2544.26
749.481	2316.94
749.665	2468.48
749.85	2337.41
750.034	2361.99
750.219	2302.6
750.404	2206.35
750.588	2296.46
750.773	2128.52
750.957	2318.98
751.141	2192.01
751.326	2255.5
751.51	2204.3
751.695	2224.78
751.879	2192.01
752.064	2095.75
752.248	2073.23
752.432	2302.6
752.617	2079.37
752.801	2167.43
752.985	2101.9
753.17	2044.56
753.354	2050.7
753.538	2120.33
753.722	2003.6
753.907	2042.51
754.091	1864.33
754.275	1954.44
754.459	1993.36
754.643	1870.48
754.828	1911.44
755.012	1936.01
755.196	1856.14
755.38	1956.49
755.564	1905.29
755.748	1806.99
755.932	1927.82
756.116	1817.23
756.3	1817.23
756.484	1811.09
756.668	1821.33
756.852	1798.8
757.036	1800.85
757.22	1845.9
757.404	1809.04
757.588	1692.3
757.772	1757.84
757.956	1747.6
758.14	1725.07
758.323	1714.83
758.507	1682.06
758.691	1626.77
758.875	1741.46
759.059	1581.71
759.242	1600.15
759.426	1526.42
759.61	1585.81
759.794	1596.05
759.977	1591.95
760.161	1630.87
760.345	1585.81
760.528	1530.52
760.712	1591.95
760.895	1622.67
761.079	1514.13
761.263	1528.47
761.446	1469.08
761.63	1454.74
761.813	1491.6
761.997	1442.45
762.18	1555.09
762.364	1612.43
762.547	1442.45
762.731	1532.56
762.914	1454.74
763.098	1473.17
763.281	1419.92
763.464	1356.44
763.648	1483.41
763.831	1419.92
764.015	1364.63
764.198	1325.72
764.381	1389.21
764.564	1401.49
764.748	1448.6
764.931	1401.49
765.114	1397.4
765.297	1366.68
765.481	1383.06
765.664	1333.91
765.847	1303.19
766.03	1272.47
766.213	1290.9
766.397	1368.73
766.58	1358.49
766.763	1321.62
766.946	1348.25
767.129	1251.99
767.312	1297.05
767.495	1303.19
767.678	1276.57
767.861	1305.24
768.044	1280.66
768.227	1288.85
768.41	1133.21
768.593	1272.47
768.776	1243.8
768.959	1251.99
769.142	1200.79
769.324	1245.85
769.507	1196.7
769.69	1262.23
769.873	1260.18
770.056	1319.57
770.239	1190.55
770.421	1202.84
770.604	1139.35
770.787	1182.36
770.97	1192.6
771.152	1172.12
771.335	1065.63
771.518	1155.74
771.7	1161.88
771.883	1229.46
772.066	1108.63
772.248	1155.74
772.431	1114.78
772.613	1178.26
772.796	1088.15
772.978	1084.06
773.161	1112.73
773.343	1004.19
773.526	1057.43
773.708	1137.31
773.891	1088.15
774.073	1075.87
774.256	1006.24
774.438	1102.49
774.621	991.9
774.803	1061.53
774.985	998.04
775.168	996
775.35	899.74
775.532	975.52
775.715	1012.38
775.897	1030.81
776.079	965.28
776.261	1028.76
776.444	993.95
776.626	955.04
776.808	981.66
776.99	828.06
777.173	981.66
777.355	950.94
777.537	924.32
777.719	856.73
777.901	875.17
778.083	952.99
778.265	914.08
778.447	981.66
778.629	823.97
778.811	895.65
778.993	764.58
779.175	787.1
779.357	832.16
779.539	826.01
779.721	828.06
779.903	772.77
780.085	866.97
780.267	770.72
780.449	793.25
780.631	811.68
780.812	692.9
780.994	852.64
781.176	725.66
781.358	725.66
781.54	740
781.721	727.71
781.903	740
782.085	770.72
782.267	752.29
782.448	756.38
782.63	776.86
782.812	721.57
782.993	719.52
783.175	709.28
783.357	725.66
783.538	735.9
783.72	694.94
783.901	623.27
784.083	699.04
784.264	670.37
784.446	676.51
784.627	651.94
784.809	586.4
784.99	610.98
785.172	641.7
785.353	567.97
785.535	606.88
785.716	592.55
785.897	631.46
786.079	535.2
786.26	629.41
786.441	551.59
786.623	606.88
786.804	551.59
786.985	637.6
787.167	703.14
787.348	563.87
787.529	608.93
787.71	555.68
787.891	549.54
788.073	553.63
788.254	506.53
788.435	590.5
788.616	541.35
788.797	488.1
788.978	539.3
789.159	490.15
789.34	529.06
789.522	475.81
789.703	477.86
789.884	594.59
790.065	518.82
790.246	610.98
790.427	490.15
790.607	529.06
790.788	518.82
790.969	447.14
791.15	471.72
791.331	492.2
791.512	426.66
791.693	455.33
791.874	514.72
792.054	529.06
792.235	494.24
792.416	361.13
792.597	481.96
792.778	473.76
792.958	471.72
793.139	443.04
793.32	404.13
793.5	432.8
793.681	441
793.862	494.24
794.042	412.32
794.223	369.32
794.404	367.27
794.584	334.5
794.765	447.14
794.945	438.95
795.126	445.09
795.306	342.69
795.487	414.37
795.667	359.08
795.848	400.04
796.028	420.52
796.209	422.56
796.389	412.32
796.57	359.08
796.75	326.31
796.93	486.05
797.111	318.12
797.291	381.6
797.471	389.8
797.652	354.98
797.832	381.6
798.012	379.56
798.192	359.08
798.373	375.46
798.553	295.59
798.733	295.59
798.913	365.22
799.093	305.83
799.274	328.36
799.454	342.69
799.634	406.18
799.814	395.94
799.994	395.94
800.174	330.41
800.354	307.88
800.534	309.93
800.714	309.93
800.894	352.93
801.074	287.4
801.254	375.46
801.434	275.11
801.614	254.63
801.794	334.5
801.974	838.3
802.154	271.01
802.334	342.69
802.514	223.91
802.693	297.64
802.873	359.08
803.053	318.12
803.233	316.07
803.413	258.73
803.592	299.69
803.772	322.21
803.952	307.88
804.131	266.92
804.311	309.93
804.491	379.56
804.67	256.68
804.85	234.15
805.03	266.92
805.209	262.82
805.389	256.68
805.568	228.01
805.748	199.34
805.928	291.49
806.107	332.45
806.287	295.59
806.466	295.59
806.646	303.78
806.825	301.73
807.004	213.67
807.184	215.72
807.363	354.98
807.543	225.96
807.722	211.62
807.901	291.49
808.081	285.35
808.26	215.72
808.439	236.2
808.619	244.39
808.798	268.97
808.977	238.25
809.156	293.54
809.336	225.96
809.515	262.82
809.694	238.25
809.873	258.73
810.052	209.58
810.231	266.92
810.411	266.92
810.59	248.49
810.769	240.3
810.948	209.58
811.127	271.01
811.306	172.71
811.485	281.25
811.664	250.53
811.843	236.2
812.022	242.34
812.201	234.15
812.38	223.91
812.559	223.91
812.737	217.77
812.916	217.77
813.095	133.8
813.274	213.67
813.453	225.96
813.632	187.05
813.811	174.76
813.989	125.61
814.168	191.14
814.347	262.82
814.526	191.14
814.704	154.28
814.883	127.66
815.062	148.14
815.24	223.91
815.419	170.66
815.598	211.62
815.776	115.37
815.955	115.37
816.133	156.33
816.312	185
816.49	158.38
816.669	174.76
816.847	203.43
817.026	297.64
817.204	150.18
817.383	191.14
817.561	185
817.74	162.47
817.918	225.96
818.097	129.7
818.275	170.66
818.453	215.72
818.632	172.71
818.81	205.48
818.988	211.62
819.167	176.81
819.345	275.11
819.523	154.28
819.701	193.19
819.879	117.42
820.058	162.47
820.236	166.57
820.414	88.75
820.592	176.81
820.77	154.28
820.948	180.9
821.127	201.38
821.305	76.46
821.483	164.52
821.661	217.77
821.839	150.18
822.017	166.57
822.195	154.28
822.373	164.52
822.551	129.7
822.729	193.19
822.907	105.13
823.085	156.33
823.262	187.05
823.44	187.05
823.618	72.36
823.796	180.9
823.974	170.66
824.152	158.38
824.329	139.94
824.507	113.32
824.685	195.24
824.863	131.75
825.04	123.56
825.218	150.18
825.396	49.83
825.574	129.7
825.751	152.23
825.929	94.89
826.107	68.27
826.284	166.57
826.462	174.76
826.639	139.94
826.817	96.94
826.994	127.66
827.172	129.7
827.349	182.95
827.527	125.61
827.704	103.08
827.882	168.62
828.059	123.56
828.237	121.51
828.414	105.13
828.591	105.13
828.769	121.51
828.946	35.5
829.124	94.89
829.301	144.04
829.478	103.08
829.655	82.6
829.833	90.79
830.01	176.81
830.187	158.38
830.364	101.03
830.542	180.9
830.719	146.09
830.896	133.8
831.073	137.9
831.25	113.32
831.427	111.27
831.604	92.84
831.782	70.31
831.959	166.57
832.136	103.08
832.313	62.12
832.49	121.51
832.667	113.32
832.844	35.5
833.021	86.7
833.198	115.37
833.374	78.51
833.551	176.81
833.728	68.27
833.905	92.84
834.082	21.16
834.259	98.99
834.436	115.37
834.612	107.18
834.789	47.79
834.966	58.03
835.143	80.55
835.319	72.36
835.496	86.7
835.673	107.18
835.85	152.23
836.026	41.64
836.203	113.32
836.38	168.62
836.556	33.45
836.733	107.18
836.909	70.31
837.086	25.26
837.262	66.22
837.439	76.46
837.616	68.27
837.792	109.23
837.968	121.51
838.145	107.18
838.321	125.61
838.498	137.9
838.674	74.41
838.851	15.02
839.027	127.66
839.203	41.64
839.38	-23.89
839.556	55.98
839.732	64.17
839.909	80.55
840.085	74.41
840.261	8.87
840.437	94.89
840.614	45.74
840.79	203.43
840.966	47.79
841.142	88.75
841.318	4.78
841.494	78.51
841.671	94.89
841.847	68.27
842.023	88.75
842.199	111.27
842.375	115.37
842.551	86.7
842.727	43.69
842.903	64.17
843.079	55.98
843.255	127.66
843.431	49.83
843.607	127.66
843.783	45.74
843.959	70.31
844.134	72.36
844.31	47.79
844.486	141.99
844.662	-5.46
844.838	43.69
845.013	62.12
845.189	41.64
845.365	66.22
845.541	105.13
845.716	68.27
845.892	27.31
846.068	35.5
846.244	35.5
846.419	64.17
846.595	76.46
846.77	2.73
846.946	55.98
847.122	60.07
847.297	35.5
847.473	70.31
847.648	33.45
847.824	70.31
847.999	12.97
848.175	29.35
848.35	78.51
848.526	39.59
848.701	27.31
848.876	133.8
849.052	37.55
849.227	70.31
849.403	47.79
849.578	37.55
849.753	49.83
849.929	66.22
850.104	-3.41
850.279	-32.08
850.454	88.75
850.63	23.21
850.805	17.07
850.98	0.68
851.155	47.79
851.33	51.88
851.505	-27.99
851.681	23.21
851.856	25.26
852.031	19.11
852.206	19.11
852.381	58.03
852.556	-7.51
852.731	47.79
852.906	55.98
853.081	64.17
853.256	105.13
853.431	-11.61
853.606	-25.94
853.781	-5.46
853.956	-23.89
854.131	17.07
854.305	19.11
854.48	-30.04
854.655	68.27
854.83	-27.99
855.005	-1.37
855.18	8.87
855.354	35.5
855.529	15.02
855.704	-19.8
855.879	15.02
856.053	49.83
856.228	51.88
856.403	-3.41
856.577	60.07
856.752	12.97
856.926	129.7
857.101	-1.37
857.276	35.5
857.45	92.84
857.625	60.07
857.799	47.79
857.974	-7.51
858.148	-42.32
858.323	27.31
858.497	31.4
858.672	4.78
858.846	23.21
859.02	4.78
859.195	76.46
859.369	-38.23
859.543	43.69
859.718	15.02
859.892	70.31
860.066	39.59
860.241	15.02
860.415	-7.51
860.589	-36.18
860.763	92.84
860.938	-3.41
861.112	51.88
861.286	4.78
861.46	80.55
861.634	45.74
861.808	0.68
861.982	8.87
862.157	10.92
862.331	-3.41
862.505	25.26
862.679	64.17
862.853	-27.99
863.027	33.45
863.201	70.31
863.375	-75.09
863.549	92.84
863.722	6.83
863.896	23.21
864.07	-11.61
864.244	31.4
864.418	74.41
864.592	33.45
864.766	-27.99
864.939	39.59
865.113	-3.41
865.287	49.83
865.461	31.4
865.634	6.83
865.808	43.69
865.982	19.11
866.156	-15.7
866.329	-97.62
866.503	6.83
866.676	51.88
866.85	12.97
867.024	27.31
867.197	72.36
867.371	10.92
867.544	-42.32
867.718	25.26
867.891	-9.56
868.065	-13.65
868.238	49.83
868.412	23.21
868.585	21.16
868.759	-17.75
868.932	6.83
869.105	17.07
869.279	6.83
869.452	0.68
869.625	37.55
869.799	-44.37
869.972	51.88
870.145	-3.41
870.319	19.11
870.492	-17.75
870.665	-5.46
870.838	-50.52
871.011	-27.99
871.185	4.78
871.358	-3.41
871.531	-1.37
871.704	-15.7
871.877	-17.75
872.05	25.26
872.223	-11.61
872.396	27.31
872.569	45.74
872.742	-1.37
872.915	43.69
873.088	51.88
873.261	-13.65
873.434	84.65
873.607	70.31
873.78	0.68
873.953	6.83
874.126	8.87
874.299	31.4
874.471	2.73
874.644	19.11
874.817	27.31
874.99	92.84
875.163	-19.8
875.335	82.6
875.508	78.51
875.681	47.79
875.853	-30.04
876.026	35.5
876.199	74.41
876.371	76.46
876.544	19.11
876.717	0.68
876.889	-32.08
877.062	-9.56
877.234	-19.8
877.407	27.31
877.579	8.87
877.752	27.31
877.924	-19.8
878.097	66.22
878.269	21.16
878.442	-5.46
878.614	78.51
878.786	-11.61
878.959	49.83
879.131	47.79
879.303	39.59
879.476	-15.7
879.648	-19.8
879.82	-11.61
879.993	4.78
880.165	-44.37
880.337	6.83
880.509	17.07
880.681	-54.61
880.854	-89.43
881.026	4.78
881.198	74.41
881.37	-11.61
881.542	27.31
881.714	-1.37
881.886	12.97
882.058	19.11
882.23	-23.89
882.402	39.59
882.574	-5.46
882.746	27.31
882.918	72.36
883.09	-23.89
883.262	43.69
883.434	86.7
883.606	58.03
883.778	-66.9
883.95	-32.08
884.122	-52.56
884.293	-11.61
884.465	12.97
884.637	-114
884.809	-21.85
884.98	-36.18
885.152	15.02
885.324	8.87
885.496	-25.94
885.667	-19.8
885.839	4.78
886.011	-11.61
886.182	62.12
886.354	45.74
886.525	4.78
886.697	47.79
886.869	-42.32
887.04	41.64
887.212	51.88
887.383	86.7
887.555	76.46
887.726	-52.56
887.897	-5.46
888.069	8.87
888.24	98.99
888.412	68.27
888.583	-1.37
888.754	10.92
888.926	-19.8
889.097	-21.85
889.268	-25.94
889.44	37.55
889.611	-3.41
889.782	-40.28
889.953	-62.8
890.125	55.98
890.296	-36.18
890.467	-34.13
890.638	31.4
890.809	-36.18
890.98	21.16
891.151	51.88
891.323	10.92
891.494	12.97
891.665	-36.18
891.836	19.11
892.007	12.97
892.178	60.07
892.349	-89.43
892.52	-44.37
892.691	37.55
892.862	-5.46
893.032	-54.61
893.203	-38.23
893.374	17.07
893.545	86.7
893.716	-97.62
893.887	29.35
894.057	53.93
894.228	-17.75
894.399	-13.65
894.57	-15.7
894.74	-13.65
894.911	-54.61
895.082	-17.75
895.253	90.79
895.423	47.79
895.594	12.97
895.764	23.21
895.935	-19.8
896.106	0.68
896.276	-46.42
896.447	-27.99
896.617	72.36
896.788	-66.9
896.958	-11.61
897.129	8.87
897.299	-62.8
897.47	-1.37
897.64	55.98
897.81	-5.46
897.981	31.4
898.151	-27.99
898.322	39.59
898.492	-23.89
898.662	-3.41
898.832	-32.08
899.003	-46.42
899.173	-1.37
899.343	33.45
899.513	-21.85
