Data from USB4F104151__118__10-25-03-720.txt Node

Date: Wed Mar 12 10:25:03 EDT 2025
User: louis
Spectrometer: USB4F10415
Trigger mode: 4
Integration Time (sec): 3.000000E-2
Scans to average: 1
Electric dark correction enabled: true
Nonlinearity correction enabled: false
Boxcar width: 0
XAxis mode: Wavelengths
Number of Pixels in Spectrum: 3648
>>>>>Begin Spectral Data<<<<<
178.204	-159.23
178.424	-159.23
178.644	-159.23
178.864	-194.05
179.084	-93.69
179.304	10.75
179.524	-28.16
179.744	4.61
179.964	29.18
180.184	-32.26
180.404	0.51
180.624	-5.63
180.844	-19.97
181.064	41.47
181.283	16.9
181.503	-1.54
181.723	-15.87
181.943	-97.79
182.163	27.14
182.383	-1.54
182.602	12.8
182.822	16.9
183.042	33.28
183.262	16.9
183.482	-36.35
183.701	-5.63
183.921	12.8
184.141	18.94
184.361	-50.69
184.58	72.19
184.8	53.76
185.02	-108.03
185.239	8.7
185.459	53.76
185.679	-9.73
185.898	-34.3
186.118	37.38
186.338	-5.63
186.557	-52.74
186.777	-17.92
186.997	-34.3
187.216	-26.11
187.436	47.62
187.655	-46.59
187.875	37.38
188.095	-32.26
188.314	33.28
188.534	39.42
188.753	-30.21
188.973	-13.82
189.192	29.18
189.412	-36.35
189.631	25.09
189.851	49.66
190.07	59.9
190.29	39.42
190.509	-17.92
190.729	10.75
190.948	64
191.168	123.39
191.387	51.71
191.607	18.94
191.826	-24.06
192.045	-44.54
192.265	-48.64
192.484	82.43
192.704	88.57
192.923	57.86
193.142	-3.58
193.362	14.85
193.581	33.28
193.8	-9.73
194.02	-50.69
194.239	14.85
194.458	66.05
194.678	47.62
194.897	-3.58
195.116	8.7
195.335	-75.26
195.555	53.76
195.774	6.66
195.993	18.94
196.212	10.75
196.432	-5.63
196.651	-17.92
196.87	-19.97
197.089	33.28
197.308	-79.36
197.528	41.47
197.747	10.75
197.966	-15.87
198.185	96.77
198.404	-85.5
198.623	117.25
198.842	37.38
199.062	-15.87
199.281	121.34
199.5	-56.83
199.719	53.76
199.938	72.19
200.157	74.24
200.376	51.71
200.595	10.75
200.814	-15.87
201.033	-36.35
201.252	-13.82
201.471	20.99
201.69	37.38
201.909	-17.92
202.128	76.29
202.347	18.94
202.566	12.8
202.785	-15.87
203.004	-60.93
203.223	39.42
203.442	-34.3
203.661	-13.82
203.879	51.71
204.098	33.28
204.317	0.51
204.536	6.66
204.755	-65.02
204.974	23.04
205.193	20.99
205.411	96.77
205.63	49.66
205.849	94.72
206.068	16.9
206.287	0.51
206.505	45.57
206.724	-13.82
206.943	8.7
207.162	-19.97
207.381	27.14
207.599	4.61
207.818	-3.58
208.037	10.75
208.255	20.99
208.474	29.18
208.693	6.66
208.911	-65.02
209.13	33.28
209.349	33.28
209.567	47.62
209.786	-1.54
210.005	-24.06
210.223	-91.65
210.442	-1.54
210.661	59.9
210.879	23.04
211.098	-5.63
211.316	72.19
211.535	-11.78
211.753	2.56
211.972	43.52
212.191	-65.02
212.409	-15.87
212.628	12.8
212.846	-9.73
213.065	-7.68
213.283	-3.58
213.502	41.47
213.72	33.28
213.938	10.75
214.157	-17.92
214.375	-9.73
214.594	39.42
214.812	59.9
215.031	49.66
215.249	-15.87
215.467	-91.65
215.686	-7.68
215.904	-9.73
216.122	-52.74
216.341	37.38
216.559	16.9
216.778	68.09
216.996	-9.73
217.214	-19.97
217.432	-48.64
217.651	61.95
217.869	18.94
218.087	-42.5
218.306	-34.3
218.524	-32.26
218.742	23.04
218.96	-40.45
219.179	-56.83
219.397	-9.73
219.615	82.43
219.833	31.23
220.051	45.57
220.27	61.95
220.488	-17.92
220.706	14.85
220.924	-24.06
221.142	-7.68
221.36	35.33
221.578	27.14
221.796	88.57
222.015	-30.21
222.233	55.81
222.451	-40.45
222.669	-26.11
222.887	49.66
223.105	-32.26
223.323	33.28
223.541	-65.02
223.759	10.75
223.977	-15.87
224.195	47.62
224.413	49.66
224.631	25.09
224.849	0.51
225.067	66.05
225.285	-7.68
225.503	4.61
225.721	0.51
225.939	-24.06
226.157	20.99
226.375	29.18
226.592	-17.92
226.81	-15.87
227.028	-28.16
227.246	37.38
227.464	-26.11
227.682	-15.87
227.9	-32.26
228.117	33.28
228.335	-1.54
228.553	25.09
228.771	8.7
228.989	0.51
229.206	72.19
229.424	41.47
229.642	33.28
229.86	6.66
230.077	-19.97
230.295	55.81
230.513	51.71
230.731	53.76
230.948	10.75
231.166	33.28
231.384	-24.06
231.601	0.51
231.819	82.43
232.037	-3.58
232.254	-40.45
232.472	-1.54
232.689	51.71
232.907	16.9
233.125	-58.88
233.342	53.76
233.56	29.18
233.777	-15.87
233.995	0.51
234.213	-15.87
234.43	37.38
234.648	57.86
234.865	-60.93
235.083	31.23
235.3	-32.26
235.518	90.62
235.735	4.61
235.953	-30.21
236.17	-44.54
236.388	10.75
236.605	-65.02
236.822	66.05
237.04	51.71
237.257	14.85
237.475	18.94
237.692	18.94
237.909	-26.11
238.127	-22.02
238.344	23.04
238.562	37.38
238.779	-7.68
238.996	-52.74
239.214	33.28
239.431	8.7
239.648	-65.02
239.865	-19.97
240.083	61.95
240.3	-52.74
240.517	-32.26
240.735	33.28
240.952	41.47
241.169	111.1
241.386	-19.97
241.603	-11.78
241.821	16.9
242.038	-17.92
242.255	0.51
242.472	-11.78
242.689	6.66
242.907	27.14
243.124	33.28
243.341	59.9
243.558	-101.89
243.775	4.61
243.992	-52.74
244.209	0.51
244.426	90.62
244.643	23.04
244.86	-11.78
245.078	20.99
245.295	12.8
245.512	35.33
245.729	-42.5
245.946	53.76
246.163	-15.87
246.38	39.42
246.597	8.7
246.814	-81.41
247.031	-1.54
247.248	74.24
247.464	-9.73
247.681	59.9
247.898	20.99
248.115	59.9
248.332	20.99
248.549	70.14
248.766	41.47
248.983	16.9
249.2	-19.97
249.417	-15.87
249.633	-58.88
249.85	72.19
250.067	-62.98
250.284	57.86
250.501	61.95
250.717	2.56
250.934	-50.69
251.151	57.86
251.368	-1.54
251.585	55.81
251.801	-28.16
252.018	29.18
252.235	43.52
252.451	-15.87
252.668	-1.54
252.885	39.42
253.102	31.23
253.318	2.56
253.535	-7.68
253.752	-13.82
253.968	-65.02
254.185	-13.82
254.401	-5.63
254.618	41.47
254.835	23.04
255.051	-7.68
255.268	-9.73
255.484	33.28
255.701	-9.73
255.917	-11.78
256.134	6.66
256.351	-40.45
256.567	-99.84
256.784	47.62
257	-67.07
257.217	2.56
257.433	-28.16
257.65	39.42
257.866	68.09
258.082	-50.69
258.299	-26.11
258.515	55.81
258.732	-28.16
258.948	-5.63
259.165	39.42
259.381	-34.3
259.597	31.23
259.814	-28.16
260.03	-1.54
260.246	57.86
260.463	29.18
260.679	-3.58
260.895	-28.16
261.112	-24.06
261.328	-7.68
261.544	47.62
261.761	82.43
261.977	-11.78
262.193	8.7
262.409	31.23
262.626	-3.58
262.842	31.23
263.058	41.47
263.274	76.29
263.49	0.51
263.707	-17.92
263.923	-24.06
264.139	-75.26
264.355	-15.87
264.571	0.51
264.787	8.7
265.004	20.99
265.22	41.47
265.436	8.7
265.652	-5.63
265.868	49.66
266.084	-3.58
266.3	6.66
266.516	-22.02
266.732	12.8
266.948	-19.97
267.164	-26.11
267.38	33.28
267.596	20.99
267.812	61.95
268.028	37.38
268.244	-60.93
268.46	-62.98
268.676	-56.83
268.892	14.85
269.108	-1.54
269.324	6.66
269.54	-32.26
269.756	16.9
269.972	0.51
270.188	-28.16
270.403	47.62
270.619	8.7
270.835	-15.87
271.051	45.57
271.267	-24.06
271.483	-15.87
271.698	-1.54
271.914	23.04
272.13	-7.68
272.346	2.56
272.562	-3.58
272.777	90.62
272.993	-11.78
273.209	-81.41
273.425	0.51
273.64	2.56
273.856	-44.54
274.072	14.85
274.287	80.38
274.503	64
274.719	-22.02
274.934	18.94
275.15	-19.97
275.366	-7.68
275.581	-9.73
275.797	-17.92
276.012	41.47
276.228	8.7
276.444	-15.87
276.659	-42.5
276.875	-38.4
277.09	41.47
277.306	-13.82
277.521	20.99
277.737	33.28
277.952	20.99
278.168	68.09
278.383	37.38
278.599	2.56
278.814	6.66
279.03	6.66
279.245	86.53
279.461	66.05
279.676	53.76
279.892	-44.54
280.107	-32.26
280.322	37.38
280.538	37.38
280.753	-38.4
280.969	57.86
281.184	20.99
281.399	-34.3
281.615	0.51
281.83	143.87
282.045	-44.54
282.26	55.81
282.476	47.62
282.691	61.95
282.906	47.62
283.122	-24.06
283.337	23.04
283.552	37.38
283.767	-9.73
283.983	45.57
284.198	-19.97
284.413	25.09
284.628	-26.11
284.843	41.47
285.058	-52.74
285.274	8.7
285.489	-44.54
285.704	12.8
285.919	18.94
286.134	-28.16
286.349	49.66
286.564	-50.69
286.779	96.77
286.995	29.18
287.21	-52.74
287.425	-19.97
287.64	47.62
287.855	-24.06
288.07	-17.92
288.285	35.33
288.5	47.62
288.715	78.33
288.93	37.38
289.145	25.09
289.36	10.75
289.575	-22.02
289.79	78.33
290.004	-11.78
290.219	57.86
290.434	74.24
290.649	16.9
290.864	2.56
291.079	-34.3
291.294	27.14
291.509	27.14
291.724	43.52
291.938	23.04
292.153	107.01
292.368	-60.93
292.583	57.86
292.798	43.52
293.012	25.09
293.227	59.9
293.442	10.75
293.657	-40.45
293.871	29.18
294.086	47.62
294.301	59.9
294.516	23.04
294.73	-17.92
294.945	-58.88
295.16	66.05
295.374	49.66
295.589	80.38
295.804	-1.54
296.018	41.47
296.233	-11.78
296.447	66.05
296.662	76.29
296.877	4.61
297.091	55.81
297.306	-24.06
297.52	-15.87
297.735	64
297.949	33.28
298.164	59.9
298.378	49.66
298.593	-7.68
298.807	-15.87
299.022	49.66
299.236	31.23
299.451	-1.54
299.665	35.33
299.88	27.14
300.094	-32.26
300.309	-26.11
300.523	2.56
300.737	49.66
300.952	10.75
301.166	29.18
301.381	-15.87
301.595	14.85
301.809	25.09
302.024	-13.82
302.238	-15.87
302.452	-22.02
302.667	0.51
302.881	68.09
303.095	39.42
303.309	57.86
303.524	41.47
303.738	20.99
303.952	8.7
304.166	-5.63
304.381	-30.21
304.595	37.38
304.809	23.04
305.023	61.95
305.237	-44.54
305.452	-11.78
305.666	-40.45
305.88	16.9
306.094	27.14
306.308	4.61
306.522	98.81
306.736	16.9
306.95	8.7
307.164	-60.93
307.379	45.57
307.593	12.8
307.807	16.9
308.021	8.7
308.235	107.01
308.449	-28.16
308.663	-46.59
308.877	0.51
309.091	-1.54
309.305	-32.26
309.519	45.57
309.733	53.76
309.947	0.51
310.161	-34.3
310.374	-3.58
310.588	23.04
310.802	47.62
311.016	-22.02
311.23	-26.11
311.444	25.09
311.658	-7.68
311.872	51.71
312.085	20.99
312.299	61.95
312.513	94.72
312.727	29.18
312.941	70.14
313.154	-30.21
313.368	-15.87
313.582	45.57
313.796	37.38
314.009	29.18
314.223	41.47
314.437	-32.26
314.651	-40.45
314.864	27.14
315.078	-7.68
315.292	23.04
315.505	-24.06
315.719	68.09
315.933	59.9
316.146	25.09
316.36	16.9
316.573	16.9
316.787	-5.63
317.001	23.04
317.214	-28.16
317.428	14.85
317.641	41.47
317.855	23.04
318.068	10.75
318.282	-19.97
318.495	74.24
318.709	8.7
318.922	10.75
319.136	35.33
319.349	74.24
319.563	10.75
319.776	10.75
319.99	-48.64
320.203	6.66
320.417	29.18
320.63	4.61
320.843	23.04
321.057	61.95
321.27	-44.54
321.483	33.28
321.697	49.66
321.91	64
322.124	-13.82
322.337	-9.73
322.55	0.51
322.763	-58.88
322.977	70.14
323.19	6.66
323.403	-32.26
323.617	0.51
323.83	47.62
324.043	10.75
324.256	-7.68
324.469	0.51
324.683	74.24
324.896	0.51
325.109	-48.64
325.322	-40.45
325.535	-3.58
325.748	37.38
325.962	41.47
326.175	20.99
326.388	51.71
326.601	-3.58
326.814	53.76
327.027	20.99
327.24	49.66
327.453	-48.64
327.666	-46.59
327.879	29.18
328.092	53.76
328.305	-19.97
328.518	-22.02
328.731	14.85
328.944	23.04
329.157	43.52
329.37	4.61
329.583	113.15
329.796	33.28
330.009	-36.35
330.222	14.85
330.435	41.47
330.648	-30.21
330.861	41.47
331.073	4.61
331.286	57.86
331.499	-32.26
331.712	-32.26
331.925	-65.02
332.138	35.33
332.35	72.19
332.563	-9.73
332.776	80.38
332.989	-97.79
333.202	0.51
333.414	16.9
333.627	-40.45
333.84	2.56
334.053	25.09
334.265	-22.02
334.478	-17.92
334.691	49.66
334.903	16.9
335.116	31.23
335.329	-15.87
335.541	49.66
335.754	-36.35
335.966	-67.07
336.179	-48.64
336.392	51.71
336.604	-24.06
336.817	23.04
337.029	-11.78
337.242	-75.26
337.454	8.7
337.667	-34.3
337.88	23.04
338.092	-15.87
338.305	31.23
338.517	25.09
338.729	18.94
338.942	43.52
339.154	-77.31
339.367	-32.26
339.579	68.09
339.792	31.23
340.004	-1.54
340.217	-28.16
340.429	47.62
340.641	-24.06
340.854	-32.26
341.066	6.66
341.278	-19.97
341.491	86.53
341.703	-15.87
341.915	-46.59
342.128	31.23
342.34	55.81
342.552	78.33
342.764	-17.92
342.977	-65.02
343.189	-19.97
343.401	16.9
343.613	64
343.826	4.61
344.038	16.9
344.25	45.57
344.462	-5.63
344.674	8.7
344.886	-26.11
345.099	-48.64
345.311	-24.06
345.523	55.81
345.735	-15.87
345.947	0.51
346.159	45.57
346.371	33.28
346.583	12.8
346.795	8.7
347.007	-15.87
347.219	-1.54
347.431	-22.02
347.643	86.53
347.855	57.86
348.067	76.29
348.279	-58.88
348.491	12.8
348.703	25.09
348.915	4.61
349.127	-42.5
349.339	25.09
349.551	4.61
349.763	111.1
349.975	-1.54
350.187	18.94
350.399	37.38
350.61	0.51
350.822	-65.02
351.034	68.09
351.246	-32.26
351.458	76.29
351.669	27.14
351.881	29.18
352.093	4.61
352.305	23.04
352.517	41.47
352.728	64
352.94	-30.21
353.152	20.99
353.363	-44.54
353.575	57.86
353.787	8.7
353.999	49.66
354.21	66.05
354.422	-11.78
354.633	-28.16
354.845	-65.02
355.057	14.85
355.268	25.09
355.48	35.33
355.692	-81.41
355.903	-52.74
356.115	-26.11
356.326	90.62
356.538	-24.06
356.749	-85.5
356.961	102.91
357.172	-40.45
357.384	-58.88
357.595	82.43
357.807	43.52
358.018	8.7
358.23	-9.73
358.441	14.85
358.653	-1.54
358.864	0.51
359.075	8.7
359.287	137.73
359.498	4.61
359.709	-13.82
359.921	25.09
360.132	45.57
360.344	-38.4
360.555	-40.45
360.766	29.18
360.977	-22.02
361.189	115.2
361.4	-28.16
361.611	2.56
361.823	-15.87
362.034	133.63
362.245	33.28
362.456	10.75
362.667	55.81
362.879	4.61
363.09	0.51
363.301	-13.82
363.512	14.85
363.723	-9.73
363.935	53.76
364.146	45.57
364.357	29.18
364.568	4.61
364.779	-56.83
364.99	70.14
365.201	-50.69
365.412	55.81
365.623	47.62
365.834	23.04
366.045	16.9
366.256	39.42
366.467	6.66
366.678	0.51
366.889	12.8
367.1	-11.78
367.311	16.9
367.522	-26.11
367.733	41.47
367.944	35.33
368.155	-26.11
368.366	10.75
368.577	-15.87
368.788	4.61
368.999	20.99
369.209	-1.54
369.42	109.05
369.631	59.9
369.842	-3.58
370.053	88.57
370.264	-11.78
370.474	27.14
370.685	25.09
370.896	6.66
371.107	-60.93
371.317	53.76
371.528	-9.73
371.739	82.43
371.95	96.77
372.16	59.9
372.371	10.75
372.582	27.14
372.792	20.99
373.003	64
373.214	12.8
373.424	37.38
373.635	-22.02
373.846	92.67
374.056	33.28
374.267	20.99
374.477	49.66
374.688	20.99
374.898	-28.16
375.109	72.19
375.319	-26.11
375.53	0.51
375.74	-5.63
375.951	-15.87
376.161	14.85
376.372	66.05
376.582	27.14
376.793	33.28
377.003	29.18
377.214	29.18
377.424	-13.82
377.635	41.47
377.845	-46.59
378.055	84.48
378.266	37.38
378.476	68.09
378.686	10.75
378.897	59.9
379.107	25.09
379.317	70.14
379.528	18.94
379.738	84.48
379.948	39.42
380.158	-3.58
380.369	-42.5
380.579	-5.63
380.789	20.99
380.999	16.9
381.21	-42.5
381.42	96.77
381.63	12.8
381.84	37.38
382.05	20.99
382.261	59.9
382.471	10.75
382.681	-15.87
382.891	33.28
383.101	115.2
383.311	84.48
383.521	-30.21
383.731	16.9
383.941	-3.58
384.151	86.53
384.361	80.38
384.571	-34.3
384.781	55.81
384.991	4.61
385.201	64
385.411	14.85
385.621	33.28
385.831	37.38
386.041	72.19
386.251	49.66
386.461	23.04
386.671	45.57
386.881	88.57
387.091	27.14
387.301	57.86
387.511	0.51
387.72	20.99
387.93	76.29
388.14	72.19
388.35	84.48
388.56	76.29
388.769	55.81
388.979	-32.26
389.189	43.52
389.399	53.76
389.609	113.15
389.818	12.8
390.028	51.71
390.238	59.9
390.447	-67.07
390.657	-5.63
390.867	102.91
391.076	14.85
391.286	6.66
391.496	45.57
391.705	16.9
391.915	10.75
392.125	96.77
392.334	2.56
392.544	86.53
392.753	29.18
392.963	51.71
393.172	16.9
393.382	-5.63
393.591	49.66
393.801	74.24
394.01	84.48
394.22	66.05
394.429	37.38
394.639	-58.88
394.848	33.28
395.058	72.19
395.267	31.23
395.477	84.48
395.686	74.24
395.895	12.8
396.105	90.62
396.314	49.66
396.524	121.34
396.733	39.42
396.942	94.72
397.152	4.61
397.361	92.67
397.57	20.99
397.78	94.72
397.989	35.33
398.198	74.24
398.407	137.73
398.617	135.68
398.826	55.81
399.035	86.53
399.244	23.04
399.453	55.81
399.663	119.29
399.872	39.42
400.081	-60.93
400.29	98.81
400.499	82.43
400.708	66.05
400.917	14.85
401.127	47.62
401.336	35.33
401.545	98.81
401.754	90.62
401.963	139.77
402.172	76.29
402.381	45.57
402.59	61.95
402.799	43.52
403.008	111.1
403.217	80.38
403.426	141.82
403.635	57.86
403.844	123.39
404.053	84.48
404.262	47.62
404.471	209.4
404.68	147.97
404.888	119.29
405.097	164.35
405.306	70.14
405.515	111.1
405.724	135.68
405.933	201.21
406.142	188.93
406.35	98.81
406.559	145.92
406.768	115.2
406.977	123.39
407.185	217.6
407.394	238.08
407.603	82.43
407.812	209.4
408.02	182.78
408.229	152.06
408.438	164.35
408.646	188.93
408.855	180.73
409.064	219.64
409.272	176.64
409.481	225.79
409.69	227.84
409.898	268.8
410.107	311.8
410.315	252.41
410.524	223.74
410.733	326.14
410.941	186.88
411.15	283.13
411.358	305.66
411.567	328.19
411.775	315.9
411.984	406.01
412.192	322.04
412.401	424.44
412.609	451.07
412.818	393.72
413.026	336.38
413.234	426.49
413.443	336.38
413.651	416.25
413.86	477.69
414.068	567.8
414.276	580.09
414.485	418.3
414.693	520.7
414.901	549.37
415.11	549.37
415.318	604.66
415.526	619
415.734	748.02
415.943	657.91
416.151	735.73
416.359	664.05
416.567	840.18
416.776	743.92
416.984	817.65
417.192	799.22
417.4	909.81
417.608	848.37
417.817	860.66
418.025	967.15
418.233	1008.11
418.441	999.92
418.649	1024.5
418.857	1188.33
419.065	1079.79
419.273	1143.28
419.481	1227.25
419.689	1233.39
419.897	1231.34
420.105	1364.46
420.313	1280.49
420.521	1409.51
420.729	1520.1
420.937	1442.28
421.145	1589.74
421.353	1567.21
421.561	1622.5
421.769	1749.48
421.977	1847.78
422.185	1821.16
422.393	1944.03
422.601	2011.62
422.809	1919.46
423.017	2089.44
423.224	2181.6
423.432	2288.09
423.64	2251.23
423.848	2507.23
424.056	2337.24
424.263	2564.57
424.471	2441.69
424.679	2527.71
424.887	2736.6
425.094	2843.09
425.302	2791.89
425.51	2918.87
425.718	3039.7
425.925	3004.88
426.133	3205.58
426.341	3326.41
426.548	3451.34
426.756	3353.04
426.964	3551.69
427.171	3662.28
427.379	3652.04
427.586	3807.69
427.794	4043.2
428.001	4073.92
428.209	4274.62
428.417	4321.73
428.624	4487.61
428.832	4544.95
429.039	4485.56
429.247	4436.41
429.454	5095.86
429.662	5237.17
429.869	5048.75
430.076	5200.3
430.284	5159.35
430.491	5222.83
430.699	5704.1
430.906	5718.44
431.114	5560.75
431.321	5999.01
431.528	6009.25
431.736	6369.69
431.943	6877.59
432.15	6660.51
432.358	6568.35
432.565	7033.24
432.772	6969.75
432.979	7278.99
433.187	7381.39
433.394	7561.61
433.601	8028.55
433.808	8128.9
434.016	8028.55
434.223	8518.01
434.43	8984.95
434.637	8489.34
434.844	9257.33
435.052	9367.92
435.259	9398.64
435.466	9431.41
435.673	9173.36
435.88	10137.96
436.087	10539.36
436.294	10432.86
436.501	10250.6
436.708	10436.96
436.915	10740.06
437.122	11067.74
437.329	11100.5
437.537	11549.01
437.743	11762
437.95	11796.81
438.157	12288.32
438.364	12521.79
438.571	12659.01
438.778	12675.39
438.985	13871.4
439.192	13367.6
439.399	13644.08
439.606	13447.47
439.813	13936.94
440.02	15065.37
440.227	14756.13
440.433	14401.83
440.64	15249.69
440.847	14946.59
441.054	15415.57
441.261	16560.39
441.467	16042.25
441.674	16560.39
441.881	17223.93
442.088	16787.71
442.294	17058.04
442.501	17256.7
442.708	17668.34
442.914	18424.04
443.121	19103.96
443.328	18708.71
443.534	19970.26
443.741	19493.08
443.948	18954.46
444.154	20517.06
444.361	20218.06
444.568	20529.35
444.774	20670.66
444.981	20762.82
445.187	21336.25
445.394	22012.08
445.6	21805.24
445.807	24240.27
446.013	22937.76
446.22	23392.41
446.426	24033.43
446.633	24643.72
446.839	25192.58
447.046	24017.04
447.252	25702.52
447.459	25575.55
447.665	25315.45
447.871	26673.26
448.078	27809.88
448.284	26183.79
448.491	26841.19
448.697	28041.3
448.903	28495.95
449.11	28635.21
449.316	28151.89
449.522	28565.58
449.728	29485.12
449.935	29679.68
450.141	29431.87
450.347	30191.67
450.553	29458.49
450.76	29343.81
450.966	30472.24
451.172	29911.1
451.378	30517.29
451.584	30183.48
451.791	31066.15
451.997	30586.93
452.203	31391.78
452.409	31373.35
452.615	31123.49
452.821	29892.66
453.027	29814.84
453.233	31340.58
453.44	29827.13
453.646	29997.11
453.852	30343.22
454.058	30894.12
454.264	29603.9
454.47	30462
454.676	29724.73
454.882	30638.12
455.088	27981.91
455.294	28041.3
455.5	28803.14
455.705	28844.1
455.911	27912.28
456.117	27250.78
456.323	26980.45
456.529	25489.53
456.735	26361.97
456.941	25847.93
457.147	25553.02
457.352	24887.43
457.558	24316.04
457.764	24340.62
457.97	23793.81
458.176	23369.88
458.381	23558.3
458.587	22151.34
458.793	22528.17
458.999	20883.65
459.204	22739.11
459.41	21678.26
459.616	20652.23
459.821	20646.08
460.027	20527.3
460.233	20099.28
460.438	18962.65
460.644	19259.61
460.85	18378.98
461.055	17918.19
461.261	17903.85
461.466	16685.31
461.672	16290.06
461.878	17338.62
462.083	16333.06
462.289	15960.33
462.494	15919.37
462.7	15255.83
462.905	14657.82
463.111	15358.23
463.316	15190.3
463.522	14975.26
463.727	14928.16
463.932	14893.34
464.138	14948.64
464.343	14661.92
464.549	14444.84
464.754	14895.39
464.959	14698.78
465.165	14483.75
465.37	14070.06
465.575	13832.49
465.781	14070.06
465.986	14190.89
466.191	13748.53
466.397	13445.43
466.602	12810.56
466.807	13470
467.012	13275.45
467.218	13404.47
467.423	12912.95
467.628	13277.49
467.833	13586.74
468.038	13269.3
468.244	12835.13
468.449	13459.76
468.654	13125.94
468.859	12849.47
469.064	12716.35
469.269	12370.24
469.474	12337.48
469.679	12577.09
469.885	12206.41
470.09	12390.72
470.295	12214.6
470.5	11927.88
470.705	12097.86
470.91	11934.03
471.115	11690.32
471.32	11827.53
471.525	11680.08
471.73	11530.58
471.935	11323.73
472.139	10928.47
472.344	11047.26
472.549	11145.56
472.754	10905.95
472.959	10631.52
473.164	10459.49
473.369	10463.58
473.574	10948.95
473.778	10797.4
473.983	10592.61
474.188	10430.82
474.393	10010.98
474.598	10240.36
474.802	10008.94
475.007	9943.4
475.212	9961.83
475.417	9408.88
475.621	9699.69
475.826	9795.95
476.031	9378.16
476.235	9359.73
476.44	9607.53
476.645	9329.01
476.849	9251.19
477.054	9146.74
477.259	9140.6
477.463	9032.05
477.668	8710.52
477.872	8843.64
478.077	8794.49
478.282	8522.11
478.486	8239.49
478.691	8450.43
478.895	8491.39
479.1	8249.73
479.304	8581.5
479.509	8157.57
479.713	8233.35
479.918	8036.74
480.122	7901.58
480.326	8130.95
480.531	8085.89
480.735	8016.26
480.94	7877
481.144	8282.5
481.348	7848.33
481.553	8053.13
481.757	7784.84
481.961	7983.49
482.166	7979.4
482.37	7958.92
482.574	7924.1
482.778	7725.45
482.983	8016.26
483.187	7823.75
483.391	7848.33
483.595	7678.35
483.8	7750.03
484.004	7885.19
484.208	7897.48
484.412	7827.85
484.616	7891.34
484.821	8024.45
485.025	7649.68
485.229	7766.41
485.433	7739.79
485.637	7864.71
485.841	7590.28
486.045	7811.46
486.249	7760.27
486.453	7643.53
486.657	7549.32
486.861	7616.91
487.065	7641.48
487.269	7813.51
487.473	7537.04
487.677	7989.64
487.881	7866.76
488.085	7721.35
488.289	7895.43
488.493	7881.1
488.697	7721.35
488.901	7967.11
489.105	7799.18
489.309	7913.86
489.512	7750.03
489.716	7897.48
489.92	7938.44
490.124	7795.08
490.328	7999.88
490.531	7930.25
490.735	8008.07
490.939	8022.41
491.143	8016.26
491.346	7952.77
491.55	8073.6
491.754	7950.73
491.958	8163.72
492.161	8067.46
492.365	8268.16
492.569	8272.26
492.772	8305.03
492.976	8413.57
493.18	8466.81
493.383	8417.66
493.587	8569.21
493.79	8812.92
493.994	8522.11
494.197	8558.97
494.401	8614.27
494.605	8616.32
494.808	8786.3
495.012	8839.55
495.215	9038.2
495.419	8943.99
495.622	8919.42
495.825	9001.33
496.029	9167.22
496.232	9333.11
496.436	9386.35
496.639	9400.69
496.843	9470.32
497.046	9767.27
497.249	9892.2
497.453	9787.75
497.656	9734.51
497.859	9810.28
498.063	9984.36
498.266	10135.91
498.469	10367.33
498.673	10518.88
498.876	10453.34
499.079	10502.5
499.282	10543.46
499.485	10920.28
499.689	10821.98
499.892	11137.37
500.095	11348.31
500.298	11346.26
500.501	11430.23
500.705	11444.56
500.908	11561.3
501.111	11921.74
501.314	11942.22
501.517	12013.9
501.72	12075.34
501.923	12079.43
502.126	12386.63
502.329	12640.58
502.532	12663.1
502.735	12648.77
502.938	13054.26
503.141	12951.87
503.344	13248.82
503.547	13463.86
503.75	13760.81
503.953	13644.08
504.156	13938.99
504.359	14209.32
504.562	14162.22
504.765	14369.06
504.968	14719.26
505.17	14668.06
505.373	14602.53
505.576	15120.67
505.779	15175.96
505.982	15302.93
506.185	15591.7
506.387	15380.76
506.59	15778.06
506.793	16044.3
506.996	15909.13
507.198	16722.18
507.401	16298.25
507.604	16595.2
507.807	16904.45
508.009	17086.72
508.212	17275.13
508.415	17518.84
508.617	17713.39
508.82	17737.97
509.022	17549.56
509.225	17991.92
509.428	18266.35
509.63	18292.97
509.833	18581.73
510.035	18825.44
510.238	18686.18
510.44	19359.96
510.643	19366.1
510.845	19914.96
511.048	19515.61
511.25	19767.51
511.453	19994.83
511.655	20590.79
511.858	20586.69
512.06	20721.86
512.262	20789.44
512.465	20947.14
512.667	21246.14
512.87	21446.84
513.072	21561.53
513.274	22366.38
513.477	22317.23
513.679	22724.77
513.881	22784.16
514.084	22778.02
514.286	22640.81
514.488	23103.65
514.69	23980.18
514.893	23720.09
515.095	23728.28
515.297	24309.9
515.499	24273.04
515.701	24318.09
515.904	25038.98
516.106	25247.87
516.308	25477.24
516.51	25227.39
516.712	25864.31
516.914	26085.49
517.116	26161.26
517.318	26404.97
517.52	26347.63
517.722	26603.63
517.925	27011.17
518.127	27521.12
518.329	27639.9
518.531	27793.5
518.733	28227.67
518.935	28618.83
519.136	28344.4
519.338	28948.55
519.54	29155.4
519.742	29134.92
519.944	29319.23
520.146	29802.55
520.348	30079.03
520.55	30226.48
520.752	30486.57
520.954	30801.96
521.155	30597.17
521.357	31801.37
521.559	31748.12
521.761	31772.7
521.963	31750.17
522.164	32102.42
522.366	32249.88
522.568	33011.72
522.77	32804.88
522.971	33206.28
523.173	32923.66
523.375	33658.88
523.576	33515.52
523.778	33736.7
523.98	34267.13
524.181	34285.56
524.383	34498.55
524.584	35049.45
524.786	35137.51
524.988	34781.17
525.189	35377.12
525.391	35598.3
525.592	35739.61
525.794	35631.07
525.995	36065.24
526.197	36188.12
526.398	35973.08
526.6	36321.24
526.801	36902.86
527.003	37228.49
527.204	36693.97
527.406	37152.71
527.607	37226.44
527.808	37457.86
528.01	36999.12
528.211	37502.92
528.412	38303.67
528.614	37816.25
528.815	38352.82
529.016	38203.32
529.218	38012.86
529.419	38193.08
529.62	38553.52
529.822	38150.07
530.023	38438.84
530.224	38735.79
530.425	38555.57
530.626	38223.8
530.828	38692.79
531.029	39690.15
531.23	38938.54
531.431	39036.84
531.632	39270.31
531.833	39397.29
532.035	39362.47
532.236	39133.1
532.437	39636.9
532.638	39155.63
532.839	39610.28
533.04	39950.24
533.241	39290.79
533.442	39995.29
533.643	40038.3
533.844	39712.67
534.045	39761.83
534.246	39421.86
534.447	39886.75
534.648	39550.88
534.849	39909.28
535.05	39847.84
535.251	39767.97
535.451	39839.65
535.652	40089.5
535.853	39751.59
536.054	39849.89
536.255	39899.04
536.456	39788.45
536.657	40474.52
536.857	39735.2
537.058	39561.12
537.259	40021.92
537.46	40173.47
537.66	39794.59
537.861	40122.27
538.062	39516.07
538.263	39868.32
538.463	39612.32
538.664	39925.66
538.865	40361.88
539.065	40527.77
539.266	40046.49
539.466	40398.74
539.667	39634.85
539.868	40511.38
540.068	40243.1
540.269	40073.12
540.469	40234.91
540.67	39829.41
540.87	39819.17
541.071	39729.06
541.271	40183.71
541.472	39993.25
541.672	39487.4
541.873	39792.54
542.073	39655.33
542.274	40028.06
542.474	39483.3
542.675	39520.16
542.875	39876.51
543.075	39950.24
543.276	39221.16
543.476	40083.36
543.676	39731.11
543.877	40060.83
544.077	39825.31
544.277	39806.88
544.478	39716.77
544.678	39839.65
544.878	39126.95
545.078	39069.61
545.279	39323.56
545.479	39520.16
545.679	40134.56
545.879	39776.16
546.079	39870.37
546.28	39249.83
546.48	39298.98
546.68	39747.49
546.88	39833.5
547.08	39528.36
547.28	39378.86
547.48	39178.15
547.68	39686.05
547.88	39380.9
548.081	39301.03
548.281	39303.08
548.481	39360.42
548.681	40089.5
548.881	39739.3
549.081	39651.23
549.28	39024.56
549.48	39462.82
549.68	39282.6
549.88	39862.18
550.08	39221.16
550.28	39444.39
550.48	39163.82
550.68	39946.14
550.88	39210.92
551.08	39163.82
551.279	39282.6
551.479	38848.43
551.679	39022.51
551.879	39225.26
552.079	39274.41
552.278	39016.36
552.478	38838.19
552.678	39260.07
552.878	39282.6
553.077	39307.18
553.277	38621.11
553.477	38842.29
553.676	39036.84
553.876	38621.11
554.076	38647.73
554.275	39182.25
554.475	38180.79
554.674	38948.78
554.874	38637.49
555.074	38662.07
555.273	38823.86
555.473	39200.68
555.672	38512.56
555.872	38649.78
556.071	38852.53
556.271	38911.92
556.47	38481.84
556.67	38221.75
556.869	38240.18
557.068	38440.89
557.268	38270.9
557.467	38350.77
557.667	38184.89
557.866	38164.41
558.065	38393.78
558.265	37963.71
558.464	37660.61
558.663	38457.27
558.863	37433.28
559.062	38231.99
559.261	37570.5
559.461	38238.14
559.66	37232.58
559.859	37889.98
560.058	37177.29
560.258	37785.54
560.457	37220.3
560.656	37396.42
560.855	37363.65
561.054	37144.52
561.253	36857.81
561.453	37156.81
561.652	37271.5
561.851	37097.42
562.05	36870.09
562.249	36698.06
562.448	37248.97
562.647	36769.74
562.846	36792.27
563.045	36669.39
563.244	36181.98
563.443	36982.73
563.642	35989.47
563.841	36423.64
564.04	36059.1
564.239	36458.45
564.438	35497.95
564.637	36022.23
564.836	35682.27
565.035	35612.64
565.234	35432.42
565.432	35801.05
565.631	35225.57
565.83	35645.41
566.029	35051.5
566.228	35325.92
566.427	34967.53
566.625	35147.75
566.824	34779.12
567.023	34951.15
567.222	34166.77
567.42	34912.24
567.619	34439.15
567.818	34664.43
568.016	34105.34
568.215	34594.8
568.414	34224.12
568.612	34594.8
568.811	34082.81
569.01	34002.94
569.208	33609.73
569.407	34160.63
569.605	33400.83
569.804	33976.31
570.002	33193.99
570.201	33599.49
570.4	33159.17
570.598	33269.76
570.797	33167.37
570.995	33382.4
571.193	32618.51
571.392	32894.99
571.59	32581.65
571.789	32720.91
571.987	32501.78
572.186	32460.82
572.384	32382.99
572.582	32495.63
572.781	32684.05
572.979	32034.84
573.177	31997.98
573.376	32253.97
573.574	31741.98
573.772	31920.15
573.971	31625.25
574.169	31526.94
574.367	31418.4
574.565	31596.57
574.763	30957.61
574.962	31422.5
575.16	30574.64
575.358	31434.78
575.556	30550.06
575.754	31320.1
575.952	30570.54
576.151	31033.38
576.349	30277.68
576.547	30896.17
576.745	30732.33
576.943	30812.2
577.141	30115.89
577.339	30261.3
577.537	29861.94
577.735	30046.26
577.933	29943.86
578.131	30140.47
578.329	29872.18
578.527	29820.98
578.725	29943.86
578.923	29732.92
579.121	29286.47
579.319	29472.83
579.516	29691.96
579.714	29235.27
579.912	29268.03
580.11	29089.86
580.308	29382.72
580.506	28999.75
580.704	28995.65
580.901	28835.91
581.099	28942.41
581.297	28448.85
581.495	28495.95
581.692	28643.4
581.89	28409.93
582.088	28553.29
582.285	28014.68
582.483	28577.87
582.681	28000.34
582.878	27674.71
583.076	27662.43
583.274	28106.84
583.471	27379.81
583.669	27678.81
583.866	27523.16
584.064	27936.85
584.262	27539.55
584.459	27899.99
584.657	27189.35
584.854	27195.49
585.052	27056.23
585.249	27250.78
585.447	27390.05
585.644	27039.84
585.841	26906.73
586.039	27119.71
586.236	26447.98
586.434	26603.63
586.631	26753.13
586.828	26624.11
587.026	26368.11
587.223	26259.57
587.42	26046.58
587.618	26425.45
587.815	26079.35
588.012	25839.73
588.21	25917.56
588.407	25933.94
588.604	25976.95
588.801	25757.81
588.999	25718.9
589.196	25544.83
589.393	25421.95
589.59	25669.75
589.787	25301.12
589.984	25135.23
590.182	25237.63
590.379	25456.76
590.576	25342.08
590.773	24864.9
590.97	24791.17
591.167	25014.4
591.364	24305.81
591.561	24815.75
591.758	24684.68
591.955	24449.16
592.152	24676.49
592.349	24277.13
592.546	24801.41
592.743	24586.38
592.94	23824.53
593.137	24707.21
593.334	24553.61
593.531	23658.65
593.727	24086.67
593.924	23957.65
594.121	23836.82
594.318	23736.47
594.515	23535.77
594.712	23595.16
594.908	23687.32
595.105	23660.69
595.302	23343.26
595.499	23552.15
595.696	23177.37
595.892	23273.63
596.089	23503
596.286	23081.12
596.482	23216.29
596.679	23120.03
596.876	22821.03
597.072	22720.68
597.269	22868.13
597.466	22814.88
597.662	22456.49
597.859	22767.78
598.055	22782.12
598.252	22288.56
598.448	22208.69
598.645	22253.74
598.841	22046.9
599.038	22024.37
599.234	22270.12
599.431	21913.78
599.627	21809.33
599.824	22173.87
600.02	21647.54
600.217	21895.35
600.413	21401.79
600.609	21606.58
600.806	21592.25
601.002	21774.52
601.198	21403.83
601.395	21104.83
601.591	21182.65
601.787	20971.71
601.984	21237.95
602.18	21512.38
602.376	21133.5
602.572	21117.12
602.769	20828.35
602.965	20508.87
603.161	20910.27
603.357	20705.48
603.553	20586.69
603.75	20572.36
603.946	20531.4
604.142	20707.52
604.338	20467.91
604.534	20160.72
604.73	20201.68
604.926	20052.17
605.122	20224.2
605.318	20142.28
605.514	20025.55
605.71	19890.38
605.906	19951.82
606.102	20109.52
606.298	19894.48
606.494	19908.82
606.69	19769.55
606.886	19763.41
607.082	19519.7
607.278	19847.38
607.474	19357.91
607.67	19390.68
607.866	19364.06
608.062	19671.25
608.257	19417.3
608.453	19359.96
608.649	19536.09
608.845	19146.97
609.041	19159.26
609.236	19142.88
609.432	19110.11
609.628	18972.89
609.824	18741.47
610.019	18921.7
610.215	18925.79
610.411	18964.7
610.606	18815.2
610.802	18950.37
610.998	18710.75
611.193	18798.82
611.389	18497.77
611.584	18385.13
611.78	18462.95
611.976	18602.21
612.171	18596.07
612.367	18520.29
612.562	18782.43
612.758	18100.46
612.953	18415.85
613.149	18301.16
613.344	18288.87
613.539	18520.29
613.735	18518.25
613.93	18426.09
614.126	17903.85
614.321	18002.16
614.517	17873.14
614.712	18032.88
614.907	17924.33
615.103	18155.75
615.298	17764.59
615.493	17967.34
615.688	17512.69
615.884	17987.82
616.079	17527.03
616.274	17785.07
616.47	17559.8
616.665	17490.17
616.86	17541.36
617.055	17395.96
617.25	17707.25
617.445	17719.54
617.641	17178.87
617.836	17150.2
618.031	17309.94
618.226	17277.18
618.421	17113.34
618.616	17187.07
618.811	16933.12
619.006	17152.25
619.201	16750.85
619.396	16939.26
619.591	16695.55
619.786	16679.17
619.981	16738.56
620.176	16976.12
620.371	16191.75
620.566	16599.3
620.761	16423.17
620.956	16402.69
621.151	16220.42
621.346	16204.04
621.541	16257.29
621.735	16421.13
621.93	15884.56
622.125	16183.56
622.32	15767.82
622.515	15735.06
622.709	15755.54
622.904	15798.54
623.099	15337.75
623.294	15503.64
623.488	15296.79
623.683	15370.52
623.878	15266.07
624.072	15259.93
624.267	15063.32
624.462	14991.64
624.656	14909.72
624.851	14881.05
625.046	14448.93
625.24	14733.6
625.435	14465.32
625.629	14541.09
625.824	14076.2
626.018	14324.01
626.213	14168.36
626.407	14319.91
626.602	14133.54
626.796	14145.83
626.991	13990.19
627.185	14002.47
627.38	13990.19
627.574	13607.22
627.768	13445.43
627.963	13515.06
628.157	13515.06
628.352	13797.68
628.546	13386.04
628.74	13422.9
628.935	13080.89
629.129	13144.38
629.323	13009.21
629.517	12867.9
629.712	12798.27
629.906	12681.53
630.1	12652.86
630.294	12753.21
630.489	12534.08
630.683	12771.65
630.877	12271.94
631.071	12462.4
631.265	12521.79
631.459	12267.84
631.653	12216.65
631.848	12378.44
632.042	12198.21
632.236	11981.13
632.43	11874.63
632.624	12015.94
632.818	11850.06
633.012	11747.66
633.206	11657.55
633.4	11827.53
633.594	11438.42
633.788	11514.19
633.982	11475.28
634.176	11360.59
634.369	11508.05
634.563	11247.96
634.757	11127.13
634.951	11217.24
635.145	11125.08
635.339	11069.78
635.533	10846.55
635.726	11039.06
635.92	10733.92
636.114	10817.88
636.308	10647.9
636.501	10805.6
636.695	10682.72
636.889	10518.88
637.083	10486.11
637.276	10406.24
637.47	10344.8
637.664	10396
637.857	10402.15
638.051	10199.4
638.244	10195.3
638.438	9949.54
638.632	10074.47
638.825	9916.78
639.019	9810.28
639.212	9804.14
639.406	9843.05
639.599	9720.17
639.793	9859.43
639.986	9552.24
640.18	9703.79
640.373	9396.59
640.567	9501.04
640.76	9494.9
640.954	9306.48
641.147	9445.74
641.34	9167.22
641.534	9191.8
641.727	9333.11
641.92	9068.92
642.114	8964.47
642.307	9118.07
642.5	8894.84
642.694	8769.91
642.887	8997.24
643.08	8915.32
643.273	8782.2
643.467	8841.59
643.66	8767.87
643.853	8759.67
644.046	8466.81
644.239	8589.69
644.432	8558.97
644.626	8378.75
644.819	8425.86
645.012	8436.1
645.205	8169.86
645.398	8151.43
645.591	8135.04
645.784	8118.66
645.977	7938.44
646.17	8020.36
646.363	7856.52
646.556	7889.29
646.749	7780.75
646.942	8018.31
647.135	7854.47
647.328	7836.04
647.521	7723.4
647.714	7645.58
647.907	7657.87
648.099	7451.02
648.292	7864.71
648.485	7457.17
648.678	7436.69
648.871	7451.02
649.064	7442.83
649.256	7461.26
649.449	7451.02
649.642	7182.74
649.835	7158.16
650.027	7346.58
650.22	7147.92
650.413	7149.97
650.605	7223.7
650.798	7164.31
650.991	7014.8
651.183	6986.13
651.376	6820.25
651.568	6979.99
651.761	6891.93
651.954	6734.23
652.146	6785.43
652.339	6793.62
652.531	6680.99
652.724	6738.33
652.916	6513.05
653.109	6603.16
653.301	6609.31
653.494	6558.11
653.686	6547.87
653.879	6322.59
654.071	6414.75
654.263	6263.2
654.456	6433.18
654.648	6312.35
654.84	6232.48
655.033	6042.02
655.225	6281.63
655.417	6123.94
655.61	6214.05
655.802	6003.11
655.994	5964.2
656.186	6148.51
656.379	6226.34
656.571	6146.47
656.763	5937.57
656.955	5890.47
657.148	5904.81
657.34	5956.01
657.532	5894.57
657.724	5890.47
657.916	5728.68
658.108	5642.67
658.3	5677.48
658.492	5726.63
658.684	5579.18
658.876	5595.56
659.068	5611.95
659.26	5425.58
659.452	5581.23
659.644	5372.33
659.836	5513.64
660.028	5583.27
660.22	5409.2
660.412	5401.01
660.604	5323.18
660.796	5546.41
660.988	5206.45
661.18	5333.42
661.372	5331.37
661.563	5231.02
661.755	5298.61
661.947	5257.65
662.139	5257.65
662.331	5153.2
662.522	5026.23
662.714	5095.86
662.906	5200.3
663.097	5058.99
663.289	5038.52
663.481	4944.31
663.673	4866.49
663.864	4827.57
664.056	4999.6
664.247	4821.43
664.439	4714.94
664.631	4876.73
664.822	4968.88
665.014	4895.16
665.205	4903.35
665.397	4706.74
665.588	4712.89
665.78	4739.51
665.971	4542.91
666.163	4719.03
666.354	4620.73
666.546	4553.15
666.737	4622.78
666.929	4669.88
667.12	4796.85
667.311	4602.3
667.503	4538.81
667.694	4510.14
667.885	4460.99
668.077	4440.51
668.268	4403.64
668.459	4377.02
668.651	4483.52
668.842	4344.25
669.033	4157.89
669.224	4377.02
669.416	4417.98
669.607	4248
669.798	4284.86
669.989	4323.77
670.18	4317.63
670.371	4374.97
670.563	4278.72
670.754	4280.77
670.945	4174.27
671.136	4348.35
671.327	4229.57
671.518	4221.38
671.709	4170.18
671.9	4112.83
672.091	4180.42
672.282	4329.92
672.473	4248
672.664	4131.26
672.855	4225.47
673.046	4035.01
673.237	4123.07
673.428	4147.65
673.619	4141.5
673.809	4063.68
674	4114.88
674.191	4094.4
674.382	4014.53
674.573	3914.18
674.764	3977.67
674.954	4010.43
675.145	3942.85
675.336	4053.44
675.527	4053.44
675.717	3987.91
675.908	3951.04
676.099	4047.3
676.289	3975.62
676.48	4002.24
676.671	3799.49
676.861	3914.18
677.052	3815.88
677.243	3918.28
677.433	4037.06
677.624	3938.76
677.814	3885.51
678.005	3824.07
678.195	4102.59
678.386	4037.06
678.576	3908.04
678.767	3856.84
678.957	3946.95
679.148	3901.89
679.338	3834.31
679.529	3858.89
679.719	3844.55
679.909	3977.67
680.1	3848.65
680.29	3981.76
680.481	3791.3
680.671	3926.47
680.861	3895.75
681.052	3928.52
681.242	3813.83
681.432	3848.65
681.622	3901.89
681.813	3828.17
682.003	3932.61
682.193	3733.96
682.383	4059.59
682.573	3813.83
682.764	3938.76
682.954	3946.95
683.144	3860.93
683.334	3879.36
683.524	3807.69
683.714	3889.6
683.904	3785.16
684.094	3875.27
684.284	3809.73
684.474	3826.12
684.664	3910.08
684.854	3836.36
685.044	3912.13
685.234	3840.45
685.424	3678.66
685.614	3762.63
685.804	3920.32
685.994	3697.1
686.184	3891.65
686.374	3879.36
686.564	3776.97
686.753	3875.27
686.943	3748.29
687.133	3625.42
687.323	3899.84
687.513	3768.77
687.702	3666.38
687.892	3783.11
688.082	3508.68
688.272	3772.87
688.461	3635.66
688.651	3756.49
688.841	3520.97
689.03	3566.03
689.22	3461.58
689.41	3475.91
689.599	3551.69
689.789	3459.53
689.979	3568.07
690.168	3473.87
690.358	3434.96
690.547	3459.53
690.737	3555.79
690.926	3428.81
691.116	3404.24
691.305	3445.2
691.495	3488.2
691.684	3428.81
691.874	3496.39
692.063	3371.47
692.252	3324.37
692.442	3359.18
692.631	3310.03
692.82	3291.6
693.01	3138
693.199	3391.95
693.388	3289.55
693.578	3316.17
693.767	3326.41
693.956	3400.14
694.146	3391.95
694.335	3314.13
694.524	3281.36
694.713	3283.41
694.902	3350.99
695.092	3260.88
695.281	3283.41
695.47	3330.51
695.659	3291.6
695.848	3217.87
696.037	3170.77
696.226	3264.97
696.415	3154.38
696.604	3199.44
696.793	3086.8
696.982	3148.24
697.171	3123.66
697.36	3168.72
697.549	3172.82
697.738	3131.86
697.927	3133.9
698.116	3138
698.305	3062.23
698.494	3148.24
698.683	3117.52
698.872	3127.76
699.061	3111.38
699.25	3203.54
699.438	3131.86
699.627	3062.23
699.816	3166.67
700.005	3088.85
700.193	3088.85
700.382	3224.01
700.571	3011.03
700.76	3109.33
700.948	3090.9
701.137	3170.77
701.326	3174.86
701.514	3187.15
701.703	3056.08
701.892	3019.22
702.08	3230.16
702.269	3086.8
702.457	3054.03
702.646	3133.9
702.834	3148.24
703.023	3135.95
703.212	3084.75
703.4	3117.52
703.589	3121.62
703.777	3207.63
703.965	3027.41
704.154	3121.62
704.342	3219.92
704.531	3154.38
704.719	3119.57
704.907	3117.52
705.096	3113.42
705.284	3039.7
705.472	3168.72
705.661	3070.42
705.849	3193.3
706.037	3168.72
706.226	2994.64
706.414	3076.56
706.602	3035.6
706.79	3111.38
706.979	3176.91
707.167	3170.77
707.355	3107.28
707.543	3191.25
707.731	3187.15
707.919	3099.09
708.107	3185.1
708.296	3113.42
708.484	3205.58
708.672	3234.25
708.86	3144.14
709.048	3154.38
709.236	3248.59
709.424	3166.67
709.612	3090.9
709.8	3074.51
709.988	3195.34
710.176	3133.9
710.364	3230.16
710.551	3088.85
710.739	3082.7
710.927	3187.15
711.115	3148.24
711.303	3123.66
711.491	3252.69
711.679	3187.15
711.866	3197.39
712.054	3187.15
712.242	3133.9
712.43	3332.56
712.617	3099.09
712.805	3156.43
712.993	3178.96
713.181	3156.43
713.368	3267.02
713.556	3293.65
713.744	3142.1
713.931	3387.85
714.119	3234.25
714.306	3271.12
714.494	3195.34
714.682	3244.49
714.869	3244.49
715.057	3187.15
715.244	3221.97
715.432	3217.87
715.619	3283.41
715.807	3209.68
715.994	3369.42
716.182	3199.44
716.369	3195.34
716.556	3289.55
716.744	3133.9
716.931	3260.88
717.119	3353.04
717.306	3191.25
717.493	3314.13
717.681	3273.17
717.868	3244.49
718.055	3154.38
718.242	3324.37
718.43	3264.97
718.617	3228.11
718.804	3359.18
718.991	3232.21
719.179	3283.41
719.366	3215.82
719.553	3193.3
719.74	3285.45
719.927	3203.54
720.114	3254.73
720.301	3260.88
720.488	3250.64
720.676	3271.12
720.863	3181.01
721.05	3219.92
721.237	3213.77
721.424	3385.8
721.611	3271.12
721.798	3437
721.985	3219.92
722.172	3199.44
722.358	3189.2
722.545	3187.15
722.732	3181.01
722.919	3350.99
723.106	3172.82
723.293	3209.68
723.48	3211.73
723.667	3267.02
723.853	3246.54
724.04	3234.25
724.227	3248.59
724.414	3334.61
724.6	3336.65
724.787	3287.5
724.974	3236.3
725.161	3242.45
725.347	3293.65
725.534	3236.3
725.72	3312.08
725.907	3307.98
726.094	3211.73
726.28	3191.25
726.467	3164.62
726.653	3219.92
726.84	3234.25
727.027	3336.65
727.213	3076.56
727.4	3193.3
727.586	3219.92
727.773	3381.71
727.959	3191.25
728.145	3219.92
728.332	3133.9
728.518	3193.3
728.705	3338.7
728.891	3248.59
729.077	3203.54
729.264	3221.97
729.45	3070.42
729.636	3248.59
729.823	3158.48
730.009	3318.22
730.195	3289.55
730.382	3146.19
730.568	3232.21
730.754	3205.58
730.94	3174.86
731.126	3211.73
731.313	3277.26
731.499	3138
731.685	3183.06
731.871	3152.34
732.057	3176.91
732.243	3203.54
732.429	3183.06
732.615	3275.21
732.801	3258.83
732.987	3264.97
733.173	3172.82
733.359	3144.14
733.545	3138
733.731	3084.75
733.917	3181.01
734.103	3068.37
734.289	3056.08
734.475	3064.27
734.661	3232.21
734.847	3068.37
735.033	3183.06
735.219	3051.99
735.404	3131.86
735.59	3174.86
735.776	3006.93
735.962	3144.14
736.148	2996.69
736.333	3199.44
736.519	3074.51
736.705	3097.04
736.89	3035.6
737.076	3045.84
737.262	2916.82
737.447	3099.09
737.633	3076.56
737.819	3015.12
738.004	3029.46
738.19	3129.81
738.375	3043.79
738.561	3047.89
738.747	2990.55
738.932	2908.63
739.118	2937.3
739.303	2970.07
739.489	3023.31
739.674	2865.62
739.859	2849.24
740.045	2916.82
740.23	2898.39
740.416	2718.17
740.601	2781.65
740.786	2849.24
740.972	2839
741.157	2867.67
741.342	2832.85
741.528	2931.16
741.713	2875.86
741.898	2781.65
742.084	2904.53
742.269	2728.41
742.454	2824.66
742.639	2875.86
742.824	2752.98
743.01	2744.79
743.195	2789.85
743.38	2759.13
743.565	2695.64
743.75	2832.85
743.935	2734.55
744.12	2761.17
744.305	2597.34
744.49	2705.88
744.675	2689.49
744.86	2785.75
745.045	2603.48
745.23	2646.49
745.415	2587.1
745.6	2638.3
745.785	2603.48
745.97	2750.93
746.155	2453.98
746.34	2525.66
746.525	2494.94
746.71	2591.19
746.895	2507.23
747.079	2501.08
747.264	2396.64
747.449	2435.55
747.634	2494.94
747.819	2429.4
748.003	2359.77
748.188	2333.15
748.373	2451.93
748.557	2445.79
748.742	2417.12
748.927	2376.16
749.111	2370.01
749.296	2327
749.481	2222.56
749.665	2212.32
749.85	2171.36
750.034	2171.36
750.219	2306.52
750.404	2120.16
750.588	2165.21
750.773	2163.17
750.957	2068.96
751.141	2087.39
751.326	2136.54
751.51	2161.12
751.695	2111.97
751.879	2159.07
752.064	2050.53
752.248	2111.97
752.432	2103.78
752.617	1984.99
752.801	1974.75
752.985	2003.43
753.17	2019.81
753.354	1929.7
753.538	1913.31
753.722	1870.31
753.907	1976.8
754.091	1948.13
754.275	1931.75
754.459	1782.24
754.643	1884.64
754.828	1804.77
755.012	1876.45
755.196	1825.25
755.38	1786.34
755.564	1761.77
755.748	1731.05
755.932	1810.92
756.116	1759.72
756.3	1706.47
756.484	1698.28
756.668	1769.96
756.852	1712.61
757.036	1661.41
757.22	1618.41
757.404	1602.02
757.588	1673.7
757.772	1669.61
757.956	1577.45
758.14	1585.64
758.323	1597.93
758.507	1614.31
758.691	1487.34
758.875	1669.61
759.059	1540.58
759.242	1552.87
759.426	1573.35
759.61	1503.72
759.794	1501.67
759.977	1597.93
760.161	1567.21
760.345	1456.62
760.528	1468.91
760.712	1507.82
760.895	1509.86
761.079	1399.27
761.263	1343.98
761.446	1352.17
761.63	1425.9
761.813	1401.32
761.997	1413.61
762.18	1337.84
762.364	1442.28
762.547	1411.56
762.731	1450.47
762.914	1384.94
763.098	1333.74
763.281	1280.49
763.464	1462.76
763.648	1268.2
763.831	1331.69
764.015	1354.22
764.198	1356.27
764.381	1208.81
764.564	1358.32
764.748	1405.42
764.931	1319.4
765.114	1364.46
765.297	1272.3
765.481	1370.6
765.664	1229.29
765.847	1171.95
766.03	1204.72
766.213	1268.2
766.397	1255.92
766.58	1200.62
766.763	1247.72
766.946	1272.3
767.129	1233.39
767.312	1161.71
767.495	1188.33
767.678	1073.65
767.861	1239.53
768.044	1163.76
768.227	1145.33
768.41	1192.43
768.593	1159.66
768.776	1110.51
768.959	1159.66
769.142	1200.62
769.324	1108.46
769.507	1214.96
769.69	1184.24
769.873	1108.46
770.056	1120.75
770.239	1153.52
770.421	1112.56
770.604	1141.23
770.787	1104.37
770.97	1087.98
771.152	1040.88
771.335	1081.84
771.518	1020.4
771.7	1057.26
771.883	1100.27
772.066	1098.22
772.248	1063.41
772.431	1040.88
772.613	1038.83
772.796	1038.83
772.978	1038.83
773.161	1104.37
773.343	963.06
773.526	963.06
773.708	991.73
773.891	1022.45
774.073	958.96
774.256	862.71
774.438	983.54
774.621	938.48
774.803	997.87
774.985	918
775.168	905.71
775.35	840.18
775.532	950.77
775.715	823.8
775.897	881.14
776.079	973.3
776.261	905.71
776.444	874.99
776.626	825.84
776.808	877.04
776.99	831.99
777.173	772.6
777.355	897.52
777.537	815.6
777.719	848.37
777.901	774.64
778.083	750.07
778.265	752.12
778.447	758.26
778.629	807.41
778.811	752.12
778.993	760.31
779.175	805.36
779.357	793.08
779.539	680.44
779.721	651.77
779.903	766.45
780.085	795.12
780.267	676.34
780.449	647.67
780.631	725.49
780.812	786.93
780.994	795.12
781.176	655.86
781.358	723.44
781.54	741.88
781.721	698.87
781.903	621.05
782.085	610.81
782.267	635.38
782.448	733.68
782.63	616.95
782.812	606.71
782.993	598.52
783.175	637.43
783.357	621.05
783.538	557.56
783.72	530.94
783.901	528.89
784.083	631.29
784.264	547.32
784.446	539.13
784.627	541.18
784.809	539.13
784.99	528.89
785.172	528.89
785.353	555.51
785.535	596.47
785.716	518.65
785.897	487.93
786.079	504.31
786.26	508.41
786.441	608.76
786.623	512.5
786.804	516.6
786.985	512.5
787.167	549.37
787.348	432.63
787.529	580.09
787.71	596.47
787.891	455.16
788.073	541.18
788.254	369.15
788.435	489.98
788.616	537.08
788.797	457.21
788.978	492.02
789.159	424.44
789.34	520.7
789.522	481.78
789.703	406.01
789.884	430.59
790.065	463.35
790.246	422.39
790.427	373.24
790.607	506.36
790.788	451.07
790.969	406.01
791.15	377.34
791.331	485.88
791.512	352.76
791.693	473.59
791.874	418.3
792.054	420.35
792.235	379.39
792.416	354.81
792.597	424.44
792.778	317.95
792.958	412.15
793.139	410.11
793.32	444.92
793.5	313.85
793.681	414.2
793.862	373.24
794.042	342.52
794.223	315.9
794.404	375.29
794.584	363
794.765	381.43
794.945	266.75
795.126	322.04
795.306	393.72
795.487	299.52
795.667	279.04
795.848	363
796.028	328.19
796.209	229.88
796.389	350.71
796.57	330.23
796.75	330.23
796.93	266.75
797.111	309.76
797.291	346.62
797.471	320
797.652	227.84
797.832	283.13
798.012	360.95
798.192	264.7
798.373	262.65
798.553	274.94
798.733	270.84
798.913	287.23
799.093	365.05
799.274	301.56
799.454	297.47
799.634	225.79
799.814	403.96
799.994	328.19
800.174	303.61
800.354	254.46
800.534	262.65
800.714	344.57
800.894	287.23
801.074	270.84
801.254	279.04
801.434	301.56
801.614	324.09
801.794	221.69
801.974	791.03
802.154	264.7
802.334	180.73
802.514	254.46
802.693	344.57
802.873	260.6
803.053	291.32
803.233	180.73
803.413	287.23
803.592	238.08
803.772	258.56
803.952	199.16
804.131	205.31
804.311	285.18
804.491	365.05
804.67	221.69
804.85	164.35
805.03	219.64
805.209	276.99
805.389	178.69
805.568	238.08
805.748	254.46
805.928	242.17
806.107	150.01
806.287	281.08
806.466	190.97
806.646	160.25
806.825	311.8
807.004	229.88
807.184	188.93
807.363	117.25
807.543	233.98
807.722	221.69
807.901	242.17
808.081	225.79
808.26	180.73
808.439	231.93
808.619	217.6
808.798	174.59
808.977	156.16
809.156	250.36
809.336	135.68
809.515	279.04
809.694	193.02
809.873	147.97
810.052	266.75
810.231	190.97
810.411	256.51
810.59	135.68
810.769	279.04
810.948	197.12
811.127	129.53
811.306	137.73
811.485	137.73
811.664	246.27
811.843	178.69
812.022	201.21
812.201	233.98
812.38	180.73
812.559	154.11
812.737	170.49
812.916	82.43
813.095	107.01
813.274	221.69
813.453	233.98
813.632	182.78
813.811	229.88
813.989	102.91
814.168	248.32
814.347	252.41
814.526	94.72
814.704	145.92
814.883	127.49
815.062	168.45
815.24	96.77
815.419	152.06
815.598	209.4
815.776	82.43
815.955	207.36
816.133	129.53
816.312	133.63
816.49	160.25
816.669	176.64
816.847	221.69
817.026	109.05
817.204	84.48
817.383	193.02
817.561	119.29
817.74	129.53
817.918	125.44
818.097	154.11
818.275	170.49
818.453	127.49
818.632	229.88
818.81	115.2
818.988	199.16
819.167	135.68
819.345	129.53
819.523	72.19
819.701	156.16
819.879	166.4
820.058	74.24
820.236	150.01
820.414	80.38
820.592	111.1
820.77	135.68
820.948	121.34
821.127	72.19
821.305	84.48
821.483	51.71
821.661	156.16
821.839	213.5
822.017	51.71
822.195	98.81
822.373	197.12
822.551	145.92
822.729	141.82
822.907	123.39
823.085	143.87
823.262	66.05
823.44	76.29
823.618	127.49
823.796	45.57
823.974	29.18
824.152	115.2
824.329	94.72
824.507	102.91
824.685	131.58
824.863	64
825.04	107.01
825.218	45.57
825.396	82.43
825.574	127.49
825.751	70.14
825.929	125.44
826.107	64
826.284	119.29
826.462	53.76
826.639	164.35
826.817	82.43
826.994	135.68
827.172	90.62
827.349	131.58
827.527	127.49
827.704	47.62
827.882	80.38
828.059	72.19
828.237	41.47
828.414	145.92
828.591	41.47
828.769	72.19
828.946	113.15
829.124	137.73
829.301	156.16
829.478	104.96
829.655	86.53
829.833	117.25
830.01	25.09
830.187	51.71
830.364	115.2
830.542	158.21
830.719	121.34
830.896	164.35
831.073	39.42
831.25	82.43
831.427	125.44
831.604	119.29
831.782	55.81
831.959	133.63
832.136	121.34
832.313	70.14
832.49	78.33
832.667	39.42
832.844	137.73
833.021	107.01
833.198	109.05
833.374	129.53
833.551	90.62
833.728	66.05
833.905	57.86
834.082	18.94
834.259	86.53
834.436	76.29
834.612	49.66
834.789	47.62
834.966	43.52
835.143	74.24
835.319	115.2
835.496	121.34
835.673	47.62
835.85	20.99
836.026	70.14
836.203	12.8
836.38	0.51
836.556	74.24
836.733	12.8
836.909	102.91
837.086	88.57
837.262	55.81
837.439	57.86
837.616	70.14
837.792	23.04
837.968	80.38
838.145	-1.54
838.321	59.9
838.498	98.81
838.674	41.47
838.851	61.95
839.027	53.76
839.203	84.48
839.38	82.43
839.556	147.97
839.732	-7.68
839.909	92.67
840.085	35.33
840.261	23.04
840.437	123.39
840.614	14.85
840.79	59.9
840.966	25.09
841.142	29.18
841.318	55.81
841.494	96.77
841.671	176.64
841.847	25.09
842.023	-36.35
842.199	59.9
842.375	133.63
842.551	68.09
842.727	31.23
842.903	59.9
843.079	41.47
843.255	109.05
843.431	37.38
843.607	64
843.783	-54.78
843.959	12.8
844.134	23.04
844.31	82.43
844.486	55.81
844.662	-22.02
844.838	57.86
845.013	143.87
845.189	78.33
845.365	57.86
845.541	20.99
845.716	6.66
845.892	131.58
846.068	10.75
846.244	25.09
846.419	82.43
846.595	-75.26
846.77	51.71
846.946	37.38
847.122	53.76
847.297	14.85
847.473	51.71
847.648	-1.54
847.824	43.52
847.999	12.8
848.175	25.09
848.35	131.58
848.526	20.99
848.701	4.61
848.876	57.86
849.052	70.14
849.227	-3.58
849.403	53.76
849.578	121.34
849.753	-17.92
849.929	45.57
850.104	4.61
850.279	68.09
850.454	-15.87
850.63	100.86
850.805	2.56
850.98	29.18
851.155	80.38
851.33	66.05
851.505	31.23
851.681	66.05
851.856	41.47
852.031	20.99
852.206	27.14
852.381	33.28
852.556	33.28
852.731	27.14
852.906	25.09
853.081	0.51
853.256	49.66
853.431	31.23
853.606	-7.68
853.781	14.85
853.956	-34.3
854.131	14.85
854.305	12.8
854.48	-24.06
854.655	-65.02
854.83	-50.69
855.005	-15.87
855.18	6.66
855.354	16.9
855.529	-19.97
855.704	2.56
855.879	74.24
856.053	45.57
856.228	6.66
856.403	-44.54
856.577	39.42
856.752	-36.35
856.926	51.71
857.101	-34.3
857.276	-24.06
857.45	8.7
857.625	-9.73
857.799	-15.87
857.974	20.99
858.148	-65.02
858.323	96.77
858.497	-44.54
858.672	64
858.846	0.51
859.02	45.57
859.195	-60.93
859.369	2.56
859.543	8.7
859.718	20.99
859.892	-48.64
860.066	33.28
860.241	-62.98
860.415	20.99
860.589	45.57
860.763	16.9
860.938	14.85
861.112	53.76
861.286	29.18
861.46	-9.73
861.634	27.14
861.808	18.94
861.982	37.38
862.157	-46.59
862.331	-3.58
862.505	64
862.679	80.38
862.853	-60.93
863.027	-30.21
863.201	86.53
863.375	0.51
863.549	33.28
863.722	-19.97
863.896	18.94
864.07	-46.59
864.244	20.99
864.418	-28.16
864.592	51.71
864.766	-11.78
864.939	-9.73
865.113	-17.92
865.287	25.09
865.461	-7.68
865.634	0.51
865.808	6.66
865.982	0.51
866.156	29.18
866.329	-34.3
866.503	-42.5
866.676	-30.21
866.85	-24.06
867.024	-60.93
867.197	102.91
867.371	8.7
867.544	-9.73
867.718	-24.06
867.891	53.76
868.065	0.51
868.238	27.14
868.412	37.38
868.585	-15.87
868.759	41.47
868.932	6.66
869.105	-89.6
869.279	-28.16
869.452	-3.58
869.625	27.14
869.799	27.14
869.972	-40.45
870.145	-15.87
870.319	66.05
870.492	27.14
870.665	57.86
870.838	-24.06
871.011	-34.3
871.185	-116.22
871.358	37.38
871.531	-7.68
871.704	27.14
871.877	72.19
872.05	-11.78
872.223	-48.64
872.396	-34.3
872.569	8.7
872.742	-52.74
872.915	41.47
873.088	-83.45
873.261	-32.26
873.434	-9.73
873.607	-48.64
873.78	-17.92
873.953	-15.87
874.126	-11.78
874.299	-77.31
874.471	-22.02
874.644	10.75
874.817	55.81
874.99	-3.58
875.163	-58.88
875.335	6.66
875.508	25.09
875.681	27.14
875.853	-50.69
876.026	-7.68
876.199	4.61
876.371	35.33
876.544	-26.11
876.717	-81.41
876.889	-58.88
877.062	-30.21
877.234	29.18
877.407	57.86
877.579	-48.64
877.752	-24.06
877.924	49.66
878.097	14.85
878.269	-56.83
878.442	-15.87
878.614	-75.26
878.786	-77.31
878.959	0.51
879.131	-15.87
879.303	-3.58
879.476	8.7
879.648	33.28
879.82	18.94
879.993	41.47
880.165	-9.73
880.337	-24.06
880.509	-15.87
880.681	-3.58
880.854	-99.84
881.026	-32.26
881.198	90.62
881.37	-73.21
881.542	25.09
881.714	-75.26
881.886	-50.69
882.058	-42.5
882.23	-42.5
882.402	-32.26
882.574	-65.02
882.746	113.15
882.918	64
883.09	-69.12
883.262	53.76
883.434	-36.35
883.606	43.52
883.778	0.51
883.95	6.66
884.122	8.7
884.293	33.28
884.465	-26.11
884.637	12.8
884.809	-19.97
884.98	10.75
885.152	2.56
885.324	41.47
885.496	-28.16
885.667	-17.92
885.839	-32.26
886.011	8.7
886.182	-67.07
886.354	6.66
886.525	43.52
886.697	10.75
886.869	-13.82
887.04	-97.79
887.212	-19.97
887.383	14.85
887.555	-50.69
887.726	49.66
887.897	-48.64
888.069	-11.78
888.24	0.51
888.412	-7.68
888.583	23.04
888.754	-38.4
888.926	-60.93
889.097	-32.26
889.268	12.8
889.44	-22.02
889.611	-48.64
889.782	-60.93
889.953	33.28
890.125	12.8
890.296	25.09
890.467	-26.11
890.638	-40.45
890.809	-24.06
890.98	16.9
891.151	-34.3
891.323	8.7
891.494	-38.4
891.665	10.75
891.836	0.51
892.007	43.52
892.178	66.05
892.349	-44.54
892.52	-28.16
892.691	76.29
892.862	-79.36
893.032	8.7
893.203	-118.27
893.374	-60.93
893.545	-54.78
893.716	-79.36
893.887	45.57
894.057	-26.11
894.228	-40.45
894.399	-69.12
894.57	-54.78
894.74	-13.82
894.911	8.7
895.082	-32.26
895.253	8.7
895.423	43.52
895.594	-24.06
895.764	-40.45
895.935	-44.54
896.106	-24.06
896.276	-11.78
896.447	25.09
896.617	-46.59
896.788	-65.02
896.958	-19.97
897.129	16.9
897.299	31.23
897.47	16.9
897.64	4.61
897.81	18.94
897.981	29.18
898.151	-40.45
898.322	-1.54
898.492	-17.92
898.662	2.56
898.832	4.61
899.003	-17.92
899.173	-5.63
899.343	-17.92
899.513	-17.92
