Data from USB4F104151__45__10-23-06-678.txt Node

Date: Wed Mar 12 10:23:06 EDT 2025
User: louis
Spectrometer: USB4F10415
Trigger mode: 4
Integration Time (sec): 3.000000E-2
Scans to average: 1
Electric dark correction enabled: true
Nonlinearity correction enabled: false
Boxcar width: 0
XAxis mode: Wavelengths
Number of Pixels in Spectrum: 3648
>>>>>Begin Spectral Data<<<<<
178.204	-116.39
178.424	-116.39
178.644	-116.39
178.864	-132.78
179.084	-75.43
179.304	6.49
179.524	-50.86
179.744	-1.71
179.964	76.12
180.184	-11.95
180.404	12.63
180.624	22.87
180.844	35.16
181.064	10.58
181.283	8.53
181.503	-48.81
181.723	-59.05
181.943	-30.38
182.163	53.59
182.383	10.58
182.602	-1.71
182.822	55.64
183.042	121.17
183.262	-1.71
183.482	51.54
183.701	57.68
183.921	39.25
184.141	33.11
184.361	61.78
184.58	53.59
184.8	74.07
185.02	18.77
185.239	96.6
185.459	69.97
185.679	104.79
185.898	-42.67
186.118	104.79
186.338	35.16
186.557	55.64
186.777	55.64
186.997	53.59
187.216	78.16
187.436	158.03
187.655	26.96
187.875	33.11
188.095	12.63
188.314	63.83
188.534	121.17
188.753	51.54
188.973	18.77
189.192	57.68
189.412	51.54
189.631	88.4
189.851	-22.19
190.07	47.44
190.29	63.83
190.509	-20.14
190.729	33.11
190.948	37.2
191.168	92.5
191.387	10.58
191.607	6.49
191.826	-13.99
192.045	47.44
192.265	29.01
192.484	12.63
192.704	45.4
192.923	88.4
193.142	59.73
193.362	72.02
193.581	31.06
193.8	26.96
194.02	88.4
194.239	43.35
194.458	102.74
194.678	35.16
194.897	22.87
195.116	45.4
195.335	-48.81
195.555	45.4
195.774	29.01
195.993	51.54
196.212	43.35
196.432	-28.33
196.651	53.59
196.87	59.73
197.089	37.2
197.308	6.49
197.528	108.88
197.747	26.96
197.966	41.3
198.185	63.83
198.404	78.16
198.623	14.68
198.842	63.83
199.062	6.49
199.281	76.12
199.5	4.44
199.719	72.02
199.938	74.07
200.157	129.36
200.376	53.59
200.595	55.64
200.814	69.97
201.033	-26.28
201.252	69.97
201.471	90.45
201.69	37.2
201.909	61.78
202.128	-13.99
202.347	112.98
202.566	55.64
202.785	6.49
203.004	-46.76
203.223	63.83
203.442	6.49
203.661	43.35
203.879	123.22
204.098	102.74
204.317	20.82
204.536	49.49
204.755	76.12
204.974	125.27
205.193	158.03
205.411	90.45
205.63	65.88
205.849	51.54
206.068	72.02
206.287	31.06
206.505	-34.47
206.724	6.49
206.943	-44.71
207.162	-20.14
207.381	10.58
207.599	43.35
207.818	37.2
208.037	18.77
208.255	41.3
208.474	-13.99
208.693	-34.47
208.911	-28.33
209.13	82.26
209.349	12.63
209.567	29.01
209.786	53.59
210.005	96.6
210.223	86.36
210.442	-52.91
210.661	90.45
210.879	-11.95
211.098	61.78
211.316	14.68
211.535	102.74
211.753	33.11
211.972	61.78
212.191	133.46
212.409	37.2
212.628	31.06
212.846	-1.71
213.065	18.77
213.283	49.49
213.502	18.77
213.72	26.96
213.938	61.78
214.157	20.82
214.375	92.5
214.594	37.2
214.812	35.16
215.031	-13.99
215.249	18.77
215.467	20.82
215.686	18.77
215.904	117.08
216.122	-9.9
216.341	65.88
216.559	127.32
216.778	51.54
216.996	43.35
217.214	151.89
217.432	67.92
217.651	104.79
217.869	16.73
218.087	18.77
218.306	49.49
218.524	82.26
218.742	2.39
218.96	69.97
219.179	-7.85
219.397	35.16
219.615	78.16
219.833	26.96
220.051	-5.8
220.27	80.21
220.488	31.06
220.706	59.73
220.924	45.4
221.142	-5.8
221.36	37.2
221.578	74.07
221.796	67.92
222.015	100.69
222.233	0.34
222.451	61.78
222.669	-5.8
222.887	88.4
223.105	47.44
223.323	72.02
223.541	47.44
223.759	96.6
223.977	74.07
224.195	96.6
224.413	74.07
224.631	51.54
224.849	37.2
225.067	55.64
225.285	22.87
225.503	16.73
225.721	-28.33
225.939	35.16
226.157	-30.38
226.375	86.36
226.592	59.73
226.81	35.16
227.028	129.36
227.246	57.68
227.464	96.6
227.682	76.12
227.9	57.68
228.117	61.78
228.335	37.2
228.553	57.68
228.771	39.25
228.989	12.63
229.206	29.01
229.424	-3.75
229.642	65.88
229.86	16.73
230.077	39.25
230.295	6.49
230.513	57.68
230.731	-7.85
230.948	106.84
231.166	119.12
231.384	72.02
231.601	41.3
231.819	94.55
232.037	47.44
232.254	8.53
232.472	35.16
232.689	18.77
232.907	74.07
233.125	10.58
233.342	104.79
233.56	6.49
233.777	94.55
233.995	131.41
234.213	39.25
234.43	65.88
234.648	63.83
234.865	-1.71
235.083	47.44
235.3	37.2
235.518	76.12
235.735	26.96
235.953	39.25
236.17	37.2
236.388	41.3
236.605	84.31
236.822	63.83
237.04	26.96
237.257	29.01
237.475	43.35
237.692	78.16
237.909	24.92
238.127	51.54
238.344	51.54
238.562	16.73
238.779	10.58
238.996	49.49
239.214	39.25
239.431	8.53
239.648	-3.75
239.865	59.73
240.083	78.16
240.3	31.06
240.517	-1.71
240.735	57.68
240.952	96.6
241.169	67.92
241.386	-3.75
241.603	135.51
241.821	47.44
242.038	51.54
242.255	72.02
242.472	10.58
242.689	67.92
242.907	80.21
243.124	10.58
243.341	14.68
243.558	53.59
243.775	63.83
243.992	37.2
244.209	53.59
244.426	129.36
244.643	49.49
244.86	47.44
245.078	82.26
245.295	63.83
245.512	35.16
245.729	55.64
245.946	84.31
246.163	12.63
246.38	96.6
246.597	35.16
246.814	47.44
247.031	-11.95
247.248	110.93
247.464	37.2
247.681	72.02
247.898	35.16
248.115	18.77
248.332	-5.8
248.549	90.45
248.766	57.68
248.983	86.36
249.2	8.53
249.417	0.34
249.633	55.64
249.85	-22.19
250.067	67.92
250.284	55.64
250.501	59.73
250.717	20.82
250.934	-26.28
251.151	16.73
251.368	43.35
251.585	49.49
251.801	12.63
252.018	59.73
252.235	76.12
252.451	69.97
252.668	41.3
252.885	-22.19
253.102	55.64
253.318	20.82
253.535	61.78
253.752	-5.8
253.968	69.97
254.185	-1.71
254.401	94.55
254.618	84.31
254.835	47.44
255.051	119.12
255.268	102.74
255.484	33.11
255.701	57.68
255.917	47.44
256.134	41.3
256.351	43.35
256.567	10.58
256.784	-18.09
257	22.87
257.217	29.01
257.433	14.68
257.65	12.63
257.866	88.4
258.082	39.25
258.299	100.69
258.515	69.97
258.732	35.16
258.948	-5.8
259.165	29.01
259.381	96.6
259.597	-3.75
259.814	-5.8
260.03	78.16
260.246	57.68
260.463	117.08
260.679	94.55
260.895	72.02
261.112	41.3
261.328	35.16
261.544	-63.15
261.761	51.54
261.977	86.36
262.193	-22.19
262.409	65.88
262.626	106.84
262.842	47.44
263.058	-11.95
263.274	8.53
263.49	31.06
263.707	115.03
263.923	80.21
264.139	31.06
264.355	-28.33
264.571	53.59
264.787	-18.09
265.004	65.88
265.22	49.49
265.436	96.6
265.652	49.49
265.868	39.25
266.084	16.73
266.3	102.74
266.516	33.11
266.732	49.49
266.948	53.59
267.164	39.25
267.38	43.35
267.596	20.82
267.812	133.46
268.028	82.26
268.244	94.55
268.46	86.36
268.676	10.58
268.892	49.49
269.108	31.06
269.324	86.36
269.54	37.2
269.756	133.46
269.972	80.21
270.188	12.63
270.403	29.01
270.619	90.45
270.835	2.39
271.051	22.87
271.267	-1.71
271.483	31.06
271.698	39.25
271.914	63.83
272.13	-11.95
272.346	104.79
272.562	2.39
272.777	90.45
272.993	49.49
273.209	69.97
273.425	80.21
273.64	24.92
273.856	26.96
274.072	90.45
274.287	16.73
274.503	139.6
274.719	94.55
274.934	-13.99
275.15	-1.71
275.366	139.6
275.581	80.21
275.797	67.92
276.012	-18.09
276.228	43.35
276.444	67.92
276.659	110.93
276.875	112.98
277.09	-13.99
277.306	14.68
277.521	121.17
277.737	-24.23
277.952	51.54
278.168	6.49
278.383	90.45
278.599	59.73
278.814	67.92
279.03	-1.71
279.245	43.35
279.461	43.35
279.676	98.64
279.892	78.16
280.107	24.92
280.322	29.01
280.538	10.58
280.753	55.64
280.969	4.44
281.184	10.58
281.399	47.44
281.615	45.4
281.83	125.27
282.045	78.16
282.26	35.16
282.476	115.03
282.691	22.87
282.906	65.88
283.122	47.44
283.337	-1.71
283.552	22.87
283.767	-18.09
283.983	92.5
284.198	20.82
284.413	78.16
284.628	-34.47
284.843	-52.91
285.058	78.16
285.274	57.68
285.489	41.3
285.704	-13.99
285.919	88.4
286.134	80.21
286.349	14.68
286.564	-40.62
286.779	86.36
286.995	72.02
287.21	39.25
287.425	39.25
287.64	-5.8
287.855	-38.57
288.07	31.06
288.285	-11.95
288.5	4.44
288.715	53.59
288.93	59.73
289.145	-28.33
289.36	6.49
289.575	14.68
289.79	57.68
290.004	-20.14
290.219	98.64
290.434	-30.38
290.649	4.44
290.864	2.39
291.079	67.92
291.294	117.08
291.509	39.25
291.724	10.58
291.938	94.55
292.153	37.2
292.368	-16.04
292.583	37.2
292.798	43.35
293.012	47.44
293.227	94.55
293.442	63.83
293.657	72.02
293.871	76.12
294.086	29.01
294.301	88.4
294.516	147.8
294.73	59.73
294.945	4.44
295.16	33.11
295.374	90.45
295.589	76.12
295.804	104.79
296.018	26.96
296.233	108.88
296.447	26.96
296.662	31.06
296.877	92.5
297.091	31.06
297.306	88.4
297.52	20.82
297.735	43.35
297.949	6.49
298.164	96.6
298.378	31.06
298.593	12.63
298.807	24.92
299.022	94.55
299.236	76.12
299.451	96.6
299.665	37.2
299.88	29.01
300.094	67.92
300.309	-5.8
300.523	57.68
300.737	63.83
300.952	80.21
301.166	14.68
301.381	22.87
301.595	115.03
301.809	41.3
302.024	72.02
302.238	76.12
302.452	31.06
302.667	-24.23
302.881	106.84
303.095	67.92
303.309	92.5
303.524	98.64
303.738	72.02
303.952	37.2
304.166	92.5
304.381	37.2
304.595	80.21
304.809	4.44
305.023	45.4
305.237	33.11
305.452	137.56
305.666	35.16
305.88	-34.47
306.094	59.73
306.308	57.68
306.522	98.64
306.736	82.26
306.95	84.31
307.164	41.3
307.379	4.44
307.593	151.89
307.807	45.4
308.021	49.49
308.235	72.02
308.449	22.87
308.663	-30.38
308.877	112.98
309.091	104.79
309.305	4.44
309.519	59.73
309.733	90.45
309.947	20.82
310.161	2.39
310.374	69.97
310.588	76.12
310.802	26.96
311.016	51.54
311.23	92.5
311.444	69.97
311.658	35.16
311.872	43.35
312.085	-30.38
312.299	84.31
312.513	41.3
312.727	31.06
312.941	57.68
313.154	31.06
313.368	37.2
313.582	-32.43
313.796	53.59
314.009	61.78
314.223	33.11
314.437	69.97
314.651	18.77
314.864	31.06
315.078	6.49
315.292	67.92
315.505	45.4
315.719	37.2
315.933	45.4
316.146	16.73
316.36	20.82
316.573	90.45
316.787	67.92
317.001	106.84
317.214	55.64
317.428	24.92
317.641	-34.47
317.855	80.21
318.068	57.68
318.282	47.44
318.495	153.94
318.709	47.44
318.922	61.78
319.136	84.31
319.349	45.4
319.563	61.78
319.776	10.58
319.99	53.59
320.203	53.59
320.417	45.4
320.63	45.4
320.843	55.64
321.057	135.51
321.27	-1.71
321.483	37.2
321.697	37.2
321.91	96.6
322.124	14.68
322.337	72.02
322.55	33.11
322.763	90.45
322.977	88.4
323.19	4.44
323.403	22.87
323.617	8.53
323.83	55.64
324.043	-5.8
324.256	10.58
324.469	43.35
324.683	119.12
324.896	51.54
325.109	110.93
325.322	55.64
325.535	80.21
325.748	92.5
325.962	-1.71
326.175	53.59
326.388	43.35
326.601	31.06
326.814	24.92
327.027	14.68
327.24	76.12
327.453	53.59
327.666	43.35
327.879	133.46
328.092	67.92
328.305	92.5
328.518	69.97
328.731	61.78
328.944	121.17
329.157	39.25
329.37	43.35
329.583	80.21
329.796	104.79
330.009	133.46
330.222	10.58
330.435	35.16
330.648	92.5
330.861	43.35
331.073	80.21
331.286	61.78
331.499	41.3
331.712	-18.09
331.925	26.96
332.138	39.25
332.35	94.55
332.563	61.78
332.776	160.08
332.989	22.87
333.202	-32.43
333.414	55.64
333.627	78.16
333.84	110.93
334.053	112.98
334.265	22.87
334.478	49.49
334.691	69.97
334.903	33.11
335.116	94.55
335.329	24.92
335.541	76.12
335.754	63.83
335.966	-11.95
336.179	31.06
336.392	92.5
336.604	100.69
336.817	59.73
337.029	88.4
337.242	37.2
337.454	-18.09
337.667	49.49
337.88	115.03
338.092	-7.85
338.305	6.49
338.517	110.93
338.729	92.5
338.942	45.4
339.154	31.06
339.367	43.35
339.579	106.84
339.792	29.01
340.004	45.4
340.217	24.92
340.429	61.78
340.641	-32.43
340.854	43.35
341.066	94.55
341.278	57.68
341.491	110.93
341.703	98.64
341.915	55.64
342.128	69.97
342.34	94.55
342.552	57.68
342.764	18.77
342.977	20.82
343.189	55.64
343.401	59.73
343.613	-9.9
343.826	-3.75
344.038	43.35
344.25	72.02
344.462	59.73
344.674	-1.71
344.886	35.16
345.099	33.11
345.311	78.16
345.523	45.4
345.735	26.96
345.947	37.2
346.159	31.06
346.371	14.68
346.583	86.36
346.795	86.36
347.007	78.16
347.219	131.41
347.431	2.39
347.643	145.75
347.855	14.68
348.067	129.36
348.279	72.02
348.491	-11.95
348.703	69.97
348.915	29.01
349.127	88.4
349.339	59.73
349.551	67.92
349.763	119.12
349.975	65.88
350.187	147.8
350.399	53.59
350.61	96.6
350.822	4.44
351.034	96.6
351.246	106.84
351.458	112.98
351.669	117.08
351.881	69.97
352.093	26.96
352.305	115.03
352.517	80.21
352.728	51.54
352.94	61.78
353.152	55.64
353.363	51.54
353.575	6.49
353.787	112.98
353.999	133.46
354.21	72.02
354.422	18.77
354.633	33.11
354.845	53.59
355.057	80.21
355.268	29.01
355.48	92.5
355.692	22.87
355.903	88.4
356.115	35.16
356.326	59.73
356.538	45.4
356.749	35.16
356.961	102.74
357.172	61.78
357.384	59.73
357.595	170.32
357.807	67.92
358.018	12.63
358.23	-22.19
358.441	115.03
358.653	57.68
358.864	59.73
359.075	76.12
359.287	78.16
359.498	69.97
359.709	145.75
359.921	33.11
360.132	92.5
360.344	67.92
360.555	59.73
360.766	-11.95
360.977	47.44
361.189	94.55
361.4	82.26
361.611	67.92
361.823	127.32
362.034	55.64
362.245	37.2
362.456	18.77
362.667	90.45
362.879	84.31
363.09	72.02
363.301	86.36
363.512	80.21
363.723	78.16
363.935	-28.33
364.146	162.13
364.357	92.5
364.568	80.21
364.779	14.68
364.99	67.92
365.201	20.82
365.412	65.88
365.623	-13.99
365.834	49.49
366.045	108.88
366.256	121.17
366.467	55.64
366.678	90.45
366.889	88.4
367.1	14.68
367.311	53.59
367.522	31.06
367.733	98.64
367.944	49.49
368.155	69.97
368.366	67.92
368.577	88.4
368.788	174.42
368.999	-11.95
369.209	100.69
369.42	112.98
369.631	166.23
369.842	67.92
370.053	39.25
370.264	94.55
370.474	45.4
370.685	78.16
370.896	84.31
371.107	51.54
371.317	84.31
371.528	96.6
371.739	63.83
371.95	67.92
372.16	59.73
372.371	59.73
372.582	78.16
372.792	88.4
373.003	135.51
373.214	108.88
373.424	112.98
373.635	-1.71
373.846	59.73
374.056	96.6
374.267	43.35
374.477	67.92
374.688	74.07
374.898	8.53
375.109	84.31
375.319	151.89
375.53	92.5
375.74	69.97
375.951	4.44
376.161	67.92
376.372	119.12
376.582	104.79
376.793	69.97
377.003	88.4
377.214	22.87
377.424	-42.67
377.635	65.88
377.845	4.44
378.055	80.21
378.266	39.25
378.476	59.73
378.686	43.35
378.897	59.73
379.107	80.21
379.317	26.96
379.528	2.39
379.738	18.77
379.948	59.73
380.158	151.89
380.369	41.3
380.579	53.59
380.789	98.64
380.999	225.62
381.21	47.44
381.42	63.83
381.63	76.12
381.84	6.49
382.05	155.99
382.261	18.77
382.471	45.4
382.681	72.02
382.891	69.97
383.101	47.44
383.311	0.34
383.521	84.31
383.731	102.74
383.941	96.6
384.151	51.54
384.361	74.07
384.571	129.36
384.781	100.69
384.991	96.6
385.201	121.17
385.411	162.13
385.621	94.55
385.831	67.92
386.041	94.55
386.251	110.93
386.461	121.17
386.671	55.64
386.881	108.88
387.091	55.64
387.301	76.12
387.511	88.4
387.72	49.49
387.93	63.83
388.14	6.49
388.35	80.21
388.56	106.84
388.769	55.64
388.979	22.87
389.189	33.11
389.399	57.68
389.609	96.6
389.818	72.02
390.028	102.74
390.238	112.98
390.447	41.3
390.657	110.93
390.867	96.6
391.076	22.87
391.286	106.84
391.496	26.96
391.705	92.5
391.915	119.12
392.125	110.93
392.334	37.2
392.544	112.98
392.753	147.8
392.963	31.06
393.172	133.46
393.382	129.36
393.591	110.93
393.801	67.92
394.01	153.94
394.22	59.73
394.429	84.31
394.639	192.85
394.848	112.98
395.058	127.32
395.267	29.01
395.477	145.75
395.686	78.16
395.895	125.27
396.105	84.31
396.314	137.56
396.524	84.31
396.733	80.21
396.942	121.17
397.152	53.59
397.361	74.07
397.57	151.89
397.78	121.17
397.989	162.13
398.198	237.91
398.407	131.41
398.617	102.74
398.826	115.03
399.035	55.64
399.244	168.27
399.453	168.27
399.663	86.36
399.872	92.5
400.081	129.36
400.29	229.71
400.499	104.79
400.708	131.41
400.917	102.74
401.127	94.55
401.336	100.69
401.545	151.89
401.754	121.17
401.963	151.89
402.172	57.68
402.381	121.17
402.59	108.88
402.799	145.75
403.008	158.03
403.217	125.27
403.426	168.27
403.635	104.79
403.844	166.23
404.053	215.38
404.262	172.37
404.471	174.42
404.68	211.28
404.888	178.51
405.097	207.19
405.306	201.04
405.515	217.43
405.724	174.42
405.933	244.05
406.142	278.87
406.35	215.38
406.559	203.09
406.768	276.82
406.977	129.36
407.185	258.39
407.394	285.01
407.603	170.32
407.812	352.59
408.02	268.63
408.229	295.25
408.438	289.1
408.646	233.81
408.855	305.49
409.064	309.58
409.272	299.34
409.481	350.54
409.69	274.77
409.898	262.48
410.107	373.07
410.315	381.26
410.524	364.88
410.733	395.6
410.941	391.5
411.15	444.75
411.358	401.74
411.567	534.86
411.775	512.33
411.984	551.24
412.192	489.81
412.401	448.85
412.609	469.33
412.818	575.82
413.026	520.53
413.234	518.48
413.443	618.83
413.651	606.54
413.86	569.68
414.068	696.65
414.276	678.22
414.485	674.12
414.693	710.99
414.901	758.09
415.11	784.71
415.318	735.56
415.526	864.58
415.734	805.19
415.943	848.2
416.151	883.02
416.359	842.06
416.567	1003.85
416.776	969.03
416.984	1100.1
417.192	1141.06
417.4	1071.43
417.608	1155.4
417.817	1147.2
418.025	1235.27
418.233	1288.51
418.441	1186.12
418.649	1345.86
418.857	1524.03
419.065	1458.5
419.273	1403.2
419.481	1519.93
419.689	1530.17
419.897	1755.45
420.105	1655.1
420.313	1794.36
420.521	1806.65
420.729	1831.23
420.937	1773.88
421.145	1976.63
421.353	2085.17
421.561	2173.24
421.769	2126.13
421.977	2316.59
422.185	2220.34
422.393	2330.93
422.601	2533.68
422.809	2597.17
423.017	2554.16
423.224	2636.08
423.432	2763.05
423.64	2885.93
423.848	3072.29
424.056	3111.21
424.263	3023.14
424.471	3234.08
424.679	3387.68
424.887	3346.72
425.094	3549.47
425.302	3498.27
425.51	3569.95
425.718	3711.26
425.925	3772.7
426.133	3766.56
426.341	4077.85
426.548	4331.8
426.756	4368.66
426.964	4370.71
427.171	4548.88
427.379	4638.99
427.586	4753.68
427.794	5028.1
428.001	5130.5
428.209	5458.18
428.417	5425.41
428.624	5536
428.832	5683.45
429.039	5650.69
429.247	5728.51
429.454	6281.46
429.662	6682.86
429.869	6177.02
430.076	6637.81
430.284	6357.24
430.491	6920.43
430.699	6926.57
430.906	7108.84
431.114	7100.65
431.321	7389.41
431.528	7549.15
431.736	8020.19
431.943	8380.63
432.15	8114.39
432.358	8270.04
432.565	8603.86
432.772	8595.67
432.979	8902.86
433.187	9375.94
433.394	9294.02
433.601	10033.34
433.808	9939.13
434.016	9828.54
434.223	10320.06
434.43	10991.79
434.637	10725.55
434.844	11266.22
435.052	11554.98
435.259	11579.56
435.466	11378.86
435.673	11499.69
435.88	12495
436.087	12781.71
436.294	12949.65
436.501	12492.95
436.708	13000.85
436.915	13314.19
437.122	14012.54
437.329	13557.89
437.537	14274.68
437.743	14424.19
437.95	14372.99
438.157	15140.97
438.364	15345.77
438.571	15511.66
438.778	15759.46
438.985	17115.22
439.192	16281.69
439.399	17061.97
439.606	16500.83
439.813	17403.98
440.02	18473.02
440.227	18245.69
440.433	17807.43
440.64	18569.27
440.847	18368.57
441.054	18858.04
441.261	20060.2
441.467	20162.59
441.674	20318.24
441.881	20955.16
442.088	20983.83
442.294	20711.45
442.501	21438.48
442.708	21790.73
442.914	22818.81
443.121	23486.45
443.328	22810.62
443.534	24483.81
443.741	23441.39
443.948	23470.06
444.154	25362.39
444.361	24678.36
444.568	25100.25
444.774	25292.76
444.981	25376.72
445.187	26202.05
445.394	27209.65
445.6	26677.18
445.807	29331.35
446.013	28045.23
446.22	28596.13
446.426	29708.18
446.633	29984.65
446.839	30791.55
447.046	29812.62
447.252	31471.48
447.459	31530.87
447.665	31278.97
447.871	32440.17
448.078	33718.1
448.284	32221.03
448.491	33156.96
448.697	34168.65
448.903	34815.81
449.11	34989.89
449.316	34342.73
449.522	35020.61
449.728	35737.4
449.935	36415.27
450.141	36001.58
450.347	37179.17
450.553	35505.98
450.76	35766.07
450.966	37359.39
451.172	36978.47
451.378	37203.74
451.584	36923.17
451.791	37689.11
451.997	37660.44
452.203	38534.92
452.409	38326.03
452.615	37744.41
452.821	36210.48
453.027	36036.4
453.233	38215.44
453.44	36415.27
453.646	36904.74
453.852	36994.85
454.058	37265.18
454.264	36419.37
454.47	37013.28
454.676	36015.92
454.882	37236.51
455.088	34105.16
455.294	34594.63
455.5	34928.45
455.705	35286.84
455.911	34056.01
456.117	33689.43
456.323	32855.9
456.529	31139.71
456.735	32374.63
456.941	31651.7
457.147	31143.8
457.352	29931.4
457.558	29939.6
457.764	29454.23
457.97	28968.86
458.176	28632.99
458.381	28395.43
458.587	26881.98
458.793	27021.24
458.999	25790.41
459.204	27654.06
459.41	26931.13
459.616	25147.35
459.821	25243.6
460.027	25274.32
460.233	24471.52
460.438	23355.38
460.644	23515.12
460.85	22513.66
461.055	22263.81
461.261	22136.84
461.466	20705.31
461.672	19748.9
461.878	21209.11
462.083	19851.3
462.289	19505.2
462.494	19085.36
462.7	18440.25
462.905	18085.95
463.111	18444.35
463.316	18817.08
463.522	18276.41
463.727	18221.12
463.932	18131.01
464.138	18131.01
464.343	18169.92
464.549	17752.13
464.754	18278.46
464.959	17866.82
465.165	17936.45
465.37	17377.36
465.575	16717.91
465.781	17383.5
465.986	17610.82
466.191	16951.38
466.397	16447.58
466.602	15806.56
466.807	16457.82
467.012	16289.88
467.218	16261.21
467.423	15992.93
467.628	16177.25
467.833	16818.26
468.038	16115.81
468.244	15648.87
468.449	16361.56
468.654	15804.52
468.859	15716.45
469.064	15806.56
469.269	14944.37
469.474	15308.91
469.679	15616.1
469.885	15067.25
470.09	15198.32
470.295	15222.89
470.5	14608.5
470.705	14803.06
470.91	14440.57
471.115	14393.47
471.32	14561.4
471.525	14411.9
471.73	13971.58
471.935	14231.68
472.139	13478.02
472.344	13588.61
472.549	13680.77
472.754	13490.31
472.959	13275.27
473.164	12974.22
473.369	12746.9
473.574	13267.08
473.778	13138.06
473.983	12918.93
474.188	12621.97
474.393	12239
474.598	12398.74
474.802	12456.09
475.007	12185.76
475.212	12177.56
475.417	11888.8
475.621	11794.59
475.826	11710.63
476.031	11724.96
476.235	11524.26
476.44	11434.15
476.645	11239.59
476.849	11061.42
477.054	11364.52
477.259	10956.97
477.463	11004.08
477.668	10836.14
477.872	10877.1
478.077	10705.07
478.282	10346.68
478.486	10547.38
478.691	10369.21
478.895	10514.61
479.1	10242.23
479.304	10182.84
479.509	9838.78
479.713	10303.67
479.918	9984.19
480.122	9812.16
480.326	10143.93
480.531	9928.89
480.735	9803.97
480.94	9922.75
481.144	10010.81
481.348	9541.83
481.553	9621.7
481.757	9400.52
481.961	9654.47
482.166	9521.35
482.37	9685.19
482.574	9443.53
482.778	9685.19
482.983	9664.71
483.187	9593.03
483.391	9474.24
483.595	9599.17
483.8	9502.92
484.004	9564.36
484.208	9500.87
484.412	9580.74
484.616	9412.81
484.821	9676.99
485.025	9291.98
485.229	9525.44
485.433	9457.86
485.637	9521.35
485.841	9334.98
486.045	9410.76
486.249	9685.19
486.453	9443.53
486.657	9566.4
486.861	9599.17
487.065	9230.54
487.269	9445.57
487.473	9476.29
487.677	9625.79
487.881	9806.02
488.085	9386.18
488.289	9558.21
488.493	9650.37
488.697	9699.52
488.901	9529.54
489.105	9601.22
489.309	9683.14
489.512	9574.6
489.716	9732.29
489.92	9498.82
490.124	9679.04
490.328	9803.97
490.531	9654.47
490.735	9834.69
490.939	9810.11
491.143	9912.51
491.346	9806.02
491.55	10125.5
491.754	9769.15
491.958	9676.99
492.161	9973.95
492.365	9990.33
492.569	10168.51
492.772	10160.31
492.976	10107.07
493.18	10203.32
493.383	10252.47
493.587	10385.59
493.79	10729.65
493.994	10318.01
494.197	10361.02
494.401	10639.54
494.605	10645.68
494.808	10803.38
495.012	10586.29
495.215	10707.12
495.419	10821.81
495.622	11004.08
495.825	10959.02
496.029	11172.01
496.232	11315.37
496.436	11016.37
496.639	11638.95
496.843	11335.85
497.046	11704.48
497.249	11878.56
497.453	12050.59
497.656	11896.99
497.859	11980.96
498.063	12214.43
498.266	12681.36
498.469	12368.02
498.673	12312.73
498.876	12679.32
499.079	12982.42
499.282	12822.67
499.485	13248.65
499.689	13353.1
499.892	13209.74
500.095	13269.13
500.298	13770.88
500.501	13727.88
500.705	14205.05
500.908	14272.64
501.111	14266.49
501.314	14422.14
501.517	14438.52
501.72	14794.87
501.923	14805.11
502.126	15247.47
502.329	15216.75
502.532	15396.97
502.735	15358.06
502.938	15759.46
503.141	15816.8
503.344	16078.94
503.547	16343.13
503.75	16377.95
503.953	16765.01
504.156	16857.17
504.359	16740.44
504.562	16908.37
504.765	17594.44
504.968	17516.62
505.17	17860.68
505.373	17786.95
505.576	17932.36
505.779	18077.76
505.982	18354.24
506.185	18765.88
506.387	18595.9
506.59	18886.71
506.793	19486.76
506.996	19030.07
507.198	19730.47
507.401	19806.25
507.604	19886.12
507.807	20027.43
508.009	20467.74
508.212	20551.71
508.415	20725.79
508.617	21162
508.82	21100.56
509.022	21166.1
509.225	21751.82
509.428	21913.61
509.63	22063.11
509.833	22102.02
510.035	22540.29
510.238	22577.15
510.44	22960.12
510.643	22962.17
510.845	23187.44
511.048	23586.8
511.25	23597.04
511.453	23517.17
511.655	24686.56
511.858	24002.54
512.06	24430.56
512.262	24752.09
512.465	24960.98
512.667	25511.89
512.87	25917.39
513.072	25776.08
513.274	25853.9
513.477	26492.87
513.679	26681.28
513.881	26841.02
514.084	27348.92
514.286	27371.44
514.488	27477.94
514.69	27936.68
514.893	28278.69
515.095	28280.74
515.297	28657.57
515.499	28725.15
515.701	29118.36
515.904	29548.43
516.106	29370.26
516.308	29921.16
516.51	30138.25
516.712	29970.32
516.914	30406.53
517.116	31346.55
517.318	31182.71
517.52	31604.6
517.722	31354.74
517.925	31565.68
518.127	32284.52
518.329	32659.3
518.531	32454.5
518.733	33036.13
518.935	33013.6
519.136	33533.78
519.338	34162.51
519.54	33808.21
519.742	34672.45
519.944	34250.57
520.146	35204.92
520.348	35198.78
520.55	35348.28
520.752	35577.65
520.954	36263.72
521.155	36011.82
521.357	36947.75
521.559	36724.52
521.761	37170.97
521.963	36845.35
522.164	37431.07
522.366	37758.74
522.568	38182.67
522.77	38184.72
522.971	38782.73
523.173	38471.43
523.375	39337.73
523.576	39046.91
523.778	39304.96
523.98	39792.37
524.181	39988.98
524.383	40044.27
524.584	40761.06
524.786	40586.99
524.988	40099.57
525.189	40912.61
525.391	41115.36
525.592	41285.34
525.794	41557.72
525.995	41670.36
526.197	42051.28
526.398	41631.45
526.6	42030.8
526.801	42401.49
527.003	42540.75
527.204	42917.57
527.406	42782.41
527.607	42745.55
527.808	43640.51
528.01	42499.79
528.211	43161.28
528.412	43859.64
528.614	44035.77
528.815	43609.79
529.016	44091.06
529.218	43892.41
529.419	44121.78
529.62	44605.1
529.822	44490.41
530.023	44531.37
530.224	44457.65
530.425	44893.86
530.626	44324.53
530.828	44230.32
531.029	45211.3
531.23	44811.95
531.431	45053.61
531.632	45256.35
531.833	45436.58
532.035	45285.03
532.236	45215.4
532.437	45342.37
532.638	45518.49
532.839	45579.93
533.04	45285.03
533.241	45100.71
533.442	46360.21
533.643	46032.53
533.844	45256.35
534.045	46018.2
534.246	45113
534.447	45809.31
534.648	45786.78
534.849	46114.45
535.05	45213.35
535.251	45729.44
535.451	45999.77
535.652	46241.43
535.853	45909.66
536.054	46208.66
536.255	46362.26
536.456	45985.43
536.657	46114.45
536.857	45821.59
537.058	46032.53
537.259	46243.48
537.46	46472.85
537.66	46171.8
537.861	46374.55
538.062	46087.83
538.263	45936.28
538.463	45952.66
538.664	45674.14
538.865	46141.08
539.065	46331.54
539.266	45866.65
539.466	46380.69
539.667	45827.74
539.868	46235.28
540.068	45942.42
540.269	46079.64
540.469	46079.64
540.67	46165.65
540.87	46087.83
541.071	46001.82
541.271	46329.49
541.472	46100.12
541.672	45788.83
541.873	46202.52
542.073	45305.51
542.274	46399.12
542.474	46184.08
542.675	45545.12
542.875	46218.9
543.075	46462.61
543.276	45407.9
543.476	46253.72
543.676	45850.27
543.877	46153.37
544.077	46116.5
544.277	46296.72
544.478	46145.17
544.678	46112.41
544.878	46083.73
545.078	45786.78
545.279	45532.83
545.479	46073.49
545.679	45850.27
545.879	46010.01
546.079	45805.21
546.28	45909.66
546.48	45162.15
546.68	46196.37
546.88	45698.72
547.08	45555.36
547.28	45837.98
547.48	45280.93
547.68	45655.71
547.88	45887.13
548.081	45952.66
548.281	45788.83
548.481	45637.28
548.681	46352.02
548.881	45465.25
549.081	45702.81
549.28	45418.14
549.48	45938.33
549.68	45762.2
549.88	46087.83
550.08	45489.82
550.28	45723.29
550.48	45895.32
550.68	45938.33
550.88	45575.84
551.08	45729.44
551.279	45518.49
551.479	45248.16
551.679	45485.73
551.879	45235.88
552.079	45794.97
552.278	45631.13
552.478	45885.08
552.678	45579.93
552.878	46014.1
553.077	45170.34
553.277	45151.91
553.477	46300.82
553.676	45133.48
553.876	45555.36
554.076	45708.96
554.275	45229.73
554.475	44840.62
554.674	45661.85
554.874	45436.58
555.074	45606.56
555.273	45033.13
555.473	45063.85
555.672	44869.29
555.872	45186.72
556.071	45393.57
556.271	45538.97
556.47	44783.27
556.67	44721.83
556.869	44936.87
557.068	44891.82
557.268	44641.96
557.467	44621.48
557.667	44558
557.866	44873.38
558.065	44785.32
558.265	44246.71
558.464	43996.85
558.663	44568.24
558.863	44252.85
559.062	44770.99
559.261	44232.37
559.461	44750.51
559.66	44103.35
559.859	44244.66
560.058	43830.97
560.258	44140.21
560.457	43540.16
560.656	44117.68
560.855	43753.15
561.054	44101.3
561.253	43708.09
561.453	43765.43
561.652	43773.63
561.851	43683.51
562.05	43579.07
562.249	43138.76
562.448	43540.16
562.647	43491.01
562.846	43499.2
563.045	43212.48
563.244	42778.31
563.443	43435.71
563.642	42641.1
563.841	42890.95
564.04	42704.59
564.239	43046.6
564.438	42264.27
564.637	42618.57
564.836	42548.94
565.035	42241.74
565.234	42213.07
565.432	41987.8
565.631	41969.36
565.83	42278.61
566.029	42002.13
566.228	41907.93
566.427	41778.9
566.625	41602.78
566.824	41133.79
567.023	41787.1
567.222	40656.62
567.42	41955.03
567.619	41037.54
567.818	40826.6
568.016	40853.22
568.215	41223.9
568.414	40967.91
568.612	41213.66
568.811	40646.38
569.01	40683.24
569.208	40353.52
569.407	40564.46
569.605	40163.06
569.804	40460.01
570.002	40130.29
570.201	40474.35
570.4	39796.47
570.598	40197.87
570.797	39964.4
570.995	39307.01
571.193	39692.02
571.392	39894.77
571.59	39083.78
571.789	39198.46
571.987	39233.28
572.186	39214.85
572.384	38881.03
572.582	39100.16
572.781	38917.89
572.979	38383.37
573.177	38895.36
573.376	38721.29
573.574	38629.13
573.772	38491.91
573.971	38526.73
574.169	37834.52
574.367	37963.54
574.565	38002.45
574.763	37672.73
574.962	37736.21
575.16	37459.74
575.358	37603.1
575.556	37594.9
575.754	37642.01
575.952	37097.25
576.151	37566.23
576.349	36921.12
576.547	37117.73
576.745	37232.41
576.943	37150.49
577.141	37064.48
577.339	36966.18
577.537	36693.8
577.735	36474.66
577.933	36259.63
578.131	36282.16
578.329	36153.13
578.527	35862.32
578.725	36206.38
578.923	36079.41
579.121	35788.6
579.319	35569.46
579.516	35872.56
579.714	35966.77
579.912	35446.58
580.11	35508.02
580.308	35510.07
580.506	35532.6
580.704	34727.75
580.901	34996.03
581.099	35407.67
581.297	34922.3
581.495	34983.74
581.692	35147.58
581.89	34549.57
582.088	34860.87
582.285	34484.04
582.483	34662.21
582.681	34701.12
582.878	34287.43
583.076	33750.87
583.274	34240.33
583.471	33877.84
583.669	33861.46
583.866	33834.83
584.064	33937.23
584.262	33566.55
584.459	33681.24
584.657	33388.38
584.854	33388.38
585.052	33206.11
585.249	33443.67
585.447	33562.45
585.644	32909.15
585.841	33056.6
586.039	33349.46
586.236	32386.92
586.434	32538.47
586.631	32255.85
586.828	32845.66
587.026	32657.25
587.223	32423.78
587.42	32184.17
587.618	32440.17
587.815	31911.79
588.012	32075.63
588.21	31833.97
588.407	31905.65
588.604	32098.16
588.801	31285.11
588.999	31653.75
589.196	31354.74
589.393	31295.35
589.59	31430.52
589.787	31156.09
589.984	31252.34
590.182	30707.58
590.379	31350.65
590.576	30797.7
590.773	30840.7
590.97	30459.78
591.167	30642.05
591.364	30369.67
591.561	30543.75
591.758	29867.92
591.955	30070.67
592.152	30363.53
592.349	29953.93
592.546	30238.6
592.743	30058.38
592.94	29587.35
593.137	29884.3
593.334	30035.85
593.531	29210.52
593.727	29517.71
593.924	29554.58
594.121	29431.7
594.318	29427.6
594.515	29167.51
594.712	29589.39
594.908	28886.94
595.105	28987.29
595.302	29048.73
595.499	28778.4
595.696	28610.46
595.892	27885.48
596.089	28673.95
596.286	28510.11
596.482	28168.1
596.679	28575.65
596.876	28245.93
597.072	28204.97
597.269	27975.59
597.466	27887.53
597.662	27606.96
597.859	27695.02
598.055	27643.82
598.252	27467.7
598.448	27604.91
598.645	27445.17
598.841	27178.93
599.038	27250.61
599.234	27312.05
599.431	27142.07
599.627	27074.49
599.824	26984.38
600.02	26730.43
600.217	27035.58
600.413	26787.77
600.609	26841.02
600.806	26691.52
601.002	26482.63
601.198	26380.23
601.395	25993.16
601.591	25941.96
601.787	26208.2
601.984	26093.51
602.18	26081.22
602.376	25774.03
602.572	25823.18
602.769	25817.04
602.965	25434.07
603.161	25825.23
603.357	25319.38
603.553	25317.33
603.75	25470.93
603.946	25274.32
604.142	25255.89
604.338	24827.87
604.534	25288.66
604.73	24963.03
604.926	24999.9
605.122	24899.55
605.318	24825.82
605.514	24436.7
605.71	24700.89
605.906	24514.53
606.102	24727.52
606.298	24788.96
606.494	24551.39
606.69	24426.46
606.886	24379.36
607.082	24010.73
607.278	24295.39
607.474	23654.38
607.67	24213.48
607.866	23738.35
608.062	23853.03
608.257	23642.09
608.453	23769.07
608.649	23703.53
608.845	23533.55
609.041	23259.12
609.236	23713.77
609.432	23646.19
609.628	23470.06
609.824	23363.57
610.019	23201.78
610.215	23377.9
610.411	23224.31
610.606	23269.36
610.802	23050.23
610.998	23023.61
611.193	23048.18
611.389	22929.4
611.584	23103.48
611.78	22528
611.976	22794.23
612.171	22405.12
612.367	22476.8
612.562	22532.09
612.758	22001.67
612.953	22491.13
613.149	22628.35
613.344	22366.21
613.539	22478.85
613.735	22511.61
613.93	22261.76
614.126	21948.42
614.321	22255.62
614.517	22237.19
614.712	22360.06
614.907	21817.35
615.103	22497.28
615.298	21987.33
615.493	22171.65
615.688	21919.75
615.884	22075.4
616.079	21354.51
616.274	22040.58
616.47	21770.25
616.665	21708.81
616.86	21432.33
617.055	21815.3
617.25	21809.16
617.445	21456.91
617.641	21194.77
617.836	21418
618.031	21346.32
618.226	21362.7
618.421	21280.78
618.616	21360.66
618.811	20711.45
619.006	21233.68
619.201	20781.08
619.396	20973.59
619.591	20434.97
619.786	20748.31
619.981	20555.8
620.176	20500.51
620.371	20412.45
620.566	20283.42
620.761	20441.12
620.956	20275.23
621.151	19937.32
621.346	20025.38
621.541	19841.06
621.735	19920.93
621.93	19253.3
622.125	19380.27
622.32	19247.15
622.515	19367.98
622.709	19224.62
622.904	19333.17
623.099	18958.39
623.294	19376.17
623.488	18872.37
623.683	18810.93
623.878	18677.82
624.072	18577.47
624.267	18567.23
624.462	18165.82
624.656	18212.93
624.851	18114.62
625.046	18077.76
625.24	17770.57
625.435	17901.64
625.629	18114.62
625.824	17702.98
626.018	17590.34
626.213	17287.25
626.407	17459.27
626.602	17256.53
626.796	17328.2
626.991	17274.96
627.185	17117.26
627.38	16961.62
627.574	16889.94
627.768	16638.04
627.963	16492.63
628.157	16611.42
628.352	16525.4
628.546	16339.04
628.74	16580.7
628.935	16142.43
629.129	16072.8
629.323	15931.49
629.517	16109.66
629.712	16144.48
629.906	16171.1
630.1	15698.02
630.294	15540.33
630.489	15384.68
630.683	15698.02
630.877	15341.68
631.071	15284.33
631.265	15329.39
631.459	15001.71
631.653	14887.03
631.848	14870.64
632.042	15177.84
632.236	14897.27
632.43	14653.56
632.624	14872.69
632.818	14805.11
633.012	14329.98
633.206	14284.92
633.4	14332.03
633.594	14084.22
633.788	14123.13
633.982	14196.86
634.176	14055.55
634.369	13908.1
634.563	13797.51
634.757	13641.86
634.951	13873.28
635.145	13697.16
635.339	13813.89
635.533	13598.85
635.726	13596.81
635.92	13402.25
636.114	13158.54
636.308	13215.88
636.501	13183.12
636.695	13215.88
636.889	12961.94
637.083	12914.83
637.276	12576.92
637.47	12736.66
637.664	12662.93
637.857	12531.86
638.051	12652.69
638.244	12568.73
638.438	12441.75
638.632	12443.8
638.825	12374.17
639.019	12210.33
639.212	12423.32
639.406	12038.3
639.599	11991.2
639.793	11991.2
639.986	11919.52
640.18	11794.59
640.373	11954.33
640.567	11651.24
640.76	11630.76
640.954	11491.49
641.147	11569.32
641.34	11452.58
641.534	11325.61
641.727	11425.96
641.92	11428.01
642.114	11262.12
642.307	11155.63
642.5	11122.86
642.694	10944.69
642.887	10889.39
643.08	11239.59
643.273	10647.73
643.467	10760.37
643.66	10717.36
643.853	10760.37
644.046	10561.72
644.239	10586.29
644.432	10463.41
644.626	10549.43
644.819	10428.6
645.012	10535.09
645.205	10209.47
645.398	10256.57
645.591	10164.41
645.784	10430.65
645.977	10166.46
646.17	9926.85
646.363	9978.05
646.556	9717.95
646.749	9894.08
646.942	9900.22
647.135	9652.42
647.328	9660.61
647.521	9574.6
647.714	9586.88
647.907	9373.89
648.099	9676.99
648.292	9476.29
648.485	9377.99
648.678	9304.26
648.871	9324.74
649.064	9255.11
649.256	9269.45
649.449	9042.12
649.642	8964.3
649.835	9013.45
650.027	8974.54
650.22	8968.4
650.413	8911.05
650.605	8655.06
650.798	8677.58
650.991	8636.63
651.183	8569.04
651.376	8593.62
651.568	8771.79
651.761	8616.15
651.954	8534.23
652.146	8626.39
652.339	8437.97
652.531	8399.06
652.724	8313.05
652.916	8181.98
653.109	8224.98
653.301	8136.92
653.494	8081.63
653.686	8009.95
653.879	8034.52
654.071	7999.71
654.263	7948.51
654.456	8071.39
654.648	8007.9
654.84	7737.57
655.033	7792.86
655.225	7790.81
655.417	7667.94
655.61	7602.4
655.802	7762.14
655.994	7653.6
656.186	7622.88
656.379	7497.95
656.571	7581.92
656.763	7563.49
656.955	7375.08
657.148	7565.54
657.34	7278.82
657.532	7250.15
657.724	7223.53
657.916	7459.04
658.108	7092.46
658.3	7141.61
658.492	7268.58
658.684	6951.15
658.876	6992.11
659.068	7207.14
659.26	7055.59
659.452	6858.99
659.644	6918.38
659.836	6887.66
660.028	6811.89
660.22	6752.49
660.412	6805.74
660.604	6805.74
660.796	6838.51
660.988	6719.73
661.18	6531.31
661.372	6453.49
661.563	6629.62
661.755	6373.62
661.947	6557.94
662.139	6461.68
662.331	6355.19
662.522	6162.68
662.714	6428.92
662.906	6363.38
663.097	6211.83
663.289	6310.13
663.481	6209.78
663.673	6093.05
663.864	6238.45
664.056	6209.78
664.247	6201.59
664.439	5990.65
664.631	6109.43
664.822	6109.43
665.014	6011.13
665.205	5884.16
665.397	6009.08
665.588	5855.48
665.78	5959.93
665.971	5806.33
666.163	6000.89
666.354	5912.83
666.546	5671.17
666.737	5601.54
666.929	5734.65
667.12	5632.26
667.311	5728.51
667.503	5740.8
667.694	5640.45
667.885	5642.5
668.077	5429.51
668.268	5531.9
668.459	5611.78
668.651	5495.04
668.842	5533.95
669.033	5439.75
669.224	5323.01
669.416	5497.09
669.607	5492.99
669.798	5394.69
669.989	5310.72
670.18	5470.47
670.371	5300.48
670.563	5239.05
670.754	5323.01
670.945	5220.61
671.136	5267.72
671.327	5226.76
671.518	5224.71
671.709	5048.58
671.9	5282.05
672.091	5040.39
672.282	5036.3
672.473	5052.68
672.664	5024.01
672.855	5069.06
673.046	5138.69
673.237	5142.79
673.428	5052.68
673.619	5128.46
673.809	5017.86
674	4985.1
674.191	4968.71
674.382	4944.14
674.573	5015.82
674.764	4929.8
674.954	4929.8
675.145	4725.01
675.336	4876.55
675.527	4747.53
675.717	4759.82
675.908	4854.03
676.099	4776.2
676.289	4897.03
676.48	4825.36
676.671	4794.64
676.861	4749.58
677.052	4704.53
677.243	4675.85
677.433	4768.01
677.624	4638.99
677.814	4464.91
678.005	4653.33
678.195	4677.9
678.386	4661.52
678.576	4538.64
678.767	4532.5
678.957	4591.89
679.148	4675.85
679.338	4561.17
679.529	4546.83
679.719	4497.68
679.909	4702.48
680.1	4475.15
680.29	4614.41
680.481	4638.99
680.671	4559.12
680.861	4573.46
681.052	4497.68
681.242	4550.93
681.432	4593.94
681.622	4405.52
681.813	4536.59
682.003	4436.24
682.193	4471.06
682.383	4329.75
682.573	4444.43
682.764	4387.09
682.954	4438.29
683.144	4550.93
683.334	4274.45
683.524	4309.27
683.714	4426
683.904	4444.43
684.094	4346.13
684.284	4333.84
684.474	4403.47
684.664	4339.99
684.854	4407.57
685.044	4264.21
685.234	4339.99
685.424	4356.37
685.614	4237.59
685.804	4280.6
685.994	4260.12
686.184	4311.32
686.374	4215.06
686.564	4151.57
686.753	4262.16
686.943	3979.54
687.133	4167.96
687.323	4135.19
687.513	4159.77
687.702	4047.13
687.892	4071.7
688.082	3907.87
688.272	4010.26
688.461	4059.42
688.651	4143.38
688.841	4135.19
689.03	3959.06
689.22	3879.19
689.41	3993.88
689.599	3971.35
689.789	3875.1
689.979	3948.83
690.168	3909.91
690.358	3756.32
690.547	3914.01
690.737	3838.23
690.926	3768.6
691.116	3803.42
691.305	3965.21
691.495	3744.03
691.684	3668.25
691.874	3862.81
692.063	3600.67
692.252	3725.6
692.442	3725.6
692.631	3721.5
692.82	3778.84
693.01	3635.49
693.199	3690.78
693.388	3721.5
693.578	3547.42
693.767	3615.01
693.956	3424.55
694.146	3770.65
694.335	3551.52
694.524	3658.01
694.713	3627.29
694.902	3645.73
695.092	3502.37
695.281	3582.24
695.47	3422.5
695.659	3567.9
695.848	3584.29
696.037	3569.95
696.226	3625.25
696.415	3629.34
696.604	3588.38
696.793	3414.31
696.982	3494.18
697.171	3533.09
697.36	3467.55
697.549	3467.55
697.738	3520.8
697.927	3336.48
698.116	3356.96
698.305	3410.21
698.494	3447.07
698.683	3430.69
698.872	3633.44
699.061	3430.69
699.25	3445.02
699.438	3397.92
699.627	3475.74
699.816	3393.83
700.005	3506.46
700.193	3488.03
700.382	3289.38
700.571	3520.8
700.76	3559.71
700.948	3539.23
701.137	3535.14
701.326	3336.48
701.514	3387.68
701.703	3336.48
701.892	3434.78
702.08	3440.93
702.269	3428.64
702.457	3336.48
702.646	3574.05
702.834	3471.65
703.023	3338.53
703.212	3432.74
703.4	3389.73
703.589	3291.43
703.777	3420.45
703.965	3324.19
704.154	3447.07
704.342	3336.48
704.531	3352.87
704.719	3414.31
704.907	3391.78
705.096	3291.43
705.284	3424.55
705.472	3377.44
705.661	3512.61
705.849	3303.71
706.037	3494.18
706.226	3348.77
706.414	3297.57
706.602	3291.43
706.79	3391.78
706.979	3414.31
707.167	3430.69
707.355	3375.39
707.543	3481.89
707.731	3422.5
707.919	3449.12
708.107	3344.67
708.296	3356.96
708.484	3389.73
708.672	3359.01
708.86	3385.63
709.048	3463.46
709.236	3313.95
709.424	3465.5
709.612	3307.81
709.8	3338.53
709.988	3322.15
710.176	3340.58
710.364	3309.86
710.551	3307.81
710.739	3311.91
710.927	3375.39
711.115	3363.11
711.303	3375.39
711.491	3254.56
711.679	3404.07
711.866	3406.11
712.054	3483.94
712.242	3277.09
712.43	3455.26
712.617	3397.92
712.805	3385.63
712.993	3420.45
713.181	3324.19
713.368	3352.87
713.556	3297.57
713.744	3262.76
713.931	3492.13
714.119	3373.35
714.306	3473.7
714.494	3313.95
714.682	3348.77
714.869	3422.5
715.057	3363.11
715.244	3352.87
715.432	3504.42
715.619	3381.54
715.807	3430.69
715.994	3275.04
716.182	3287.33
716.369	3393.83
716.556	3404.07
716.744	3395.87
716.931	3438.88
717.119	3461.41
717.306	3322.15
717.493	3352.87
717.681	3402.02
717.868	3363.11
718.055	3379.49
718.242	3369.25
718.43	3434.78
718.617	3313.95
718.804	3250.47
718.991	3332.39
719.179	3297.57
719.366	3238.18
719.553	3336.48
719.74	3291.43
719.927	3316
720.114	3338.53
720.301	3467.55
720.488	3313.95
720.676	3340.58
720.863	3240.23
721.05	3399.97
721.237	3332.39
721.424	3350.82
721.611	3320.1
721.798	3250.47
721.985	3236.13
722.172	3180.84
722.358	3258.66
722.545	3316
722.732	3377.44
722.919	3393.83
723.106	3264.8
723.293	3201.32
723.48	3311.91
723.667	3281.19
723.853	3207.46
724.04	3172.64
724.227	3334.43
724.414	3303.71
724.6	3260.71
724.787	3299.62
724.974	3293.48
725.161	3176.74
725.347	3281.19
725.534	3291.43
725.72	3139.88
725.907	3227.94
726.094	3287.33
726.28	3154.21
726.467	3221.8
726.653	3172.64
726.84	3258.66
727.027	3215.65
727.213	3283.24
727.4	3324.19
727.586	3152.17
727.773	3244.32
727.959	3207.46
728.145	3316
728.332	3283.24
728.518	3285.28
728.705	3137.83
728.891	3168.55
729.077	3250.47
729.264	3238.18
729.45	3152.17
729.636	3264.8
729.823	3156.26
730.009	3125.54
730.195	3129.64
730.382	3207.46
730.568	3062.05
730.754	3123.49
730.94	3039.53
731.126	3119.4
731.313	3199.27
731.499	3221.8
731.685	3176.74
731.871	3062.05
732.057	3199.27
732.243	3207.46
732.429	3143.97
732.615	3037.48
732.801	3021.1
732.987	3098.92
733.173	3266.85
733.359	2951.46
733.545	3082.53
733.731	3090.73
733.917	3098.92
734.103	3017
734.289	3084.58
734.475	3043.62
734.661	3092.77
734.847	2928.94
735.033	2988.33
735.219	2965.8
735.404	3051.81
735.59	2957.61
735.776	2973.99
735.962	3111.21
736.148	3062.05
736.333	2941.22
736.519	2969.9
736.705	3025.19
736.89	2920.74
737.076	3004.71
737.262	2890.03
737.447	2865.45
737.633	2928.94
737.819	2904.36
738.004	2935.08
738.19	2961.7
738.375	2844.97
738.561	2935.08
738.747	2838.83
738.932	2799.91
739.118	2851.11
739.303	2953.51
739.489	2898.22
739.674	2914.6
739.859	2873.64
740.045	2738.48
740.23	2849.07
740.416	2744.62
740.601	2814.25
740.786	2828.59
740.972	2722.09
741.157	2746.67
741.342	2830.63
741.528	2713.9
741.713	2828.59
741.898	2750.76
742.084	2777.39
742.269	2732.33
742.454	2591.02
742.639	2785.58
742.824	2683.18
743.01	2701.61
743.195	2703.66
743.38	2498.86
743.565	2595.12
743.75	2617.65
743.935	2627.89
744.12	2654.51
744.305	2570.54
744.49	2427.18
744.675	2511.15
744.86	2531.63
745.045	2591.02
745.23	2580.78
745.415	2451.76
745.6	2533.68
745.785	2539.82
745.97	2365.75
746.155	2378.03
746.34	2355.51
746.525	2318.64
746.71	2281.78
746.895	2324.79
747.079	2373.94
747.264	2320.69
747.449	2355.51
747.634	2433.33
747.819	2337.07
748.003	2349.36
748.188	2447.66
748.373	2302.26
748.557	2388.27
748.742	2296.11
748.927	2242.87
749.111	2042.17
749.296	2193.72
749.481	2220.34
749.665	2216.24
749.85	2187.57
750.034	2160.95
750.219	2150.71
750.404	2244.92
750.588	2136.37
750.773	2083.13
750.957	2101.56
751.141	2068.79
751.326	2058.55
751.51	2064.69
751.695	1993.01
751.879	1980.73
752.064	1976.63
752.248	1995.06
752.432	2011.45
752.617	2070.84
752.801	1823.03
752.985	1894.71
753.17	1890.62
753.354	2019.64
753.538	1929.53
753.722	1937.72
753.907	1718.59
754.091	1767.74
754.275	1790.27
754.459	1827.13
754.643	1818.94
754.828	1847.61
755.012	1855.8
755.196	1718.59
755.38	1751.35
755.564	1706.3
755.748	1722.68
755.932	1755.45
756.116	1706.3
756.3	1679.68
756.484	1712.44
756.668	1593.66
756.852	1642.81
757.036	1571.13
757.22	1614.14
757.404	1603.9
757.588	1630.52
757.772	1616.19
757.956	1632.57
758.14	1571.13
758.323	1341.76
758.507	1491.26
758.691	1530.17
758.875	1530.17
759.059	1448.26
759.242	1513.79
759.426	1462.59
759.61	1380.67
759.794	1456.45
759.977	1415.49
760.161	1630.52
760.345	1501.5
760.528	1366.34
760.712	1417.54
760.895	1483.07
761.079	1489.21
761.263	1431.87
761.446	1472.83
761.63	1511.74
761.813	1368.38
761.997	1386.82
762.18	1347.9
762.364	1419.58
762.547	1384.77
762.731	1374.53
762.914	1354.05
763.098	1388.86
763.281	1306.95
763.464	1364.29
763.648	1325.38
763.831	1296.71
764.015	1218.88
764.198	1265.99
764.381	1298.75
764.564	1278.27
764.748	1263.94
764.931	1306.95
765.114	1194.31
765.297	1313.09
765.481	1272.13
765.664	1210.69
765.847	1286.47
766.03	1263.94
766.213	1218.88
766.397	1315.14
766.58	1317.19
766.763	1315.14
766.946	1268.03
767.129	1192.26
767.312	1155.4
767.495	1126.72
767.678	1177.92
767.861	1214.79
768.044	1159.49
768.227	1280.32
768.41	1173.83
768.593	1132.87
768.776	1120.58
768.959	1208.64
769.142	1282.37
769.324	1112.39
769.507	1186.12
769.69	1126.72
769.873	1059.14
770.056	1210.69
770.239	1036.61
770.421	1032.52
770.604	1065.29
770.787	1102.15
770.97	1169.73
771.152	1038.66
771.335	1083.72
771.518	1134.92
771.7	1079.62
771.883	1098.05
772.066	1055.05
772.248	1106.24
772.431	1079.62
772.613	1151.3
772.796	1046.85
772.978	1106.24
773.161	1026.37
773.343	977.22
773.526	1007.94
773.708	964.93
773.891	997.7
774.073	940.36
774.256	901.45
774.438	1032.52
774.621	948.55
774.803	981.32
774.985	897.35
775.168	1038.66
775.35	944.45
775.532	1003.85
775.715	1003.85
775.897	909.64
776.079	930.12
776.261	889.16
776.444	956.74
776.626	858.44
776.808	825.67
776.99	801.1
777.173	833.86
777.355	930.12
777.537	815.43
777.719	825.67
777.901	919.88
778.083	821.58
778.265	862.54
778.447	813.38
778.629	842.06
778.811	823.62
778.993	842.06
779.175	848.2
779.357	823.62
779.539	776.52
779.721	817.48
779.903	817.48
780.085	758.09
780.267	751.95
780.449	747.85
780.631	768.33
780.812	745.8
780.994	766.28
781.176	735.56
781.358	737.61
781.54	698.7
781.721	684.36
781.903	797
782.085	696.65
782.267	622.92
782.448	682.31
782.63	622.92
782.812	622.92
782.993	633.16
783.175	717.13
783.357	559.44
783.538	715.08
783.72	676.17
783.901	659.79
784.083	610.64
784.264	686.41
784.446	612.68
784.627	633.16
784.809	592.2
784.99	639.31
785.172	600.4
785.353	530.77
785.535	557.39
785.716	569.68
785.897	586.06
786.079	616.78
786.26	588.11
786.441	604.49
786.623	555.34
786.804	551.24
786.985	512.33
787.167	553.29
787.348	522.57
787.529	586.06
787.71	618.83
787.891	577.87
788.073	561.48
788.254	579.92
788.435	569.68
788.616	473.42
788.797	545.1
788.978	555.34
789.159	567.63
789.34	457.04
789.522	506.19
789.703	463.18
789.884	489.81
790.065	477.52
790.246	485.71
790.427	457.04
790.607	450.89
790.788	508.24
790.969	403.79
791.15	518.48
791.331	414.03
791.512	428.37
791.693	473.42
791.874	397.65
792.054	502.09
792.235	434.51
792.416	385.36
792.597	444.75
792.778	422.22
792.958	473.42
793.139	409.94
793.32	498
793.5	454.99
793.681	448.85
793.862	424.27
794.042	454.99
794.223	368.98
794.404	403.79
794.584	317.78
794.765	387.41
794.945	405.84
795.126	414.03
795.306	385.36
795.487	354.64
795.667	342.35
795.848	311.63
796.028	387.41
796.209	371.02
796.389	385.36
796.57	403.79
796.75	444.75
796.93	325.97
797.111	289.1
797.291	287.06
797.471	391.5
797.652	428.37
797.832	377.17
798.012	379.22
798.192	354.64
798.373	366.93
798.553	352.59
798.733	409.94
798.913	338.26
799.093	346.45
799.274	352.59
799.454	313.68
799.634	342.35
799.814	291.15
799.994	289.1
800.174	422.22
800.354	350.54
800.534	307.54
800.714	362.83
800.894	328.02
801.074	299.34
801.254	246.1
801.434	375.12
801.614	330.06
801.794	293.2
801.974	674.12
802.154	266.58
802.334	315.73
802.514	270.67
802.693	307.54
802.873	235.86
803.053	362.83
803.233	289.1
803.413	198.99
803.592	289.1
803.772	231.76
803.952	260.43
804.131	303.44
804.311	325.97
804.491	360.78
804.67	207.19
804.85	346.45
805.03	252.24
805.209	295.25
805.389	282.96
805.568	229.71
805.748	262.48
805.928	248.15
806.107	272.72
806.287	203.09
806.466	233.81
806.646	289.1
806.825	270.67
807.004	274.77
807.184	246.1
807.363	250.19
807.543	235.86
807.722	223.57
807.901	313.68
808.081	311.63
808.26	186.71
808.439	297.3
808.619	276.82
808.798	276.82
808.977	223.57
809.156	235.86
809.336	278.87
809.515	274.77
809.694	282.96
809.873	270.67
810.052	155.99
810.231	264.53
810.411	231.76
810.59	280.91
810.769	268.63
810.948	313.68
811.127	192.85
811.306	162.13
811.485	166.23
811.664	252.24
811.843	192.85
812.022	244.05
812.201	213.33
812.38	178.51
812.559	198.99
812.737	129.36
812.916	182.61
813.095	170.32
813.274	201.04
813.453	123.22
813.632	182.61
813.811	223.57
813.989	127.32
814.168	256.34
814.347	174.42
814.526	219.47
814.704	219.47
814.883	211.28
815.062	151.89
815.24	223.57
815.419	235.86
815.598	166.23
815.776	137.56
815.955	198.99
816.133	164.18
816.312	252.24
816.49	186.71
816.669	141.65
816.847	192.85
817.026	225.62
817.204	102.74
817.383	217.43
817.561	125.27
817.74	149.84
817.918	178.51
818.097	133.46
818.275	190.8
818.453	250.19
818.632	203.09
818.81	147.8
818.988	198.99
819.167	137.56
819.345	147.8
819.523	250.19
819.701	182.61
819.879	166.23
820.058	170.32
820.236	174.42
820.414	145.75
820.592	205.14
820.77	119.12
820.948	229.71
821.127	94.55
821.305	211.28
821.483	133.46
821.661	184.66
821.839	129.36
822.017	137.56
822.195	201.04
822.373	31.06
822.551	209.23
822.729	194.9
822.907	160.08
823.085	254.29
823.262	121.17
823.44	110.93
823.618	76.12
823.796	205.14
823.974	100.69
824.152	198.99
824.329	139.6
824.507	100.69
824.685	127.32
824.863	174.42
825.04	84.31
825.218	137.56
825.396	131.41
825.574	192.85
825.751	115.03
825.929	196.95
826.107	217.43
826.284	133.46
826.462	131.41
826.639	125.27
826.817	90.45
826.994	123.22
827.172	80.21
827.349	219.47
827.527	211.28
827.704	143.7
827.882	158.03
828.059	137.56
828.237	127.32
828.414	106.84
828.591	67.92
828.769	43.35
828.946	168.27
829.124	168.27
829.301	184.66
829.478	170.32
829.655	160.08
829.833	112.98
830.01	110.93
830.187	133.46
830.364	39.25
830.542	147.8
830.719	135.51
830.896	184.66
831.073	69.97
831.25	151.89
831.427	145.75
831.604	78.16
831.782	98.64
831.959	96.6
832.136	110.93
832.313	176.47
832.49	129.36
832.667	102.74
832.844	96.6
833.021	104.79
833.198	131.41
833.374	149.84
833.551	196.95
833.728	84.31
833.905	153.94
834.082	49.49
834.259	135.51
834.436	158.03
834.612	127.32
834.789	121.17
834.966	115.03
835.143	121.17
835.319	31.06
835.496	149.84
835.673	90.45
835.85	90.45
836.026	92.5
836.203	188.75
836.38	108.88
836.556	88.4
836.733	45.4
836.909	162.13
837.086	88.4
837.262	78.16
837.439	100.69
837.616	137.56
837.792	100.69
837.968	121.17
838.145	115.03
838.321	-26.28
838.498	106.84
838.674	139.6
838.851	102.74
839.027	80.21
839.203	149.84
839.38	78.16
839.556	63.83
839.732	63.83
839.909	96.6
840.085	106.84
840.261	-1.71
840.437	80.21
840.614	35.16
840.79	121.17
840.966	90.45
841.142	51.54
841.318	78.16
841.494	72.02
841.671	94.55
841.847	102.74
842.023	47.44
842.199	112.98
842.375	117.08
842.551	100.69
842.727	100.69
842.903	127.32
843.079	84.31
843.255	65.88
843.431	108.88
843.607	102.74
843.783	84.31
843.959	108.88
844.134	72.02
844.31	104.79
844.486	39.25
844.662	92.5
844.838	72.02
845.013	104.79
845.189	47.44
845.365	59.73
845.541	76.12
845.716	110.93
845.892	47.44
846.068	69.97
846.244	55.64
846.419	55.64
846.595	61.78
846.77	133.46
846.946	63.83
847.122	94.55
847.297	22.87
847.473	137.56
847.648	35.16
847.824	104.79
847.999	112.98
848.175	90.45
848.35	135.51
848.526	72.02
848.701	108.88
848.876	45.4
849.052	55.64
849.227	90.45
849.403	37.2
849.578	94.55
849.753	131.41
849.929	78.16
850.104	29.01
850.279	31.06
850.454	65.88
850.63	131.41
850.805	164.18
850.98	67.92
851.155	86.36
851.33	104.79
851.505	57.68
851.681	20.82
851.856	39.25
852.031	102.74
852.206	119.12
852.381	-5.8
852.556	29.01
852.731	92.5
852.906	59.73
853.081	145.75
853.256	65.88
853.431	16.73
853.606	39.25
853.781	65.88
853.956	55.64
854.131	35.16
854.305	47.44
854.48	24.92
854.655	8.53
854.83	35.16
855.005	55.64
855.18	14.68
855.354	29.01
855.529	110.93
855.704	-22.19
855.879	53.59
856.053	47.44
856.228	133.46
856.403	22.87
856.577	92.5
856.752	-38.57
856.926	86.36
857.101	88.4
857.276	31.06
857.45	33.11
857.625	22.87
857.799	98.64
857.974	74.07
858.148	-61.1
858.323	55.64
858.497	16.73
858.672	-22.19
858.846	53.59
859.02	63.83
859.195	10.58
859.369	43.35
859.543	84.31
859.718	88.4
859.892	61.78
860.066	80.21
860.241	53.59
860.415	53.59
860.589	6.49
860.763	37.2
860.938	-9.9
861.112	92.5
861.286	65.88
861.46	-28.33
861.634	39.25
861.808	119.12
861.982	-1.71
862.157	43.35
862.331	84.31
862.505	35.16
862.679	16.73
862.853	80.21
863.027	-40.62
863.201	45.4
863.375	6.49
863.549	-54.95
863.722	78.16
863.896	69.97
864.07	61.78
864.244	100.69
864.418	69.97
864.592	8.53
864.766	37.2
864.939	63.83
865.113	61.78
865.287	51.54
865.461	29.01
865.634	26.96
865.808	35.16
865.982	45.4
866.156	65.88
866.329	4.44
866.503	63.83
866.676	98.64
866.85	26.96
867.024	16.73
867.197	12.63
867.371	37.2
867.544	35.16
867.718	20.82
867.891	61.78
868.065	82.26
868.238	-50.86
868.412	59.73
868.585	24.92
868.759	-20.14
868.932	74.07
869.105	-13.99
869.279	-9.9
869.452	37.2
869.625	133.46
869.799	39.25
869.972	-22.19
870.145	39.25
870.319	12.63
870.492	69.97
870.665	72.02
870.838	-34.47
871.011	-38.57
871.185	29.01
871.358	10.58
871.531	26.96
871.704	14.68
871.877	59.73
872.05	43.35
872.223	39.25
872.396	80.21
872.569	45.4
872.742	12.63
872.915	43.35
873.088	55.64
873.261	94.55
873.434	78.16
873.607	-5.8
873.78	72.02
873.953	53.59
874.126	39.25
874.299	45.4
874.471	88.4
874.644	31.06
874.817	63.83
874.99	18.77
875.163	45.4
875.335	26.96
875.508	-20.14
875.681	67.92
875.853	35.16
876.026	-26.28
876.199	22.87
876.371	14.68
876.544	53.59
876.717	57.68
876.889	16.73
877.062	90.45
877.234	12.63
877.407	96.6
877.579	-34.47
877.752	-1.71
877.924	16.73
878.097	-36.52
878.269	43.35
878.442	29.01
878.614	-28.33
878.786	39.25
878.959	-38.57
879.131	84.31
879.303	4.44
879.476	26.96
879.648	39.25
879.82	16.73
879.993	51.54
880.165	-3.75
880.337	-63.15
880.509	72.02
880.681	12.63
880.854	45.4
881.026	-18.09
881.198	35.16
881.37	4.44
881.542	86.36
881.714	26.96
881.886	51.54
882.058	22.87
882.23	12.63
882.402	14.68
882.574	2.39
882.746	69.97
882.918	63.83
883.09	53.59
883.262	8.53
883.434	69.97
883.606	39.25
883.778	-46.76
883.95	24.92
884.122	49.49
884.293	-22.19
884.465	39.25
884.637	14.68
884.809	84.31
884.98	18.77
885.152	82.26
885.324	59.73
885.496	41.3
885.667	18.77
885.839	61.78
886.011	63.83
886.182	51.54
886.354	16.73
886.525	10.58
886.697	92.5
886.869	39.25
887.04	-26.28
887.212	82.26
887.383	102.74
887.555	-1.71
887.726	4.44
887.897	55.64
888.069	108.88
888.24	51.54
888.412	18.77
888.583	65.88
888.754	-30.38
888.926	4.44
889.097	65.88
889.268	41.3
889.44	-18.09
889.611	24.92
889.782	12.63
889.953	6.49
890.125	26.96
890.296	-54.95
890.467	10.58
890.638	14.68
890.809	76.12
890.98	16.73
891.151	35.16
891.323	45.4
891.494	18.77
891.665	55.64
891.836	8.53
892.007	61.78
892.178	29.01
892.349	-16.04
892.52	-18.09
892.691	-3.75
892.862	86.36
893.032	8.53
893.203	76.12
893.374	43.35
893.545	39.25
893.716	-7.85
893.887	96.6
894.057	18.77
894.228	26.96
894.399	-44.71
894.57	51.54
894.74	14.68
894.911	26.96
895.082	-1.71
895.253	37.2
895.423	41.3
895.594	0.34
895.764	-46.76
895.935	31.06
896.106	-20.14
896.276	41.3
896.447	72.02
896.617	-18.09
896.788	49.49
896.958	29.01
897.129	14.68
897.299	39.25
897.47	41.3
897.64	43.35
897.81	112.98
897.981	-7.85
898.151	47.44
898.322	22.87
898.492	51.54
898.662	-7.85
898.832	14.68
899.003	84.31
899.173	-5.8
899.343	-22.19
899.513	-42.67
