Data from USB4F104151__251__10-31-05-186.txt Node

Date: Wed Mar 12 10:31:05 EDT 2025
User: louis
Spectrometer: USB4F10415
Trigger mode: 4
Integration Time (sec): 3.000000E-2
Scans to average: 1
Electric dark correction enabled: true
Nonlinearity correction enabled: false
Boxcar width: 0
XAxis mode: Wavelengths
Number of Pixels in Spectrum: 3648
>>>>>Begin Spectral Data<<<<<
178.204	-93.69
178.424	-93.69
178.644	-93.69
178.864	-144.89
179.084	-93.69
179.304	-13.82
179.524	-42.5
179.744	-48.64
179.964	10.75
180.184	-40.45
180.404	49.66
180.624	33.28
180.844	-24.06
181.064	20.99
181.283	6.66
181.503	2.56
181.723	45.57
181.943	-67.07
182.163	74.24
182.383	-26.11
182.602	-7.68
182.822	90.62
183.042	43.52
183.262	-22.02
183.482	29.18
183.701	-28.16
183.921	33.28
184.141	-22.02
184.361	23.04
184.58	14.85
184.8	10.75
185.02	45.57
185.239	102.91
185.459	23.04
185.679	8.7
185.898	-44.54
186.118	20.99
186.338	-19.97
186.557	53.76
186.777	-5.63
186.997	57.86
187.216	8.7
187.436	6.66
187.655	49.66
187.875	66.05
188.095	64
188.314	14.85
188.534	119.29
188.753	-58.88
188.973	-24.06
189.192	61.95
189.412	55.81
189.631	47.62
189.851	-15.87
190.07	33.28
190.29	41.47
190.509	59.9
190.729	64
190.948	78.33
191.168	150.01
191.387	-1.54
191.607	53.76
191.826	51.71
192.045	12.8
192.265	61.95
192.484	37.38
192.704	35.33
192.923	-11.78
193.142	117.25
193.362	27.14
193.581	66.05
193.8	55.81
194.02	-26.11
194.239	33.28
194.458	12.8
194.678	39.42
194.897	107.01
195.116	117.25
195.335	12.8
195.555	43.52
195.774	104.96
195.993	-15.87
196.212	43.52
196.432	-9.73
196.651	4.61
196.87	10.75
197.089	29.18
197.308	20.99
197.528	31.23
197.747	-11.78
197.966	-69.12
198.185	-11.78
198.404	16.9
198.623	4.61
198.842	61.95
199.062	-11.78
199.281	41.47
199.5	35.33
199.719	-7.68
199.938	45.57
200.157	2.56
200.376	49.66
200.595	37.38
200.814	-13.82
201.033	-44.54
201.252	53.76
201.471	6.66
201.69	37.38
201.909	49.66
202.128	18.94
202.347	-7.68
202.566	-26.11
202.785	35.33
203.004	82.43
203.223	51.71
203.442	0.51
203.661	4.61
203.879	-19.97
204.098	6.66
204.317	-48.64
204.536	45.57
204.755	-17.92
204.974	43.52
205.193	53.76
205.411	96.77
205.63	25.09
205.849	78.33
206.068	57.86
206.287	-9.73
206.505	61.95
206.724	37.38
206.943	27.14
207.162	16.9
207.381	-5.63
207.599	61.95
207.818	37.38
208.037	-9.73
208.255	-40.45
208.474	18.94
208.693	-11.78
208.911	82.43
209.13	-52.74
209.349	33.28
209.567	55.81
209.786	102.91
210.005	12.8
210.223	2.56
210.442	-65.02
210.661	47.62
210.879	51.71
211.098	43.52
211.316	-13.82
211.535	76.29
211.753	-3.58
211.972	-7.68
212.191	-5.63
212.409	51.71
212.628	-7.68
212.846	78.33
213.065	-30.21
213.283	31.23
213.502	-7.68
213.72	98.81
213.938	43.52
214.157	45.57
214.375	-15.87
214.594	6.66
214.812	41.47
215.031	35.33
215.249	-9.73
215.467	37.38
215.686	4.61
215.904	16.9
216.122	92.67
216.341	41.47
216.559	-32.26
216.778	55.81
216.996	74.24
217.214	-15.87
217.432	12.8
217.651	12.8
217.869	-32.26
218.087	14.85
218.306	16.9
218.524	-26.11
218.742	20.99
218.96	4.61
219.179	-28.16
219.397	16.9
219.615	43.52
219.833	41.47
220.051	-52.74
220.27	20.99
220.488	107.01
220.706	68.09
220.924	27.14
221.142	82.43
221.36	20.99
221.578	-1.54
221.796	37.38
222.015	47.62
222.233	100.86
222.451	49.66
222.669	74.24
222.887	27.14
223.105	18.94
223.323	12.8
223.541	27.14
223.759	8.7
223.977	-9.73
224.195	43.52
224.413	-9.73
224.631	78.33
224.849	78.33
225.067	35.33
225.285	-3.58
225.503	-5.63
225.721	-30.21
225.939	20.99
226.157	41.47
226.375	74.24
226.592	27.14
226.81	74.24
227.028	74.24
227.246	180.73
227.464	76.29
227.682	55.81
227.9	-7.68
228.117	43.52
228.335	10.75
228.553	-9.73
228.771	-38.4
228.989	74.24
229.206	-32.26
229.424	59.9
229.642	-40.45
229.86	59.9
230.077	-9.73
230.295	25.09
230.513	94.72
230.731	14.85
230.948	37.38
231.166	25.09
231.384	31.23
231.601	-15.87
231.819	123.39
232.037	29.18
232.254	-46.59
232.472	33.28
232.689	53.76
232.907	66.05
233.125	35.33
233.342	23.04
233.56	-5.63
233.777	0.51
233.995	-15.87
234.213	35.33
234.43	-38.4
234.648	-73.21
234.865	12.8
235.083	45.57
235.3	-19.97
235.518	-15.87
235.735	84.48
235.953	33.28
236.17	-3.58
236.388	-75.26
236.605	-19.97
236.822	92.67
237.04	16.9
237.257	8.7
237.475	90.62
237.692	45.57
237.909	-1.54
238.127	-17.92
238.344	10.75
238.562	10.75
238.779	-60.93
238.996	-1.54
239.214	-3.58
239.431	47.62
239.648	-30.21
239.865	96.77
240.083	18.94
240.3	-7.68
240.517	70.14
240.735	29.18
240.952	53.76
241.169	4.61
241.386	37.38
241.603	-11.78
241.821	12.8
242.038	29.18
242.255	86.53
242.472	25.09
242.689	86.53
242.907	33.28
243.124	23.04
243.341	39.42
243.558	12.8
243.775	47.62
243.992	35.33
244.209	41.47
244.426	96.77
244.643	18.94
244.86	-24.06
245.078	98.81
245.295	8.7
245.512	-22.02
245.729	18.94
245.946	23.04
246.163	20.99
246.38	-17.92
246.597	55.81
246.814	-5.63
247.031	-58.88
247.248	14.85
247.464	72.19
247.681	33.28
247.898	92.67
248.115	72.19
248.332	23.04
248.549	41.47
248.766	70.14
248.983	55.81
249.2	27.14
249.417	-28.16
249.633	20.99
249.85	-30.21
250.067	18.94
250.284	4.61
250.501	102.91
250.717	57.86
250.934	-19.97
251.151	125.44
251.368	86.53
251.585	61.95
251.801	-13.82
252.018	6.66
252.235	6.66
252.451	8.7
252.668	41.47
252.885	18.94
253.102	66.05
253.318	12.8
253.535	-54.78
253.752	68.09
253.968	23.04
254.185	0.51
254.401	61.95
254.618	43.52
254.835	57.86
255.051	59.9
255.268	45.57
255.484	41.47
255.701	18.94
255.917	-3.58
256.134	33.28
256.351	12.8
256.567	92.67
256.784	12.8
257	-19.97
257.217	53.76
257.433	92.67
257.65	2.56
257.866	61.95
258.082	-24.06
258.299	-7.68
258.515	113.15
258.732	-56.83
258.948	76.29
259.165	12.8
259.381	-19.97
259.597	70.14
259.814	12.8
260.03	20.99
260.246	10.75
260.463	37.38
260.679	49.66
260.895	43.52
261.112	39.42
261.328	66.05
261.544	31.23
261.761	-5.63
261.977	-19.97
262.193	33.28
262.409	49.66
262.626	94.72
262.842	14.85
263.058	-13.82
263.274	119.29
263.49	68.09
263.707	0.51
263.923	14.85
264.139	-89.6
264.355	10.75
264.571	57.86
264.787	16.9
265.004	35.33
265.22	10.75
265.436	78.33
265.652	55.81
265.868	4.61
266.084	29.18
266.3	8.7
266.516	55.81
266.732	-1.54
266.948	-1.54
267.164	43.52
267.38	49.66
267.596	107.01
267.812	37.38
268.028	-7.68
268.244	-36.35
268.46	74.24
268.676	-1.54
268.892	51.71
269.108	45.57
269.324	-44.54
269.54	33.28
269.756	115.2
269.972	4.61
270.188	-7.68
270.403	-83.45
270.619	82.43
270.835	35.33
271.051	18.94
271.267	-5.63
271.483	14.85
271.698	98.81
271.914	27.14
272.13	55.81
272.346	-26.11
272.562	43.52
272.777	57.86
272.993	104.96
273.209	57.86
273.425	109.05
273.64	20.99
273.856	12.8
274.072	20.99
274.287	8.7
274.503	27.14
274.719	29.18
274.934	20.99
275.15	18.94
275.366	25.09
275.581	-1.54
275.797	35.33
276.012	29.18
276.228	8.7
276.444	55.81
276.659	70.14
276.875	51.71
277.09	-1.54
277.306	33.28
277.521	53.76
277.737	-19.97
277.952	31.23
278.168	-32.26
278.383	8.7
278.599	41.47
278.814	37.38
279.03	12.8
279.245	82.43
279.461	-28.16
279.676	68.09
279.892	-15.87
280.107	-26.11
280.322	37.38
280.538	27.14
280.753	4.61
280.969	-40.45
281.184	-46.59
281.399	57.86
281.615	10.75
281.83	68.09
282.045	8.7
282.26	-11.78
282.476	43.52
282.691	2.56
282.906	12.8
283.122	12.8
283.337	35.33
283.552	-50.69
283.767	-19.97
283.983	31.23
284.198	18.94
284.413	33.28
284.628	49.66
284.843	74.24
285.058	59.9
285.274	64
285.489	45.57
285.704	-3.58
285.919	-108.03
286.134	25.09
286.349	59.9
286.564	57.86
286.779	111.1
286.995	16.9
287.21	-1.54
287.425	20.99
287.64	53.76
287.855	156.16
288.07	-30.21
288.285	88.57
288.5	10.75
288.715	49.66
288.93	49.66
289.145	23.04
289.36	31.23
289.575	31.23
289.79	18.94
290.004	76.29
290.219	57.86
290.434	41.47
290.649	78.33
290.864	6.66
291.079	68.09
291.294	129.53
291.509	4.61
291.724	20.99
291.938	78.33
292.153	6.66
292.368	-34.3
292.583	84.48
292.798	27.14
293.012	70.14
293.227	90.62
293.442	84.48
293.657	84.48
293.871	68.09
294.086	-28.16
294.301	39.42
294.516	86.53
294.73	6.66
294.945	-5.63
295.16	-13.82
295.374	74.24
295.589	-44.54
295.804	-1.54
296.018	82.43
296.233	72.19
296.447	16.9
296.662	33.28
296.877	121.34
297.091	78.33
297.306	59.9
297.52	-38.4
297.735	39.42
297.949	43.52
298.164	45.57
298.378	-15.87
298.593	4.61
298.807	76.29
299.022	23.04
299.236	12.8
299.451	-32.26
299.665	-32.26
299.88	41.47
300.094	55.81
300.309	20.99
300.523	-15.87
300.737	-17.92
300.952	-19.97
301.166	80.38
301.381	4.61
301.595	25.09
301.809	27.14
302.024	-7.68
302.238	12.8
302.452	102.91
302.667	119.29
302.881	66.05
303.095	55.81
303.309	53.76
303.524	23.04
303.738	68.09
303.952	51.71
304.166	2.56
304.381	-24.06
304.595	45.57
304.809	25.09
305.023	66.05
305.237	53.76
305.452	-1.54
305.666	0.51
305.88	59.9
306.094	33.28
306.308	70.14
306.522	82.43
306.736	88.57
306.95	82.43
307.164	61.95
307.379	43.52
307.593	86.53
307.807	68.09
308.021	-7.68
308.235	25.09
308.449	-24.06
308.663	-36.35
308.877	98.81
309.091	92.67
309.305	45.57
309.519	37.38
309.733	72.19
309.947	-15.87
310.161	49.66
310.374	47.62
310.588	70.14
310.802	-5.63
311.016	18.94
311.23	2.56
311.444	61.95
311.658	14.85
311.872	96.77
312.085	25.09
312.299	66.05
312.513	41.47
312.727	57.86
312.941	-3.58
313.154	23.04
313.368	37.38
313.582	66.05
313.796	74.24
314.009	55.81
314.223	72.19
314.437	68.09
314.651	33.28
314.864	-13.82
315.078	-7.68
315.292	-26.11
315.505	70.14
315.719	51.71
315.933	-3.58
316.146	49.66
316.36	27.14
316.573	31.23
316.787	49.66
317.001	27.14
317.214	109.05
317.428	-19.97
317.641	78.33
317.855	41.47
318.068	53.76
318.282	18.94
318.495	35.33
318.709	37.38
318.922	78.33
319.136	18.94
319.349	61.95
319.563	27.14
319.776	12.8
319.99	-9.73
320.203	-1.54
320.417	51.71
320.63	37.38
320.843	57.86
321.057	64
321.27	90.62
321.483	33.28
321.697	135.68
321.91	-26.11
322.124	29.18
322.337	10.75
322.55	-28.16
322.763	10.75
322.977	53.76
323.19	35.33
323.403	29.18
323.617	29.18
323.83	-7.68
324.043	51.71
324.256	37.38
324.469	-93.69
324.683	20.99
324.896	94.72
325.109	-5.63
325.322	-5.63
325.535	61.95
325.748	104.96
325.962	-15.87
326.175	57.86
326.388	76.29
326.601	51.71
326.814	55.81
327.027	10.75
327.24	53.76
327.453	-118.27
327.666	137.73
327.879	74.24
328.092	45.57
328.305	57.86
328.518	90.62
328.731	-36.35
328.944	-3.58
329.157	84.48
329.37	49.66
329.583	139.77
329.796	78.33
330.009	20.99
330.222	37.38
330.435	76.29
330.648	37.38
330.861	66.05
331.073	86.53
331.286	47.62
331.499	74.24
331.712	-32.26
331.925	94.72
332.138	10.75
332.35	39.42
332.563	78.33
332.776	37.38
332.989	-48.64
333.202	-19.97
333.414	29.18
333.627	129.53
333.84	-7.68
334.053	0.51
334.265	31.23
334.478	76.29
334.691	6.66
334.903	72.19
335.116	41.47
335.329	-46.59
335.541	45.57
335.754	68.09
335.966	74.24
336.179	70.14
336.392	8.7
336.604	59.9
336.817	35.33
337.029	-24.06
337.242	29.18
337.454	-28.16
337.667	41.47
337.88	78.33
338.092	86.53
338.305	47.62
338.517	45.57
338.729	37.38
338.942	6.66
339.154	45.57
339.367	-3.58
339.579	135.68
339.792	35.33
340.004	47.62
340.217	82.43
340.429	29.18
340.641	4.61
340.854	47.62
341.066	25.09
341.278	135.68
341.491	98.81
341.703	121.34
341.915	-22.02
342.128	49.66
342.34	2.56
342.552	8.7
342.764	86.53
342.977	70.14
343.189	59.9
343.401	61.95
343.613	16.9
343.826	61.95
344.038	49.66
344.25	53.76
344.462	6.66
344.674	37.38
344.886	76.29
345.099	45.57
345.311	45.57
345.523	-28.16
345.735	-7.68
345.947	66.05
346.159	51.71
346.371	55.81
346.583	41.47
346.795	74.24
347.007	-22.02
347.219	-67.07
347.431	18.94
347.643	27.14
347.855	-1.54
348.067	107.01
348.279	55.81
348.491	16.9
348.703	-9.73
348.915	-9.73
349.127	98.81
349.339	33.28
349.551	78.33
349.763	100.86
349.975	41.47
350.187	8.7
350.399	92.67
350.61	53.76
350.822	113.15
351.034	41.47
351.246	14.85
351.458	100.86
351.669	-28.16
351.881	98.81
352.093	41.47
352.305	98.81
352.517	23.04
352.728	88.57
352.94	66.05
353.152	31.23
353.363	18.94
353.575	49.66
353.787	20.99
353.999	74.24
354.21	96.77
354.422	12.8
354.633	-9.73
354.845	-13.82
355.057	35.33
355.268	41.47
355.48	10.75
355.692	88.57
355.903	12.8
356.115	47.62
356.326	-32.26
356.538	78.33
356.749	-11.78
356.961	47.62
357.172	-1.54
357.384	27.14
357.595	150.01
357.807	16.9
358.018	92.67
358.23	70.14
358.441	96.77
358.653	117.25
358.864	37.38
359.075	37.38
359.287	78.33
359.498	152.06
359.709	59.9
359.921	51.71
360.132	70.14
360.344	12.8
360.555	76.29
360.766	35.33
360.977	92.67
361.189	74.24
361.4	-52.74
361.611	51.71
361.823	66.05
362.034	66.05
362.245	-30.21
362.456	23.04
362.667	70.14
362.879	4.61
363.09	59.9
363.301	53.76
363.512	78.33
363.723	41.47
363.935	59.9
364.146	18.94
364.357	18.94
364.568	94.72
364.779	45.57
364.99	53.76
365.201	0.51
365.412	37.38
365.623	59.9
365.834	29.18
366.045	14.85
366.256	57.86
366.467	102.91
366.678	80.38
366.889	43.52
367.1	74.24
367.311	45.57
367.522	45.57
367.733	20.99
367.944	92.67
368.155	25.09
368.366	43.52
368.577	59.9
368.788	6.66
368.999	104.96
369.209	33.28
369.42	147.97
369.631	96.77
369.842	125.44
370.053	-26.11
370.264	35.33
370.474	45.57
370.685	39.42
370.896	33.28
371.107	66.05
371.317	16.9
371.528	12.8
371.739	109.05
371.95	100.86
372.16	16.9
372.371	-3.58
372.582	4.61
372.792	-19.97
373.003	-15.87
373.214	18.94
373.424	55.81
373.635	94.72
373.846	107.01
374.056	43.52
374.267	72.19
374.477	51.71
374.688	18.94
374.898	-36.35
375.109	55.81
375.319	102.91
375.53	78.33
375.74	76.29
375.951	127.49
376.161	2.56
376.372	84.48
376.582	-7.68
376.793	115.2
377.003	31.23
377.214	-24.06
377.424	-3.58
377.635	78.33
377.845	117.25
378.055	113.15
378.266	49.66
378.476	66.05
378.686	117.25
378.897	25.09
379.107	-9.73
379.317	100.86
379.528	8.7
379.738	31.23
379.948	2.56
380.158	131.58
380.369	96.77
380.579	47.62
380.789	35.33
380.999	51.71
381.21	57.86
381.42	76.29
381.63	27.14
381.84	-11.78
382.05	43.52
382.261	31.23
382.471	59.9
382.681	70.14
382.891	20.99
383.101	8.7
383.311	18.94
383.521	49.66
383.731	137.73
383.941	76.29
384.151	33.28
384.361	-1.54
384.571	35.33
384.781	82.43
384.991	107.01
385.201	123.39
385.411	29.18
385.621	29.18
385.831	90.62
386.041	43.52
386.251	33.28
386.461	70.14
386.671	51.71
386.881	195.07
387.091	33.28
387.301	47.62
387.511	29.18
387.72	84.48
387.93	72.19
388.14	55.81
388.35	57.86
388.56	37.38
388.769	49.66
388.979	49.66
389.189	55.81
389.399	53.76
389.609	66.05
389.818	61.95
390.028	57.86
390.238	35.33
390.447	61.95
390.657	64
390.867	152.06
391.076	8.7
391.286	53.76
391.496	94.72
391.705	51.71
391.915	121.34
392.125	104.96
392.334	4.61
392.544	84.48
392.753	57.86
392.963	113.15
393.172	150.01
393.382	57.86
393.591	152.06
393.801	57.86
394.01	98.81
394.22	39.42
394.429	117.25
394.639	80.38
394.848	107.01
395.058	45.57
395.267	43.52
395.477	82.43
395.686	45.57
395.895	78.33
396.105	180.73
396.314	47.62
396.524	86.53
396.733	125.44
396.942	96.77
397.152	104.96
397.361	143.87
397.57	59.9
397.78	59.9
397.989	127.49
398.198	98.81
398.407	119.29
398.617	98.81
398.826	141.82
399.035	174.59
399.244	94.72
399.453	127.49
399.663	156.16
399.872	121.34
400.081	76.29
400.29	150.01
400.499	100.86
400.708	109.05
400.917	129.53
401.127	109.05
401.336	100.86
401.545	131.58
401.754	152.06
401.963	139.77
402.172	172.54
402.381	61.95
402.59	133.63
402.799	82.43
403.008	160.25
403.217	193.02
403.426	37.38
403.635	135.68
403.844	82.43
404.053	96.77
404.262	168.45
404.471	223.74
404.68	131.58
404.888	59.9
405.097	102.91
405.306	150.01
405.515	166.4
405.724	115.2
405.933	188.93
406.142	152.06
406.35	158.21
406.559	201.21
406.768	217.6
406.977	250.36
407.185	225.79
407.394	276.99
407.603	248.32
407.812	221.69
408.02	291.32
408.229	303.61
408.438	229.88
408.646	186.88
408.855	182.78
409.064	250.36
409.272	266.75
409.481	315.9
409.69	307.71
409.898	313.85
410.107	381.43
410.315	356.86
410.524	299.52
410.733	350.71
410.941	344.57
411.15	369.15
411.358	430.59
411.567	371.19
411.775	436.73
411.984	387.58
412.192	397.82
412.401	475.64
412.609	492.02
412.818	528.89
413.026	539.13
413.234	569.85
413.443	502.26
413.651	506.36
413.86	532.98
414.068	606.71
414.276	686.58
414.485	651.77
414.693	672.25
414.901	700.92
415.11	745.97
415.318	698.87
415.526	684.53
415.734	850.42
415.943	844.28
416.151	838.13
416.359	846.32
416.567	934.39
416.776	981.49
416.984	1063.41
417.192	1057.26
417.4	1071.6
417.608	1012.21
417.817	1106.42
418.025	1178.09
418.233	1249.77
418.441	1163.76
418.649	1235.44
418.857	1335.79
419.065	1251.82
419.273	1446.38
419.481	1452.52
419.689	1538.54
419.897	1509.86
420.105	1573.35
420.313	1683.94
420.521	1638.89
420.729	1724.9
420.937	1757.67
421.145	1780.2
421.353	2052.58
421.561	1962.47
421.769	2036.19
421.977	2163.17
422.185	2095.58
422.393	2214.37
422.601	2404.83
422.809	2240.99
423.017	2413.02
423.224	2437.59
423.432	2615.77
423.64	2558.42
423.848	2920.92
424.056	2728.41
424.263	2933.2
424.471	2935.25
424.679	2879.96
424.887	3166.67
425.094	3336.65
425.302	3240.4
425.51	3385.8
425.718	3502.54
425.925	3539.4
426.133	3602.89
426.341	4026.82
426.548	4121.03
426.756	3975.62
426.964	4075.97
427.171	4286.91
427.379	4385.21
427.586	4579.77
427.794	4692.41
428.001	4821.43
428.209	5063.09
428.417	5067.19
428.624	5302.7
428.832	5452.2
429.039	5360.05
429.247	5394.86
429.454	5810.6
429.662	6336.93
429.869	5865.89
430.076	6369.69
430.284	6025.64
430.491	6427.04
430.699	6789.53
430.906	6748.57
431.114	6787.48
431.321	7139.73
431.528	7252.37
431.736	7711.11
431.943	7969.16
432.15	7752.07
432.358	7913.86
432.565	8339.84
432.772	8196.48
432.979	8710.52
433.187	8747.39
433.394	8614.27
433.601	9496.94
433.808	9460.08
434.016	9380.21
434.223	9711.98
434.43	10371.43
434.637	10285.41
434.844	10877.27
435.052	10895.71
435.259	11030.87
435.466	11178.33
435.673	10981.72
435.88	11567.44
436.087	12396.87
436.294	12349.76
436.501	11913.55
436.708	12308.8
436.915	12654.91
437.122	13295.93
437.329	13269.3
437.537	13537.59
437.743	13875.5
437.95	13869.36
438.157	14438.69
438.364	14784.8
438.571	14856.48
438.778	15071.51
438.985	16431.37
439.192	15722.77
439.399	16431.37
439.606	15878.41
439.813	16548.1
440.02	17649.91
440.227	17285.37
440.433	17107.19
440.64	17942.77
440.847	17721.59
441.054	18299.11
441.261	19456.22
441.467	19054.81
441.674	19517.65
441.881	20429
442.088	20099.28
442.294	19874
442.501	20388.04
442.708	20902.08
442.914	21778.61
443.121	22816.93
443.328	22100.14
443.534	23791.76
443.741	22763.68
443.948	22630.57
444.154	24014.99
444.361	23799.96
444.568	24254.61
444.774	24082.58
444.981	24561.8
445.187	25358.46
445.394	26378.35
445.6	26247.28
445.807	28276.82
446.013	27254.88
446.22	27478.11
446.426	28702.79
446.633	29263.94
446.839	29765.69
447.046	28653.64
447.252	30144.56
447.459	30289.97
447.665	30234.67
447.871	31608.86
448.078	32600.08
448.284	31512.61
448.491	32079.89
448.697	33265.67
448.903	33988.6
449.11	33927.16
449.316	33067.02
449.522	33902.59
449.728	34789.36
449.935	35043.31
450.141	34858.99
450.347	35651.55
450.553	34666.48
450.76	34781.17
450.966	36419.54
451.172	35809.25
451.378	36577.23
451.584	35985.37
451.791	36923.34
451.997	36485.08
452.203	37316.55
452.409	37337.03
452.615	37267.4
452.821	35262.44
453.027	35074.02
453.233	37064.65
453.44	35477.47
453.646	36104.15
453.852	36157.4
454.058	36919.24
454.264	35571.68
454.47	36059.1
454.676	35143.66
454.882	36454.36
455.088	33118.21
455.294	34023.42
455.5	34301.94
455.705	34576.37
455.911	33054.73
456.117	32370.71
456.323	32180.24
456.529	30124.08
456.735	31692.83
456.941	30715.95
457.147	30660.65
457.352	29505.6
457.558	29065.28
457.764	29231.17
457.97	28745.8
458.176	27920.47
458.381	27799.64
458.587	26644.59
458.793	26683.5
458.999	25292.93
459.204	27107.43
459.41	26187.89
459.616	24842.37
459.821	24649.86
460.027	24627.34
460.233	23793.81
460.438	22886.56
460.644	23267.48
460.85	22094
461.055	21823.67
461.261	21614.77
461.466	19892.43
461.672	19265.75
461.878	20867.27
462.083	19732.69
462.289	19157.21
462.494	19054.81
462.7	17907.95
462.905	17451.25
463.111	18209
463.316	18194.67
463.522	18112.75
463.727	18069.74
463.932	17756.4
464.138	17801.46
464.343	17871.09
464.549	17133.82
464.754	17918.19
464.959	17570.04
465.165	17393.91
465.37	16883.97
465.575	16339.21
465.781	16980.22
465.986	17133.82
466.191	16525.57
466.397	16333.06
466.602	15311.13
466.807	16027.92
467.012	16081.16
467.218	16017.68
467.423	15472.92
467.628	15759.63
467.833	16558.34
468.038	15800.59
468.244	15241.5
468.449	15929.61
468.654	15462.68
468.859	15261.98
469.064	15419.67
469.269	14545.19
469.474	14831.9
469.679	14889.24
469.885	14508.32
470.09	14885.15
470.295	14577.95
470.5	14281
470.705	14332.2
470.91	14266.66
471.115	14043.43
471.32	14010.67
471.525	14115.11
471.73	13732.14
471.935	13517.11
472.139	13254.97
472.344	13162.81
472.549	13127.99
472.754	13218.1
472.959	12978.49
473.164	12476.74
473.369	12650.81
473.574	12880.19
473.778	12710.21
473.983	12683.58
474.188	12403.01
474.393	11888.97
474.598	12370.24
474.802	11964.75
475.007	11790.67
475.212	11882.83
475.417	11389.27
475.621	11333.97
475.826	11506
476.031	11202.9
476.235	10961.24
476.44	11309.4
476.645	10744.16
476.849	11229.52
477.054	10987.86
477.259	10631.52
477.463	10742.11
477.668	10428.77
477.872	10303.84
478.077	10191.2
478.282	9945.45
478.486	10148.2
478.691	9884.01
478.895	9910.63
479.1	10002.79
479.304	9939.3
479.509	9634.16
479.713	9763.18
479.918	9834.86
480.122	9355.63
480.326	9425.26
480.531	9472.37
480.735	9527.66
480.94	9488.75
481.144	9580.91
481.348	9351.54
481.553	9286
481.757	8987
481.961	9267.57
482.166	9402.74
482.37	9116.02
482.574	9316.72
482.778	9255.28
482.983	9384.3
483.187	9202.04
483.391	9404.78
483.595	9056.63
483.8	9060.73
484.004	9214.32
484.208	9326.96
484.412	9138.55
484.616	9290.1
484.821	9273.71
485.025	9169.27
485.229	9316.72
485.433	9068.92
485.637	9222.52
485.841	9083.25
486.045	9173.36
486.249	9148.79
486.453	9245.04
486.657	8919.42
486.861	9204.08
487.065	8911.22
487.269	9019.77
487.473	8864.12
487.677	9144.69
487.881	9204.08
488.085	9101.69
488.289	9240.95
488.493	8911.22
488.697	9064.82
488.901	9228.66
489.105	9425.26
489.309	9271.67
489.512	9056.63
489.716	9218.42
489.92	9195.89
490.124	9073.01
490.328	9306.48
490.531	9314.67
490.735	9261.43
490.939	9359.73
491.143	9195.89
491.346	9421.17
491.55	9525.61
491.754	9439.6
491.958	9544.05
492.161	9378.16
492.365	9668.97
492.569	9427.31
492.772	9589.1
492.976	9652.59
493.18	9630.06
493.383	9863.53
493.587	9861.48
493.79	10090.85
493.994	9859.43
494.197	10019.18
494.401	10144.1
494.605	10221.92
494.808	10291.55
495.012	10178.92
495.215	10340.71
495.419	10301.79
495.622	10527.07
495.825	10608.99
496.029	10488.16
496.232	10869.08
496.436	10701.15
496.639	11315.54
496.843	10842.46
497.046	11219.28
497.249	11346.26
497.453	11260.24
497.656	11278.68
497.859	11487.57
498.063	11671.89
498.266	11901.26
498.469	11665.74
498.673	11958.6
498.876	12382.53
499.079	12271.94
499.282	12366.15
499.485	12681.53
499.689	12556.61
499.892	12859.71
500.095	12630.34
500.298	13164.86
500.501	13107.51
500.705	13383.99
500.908	13474.1
501.111	13480.24
501.314	13646.13
501.517	13785.39
501.72	13924.65
501.923	14217.51
502.126	14317.86
502.329	14461.22
502.532	14680.35
502.735	14772.51
502.938	15132.95
503.141	14848.29
503.344	15128.86
503.547	15393.05
503.75	15855.89
503.953	15587.6
504.156	15800.59
504.359	16032.01
504.562	16034.06
504.765	16685.31
504.968	16429.32
505.17	16769.28
505.373	16830.72
505.576	17201.4
505.779	17281.27
505.982	17359.1
506.185	17830.13
506.387	17647.86
506.59	17989.87
506.793	18475.24
506.996	18313.45
507.198	18573.54
507.401	18720.99
507.604	18966.75
507.807	19427.54
508.009	19450.07
508.212	19454.17
508.415	19898.58
508.617	20084.94
508.82	20041.93
509.022	20107.47
509.225	20764.87
509.428	20920.51
509.63	20908.22
509.833	21043.39
510.035	21897.39
510.238	21442.74
510.44	22010.03
510.643	22026.42
510.845	22147.25
511.048	22186.16
511.25	22595.75
511.453	22888.61
511.655	23681.17
511.858	23165.09
512.06	23728.28
512.262	23505.05
512.465	24098.96
512.667	24387.72
512.87	24215.69
513.072	24590.47
513.274	25094.27
513.477	25335.93
513.679	25313.41
513.881	25852.02
514.084	25761.91
514.286	26157.17
514.488	26103.92
514.69	26869.86
514.893	26869.86
515.095	26962.02
515.297	27623.51
515.499	27326.56
515.701	27928.66
515.904	28112.98
516.106	28246.1
516.308	28551.24
516.51	28647.5
516.712	28995.65
516.914	29323.33
517.116	29605.95
517.318	29694.01
517.52	30150.71
517.722	30095.41
517.925	30697.52
518.127	30914.6
518.329	31260.71
518.531	30826.54
518.733	31619.1
518.935	32249.88
519.136	31789.08
519.338	32626.7
519.54	32344.08
519.742	33198.09
519.944	33130.5
520.146	33640.45
520.348	33511.42
520.55	34111.48
520.752	34113.53
520.954	34797.55
521.155	34729.97
521.357	35381.22
521.559	35330.02
521.761	35866.59
521.963	35749.85
522.164	36055
522.366	36184.02
522.568	36714.45
522.77	36884.43
522.971	37441.48
523.173	36913.1
523.375	37881.79
523.576	37519.3
523.778	38092.73
523.98	38342.58
524.181	38256.57
524.383	38428.6
524.584	39122.86
524.786	39157.67
524.988	38789.04
525.189	39270.31
525.391	39733.15
525.592	40150.94
525.794	40474.52
525.995	40157.08
526.197	40232.86
526.398	40607.64
526.6	41006.99
526.801	40699.79
527.003	41154.44
527.204	41138.06
527.406	41797.51
527.607	42055.55
527.808	42061.69
528.01	41510.79
528.211	42092.41
528.412	42624.89
528.614	42583.93
528.815	42227.58
529.016	43003.76
529.218	42491.77
529.419	43124.59
529.62	42989.42
529.822	43132.78
530.023	42887.03
530.224	43147.12
530.425	43388.78
530.626	43253.61
530.828	43093.87
531.029	44293.98
531.23	43452.26
531.431	43374.44
531.632	44048.22
531.833	43968.35
532.035	44093.28
532.236	44277.6
532.437	44392.28
532.638	44414.81
532.839	44668.76
533.04	44386.14
533.241	43861.86
533.442	45010.77
533.643	44314.46
533.844	44447.58
534.045	44707.67
534.246	44164.96
534.447	44660.57
534.648	44351.32
534.849	44429.15
535.05	44736.34
535.251	44873.56
535.451	44578.65
535.652	44654.42
535.853	44934.99
536.054	44722.01
536.255	44754.77
536.456	44101.47
536.657	45414.22
536.857	44611.42
537.058	44918.61
537.259	44891.99
537.46	45004.63
537.66	44713.81
537.861	45129.55
538.062	44758.87
538.263	44908.37
538.463	44699.48
538.664	45090.64
538.865	44842.84
539.065	45240.14
539.266	44578.65
539.466	45457.23
539.667	44484.44
539.868	45356.88
540.068	44988.24
540.269	44765.01
540.469	45477.71
540.67	44867.41
540.87	44668.76
541.071	44957.52
541.271	45168.46
541.472	44613.46
541.672	44971.86
541.873	45119.31
542.073	44521.3
542.274	45061.97
542.474	44949.33
542.675	44244.83
542.875	45494.09
543.075	44967.76
543.276	44148.57
543.476	44967.76
543.676	44629.85
543.877	44848.98
544.077	44762.96
544.277	44652.37
544.478	44672.85
544.678	44789.59
544.878	44697.43
545.078	44781.4
545.279	44595.03
545.479	44480.35
545.679	45086.54
545.879	44599.13
546.079	44920.66
546.28	44222.3
546.48	44629.85
546.68	44769.11
546.88	44978
547.08	44730.2
547.28	44447.58
547.48	44216.16
547.68	44664.66
547.88	44617.56
548.081	44529.5
548.281	44357.47
548.481	44431.19
548.681	44926.8
548.881	44543.83
549.081	44468.06
549.28	44287.84
549.48	44865.36
549.68	44406.62
549.88	45045.58
550.08	44119.9
550.28	44703.57
550.48	44488.54
550.68	45107.02
550.88	44263.26
551.08	44592.98
551.279	44476.25
551.479	44171.1
551.679	44437.34
551.879	43992.93
552.079	44558.17
552.278	44015.46
552.478	44461.91
552.678	44689.24
552.878	44664.66
553.077	44537.69
553.277	43990.88
553.477	44756.82
553.676	44308.32
553.876	44345.18
554.076	44242.78
554.275	44076.9
554.475	43421.55
554.674	44201.82
554.874	44425.05
555.074	44062.56
555.273	44091.23
555.473	44363.61
555.672	43800.42
555.872	43745.12
556.071	44193.63
556.271	43655.01
556.47	43708.26
556.67	43390.83
556.869	43743.08
557.068	44037.98
557.268	43407.21
557.467	43525.99
557.667	43722.6
557.866	43736.93
558.065	43464.55
558.265	43177.84
558.464	42825.59
558.663	43198.32
558.863	42970.99
559.062	42995.57
559.261	42563.45
559.461	43224.94
559.66	42772.34
559.859	43143.02
560.058	42608.5
560.258	42473.34
560.457	42293.11
560.656	42612.6
560.855	42235.77
561.054	42475.38
561.253	42090.37
561.453	42215.29
561.652	42155.9
561.851	41916.29
562.05	42061.69
562.249	41633.67
562.448	42350.46
562.647	41645.96
562.846	41842.56
563.045	41910.14
563.244	41469.83
563.443	42145.66
563.642	41133.96
563.841	41566.09
564.04	40701.84
564.239	41510.79
564.438	40984.46
564.637	41285.51
564.836	40775.57
565.035	40347.54
565.234	40662.93
565.432	40511.38
565.631	40527.77
565.83	40998.8
566.029	40310.68
566.228	40255.39
566.427	40314.78
566.625	39995.29
566.824	39573.41
567.023	40120.22
567.222	39174.06
567.42	39671.71
567.619	39727.01
567.818	39378.86
568.016	39292.84
568.215	39522.21
568.414	39169.96
568.612	39241.64
568.811	38836.14
569.01	39206.83
569.208	38809.52
569.407	38786.99
569.605	38514.61
569.804	38715.31
570.002	38287.29
570.201	38188.99
570.4	38270.9
570.598	37959.61
570.797	37828.54
570.995	37672.9
571.193	37388.23
571.392	37681.09
571.59	37132.23
571.789	37517.25
571.987	37191.62
572.186	37328.84
572.384	37113.8
572.582	37177.29
572.781	37357.51
572.979	36644.82
573.177	36888.53
573.376	37230.54
573.574	36734.93
573.772	36851.66
573.971	36605.91
574.169	36083.67
574.367	35815.39
574.565	36388.82
574.763	35721.18
574.962	35831.77
575.16	35657.7
575.358	35659.74
575.556	35153.9
575.754	35698.66
575.952	35524.58
576.151	35399.65
576.349	34924.52
576.547	34965.48
576.745	35149.8
576.943	34936.81
577.141	34646
577.339	34824.17
577.537	34547.7
577.735	34709.49
577.933	34177.01
578.131	34641.9
578.329	34002.94
578.527	33955.83
578.725	33912.83
578.923	34236.41
579.121	33671.17
579.319	34023.42
579.516	33918.97
579.714	33671.17
579.912	33454.08
580.11	33447.94
580.308	33609.73
580.506	33474.56
580.704	32802.83
580.901	32937.99
581.099	33036.3
581.297	32438.29
581.495	32559.12
581.692	33026.06
581.89	32454.67
582.088	32856.07
582.285	32497.68
582.483	32444.43
582.681	32364.56
582.878	32108.57
583.076	31903.77
583.274	31961.11
583.471	31756.32
583.669	31975.45
583.866	31592.48
584.064	31651.87
584.262	31189.03
584.459	31182.88
584.657	31297.57
584.854	31586.33
585.052	30890.02
585.249	31217.7
585.447	30859.31
585.644	30959.66
585.841	31031.33
586.039	30900.26
586.236	30275.63
586.434	30363.7
586.631	30505.01
586.828	30296.11
587.026	30304.31
587.223	29997.11
587.42	29702.2
587.618	29788.22
587.815	29814.84
588.012	29796.41
588.21	29907
588.407	29841.46
588.604	29583.42
588.801	29268.03
588.999	29014.09
589.196	29050.95
589.393	29202.5
589.59	28979.27
589.787	29034.56
589.984	28588.11
590.182	28840.01
590.379	28835.91
590.576	28358.74
590.773	28407.89
590.97	28063.83
591.167	28508.24
591.364	28043.35
591.561	28338.26
591.758	27680.86
591.955	27867.22
592.152	28100.69
592.349	27750.49
592.546	27592.79
592.743	27277.41
592.94	27281.5
593.137	27742.3
593.334	27285.6
593.531	27175.01
593.727	27402.33
593.924	27168.87
594.121	26925.16
594.318	27498.59
594.515	26351.73
594.712	27043.94
594.908	26566.76
595.105	26486.89
595.302	26683.5
595.499	26513.52
595.696	26587.24
595.892	26095.73
596.089	26175.6
596.286	26167.41
596.482	25950.32
596.679	26001.52
596.876	25985.14
597.072	25813.11
597.269	25935.99
597.466	25647.22
597.662	25641.08
597.859	25430.14
598.055	25604.22
598.252	25188.48
598.448	24981.63
598.645	25065.6
598.841	24832.13
599.038	25084.03
599.234	24694.92
599.431	24787.08
599.627	24428.68
599.824	24844.42
600.02	24526.99
600.217	24701.06
600.413	24326.28
600.609	24189.07
600.806	24180.88
601.002	24248.46
601.198	24223.89
601.395	23984.27
601.591	23638.17
601.787	23834.77
601.984	23814.29
602.18	23660.69
602.376	23752.85
602.572	23230.62
602.769	23378.08
602.965	23384.22
603.161	23347.36
603.357	23150.75
603.553	23191.71
603.75	23249.05
603.946	23107.74
604.142	23064.74
604.338	22708.39
604.534	22458.54
604.73	22669.48
604.926	22663.33
605.122	22601.9
605.318	22489.26
605.514	22569.13
605.71	22175.92
605.906	22229.16
606.102	22253.74
606.298	22263.98
606.494	22188.21
606.69	22022.32
606.886	21924.02
607.082	21598.39
607.278	22259.88
607.474	21495.99
607.67	22007.98
607.866	21393.59
608.062	22040.75
608.257	21340.35
608.453	21586.1
608.649	21858.48
608.845	21346.49
609.041	21528.76
609.236	21348.54
609.432	21172.41
609.628	21473.46
609.824	20924.61
610.019	21039.29
610.215	21059.77
610.411	20961.47
610.606	20936.9
610.802	20992.19
610.998	20981.95
611.193	21027.01
611.389	20719.81
611.584	20379.85
611.78	20527.3
611.976	20592.84
612.171	20582.6
612.367	20525.25
612.562	20492.49
612.758	20275.4
612.953	20318.41
613.149	20558.02
613.344	20259.02
613.539	20330.7
613.735	20142.28
613.93	20324.55
614.126	19994.83
614.321	20392.14
614.517	20080.85
614.712	20005.07
614.907	19798.23
615.103	20201.68
615.298	19902.67
615.493	19845.33
615.688	19826.9
615.884	20252.87
616.079	19779.79
616.274	19796.18
616.47	19566.81
616.665	19630.29
616.86	19509.46
617.055	19669.2
617.25	19224.79
617.445	19744.98
617.641	19232.99
617.836	19546.33
618.031	19146.97
618.226	19390.68
618.421	18843.87
618.616	19349.72
618.811	18831.58
619.006	19222.75
619.201	18520.29
619.396	18716.9
619.591	18508.01
619.786	18931.94
619.981	18456.81
620.176	18606.31
620.371	18419.94
620.566	18456.81
620.761	18618.6
620.956	18446.57
621.151	17998.06
621.346	18194.67
621.541	17817.84
621.735	17869.04
621.93	17901.81
622.125	17484.02
622.32	17400.05
622.515	17406.2
622.709	17260.79
622.904	17334.52
623.099	17277.18
623.294	17246.46
623.488	16924.93
623.683	17047.8
623.878	16830.72
624.072	16922.88
624.267	16662.79
624.462	16605.44
624.656	16533.76
624.851	16472.32
625.046	16388.36
625.24	16345.35
625.435	16040.2
625.629	16195.85
625.824	15925.52
626.018	15913.23
626.213	15556.88
626.407	15993.1
626.602	15421.72
626.796	15841.55
626.991	15579.41
627.185	15509.78
627.38	15436.05
627.574	15554.83
627.768	15034.65
627.963	15139.1
628.157	14954.78
628.352	15210.78
628.546	14807.33
628.74	14893.34
628.935	14522.66
629.129	14676.26
629.323	14264.61
629.517	14649.63
629.712	14450.98
629.906	14360.87
630.1	14053.67
630.294	14240.04
630.489	13908.27
630.683	13992.23
630.877	13924.65
631.071	13762.86
631.265	13879.6
631.459	13633.84
631.653	13664.56
631.848	13644.08
632.042	13494.58
632.236	13404.47
632.43	13445.43
632.624	13365.56
632.818	13306.16
633.012	12882.24
633.206	13115.7
633.4	13367.6
633.594	12810.56
633.788	13015.35
633.982	12605.76
634.176	12902.72
634.369	12628.29
634.563	12478.79
634.757	12450.11
634.951	12419.39
635.145	12513.6
635.339	12243.27
635.533	12271.94
635.726	12190.02
635.92	12091.72
636.114	12032.33
636.308	12017.99
636.501	11753.8
636.695	11794.76
636.889	11815.24
637.083	11718.99
637.276	11680.08
637.47	11706.7
637.664	11696.46
637.857	11518.29
638.051	11692.37
638.244	11452.75
638.438	11286.87
638.632	11424.08
638.825	11368.79
639.019	11065.69
639.212	11182.42
639.406	11108.69
639.599	10916.19
639.793	11004.25
639.986	10686.81
640.18	10801.5
640.373	10879.32
640.567	10672.48
640.76	10746.2
640.954	10652
641.147	10643.81
641.34	10408.29
641.534	10473.82
641.727	10301.79
641.92	10408.29
642.114	10299.75
642.307	10066.28
642.5	10174.82
642.694	10228.07
642.887	10010.98
643.08	10103.14
643.273	10078.57
643.467	9896.3
643.66	9752.94
643.853	9795.95
644.046	9525.61
644.239	9585.01
644.432	9398.64
644.626	9691.5
644.819	9707.88
645.012	9412.98
645.205	9515.37
645.398	9562.48
645.591	9324.91
645.784	9292.15
645.977	9202.04
646.17	9062.77
646.363	8999.29
646.556	9062.77
646.749	9056.63
646.942	8941.94
647.135	8786.3
647.328	8692.09
647.521	8917.37
647.714	8917.37
647.907	8694.14
648.099	8962.42
648.292	8634.75
648.485	8614.27
648.678	8755.58
648.871	8507.77
649.064	8470.91
649.256	8427.9
649.449	8577.41
649.642	8432
649.835	8208.77
650.027	8257.92
650.22	8290.69
650.413	8204.67
650.605	8208.77
650.798	8044.93
650.991	8083.84
651.183	7944.58
651.376	7850.38
651.568	8143.24
651.761	7995.78
651.954	7958.92
652.146	7766.41
652.339	7901.58
652.531	7825.8
652.724	7807.37
652.916	7651.72
653.109	7549.32
653.301	7768.46
653.494	7340.43
653.686	7475.6
653.879	7582.09
654.071	7475.6
654.263	7391.63
654.456	7317.9
654.648	7373.2
654.84	7287.18
655.033	7104.92
655.225	7381.39
655.417	7135.64
655.61	7113.11
655.802	7115.16
655.994	7186.83
656.186	6910.36
656.379	7043.48
656.571	7000.47
656.763	6760.86
656.955	6795.67
657.148	6799.77
657.34	6951.32
657.532	6769.05
657.724	6861.21
657.916	6769.05
658.108	6617.5
658.3	6781.34
658.492	6668.7
658.684	6406.56
658.876	6607.26
659.068	6449.57
659.26	6422.94
659.452	6736.28
659.644	6590.88
659.836	6373.79
660.028	6488.48
660.22	6402.46
660.412	6154.66
660.604	6074.79
660.796	6341.02
660.988	6263.2
661.18	5999.01
661.372	6132.13
661.563	6111.65
661.755	6099.36
661.947	6201.76
662.139	5970.34
662.331	6121.89
662.522	6001.06
662.714	5917.09
662.906	5904.81
663.097	5904.81
663.289	5915.05
663.481	5736.87
663.673	5953.96
663.864	5894.57
664.056	5671.34
664.247	5894.57
664.439	5570.99
664.631	5669.29
664.822	5716.39
665.014	5675.43
665.205	5724.58
665.397	5648.81
665.588	5532.08
665.78	5575.08
665.971	5716.39
666.163	5665.19
666.354	5591.47
666.546	5329.33
666.737	5525.93
666.929	5200.3
667.12	5468.59
667.311	5292.46
667.503	5271.98
667.694	5321.13
667.885	5392.81
668.077	5200.3
668.268	5222.83
668.459	5339.57
668.651	5292.46
668.842	5165.49
669.033	5325.23
669.224	5102
669.416	5208.5
669.607	5087.67
669.798	4977.08
669.989	5161.39
670.18	5140.91
670.371	5132.72
670.563	5026.23
670.754	5087.67
670.945	4977.08
671.136	5018.04
671.327	5005.75
671.518	5052.85
671.709	4948.4
671.9	5005.75
672.091	4999.6
672.282	4858.29
672.473	4977.08
672.664	4835.77
672.855	4819.38
673.046	4741.56
673.237	5124.53
673.428	4958.64
673.619	4805.05
673.809	4962.74
674	4749.75
674.191	4907.45
674.382	4635.07
674.573	4667.83
674.764	4819.38
674.954	4880.82
675.145	4716.98
675.336	4585.91
675.527	4786.61
675.717	4776.38
675.908	4823.48
676.099	4841.91
676.289	4725.18
676.48	4628.92
676.671	4522.43
676.861	4749.75
677.052	4716.98
677.243	4491.71
677.433	4542.91
677.624	4800.95
677.814	4688.31
678.005	4549.05
678.195	4542.91
678.386	4583.87
678.576	4506.04
678.767	4663.74
678.957	4469.18
679.148	4665.78
679.338	4667.83
679.529	4524.47
679.719	4633.02
679.909	4680.12
680.1	4557.24
680.29	4614.59
680.481	4491.71
680.671	4641.21
680.861	4598.2
681.052	4581.82
681.242	4460.99
681.432	4571.58
681.622	4538.81
681.813	4475.32
682.003	4360.64
682.193	4321.73
682.383	4575.67
682.573	4417.98
682.764	4518.33
682.954	4499.9
683.144	4407.74
683.334	4415.93
683.524	4581.82
683.714	4475.32
683.904	4528.57
684.094	4377.02
684.284	4620.73
684.474	4567.48
684.664	4385.21
684.854	4381.12
685.044	4360.64
685.234	4411.84
685.424	4145.6
685.614	4137.41
685.804	4417.98
685.994	4348.35
686.184	4366.78
686.374	4350.4
686.564	4250.05
686.753	4243.9
686.943	4219.33
687.133	4219.33
687.323	4231.62
687.513	4145.6
687.702	4284.86
687.892	4129.22
688.082	4260.29
688.272	4112.83
688.461	4137.41
688.651	4012.48
688.841	4022.72
689.03	4108.74
689.22	4073.92
689.41	4010.43
689.599	4108.74
689.789	4082.11
689.979	3965.38
690.168	4110.79
690.358	3938.76
690.547	3836.36
690.737	3971.52
690.926	4041.15
691.116	3854.79
691.305	3987.91
691.495	3824.07
691.684	3920.32
691.874	3895.75
692.063	3834.31
692.252	3826.12
692.442	3789.25
692.631	3733.96
692.82	3711.43
693.01	3701.19
693.199	3799.49
693.388	3686.86
693.578	3688.9
693.767	3690.95
693.956	3609.03
694.146	3596.75
694.335	3797.45
694.524	3719.62
694.713	3664.33
694.902	3662.28
695.092	3611.08
695.281	3553.74
695.47	3557.83
695.659	3586.51
695.848	3572.17
696.037	3557.83
696.226	3563.98
696.415	3574.22
696.604	3572.17
696.793	3398.09
696.982	3439.05
697.171	3615.18
697.36	3355.08
697.549	3512.78
697.738	3467.72
697.927	3516.87
698.116	3672.52
698.305	3586.51
698.494	3537.35
698.683	3490.25
698.872	3609.03
699.061	3465.68
699.25	3348.94
699.438	3428.81
699.627	3484.11
699.816	3576.27
700.005	3580.36
700.193	3428.81
700.382	3486.15
700.571	3465.68
700.76	3441.1
700.948	3477.96
701.137	3533.26
701.326	3572.17
701.514	3453.39
701.703	3525.07
701.892	3482.06
702.08	3494.35
702.269	3545.55
702.457	3510.73
702.646	3420.62
702.834	3553.74
703.023	3410.38
703.212	3484.11
703.4	3473.87
703.589	3498.44
703.777	3574.22
703.965	3477.96
704.154	3365.32
704.342	3336.65
704.531	3252.69
704.719	3414.48
704.907	3445.2
705.096	3459.53
705.284	3434.96
705.472	3484.11
705.661	3482.06
705.849	3574.22
706.037	3477.96
706.226	3428.81
706.414	3396.04
706.602	3391.95
706.79	3516.87
706.979	3463.63
707.167	3551.69
707.355	3584.46
707.543	3369.42
707.731	3322.32
707.919	3473.87
708.107	3357.13
708.296	3402.19
708.484	3510.73
708.672	3432.91
708.86	3473.87
709.048	3535.31
709.236	3615.18
709.424	3537.35
709.612	3408.33
709.8	3506.63
709.988	3531.21
710.176	3426.76
710.364	3477.96
710.551	3559.88
710.739	3504.59
710.927	3387.85
711.115	3279.31
711.303	3463.63
711.491	3572.17
711.679	3412.43
711.866	3437
712.054	3480.01
712.242	3514.83
712.43	3518.92
712.617	3506.63
712.805	3424.72
712.993	3547.59
713.181	3377.61
713.368	3432.91
713.556	3469.77
713.744	3441.1
713.931	3416.52
714.119	3606.98
714.306	3621.32
714.494	3508.68
714.682	3443.15
714.869	3551.69
715.057	3441.1
715.244	3385.8
715.432	3594.7
715.619	3457.48
715.807	3600.84
715.994	3467.72
716.182	3510.73
716.369	3527.11
716.556	3654.09
716.744	3627.46
716.931	3500.49
717.119	3592.65
717.306	3506.63
717.493	3543.5
717.681	3383.76
717.868	3609.03
718.055	3508.68
718.242	3512.78
718.43	3484.11
718.617	3459.53
718.804	3492.3
718.991	3543.5
719.179	3572.17
719.366	3582.41
719.553	3557.83
719.74	3592.65
719.927	3537.35
720.114	3604.94
720.301	3477.96
720.488	3602.89
720.676	3490.25
720.863	3508.68
721.05	3629.51
721.237	3578.31
721.424	3518.92
721.611	3576.27
721.798	3441.1
721.985	3643.85
722.172	3437
722.358	3533.26
722.545	3498.44
722.732	3580.36
722.919	3584.46
723.106	3500.49
723.293	3609.03
723.48	3430.86
723.667	3457.48
723.853	3510.73
724.04	3434.96
724.227	3596.75
724.414	3551.69
724.6	3506.63
724.787	3357.13
724.974	3467.72
725.161	3312.08
725.347	3389.9
725.534	3461.58
725.72	3441.1
725.907	3506.63
726.094	3535.31
726.28	3445.2
726.467	3412.43
726.653	3455.44
726.84	3377.61
727.027	3500.49
727.213	3252.69
727.4	3496.39
727.586	3283.41
727.773	3344.84
727.959	3586.51
728.145	3649.99
728.332	3453.39
728.518	3592.65
728.705	3467.72
728.891	3631.56
729.077	3453.39
729.264	3430.86
729.45	3465.68
729.636	3365.32
729.823	3318.22
730.009	3377.61
730.195	3330.51
730.382	3340.75
730.568	3568.07
730.754	3293.65
730.94	3350.99
731.126	3406.28
731.313	3451.34
731.499	3500.49
731.685	3404.24
731.871	3361.23
732.057	3262.93
732.243	3496.39
732.429	3338.7
732.615	3424.72
732.801	3408.33
732.987	3402.19
733.173	3381.71
733.359	3445.2
733.545	3283.41
733.731	3316.17
733.917	3363.28
734.103	3502.54
734.289	3371.47
734.475	3330.51
734.661	3391.95
734.847	3256.78
735.033	3320.27
735.219	3326.41
735.404	3318.22
735.59	3287.5
735.776	3170.77
735.962	3318.22
736.148	3338.7
736.333	3277.26
736.519	3224.01
736.705	3228.11
736.89	3404.24
737.076	3234.25
737.262	3185.1
737.447	3400.14
737.633	3164.62
737.819	3269.07
738.004	3178.96
738.19	3138
738.375	3103.18
738.561	3318.22
738.747	3209.68
738.932	3117.52
739.118	3170.77
739.303	3213.77
739.489	3205.58
739.674	3166.67
739.859	3017.17
740.045	3047.89
740.23	3250.64
740.416	3099.09
740.601	3101.14
740.786	3144.14
740.972	2945.49
741.157	3019.22
741.342	3047.89
741.528	3207.63
741.713	2974.16
741.898	2974.16
742.084	3045.84
742.269	3164.62
742.454	3054.03
742.639	3064.27
742.824	2914.77
743.01	3000.79
743.195	2812.37
743.38	2941.4
743.565	2976.21
743.75	3000.79
743.935	2953.68
744.12	2855.38
744.305	2873.81
744.49	2855.38
744.675	2916.82
744.86	2943.44
745.045	2802.13
745.23	2757.08
745.415	2767.32
745.6	2814.42
745.785	2654.68
745.97	2757.08
746.155	2783.7
746.34	2740.69
746.525	2865.62
746.71	2787.8
746.895	2634.2
747.079	2679.26
747.264	2556.38
747.449	2533.85
747.634	2714.07
747.819	2613.72
748.003	2601.43
748.188	2558.42
748.373	2640.34
748.557	2595.29
748.742	2523.61
748.927	2513.37
749.111	2460.12
749.296	2484.7
749.481	2515.42
749.665	2396.64
749.85	2363.87
750.034	2329.05
750.219	2298.33
750.404	2322.91
750.588	2263.52
750.773	2103.78
750.957	2402.78
751.141	2269.66
751.326	2333.15
751.51	2288.09
751.695	2308.57
751.879	2179.55
752.064	2240.99
752.248	2206.17
752.432	2136.54
752.617	2175.45
752.801	2118.11
752.985	2103.78
753.17	2124.26
753.354	2025.95
753.538	2060.77
753.722	2068.96
753.907	2087.39
754.091	2058.72
754.275	2011.62
754.459	1894.88
754.643	1960.42
754.828	1935.84
755.012	1956.32
755.196	1917.41
755.38	2068.96
755.564	1892.84
755.748	1894.88
755.932	1882.6
756.116	1872.36
756.3	1987.04
756.484	1845.73
756.668	1835.49
756.852	1812.96
757.036	1864.16
757.22	1815.01
757.404	1735.14
757.588	1757.67
757.772	1747.43
757.956	1772
758.14	1722.85
758.323	1636.84
758.507	1747.43
758.691	1716.71
758.875	1688.04
759.059	1745.38
759.242	1669.61
759.426	1696.23
759.61	1630.7
759.794	1610.22
759.977	1614.31
760.161	1597.93
760.345	1640.93
760.528	1690.09
760.712	1575.4
760.895	1597.93
761.079	1464.81
761.263	1655.27
761.446	1556.97
761.63	1497.58
761.813	1528.3
761.997	1497.58
762.18	1425.9
762.364	1536.49
762.547	1405.42
762.731	1518.06
762.914	1520.1
763.098	1475.05
763.281	1505.77
763.464	1470.95
763.648	1505.77
763.831	1448.43
764.015	1372.65
764.198	1429.99
764.381	1464.81
764.564	1432.04
764.748	1425.9
764.931	1384.94
765.114	1495.53
765.297	1368.56
765.481	1288.68
765.664	1434.09
765.847	1376.75
766.03	1397.23
766.213	1257.96
766.397	1321.45
766.58	1270.25
766.763	1378.79
766.946	1329.64
767.129	1356.27
767.312	1241.58
767.495	1356.27
767.678	1366.51
767.861	1296.88
768.044	1217.01
768.227	1303.02
768.41	1352.17
768.593	1221.1
768.776	1282.54
768.959	1253.87
769.142	1270.25
769.324	1239.53
769.507	1217.01
769.69	1235.44
769.873	1245.68
770.056	1245.68
770.239	1200.62
770.421	1243.63
770.604	1198.57
770.787	1286.64
770.97	1135.09
771.152	1194.48
771.335	1067.5
771.518	1143.28
771.7	1102.32
771.883	1106.42
772.066	1085.94
772.248	1114.61
772.431	1251.82
772.613	1081.84
772.796	1055.22
772.978	1167.85
773.161	1098.22
773.343	1106.42
773.526	1087.98
773.708	1020.4
773.891	1020.4
774.073	971.25
774.256	1042.93
774.438	1040.88
774.621	975.35
774.803	1061.36
774.985	971.25
775.168	1049.07
775.35	956.91
775.532	1061.36
775.715	985.58
775.897	983.54
776.079	967.15
776.261	981.49
776.444	938.48
776.626	856.56
776.808	881.14
776.99	938.48
777.173	879.09
777.355	805.36
777.537	905.71
777.719	952.82
777.901	924.15
778.083	868.85
778.265	805.36
778.447	797.17
778.629	854.51
778.811	801.27
778.993	881.14
779.175	842.23
779.357	756.21
779.539	780.79
779.721	805.36
779.903	784.88
780.085	778.74
780.267	819.7
780.449	737.78
780.631	813.56
780.812	799.22
780.994	829.94
781.176	715.25
781.358	686.58
781.54	737.78
781.721	743.92
781.903	745.97
782.085	723.44
782.267	731.64
782.448	700.92
782.63	758.26
782.812	659.96
782.993	733.68
783.175	688.63
783.357	598.52
783.538	627.19
783.72	619
783.901	600.57
784.083	643.57
784.264	592.37
784.446	684.53
784.627	598.52
784.809	645.62
784.99	528.89
785.172	651.77
785.353	604.66
785.535	643.57
785.716	547.32
785.897	594.42
786.079	598.52
786.26	541.18
786.441	573.94
786.623	563.7
786.804	537.08
786.985	569.85
787.167	565.75
787.348	580.09
787.529	537.08
787.71	582.14
787.891	602.61
788.073	600.57
788.254	512.5
788.435	446.97
788.616	510.46
788.797	573.94
788.978	586.23
789.159	514.55
789.34	508.41
789.522	459.26
789.703	467.45
789.884	549.37
790.065	430.59
790.246	547.32
790.427	428.54
790.607	514.55
790.788	471.54
790.969	412.15
791.15	455.16
791.331	522.74
791.512	455.16
791.693	483.83
791.874	401.91
792.054	467.45
792.235	442.87
792.416	461.3
792.597	473.59
792.778	479.74
792.958	418.3
793.139	483.83
793.32	455.16
793.5	408.06
793.681	489.98
793.862	512.5
794.042	440.83
794.223	371.19
794.404	363
794.584	420.35
794.765	326.14
794.945	428.54
795.126	358.91
795.306	479.74
795.487	426.49
795.667	332.28
795.848	395.77
796.028	436.73
796.209	467.45
796.389	467.45
796.57	334.33
796.75	250.36
796.93	397.82
797.111	317.95
797.291	315.9
797.471	328.19
797.652	334.33
797.832	393.72
798.012	444.92
798.192	338.43
798.373	299.52
798.553	305.66
798.733	401.91
798.913	340.47
799.093	387.58
799.274	303.61
799.454	328.19
799.634	330.23
799.814	365.05
799.994	322.04
800.174	354.81
800.354	328.19
800.534	262.65
800.714	381.43
800.894	297.47
801.074	246.27
801.254	254.46
801.434	307.71
801.614	299.52
801.794	307.71
801.974	797.17
802.154	236.03
802.334	340.47
802.514	266.75
802.693	299.52
802.873	264.7
803.053	252.41
803.233	336.38
803.413	315.9
803.592	295.42
803.772	375.29
803.952	301.56
804.131	274.94
804.311	303.61
804.491	315.9
804.67	205.31
804.85	287.23
805.03	233.98
805.209	313.85
805.389	246.27
805.568	297.47
805.748	311.8
805.928	217.6
806.107	272.89
806.287	291.32
806.466	266.75
806.646	272.89
806.825	215.55
807.004	311.8
807.184	287.23
807.363	260.6
807.543	285.18
807.722	348.67
807.901	233.98
808.081	346.62
808.26	215.55
808.439	242.17
808.619	184.83
808.798	135.68
808.977	215.55
809.156	299.52
809.336	231.93
809.515	274.94
809.694	283.13
809.873	225.79
810.052	195.07
810.231	178.69
810.411	236.03
810.59	295.42
810.769	205.31
810.948	201.21
811.127	166.4
811.306	221.69
811.485	289.28
811.664	250.36
811.843	176.64
812.022	252.41
812.201	223.74
812.38	217.6
812.559	242.17
812.737	176.64
812.916	150.01
813.095	225.79
813.274	231.93
813.453	176.64
813.632	193.02
813.811	254.46
813.989	217.6
814.168	158.21
814.347	201.21
814.526	190.97
814.704	227.84
814.883	246.27
815.062	168.45
815.24	166.4
815.419	162.3
815.598	236.03
815.776	141.82
815.955	174.59
816.133	150.01
816.312	168.45
816.49	133.63
816.669	176.64
816.847	188.93
817.026	199.16
817.204	205.31
817.383	195.07
817.561	78.33
817.74	260.6
817.918	188.93
818.097	180.73
818.275	129.53
818.453	188.93
818.632	248.32
818.81	111.1
818.988	59.9
819.167	145.92
819.345	219.64
819.523	139.77
819.701	213.5
819.879	201.21
820.058	86.53
820.236	225.79
820.414	174.59
820.592	119.29
820.77	211.45
820.948	195.07
821.127	154.11
821.305	156.16
821.483	119.29
821.661	166.4
821.839	141.82
822.017	115.2
822.195	180.73
822.373	164.35
822.551	100.86
822.729	262.65
822.907	64
823.085	131.58
823.262	188.93
823.44	115.2
823.618	119.29
823.796	135.68
823.974	61.95
824.152	123.39
824.329	113.15
824.507	147.97
824.685	193.02
824.863	131.58
825.04	96.77
825.218	174.59
825.396	111.1
825.574	184.83
825.751	82.43
825.929	172.54
826.107	135.68
826.284	133.63
826.462	145.92
826.639	94.72
826.817	96.77
826.994	156.16
827.172	127.49
827.349	115.2
827.527	131.58
827.704	131.58
827.882	195.07
828.059	127.49
828.237	80.38
828.414	104.96
828.591	86.53
828.769	107.01
828.946	53.76
829.124	80.38
829.301	207.36
829.478	127.49
829.655	119.29
829.833	64
830.01	102.91
830.187	184.83
830.364	94.72
830.542	111.1
830.719	121.34
830.896	156.16
831.073	119.29
831.25	125.44
831.427	166.4
831.604	78.33
831.782	131.58
831.959	96.77
832.136	98.81
832.313	92.67
832.49	115.2
832.667	145.92
832.844	139.77
833.021	154.11
833.198	176.64
833.374	68.09
833.551	64
833.728	98.81
833.905	100.86
834.082	53.76
834.259	109.05
834.436	98.81
834.612	61.95
834.789	131.58
834.966	80.38
835.143	80.38
835.319	74.24
835.496	61.95
835.673	35.33
835.85	145.92
836.026	102.91
836.203	127.49
836.38	68.09
836.556	137.73
836.733	78.33
836.909	156.16
837.086	20.99
837.262	74.24
837.439	70.14
837.616	98.81
837.792	162.3
837.968	68.09
838.145	59.9
838.321	133.63
838.498	59.9
838.674	59.9
838.851	37.38
839.027	59.9
839.203	104.96
839.38	92.67
839.556	74.24
839.732	111.1
839.909	115.2
840.085	166.4
840.261	12.8
840.437	121.34
840.614	49.66
840.79	31.23
840.966	133.63
841.142	72.19
841.318	86.53
841.494	66.05
841.671	92.67
841.847	-15.87
842.023	78.33
842.199	104.96
842.375	61.95
842.551	47.62
842.727	0.51
842.903	82.43
843.079	49.66
843.255	111.1
843.431	78.33
843.607	55.81
843.783	35.33
843.959	141.82
844.134	115.2
844.31	102.91
844.486	123.39
844.662	20.99
844.838	39.42
845.013	53.76
845.189	102.91
845.365	80.38
845.541	45.57
845.716	102.91
845.892	78.33
846.068	107.01
846.244	96.77
846.419	23.04
846.595	16.9
846.77	100.86
846.946	68.09
847.122	-26.11
847.297	-5.63
847.473	125.44
847.648	12.8
847.824	135.68
847.999	53.76
848.175	4.61
848.35	70.14
848.526	94.72
848.701	-11.78
848.876	45.57
849.052	78.33
849.227	94.72
849.403	45.57
849.578	88.57
849.753	35.33
849.929	68.09
850.104	90.62
850.279	41.47
850.454	66.05
850.63	64
850.805	96.77
850.98	35.33
851.155	20.99
851.33	78.33
851.505	-11.78
851.681	61.95
851.856	53.76
852.031	20.99
852.206	96.77
852.381	41.47
852.556	33.28
852.731	109.05
852.906	100.86
853.081	90.62
853.256	49.66
853.431	4.61
853.606	-1.54
853.781	0.51
853.956	35.33
854.131	-3.58
854.305	29.18
854.48	86.53
854.655	12.8
854.83	0.51
855.005	53.76
855.18	29.18
855.354	107.01
855.529	74.24
855.704	20.99
855.879	51.71
856.053	45.57
856.228	-7.68
856.403	-71.17
856.577	-1.54
856.752	78.33
856.926	70.14
857.101	31.23
857.276	74.24
857.45	61.95
857.625	12.8
857.799	45.57
857.974	102.91
858.148	29.18
858.323	51.71
858.497	55.81
858.672	-17.92
858.846	53.76
859.02	82.43
859.195	-5.63
859.369	31.23
859.543	20.99
859.718	-11.78
859.892	61.95
860.066	18.94
860.241	53.76
860.415	98.81
860.589	-30.21
860.763	59.9
860.938	14.85
861.112	49.66
861.286	10.75
861.46	2.56
861.634	-15.87
861.808	2.56
861.982	14.85
862.157	-38.4
862.331	2.56
862.505	-22.02
862.679	16.9
862.853	14.85
863.027	45.57
863.201	127.49
863.375	-9.73
863.549	33.28
863.722	61.95
863.896	-19.97
864.07	-73.21
864.244	45.57
864.418	74.24
864.592	53.76
864.766	23.04
864.939	49.66
865.113	14.85
865.287	29.18
865.461	-7.68
865.634	107.01
865.808	53.76
865.982	8.7
866.156	35.33
866.329	16.9
866.503	152.06
866.676	33.28
866.85	27.14
867.024	-24.06
867.197	-11.78
867.371	8.7
867.544	-28.16
867.718	53.76
867.891	59.9
868.065	-30.21
868.238	8.7
868.412	94.72
868.585	0.51
868.759	-15.87
868.932	-11.78
869.105	-42.5
869.279	-9.73
869.452	18.94
869.625	45.57
869.799	35.33
869.972	49.66
870.145	6.66
870.319	74.24
870.492	29.18
870.665	-38.4
870.838	55.81
871.011	-19.97
871.185	35.33
871.358	-19.97
871.531	16.9
871.704	70.14
871.877	45.57
872.05	0.51
872.223	-7.68
872.396	31.23
872.569	-1.54
872.742	29.18
872.915	25.09
873.088	35.33
873.261	-19.97
873.434	-1.54
873.607	43.52
873.78	23.04
873.953	-19.97
874.126	-11.78
874.299	-38.4
874.471	-30.21
874.644	27.14
874.817	64
874.99	37.38
875.163	45.57
875.335	18.94
875.508	64
875.681	-15.87
875.853	-46.59
876.026	43.52
876.199	41.47
876.371	41.47
876.544	8.7
876.717	0.51
876.889	53.76
877.062	27.14
877.234	-50.69
877.407	-44.54
877.579	18.94
877.752	12.8
877.924	41.47
878.097	-11.78
878.269	-52.74
878.442	41.47
878.614	-17.92
878.786	35.33
878.959	64
879.131	35.33
879.303	-28.16
879.476	47.62
879.648	100.86
879.82	0.51
879.993	-5.63
880.165	20.99
880.337	10.75
880.509	2.56
880.681	-85.5
880.854	0.51
881.026	14.85
881.198	137.73
881.37	55.81
881.542	-15.87
881.714	-32.26
881.886	-24.06
882.058	-40.45
882.23	27.14
882.402	-11.78
882.574	51.71
882.746	61.95
882.918	-24.06
883.09	12.8
883.262	-19.97
883.434	-19.97
883.606	-44.54
883.778	64
883.95	117.25
884.122	49.66
884.293	145.92
884.465	4.61
884.637	8.7
884.809	-52.74
884.98	64
885.152	-15.87
885.324	31.23
885.496	39.42
885.667	-73.21
885.839	29.18
886.011	51.71
886.182	29.18
886.354	53.76
886.525	64
886.697	84.48
886.869	53.76
887.04	-3.58
887.212	12.8
887.383	111.1
887.555	-3.58
887.726	2.56
887.897	-3.58
888.069	55.81
888.24	55.81
888.412	2.56
888.583	-9.73
888.754	74.24
888.926	-58.88
889.097	-17.92
889.268	-28.16
889.44	12.8
889.611	-3.58
889.782	14.85
889.953	104.96
890.125	29.18
890.296	25.09
890.467	-60.93
890.638	2.56
890.809	2.56
890.98	29.18
891.151	0.51
891.323	0.51
891.494	86.53
891.665	-17.92
891.836	20.99
892.007	-5.63
892.178	-9.73
892.349	-19.97
892.52	-54.78
892.691	-50.69
892.862	-28.16
893.032	-79.36
893.203	53.76
893.374	-38.4
893.545	59.9
893.716	-48.64
893.887	-48.64
894.057	94.72
894.228	41.47
894.399	-13.82
894.57	68.09
894.74	41.47
894.911	29.18
895.082	29.18
895.253	-32.26
895.423	14.85
895.594	-5.63
895.764	57.86
895.935	-24.06
896.106	-40.45
896.276	16.9
896.447	25.09
896.617	6.66
896.788	10.75
896.958	-15.87
897.129	18.94
897.299	-24.06
897.47	-13.82
897.64	55.81
897.81	23.04
897.981	68.09
898.151	-28.16
898.322	-15.87
898.492	-28.16
898.662	-13.82
898.832	-11.78
899.003	10.75
899.173	-1.54
899.343	-5.63
899.513	-32.26
