Data from USB4F104151__178__10-27-49-989.txt Node

Date: Wed Mar 12 10:27:49 EDT 2025
User: louis
Spectrometer: USB4F10415
Trigger mode: 4
Integration Time (sec): 3.000000E-2
Scans to average: 1
Electric dark correction enabled: true
Nonlinearity correction enabled: false
Boxcar width: 0
XAxis mode: Wavelengths
Number of Pixels in Spectrum: 3648
>>>>>Begin Spectral Data<<<<<
178.204	-124.24
178.424	-124.24
178.644	-124.24
178.864	-144.72
179.084	-77.14
179.304	12.97
179.524	0.68
179.744	12.97
179.964	66.22
180.184	25.26
180.404	10.92
180.624	-17.75
180.844	29.35
181.064	-128.34
181.283	-34.13
181.503	10.92
181.723	10.92
181.943	-99.67
182.163	84.65
182.383	19.11
182.602	2.73
182.822	51.88
183.042	-9.56
183.262	-25.94
183.482	-1.37
183.701	-9.56
183.921	58.03
184.141	-1.37
184.361	58.03
184.58	58.03
184.8	4.78
185.02	60.07
185.239	25.26
185.459	-1.37
185.679	101.03
185.898	6.83
186.118	19.11
186.338	19.11
186.557	19.11
186.777	49.83
186.997	4.78
187.216	-25.94
187.436	47.79
187.655	35.5
187.875	-19.8
188.095	-38.23
188.314	86.7
188.534	72.36
188.753	58.03
188.973	64.17
189.192	64.17
189.412	-9.56
189.631	21.16
189.851	70.31
190.07	64.17
190.29	2.73
190.509	25.26
190.729	47.79
190.948	-3.41
191.168	94.89
191.387	113.32
191.607	-21.84
191.826	43.69
192.045	29.35
192.265	76.46
192.484	-32.08
192.704	37.55
192.923	-19.8
193.142	98.99
193.362	98.99
193.581	45.74
193.8	66.22
194.02	86.7
194.239	43.69
194.458	2.73
194.678	-7.51
194.897	27.31
195.116	49.83
195.335	29.35
195.555	10.92
195.774	45.74
195.993	45.74
196.212	33.45
196.432	41.64
196.651	-1.37
196.87	43.69
197.089	86.7
197.308	49.83
197.528	-25.94
197.747	15.02
197.966	25.26
198.185	123.56
198.404	68.27
198.623	19.11
198.842	39.59
199.062	55.98
199.281	37.55
199.5	92.84
199.719	-15.7
199.938	6.83
200.157	8.87
200.376	101.03
200.595	84.65
200.814	33.45
201.033	0.68
201.252	39.59
201.471	21.16
201.69	58.03
201.909	41.64
202.128	27.31
202.347	84.65
202.566	-30.04
202.785	35.5
203.004	35.5
203.223	133.8
203.442	23.21
203.661	-1.37
203.879	94.89
204.098	76.46
204.317	-7.51
204.536	39.59
204.755	23.21
204.974	10.92
205.193	76.46
205.411	31.4
205.63	70.31
205.849	8.87
206.068	41.64
206.287	74.41
206.505	2.73
206.724	101.03
206.943	31.4
207.162	49.83
207.381	-1.37
207.599	21.16
207.818	92.84
208.037	70.31
208.255	-36.18
208.474	76.46
208.693	51.88
208.911	-19.8
209.13	58.03
209.349	-36.18
209.567	45.74
209.786	17.07
210.005	76.46
210.223	25.26
210.442	10.92
210.661	25.26
210.879	51.88
211.098	-5.46
211.316	41.64
211.535	21.16
211.753	-7.51
211.972	0.68
212.191	-58.71
212.409	-19.8
212.628	49.83
212.846	33.45
213.065	51.88
213.283	62.12
213.502	0.68
213.72	101.03
213.938	68.27
214.157	8.87
214.375	35.5
214.594	12.97
214.812	21.16
215.031	101.03
215.249	60.07
215.467	-23.89
215.686	17.07
215.904	21.16
216.122	6.83
216.341	78.51
216.559	17.07
216.778	31.4
216.996	-13.65
217.214	-68.95
217.432	25.26
217.651	-1.37
217.869	19.11
218.087	39.59
218.306	-1.37
218.524	66.22
218.742	37.55
218.96	2.73
219.179	17.07
219.397	-9.56
219.615	109.23
219.833	70.31
220.051	80.55
220.27	66.22
220.488	0.68
220.706	84.65
220.924	35.5
221.142	51.88
221.36	-7.51
221.578	78.51
221.796	47.79
222.015	60.07
222.233	47.79
222.451	51.88
222.669	2.73
222.887	64.17
223.105	-40.28
223.323	19.11
223.541	-23.89
223.759	4.78
223.977	39.59
224.195	47.79
224.413	25.26
224.631	58.03
224.849	19.11
225.067	15.02
225.285	37.55
225.503	-1.37
225.721	-15.7
225.939	15.02
226.157	39.59
226.375	121.51
226.592	55.98
226.81	45.74
227.028	25.26
227.246	49.83
227.464	43.69
227.682	101.03
227.9	25.26
228.117	66.22
228.335	-5.46
228.553	29.35
228.771	8.87
228.989	64.17
229.206	10.92
229.424	43.69
229.642	64.17
229.86	107.18
230.077	51.88
230.295	72.36
230.513	76.46
230.731	-34.13
230.948	72.36
231.166	76.46
231.384	6.83
231.601	39.59
231.819	68.27
232.037	-62.8
232.254	29.35
232.472	17.07
232.689	-5.46
232.907	78.51
233.125	4.78
233.342	6.83
233.56	-58.71
233.777	15.02
233.995	98.99
234.213	27.31
234.43	47.79
234.648	-25.94
234.865	74.41
235.083	129.7
235.3	25.26
235.518	66.22
235.735	39.59
235.953	121.51
236.17	19.11
236.388	-32.08
236.605	43.69
236.822	60.07
237.04	-32.08
237.257	19.11
237.475	23.21
237.692	31.4
237.909	-5.46
238.127	-9.56
238.344	4.78
238.562	94.89
238.779	29.35
238.996	-15.7
239.214	25.26
239.431	72.36
239.648	49.83
239.865	41.64
240.083	84.65
240.3	12.97
240.517	8.87
240.735	92.84
240.952	107.18
241.169	86.7
241.386	47.79
241.603	29.35
241.821	-13.65
242.038	31.4
242.255	15.02
242.472	35.5
242.689	55.98
242.907	80.55
243.124	84.65
243.341	76.46
243.558	47.79
243.775	6.83
243.992	0.68
244.209	39.59
244.426	64.17
244.643	23.21
244.86	84.65
245.078	80.55
245.295	76.46
245.512	31.4
245.729	-71
245.946	27.31
246.163	8.87
246.38	25.26
246.597	66.22
246.814	-11.61
247.031	25.26
247.248	-15.7
247.464	19.11
247.681	-5.46
247.898	31.4
248.115	19.11
248.332	35.5
248.549	113.32
248.766	45.74
248.983	4.78
249.2	0.68
249.417	39.59
249.633	33.45
249.85	-11.61
250.067	88.75
250.284	-17.75
250.501	41.64
250.717	15.02
250.934	-13.65
251.151	51.88
251.368	109.23
251.585	47.79
251.801	-25.94
252.018	17.07
252.235	64.17
252.451	4.78
252.668	10.92
252.885	-9.56
253.102	21.16
253.318	60.07
253.535	76.46
253.752	90.79
253.968	49.83
254.185	0.68
254.401	8.87
254.618	12.97
254.835	70.31
255.051	64.17
255.268	96.94
255.484	6.83
255.701	31.4
255.917	29.35
256.134	-27.99
256.351	15.02
256.567	4.78
256.784	55.98
257	-81.24
257.217	111.27
257.433	39.59
257.65	53.93
257.866	19.11
258.082	41.64
258.299	31.4
258.515	6.83
258.732	-25.94
258.948	51.88
259.165	17.07
259.381	96.94
259.597	23.21
259.814	31.4
260.03	-3.41
260.246	6.83
260.463	-38.23
260.679	37.55
260.895	53.93
261.112	39.59
261.328	51.88
261.544	-13.65
261.761	115.37
261.977	-1.37
262.193	8.87
262.409	62.12
262.626	64.17
262.842	35.5
263.058	10.92
263.274	-7.51
263.49	8.87
263.707	62.12
263.923	47.79
264.139	2.73
264.355	17.07
264.571	72.36
264.787	31.4
265.004	10.92
265.22	25.26
265.436	25.26
265.652	0.68
265.868	64.17
266.084	-46.42
266.3	29.35
266.516	88.75
266.732	98.99
266.948	92.84
267.164	31.4
267.38	-40.28
267.596	23.21
267.812	144.04
268.028	43.69
268.244	35.5
268.46	-15.7
268.676	-32.08
268.892	43.69
269.108	31.4
269.324	51.88
269.54	74.41
269.756	-9.56
269.972	-87.38
270.188	64.17
270.403	41.64
270.619	19.11
270.835	66.22
271.051	10.92
271.267	2.73
271.483	-17.75
271.698	41.64
271.914	101.03
272.13	58.03
272.346	45.74
272.562	27.31
272.777	25.26
272.993	80.55
273.209	37.55
273.425	-13.65
273.64	111.27
273.856	70.31
274.072	47.79
274.287	29.35
274.503	68.27
274.719	25.26
274.934	37.55
275.15	-1.37
275.366	31.4
275.581	-40.28
275.797	8.87
276.012	41.64
276.228	6.83
276.444	-23.89
276.659	-42.32
276.875	47.79
277.09	23.21
277.306	62.12
277.521	-21.84
277.737	78.51
277.952	64.17
278.168	12.97
278.383	-52.56
278.599	68.27
278.814	64.17
279.03	0.68
279.245	51.88
279.461	8.87
279.676	49.83
279.892	41.64
280.107	10.92
280.322	-87.38
280.538	70.31
280.753	51.88
280.969	-11.61
281.184	115.37
281.399	43.69
281.615	19.11
281.83	37.55
282.045	-75.09
282.26	2.73
282.476	80.55
282.691	45.74
282.906	74.41
283.122	96.94
283.337	-11.61
283.552	23.21
283.767	0.68
283.983	96.94
284.198	-13.65
284.413	60.07
284.628	-17.75
284.843	25.26
285.058	-19.8
285.274	-11.61
285.489	-23.89
285.704	19.11
285.919	31.4
286.134	8.87
286.349	33.45
286.564	39.59
286.779	101.03
286.995	-3.41
287.21	-5.46
287.425	23.21
287.64	31.4
287.855	19.11
288.07	-27.99
288.285	66.22
288.5	-1.37
288.715	55.98
288.93	29.35
289.145	-50.52
289.36	78.51
289.575	-1.37
289.79	88.75
290.004	29.35
290.219	86.7
290.434	47.79
290.649	31.4
290.864	-15.7
291.079	12.97
291.294	19.11
291.509	43.69
291.724	86.7
291.938	-5.46
292.153	37.55
292.368	94.89
292.583	-52.56
292.798	58.03
293.012	64.17
293.227	17.07
293.442	-3.41
293.657	43.69
293.871	53.93
294.086	53.93
294.301	17.07
294.516	-1.37
294.73	-5.46
294.945	8.87
295.16	27.31
295.374	60.07
295.589	45.74
295.804	84.65
296.018	-34.13
296.233	15.02
296.447	29.35
296.662	51.88
296.877	103.08
297.091	51.88
297.306	72.36
297.52	2.73
297.735	70.31
297.949	-17.75
298.164	98.99
298.378	70.31
298.593	8.87
298.807	80.55
299.022	2.73
299.236	129.7
299.451	19.11
299.665	6.83
299.88	6.83
300.094	43.69
300.309	6.83
300.523	-81.24
300.737	60.07
300.952	8.87
301.166	107.18
301.381	84.65
301.595	-11.61
301.809	8.87
302.024	74.41
302.238	10.92
302.452	41.64
302.667	107.18
302.881	17.07
303.095	0.68
303.309	49.83
303.524	35.5
303.738	-11.61
303.952	6.83
304.166	166.57
304.381	68.27
304.595	49.83
304.809	19.11
305.023	35.5
305.237	21.16
305.452	58.03
305.666	15.02
305.88	10.92
306.094	115.37
306.308	49.83
306.522	55.98
306.736	-11.61
306.95	39.59
307.164	4.78
307.379	74.41
307.593	135.85
307.807	92.84
308.021	12.97
308.235	17.07
308.449	58.03
308.663	-68.95
308.877	123.56
309.091	15.02
309.305	66.22
309.519	-21.84
309.733	8.87
309.947	47.79
310.161	86.7
310.374	8.87
310.588	27.31
310.802	10.92
311.016	31.4
311.23	17.07
311.444	27.31
311.658	62.12
311.872	121.51
312.085	111.27
312.299	101.03
312.513	60.07
312.727	53.93
312.941	15.02
313.154	8.87
313.368	39.59
313.582	31.4
313.796	27.31
314.009	39.59
314.223	47.79
314.437	47.79
314.651	31.4
314.864	37.55
315.078	51.88
315.292	0.68
315.505	68.27
315.719	86.7
315.933	31.4
316.146	103.08
316.36	-1.37
316.573	101.03
316.787	-11.61
317.001	94.89
317.214	10.92
317.428	74.41
317.641	41.64
317.855	-11.61
318.068	80.55
318.282	-21.84
318.495	72.36
318.709	72.36
318.922	51.88
319.136	68.27
319.349	29.35
319.563	25.26
319.776	45.74
319.99	-25.94
320.203	10.92
320.417	15.02
320.63	33.45
320.843	27.31
321.057	60.07
321.27	94.89
321.483	-23.89
321.697	111.27
321.91	53.93
322.124	41.64
322.337	-23.89
322.55	-19.8
322.763	45.74
322.977	33.45
323.19	33.45
323.403	62.12
323.617	35.5
323.83	80.55
324.043	-46.42
324.256	25.26
324.469	0.68
324.683	31.4
324.896	15.02
325.109	66.22
325.322	10.92
325.535	109.23
325.748	39.59
325.962	-19.8
326.175	60.07
326.388	62.12
326.601	66.22
326.814	101.03
327.027	39.59
327.24	15.02
327.453	-42.32
327.666	80.55
327.879	-5.46
328.092	43.69
328.305	8.87
328.518	17.07
328.731	37.55
328.944	-5.46
329.157	58.03
329.37	-11.61
329.583	60.07
329.796	51.88
330.009	51.88
330.222	53.93
330.435	6.83
330.648	82.6
330.861	62.12
331.073	17.07
331.286	80.55
331.499	74.41
331.712	76.46
331.925	6.83
332.138	72.36
332.35	55.98
332.563	12.97
332.776	137.9
332.989	64.17
333.202	49.83
333.414	12.97
333.627	-27.99
333.84	17.07
334.053	47.79
334.265	-5.46
334.478	64.17
334.691	64.17
334.903	29.35
335.116	15.02
335.329	45.74
335.541	39.59
335.754	94.89
335.966	37.55
336.179	27.31
336.392	-11.61
336.604	21.16
336.817	2.73
337.029	25.26
337.242	60.07
337.454	19.11
337.667	23.21
337.88	43.69
338.092	88.75
338.305	29.35
338.517	94.89
338.729	51.88
338.942	137.9
339.154	84.65
339.367	-19.8
339.579	31.4
339.792	-23.89
340.004	101.03
340.217	19.11
340.429	4.78
340.641	80.55
340.854	35.5
341.066	51.88
341.278	84.65
341.491	41.64
341.703	72.36
341.915	27.31
342.128	31.4
342.34	8.87
342.552	53.93
342.764	23.21
342.977	72.36
343.189	6.83
343.401	94.89
343.613	19.11
343.826	4.78
344.038	125.61
344.25	98.99
344.462	70.31
344.674	29.35
344.886	39.59
345.099	47.79
345.311	-25.94
345.523	45.74
345.735	68.27
345.947	92.84
346.159	98.99
346.371	0.68
346.583	33.45
346.795	98.99
347.007	68.27
347.219	150.18
347.431	0.68
347.643	125.61
347.855	58.03
348.067	8.87
348.279	74.41
348.491	33.45
348.703	64.17
348.915	27.31
349.127	-77.14
349.339	23.21
349.551	49.83
349.763	15.02
349.975	88.75
350.187	37.55
350.399	29.35
350.61	68.27
350.822	6.83
351.034	31.4
351.246	51.88
351.458	64.17
351.669	15.02
351.881	103.08
352.093	88.75
352.305	23.21
352.517	37.55
352.728	21.16
352.94	43.69
353.152	-40.28
353.363	27.31
353.575	31.4
353.787	47.79
353.999	115.37
354.21	84.65
354.422	-13.65
354.633	70.31
354.845	88.75
355.057	58.03
355.268	37.55
355.48	25.26
355.692	-83.28
355.903	64.17
356.115	-1.37
356.326	-25.94
356.538	84.65
356.749	101.03
356.961	80.55
357.172	19.11
357.384	23.21
357.595	105.13
357.807	-11.61
358.018	-30.04
358.23	117.42
358.441	80.55
358.653	-23.89
358.864	76.46
359.075	64.17
359.287	43.69
359.498	66.22
359.709	19.11
359.921	-5.46
360.132	66.22
360.344	41.64
360.555	27.31
360.766	135.85
360.977	-7.51
361.189	66.22
361.4	55.98
361.611	53.93
361.823	76.46
362.034	64.17
362.245	-1.37
362.456	-13.65
362.667	43.69
362.879	131.75
363.09	4.78
363.301	31.4
363.512	23.21
363.723	-15.7
363.935	49.83
364.146	43.69
364.357	4.78
364.568	10.92
364.779	15.02
364.99	103.08
365.201	55.98
365.412	76.46
365.623	4.78
365.834	55.98
366.045	-1.37
366.256	92.84
366.467	62.12
366.678	49.83
366.889	31.4
367.1	72.36
367.311	127.66
367.522	60.07
367.733	4.78
367.944	15.02
368.155	19.11
368.366	90.79
368.577	96.94
368.788	94.89
368.999	-21.84
369.209	68.27
369.42	37.55
369.631	146.09
369.842	115.37
370.053	0.68
370.264	55.98
370.474	39.59
370.685	-7.51
370.896	68.27
371.107	90.79
371.317	92.84
371.528	74.41
371.739	123.56
371.95	15.02
372.16	58.03
372.371	41.64
372.582	45.74
372.792	76.46
373.003	86.7
373.214	-15.7
373.424	-25.94
373.635	19.11
373.846	78.51
374.056	41.64
374.267	21.16
374.477	19.11
374.688	72.36
374.898	15.02
375.109	92.84
375.319	76.46
375.53	74.41
375.74	17.07
375.951	29.35
376.161	60.07
376.372	96.94
376.582	58.03
376.793	80.55
377.003	33.45
377.214	82.6
377.424	10.92
377.635	39.59
377.845	27.31
378.055	78.51
378.266	-3.41
378.476	39.59
378.686	0.68
378.897	-17.75
379.107	98.99
379.317	49.83
379.528	60.07
379.738	21.16
379.948	-17.75
380.158	193.19
380.369	31.4
380.579	146.09
380.789	64.17
380.999	-54.61
381.21	64.17
381.42	58.03
381.63	37.55
381.84	41.64
382.05	58.03
382.261	15.02
382.471	86.7
382.681	15.02
382.891	27.31
383.101	62.12
383.311	10.92
383.521	27.31
383.731	125.61
383.941	43.69
384.151	41.64
384.361	31.4
384.571	25.26
384.781	68.27
384.991	19.11
385.201	92.84
385.411	10.92
385.621	55.98
385.831	82.6
386.041	43.69
386.251	-13.65
386.461	82.6
386.671	-38.23
386.881	-30.04
387.091	49.83
387.301	19.11
387.511	72.36
387.72	66.22
387.93	29.35
388.14	-11.61
388.35	96.94
388.56	62.12
388.769	51.88
388.979	58.03
389.189	29.35
389.399	8.87
389.609	39.59
389.818	78.51
390.028	58.03
390.238	41.64
390.447	164.52
390.657	101.03
390.867	0.68
391.076	76.46
391.286	35.5
391.496	76.46
391.705	23.21
391.915	58.03
392.125	76.46
392.334	27.31
392.544	90.79
392.753	88.75
392.963	0.68
393.172	129.7
393.382	23.21
393.591	123.56
393.801	84.65
394.01	68.27
394.22	29.35
394.429	-5.46
394.639	92.84
394.848	53.93
395.058	64.17
395.267	141.99
395.477	109.23
395.686	51.88
395.895	144.04
396.105	182.95
396.314	-1.37
396.524	12.97
396.733	107.18
396.942	117.42
397.152	125.61
397.361	139.94
397.57	117.42
397.78	123.56
397.989	55.98
398.198	156.33
398.407	68.27
398.617	80.55
398.826	115.37
399.035	121.51
399.244	33.45
399.453	84.65
399.663	41.64
399.872	117.42
400.081	35.5
400.29	39.59
400.499	66.22
400.708	139.94
400.917	80.55
401.127	123.56
401.336	51.88
401.545	125.61
401.754	182.95
401.963	92.84
402.172	51.88
402.381	68.27
402.59	76.46
402.799	113.32
403.008	141.99
403.217	211.62
403.426	115.37
403.635	137.9
403.844	103.08
404.053	121.51
404.262	101.03
404.471	150.18
404.68	80.55
404.888	88.75
405.097	172.71
405.306	105.13
405.515	164.52
405.724	234.15
405.933	135.85
406.142	88.75
406.35	107.18
406.559	166.57
406.768	113.32
406.977	217.77
407.185	156.33
407.394	160.42
407.603	96.94
407.812	228.01
408.02	139.94
408.229	154.28
408.438	180.9
408.646	170.66
408.855	217.77
409.064	242.34
409.272	301.73
409.481	309.93
409.69	166.57
409.898	223.91
410.107	256.68
410.315	271.01
410.524	303.78
410.733	309.93
410.941	275.11
411.15	207.53
411.358	293.54
411.567	340.65
411.775	293.54
411.984	330.41
412.192	342.69
412.401	361.13
412.609	381.6
412.818	344.74
413.026	389.8
413.234	395.94
413.443	412.32
413.651	451.24
413.86	459.43
414.068	457.38
414.276	453.28
414.485	537.25
414.693	621.22
414.901	486.05
415.11	559.78
415.318	641.7
415.526	584.35
415.734	606.88
415.943	592.55
416.151	674.46
416.359	649.89
416.567	733.86
416.776	703.14
416.984	805.53
417.192	846.49
417.4	768.67
417.608	766.62
417.817	768.67
418.025	934.56
418.233	864.93
418.441	776.86
418.649	959.13
418.857	965.28
419.065	950.94
419.273	1014.43
419.481	1145.5
419.689	1194.65
419.897	1096.35
420.105	1106.59
420.313	1194.65
420.521	1260.18
420.729	1362.58
420.937	1381.01
421.145	1364.63
421.353	1335.96
421.561	1641.11
421.769	1512.08
421.977	1579.67
422.185	1612.43
422.393	1649.3
422.601	1813.13
422.809	1757.84
423.017	1768.08
423.224	1841.81
423.432	1960.59
423.64	1979.02
423.848	1952.4
424.056	2077.32
424.263	2157.19
424.471	2220.68
424.679	2312.84
424.887	2347.65
425.094	2509.44
425.302	2515.59
425.51	2558.6
425.718	2574.98
425.925	2660.99
426.133	2933.37
426.341	2910.85
426.548	3005.05
426.756	2982.53
426.964	3091.07
427.171	3154.55
427.379	3398.26
427.586	3457.65
427.794	3480.18
428.001	3660.4
428.209	3836.53
428.417	3664.5
428.624	4082.28
428.832	4086.38
429.039	4024.94
429.247	3906.16
429.454	4366.95
429.662	4844.13
429.869	4405.86
430.076	4674.15
430.284	4455.01
430.491	4711.01
430.699	4997.73
430.906	5022.3
431.114	5163.61
431.321	5386.84
431.528	5282.39
431.736	5659.22
431.943	5990.99
432.15	5804.63
432.358	6040.14
432.565	6310.47
432.772	5947.98
432.979	6302.28
433.187	6621.77
433.394	6689.35
433.601	7029.31
433.808	7105.09
434.016	7047.74
434.223	7399.99
434.43	7748.15
434.637	7680.57
434.844	8008.24
435.052	8286.76
435.259	8319.53
435.466	8337.96
435.673	8014.38
435.88	8852
436.087	9112.1
436.294	9243.17
436.501	8960.55
436.708	9081.38
436.915	9486.87
437.122	9957.91
437.329	9871.89
437.537	10158.61
437.743	10338.83
437.95	10025.49
438.157	10752.52
438.364	11147.78
438.571	11045.38
438.778	11100.67
438.985	12294.64
439.192	11497.98
439.399	12247.54
439.606	11692.54
439.813	12470.76
440.02	13322.72
440.227	13003.24
440.433	12915.17
440.64	13453.79
440.847	13054.44
441.054	13515.23
441.261	14434.77
441.467	14223.83
441.674	14447.05
441.881	15030.73
442.088	14903.75
442.294	14825.93
442.501	15315.39
442.708	15665.6
442.914	16042.42
443.121	16779.69
443.328	16423.34
443.534	17385.89
443.741	17027.49
443.948	16900.52
444.154	18016.66
444.361	17959.32
444.568	18102.68
444.774	18057.62
444.981	17940.89
445.187	18956.68
445.394	19456.39
445.6	19419.52
445.807	20975.98
446.013	20078.97
446.22	20543.86
446.426	21496.16
446.633	21543.27
446.839	22022.49
447.046	21330.28
447.252	22520.15
447.459	22399.32
447.665	22389.08
447.871	23648.58
448.078	24289.59
448.284	23136.59
448.491	23808.32
448.697	25121.07
448.903	25137.45
449.11	24967.47
449.316	24531.25
449.522	25063.72
449.728	25993.5
449.935	26063.13
450.141	25960.73
450.347	26759.44
450.553	25831.71
450.76	26140.96
450.966	26874.13
451.172	26378.52
451.378	27017.49
451.584	26853.65
451.791	27306.25
451.997	27201.8
452.203	27564.29
452.409	27275.53
452.615	27549.96
452.821	26169.63
453.027	25878.82
453.233	27357.45
453.44	26050.85
453.646	26638.61
453.852	26560.79
454.058	27232.52
454.264	26097.95
454.47	26437.91
454.676	25932.06
454.882	27074.83
455.088	24412.47
455.294	24512.82
455.5	25270.57
455.705	25575.72
455.911	24355.13
456.117	24054.08
456.323	23720.26
456.529	22045.02
456.735	23062.86
456.941	22495.57
457.147	22090.07
457.352	21565.79
457.558	21105
457.764	21608.8
457.97	20973.93
458.176	20402.55
458.381	20517.23
458.587	19509.63
458.793	19274.12
458.999	18520.46
459.204	19798.4
459.41	19337.6
459.616	18057.62
459.821	18131.35
460.027	17856.92
460.233	17154.47
460.438	16673.2
460.644	16777.64
460.85	16107.96
461.055	15817.15
461.261	15790.52
461.466	14569.93
461.672	14137.81
461.878	15114.69
462.083	14268.88
462.289	14023.12
462.494	13969.88
462.7	13318.62
462.905	12915.17
463.111	13347.3
463.316	13490.65
463.522	13038.05
463.727	13021.67
463.932	12943.85
464.138	13007.33
464.343	13054.44
464.549	12544.49
464.754	12933.61
464.959	12960.23
465.165	12859.88
465.37	12302.83
465.575	12118.51
465.781	12495.34
465.986	12544.49
466.191	12104.18
466.397	11866.61
466.602	11188.74
466.807	11616.76
467.012	11594.23
467.218	11807.22
467.423	11377.15
467.628	11815.41
467.833	12124.66
468.038	11614.71
468.244	11383.29
468.449	11690.49
468.654	11325.95
468.859	11115.01
469.064	11225.6
469.269	10828.29
469.474	11010.56
469.679	11186.69
469.885	10877.44
470.09	10885.64
470.295	10748.42
470.5	10740.23
470.705	10779.14
470.91	10394.12
471.115	10275.34
471.32	10570.25
471.525	10594.83
471.73	10076.69
471.935	10082.83
472.139	9685.53
472.344	9738.77
472.549	10019.35
472.754	9650.71
472.959	9398.81
473.164	9153.06
473.369	9128.48
473.574	9611.8
473.778	9472.54
473.983	9194.01
474.188	9116.19
474.393	8817.19
474.598	8927.78
474.802	8903.2
475.007	8882.72
475.212	8722.98
475.417	8399.4
475.621	8581.67
475.826	8417.83
476.031	8331.82
476.235	8133.17
476.44	8325.68
476.645	8202.8
476.849	8077.87
477.054	7914.03
477.259	8010.29
477.463	7948.85
477.668	7498.3
477.872	7891.51
478.077	7793.2
478.282	7588.41
478.486	7553.59
478.691	7467.58
478.895	7551.54
479.1	7488.06
479.304	7346.75
479.509	7246.4
479.713	7494.2
479.918	7090.75
480.122	7041.6
480.326	7113.28
480.531	7201.34
480.735	6994.5
480.94	6867.52
481.144	7301.69
481.348	6816.32
481.553	6955.58
481.757	6922.82
481.961	6890.05
482.166	6912.58
482.37	7162.43
482.574	6926.91
482.778	6871.62
482.983	7055.93
483.187	7078.46
483.391	6982.21
483.595	7037.5
483.8	6824.51
484.004	6842.95
484.208	7031.36
484.412	6799.94
484.616	6902.34
484.821	7002.69
485.025	6842.95
485.229	6871.62
485.433	6894.15
485.637	6785.6
485.841	6904.39
486.045	6892.1
486.249	6724.16
486.453	6826.56
486.657	6959.68
486.861	6853.19
487.065	6801.99
487.269	7002.69
487.473	6867.52
487.677	6851.14
487.881	7006.78
488.085	6799.94
488.289	6957.63
488.493	6740.55
488.697	6904.39
488.901	6939.2
489.105	7002.69
489.309	7166.53
489.512	6896.19
489.716	6900.29
489.92	6961.73
490.124	6812.23
490.328	7193.15
490.531	7100.99
490.735	7103.04
490.939	7270.97
491.143	6906.43
491.346	7031.36
491.55	7076.41
491.754	7275.07
491.958	7539.26
492.161	7234.11
492.365	7174.72
492.569	7320.12
492.772	7297.6
492.976	7338.55
493.18	7375.42
493.383	7422.52
493.587	7551.54
493.79	7817.78
493.994	7510.58
494.197	7793.2
494.401	7713.33
494.605	7651.89
494.808	7916.08
495.012	7785.01
495.215	7936.56
495.419	8065.58
495.622	8198.7
495.825	7971.38
496.029	8081.97
496.232	8147.5
496.436	8186.41
496.639	8643.11
496.843	8436.27
497.046	8596.01
497.249	8776.23
497.453	8606.25
497.656	8753.7
497.859	8718.89
498.063	8886.82
498.266	9042.46
498.469	9357.85
498.673	9308.7
498.876	9331.23
499.079	9476.63
499.282	9277.98
499.485	9708.05
499.689	9695.77
499.892	9851.41
500.095	10095.12
500.298	9953.81
500.501	9957.91
500.705	10320.4
500.908	10340.88
501.111	10660.36
501.314	10576.39
501.517	10572.3
501.72	10979.84
501.923	10670.6
502.126	11088.39
502.329	11182.59
502.532	11336.19
502.735	11461.12
502.938	11403.77
503.141	11479.55
503.344	11583.99
503.547	11801.08
503.75	12044.79
503.953	11889.14
504.156	12349.93
504.359	12370.41
504.562	12489.2
504.765	12726.76
504.968	12667.37
505.17	12909.03
505.373	12915.17
505.576	13484.51
505.779	13234.66
505.982	13357.53
506.185	13584.86
506.387	13965.78
506.59	14023.12
506.793	14135.76
506.996	14119.38
507.198	14504.4
507.401	14332.37
507.604	14617.04
507.807	14997.96
508.009	14870.98
508.212	14897.61
508.415	15448.51
508.617	15512
508.82	15540.67
509.022	15475.13
509.225	15804.86
509.428	16026.04
509.63	16161.2
509.833	16228.79
510.035	16673.2
510.238	16677.29
510.44	16953.77
510.643	17156.52
510.845	16877.99
511.048	17004.97
511.25	17375.65
511.453	17441.18
511.655	18162.07
511.858	17969.56
512.06	18172.31
512.262	18383.25
512.465	18215.32
512.667	18747.79
512.87	18885
513.072	18930.06
513.274	19239.3
513.477	19540.35
513.679	19569.02
513.881	19831.16
514.084	20109.69
514.286	19956.09
514.488	20146.55
514.69	20494.71
514.893	20556.14
515.095	21016.94
515.297	21164.39
515.499	21375.33
515.701	21328.23
515.904	21711.2
516.106	21981.53
516.308	22059.35
516.51	22403.41
516.712	22323.54
516.914	22475.09
517.116	22985.04
517.318	22686.03
517.52	23255.37
517.722	23339.33
517.925	23472.45
518.127	23929.15
518.329	23906.62
518.531	23945.53
518.733	24668.47
518.935	24451.38
519.136	24883.5
519.338	24764.72
519.54	25321.77
519.742	25450.79
519.944	25377.06
520.146	25999.65
520.348	26231.07
520.55	26550.55
520.752	26272.03
520.954	26521.88
521.155	26925.33
521.357	26992.91
521.559	27328.78
521.761	27859.2
521.963	27447.56
522.164	27789.57
522.366	27949.31
522.568	28047.61
522.77	28018.94
522.971	28926.19
523.173	28340.47
523.375	28903.67
523.576	28944.62
523.778	29059.31
523.98	29505.77
524.181	29448.43
524.383	29685.99
524.584	30054.62
524.786	30050.53
524.988	29898.98
525.189	30507.23
525.391	30546.14
525.592	30634.2
525.794	30800.08
525.995	30820.56
526.197	30658.77
526.398	31066.32
526.6	30777.56
526.801	31375.56
527.003	31504.59
527.204	31699.14
527.406	31867.08
527.607	32004.29
527.808	32207.04
528.01	31832.26
528.211	32250.05
528.412	32440.51
528.614	32540.86
528.815	32159.94
529.016	33001.65
529.218	32372.92
529.419	32522.43
529.62	32991.41
529.822	32895.16
530.023	32706.74
530.224	32948.4
530.425	33128.63
530.626	33011.89
530.828	32954.55
531.029	33820.84
531.23	33231.02
531.431	33394.86
531.632	33513.64
531.833	33439.92
532.035	33314.99
532.236	33728.68
532.437	34046.12
532.638	33505.45
532.839	33824.93
533.04	33700.01
533.241	33855.65
533.442	34117.79
533.643	33652.91
533.844	33611.95
534.045	33968.29
534.246	33577.13
534.447	34279.58
534.648	33771.69
534.849	34029.73
535.05	33771.69
535.251	34244.77
535.451	34111.65
535.652	34152.61
535.853	33968.29
536.054	34052.26
536.255	34257.06
536.456	33863.85
536.657	34695.32
536.857	33861.8
537.058	34048.16
537.259	34576.54
537.46	34181.28
537.66	34017.44
537.861	34037.92
538.062	33673.38
538.263	33890.47
538.463	33898.66
538.664	33919.14
538.865	34156.71
539.065	34164.9
539.266	33970.34
539.466	34216.1
539.667	33702.06
539.868	34424.99
540.068	34099.36
540.269	34242.72
540.469	34603.16
540.67	33648.81
540.87	34003.11
541.071	34093.22
541.271	34576.54
541.472	34171.04
541.672	34214.05
541.873	34316.45
542.073	33577.13
542.274	34214.05
542.474	33996.96
542.675	33499.31
542.875	34408.61
543.075	33884.33
543.276	33507.5
543.476	34506.91
543.676	33802.41
543.877	34293.92
544.077	34134.18
544.277	33747.11
544.478	33964.2
544.678	33927.33
544.878	34175.14
545.078	34044.07
545.279	33757.35
545.479	33915.05
545.679	34324.64
545.879	33798.31
546.079	33958.05
546.28	33939.62
546.48	33415.34
546.68	34136.23
546.88	33884.33
547.08	34082.98
547.28	34248.86
547.48	33136.82
547.68	33826.98
547.88	33915.05
548.081	34042.02
548.281	34019.49
548.481	34119.84
548.681	33937.57
548.881	33843.37
549.081	33677.48
549.28	33921.19
549.48	34082.98
549.68	33788.07
549.88	34220.19
550.08	33591.47
550.28	33865.89
550.48	33665.19
550.68	34199.71
550.88	33458.35
551.08	33757.35
551.279	33706.15
551.479	33353.9
551.679	33325.23
551.879	33525.93
552.079	33800.36
552.278	33544.36
552.478	33685.67
552.678	33730.73
552.878	33624.23
553.077	33829.03
553.277	33091.76
553.477	33872.04
553.676	33290.41
553.876	33362.09
554.076	33251.5
554.275	33501.36
554.475	32956.6
554.674	33317.04
554.874	33648.81
555.074	33501.36
555.273	33339.57
555.473	33710.25
555.672	33194.16
555.872	33216.69
556.071	33194.16
556.271	33323.18
556.47	32817.33
556.67	32678.07
556.869	32860.34
557.068	33372.33
557.268	32630.97
557.467	32780.47
557.667	32833.72
557.866	32733.37
558.065	32725.18
558.265	32735.42
558.464	32680.12
558.663	32893.11
558.863	32282.81
559.062	32686.26
559.261	32362.68
559.461	32798.9
559.66	32272.57
559.859	32323.77
560.058	32252.09
560.258	32110.78
560.457	32049.35
560.656	32377.02
560.855	32221.37
561.054	32309.44
561.253	32063.68
561.453	32256.19
561.652	32065.73
561.851	32037.06
562.05	31557.83
562.249	31719.62
562.448	32075.97
562.647	31682.76
562.846	31686.86
563.045	31729.86
563.244	31195.34
563.443	31484.11
563.642	31121.62
563.841	31727.81
564.04	31056.08
564.239	31264.97
564.438	31271.12
564.637	31105.23
564.836	31045.84
565.035	30918.87
565.234	30976.21
565.432	30601.43
565.631	30773.46
565.83	30873.81
566.029	30863.57
566.228	30468.31
566.427	30210.27
566.625	30626.01
566.824	30019.81
567.023	30505.18
567.222	29933.79
567.42	30316.76
567.619	30157.02
567.818	30318.81
568.016	29991.14
568.215	30210.27
568.414	29511.91
568.612	30349.53
568.811	29837.54
569.01	29688.04
569.208	29356.27
569.407	29311.21
569.605	29036.78
569.804	29753.57
570.002	29063.41
570.201	29280.49
570.4	28979.44
570.598	28881.14
570.797	28760.31
570.995	28887.28
571.193	28664.05
571.392	28971.25
571.59	28866.8
571.789	28838.13
571.987	28455.16
572.186	28555.51
572.384	28313.85
572.582	28621.05
572.781	28645.62
572.979	28137.73
573.177	28027.13
573.376	28432.63
573.574	27965.7
573.772	28383.48
573.971	27996.42
574.169	27992.32
574.367	27740.42
574.565	28162.3
574.763	27627.78
574.962	27584.77
575.16	27255.05
575.358	27400.46
575.556	27382.02
575.754	27566.34
575.952	27234.57
576.151	27582.73
576.349	26994.96
576.547	26751.25
576.745	27023.63
576.943	26829.07
577.141	26898.7
577.339	26716.43
577.537	26847.5
577.735	26392.86
577.933	26399
578.131	26792.21
578.329	26439.96
578.527	26274.07
578.725	26245.4
578.923	26173.72
579.121	26237.21
579.319	26003.74
579.516	26190.11
579.714	25927.97
579.912	25997.6
580.11	25645.35
580.308	25749.79
580.506	25782.56
580.704	25401.64
580.901	25557.28
581.099	25930.01
581.297	25254.19
581.495	25491.75
581.692	25461.03
581.89	25190.7
582.088	25006.38
582.285	25024.81
582.483	25233.71
582.681	25397.54
582.878	25139.5
583.076	24869.17
583.274	24838.45
583.471	24682.8
583.669	24721.71
583.866	24695.09
584.064	24701.23
584.262	24385.85
584.459	24613.17
584.657	24535.35
584.854	24242.49
585.052	23679.3
585.249	24103.23
585.447	24181.05
585.644	24064.32
585.841	24037.69
586.039	24189.24
586.236	23947.58
586.434	23947.58
586.631	23814.46
586.828	23691.59
587.026	23615.81
587.223	23601.47
587.42	23259.46
587.618	23685.44
587.815	23359.81
588.012	23281.99
588.21	23206.22
588.407	23214.41
588.604	23216.46
588.801	23134.54
588.999	22858.06
589.196	22903.12
589.393	23091.53
589.59	22864.21
589.787	22749.52
589.984	22681.94
590.182	22495.57
590.379	22260.05
590.576	22348.12
590.773	22511.96
590.97	21967.2
591.167	22370.65
591.364	21938.52
591.561	22270.29
591.758	22208.86
591.955	22104.41
592.152	22212.95
592.349	21803.36
592.546	22096.22
592.743	21846.37
592.94	21729.63
593.137	21729.63
593.334	21561.7
593.531	21471.59
593.727	21596.51
593.924	21475.68
594.121	21264.74
594.318	21481.83
594.515	21160.3
594.712	21414.24
594.908	21326.18
595.105	21082.47
595.302	20873.58
595.499	21029.23
595.696	20746.61
595.892	20679.02
596.089	20752.75
596.286	21031.27
596.482	20822.38
596.679	20707.69
596.876	21012.84
597.072	20480.37
597.269	20685.17
597.466	20302.2
597.662	20291.96
597.859	20359.54
598.055	20500.85
598.252	20142.46
598.448	20361.59
598.645	20076.92
598.841	19958.14
599.038	19693.95
599.234	19810.68
599.431	19784.06
599.627	19814.78
599.824	19698.05
600.02	19542.4
600.217	19595.65
600.413	19427.71
600.609	19460.48
600.806	19200.39
601.002	19468.67
601.198	19409.28
601.395	19327.36
601.591	19296.64
601.787	19288.45
601.984	19118.47
602.18	19089.8
602.376	18930.06
602.572	18831.76
602.769	19059.08
602.965	18862.47
603.161	18770.32
603.357	18567.57
603.553	18614.67
603.75	18577.81
603.946	18323.86
604.142	18575.76
604.338	18235.8
604.534	18401.68
604.73	18278.8
604.926	18291.09
605.122	18123.16
605.318	18022.81
605.514	17936.79
605.71	18145.69
605.906	18026.9
606.102	18106.77
606.298	18039.19
606.494	17883.55
606.69	18047.38
606.886	17861.02
607.082	17523.1
607.278	17732
607.474	17371.55
607.67	17758.62
607.866	17453.47
608.062	17785.24
608.257	17430.94
608.453	17451.42
608.649	17504.67
608.845	16974.25
609.041	17455.52
609.236	17007.02
609.432	17369.51
609.628	17142.18
609.824	17385.89
610.019	17181.09
610.215	17181.09
610.411	17177
610.606	17062.31
610.802	17082.79
610.998	17039.78
611.193	17011.11
611.389	16740.78
611.584	16648.62
611.78	16861.61
611.976	16863.66
612.171	17027.49
612.367	16523.69
612.562	16738.73
612.758	16345.52
612.953	16409.01
613.149	16714.16
613.344	16339.38
613.539	16687.53
613.735	16597.42
613.93	16695.72
614.126	16677.29
614.321	16495.02
614.517	16513.45
614.712	16288.18
614.907	16341.43
615.103	16318.9
615.298	16343.47
615.493	16214.45
615.688	16181.68
615.884	16615.85
616.079	16216.5
616.274	16193.97
616.47	16060.85
616.665	16230.84
616.86	15813.05
617.055	16159.16
617.25	15686.08
617.445	15905.21
617.641	15555.01
617.836	15724.99
618.031	15641.02
618.226	15788.47
618.421	15608.25
618.616	15770.04
618.811	15014.34
619.006	15702.46
619.201	15133.12
619.396	15552.96
619.591	15061.44
619.786	15522.24
619.981	15024.58
620.176	15204.8
620.371	14950.85
620.566	14973.38
620.761	15118.79
620.956	14952.9
621.151	14789.07
621.346	14842.31
621.541	14731.72
621.735	14735.82
621.93	14395.85
622.125	14637.52
622.32	14287.31
622.515	14215.63
622.709	14115.28
622.904	14272.98
623.099	14334.42
623.294	14178.77
623.488	13894.1
623.683	13918.68
623.878	13832.66
624.072	13976.02
624.267	13601.24
624.462	13890.01
624.656	13613.53
624.851	13713.88
625.046	13476.32
625.24	13179.36
625.435	13232.61
625.629	13236.7
625.824	13089.25
626.018	13029.86
626.213	13124.07
626.407	12837.35
626.602	12765.67
626.796	12868.07
626.991	13089.25
627.185	12863.97
627.38	12528.11
627.574	12616.17
627.768	12474.86
627.963	12511.72
628.157	12231.15
628.352	12335.6
628.546	11946.48
628.74	12216.82
628.935	12124.66
629.129	11985.4
629.323	11944.44
629.517	11756.02
629.712	12018.16
629.906	11762.17
630.1	11717.11
630.294	11665.91
630.489	11571.71
630.683	11713.02
630.877	11287.04
631.071	11682.3
631.265	11461.12
631.459	11248.13
631.653	11350.53
631.848	11233.79
632.042	11117.06
632.236	10963.46
632.43	11069.95
632.624	10865.16
632.818	11096.58
633.012	10938.88
633.206	10916.36
633.4	10895.88
633.594	10689.03
633.788	10594.83
633.982	10525.19
634.176	10435.08
634.369	10512.91
634.563	10566.15
634.757	10377.74
634.951	10420.75
635.145	10121.74
635.339	10156.56
635.533	10078.74
635.726	10025.49
635.92	10103.31
636.114	9742.87
636.308	9878.04
636.501	9882.13
636.695	9865.75
636.889	9742.87
637.083	9732.63
637.276	9654.81
637.47	9576.98
637.664	9536.03
637.857	9609.75
638.051	9536.03
638.244	9556.5
638.438	9452.06
638.632	9312.8
638.825	9130.53
639.019	9124.38
639.212	9249.31
639.406	9288.22
639.599	9122.34
639.793	9226.78
639.986	9030.18
640.18	8995.36
640.373	8864.29
640.567	8749.61
640.76	8921.63
640.954	8837.67
641.147	8690.21
641.34	8514.09
641.534	8733.22
641.727	8645.16
641.92	8514.09
642.114	8432.17
642.307	8475.18
642.5	8129.07
642.694	8233.52
642.887	8393.26
643.08	8497.7
643.273	8170.03
643.467	8090.16
643.66	8151.6
643.853	8069.68
644.046	7916.08
644.239	7989.81
644.432	7954.99
644.626	7922.23
644.819	7838.26
645.012	7887.41
645.205	7817.78
645.398	7696.95
645.591	7715.38
645.784	7643.7
645.977	7459.38
646.17	7565.88
646.363	7565.88
646.556	7449.15
646.749	7391.8
646.942	7434.81
647.135	7467.58
647.328	7295.55
647.521	7275.07
647.714	7131.71
647.907	7225.92
648.099	7062.08
648.292	7127.61
648.485	6928.96
648.678	6994.5
648.871	6978.11
649.064	6953.54
649.256	6931.01
649.449	6896.19
649.642	6877.76
649.835	6730.31
650.027	6990.4
650.22	6810.18
650.413	6787.65
650.605	6847.04
650.798	6715.97
650.991	6496.84
651.183	6517.32
651.376	6425.16
651.568	6644.29
651.761	6425.16
651.954	6535.75
652.146	6574.66
652.339	6333
652.531	6404.68
652.724	6244.94
652.916	6345.29
653.109	6210.12
653.301	6216.27
653.494	6322.76
653.686	6122.06
653.879	6068.81
654.071	6044.24
654.263	6013.52
654.456	6183.5
654.648	5958.22
654.84	5874.26
655.033	6068.81
655.225	5814.87
655.417	5857.87
655.61	5673.56
655.802	5939.79
655.994	5741.14
656.186	5847.63
656.379	5667.41
656.571	5544.53
656.763	5538.39
656.955	5687.89
657.148	5651.03
657.34	5696.08
657.532	5352.03
657.724	5517.91
657.916	5579.35
658.108	5458.52
658.3	5358.17
658.492	5356.12
658.684	5513.81
658.876	5347.93
659.068	5220.95
659.26	5239.39
659.452	5192.28
659.644	5292.63
659.836	5167.71
660.028	4991.58
660.22	5036.64
660.412	5153.37
660.604	4868.7
660.796	4878.94
660.988	5036.64
661.18	4967.01
661.372	4952.67
661.563	5106.27
661.755	4840.03
661.947	4901.47
662.139	4801.12
662.331	4751.97
662.522	4784.74
662.714	4780.64
662.906	4610.66
663.097	4803.17
663.289	4647.52
663.481	4655.72
663.673	4713.06
663.864	4547.17
664.056	4561.51
664.247	4649.57
664.439	4418.15
664.631	4586.08
664.822	4676.2
665.014	4690.53
665.205	4565.61
665.397	4524.65
665.588	4416.1
665.78	4455.01
665.971	4430.44
666.163	4407.91
666.354	4405.86
666.546	4258.41
666.737	4325.99
666.929	4416.1
667.12	4364.9
667.311	4237.93
667.503	4194.92
667.694	4278.89
667.885	4229.74
668.077	4094.57
668.268	4164.2
668.459	3961.45
668.651	4123.24
668.842	4196.97
669.033	4102.76
669.224	4262.51
669.416	4094.57
669.607	3940.97
669.798	4057.71
669.989	4078.19
670.18	3918.45
670.371	3988.08
670.563	4061.8
670.754	3955.31
670.945	3957.36
671.136	3969.65
671.327	4002.41
671.518	3918.45
671.709	3996.27
671.9	3877.49
672.091	3842.67
672.282	3805.81
672.473	3869.3
672.664	3854.96
672.855	3770.99
673.046	3811.95
673.237	3922.54
673.428	3668.59
673.619	3674.74
673.809	3818.1
674	3652.21
674.191	3770.99
674.382	3605.11
674.573	3754.61
674.764	3721.84
674.954	3588.72
675.145	3639.92
675.336	3631.73
675.527	3658.35
675.717	3691.12
675.908	3553.91
676.099	3574.39
676.289	3652.21
676.48	3498.61
676.671	3543.67
676.861	3656.31
677.052	3594.87
677.243	3549.81
677.433	3533.43
677.624	3541.62
677.814	3467.89
678.005	3525.24
678.195	3578.48
678.386	3496.57
678.576	3431.03
678.767	3392.12
678.957	3265.14
679.148	3410.55
679.338	3455.61
679.529	3377.78
679.719	3371.64
679.909	3523.19
680.1	3441.27
680.29	3396.21
680.481	3345.02
680.671	3480.18
680.861	3418.74
681.052	3439.22
681.242	3369.59
681.432	3568.24
681.622	3400.31
681.813	3357.3
682.003	3367.54
682.193	3293.82
682.383	3328.63
682.573	3281.53
682.764	3254.91
682.954	3281.53
683.144	3238.52
683.334	3306.1
683.524	3193.47
683.714	3328.63
683.904	3091.07
684.094	3293.82
684.284	3287.67
684.474	3320.44
684.664	3320.44
684.854	3113.6
685.044	3328.63
685.234	3222.14
685.424	3113.6
685.614	3197.56
685.804	3160.7
685.994	3207.8
686.184	3127.93
686.374	3181.18
686.564	3050.11
686.753	3068.54
686.943	3121.79
687.133	3082.88
687.323	3097.21
687.513	3095.16
687.702	3033.72
687.892	3091.07
688.082	3062.4
688.272	3000.96
688.461	3054.2
688.651	2908.8
688.841	2960
689.03	3033.72
689.22	2974.33
689.41	2863.74
689.599	3021.44
689.789	2974.33
689.979	2882.17
690.168	3009.15
690.358	2839.17
690.547	2892.41
690.737	2859.65
690.926	2937.47
691.116	2894.46
691.305	2966.14
691.495	2892.41
691.684	2792.06
691.874	2777.73
692.063	2984.57
692.252	2910.85
692.442	2939.52
692.631	2732.67
692.82	2658.95
693.01	2663.04
693.199	2632.32
693.388	2654.85
693.578	2753.15
693.767	2728.58
693.956	2663.04
694.146	2773.63
694.335	2732.67
694.524	2706.05
694.713	2726.53
694.902	2636.42
695.092	2697.86
695.281	2646.66
695.47	2761.34
695.659	2509.44
695.848	2660.99
696.037	2626.18
696.226	2611.84
696.415	2652.8
696.604	2660.99
696.793	2591.36
696.982	2607.75
697.171	2753.15
697.36	2730.62
697.549	2626.18
697.738	2726.53
697.927	2517.64
698.116	2599.56
698.305	2550.4
698.494	2521.73
698.683	2562.69
698.872	2624.13
699.061	2542.21
699.25	2544.26
699.438	2536.07
699.627	2497.16
699.816	2605.7
700.005	2452.1
700.193	2558.6
700.382	2488.96
700.571	2513.54
700.76	2617.99
700.948	2517.64
701.137	2536.07
701.326	2562.69
701.514	2466.44
701.703	2579.08
701.892	2568.84
702.08	2529.92
702.269	2546.31
702.457	2665.09
702.646	2542.21
702.834	2488.96
703.023	2509.44
703.212	2556.55
703.4	2476.68
703.589	2448.01
703.777	2484.87
703.965	2419.33
704.154	2466.44
704.342	2454.15
704.531	2595.46
704.719	2529.92
704.907	2544.26
705.096	2478.72
705.284	2474.63
705.472	2550.4
705.661	2491.01
705.849	2546.31
706.037	2343.56
706.226	2425.48
706.414	2550.4
706.602	2443.91
706.79	2534.02
706.979	2507.4
707.167	2491.01
707.355	2417.29
707.543	2456.2
707.731	2484.87
707.919	2495.11
708.107	2409.09
708.296	2421.38
708.484	2355.85
708.672	2517.64
708.86	2495.11
709.048	2327.18
709.236	2390.66
709.424	2454.15
709.612	2581.12
709.8	2411.14
709.988	2407.05
710.176	2476.68
710.364	2421.38
710.551	2378.37
710.739	2452.1
710.927	2452.1
711.115	2550.4
711.303	2517.64
711.491	2529.92
711.679	2343.56
711.866	2349.7
712.054	2474.63
712.242	2423.43
712.43	2556.55
712.617	2499.2
712.805	2474.63
712.993	2431.62
713.181	2318.98
713.368	2501.25
713.556	2448.01
713.744	2382.47
713.931	2445.96
714.119	2394.76
714.306	2579.08
714.494	2323.08
714.682	2478.72
714.869	2421.38
715.057	2482.82
715.244	2564.74
715.432	2470.53
715.619	2448.01
715.807	2472.58
715.994	2456.2
716.182	2581.12
716.369	2507.4
716.556	2372.23
716.744	2435.72
716.931	2523.78
717.119	2454.15
717.306	2546.31
717.493	2343.56
717.681	2513.54
717.868	2491.01
718.055	2400.9
718.242	2462.34
718.43	2435.72
718.617	2419.33
718.804	2437.77
718.991	2390.66
719.179	2536.07
719.366	2466.44
719.553	2376.33
719.74	2464.39
719.927	2546.31
720.114	2370.18
720.301	2503.3
720.488	2325.13
720.676	2402.95
720.863	2341.51
721.05	2478.72
721.237	2468.48
721.424	2534.02
721.611	2427.53
721.798	2417.29
721.985	2366.09
722.172	2314.89
722.358	2454.15
722.545	2505.35
722.732	2402.95
722.919	2409.09
723.106	2450.05
723.293	2411.14
723.48	2349.7
723.667	2265.74
723.853	2409.09
724.04	2355.85
724.227	2384.52
724.414	2376.33
724.6	2390.66
724.787	2394.76
724.974	2337.41
725.161	2460.29
725.347	2314.89
725.534	2441.86
725.72	2402.95
725.907	2429.57
726.094	2337.41
726.28	2333.32
726.467	2394.76
726.653	2310.79
726.84	2366.09
727.027	2347.65
727.213	2409.09
727.4	2364.04
727.586	2292.36
727.773	2259.59
727.959	2269.83
728.145	2423.43
728.332	2329.22
728.518	2357.89
728.705	2296.46
728.891	2204.3
729.077	2357.89
729.264	2407.05
729.45	2345.61
729.636	2263.69
729.823	2396.81
730.009	2419.33
730.195	2308.74
730.382	2353.8
730.568	2200.2
730.754	2325.13
730.94	2284.17
731.126	2325.13
731.313	2353.8
731.499	2314.89
731.685	2212.49
731.871	2255.5
732.057	2212.49
732.243	2333.32
732.429	2337.41
732.615	2251.4
732.801	2298.5
732.987	2224.78
733.173	2265.74
733.359	2255.5
733.545	2280.07
733.731	2321.03
733.917	2226.82
734.103	2171.53
734.289	2245.26
734.475	2208.39
734.661	2308.74
734.847	2257.54
735.033	2286.22
735.219	2232.97
735.404	2122.38
735.59	2077.32
735.776	2159.24
735.962	2185.87
736.148	2206.35
736.333	2249.35
736.519	2212.49
736.705	2194.06
736.89	2339.46
737.076	2171.53
737.262	2091.66
737.447	2237.06
737.633	2103.95
737.819	2218.63
738.004	2112.14
738.19	2069.13
738.375	2185.87
738.561	2124.43
738.747	2155.15
738.932	2112.14
739.118	2157.19
739.303	2067.08
739.489	2073.23
739.674	2177.67
739.859	2095.75
740.045	2177.67
740.23	2165.39
740.416	2050.7
740.601	2022.03
740.786	2003.6
740.972	1915.53
741.157	2062.99
741.342	1999.5
741.528	1983.12
741.713	2155.15
741.898	1919.63
742.084	1895.05
742.269	2056.84
742.454	2026.12
742.639	1958.54
742.824	1960.59
743.01	1964.68
743.195	2038.41
743.38	1868.43
743.565	2011.79
743.75	1985.16
743.935	1962.64
744.12	1931.92
744.305	1852.05
744.49	1946.25
744.675	1901.2
744.86	1800.85
745.045	1829.52
745.23	1841.81
745.415	1911.44
745.6	1923.73
745.785	1788.56
745.97	1845.9
746.155	1827.47
746.34	1737.36
746.525	1712.78
746.71	1806.99
746.895	1759.89
747.079	1802.9
747.264	1735.31
747.449	1712.78
747.634	1675.92
747.819	1708.69
748.003	1741.46
748.188	1718.93
748.373	1655.44
748.557	1694.35
748.742	1645.2
748.927	1706.64
749.111	1620.63
749.296	1628.82
749.481	1673.87
749.665	1671.83
749.85	1641.11
750.034	1532.56
750.219	1641.11
750.404	1624.72
750.588	1575.57
750.773	1581.71
750.957	1534.61
751.141	1518.23
751.326	1489.56
751.51	1479.32
751.695	1540.76
751.879	1452.69
752.064	1497.75
752.248	1458.84
752.432	1561.23
752.617	1407.64
752.801	1395.35
752.985	1495.7
753.17	1399.45
753.354	1325.72
753.538	1440.4
753.722	1454.74
753.907	1301.14
754.091	1395.35
754.275	1370.77
754.459	1305.24
754.643	1301.14
754.828	1325.72
755.012	1327.77
755.196	1311.38
755.38	1327.77
755.564	1297.05
755.748	1198.74
755.932	1305.24
756.116	1299.09
756.3	1280.66
756.484	1315.48
756.668	1213.08
756.852	1231.51
757.036	1223.32
757.22	1202.84
757.404	1161.88
757.588	1202.84
757.772	1198.74
757.956	1155.74
758.14	1180.31
758.323	1184.41
758.507	1092.25
758.691	1069.72
758.875	1172.12
759.059	1170.07
759.242	1137.31
759.426	1139.35
759.61	1131.16
759.794	1090.2
759.977	1159.83
760.161	1075.87
760.345	1192.6
760.528	1010.33
760.712	1120.92
760.895	1051.29
761.079	969.37
761.263	1020.57
761.446	1051.29
761.63	1014.43
761.813	1034.91
761.997	1034.91
762.18	1034.91
762.364	989.85
762.547	1084.06
762.731	971.42
762.914	973.47
763.098	916.12
763.281	944.8
763.464	955.04
763.648	1000.09
763.831	948.89
764.015	926.36
764.198	916.12
764.381	1057.43
764.564	907.93
764.748	955.04
764.931	932.51
765.114	864.93
765.297	930.46
765.481	989.85
765.664	885.41
765.847	936.6
766.03	936.6
766.213	832.16
766.397	854.69
766.58	834.21
766.763	955.04
766.946	864.93
767.129	875.17
767.312	895.65
767.495	920.22
767.678	887.45
767.861	858.78
768.044	998.04
768.227	912.03
768.41	864.93
768.593	924.32
768.776	916.12
768.959	897.69
769.142	860.83
769.324	785.05
769.507	858.78
769.69	830.11
769.873	795.29
770.056	850.59
770.239	821.92
770.421	916.12
770.604	789.15
770.787	799.39
770.97	877.21
771.152	907.93
771.335	780.96
771.518	662.18
771.7	780.96
771.883	828.06
772.066	666.27
772.248	785.05
772.431	803.49
772.613	764.58
772.796	793.25
772.978	797.34
773.161	803.49
773.343	727.71
773.526	729.76
773.708	795.29
773.891	803.49
774.073	731.81
774.256	760.48
774.438	727.71
774.621	811.68
774.803	787.1
774.985	672.42
775.168	674.46
775.35	606.88
775.532	692.9
775.715	664.22
775.897	737.95
776.079	586.4
776.261	637.6
776.444	631.46
776.626	666.27
776.808	666.27
776.99	686.75
777.173	617.12
777.355	594.59
777.537	670.37
777.719	600.74
777.901	602.79
778.083	531.11
778.265	539.3
778.447	553.63
778.629	565.92
778.811	606.88
778.993	625.31
779.175	553.63
779.357	715.42
779.539	565.92
779.721	588.45
779.903	498.34
780.085	658.08
780.267	506.53
780.449	551.59
780.631	596.64
780.812	574.11
780.994	510.63
781.176	508.58
781.358	496.29
781.54	475.81
781.721	479.91
781.903	524.96
782.085	502.44
782.267	533.15
782.448	496.29
782.63	477.86
782.812	518.82
782.993	586.4
783.175	486.05
783.357	479.91
783.538	539.3
783.72	451.24
783.901	514.72
784.083	527.01
784.264	463.52
784.446	496.29
784.627	385.7
784.809	494.24
784.99	416.42
785.172	451.24
785.353	506.53
785.535	518.82
785.716	391.84
785.897	414.37
786.079	477.86
786.26	428.71
786.441	373.41
786.623	397.99
786.804	383.65
786.985	387.75
787.167	443.04
787.348	395.94
787.529	422.56
787.71	393.89
787.891	357.03
788.073	395.94
788.254	297.64
788.435	338.6
788.616	375.46
788.797	336.55
788.978	324.26
789.159	350.89
789.34	336.55
789.522	207.53
789.703	330.41
789.884	430.76
790.065	377.51
790.246	316.07
790.427	397.99
790.607	436.9
790.788	344.74
790.969	314.02
791.15	377.51
791.331	391.84
791.512	395.94
791.693	305.83
791.874	305.83
792.054	322.21
792.235	344.74
792.416	338.6
792.597	342.69
792.778	379.56
792.958	314.02
793.139	367.27
793.32	381.6
793.5	260.77
793.681	404.13
793.862	316.07
794.042	299.69
794.223	262.82
794.404	297.64
794.584	324.26
794.765	330.41
794.945	320.17
795.126	326.31
795.306	363.17
795.487	342.69
795.667	322.21
795.848	383.65
796.028	264.87
796.209	238.25
796.389	240.3
796.57	279.21
796.75	268.97
796.93	295.59
797.111	268.97
797.291	264.87
797.471	262.82
797.652	326.31
797.832	248.49
798.012	223.91
798.192	238.25
798.373	230.06
798.553	240.3
798.733	178.86
798.913	238.25
799.093	228.01
799.274	277.16
799.454	299.69
799.634	180.9
799.814	225.96
799.994	271.01
800.174	246.44
800.354	207.53
800.534	137.9
800.714	260.77
800.894	230.06
801.074	275.11
801.254	219.82
801.434	195.24
801.614	211.62
801.794	262.82
801.974	875.17
802.154	160.42
802.334	293.54
802.514	199.34
802.693	191.14
802.873	105.13
803.053	217.77
803.233	203.43
803.413	205.48
803.592	158.38
803.772	131.75
803.952	244.39
804.131	213.67
804.311	146.09
804.491	266.92
804.67	185
804.85	199.34
805.03	242.34
805.209	215.72
805.389	139.94
805.568	213.67
805.748	211.62
805.928	207.53
806.107	172.71
806.287	211.62
806.466	244.39
806.646	199.34
806.825	131.75
807.004	158.38
807.184	201.38
807.363	178.86
807.543	203.43
807.722	156.33
807.901	156.33
808.081	144.04
808.26	117.42
808.439	191.14
808.619	180.9
808.798	146.09
808.977	117.42
809.156	209.58
809.336	119.46
809.515	250.53
809.694	121.51
809.873	213.67
810.052	172.71
810.231	162.47
810.411	199.34
810.59	207.53
810.769	187.05
810.948	262.82
811.127	223.91
811.306	139.94
811.485	174.76
811.664	242.34
811.843	162.47
812.022	174.76
812.201	154.28
812.38	94.89
812.559	203.43
812.737	178.86
812.916	141.99
813.095	174.76
813.274	80.55
813.453	158.38
813.632	162.47
813.811	221.86
813.989	146.09
814.168	121.51
814.347	107.18
814.526	133.8
814.704	164.52
814.883	195.24
815.062	66.22
815.24	86.7
815.419	92.84
815.598	156.33
815.776	76.46
815.955	66.22
816.133	170.66
816.312	150.18
816.49	60.07
816.669	156.33
816.847	156.33
817.026	141.99
817.204	125.61
817.383	162.47
817.561	158.38
817.74	139.94
817.918	182.95
818.097	113.32
818.275	76.46
818.453	129.7
818.632	158.38
818.81	141.99
818.988	178.86
819.167	113.32
819.345	154.28
819.523	154.28
819.701	135.85
819.879	127.66
820.058	178.86
820.236	141.99
820.414	80.55
820.592	105.13
820.77	58.03
820.948	82.6
821.127	51.88
821.305	162.47
821.483	66.22
821.661	195.24
821.839	178.86
822.017	94.89
822.195	107.18
822.373	113.32
822.551	164.52
822.729	211.62
822.907	117.42
823.085	82.6
823.262	76.46
823.44	109.23
823.618	55.98
823.796	82.6
823.974	51.88
824.152	107.18
824.329	109.23
824.507	176.81
824.685	51.88
824.863	72.36
825.04	113.32
825.218	141.99
825.396	107.18
825.574	174.76
825.751	37.55
825.929	176.81
826.107	68.27
826.284	84.65
826.462	109.23
826.639	23.21
826.817	111.27
826.994	141.99
827.172	88.75
827.349	182.95
827.527	158.38
827.704	92.84
827.882	119.46
828.059	74.41
828.237	101.03
828.414	94.89
828.591	29.35
828.769	49.83
828.946	64.17
829.124	107.18
829.301	29.35
829.478	70.31
829.655	117.42
829.833	127.66
830.01	94.89
830.187	182.95
830.364	92.84
830.542	105.13
830.719	121.51
830.896	49.83
831.073	162.47
831.25	80.55
831.427	55.98
831.604	131.75
831.782	101.03
831.959	129.7
832.136	68.27
832.313	76.46
832.49	68.27
832.667	60.07
832.844	25.26
833.021	111.27
833.198	94.89
833.374	35.5
833.551	76.46
833.728	41.64
833.905	98.99
834.082	45.74
834.259	117.42
834.436	92.84
834.612	49.83
834.789	72.36
834.966	45.74
835.143	68.27
835.319	127.66
835.496	94.89
835.673	64.17
835.85	146.09
836.026	58.03
836.203	76.46
836.38	137.9
836.556	-5.46
836.733	86.7
836.909	66.22
837.086	76.46
837.262	51.88
837.439	47.79
837.616	43.69
837.792	66.22
837.968	90.79
838.145	51.88
838.321	33.45
838.498	55.98
838.674	74.41
838.851	76.46
839.027	70.31
839.203	58.03
839.38	107.18
839.556	68.27
839.732	101.03
839.909	68.27
840.085	78.51
840.261	64.17
840.437	84.65
840.614	60.07
840.79	47.79
840.966	94.89
841.142	17.07
841.318	41.64
841.494	96.94
841.671	55.98
841.847	19.11
842.023	51.88
842.199	98.99
842.375	55.98
842.551	64.17
842.727	74.41
842.903	51.88
843.079	17.07
843.255	60.07
843.431	43.69
843.607	90.79
843.783	-5.46
843.959	123.56
844.134	51.88
844.31	68.27
844.486	8.87
844.662	-5.46
844.838	66.22
845.013	101.03
845.189	76.46
845.365	64.17
845.541	27.31
845.716	66.22
845.892	133.8
846.068	-44.37
846.244	92.84
846.419	37.55
846.595	51.88
846.77	21.16
846.946	117.42
847.122	23.21
847.297	-9.56
847.473	146.09
847.648	-1.37
847.824	6.83
847.999	-46.42
848.175	47.79
848.35	-19.8
848.526	133.8
848.701	33.45
848.876	82.6
849.052	113.32
849.227	84.65
849.403	115.37
849.578	66.22
849.753	51.88
849.929	113.32
850.104	4.78
850.279	88.75
850.454	72.36
850.63	6.83
850.805	4.78
850.98	-30.04
851.155	72.36
851.33	-1.37
851.505	27.31
851.681	62.12
851.856	-5.46
852.031	43.69
852.206	76.46
852.381	60.07
852.556	74.41
852.731	-13.65
852.906	29.35
853.081	90.79
853.256	31.4
853.431	-9.56
853.606	66.22
853.781	27.31
853.956	8.87
854.131	68.27
854.305	115.37
854.48	41.64
854.655	68.27
854.83	-30.04
855.005	47.79
855.18	43.69
855.354	10.92
855.529	82.6
855.704	-38.23
855.879	88.75
856.053	25.26
856.228	80.55
856.403	51.88
856.577	-21.84
856.752	-23.89
856.926	-15.7
857.101	19.11
857.276	53.93
857.45	-15.7
857.625	70.31
857.799	-38.23
857.974	43.69
858.148	-34.13
858.323	82.6
858.497	64.17
858.672	55.98
858.846	25.26
859.02	101.03
859.195	23.21
859.369	-40.28
859.543	51.88
859.718	-25.94
859.892	80.55
860.066	76.46
860.241	72.36
860.415	10.92
860.589	47.79
860.763	76.46
860.938	-21.84
861.112	4.78
861.286	-11.61
861.46	115.37
861.634	-19.8
861.808	72.36
861.982	-17.75
862.157	84.65
862.331	-38.23
862.505	10.92
862.679	6.83
862.853	-13.65
863.027	12.97
863.201	68.27
863.375	25.26
863.549	80.55
863.722	101.03
863.896	41.64
864.07	-30.04
864.244	37.55
864.418	19.11
864.592	-1.37
864.766	10.92
864.939	-11.61
865.113	6.83
865.287	15.02
865.461	15.02
865.634	10.92
865.808	49.83
865.982	-44.37
866.156	-48.47
866.329	27.31
866.503	39.59
866.676	29.35
866.85	68.27
867.024	74.41
867.197	10.92
867.371	8.87
867.544	25.26
867.718	51.88
867.891	60.07
868.065	15.02
868.238	-87.38
868.412	45.74
868.585	-21.84
868.759	-15.7
868.932	-32.08
869.105	-1.37
869.279	45.74
869.452	17.07
869.625	-5.46
869.799	12.97
869.972	15.02
870.145	70.31
870.319	35.5
870.492	60.07
870.665	-34.13
870.838	-15.7
871.011	-66.9
871.185	0.68
871.358	-50.52
871.531	-7.51
871.704	-48.47
871.877	-9.56
872.05	-21.84
872.223	39.59
872.396	35.5
872.569	29.35
872.742	-38.23
872.915	45.74
873.088	-5.46
873.261	39.59
873.434	10.92
873.607	12.97
873.78	23.21
873.953	-13.65
874.126	-23.89
874.299	33.45
874.471	2.73
874.644	43.69
874.817	39.59
874.99	88.75
875.163	-23.89
875.335	92.84
875.508	-3.41
875.681	-9.56
875.853	31.4
876.026	86.7
876.199	49.83
876.371	35.5
876.544	47.79
876.717	0.68
876.889	6.83
877.062	27.31
877.234	25.26
877.407	101.03
877.579	-21.84
877.752	51.88
877.924	-32.08
878.097	68.27
878.269	33.45
878.442	-1.37
878.614	19.11
878.786	33.45
878.959	68.27
879.131	0.68
879.303	-44.37
879.476	-3.41
879.648	-5.46
879.82	29.35
879.993	17.07
880.165	6.83
880.337	27.31
880.509	-25.94
880.681	-21.84
880.854	35.5
881.026	80.55
881.198	-11.61
881.37	-50.52
881.542	62.12
881.714	-9.56
881.886	-5.46
882.058	12.97
882.23	27.31
882.402	35.5
882.574	51.88
882.746	37.55
882.918	21.16
883.09	21.16
883.262	88.75
883.434	76.46
883.606	-25.94
883.778	6.83
883.95	43.69
884.122	58.03
884.293	53.93
884.465	41.64
884.637	82.6
884.809	10.92
884.98	37.55
885.152	51.88
885.324	64.17
885.496	-5.46
885.667	31.4
885.839	-19.8
886.011	125.61
886.182	-1.37
886.354	37.55
886.525	51.88
886.697	-1.37
886.869	58.03
887.04	4.78
887.212	92.84
887.383	84.65
887.555	2.73
887.726	-27.99
887.897	33.45
888.069	72.36
888.24	-17.75
888.412	-1.37
888.583	-32.08
888.754	19.11
888.926	-25.94
889.097	-9.56
889.268	35.5
889.44	31.4
889.611	-15.7
889.782	25.26
889.953	12.97
890.125	101.03
890.296	29.35
890.467	8.87
890.638	-54.61
890.809	29.35
890.98	10.92
891.151	-27.99
891.323	12.97
891.494	27.31
891.665	33.45
891.836	-11.61
892.007	17.07
892.178	-5.46
892.349	-5.46
892.52	4.78
892.691	-9.56
892.862	8.87
893.032	35.5
893.203	-3.41
893.374	-32.08
893.545	29.35
893.716	-32.08
893.887	17.07
894.057	8.87
894.228	-40.28
894.399	4.78
894.57	64.17
894.74	8.87
894.911	29.35
895.082	58.03
895.253	-66.9
895.423	58.03
895.594	51.88
895.764	82.6
895.935	17.07
896.106	15.02
896.276	-7.51
896.447	8.87
896.617	15.02
896.788	33.45
896.958	8.87
897.129	10.92
897.299	35.5
897.47	21.16
897.64	33.45
897.81	37.55
897.981	23.21
898.151	41.64
898.322	19.11
898.492	94.89
898.662	-17.75
898.832	35.5
899.003	-27.99
899.173	25.26
899.343	10.92
899.513	19.11
