Data from USB4F104151__109__10-24-51-000.txt Node

Date: Wed Mar 12 10:24:51 EDT 2025
User: louis
Spectrometer: USB4F10415
Trigger mode: 4
Integration Time (sec): 3.000000E-2
Scans to average: 1
Electric dark correction enabled: true
Nonlinearity correction enabled: false
Boxcar width: 0
XAxis mode: Wavelengths
Number of Pixels in Spectrum: 3648
>>>>>Begin Spectral Data<<<<<
178.204	-84.31
178.424	-84.31
178.644	-84.31
178.864	-186.71
179.084	-76.12
179.304	-24.92
179.524	-22.87
179.744	1.71
179.964	-35.16
180.184	24.23
180.404	91.82
180.624	30.38
180.844	5.8
181.064	-43.35
181.283	-6.49
181.503	-22.87
181.723	1.71
181.943	-86.36
182.163	46.76
182.383	28.33
182.602	50.86
182.822	67.24
183.042	28.33
183.262	11.95
183.482	3.75
183.701	-35.16
183.921	-10.58
184.141	-45.4
184.361	38.57
184.58	-49.49
184.8	91.82
185.02	32.43
185.239	54.95
185.459	59.05
185.679	9.9
185.898	-10.58
186.118	13.99
186.338	1.71
186.557	73.39
186.777	22.19
186.997	18.09
187.216	116.39
187.436	136.87
187.655	18.09
187.875	30.38
188.095	3.75
188.314	20.14
188.534	46.76
188.753	-6.49
188.973	-2.39
189.192	59.05
189.412	5.8
189.631	22.19
189.851	11.95
190.07	85.67
190.29	-10.58
190.509	3.75
190.729	63.15
190.948	38.57
191.168	177.83
191.387	85.67
191.607	-41.3
191.826	24.23
192.045	36.52
192.265	54.95
192.484	30.38
192.704	22.19
192.923	24.23
193.142	50.86
193.362	-2.39
193.581	5.8
193.8	38.57
194.02	9.9
194.239	3.75
194.458	181.93
194.678	-55.64
194.897	128.68
195.116	50.86
195.335	5.8
195.555	18.09
195.774	34.47
195.993	118.44
196.212	-10.58
196.432	42.67
196.651	22.19
196.87	38.57
197.089	75.43
197.308	-29.01
197.528	-16.73
197.747	79.53
197.966	-4.44
198.185	46.76
198.404	22.19
198.623	16.04
198.842	104.11
199.062	18.09
199.281	59.05
199.5	75.43
199.719	-18.77
199.938	85.67
200.157	7.85
200.376	30.38
200.595	5.8
200.814	3.75
201.033	22.19
201.252	63.15
201.471	44.71
201.69	-10.58
201.909	11.95
202.128	54.95
202.347	87.72
202.566	112.3
202.785	-49.49
203.004	-65.88
203.223	73.39
203.442	59.05
203.661	-18.77
203.879	63.15
204.098	24.23
204.317	-2.39
204.536	38.57
204.755	42.67
204.974	20.14
205.193	38.57
205.411	50.86
205.63	3.75
205.849	9.9
206.068	13.99
206.287	22.19
206.505	9.9
206.724	-37.2
206.943	30.38
207.162	22.19
207.381	42.67
207.599	-10.58
207.818	40.62
208.037	-6.49
208.255	11.95
208.474	85.67
208.693	-18.77
208.911	5.8
209.13	67.24
209.349	16.04
209.567	46.76
209.786	77.48
210.005	32.43
210.223	-80.21
210.442	24.23
210.661	87.72
210.879	7.85
211.098	1.71
211.316	-2.39
211.535	26.28
211.753	77.48
211.972	-6.49
212.191	-16.73
212.409	-2.39
212.628	59.05
212.846	11.95
213.065	40.62
213.283	104.11
213.502	118.44
213.72	38.57
213.938	11.95
214.157	5.8
214.375	20.14
214.594	-43.35
214.812	24.23
215.031	36.52
215.249	34.47
215.467	32.43
215.686	13.99
215.904	93.87
216.122	20.14
216.341	24.23
216.559	5.8
216.778	-6.49
216.996	-45.4
217.214	75.43
217.432	38.57
217.651	28.33
217.869	3.75
218.087	13.99
218.306	46.76
218.524	30.38
218.742	5.8
218.96	20.14
219.179	1.71
219.397	-35.16
219.615	48.81
219.833	40.62
220.051	-69.97
220.27	36.52
220.488	85.67
220.706	13.99
220.924	52.91
221.142	-4.44
221.36	61.1
221.578	-22.87
221.796	30.38
222.015	44.71
222.233	-14.68
222.451	34.47
222.669	-10.58
222.887	44.71
223.105	-26.96
223.323	-10.58
223.541	5.8
223.759	85.67
223.977	-53.59
224.195	-53.59
224.413	42.67
224.631	-14.68
224.849	75.43
225.067	67.24
225.285	-24.92
225.503	52.91
225.721	-24.92
225.939	40.62
226.157	97.96
226.375	134.82
226.592	22.19
226.81	40.62
227.028	50.86
227.246	91.82
227.464	-31.06
227.682	42.67
227.9	-6.49
228.117	1.71
228.335	65.19
228.553	28.33
228.771	28.33
228.989	-8.53
229.206	85.67
229.424	-6.49
229.642	18.09
229.86	9.9
230.077	-4.44
230.295	67.24
230.513	48.81
230.731	77.48
230.948	9.9
231.166	-16.73
231.384	38.57
231.601	63.15
231.819	-8.53
232.037	26.28
232.254	-29.01
232.472	11.95
232.689	-37.2
232.907	-37.2
233.125	42.67
233.342	-18.77
233.56	-43.35
233.777	-2.39
233.995	5.8
234.213	61.1
234.43	30.38
234.648	-53.59
234.865	59.05
235.083	-2.39
235.3	54.95
235.518	38.57
235.735	18.09
235.953	59.05
236.17	44.71
236.388	24.23
236.605	63.15
236.822	79.53
237.04	24.23
237.257	40.62
237.475	44.71
237.692	13.99
237.909	20.14
238.127	-31.06
238.344	5.8
238.562	28.33
238.779	1.71
238.996	-20.82
239.214	59.05
239.431	26.28
239.648	63.15
239.865	16.04
240.083	5.8
240.3	67.24
240.517	-8.53
240.735	46.76
240.952	11.95
241.169	-0.34
241.386	-14.68
241.603	-8.53
241.821	-6.49
242.038	71.34
242.255	44.71
242.472	3.75
242.689	50.86
242.907	95.91
243.124	77.48
243.341	-6.49
243.558	5.8
243.775	50.86
243.992	-55.64
244.209	22.19
244.426	67.24
244.643	-18.77
244.86	-4.44
245.078	3.75
245.295	11.95
245.512	79.53
245.729	-8.53
245.946	-12.63
246.163	-18.77
246.38	59.05
246.597	26.28
246.814	44.71
247.031	-86.36
247.248	85.67
247.464	1.71
247.681	38.57
247.898	-4.44
248.115	67.24
248.332	-14.68
248.549	52.91
248.766	69.29
248.983	71.34
249.2	-24.92
249.417	22.19
249.633	40.62
249.85	-2.39
250.067	5.8
250.284	26.28
250.501	44.71
250.717	102.06
250.934	-29.01
251.151	-0.34
251.368	34.47
251.585	79.53
251.801	59.05
252.018	-55.64
252.235	42.67
252.451	7.85
252.668	26.28
252.885	34.47
253.102	-2.39
253.318	50.86
253.535	57
253.752	1.71
253.968	-10.58
254.185	-14.68
254.401	26.28
254.618	28.33
254.835	-43.35
255.051	59.05
255.268	5.8
255.484	-53.59
255.701	73.39
255.917	-20.82
256.134	-12.63
256.351	-47.44
256.567	-10.58
256.784	44.71
257	-0.34
257.217	-49.49
257.433	85.67
257.65	20.14
257.866	9.9
258.082	-69.97
258.299	9.9
258.515	32.43
258.732	-39.25
258.948	-35.16
259.165	83.63
259.381	-39.25
259.597	24.23
259.814	-22.87
260.03	20.14
260.246	73.39
260.463	42.67
260.679	100.01
260.895	22.19
261.112	-10.58
261.328	16.04
261.544	-6.49
261.761	87.72
261.977	-20.82
262.193	-94.55
262.409	-2.39
262.626	-29.01
262.842	-6.49
263.058	5.8
263.274	13.99
263.49	-59.73
263.707	-0.34
263.923	13.99
264.139	44.71
264.355	22.19
264.571	40.62
264.787	54.95
265.004	-6.49
265.22	-35.16
265.436	5.8
265.652	-8.53
265.868	73.39
266.084	3.75
266.3	11.95
266.516	-14.68
266.732	34.47
266.948	18.09
267.164	57
267.38	-0.34
267.596	54.95
267.812	67.24
268.028	-33.11
268.244	-6.49
268.46	50.86
268.676	48.81
268.892	-6.49
269.108	-4.44
269.324	34.47
269.54	-4.44
269.756	13.99
269.972	13.99
270.188	-2.39
270.403	-35.16
270.619	32.43
270.835	30.38
271.051	-2.39
271.267	-24.92
271.483	-43.35
271.698	-6.49
271.914	26.28
272.13	38.57
272.346	13.99
272.562	28.33
272.777	52.91
272.993	13.99
273.209	5.8
273.425	54.95
273.64	-10.58
273.856	57
274.072	-39.25
274.287	18.09
274.503	40.62
274.719	-49.49
274.934	44.71
275.15	73.39
275.366	36.52
275.581	-35.16
275.797	22.19
276.012	65.19
276.228	91.82
276.444	16.04
276.659	132.78
276.875	-31.06
277.09	83.63
277.306	-4.44
277.521	52.91
277.737	22.19
277.952	18.09
278.168	34.47
278.383	11.95
278.599	54.95
278.814	42.67
279.03	5.8
279.245	69.29
279.461	20.14
279.676	77.48
279.892	-10.58
280.107	-8.53
280.322	-12.63
280.538	30.38
280.753	3.75
280.969	-37.2
281.184	28.33
281.399	77.48
281.615	46.76
281.83	32.43
282.045	-51.54
282.26	28.33
282.476	-4.44
282.691	87.72
282.906	30.38
283.122	34.47
283.337	16.04
283.552	110.25
283.767	7.85
283.983	28.33
284.198	-12.63
284.413	57
284.628	9.9
284.843	42.67
285.058	81.58
285.274	7.85
285.489	-35.16
285.704	18.09
285.919	-39.25
286.134	13.99
286.349	42.67
286.564	54.95
286.779	28.33
286.995	-0.34
287.21	20.14
287.425	54.95
287.64	-4.44
287.855	50.86
288.07	22.19
288.285	63.15
288.5	50.86
288.715	71.34
288.93	26.28
289.145	38.57
289.36	-26.96
289.575	52.91
289.79	11.95
290.004	46.76
290.219	-6.49
290.434	34.47
290.649	9.9
290.864	69.29
291.079	11.95
291.294	57
291.509	11.95
291.724	59.05
291.938	28.33
292.153	30.38
292.368	-4.44
292.583	-18.77
292.798	59.05
293.012	50.86
293.227	48.81
293.442	85.67
293.657	87.72
293.871	67.24
294.086	46.76
294.301	118.44
294.516	87.72
294.73	61.1
294.945	40.62
295.16	50.86
295.374	20.14
295.589	24.23
295.804	-0.34
296.018	38.57
296.233	71.34
296.447	30.38
296.662	91.82
296.877	100.01
297.091	32.43
297.306	69.29
297.52	5.8
297.735	38.57
297.949	77.48
298.164	65.19
298.378	-20.82
298.593	36.52
298.807	46.76
299.022	59.05
299.236	28.33
299.451	52.91
299.665	-6.49
299.88	16.04
300.094	1.71
300.309	54.95
300.523	-29.01
300.737	-47.44
300.952	36.52
301.166	75.43
301.381	24.23
301.595	-10.58
301.809	5.8
302.024	-53.59
302.238	46.76
302.452	-4.44
302.667	87.72
302.881	22.19
303.095	13.99
303.309	28.33
303.524	54.95
303.738	22.19
303.952	-4.44
304.166	-8.53
304.381	-43.35
304.595	13.99
304.809	13.99
305.023	-0.34
305.237	32.43
305.452	40.62
305.666	20.14
305.88	-22.87
306.094	52.91
306.308	61.1
306.522	46.76
306.736	69.29
306.95	87.72
307.164	28.33
307.379	26.28
307.593	110.25
307.807	7.85
308.021	124.58
308.235	11.95
308.449	20.14
308.663	54.95
308.877	136.87
309.091	-10.58
309.305	-2.39
309.519	-26.96
309.733	24.23
309.947	-72.02
310.161	-14.68
310.374	13.99
310.588	79.53
310.802	11.95
311.016	100.01
311.23	34.47
311.444	-84.31
311.658	-2.39
311.872	11.95
312.085	38.57
312.299	-35.16
312.513	97.96
312.727	38.57
312.941	-6.49
313.154	59.05
313.368	65.19
313.582	54.95
313.796	20.14
314.009	7.85
314.223	61.1
314.437	-12.63
314.651	59.05
314.864	-51.54
315.078	34.47
315.292	30.38
315.505	1.71
315.719	38.57
315.933	-4.44
316.146	63.15
316.36	-29.01
316.573	104.11
316.787	-2.39
317.001	95.91
317.214	-6.49
317.428	42.67
317.641	61.1
317.855	52.91
318.068	75.43
318.282	-8.53
318.495	85.67
318.709	5.8
318.922	-20.82
319.136	100.01
319.349	-6.49
319.563	28.33
319.776	16.04
319.99	11.95
320.203	-26.96
320.417	-26.96
320.63	38.57
320.843	112.3
321.057	11.95
321.27	-35.16
321.483	-0.34
321.697	13.99
321.91	22.19
322.124	63.15
322.337	18.09
322.55	38.57
322.763	22.19
322.977	63.15
323.19	63.15
323.403	30.38
323.617	-0.34
323.83	30.38
324.043	22.19
324.256	44.71
324.469	52.91
324.683	67.24
324.896	-6.49
325.109	16.04
325.322	52.91
325.535	50.86
325.748	59.05
325.962	-14.68
326.175	48.81
326.388	18.09
326.601	79.53
326.814	46.76
327.027	42.67
327.24	114.34
327.453	-31.06
327.666	89.77
327.879	71.34
328.092	67.24
328.305	-16.73
328.518	-22.87
328.731	34.47
328.944	46.76
329.157	-35.16
329.37	63.15
329.583	79.53
329.796	54.95
330.009	-26.96
330.222	30.38
330.435	26.28
330.648	81.58
330.861	26.28
331.073	44.71
331.286	102.06
331.499	77.48
331.712	-8.53
331.925	145.06
332.138	20.14
332.35	91.82
332.563	-16.73
332.776	28.33
332.989	11.95
333.202	11.95
333.414	-10.58
333.627	-10.58
333.84	36.52
334.053	128.68
334.265	-2.39
334.478	-55.64
334.691	75.43
334.903	59.05
335.116	5.8
335.329	110.25
335.541	54.95
335.754	16.04
335.966	52.91
336.179	7.85
336.392	24.23
336.604	32.43
336.817	20.14
337.029	16.04
337.242	67.24
337.454	-10.58
337.667	89.77
337.88	65.19
338.092	93.87
338.305	32.43
338.517	20.14
338.729	52.91
338.942	-2.39
339.154	61.1
339.367	-16.73
339.579	100.01
339.792	79.53
340.004	61.1
340.217	63.15
340.429	61.1
340.641	-26.96
340.854	89.77
341.066	81.58
341.278	69.29
341.491	136.87
341.703	-29.01
341.915	18.09
342.128	136.87
342.34	50.86
342.552	1.71
342.764	63.15
342.977	50.86
343.189	40.62
343.401	46.76
343.613	-55.64
343.826	-4.44
344.038	3.75
344.25	26.28
344.462	-12.63
344.674	16.04
344.886	13.99
345.099	-26.96
345.311	61.1
345.523	42.67
345.735	-49.49
345.947	46.76
346.159	-92.5
346.371	42.67
346.583	38.57
346.795	79.53
347.007	34.47
347.219	-16.73
347.431	38.57
347.643	77.48
347.855	-10.58
348.067	112.3
348.279	-4.44
348.491	36.52
348.703	81.58
348.915	63.15
349.127	52.91
349.339	13.99
349.551	46.76
349.763	83.63
349.975	38.57
350.187	52.91
350.399	46.76
350.61	-0.34
350.822	11.95
351.034	73.39
351.246	46.76
351.458	54.95
351.669	32.43
351.881	79.53
352.093	63.15
352.305	124.58
352.517	22.19
352.728	130.73
352.94	59.05
353.152	36.52
353.363	-10.58
353.575	46.76
353.787	65.19
353.999	38.57
354.21	65.19
354.422	20.14
354.633	61.1
354.845	48.81
355.057	26.28
355.268	34.47
355.48	100.01
355.692	81.58
355.903	48.81
356.115	-14.68
356.326	-43.35
356.538	-4.44
356.749	48.81
356.961	28.33
357.172	13.99
357.384	50.86
357.595	186.02
357.807	40.62
358.018	89.77
358.23	61.1
358.441	22.19
358.653	34.47
358.864	-22.87
359.075	-33.11
359.287	-2.39
359.498	-41.3
359.709	93.87
359.921	32.43
360.132	-12.63
360.344	13.99
360.555	40.62
360.766	26.28
360.977	108.2
361.189	57
361.4	-10.58
361.611	122.54
361.823	104.11
362.034	77.48
362.245	-47.44
362.456	36.52
362.667	71.34
362.879	7.85
363.09	5.8
363.301	67.24
363.512	83.63
363.723	-22.87
363.935	34.47
364.146	79.53
364.357	-18.77
364.568	48.81
364.779	42.67
364.99	38.57
365.201	9.9
365.412	38.57
365.623	-4.44
365.834	9.9
366.045	9.9
366.256	97.96
366.467	26.28
366.678	81.58
366.889	106.15
367.1	46.76
367.311	126.63
367.522	-29.01
367.733	42.67
367.944	73.39
368.155	-4.44
368.366	134.82
368.577	24.23
368.788	63.15
368.999	18.09
369.209	48.81
369.42	95.91
369.631	79.53
369.842	87.72
370.053	20.14
370.264	40.62
370.474	18.09
370.685	71.34
370.896	11.95
371.107	22.19
371.317	59.05
371.528	34.47
371.739	5.8
371.95	36.52
372.16	67.24
372.371	34.47
372.582	75.43
372.792	83.63
373.003	134.82
373.214	61.1
373.424	71.34
373.635	3.75
373.846	50.86
374.056	20.14
374.267	73.39
374.477	104.11
374.688	46.76
374.898	26.28
375.109	48.81
375.319	44.71
375.53	91.82
375.74	34.47
375.951	20.14
376.161	-12.63
376.372	89.77
376.582	46.76
376.793	116.39
377.003	36.52
377.214	-43.35
377.424	-2.39
377.635	30.38
377.845	-26.96
378.055	83.63
378.266	11.95
378.476	50.86
378.686	75.43
378.897	50.86
379.107	71.34
379.317	81.58
379.528	-0.34
379.738	61.1
379.948	5.8
380.158	112.3
380.369	87.72
380.579	161.45
380.789	63.15
380.999	61.1
381.21	110.25
381.42	116.39
381.63	95.91
381.84	83.63
382.05	77.48
382.261	52.91
382.471	91.82
382.681	44.71
382.891	54.95
383.101	65.19
383.311	100.01
383.521	52.91
383.731	116.39
383.941	32.43
384.151	38.57
384.361	44.71
384.571	102.06
384.781	52.91
384.991	77.48
385.201	48.81
385.411	65.19
385.621	20.14
385.831	30.38
386.041	157.35
386.251	91.82
386.461	67.24
386.671	69.29
386.881	63.15
387.091	71.34
387.301	79.53
387.511	73.39
387.72	71.34
387.93	40.62
388.14	30.38
388.35	54.95
388.56	132.78
388.769	106.15
388.979	52.91
389.189	-2.39
389.399	116.39
389.609	112.3
389.818	104.11
390.028	89.77
390.238	9.9
390.447	69.29
390.657	93.87
390.867	87.72
391.076	40.62
391.286	50.86
391.496	28.33
391.705	91.82
391.915	132.78
392.125	50.86
392.334	75.43
392.544	126.63
392.753	110.25
392.963	50.86
393.172	36.52
393.382	13.99
393.591	40.62
393.801	77.48
394.01	75.43
394.22	54.95
394.429	30.38
394.639	1.71
394.848	59.05
395.058	77.48
395.267	134.82
395.477	59.05
395.686	46.76
395.895	114.34
396.105	126.63
396.314	85.67
396.524	132.78
396.733	97.96
396.942	183.98
397.152	52.91
397.361	77.48
397.57	95.91
397.78	73.39
397.989	87.72
398.198	183.98
398.407	54.95
398.617	65.19
398.826	128.68
399.035	190.12
399.244	95.91
399.453	54.95
399.663	93.87
399.872	136.87
400.081	108.2
400.29	112.3
400.499	44.71
400.708	104.11
400.917	145.06
401.127	161.45
401.336	134.82
401.545	161.45
401.754	120.49
401.963	69.29
402.172	100.01
402.381	118.44
402.59	83.63
402.799	145.06
403.008	102.06
403.217	151.21
403.426	186.02
403.635	95.91
403.844	128.68
404.053	165.54
404.262	186.02
404.471	169.64
404.68	198.31
404.888	126.63
405.097	202.41
405.306	208.55
405.515	138.92
405.724	155.3
405.933	153.26
406.142	171.69
406.35	138.92
406.559	136.87
406.768	288.42
406.977	224.94
407.185	161.45
407.394	192.17
407.603	126.63
407.812	177.83
408.02	296.61
408.229	300.71
408.438	231.08
408.646	161.45
408.855	284.33
409.064	276.13
409.272	210.6
409.481	186.02
409.69	255.65
409.898	265.89
410.107	241.32
410.315	304.81
410.524	333.48
410.733	370.34
410.941	386.72
411.15	439.97
411.358	362.15
411.567	386.72
411.775	458.4
411.984	431.78
412.192	552.61
412.401	429.73
412.609	503.46
412.818	591.52
413.026	509.6
413.234	525.99
413.443	544.42
413.651	538.27
413.86	591.52
414.068	620.19
414.276	657.06
414.485	657.06
414.693	652.96
414.901	865.95
415.11	685.73
415.318	726.69
415.526	700.06
415.734	804.51
415.943	837.28
416.151	931.48
416.359	882.33
416.567	915.1
416.776	939.68
416.984	986.78
417.192	984.73
417.4	978.59
417.608	1060.51
417.817	1128.09
418.025	1144.47
418.233	1181.34
418.441	1300.12
418.649	1187.48
418.857	1283.74
419.065	1336.98
419.273	1349.27
419.481	1496.72
419.689	1509.01
419.897	1592.98
420.105	1543.83
420.313	1672.85
420.521	1703.57
420.729	1711.76
420.937	1879.69
421.145	1879.69
421.353	1937.04
421.561	1963.66
421.769	2090.63
421.977	2127.5
422.185	2176.65
422.393	2199.18
422.601	2430.6
422.809	2352.77
423.017	2377.35
423.224	2522.76
423.432	2633.35
423.64	2713.22
423.848	2854.53
424.056	2731.65
424.263	2969.21
424.471	2979.45
424.679	3049.08
424.887	3251.83
425.094	3409.53
425.302	3331.7
425.51	3479.16
425.718	3585.65
425.925	3634.8
426.133	3620.47
426.341	3868.27
426.548	4107.88
426.756	4028.01
426.964	4189.8
427.171	4376.17
427.379	4562.53
427.586	4570.72
427.794	4712.03
428.001	4953.7
428.209	5209.69
428.417	5135.96
428.624	5455.45
428.832	5467.74
429.039	5402.2
429.247	5437.02
429.454	5930.58
429.662	6346.31
429.869	5908.05
430.076	6305.35
430.284	6118.99
430.491	6241.87
430.699	6811.2
430.906	6710.85
431.114	6649.41
431.321	7253.56
431.528	7194.17
431.736	7642.68
431.943	8160.81
432.15	7839.28
432.358	7933.49
432.565	8322.6
432.772	8255.02
432.979	8717.86
433.187	8846.88
433.394	8959.52
433.601	9600.54
433.808	9666.07
434.016	9463.32
434.223	9852.44
434.43	10163.73
434.637	10264.08
434.844	10634.76
435.052	11048.45
435.259	11027.97
435.466	11085.31
435.673	11070.98
435.88	11746.81
436.087	12248.56
436.294	12484.08
436.501	12054
436.708	12353.01
436.915	12723.69
437.122	13438.43
437.329	13268.45
437.537	13823.45
437.743	14018
437.95	13952.47
438.157	14448.08
438.364	14888.39
438.571	15054.28
438.778	15121.86
438.985	16549.29
439.192	15746.49
439.399	16393.65
439.606	15844.79
439.813	16770.47
440.02	18019.74
440.227	17376.67
440.433	17274.28
440.64	18216.34
440.847	17831.32
441.054	18437.52
441.261	19623.3
441.467	19176.84
441.674	19623.3
441.881	20071.8
442.088	20342.13
442.294	20254.07
442.501	20579.7
442.708	21138.79
442.914	22062.43
443.121	22752.59
443.328	22025.56
443.534	23504.2
443.741	22744.4
443.948	22764.88
444.154	24313.14
444.361	24042.81
444.568	24345.91
444.774	24210.75
444.981	24939.82
445.187	25236.78
445.394	26324.25
445.6	26004.77
445.807	28566.77
446.013	27313.42
446.22	27852.03
446.426	28763.38
446.633	29314.28
446.839	30010.59
447.046	28806.39
447.252	30219.49
447.459	30463.19
447.665	30186.72
447.871	31493.32
448.078	32984.24
448.284	31468.75
448.491	31878.34
448.697	33354.93
448.903	33782.95
449.11	34002.08
449.316	33483.95
449.522	34274.46
449.728	34581.66
449.935	34917.53
450.141	34856.09
450.347	35914.89
450.553	34811.03
450.76	34827.42
450.966	36062.34
451.172	35916.93
451.378	36551.8
451.584	35830.92
451.791	36596.86
451.997	36686.97
452.203	36963.45
452.409	37053.56
452.615	37076.08
452.821	35527.82
453.027	35433.61
453.233	37076.08
453.44	35544.2
453.646	36045.96
453.852	36473.98
454.058	36557.95
454.264	35540.11
454.47	36062.34
454.676	35339.41
454.882	36445.31
455.088	33541.29
455.294	33936.55
455.5	33881.25
455.705	34778.26
455.911	33207.47
456.117	32337.09
456.323	31964.35
456.529	30399.71
456.735	31775.94
456.941	30954.71
457.147	30350.56
457.352	29338.86
457.558	28828.91
457.764	28767.48
457.97	28499.19
458.176	28052.73
458.381	28052.73
458.587	26293.53
458.793	26500.37
458.999	24868.14
459.204	26625.3
459.41	26170.65
459.616	24075.58
459.821	24333.62
460.027	24192.31
460.233	23725.38
460.438	22478.16
460.644	22889.81
460.85	21912.92
461.055	21300.58
461.261	21376.36
461.466	19740.03
461.672	19269
461.878	20934
462.083	19309.96
462.289	18943.37
462.494	18816.4
462.7	18048.41
462.905	17366.43
463.111	18154.9
463.316	17952.15
463.522	17878.43
463.727	17892.76
463.932	17747.36
464.138	17589.66
464.343	17532.32
464.549	17245.6
464.754	17849.75
464.959	17366.43
465.165	17180.07
465.37	16852.39
465.575	16307.63
465.781	16979.37
465.986	17040.81
466.191	16307.63
466.397	16057.78
466.602	15252.93
466.807	16051.64
467.012	15746.49
467.218	15666.62
467.423	15568.32
467.628	15840.7
467.833	16412.08
468.038	15902.14
468.244	15078.85
468.449	15822.27
468.654	15447.49
468.859	15396.29
469.064	15089.09
469.269	14771.66
469.474	14749.13
469.679	15001.03
469.885	14458.32
470.09	14896.58
470.295	14536.14
470.5	14081.49
470.705	14382.54
470.91	14058.96
471.115	13989.33
471.32	13983.19
471.525	13669.85
471.73	13692.38
471.935	13757.91
472.139	13155.81
472.344	13164
472.549	13223.39
472.754	12905.96
472.959	12781.03
473.164	12379.63
473.369	12469.74
473.574	12856.81
473.778	12754.41
473.983	12672.49
474.188	12531.18
474.393	11980.28
474.598	12076.53
474.802	11834.87
475.007	11884.02
475.212	11914.74
475.417	11486.72
475.621	11521.53
475.826	11441.66
476.031	11040.26
476.235	11056.64
476.44	11220.48
476.645	10857.99
476.849	10905.09
477.054	10747.4
477.259	10591.75
477.463	10688.01
477.668	10448.4
477.872	10384.91
478.077	10149.39
478.282	10143.25
478.486	10073.62
478.691	9958.93
478.895	9803.29
479.1	9801.24
479.304	10159.63
479.509	9580.06
479.713	9823.76
479.918	9535
480.122	9625.11
480.326	9481.75
480.531	9588.25
480.735	9401.88
480.94	9399.84
481.144	9575.96
481.348	9295.39
481.553	9442.84
481.757	9088.54
481.961	9272.86
482.166	9272.86
482.37	9229.85
482.574	8975.91
482.778	9236
482.983	9428.51
483.187	9240.09
483.391	9231.9
483.595	8941.09
483.8	9090.59
484.004	9217.57
484.208	9053.73
484.412	9178.65
484.616	9117.22
484.821	9238.05
485.025	9045.54
485.229	9221.66
485.433	8984.1
485.637	9240.09
485.841	9076.26
486.045	9090.59
486.249	9066.02
486.453	9086.5
486.657	9170.46
486.861	9147.94
487.065	8936.99
487.269	9154.08
487.473	9059.87
487.677	9152.03
487.881	9123.36
488.085	9055.78
488.289	9211.42
488.493	9137.7
488.697	9100.83
488.901	9279.01
489.105	9274.91
489.309	9362.97
489.512	9309.72
489.716	9115.17
489.92	9227.81
490.124	9274.91
490.328	9506.33
490.531	9322.01
490.735	9358.88
490.939	9315.87
491.143	9360.92
491.346	9227.81
491.55	9770.52
491.754	9578.01
491.958	9596.44
492.161	9545.24
492.365	9750.04
492.569	9666.07
492.772	9631.26
492.976	9805.33
493.18	9909.78
493.383	10081.81
493.587	10135.06
493.79	10020.37
493.994	10036.75
494.197	10077.71
494.401	10163.73
494.605	10270.22
494.808	10290.7
495.012	10485.26
495.215	10595.85
495.419	10544.65
495.622	10395.15
495.825	10763.78
496.029	10909.19
496.232	11054.59
496.436	10800.65
496.639	11103.75
496.843	11245.06
497.046	11470.33
497.249	11408.89
497.453	11595.26
497.656	11585.02
497.859	11595.26
498.063	11902.45
498.266	11945.46
498.469	12008.95
498.673	12172.78
498.876	12307.95
499.079	12310
499.282	12391.92
499.485	12725.74
499.689	12690.92
499.892	12961.25
500.095	12948.97
500.298	13149.67
500.501	13264.35
500.705	13532.64
500.908	13503.96
501.111	13929.94
501.314	13970.9
501.517	14007.76
501.72	14353.87
501.923	14437.84
502.126	14538.19
502.329	14779.85
502.532	14630.35
502.735	15062.47
502.938	15320.51
503.141	15353.28
503.344	15648.19
503.547	15895.99
503.75	15885.75
503.953	16340.4
504.156	16291.25
504.359	16428.46
504.562	16627.12
504.765	16690.6
504.968	17042.85
505.17	16979.37
505.373	17378.72
505.576	17399.2
505.779	17931.67
505.982	18064.79
506.185	18187.67
506.387	18126.23
506.59	18498.96
506.793	18781.58
506.996	18609.55
507.198	19324.29
507.401	19432.83
507.604	19199.37
507.807	19660.16
508.009	19772.8
508.212	19899.77
508.415	20348.28
508.617	20389.24
508.82	20594.03
509.022	20276.6
509.225	21243.24
509.428	21189.99
509.63	21464.42
509.833	21503.33
510.035	22312.28
510.238	22347.09
510.44	22189.4
510.643	22488.4
510.845	22908.24
511.048	22930.76
511.25	23295.3
511.453	23156.04
511.655	24247.61
511.858	24008
512.06	24122.68
512.262	24329.53
512.465	24194.36
512.667	24888.62
512.87	24972.59
513.072	24986.93
513.274	25793.83
513.477	25986.33
513.679	25914.66
513.881	26291.48
514.084	26649.88
514.286	26936.59
514.488	26793.23
514.69	27757.83
514.893	27788.55
515.095	27532.55
515.297	28179.71
515.499	28261.63
515.701	28654.84
515.904	28959.98
516.106	28867.83
516.308	29504.74
516.51	29852.9
516.712	29938.91
516.914	30246.11
517.116	30608.6
517.318	30379.23
517.52	30899.41
517.722	31255.76
517.925	31640.78
518.127	31710.41
518.329	32062.66
518.531	32054.47
518.733	32613.56
518.935	33234.1
519.136	33275.05
519.338	33408.17
519.54	33848.49
519.742	33973.41
519.944	34661.53
520.146	34636.95
520.348	34874.52
520.55	35224.72
520.752	35331.22
520.954	36060.29
521.155	35538.06
521.357	36414.59
521.559	36988.02
521.761	37203.06
521.963	36826.23
522.164	37104.76
522.366	37311.6
522.568	37774.44
522.77	37831.79
522.971	38253.67
523.173	37928.04
523.375	38808.67
523.576	38890.59
523.778	38851.67
523.98	39631.95
524.181	39943.24
524.383	40066.12
524.584	40356.93
524.786	40524.86
524.988	40297.54
525.189	40508.48
525.391	41122.87
525.592	41346.1
525.794	41311.28
525.995	41303.09
526.197	41671.73
526.398	41858.09
526.6	42155.05
526.801	42372.13
527.003	42654.75
527.204	42689.57
527.406	42925.08
527.607	42503.2
527.808	43523.09
528.01	42875.93
528.211	42779.68
528.412	43994.12
528.614	43828.24
528.815	43762.7
529.016	44405.77
529.218	43691.02
529.419	44117
529.62	44356.61
529.822	44401.67
530.023	44198.92
530.224	44676.1
530.425	44833.79
530.626	44291.08
530.828	44407.81
531.029	45243.38
531.23	45120.51
531.431	44542.98
531.632	44952.57
531.833	45235.19
532.035	45018.11
532.236	44784.64
532.437	45747.18
532.638	45118.46
532.839	45442.04
533.04	45669.36
533.241	45374.45
533.442	45915.12
533.643	45829.1
533.844	45304.82
534.045	45644.79
534.246	45683.7
534.447	45702.13
534.648	45655.03
534.849	45792.24
535.05	45409.27
535.251	46310.38
535.451	45890.54
535.652	46261.22
535.853	45997.04
536.054	45939.69
536.255	46095.34
536.456	45747.18
536.657	46212.07
536.857	45693.94
537.058	45431.8
537.259	46158.83
537.46	46191.59
537.66	46152.68
537.861	45829.1
538.062	45868.01
538.263	46500.84
538.463	46154.73
538.664	45870.06
538.865	45968.37
539.065	46488.55
539.266	46156.78
539.466	46443.49
539.667	45917.17
539.868	46468.07
540.068	46078.96
540.269	45751.28
540.469	46078.96
540.67	45900.78
540.87	45763.57
541.071	45972.46
541.271	46119.91
541.472	45812.72
541.672	45509.62
541.873	45644.79
542.073	45509.62
542.274	45911.02
542.474	45941.74
542.675	45769.71
542.875	46595.04
543.075	46418.92
543.276	45075.45
543.476	46457.83
543.676	45779.95
543.877	46308.33
544.077	45886.45
544.277	45874.16
544.478	45886.45
544.678	46314.47
544.878	46021.61
545.078	45896.69
545.279	45868.01
545.479	45986.8
545.679	45747.18
545.879	45634.55
546.079	45794.29
546.28	45755.38
546.48	45399.03
546.68	46078.96
546.88	46513.12
547.08	45663.22
547.28	45679.6
547.48	45460.47
547.68	45894.64
547.88	45292.54
548.081	46076.91
548.281	45755.38
548.481	45216.76
548.681	46160.87
548.881	45431.8
549.081	45392.89
549.28	45392.89
549.48	45937.65
549.68	45659.12
549.88	45992.94
550.08	45259.77
550.28	45472.76
550.48	45126.65
550.68	45915.12
550.88	45143.03
551.08	45351.93
551.279	45655.03
551.479	45243.38
551.679	45380.6
551.879	45495.28
552.079	46152.68
552.278	45095.93
552.478	45143.03
552.678	45663.22
552.878	45583.35
553.077	44964.86
553.277	45032.44
553.477	45599.73
553.676	45343.73
553.876	45454.33
554.076	45161.47
554.275	45114.36
554.475	44710.91
554.674	45081.59
554.874	45136.89
555.074	44790.78
555.273	44893.18
555.473	45001.72
555.672	44467.2
555.872	44936.19
556.071	44964.86
556.271	45079.55
556.47	44710.91
556.67	44454.92
556.869	44297.22
557.068	44547.07
557.268	44174.34
557.467	44399.62
557.667	44370.95
557.866	44635.14
558.065	44024.84
558.265	44225.54
558.464	43637.78
558.663	43916.3
558.863	44164.1
559.062	44270.6
559.261	43422.74
559.461	44264.46
559.66	43023.39
559.859	43967.5
560.058	43410.45
560.258	43498.51
560.457	42920.99
560.656	43723.79
560.855	43133.98
561.054	43361.3
561.253	42763.29
561.453	43301.91
561.652	42990.62
561.851	42789.92
562.05	42763.29
562.249	42509.35
562.448	42925.08
562.647	42368.04
562.846	42767.39
563.045	42411.04
563.244	41821.23
563.443	43064.35
563.642	42253.35
563.841	42239.01
564.04	41905.2
564.239	42140.71
564.438	41860.14
564.637	42126.38
564.836	42054.7
565.035	41577.52
565.234	41491.51
565.432	41417.78
565.631	41065.53
565.83	41221.17
566.029	41225.27
566.228	40856.64
566.427	40891.45
566.625	40854.59
566.824	40139.85
567.023	40582.21
567.222	39834.7
567.42	40731.71
567.619	40442.95
567.818	39838.79
568.016	39973.96
568.215	40088.65
568.414	39969.86
568.612	40016.97
568.811	39504.98
569.01	39339.09
569.208	39461.97
569.407	39900.23
569.605	38954.07
569.804	39312.47
570.002	38935.64
570.201	39175.25
570.4	38990.94
570.598	38470.75
570.797	38653.02
570.995	38765.66
571.193	38691.93
571.392	38757.47
571.59	38116.45
571.789	38149.22
571.987	38046.82
572.186	38153.32
572.384	37829.74
572.582	37864.55
572.781	37614.7
572.979	37260.4
573.177	37604.46
573.376	37934.18
573.574	37336.18
573.772	37364.85
573.971	37092.47
574.169	36758.65
574.367	36592.76
574.565	36971.64
574.763	36717.69
574.962	36299.9
575.16	36396.16
575.358	36492.41
575.556	35937.41
575.754	36650.11
575.952	35855.5
576.151	36117.64
576.349	35665.03
576.547	36027.52
576.745	35646.6
576.943	35560.59
577.141	35411.09
577.339	35720.33
577.537	35562.64
577.735	35171.47
577.933	34757.78
578.131	35402.89
578.329	34671.77
578.527	34768.02
578.725	34673.82
578.923	34585.75
579.121	34692.25
579.319	34196.64
579.516	34466.97
579.714	34137.25
579.912	34161.83
580.11	34311.33
580.308	34127.01
580.506	34073.76
580.704	33741.99
580.901	33608.87
581.099	33918.12
581.297	33416.36
581.495	33531.05
581.692	33492.14
581.89	33217.71
582.088	33420.46
582.285	33103.03
582.483	33256.62
582.681	32904.37
582.878	32996.53
583.076	32455.87
583.274	32785.59
583.471	32478.4
583.669	32529.59
583.866	32308.41
584.064	32441.53
584.262	31747.27
584.459	32570.55
584.657	31923.4
584.854	32009.41
585.052	31448.27
585.249	31896.77
585.447	31698.12
585.644	31630.54
585.841	31749.32
586.039	31544.52
586.236	31204.56
586.434	30999.76
586.631	31349.96
586.828	31167.7
587.026	30696.66
587.223	30749.91
587.42	30606.55
587.618	30473.43
587.815	30463.19
588.012	30426.33
588.21	30383.32
588.407	30594.26
588.604	30434.52
588.801	30080.22
588.999	30350.56
589.196	29832.42
589.393	30123.23
589.59	29834.47
589.787	29748.45
589.984	29560.04
590.182	29220.08
590.379	29678.82
590.576	28878.07
590.773	29451.5
590.97	29125.87
591.167	29304.04
591.364	28759.28
591.561	29142.25
591.758	28853.49
591.955	28609.78
592.152	28867.83
592.349	28712.18
592.546	28488.95
592.743	28507.38
592.94	28196.09
593.137	28396.79
593.334	28318.97
593.531	28265.72
593.727	28386.55
593.924	27776.26
594.121	27718.92
594.318	28005.63
594.515	27593.99
594.712	27761.92
594.908	27497.74
595.105	27671.81
595.302	27165.96
595.499	27440.39
595.696	27092.24
595.892	27141.39
596.089	27215.12
596.286	27020.56
596.482	26799.38
596.679	26711.32
596.876	27055.37
597.072	26694.93
597.269	26596.63
597.466	26596.63
597.662	26506.52
597.859	26500.37
598.055	26314.01
598.252	25914.66
598.448	26035.49
598.645	26182.94
598.841	25752.87
599.038	25871.65
599.234	26137.88
599.431	25525.54
599.627	25531.69
599.824	25924.9
600.02	25566.5
600.217	25478.44
600.413	25292.07
600.609	25318.7
600.806	25318.7
601.002	25298.22
601.198	25109.8
601.395	25210.15
601.591	24866.1
601.787	24907.05
601.984	24581.43
602.18	24855.86
602.376	24255.8
602.572	24622.39
602.769	24579.38
602.965	24409.4
603.161	24413.49
603.357	23997.76
603.553	24159.55
603.75	24497.46
603.946	24102.2
604.142	23885.12
604.338	23799.1
604.534	23838.01
604.73	23633.22
604.926	23442.76
605.122	23819.58
605.318	23835.97
605.514	23436.61
605.71	22979.92
605.906	23229.77
606.102	23295.3
606.298	23153.99
606.494	23356.74
606.69	23274.82
606.886	22809.93
607.082	22748.5
607.278	23149.9
607.474	22488.4
607.67	22986.06
607.866	22748.5
608.062	23145.8
608.257	22924.62
608.453	22621.52
608.649	22605.14
608.845	22291.8
609.041	22244.7
609.236	22394.2
609.432	22304.09
609.628	22209.88
609.824	22082.91
610.019	22087
610.215	22291.8
610.411	21914.97
610.606	21943.64
610.802	21941.6
610.998	21927.26
611.193	22035.8
611.389	21740.89
611.584	21970.27
611.78	21577.06
611.976	21906.78
612.171	21548.39
612.367	21224.81
612.562	21366.12
612.758	21296.49
612.953	21394.79
613.149	21560.67
613.344	21425.51
613.539	21519.71
613.735	21001.58
613.93	21312.87
614.126	21165.42
614.321	21179.75
614.517	21386.6
614.712	20878.7
614.907	20897.13
615.103	21196.14
615.298	21052.78
615.493	21183.85
615.688	20522.35
615.884	21445.99
616.079	20475.25
616.274	20790.64
616.47	20583.79
616.665	20692.33
616.86	20721.01
617.055	20530.55
617.25	20401.52
617.445	20653.42
617.641	20110.71
617.836	20450.67
618.031	19879.29
618.226	20462.96
618.421	19991.93
618.616	20106.62
618.811	19903.87
619.006	20180.34
619.201	19662.21
619.396	19893.63
619.591	19307.91
619.786	19776.89
619.981	19504.51
620.176	19643.77
620.371	19400.07
620.566	19303.81
620.761	19115.4
620.956	19438.98
621.151	18808.2
621.346	19238.28
621.541	18546.06
621.735	18861.45
621.93	18593.17
622.125	18736.52
622.32	18365.84
622.515	18763.15
622.709	18458
622.904	18421.14
623.099	18306.45
623.294	18245.01
623.488	17763.74
623.683	18025.88
623.878	17816.99
624.072	17819.03
624.267	17823.13
624.462	17751.45
624.656	17399.2
624.851	17341.86
625.046	17266.08
625.24	17104.29
625.435	17135.01
625.629	17032.61
625.824	16772.52
626.018	16926.12
626.213	16717.23
626.407	16612.78
626.602	16149.94
626.796	16610.73
626.991	16463.28
627.185	16221.62
627.38	16104.88
627.574	16098.74
627.768	16055.73
627.963	15832.51
628.157	15756.73
628.352	15867.32
628.546	15496.64
628.74	15676.86
628.935	15439.3
629.129	15629.76
629.323	15033.8
629.517	15146.44
629.712	15291.84
629.906	15099.33
630.1	14990.79
630.294	14966.21
630.489	14753.23
630.683	15009.22
630.877	14814.66
631.071	14697.93
631.265	14773.71
631.459	14431.69
631.653	14566.86
631.848	14390.74
632.042	14323.15
632.236	14042.58
632.43	13897.17
632.624	14171.6
632.818	14052.82
633.012	14042.58
633.206	13696.47
633.4	13833.69
633.594	13434.33
633.788	13905.37
633.982	13579.74
634.176	13534.68
634.369	13522.4
634.563	13567.45
634.757	13247.97
634.951	13235.68
635.145	13221.34
635.339	13190.63
635.533	12987.88
635.726	13235.68
635.92	12813.8
636.114	12850.66
636.308	12807.66
636.501	12576.23
636.695	12643.82
636.889	12518.89
637.083	12408.3
637.276	12406.25
637.47	12101.11
637.664	12346.86
637.857	12226.03
638.051	12174.83
638.244	12111.35
638.438	12266.99
638.632	12025.33
638.825	11732.47
639.019	11927.03
639.212	11793.91
639.406	11873.78
639.599	11544.06
639.793	11609.59
639.986	11372.03
640.18	11556.35
640.373	11353.6
640.567	11480.57
640.76	11070.98
640.954	11081.22
641.147	11134.46
641.34	11079.17
641.534	10882.56
641.727	11181.57
641.92	10941.96
642.114	10665.48
642.307	10874.37
642.5	10552.84
642.694	10782.21
642.887	10694.15
643.08	10812.93
643.273	10601.99
643.467	10495.5
643.66	10325.52
643.853	10376.72
644.046	10008.08
644.239	10255.89
644.432	10120.72
644.626	9889.3
644.819	10022.42
645.012	9952.79
645.205	9866.77
645.398	10032.66
645.591	9838.1
645.784	9682.45
645.977	9604.63
646.17	9729.56
646.363	9512.47
646.556	9377.31
646.749	9602.58
646.942	9340.44
647.135	9645.59
647.328	9340.44
647.521	9317.92
647.714	9172.51
647.907	9229.85
648.099	9094.69
648.292	9139.74
648.485	9254.43
648.678	9098.78
648.871	8816.16
649.064	9012.77
649.256	9035.3
649.449	8703.53
649.642	8855.08
649.835	8697.38
650.027	8773.16
650.22	8732.2
650.413	8670.76
650.605	8652.33
650.798	8781.35
650.991	8615.46
651.183	8384.04
651.376	8433.19
651.568	8457.77
651.761	8164.91
651.954	8267.31
652.146	8134.19
652.339	8037.94
652.531	8234.54
652.724	8076.85
652.916	7982.64
653.109	7960.11
653.301	8091.18
653.494	8140.33
653.686	7806.52
653.879	7876.15
654.071	7822.9
654.263	7697.97
654.456	7444.03
654.648	7706.17
654.84	7605.81
655.033	7532.09
655.225	7618.1
655.417	7593.53
655.61	7669.3
655.802	7411.26
655.994	7407.16
656.186	7351.87
656.379	7458.36
656.571	7183.93
656.763	7423.55
656.955	7249.47
657.148	7169.6
657.34	7110.21
657.532	7063.1
657.724	7054.91
657.916	7018.05
658.108	7026.24
658.3	6942.27
658.492	6913.6
658.684	6805.06
658.876	7028.29
659.068	6858.31
659.26	6854.21
659.452	6872.64
659.644	6727.24
659.836	6778.44
660.028	6776.39
660.22	6544.97
660.412	6637.13
660.604	6534.73
660.796	6565.45
660.988	6555.21
661.18	6612.55
661.372	6383.18
661.563	6565.45
661.755	6432.33
661.947	6245.96
662.139	6456.9
662.331	6325.83
662.522	6278.73
662.714	6145.61
662.906	6276.68
663.097	6327.88
663.289	6102.61
663.481	6151.76
663.673	5963.34
663.864	6075.98
664.056	6106.7
664.247	6065.74
664.439	6045.26
664.631	5959.25
664.822	5797.46
665.014	5858.9
665.205	5772.88
665.397	5926.48
665.588	5756.5
665.78	5762.64
665.971	5688.92
666.163	5828.18
666.354	5662.29
666.546	5736.02
666.737	5523.03
666.929	5539.41
667.12	5588.57
667.311	5590.61
667.503	5535.32
667.694	5531.22
667.885	5527.13
668.077	5467.74
668.268	5348.95
668.459	5455.45
668.651	5387.86
668.842	5572.18
669.033	5318.23
669.224	5320.28
669.416	5373.53
669.607	5295.71
669.798	5267.03
669.989	5387.86
670.18	5271.13
670.371	5170.78
670.563	5271.13
670.754	5183.07
670.945	5254.75
671.136	5123.68
671.327	5119.58
671.518	5084.77
671.709	5197.4
671.9	5195.36
672.091	5068.38
672.282	5176.92
672.473	5052
672.664	5011.04
672.855	5035.61
673.046	5131.87
673.237	5047.9
673.428	5066.33
673.619	5121.63
673.809	4961.89
674	5045.85
674.191	4861.54
674.382	4855.39
674.573	4904.54
674.764	4800.1
674.954	4951.65
675.145	4740.71
675.336	4798.05
675.527	4841.06
675.717	4908.64
675.908	4879.97
676.099	4791.91
676.289	4818.53
676.48	4714.08
676.671	4634.21
676.861	4783.71
677.052	4677.22
677.243	4859.49
677.433	4630.12
677.624	4707.94
677.814	4718.18
678.005	4789.86
678.195	4910.69
678.386	4771.43
678.576	4861.54
678.767	4712.03
678.957	4789.86
679.148	4701.79
679.338	4683.36
679.529	4607.59
679.719	4615.78
679.909	4742.75
680.1	4755.04
680.29	4656.74
680.481	4589.16
680.671	4818.53
680.861	4699.75
681.052	4822.63
681.242	4732.51
681.432	4613.73
681.622	4734.56
681.813	4593.25
682.003	4654.69
682.193	4634.21
682.383	4712.03
682.573	4728.42
682.764	4587.11
682.954	4642.4
683.144	4673.12
683.334	4683.36
683.524	4726.37
683.714	4544.1
683.904	4593.25
684.094	4441.7
684.284	4679.27
684.474	4623.97
684.664	4679.27
684.854	4558.44
685.044	4497
685.234	4515.43
685.424	4546.15
685.614	4451.94
685.804	4554.34
685.994	4419.18
686.184	4638.31
686.374	4327.02
686.564	4570.72
686.753	4552.29
686.943	4175.47
687.133	4513.38
687.323	4296.3
687.513	4419.18
687.702	4497
687.892	4273.77
688.082	4427.37
688.272	4460.13
688.461	4304.49
688.651	4339.3
688.841	4210.28
689.03	4226.67
689.22	4152.94
689.41	4261.48
689.599	4347.5
689.789	4310.63
689.979	4171.37
690.168	4075.12
690.358	4273.77
690.547	4150.89
690.737	4091.5
690.926	4165.23
691.116	4173.42
691.305	4157.04
691.495	3933.81
691.684	4011.63
691.874	4226.67
692.063	3999.34
692.252	3860.08
692.442	4013.68
692.631	3862.13
692.82	4075.12
693.01	3950.19
693.199	3907.18
693.388	3804.78
693.578	3745.39
693.767	3866.22
693.956	3864.18
694.146	3772.02
694.335	3804.78
694.524	3706.48
694.713	3843.7
694.902	3741.3
695.092	3772.02
695.281	3780.21
695.47	3749.49
695.659	3769.97
695.848	3739.25
696.037	3690.1
696.226	3761.78
696.415	3634.8
696.604	3788.4
696.793	3737.2
696.982	3774.07
697.171	3782.26
697.36	3817.07
697.549	3806.83
697.738	3759.73
697.927	3700.34
698.116	3671.67
698.305	3647.09
698.494	3612.28
698.683	3825.26
698.872	3470.97
699.061	3659.38
699.25	3698.29
699.438	3720.82
699.627	3647.09
699.816	3677.81
700.005	3720.82
700.193	3700.34
700.382	3708.53
700.571	3622.52
700.76	3638.9
700.948	3581.56
701.137	3577.46
701.326	3618.42
701.514	3581.56
701.703	3663.47
701.892	3530.36
702.08	3597.94
702.269	3520.12
702.457	3686
702.646	3608.18
702.834	3606.13
703.023	3735.15
703.212	3436.15
703.4	3647.09
703.589	3692.15
703.777	3634.8
703.965	3632.76
704.154	3522.16
704.342	3565.17
704.531	3522.16
704.719	3503.73
704.907	3556.98
705.096	3520.12
705.284	3591.8
705.472	3665.52
705.661	3575.41
705.849	3720.82
706.037	3591.8
706.226	3546.74
706.414	3559.03
706.602	3681.91
706.79	3536.5
706.979	3509.88
707.167	3634.8
707.355	3417.72
707.543	3567.22
707.731	3618.42
707.919	3499.64
708.107	3518.07
708.296	3552.88
708.484	3462.77
708.672	3544.69
708.86	3626.61
709.048	3663.47
709.236	3634.8
709.424	3655.28
709.612	3546.74
709.8	3751.54
709.988	3559.03
710.176	3716.72
710.364	3612.28
710.551	3583.6
710.739	3714.67
710.927	3530.36
711.115	3575.41
711.303	3651.19
711.491	3479.16
711.679	3579.51
711.866	3602.04
712.054	3604.08
712.242	3460.73
712.43	3782.26
712.617	3657.33
712.805	3591.8
712.993	3698.29
713.181	3522.16
713.368	3669.62
713.556	3692.15
713.744	3583.6
713.931	3536.5
714.119	3704.43
714.306	3716.72
714.494	3661.43
714.682	3624.56
714.869	3516.02
715.057	3683.95
715.244	3610.23
715.432	3647.09
715.619	3626.61
715.807	3550.84
715.994	3661.43
716.182	3546.74
716.369	3628.66
716.556	3688.05
716.744	3702.39
716.931	3712.63
717.119	3673.71
717.306	3667.57
717.493	3606.13
717.681	3595.89
717.868	3626.61
718.055	3731.06
718.242	3667.57
718.43	3653.23
718.617	3630.71
718.804	3581.56
718.991	3616.37
719.179	3843.7
719.366	3532.4
719.553	3536.5
719.74	3554.93
719.927	3585.65
720.114	3602.04
720.301	3573.36
720.488	3669.62
720.676	3663.47
720.863	3688.05
721.05	3714.67
721.237	3606.13
721.424	3669.62
721.611	3614.32
721.798	3491.45
721.985	3556.98
722.172	3589.75
722.358	3634.8
722.545	3548.79
722.732	3720.82
722.919	3618.42
723.106	3593.84
723.293	3569.27
723.48	3610.23
723.667	3561.08
723.853	3610.23
724.04	3509.88
724.227	3657.33
724.414	3708.53
724.6	3663.47
724.787	3636.85
724.974	3716.72
725.161	3632.76
725.347	3573.36
725.534	3665.52
725.72	3567.22
725.907	3706.48
726.094	3536.5
726.28	3462.77
726.467	3460.73
726.653	3540.6
726.84	3536.5
727.027	3669.62
727.213	3538.55
727.4	3556.98
727.586	3516.02
727.773	3509.88
727.959	3624.56
728.145	3587.7
728.332	3497.59
728.518	3608.18
728.705	3579.51
728.891	3548.79
729.077	3583.6
729.264	3507.83
729.45	3507.83
729.636	3659.38
729.823	3452.53
730.009	3604.08
730.195	3497.59
730.382	3489.4
730.568	3542.64
730.754	3534.45
730.94	3358.33
731.126	3681.91
731.313	3610.23
731.499	3573.36
731.685	3511.93
731.871	3585.65
732.057	3524.21
732.243	3468.92
732.429	3497.59
732.615	3419.77
732.801	3589.75
732.987	3516.02
733.173	3475.06
733.359	3534.45
733.545	3470.97
733.731	3462.77
733.917	3516.02
734.103	3489.4
734.289	3468.92
734.475	3526.26
734.661	3446.39
734.847	3421.81
735.033	3337.85
735.219	3466.87
735.404	3370.62
735.59	3395.19
735.776	3384.95
735.962	3436.15
736.148	3479.16
736.333	3327.61
736.519	3425.91
736.705	3434.1
736.89	3278.46
737.076	3454.58
737.262	3212.92
737.447	3399.29
737.633	3159.67
737.819	3409.53
738.004	3391.09
738.19	3317.37
738.375	3327.61
738.561	3389.05
738.747	3364.47
738.932	3280.5
739.118	3325.56
739.303	3165.82
739.489	3217.02
739.674	3266.17
739.859	3200.63
740.045	3194.49
740.23	3178.11
740.416	3208.83
740.601	3208.83
740.786	3264.12
740.972	3178.11
741.157	3266.17
741.342	3110.52
741.528	3141.24
741.713	3210.87
741.898	3040.89
742.084	3135.1
742.269	3192.44
742.454	3169.91
742.639	3208.83
742.824	3153.53
743.01	2999.93
743.195	3262.07
743.38	3149.43
743.565	2883.2
743.75	3051.13
743.935	2944.64
744.12	2995.84
744.305	2856.58
744.49	2956.93
744.675	2973.31
744.86	2942.59
745.045	2905.73
745.23	2942.59
745.415	2905.73
745.6	2858.62
745.785	2946.69
745.97	2887.29
746.155	2778.75
746.34	2809.47
746.525	2801.28
746.71	2766.46
746.895	2922.11
747.079	2676.35
747.264	2778.75
747.449	2684.55
747.634	2698.88
747.819	2606.72
748.003	2479.75
748.188	2686.59
748.373	2569.86
748.557	2731.65
748.742	2481.8
748.927	2651.78
749.111	2514.56
749.296	2504.32
749.481	2584.2
749.665	2500.23
749.85	2428.55
750.034	2342.53
750.219	2442.89
750.404	2387.59
750.588	2344.58
750.773	2320.01
750.957	2428.55
751.141	2320.01
751.326	2326.15
751.51	2385.54
751.695	2233.99
751.879	2309.77
752.064	2356.87
752.248	2277
752.432	2238.09
752.617	2268.81
752.801	2289.29
752.985	2176.65
753.17	2242.18
753.354	2166.41
753.538	2199.18
753.722	2094.73
753.907	2021
754.091	1963.66
754.275	2047.63
754.459	2051.72
754.643	2133.64
754.828	1951.37
755.012	1926.8
755.196	2076.3
755.38	1988.24
755.564	1955.47
755.748	1996.43
755.932	1873.55
756.116	1896.08
756.3	1865.36
756.484	1961.61
756.668	1826.45
756.852	1824.4
757.036	1844.88
757.22	1744.53
757.404	1853.07
757.588	1836.69
757.772	1746.58
757.956	1697.42
758.14	1906.32
758.323	1814.16
758.507	1789.58
758.691	1744.53
758.875	1928.85
759.059	1709.71
759.242	1750.67
759.426	1588.88
759.61	1672.85
759.794	1668.75
759.977	1703.57
760.161	1750.67
760.345	1584.79
760.528	1638.03
760.712	1488.53
760.895	1619.6
761.079	1689.23
761.263	1576.59
761.446	1570.45
761.63	1625.75
761.813	1576.59
761.997	1535.64
762.18	1574.55
762.364	1584.79
762.547	1406.61
762.731	1580.69
762.914	1652.37
763.098	1519.25
763.281	1500.82
763.464	1420.95
763.648	1484.44
763.831	1480.34
764.015	1517.2
764.198	1599.12
764.381	1396.37
764.564	1521.3
764.748	1423
764.931	1490.58
765.114	1433.24
765.297	1367.7
765.481	1365.65
765.664	1379.99
765.847	1429.14
766.03	1425.04
766.213	1322.65
766.397	1453.72
766.58	1382.04
766.763	1410.71
766.946	1339.03
767.129	1414.81
767.312	1320.6
767.495	1224.34
767.678	1261.21
767.861	1289.88
768.044	1322.65
768.227	1259.16
768.41	1238.68
768.593	1171.1
768.776	1265.3
768.959	1238.68
769.142	1269.4
769.324	1167
769.507	1224.34
769.69	1377.94
769.873	1210.01
770.056	1328.79
770.239	1214.1
770.421	1273.5
770.604	1205.91
770.787	1169.05
770.97	1117.85
771.152	1232.54
771.335	1201.82
771.518	1134.23
771.7	1193.62
771.883	1144.47
772.066	1175.19
772.248	1123.99
772.431	1078.94
772.613	1117.85
772.796	1115.8
772.978	1105.56
773.161	1095.32
773.343	1058.46
773.526	1095.32
773.708	1019.55
773.891	1099.42
774.073	1078.94
774.256	1076.89
774.438	1113.75
774.621	1044.12
774.803	1056.41
774.985	1074.84
775.168	974.49
775.35	997.02
775.532	984.73
775.715	976.54
775.897	997.02
776.079	1005.21
776.261	868
776.444	906.91
776.626	964.25
776.808	954.01
776.99	923.29
777.173	964.25
777.355	904.86
777.537	951.96
777.719	927.39
777.901	933.53
778.083	939.68
778.265	841.37
778.447	882.33
778.629	921.24
778.811	947.87
778.993	872.09
779.175	872.09
779.357	863.9
779.539	923.29
779.721	808.61
779.903	773.79
780.085	720.54
780.267	763.55
780.449	767.65
780.631	722.59
780.812	779.93
780.994	841.37
781.176	736.93
781.358	792.22
781.54	773.79
781.721	822.94
781.903	759.46
782.085	745.12
782.267	681.63
782.448	747.17
782.63	751.26
782.812	734.88
782.993	781.98
783.175	726.69
783.357	579.23
783.538	689.82
783.72	693.92
783.901	601.76
784.083	669.34
784.264	648.86
784.446	652.96
784.627	708.26
784.809	591.52
784.99	566.95
785.172	595.62
785.353	667.3
785.535	695.97
785.716	593.57
785.897	593.57
786.079	548.51
786.26	585.38
786.441	583.33
786.623	603.81
786.804	628.39
786.985	593.57
787.167	528.03
787.348	607.91
787.529	583.33
787.71	491.17
787.891	556.71
788.073	460.45
788.254	564.9
788.435	595.62
788.616	542.37
788.797	485.03
788.978	501.41
789.159	489.12
789.34	542.37
789.522	546.47
789.703	530.08
789.884	497.32
790.065	530.08
790.246	489.12
790.427	478.88
790.607	505.51
790.788	521.89
790.969	378.53
791.15	554.66
791.331	519.84
791.512	345.77
791.693	495.27
791.874	513.7
792.054	446.12
792.235	493.22
792.416	464.55
792.597	429.73
792.778	464.55
792.958	464.55
793.139	448.16
793.32	468.64
793.5	413.35
793.681	329.38
793.862	439.97
794.042	368.29
794.223	390.82
794.404	444.07
794.584	448.16
794.765	384.68
794.945	460.45
795.126	480.93
795.306	456.36
795.487	337.57
795.667	431.78
795.848	407.2
796.028	356.01
796.209	388.77
796.389	464.55
796.57	378.53
796.75	358.05
796.93	337.57
797.111	368.29
797.291	392.87
797.471	374.44
797.652	366.25
797.832	382.63
798.012	386.72
798.192	401.06
798.373	325.29
798.553	360.1
798.733	405.16
798.913	323.24
799.093	403.11
799.274	374.44
799.454	360.1
799.634	376.48
799.814	407.2
799.994	261.8
800.174	308.9
800.354	335.53
800.534	343.72
800.714	331.43
800.894	317.09
801.074	347.81
801.254	300.71
801.434	222.89
801.614	329.38
801.794	286.37
801.974	767.65
802.154	257.7
802.334	353.96
802.514	210.6
802.693	251.56
802.873	255.65
803.053	333.48
803.233	290.47
803.413	329.38
803.592	265.89
803.772	288.42
803.952	272.04
804.131	286.37
804.311	356.01
804.491	353.96
804.67	308.9
804.85	218.79
805.03	290.47
805.209	296.61
805.389	280.23
805.568	282.28
805.748	241.32
805.928	274.09
806.107	317.09
806.287	224.94
806.466	286.37
806.646	218.79
806.825	224.94
807.004	313
807.184	251.56
807.363	249.51
807.543	251.56
807.722	235.18
807.901	210.6
808.081	347.81
808.26	259.75
808.439	208.55
808.619	210.6
808.798	216.74
808.977	267.94
809.156	245.41
809.336	247.46
809.515	237.22
809.694	218.79
809.873	235.18
810.052	220.84
810.231	218.79
810.411	272.04
810.59	247.46
810.769	241.32
810.948	237.22
811.127	206.5
811.306	171.69
811.485	198.31
811.664	183.98
811.843	190.12
812.022	208.55
812.201	198.31
812.38	224.94
812.559	167.59
812.737	226.98
812.916	222.89
813.095	224.94
813.274	194.22
813.453	192.17
813.632	235.18
813.811	138.92
813.989	153.26
814.168	235.18
814.347	198.31
814.526	190.12
814.704	194.22
814.883	280.23
815.062	143.02
815.24	173.74
815.419	183.98
815.598	202.41
815.776	206.5
815.955	206.5
816.133	175.78
816.312	231.08
816.49	200.36
816.669	110.25
816.847	167.59
817.026	235.18
817.204	235.18
817.383	169.64
817.561	216.74
817.74	73.39
817.918	206.5
818.097	136.87
818.275	145.06
818.453	202.41
818.632	175.78
818.81	204.46
818.988	100.01
819.167	190.12
819.345	239.27
819.523	212.65
819.701	206.5
819.879	210.6
820.058	136.87
820.236	173.74
820.414	220.84
820.592	118.44
820.77	143.02
820.948	183.98
821.127	157.35
821.305	194.22
821.483	120.49
821.661	196.26
821.839	153.26
822.017	177.83
822.195	104.11
822.373	145.06
822.551	132.78
822.729	149.16
822.907	159.4
823.085	118.44
823.262	140.97
823.44	198.31
823.618	89.77
823.796	130.73
823.974	165.54
824.152	169.64
824.329	102.06
824.507	192.17
824.685	145.06
824.863	132.78
825.04	73.39
825.218	128.68
825.396	89.77
825.574	136.87
825.751	104.11
825.929	108.2
826.107	69.29
826.284	136.87
826.462	102.06
826.639	83.63
826.817	167.59
826.994	171.69
827.172	46.76
827.349	122.54
827.527	122.54
827.704	81.58
827.882	147.11
828.059	79.53
828.237	79.53
828.414	165.54
828.591	145.06
828.769	134.82
828.946	198.31
829.124	75.43
829.301	214.7
829.478	132.78
829.655	138.92
829.833	77.48
830.01	91.82
830.187	95.91
830.364	65.19
830.542	145.06
830.719	149.16
830.896	52.91
831.073	159.4
831.25	120.49
831.427	145.06
831.604	140.97
831.782	136.87
831.959	83.63
832.136	87.72
832.313	77.48
832.49	112.3
832.667	116.39
832.844	136.87
833.021	175.78
833.198	-26.96
833.374	128.68
833.551	177.83
833.728	104.11
833.905	116.39
834.082	11.95
834.259	130.73
834.436	190.12
834.612	104.11
834.789	59.05
834.966	46.76
835.143	153.26
835.319	11.95
835.496	89.77
835.673	165.54
835.85	83.63
836.026	65.19
836.203	112.3
836.38	77.48
836.556	106.15
836.733	145.06
836.909	161.45
837.086	136.87
837.262	40.62
837.439	65.19
837.616	104.11
837.792	169.64
837.968	159.4
838.145	57
838.321	77.48
838.498	93.87
838.674	106.15
838.851	40.62
839.027	28.33
839.203	91.82
839.38	73.39
839.556	110.25
839.732	40.62
839.909	22.19
840.085	120.49
840.261	87.72
840.437	106.15
840.614	16.04
840.79	112.3
840.966	140.97
841.142	77.48
841.318	38.57
841.494	59.05
841.671	71.34
841.847	13.99
842.023	42.67
842.199	71.34
842.375	54.95
842.551	40.62
842.727	38.57
842.903	50.86
843.079	83.63
843.255	9.9
843.431	83.63
843.607	97.96
843.783	46.76
843.959	36.52
844.134	38.57
844.31	102.06
844.486	34.47
844.662	59.05
844.838	65.19
845.013	147.11
845.189	44.71
845.365	52.91
845.541	138.92
845.716	63.15
845.892	59.05
846.068	54.95
846.244	71.34
846.419	52.91
846.595	54.95
846.77	63.15
846.946	65.19
847.122	83.63
847.297	67.24
847.473	52.91
847.648	32.43
847.824	128.68
847.999	28.33
848.175	54.95
848.35	36.52
848.526	108.2
848.701	83.63
848.876	104.11
849.052	22.19
849.227	26.28
849.403	38.57
849.578	30.38
849.753	69.29
849.929	20.14
850.104	13.99
850.279	69.29
850.454	34.47
850.63	50.86
850.805	52.91
850.98	50.86
851.155	-0.34
851.33	18.09
851.505	46.76
851.681	67.24
851.856	-37.2
852.031	61.1
852.206	118.44
852.381	1.71
852.556	34.47
852.731	100.01
852.906	11.95
853.081	75.43
853.256	38.57
853.431	32.43
853.606	-20.82
853.781	18.09
853.956	-10.58
854.131	108.2
854.305	22.19
854.48	11.95
854.655	-51.54
854.83	11.95
855.005	-18.77
855.18	34.47
855.354	65.19
855.529	69.29
855.704	-31.06
855.879	40.62
856.053	67.24
856.228	75.43
856.403	-6.49
856.577	28.33
856.752	-18.77
856.926	22.19
857.101	24.23
857.276	-45.4
857.45	138.92
857.625	50.86
857.799	-6.49
857.974	16.04
858.148	11.95
858.323	20.14
858.497	1.71
858.672	34.47
858.846	71.34
859.02	40.62
859.195	54.95
859.369	28.33
859.543	44.71
859.718	-39.25
859.892	18.09
860.066	-31.06
860.241	-37.2
860.415	-6.49
860.589	18.09
860.763	-14.68
860.938	34.47
861.112	42.67
861.286	87.72
861.46	-18.77
861.634	67.24
861.808	-16.73
861.982	30.38
862.157	59.05
862.331	-37.2
862.505	44.71
862.679	5.8
862.853	18.09
863.027	32.43
863.201	9.9
863.375	13.99
863.549	81.58
863.722	32.43
863.896	46.76
864.07	-2.39
864.244	54.95
864.418	65.19
864.592	36.52
864.766	34.47
864.939	50.86
865.113	42.67
865.287	67.24
865.461	-2.39
865.634	50.86
865.808	13.99
865.982	77.48
866.156	16.04
866.329	3.75
866.503	-12.63
866.676	-35.16
866.85	50.86
867.024	-16.73
867.197	38.57
867.371	30.38
867.544	-22.87
867.718	-88.4
867.891	48.81
868.065	-88.4
868.238	38.57
868.412	-2.39
868.585	54.95
868.759	28.33
868.932	-2.39
869.105	-22.87
869.279	-22.87
869.452	-18.77
869.625	46.76
869.799	-24.92
869.972	48.81
870.145	44.71
870.319	73.39
870.492	13.99
870.665	30.38
870.838	-31.06
871.011	13.99
871.185	34.47
871.358	34.47
871.531	59.05
871.704	-6.49
871.877	40.62
872.05	-31.06
872.223	20.14
872.396	22.19
872.569	52.91
872.742	-43.35
872.915	20.14
873.088	63.15
873.261	-26.96
873.434	26.28
873.607	-14.68
873.78	18.09
873.953	11.95
874.126	16.04
874.299	-51.54
874.471	9.9
874.644	26.28
874.817	-0.34
874.99	79.53
875.163	77.48
875.335	36.52
875.508	54.95
875.681	42.67
875.853	1.71
876.026	22.19
876.199	13.99
876.371	61.1
876.544	-8.53
876.717	-39.25
876.889	-18.77
877.062	50.86
877.234	-0.34
877.407	24.23
877.579	-49.49
877.752	-26.96
877.924	69.29
878.097	-26.96
878.269	-4.44
878.442	77.48
878.614	89.77
878.786	34.47
878.959	26.28
879.131	-43.35
879.303	-45.4
879.476	44.71
879.648	40.62
879.82	-14.68
879.993	34.47
880.165	-59.73
880.337	13.99
880.509	-4.44
880.681	9.9
880.854	-16.73
881.026	50.86
881.198	106.15
881.37	18.09
881.542	36.52
881.714	-22.87
881.886	36.52
882.058	71.34
882.23	5.8
882.402	-4.44
882.574	7.85
882.746	65.19
882.918	20.14
883.09	-4.44
883.262	24.23
883.434	11.95
883.606	-0.34
883.778	24.23
883.95	102.06
884.122	-20.82
884.293	22.19
884.465	38.57
884.637	75.43
884.809	83.63
884.98	-26.96
885.152	11.95
885.324	52.91
885.496	-14.68
885.667	-8.53
885.839	26.28
886.011	79.53
886.182	11.95
886.354	7.85
886.525	75.43
886.697	63.15
886.869	1.71
887.04	-18.77
887.212	22.19
887.383	100.01
887.555	-16.73
887.726	18.09
887.897	-51.54
888.069	-35.16
888.24	-53.59
888.412	-18.77
888.583	-49.49
888.754	-20.82
888.926	-26.96
889.097	-10.58
889.268	65.19
889.44	3.75
889.611	-2.39
889.782	69.29
889.953	-63.83
890.125	32.43
890.296	3.75
890.467	-31.06
890.638	9.9
890.809	95.91
890.98	-80.21
891.151	61.1
891.323	106.15
891.494	1.71
891.665	22.19
891.836	22.19
892.007	-2.39
892.178	-8.53
892.349	7.85
892.52	28.33
892.691	-47.44
892.862	-57.68
893.032	-2.39
893.203	-2.39
893.374	24.23
893.545	28.33
893.716	-72.02
893.887	63.15
894.057	-115.03
894.228	26.28
894.399	9.9
894.57	-41.3
894.74	-16.73
894.911	-18.77
895.082	42.67
895.253	-0.34
895.423	-6.49
895.594	-16.73
895.764	87.72
895.935	-22.87
896.106	52.91
896.276	-22.87
896.447	48.81
896.617	32.43
896.788	18.09
896.958	-22.87
897.129	-24.92
897.299	-29.01
897.47	18.09
897.64	9.9
897.81	-26.96
897.981	-51.54
898.151	-26.96
898.322	7.85
898.492	-10.58
898.662	11.95
898.832	-49.49
899.003	44.71
899.173	7.85
899.343	61.1
899.513	-59.73
