Data from USB4F104151__228__10-30-16-771.txt Node

Date: Wed Mar 12 10:30:16 EDT 2025
User: louis
Spectrometer: USB4F10415
Trigger mode: 4
Integration Time (sec): 3.000000E-2
Scans to average: 1
Electric dark correction enabled: true
Nonlinearity correction enabled: false
Boxcar width: 0
XAxis mode: Wavelengths
Number of Pixels in Spectrum: 3648
>>>>>Begin Spectral Data<<<<<
178.204	-26.28
178.424	-26.28
178.644	-26.28
178.864	-77.48
179.084	-126.63
179.304	63.83
179.524	-9.9
179.744	-9.9
179.964	55.64
180.184	14.68
180.404	-7.85
180.624	-50.86
180.844	-3.75
181.064	-46.76
181.283	6.49
181.503	-30.38
181.723	18.77
181.943	-57
182.163	69.97
182.383	-1.71
182.602	33.11
182.822	53.59
183.042	92.5
183.262	-61.1
183.482	-16.04
183.701	37.2
183.921	29.01
184.141	78.16
184.361	49.49
184.58	65.88
184.8	74.07
185.02	6.49
185.239	63.83
185.459	-3.75
185.679	115.03
185.898	29.01
186.118	65.88
186.338	31.06
186.557	63.83
186.777	-24.23
186.997	-22.19
187.216	29.01
187.436	39.25
187.655	4.44
187.875	-5.8
188.095	22.87
188.314	59.73
188.534	14.68
188.753	24.92
188.973	47.44
189.192	69.97
189.412	51.54
189.631	26.96
189.851	41.3
190.07	80.21
190.29	4.44
190.509	-7.85
190.729	104.79
190.948	80.21
191.168	162.13
191.387	-26.28
191.607	16.73
191.826	-36.52
192.045	-34.47
192.265	49.49
192.484	-13.99
192.704	119.12
192.923	-63.15
193.142	96.6
193.362	59.73
193.581	31.06
193.8	39.25
194.02	-5.8
194.239	6.49
194.458	92.5
194.678	-52.91
194.897	41.3
195.116	2.39
195.335	20.82
195.555	43.35
195.774	82.26
195.993	18.77
196.212	45.4
196.432	12.63
196.651	78.16
196.87	137.56
197.089	104.79
197.308	102.74
197.528	74.07
197.747	72.02
197.966	24.92
198.185	49.49
198.404	63.83
198.623	33.11
198.842	43.35
199.062	43.35
199.281	84.31
199.5	22.87
199.719	59.73
199.938	43.35
200.157	37.2
200.376	74.07
200.595	131.41
200.814	-13.99
201.033	-65.19
201.252	41.3
201.471	20.82
201.69	53.59
201.909	63.83
202.128	86.36
202.347	117.08
202.566	26.96
202.785	31.06
203.004	92.5
203.223	72.02
203.442	72.02
203.661	22.87
203.879	31.06
204.098	-34.47
204.317	10.58
204.536	49.49
204.755	55.64
204.974	69.97
205.193	-28.33
205.411	63.83
205.63	55.64
205.849	78.16
206.068	-18.09
206.287	14.68
206.505	37.2
206.724	-5.8
206.943	43.35
207.162	-9.9
207.381	-3.75
207.599	65.88
207.818	51.54
208.037	59.73
208.255	67.92
208.474	51.54
208.693	47.44
208.911	24.92
209.13	61.78
209.349	41.3
209.567	86.36
209.786	31.06
210.005	37.2
210.223	90.45
210.442	-26.28
210.661	96.6
210.879	12.63
211.098	2.39
211.316	16.73
211.535	72.02
211.753	55.64
211.972	18.77
212.191	22.87
212.409	133.46
212.628	22.87
212.846	76.12
213.065	51.54
213.283	47.44
213.502	-7.85
213.72	51.54
213.938	51.54
214.157	-11.95
214.375	53.59
214.594	-7.85
214.812	37.2
215.031	20.82
215.249	22.87
215.467	-63.15
215.686	24.92
215.904	100.69
216.122	-13.99
216.341	22.87
216.559	35.16
216.778	49.49
216.996	94.55
217.214	-36.52
217.432	18.77
217.651	-5.8
217.869	20.82
218.087	35.16
218.306	49.49
218.524	84.31
218.742	45.4
218.96	108.88
219.179	37.2
219.397	47.44
219.615	80.21
219.833	33.11
220.051	63.83
220.27	55.64
220.488	100.69
220.706	51.54
220.924	80.21
221.142	61.78
221.36	-13.99
221.578	49.49
221.796	31.06
222.015	31.06
222.233	67.92
222.451	98.64
222.669	-11.95
222.887	76.12
223.105	-26.28
223.323	12.63
223.541	14.68
223.759	26.96
223.977	12.63
224.195	86.36
224.413	80.21
224.631	72.02
224.849	65.88
225.067	78.16
225.285	4.44
225.503	104.79
225.721	72.02
225.939	-5.8
226.157	37.2
226.375	90.45
226.592	-5.8
226.81	35.16
227.028	47.44
227.246	117.08
227.464	18.77
227.682	94.55
227.9	41.3
228.117	63.83
228.335	57.68
228.553	22.87
228.771	-22.19
228.989	59.73
229.206	29.01
229.424	65.88
229.642	-30.38
229.86	59.73
230.077	37.2
230.295	41.3
230.513	145.75
230.731	37.2
230.948	39.25
231.166	41.3
231.384	31.06
231.601	22.87
231.819	16.73
232.037	53.59
232.254	12.63
232.472	117.08
232.689	49.49
232.907	72.02
233.125	102.74
233.342	2.39
233.56	-1.71
233.777	43.35
233.995	59.73
234.213	35.16
234.43	72.02
234.648	-38.57
234.865	26.96
235.083	82.26
235.3	80.21
235.518	14.68
235.735	121.17
235.953	31.06
236.17	-38.57
236.388	57.68
236.605	82.26
236.822	92.5
237.04	61.78
237.257	22.87
237.475	-1.71
237.692	102.74
237.909	-9.9
238.127	41.3
238.344	-13.99
238.562	51.54
238.779	-44.71
238.996	37.2
239.214	-1.71
239.431	98.64
239.648	31.06
239.865	86.36
240.083	35.16
240.3	90.45
240.517	10.58
240.735	92.5
240.952	65.88
241.169	45.4
241.386	26.96
241.603	-11.95
241.821	2.39
242.038	41.3
242.255	96.6
242.472	-11.95
242.689	43.35
242.907	121.17
243.124	37.2
243.341	63.83
243.558	-34.47
243.775	8.53
243.992	-28.33
244.209	63.83
244.426	125.27
244.643	59.73
244.86	47.44
245.078	2.39
245.295	41.3
245.512	47.44
245.729	12.63
245.946	74.07
246.163	22.87
246.38	-7.85
246.597	37.2
246.814	18.77
247.031	31.06
247.248	57.68
247.464	57.68
247.681	59.73
247.898	6.49
248.115	84.31
248.332	-1.71
248.549	63.83
248.766	12.63
248.983	112.98
249.2	10.58
249.417	104.79
249.633	-48.81
249.85	20.82
250.067	-18.09
250.284	37.2
250.501	53.59
250.717	65.88
250.934	-1.71
251.151	2.39
251.368	33.11
251.585	10.58
251.801	26.96
252.018	76.12
252.235	39.25
252.451	-30.38
252.668	4.44
252.885	65.88
253.102	67.92
253.318	82.26
253.535	20.82
253.752	20.82
253.968	26.96
254.185	96.6
254.401	22.87
254.618	80.21
254.835	18.77
255.051	18.77
255.268	-1.71
255.484	39.25
255.701	-57
255.917	80.21
256.134	121.17
256.351	22.87
256.567	20.82
256.784	63.83
257	59.73
257.217	35.16
257.433	26.96
257.65	0.34
257.866	6.49
258.082	-11.95
258.299	-42.67
258.515	80.21
258.732	69.97
258.948	49.49
259.165	33.11
259.381	55.64
259.597	121.17
259.814	86.36
260.03	-1.71
260.246	84.31
260.463	69.97
260.679	35.16
260.895	0.34
261.112	39.25
261.328	31.06
261.544	-9.9
261.761	102.74
261.977	4.44
262.193	35.16
262.409	-7.85
262.626	20.82
262.842	53.59
263.058	41.3
263.274	53.59
263.49	72.02
263.707	49.49
263.923	104.79
264.139	2.39
264.355	29.01
264.571	29.01
264.787	65.88
265.004	22.87
265.22	18.77
265.436	53.59
265.652	6.49
265.868	20.82
266.084	47.44
266.3	29.01
266.516	31.06
266.732	10.58
266.948	55.64
267.164	41.3
267.38	55.64
267.596	63.83
267.812	39.25
268.028	2.39
268.244	6.49
268.46	26.96
268.676	47.44
268.892	82.26
269.108	-9.9
269.324	-67.24
269.54	90.45
269.756	125.27
269.972	20.82
270.188	74.07
270.403	2.39
270.619	39.25
270.835	14.68
271.051	-5.8
271.267	6.49
271.483	37.2
271.698	61.78
271.914	14.68
272.13	39.25
272.346	39.25
272.562	-46.76
272.777	65.88
272.993	22.87
273.209	22.87
273.425	-34.47
273.64	47.44
273.856	72.02
274.072	31.06
274.287	39.25
274.503	8.53
274.719	29.01
274.934	8.53
275.15	90.45
275.366	18.77
275.581	47.44
275.797	12.63
276.012	31.06
276.228	78.16
276.444	63.83
276.659	0.34
276.875	16.73
277.09	16.73
277.306	55.64
277.521	57.68
277.737	43.35
277.952	88.4
278.168	26.96
278.383	43.35
278.599	6.49
278.814	41.3
279.03	86.36
279.245	57.68
279.461	74.07
279.676	-1.71
279.892	4.44
280.107	76.12
280.322	-20.14
280.538	18.77
280.753	61.78
280.969	39.25
281.184	37.2
281.399	53.59
281.615	20.82
281.83	63.83
282.045	4.44
282.26	10.58
282.476	94.55
282.691	100.69
282.906	49.49
283.122	84.31
283.337	33.11
283.552	61.78
283.767	53.59
283.983	59.73
284.198	100.69
284.413	158.03
284.628	31.06
284.843	39.25
285.058	14.68
285.274	4.44
285.489	-34.47
285.704	61.78
285.919	59.73
286.134	-9.9
286.349	-28.33
286.564	49.49
286.779	22.87
286.995	78.16
287.21	-30.38
287.425	90.45
287.64	-34.47
287.855	31.06
288.07	-7.85
288.285	110.93
288.5	88.4
288.715	59.73
288.93	20.82
289.145	16.73
289.36	137.56
289.575	51.54
289.79	108.88
290.004	69.97
290.219	78.16
290.434	76.12
290.649	33.11
290.864	31.06
291.079	2.39
291.294	104.79
291.509	53.59
291.724	22.87
291.938	12.63
292.153	37.2
292.368	76.12
292.583	80.21
292.798	119.12
293.012	67.92
293.227	26.96
293.442	24.92
293.657	72.02
293.871	26.96
294.086	84.31
294.301	100.69
294.516	182.61
294.73	12.63
294.945	18.77
295.16	26.96
295.374	149.84
295.589	82.26
295.804	-9.9
296.018	37.2
296.233	82.26
296.447	41.3
296.662	53.59
296.877	74.07
297.091	53.59
297.306	92.5
297.52	29.01
297.735	22.87
297.949	29.01
298.164	100.69
298.378	78.16
298.593	43.35
298.807	94.55
299.022	-7.85
299.236	90.45
299.451	31.06
299.665	41.3
299.88	-22.19
300.094	100.69
300.309	90.45
300.523	76.12
300.737	49.49
300.952	106.84
301.166	22.87
301.381	31.06
301.595	94.55
301.809	16.73
302.024	43.35
302.238	-1.71
302.452	86.36
302.667	98.64
302.881	22.87
303.095	55.64
303.309	14.68
303.524	12.63
303.738	-16.04
303.952	18.77
304.166	22.87
304.381	8.53
304.595	10.58
304.809	45.4
305.023	41.3
305.237	47.44
305.452	69.97
305.666	57.68
305.88	53.59
306.094	45.4
306.308	35.16
306.522	98.64
306.736	76.12
306.95	33.11
307.164	37.2
307.379	-1.71
307.593	26.96
307.807	39.25
308.021	76.12
308.235	76.12
308.449	18.77
308.663	-48.81
308.877	63.83
309.091	22.87
309.305	104.79
309.519	-18.09
309.733	31.06
309.947	29.01
310.161	20.82
310.374	35.16
310.588	84.31
310.802	12.63
311.016	18.77
311.23	-54.95
311.444	-128.68
311.658	76.12
311.872	14.68
312.085	65.88
312.299	63.83
312.513	61.78
312.727	98.64
312.941	-1.71
313.154	135.51
313.368	96.6
313.582	76.12
313.796	12.63
314.009	33.11
314.223	-32.43
314.437	6.49
314.651	22.87
314.864	84.31
315.078	41.3
315.292	147.8
315.505	31.06
315.719	121.17
315.933	51.54
316.146	26.96
316.36	24.92
316.573	119.12
316.787	72.02
317.001	61.78
317.214	37.2
317.428	18.77
317.641	10.58
317.855	26.96
318.068	45.4
318.282	33.11
318.495	67.92
318.709	78.16
318.922	6.49
319.136	72.02
319.349	100.69
319.563	-16.04
319.776	39.25
319.99	6.49
320.203	90.45
320.417	4.44
320.63	31.06
320.843	51.54
321.057	78.16
321.27	84.31
321.483	-9.9
321.697	90.45
321.91	145.75
322.124	102.74
322.337	100.69
322.55	51.54
322.763	55.64
322.977	45.4
323.19	47.44
323.403	104.79
323.617	59.73
323.83	80.21
324.043	-1.71
324.256	67.92
324.469	22.87
324.683	76.12
324.896	-16.04
325.109	49.49
325.322	29.01
325.535	80.21
325.748	47.44
325.962	-1.71
326.175	14.68
326.388	22.87
326.601	55.64
326.814	-54.95
327.027	26.96
327.24	37.2
327.453	-50.86
327.666	100.69
327.879	88.4
328.092	-1.71
328.305	67.92
328.518	-9.9
328.731	72.02
328.944	-34.47
329.157	33.11
329.37	59.73
329.583	57.68
329.796	76.12
330.009	80.21
330.222	78.16
330.435	47.44
330.648	57.68
330.861	29.01
331.073	67.92
331.286	133.46
331.499	-26.28
331.712	22.87
331.925	45.4
332.138	43.35
332.35	151.89
332.563	-34.47
332.776	29.01
332.989	26.96
333.202	10.58
333.414	90.45
333.627	88.4
333.84	10.58
334.053	133.46
334.265	55.64
334.478	14.68
334.691	37.2
334.903	76.12
335.116	39.25
335.329	6.49
335.541	16.73
335.754	160.08
335.966	47.44
336.179	-3.75
336.392	47.44
336.604	47.44
336.817	51.54
337.029	43.35
337.242	104.79
337.454	143.7
337.667	29.01
337.88	-22.19
338.092	45.4
338.305	74.07
338.517	29.01
338.729	65.88
338.942	80.21
339.154	35.16
339.367	49.49
339.579	57.68
339.792	20.82
340.004	26.96
340.217	18.77
340.429	100.69
340.641	69.97
340.854	39.25
341.066	78.16
341.278	67.92
341.491	145.75
341.703	88.4
341.915	35.16
342.128	74.07
342.34	86.36
342.552	61.78
342.764	65.88
342.977	76.12
343.189	37.2
343.401	153.94
343.613	29.01
343.826	94.55
344.038	47.44
344.25	80.21
344.462	20.82
344.674	-13.99
344.886	65.88
345.099	131.41
345.311	18.77
345.523	63.83
345.735	6.49
345.947	100.69
346.159	47.44
346.371	67.92
346.583	43.35
346.795	80.21
347.007	31.06
347.219	31.06
347.431	55.64
347.643	131.41
347.855	47.44
348.067	39.25
348.279	39.25
348.491	96.6
348.703	29.01
348.915	108.88
349.127	-7.85
349.339	94.55
349.551	53.59
349.763	4.44
349.975	65.88
350.187	94.55
350.399	108.88
350.61	61.78
350.822	72.02
351.034	78.16
351.246	67.92
351.458	100.69
351.669	20.82
351.881	74.07
352.093	104.79
352.305	47.44
352.517	33.11
352.728	59.73
352.94	14.68
353.152	102.74
353.363	41.3
353.575	16.73
353.787	104.79
353.999	65.88
354.21	84.31
354.422	47.44
354.633	104.79
354.845	39.25
355.057	100.69
355.268	72.02
355.48	37.2
355.692	33.11
355.903	31.06
356.115	12.63
356.326	74.07
356.538	55.64
356.749	96.6
356.961	100.69
357.172	43.35
357.384	22.87
357.595	153.94
357.807	2.39
358.018	88.4
358.23	35.16
358.441	67.92
358.653	94.55
358.864	31.06
359.075	47.44
359.287	102.74
359.498	94.55
359.709	86.36
359.921	127.32
360.132	84.31
360.344	35.16
360.555	84.31
360.766	61.78
360.977	92.5
361.189	90.45
361.4	45.4
361.611	86.36
361.823	121.17
362.034	72.02
362.245	112.98
362.456	63.83
362.667	127.32
362.879	104.79
363.09	76.12
363.301	80.21
363.512	51.54
363.723	35.16
363.935	45.4
364.146	94.55
364.357	88.4
364.568	47.44
364.779	22.87
364.99	67.92
365.201	33.11
365.412	67.92
365.623	8.53
365.834	-13.99
366.045	0.34
366.256	33.11
366.467	131.41
366.678	80.21
366.889	92.5
367.1	100.69
367.311	112.98
367.522	-24.23
367.733	108.88
367.944	45.4
368.155	-38.57
368.366	100.69
368.577	94.55
368.788	65.88
368.999	86.36
369.209	43.35
369.42	96.6
369.631	112.98
369.842	74.07
370.053	57.68
370.264	170.32
370.474	74.07
370.685	131.41
370.896	55.64
371.107	145.75
371.317	98.64
371.528	67.92
371.739	102.74
371.95	59.73
372.16	84.31
372.371	37.2
372.582	76.12
372.792	55.64
373.003	22.87
373.214	-7.85
373.424	53.59
373.635	-26.28
373.846	115.03
374.056	96.6
374.267	59.73
374.477	31.06
374.688	63.83
374.898	18.77
375.109	74.07
375.319	-11.95
375.53	59.73
375.74	102.74
375.951	43.35
376.161	16.73
376.372	72.02
376.582	22.87
376.793	6.49
377.003	59.73
377.214	41.3
377.424	47.44
377.635	16.73
377.845	133.46
378.055	147.8
378.266	-57
378.476	86.36
378.686	69.97
378.897	115.03
379.107	51.54
379.317	74.07
379.528	72.02
379.738	78.16
379.948	12.63
380.158	92.5
380.369	29.01
380.579	59.73
380.789	98.64
380.999	158.03
381.21	51.54
381.42	168.27
381.63	31.06
381.84	67.92
382.05	92.5
382.261	-34.47
382.471	72.02
382.681	55.64
382.891	106.84
383.101	98.64
383.311	59.73
383.521	98.64
383.731	121.17
383.941	129.36
384.151	90.45
384.361	110.93
384.571	41.3
384.781	115.03
384.991	160.08
385.201	55.64
385.411	80.21
385.621	43.35
385.831	24.92
386.041	47.44
386.251	39.25
386.461	61.78
386.671	94.55
386.881	158.03
387.091	26.96
387.301	86.36
387.511	80.21
387.72	153.94
387.93	115.03
388.14	86.36
388.35	67.92
388.56	153.94
388.769	55.64
388.979	63.83
389.189	45.4
389.399	63.83
389.609	104.79
389.818	133.46
390.028	96.6
390.238	141.65
390.447	135.51
390.657	135.51
390.867	0.34
391.076	37.2
391.286	100.69
391.496	82.26
391.705	51.54
391.915	63.83
392.125	20.82
392.334	104.79
392.544	102.74
392.753	74.07
392.963	84.31
393.172	108.88
393.382	-30.38
393.591	100.69
393.801	92.5
394.01	123.22
394.22	88.4
394.429	53.59
394.639	55.64
394.848	151.89
395.058	84.31
395.267	53.59
395.477	141.65
395.686	145.75
395.895	102.74
396.105	117.08
396.314	131.41
396.524	117.08
396.733	72.02
396.942	194.9
397.152	121.17
397.361	129.36
397.57	129.36
397.78	174.42
397.989	96.6
398.198	88.4
398.407	65.88
398.617	125.27
398.826	94.55
399.035	158.03
399.244	110.93
399.453	180.56
399.663	143.7
399.872	151.89
400.081	108.88
400.29	244.05
400.499	90.45
400.708	80.21
400.917	137.56
401.127	61.78
401.336	51.54
401.545	256.34
401.754	170.32
401.963	168.27
402.172	213.33
402.381	219.47
402.59	186.71
402.799	135.51
403.008	147.8
403.217	190.8
403.426	223.57
403.635	63.83
403.844	162.13
404.053	121.17
404.262	168.27
404.471	217.43
404.68	143.7
404.888	180.56
405.097	190.8
405.306	129.36
405.515	256.34
405.724	184.66
405.933	291.15
406.142	188.75
406.35	248.15
406.559	158.03
406.768	207.19
406.977	262.48
407.185	211.28
407.394	248.15
407.603	248.15
407.812	262.48
408.02	258.39
408.229	334.16
408.438	305.49
408.646	262.48
408.855	317.78
409.064	354.64
409.272	307.54
409.481	360.78
409.69	264.53
409.898	309.58
410.107	498
410.315	342.35
410.524	356.69
410.733	440.65
410.941	416.08
411.15	387.41
411.358	448.85
411.567	637.26
411.775	432.46
411.984	491.85
412.192	502.09
412.401	547.15
412.609	575.82
412.818	532.81
413.026	627.02
413.234	667.98
413.443	753.99
413.651	678.22
413.86	643.4
414.068	756.04
414.276	713.03
414.485	723.27
414.693	725.32
414.901	825.67
415.11	821.58
415.318	819.53
415.526	837.96
415.734	973.13
415.943	981.32
416.151	1003.85
416.359	1075.52
416.567	932.17
416.776	1020.23
416.984	1163.59
417.192	1231.17
417.4	1132.87
417.608	1163.59
417.817	1231.17
418.025	1323.33
418.233	1313.09
418.441	1341.76
418.649	1321.28
418.857	1546.56
419.065	1472.83
419.273	1552.7
419.481	1624.38
419.689	1694.01
419.897	1790.27
420.105	1915.19
420.313	1886.52
420.521	1833.27
420.729	1950.01
420.937	2025.78
421.145	1964.34
421.353	2234.68
421.561	2185.52
421.769	2365.75
421.977	2320.69
422.185	2439.47
422.393	2580.78
422.601	2742.57
422.809	2666.8
423.017	2611.5
423.224	2801.96
423.432	2795.82
423.64	2885.93
423.848	3174.69
424.056	3111.21
424.263	3289.38
424.471	3328.29
424.679	3410.21
424.887	3653.92
425.094	3645.73
425.302	3696.92
425.51	3905.82
425.718	3997.98
425.925	4038.94
426.133	4256.02
426.341	4466.96
426.548	4546.83
426.756	4626.7
426.964	4565.26
427.171	4933.9
427.379	5089.54
427.586	5130.5
427.794	5249.29
428.001	5550.34
428.209	5814.52
428.417	5554.43
428.624	6091
428.832	6084.86
429.039	6185.21
429.247	6174.97
429.454	6666.48
429.662	7123.18
429.869	6574.32
430.076	7108.84
430.284	6867.18
430.491	7260.39
430.699	7469.28
430.906	7735.52
431.114	7481.57
431.321	8020.19
431.528	7960.8
431.736	8607.95
431.943	8982.73
432.15	8810.7
432.358	8814.8
432.565	9322.7
432.772	9210.06
432.979	9881.79
433.187	9971.9
433.394	10057.92
433.601	10746.03
433.808	10545.33
434.016	10643.63
434.223	11075.76
434.43	11792.55
434.637	11520.17
434.844	12312.73
435.052	12726.42
435.259	12466.33
435.466	12527.77
435.673	12322.97
435.88	13269.13
436.087	13916.29
436.294	13854.85
436.501	13453.45
436.708	13934.72
436.915	14344.31
437.122	14880.88
437.329	14903.41
437.537	15661.16
437.743	15603.82
437.95	15517.8
438.157	16322.65
438.364	16887.89
438.571	16697.43
438.778	16771.16
438.985	18614.33
439.192	17668.17
439.399	18223.17
439.606	17737.8
439.813	18980.92
440.02	20291.62
440.227	19611.69
440.433	19470.38
440.64	20107.3
440.847	19986.47
441.054	20330.53
441.261	21667.85
441.467	21663.75
441.674	22173.7
441.881	22571
442.088	22484.99
442.294	22628.35
442.501	23269.36
442.708	23543.79
442.914	24639.45
443.121	25425.87
443.328	25067.48
443.534	26466.24
443.741	25683.92
443.948	25399.25
444.154	27125.69
444.361	27080.63
444.568	27152.31
444.774	27209.65
444.981	27869.1
445.187	28358.56
445.394	29497.24
445.6	29474.71
445.807	31958.89
446.013	30635.91
446.22	31074.17
446.426	32237.42
446.633	32468.84
446.839	33544.02
447.046	32571.24
447.252	33648.47
447.459	33597.27
447.665	33906.51
447.871	35422.01
448.078	36851.49
448.284	35100.48
448.491	36073.26
448.697	37443.35
448.903	38037.26
449.11	38010.64
449.316	37068.58
449.522	38143.76
449.728	38989.57
449.935	39216.89
450.141	39114.5
450.347	40079.09
450.553	38571.78
450.76	39493.37
450.966	40273.65
451.172	40021.75
451.378	40828.65
451.584	40341.23
451.791	41242.34
451.997	40988.39
452.203	41524.96
452.409	41500.38
452.615	41553.63
452.821	39948.02
453.027	39497.47
453.233	41406.17
453.44	39771.89
453.646	40111.86
453.852	40335.09
454.058	41121.51
454.264	39608.06
454.47	40543.98
454.676	39612.15
454.882	40513.26
455.088	37093.15
455.294	37846.8
455.5	38323.98
455.705	38334.22
455.911	36880.16
456.117	36593.45
456.323	36030.26
456.529	33824.59
456.735	35440.44
456.941	34301.77
457.147	33736.53
457.352	32968.54
457.558	32681.83
457.764	32868.19
457.97	31967.09
458.176	31195
458.381	31401.85
458.587	29872.01
458.793	29685.65
458.999	28469.15
459.204	30232.46
459.41	29497.24
459.616	27277.24
459.821	27615.15
460.027	27432.88
460.233	26984.38
460.438	25642.96
460.644	25634.77
460.85	24836.06
461.055	24455.14
461.261	24043.49
461.466	22497.28
461.672	21843.98
461.878	23269.36
462.083	21708.81
462.289	21614.6
462.494	21266.45
462.7	20170.79
462.905	19640.36
463.111	20299.81
463.316	20471.84
463.522	20121.63
463.727	20181.03
463.932	19763.24
464.138	19824.68
464.343	19957.8
464.549	19341.36
464.754	19828.77
464.959	19820.58
465.165	19386.41
465.37	18632.76
465.575	18405.44
465.781	19314.73
465.986	19107.89
466.191	18364.48
466.397	18323.52
466.602	17471.56
466.807	18049.09
467.012	17866.82
467.218	17909.83
467.423	17858.63
467.628	17920.07
467.833	18643
468.038	17934.4
468.244	17039.44
468.449	18190.4
468.654	17416.27
468.859	17320.01
469.064	17260.62
469.269	16642.14
469.474	16470.11
469.679	17131.6
469.885	16281.69
470.09	16697.43
470.295	16502.87
470.5	16158.81
470.705	16173.15
470.91	16017.5
471.115	15630.44
471.32	16025.7
471.525	15657.06
471.73	15505.51
471.935	15284.33
472.139	14735.48
472.344	15065.2
472.549	15108.21
472.754	14753.91
472.959	14395.51
473.164	14207.1
473.369	13934.72
473.574	14700.66
473.778	14178.43
473.983	13983.87
474.188	14231.68
474.393	13738.12
474.598	13633.67
474.802	13533.32
475.007	13463.69
475.212	13396.1
475.417	13074.57
475.621	12855.44
475.826	12800.15
476.031	12806.29
476.235	12492.95
476.44	12552.34
476.645	12445.85
476.849	12507.29
477.054	12339.35
477.259	12050.59
477.463	12200.09
477.668	11788.45
477.872	11999.39
478.077	11606.18
478.282	11624.61
478.486	11352.23
478.691	11356.33
478.895	11215.02
479.1	11366.57
479.304	11233.45
479.509	10965.17
479.713	11137.2
479.918	10866.86
480.122	10623.16
480.326	10983.6
480.531	10690.74
480.735	10700.98
480.94	10772.66
481.144	11112.62
481.348	10524.85
481.553	10750.13
481.757	10391.73
481.961	10647.73
482.166	10729.65
482.37	10590.39
482.574	10328.25
482.778	10430.65
482.983	10780.85
483.187	10713.27
483.391	10451.13
483.595	10487.99
483.8	10387.64
484.004	10475.7
484.208	10686.64
484.412	10473.65
484.616	10625.2
484.821	10547.38
485.025	10318.01
485.229	10535.09
485.433	10512.56
485.637	10600.63
485.841	10277.05
486.045	10393.78
486.249	10438.84
486.453	10514.61
486.657	10408.12
486.861	10531
487.065	10373.3
487.269	10483.89
487.473	10098.88
487.677	10510.52
487.881	10709.17
488.085	10485.94
488.289	10621.11
488.493	10434.74
488.697	10666.16
488.901	10711.22
489.105	10449.08
489.309	10569.91
489.512	10803.38
489.716	10596.53
489.92	10500.28
490.124	10692.79
490.328	10639.54
490.531	10668.21
490.735	10705.07
490.939	10838.19
491.143	10801.33
491.346	10774.7
491.55	10952.88
491.754	10901.68
491.958	10959.02
492.161	11045.04
492.365	11088.04
492.569	10987.69
492.772	11065.52
492.976	11258.03
493.18	11409.58
493.383	11221.16
493.587	11493.54
493.79	11606.18
493.994	11495.59
494.197	11712.67
494.401	11634.85
494.605	11534.5
494.808	11843.74
495.012	11774.11
495.215	11976.86
495.419	12265.63
495.622	11970.72
495.825	12056.73
496.029	12177.56
496.232	12533.91
496.436	12443.8
496.639	12886.16
496.843	12798.1
497.046	12994.7
497.249	13154.44
497.453	13088.91
497.656	13254.8
497.859	13439.11
498.063	13414.54
498.266	13678.72
498.469	13881.47
498.673	13926.53
498.876	14155.9
499.079	14196.86
499.282	14436.47
499.485	14348.41
499.689	14870.64
499.892	14749.81
500.095	14831.73
500.298	15175.79
500.501	15161.45
500.705	15532.14
500.908	15593.58
501.111	15939.68
501.314	15870.05
501.517	16150.62
501.72	16349.28
501.923	16504.92
502.126	16631.9
502.329	17283.15
502.532	17033.3
502.735	17201.23
502.938	17506.38
503.141	17365.07
503.344	18012.23
503.547	17952.84
503.75	18167.87
503.953	18262.08
504.156	18493.5
504.359	18913.33
504.562	18716.73
504.765	19189.81
504.968	19286.06
505.17	19568.68
505.373	19660.84
505.576	19994.66
505.779	20195.36
505.982	20432.93
506.185	20512.8
506.387	20688.92
506.59	20865.05
506.793	21405.71
506.996	21340.18
507.198	22056.96
507.401	21944.33
507.604	22009.86
507.807	22323.2
508.009	22628.35
508.212	22636.54
508.415	22929.4
508.617	23220.21
508.82	23435.25
509.022	23599.09
509.225	24066.02
509.428	23969.77
509.63	24188.9
509.833	24520.67
510.035	25057.24
510.238	25159.64
510.44	25319.38
510.643	25817.04
510.845	25692.11
511.048	25731.02
511.25	26208.2
511.453	26644.41
511.655	27551.66
511.858	26920.89
512.06	27029.43
512.262	27592.62
512.465	27586.48
512.667	28104.62
512.87	28323.75
513.072	28518.31
513.274	28891.04
513.477	29226.9
513.679	29380.5
513.881	29831.05
514.084	30011.28
514.286	30195.59
514.488	30427.01
514.69	30926.72
514.893	31524.72
515.095	31375.22
515.297	31647.6
515.499	31692.66
515.701	32145.26
515.904	32614.24
516.106	32655.2
516.308	33019.74
516.51	33386.33
516.712	33451.86
516.914	33734.48
517.116	34572.1
517.318	34436.94
517.52	34570.05
517.722	34930.5
517.925	35426.1
518.127	35643.19
518.329	36124.46
518.531	35989.3
518.733	36661.03
518.935	37089.06
519.136	37142.3
519.338	37601.05
519.54	37568.28
519.742	38074.13
519.944	38135.57
520.146	38883.08
520.348	38909.7
520.55	39010.05
520.752	39501.56
520.954	40027.89
521.155	39847.67
521.357	40107.76
521.559	40881.89
521.761	41357.02
521.963	40855.27
522.164	41293.54
522.366	41682.65
522.568	42284.75
522.77	42165.97
522.971	42704.59
523.173	42624.71
523.375	43310.78
523.576	43095.75
523.778	42983.11
523.98	43914.94
524.181	44508.85
524.383	44109.49
524.584	44838.57
524.786	44510.89
524.988	44285.62
525.189	44619.44
525.391	45614.75
525.592	45545.12
525.794	46079.64
525.995	45874.84
526.197	45786.78
526.398	45950.62
526.6	46710.41
526.801	46612.11
527.003	47152.77
527.204	46837.39
527.406	47265.41
527.607	47357.57
527.808	47879.8
528.01	46962.31
528.211	47423.11
528.412	48711.28
528.614	48062.07
528.815	48146.04
529.016	48459.38
529.218	48469.62
529.419	48627.31
529.62	48457.33
529.822	48049.78
530.023	48680.56
530.224	49249.89
530.425	49004.14
530.626	48799.34
530.828	48201.33
531.029	49725.02
531.23	48866.92
531.431	49198.69
531.632	49213.03
531.833	49628.77
532.035	49192.55
532.236	49657.44
532.437	49593.95
532.638	49614.43
532.839	49643.1
533.04	50280.02
533.241	49884.76
533.442	50519.63
533.643	50230.87
533.844	50011.74
534.045	49946.2
534.246	49778.27
534.447	50706
534.648	49929.82
534.849	50234.97
535.05	49835.61
535.251	50277.97
535.451	50216.54
535.652	50495.06
535.853	50265.69
536.054	50509.39
536.255	50390.61
536.456	50120.28
536.657	51152.46
536.857	50495.06
537.058	50597.46
537.259	50505.3
537.46	50939.47
537.66	50167.38
537.861	50306.65
538.062	50320.98
538.263	50640.46
538.463	50372.18
538.664	50734.67
538.865	50263.64
539.065	50822.73
539.266	50089.56
539.466	51166.79
539.667	50462.29
539.868	50906.7
540.068	50761.29
540.269	50552.4
540.469	50939.47
540.67	50427.48
540.87	50122.33
541.071	50314.84
541.271	50519.63
541.472	50529.87
541.672	49792.61
541.873	50378.32
542.073	49725.02
542.274	50908.75
542.474	50732.62
542.675	50247.25
542.875	50706
543.075	50273.88
543.276	49722.97
543.476	50832.97
543.676	50159.19
543.877	50671.18
544.077	50703.95
544.277	50390.61
544.478	49997.4
544.678	50603.6
544.878	50175.58
545.078	50597.46
545.279	50323.03
545.479	49827.42
545.679	50366.04
545.879	50402.9
546.079	50204.25
546.28	50540.11
546.48	49669.73
546.68	50196.06
546.88	50665.04
547.08	50249.3
547.28	50095.7
547.48	49538.66
547.68	50183.77
547.88	50019.93
548.081	50191.96
548.281	50290.26
548.481	50019.93
548.681	50478.68
548.881	50064.99
549.081	49995.35
549.28	50040.41
549.48	50269.78
549.68	49954.4
549.88	50789.97
550.08	49765.98
550.28	50290.26
550.48	49952.35
550.68	50290.26
550.88	49671.78
551.08	50013.79
551.279	50091.61
551.479	49856.09
551.679	49786.46
551.879	49987.16
552.079	50073.18
552.278	50081.37
552.478	49765.98
552.678	49634.91
552.878	50142.81
553.077	49712.73
553.277	49577.57
553.477	50019.93
553.676	49546.85
553.876	49294.95
554.076	49219.17
554.275	49239.65
554.475	49079.91
554.674	49655.39
554.874	49444.45
555.074	49585.76
555.273	49303.14
555.473	49661.54
555.672	49002.09
555.872	49274.47
556.071	48778.86
556.271	49907.29
556.47	49137.26
556.67	48533.1
556.869	48983.66
557.068	48744.05
557.268	48768.62
557.467	48965.23
557.667	48926.31
557.866	48848.49
558.065	48629.36
558.265	48211.57
558.464	48545.39
558.663	49088.1
558.863	47799.93
559.062	49258.09
559.261	47996.54
559.461	48733.81
559.66	47566.46
559.859	48033.4
560.058	48301.68
560.258	48160.37
560.457	47605.37
560.656	47943.29
560.855	47718.01
561.054	48049.78
561.253	47443.59
561.453	47691.39
561.652	47849.08
561.851	48053.88
562.05	47531.65
562.249	47185.54
562.448	47689.34
562.647	47644.29
562.846	47152.77
563.045	47582.85
563.244	46755.47
563.443	47097.48
563.642	46544.53
563.841	47025.8
564.04	46681.74
564.239	47036.04
564.438	46610.06
564.637	46472.85
564.836	46376.59
565.035	46053.01
565.234	46177.94
565.432	46499.47
565.631	46079.64
565.83	46024.34
566.029	45616.8
566.228	45489.82
566.427	45598.37
566.625	45368.99
566.824	44924.58
567.023	45620.89
567.222	44783.27
567.42	45272.74
567.619	45215.4
567.818	44957.35
568.016	45078.18
568.215	44717.74
568.414	44469.93
568.612	44629.68
568.811	44486.32
569.01	44736.17
569.208	43566.78
569.407	44310.19
569.605	43816.63
569.804	44248.75
570.002	43910.84
570.201	43902.65
570.4	43464.38
570.598	43830.97
570.797	43364.03
570.995	43495.1
571.193	42915.53
571.392	43327.17
571.59	42890.95
571.789	43062.98
571.987	42788.55
572.186	42999.49
572.384	42407.63
572.582	42505.93
572.781	42720.97
572.979	41889.49
573.177	42073.81
573.376	42471.12
573.574	42032.85
573.772	42059.48
573.971	41567.96
574.169	41592.54
574.367	41426.65
574.565	41871.06
574.763	41195.23
574.962	41156.32
575.16	40861.41
575.358	41008.87
575.556	40484.59
575.754	41496.28
575.952	40705.77
576.151	40740.58
576.349	40646.38
576.547	40673
576.745	40550.12
576.943	40804.07
577.141	39962.36
577.339	40607.47
577.537	39847.67
577.735	40324.85
577.933	39900.92
578.131	40240.88
578.329	39769.85
578.527	39161.6
578.725	39489.27
578.923	39225.09
579.121	39188.22
579.319	39145.22
579.516	39032.58
579.714	38969.09
579.912	38878.98
580.11	38758.15
580.308	39073.54
580.506	38440.71
580.704	38186.77
580.901	38514.44
581.099	38784.77
581.297	38037.26
581.495	38133.52
581.692	38049.55
581.89	37762.84
582.088	37914.39
582.285	37574.42
582.483	37697.3
582.681	37306.14
582.878	37404.44
583.076	37050.14
583.274	37588.76
583.471	36701.99
583.669	37187.36
583.866	36638.5
584.064	36904.74
584.262	36589.35
584.459	36704.04
584.657	36548.39
584.854	36880.16
585.052	36335.4
585.249	36638.5
585.447	35970.86
585.644	35989.3
585.841	35936.05
586.039	36179.76
586.236	35684.15
586.434	35702.58
586.631	35520.31
586.828	35807.03
587.026	35610.42
587.223	35168.06
587.42	34971.46
587.618	35430.2
587.815	35082.05
588.012	34852.67
588.21	34737.99
588.407	34998.08
588.604	34529.09
588.801	34594.63
588.999	34565.96
589.196	34066.25
589.393	34309.96
589.59	34029.39
589.787	33734.48
589.984	34008.91
590.182	33630.04
590.379	33947.47
590.576	33474.39
590.773	33761.11
590.97	33367.9
591.167	33589.08
591.364	33003.36
591.561	33519.45
591.758	32780.13
591.955	33148.76
592.152	33306.46
592.349	32878.43
592.546	32722.79
592.743	32792.42
592.94	32466.79
593.137	32229.23
593.334	32751.46
593.531	32305
593.727	32221.03
593.924	32493.41
594.121	32001.9
594.318	31932.27
594.515	31678.32
594.712	31747.95
594.908	31680.37
595.105	32135.02
595.302	31557.49
595.499	31381.37
595.696	30918.53
595.892	31051.64
596.089	31575.92
596.286	31195
596.482	31045.5
596.679	30887.81
596.876	30691.2
597.072	30388.1
597.269	30310.28
597.466	30551.94
597.662	30699.39
597.859	30277.51
598.055	30209.93
598.252	30162.83
598.448	29943.69
598.645	30021.52
598.841	29628.31
599.038	30070.67
599.234	29552.53
599.431	29751.18
599.627	28993.43
599.824	29767.57
600.02	29208.47
600.217	29280.15
600.413	29294.49
600.609	29190.04
600.806	29173.66
601.002	29173.66
601.198	28719.01
601.395	28473.25
601.591	28708.77
601.787	28647.33
601.984	28379.04
602.18	28690.34
602.376	28571.55
602.572	28268.45
602.769	28377
602.965	28247.97
603.161	28114.86
603.357	27887.53
603.553	27621.3
603.75	27977.64
603.946	27441.07
604.142	27426.74
604.338	27355.06
604.534	27867.05
604.73	27393.97
604.926	27422.64
605.122	27359.16
605.318	26976.19
605.514	27004.86
605.71	26814.4
605.906	26892.22
606.102	26838.97
606.298	26894.27
606.494	27011
606.69	26687.42
606.886	26654.65
607.082	26521.54
607.278	26728.38
607.474	26302.4
607.67	26496.96
607.866	25882.57
608.062	26445.76
608.257	25845.71
608.453	26083.27
608.649	25638.86
608.845	26015.69
609.041	25753.55
609.236	25909.19
609.432	25640.91
609.628	25941.96
609.824	25542.61
610.019	25728.97
610.215	25614.29
610.411	25690.06
610.606	24954.84
610.802	25501.65
610.998	25294.8
611.193	25376.72
611.389	25075.67
611.584	25296.85
611.78	25067.48
611.976	25130.97
612.171	25206.74
612.367	24791
612.562	24752.09
612.758	24737.76
612.953	24532.96
613.149	24948.7
613.344	24459.23
613.539	24813.53
613.735	24498.14
613.93	24483.81
614.126	24473.57
614.321	24948.7
614.517	24575.97
614.712	24438.75
614.907	24258.53
615.103	24506.34
615.298	24334.31
615.493	24438.75
615.688	23654.38
615.884	24453.09
616.079	23750.63
616.274	23998.44
616.47	23760.87
616.665	24242.15
616.86	23867.37
617.055	23576.56
617.25	23429.1
617.445	23900.14
617.641	23318.51
617.836	23764.97
618.031	23244.79
618.226	23441.39
618.421	23279.6
618.616	23431.15
618.811	23005.17
619.006	23212.02
619.201	22781.95
619.396	22775.8
619.591	22714.36
619.786	22943.74
619.981	22231.04
620.176	22718.46
620.371	22226.95
620.566	22319.1
620.761	22061.06
620.956	22372.35
621.151	21461.01
621.346	21936.13
621.541	21925.89
621.735	22067.2
621.93	21514.25
622.125	21721.1
622.32	21366.8
622.515	21512.21
622.709	21231.63
622.904	21256.21
623.099	20981.78
623.294	20955.16
623.488	20621.34
623.683	20766.74
623.878	20594.72
624.072	20555.8
624.267	20545.56
624.462	20185.12
624.656	20205.6
624.851	19968.04
625.046	20047.91
625.24	19894.31
625.435	19621.93
625.629	20017.19
625.824	19585.07
626.018	19564.59
626.213	19109.94
626.407	19476.52
626.602	19066.93
626.796	19210.29
626.991	19050.55
627.185	18964.53
627.38	18778.17
627.574	18749.5
627.768	18636.86
627.963	18409.53
628.157	18423.87
628.352	18225.22
628.546	18030.66
628.74	18321.47
628.935	18184.26
629.129	18208.83
629.323	17655.88
629.517	17842.25
629.712	17827.91
629.906	17533
630.1	17211.47
630.294	17520.71
630.489	17190.99
630.683	17403.98
630.877	16926.8
631.071	16967.76
631.265	17006.67
631.459	17016.91
631.653	16734.29
631.848	16674.9
632.042	16353.37
632.236	16580.7
632.43	16619.61
632.624	16732.25
632.818	16250.97
633.012	15911.01
633.206	16007.27
633.4	16160.86
633.594	15741.03
633.788	16060.51
633.982	16037.98
634.176	15798.37
634.369	15593.58
634.563	15546.47
634.757	15376.49
634.951	15583.34
635.145	15345.77
635.339	15452.27
635.533	15179.89
635.726	15378.54
635.92	14882.93
636.114	15091.82
636.308	15038.58
636.501	14784.63
636.695	14696.57
636.889	14530.68
637.083	14456.95
637.276	14100.61
637.47	14364.79
637.664	14178.43
637.857	14422.14
638.051	14053.5
638.244	13940.86
638.438	13932.67
638.632	13820.03
638.825	13670.53
639.019	13854.85
639.212	13557.89
639.406	13430.92
639.599	13662.34
639.793	13568.13
639.986	13394.06
640.18	13578.37
640.373	13215.88
640.567	13265.03
640.76	13115.53
640.954	13017.23
641.147	12845.2
641.34	12701.84
641.534	12806.29
641.727	12685.46
641.92	12724.37
642.114	12613.78
642.307	12619.92
642.5	12638.36
642.694	12302.49
642.887	12363.93
643.08	12488.85
643.273	12161.18
643.467	11970.72
643.66	12001.44
643.853	11929.76
644.046	11845.79
644.239	11802.79
644.432	11770.02
644.626	11770.02
644.819	11866.27
645.012	11745.44
645.205	11614.37
645.398	11419.82
645.591	11546.79
645.784	11380.9
645.977	11129
646.17	11301.03
646.363	11198.63
646.556	10967.21
646.749	10993.84
646.942	11147.44
647.135	10924.21
647.328	10791.09
647.521	10979.5
647.714	10938.54
647.907	10821.81
648.099	10600.63
648.292	10690.74
648.485	10672.31
648.678	10295.48
648.871	10283.19
649.064	10356.92
649.256	10457.27
649.449	10395.83
649.642	10225.85
649.835	10186.94
650.027	10113.21
650.22	10023.1
650.413	10049.72
650.605	10127.55
650.798	9855.17
650.991	9914.56
651.183	9875.65
651.376	9779.39
651.568	9734.34
651.761	9605.31
651.954	9814.21
652.146	9513.16
652.339	9345.22
652.531	9496.77
652.724	9455.81
652.916	9197.77
653.109	9097.42
653.301	9410.76
653.494	9242.82
653.686	9234.63
653.879	9433.29
654.071	8954.06
654.263	9050.32
654.456	9154.76
654.648	9089.23
654.84	8810.7
655.033	9035.98
655.225	8937.68
655.417	8931.53
655.61	8779.98
655.802	8812.75
655.994	8667.35
656.186	8577.23
656.379	8657.11
656.571	8564.95
656.763	8468.69
656.955	8349.91
657.148	8446.16
657.34	8435.92
657.532	8335.57
657.724	8288.47
657.916	8241.37
658.108	8198.36
658.3	8153.3
658.492	8130.78
658.684	8155.35
658.876	7956.7
659.068	7907.55
659.26	7919.84
659.452	7901.4
659.644	8073.43
659.836	7778.53
660.028	7819.49
660.22	7557.35
660.412	7725.28
660.604	7565.54
660.796	7762.14
660.988	7596.26
661.18	7616.74
661.372	7641.31
661.563	7493.86
661.755	7551.2
661.947	7360.74
662.139	7336.17
662.331	7221.48
662.522	7127.27
662.714	7166.18
662.906	7266.53
663.097	7121.13
663.289	7256.29
663.481	7213.29
663.673	7082.22
663.864	7000.3
664.056	6926.57
664.247	6887.66
664.439	6822.13
664.631	6912.24
664.822	6936.81
665.014	6949.1
665.205	6732.01
665.397	6846.7
665.588	6793.45
665.78	6502.64
665.971	6566.13
666.163	6662.38
666.354	6592.75
666.546	6494.45
666.737	6467.83
666.929	6596.85
667.12	6514.93
667.311	6342.9
667.503	6443.25
667.694	6508.79
667.885	6410.48
668.077	6416.63
668.268	6387.96
668.459	6281.46
668.651	6248.69
668.842	6211.83
669.033	6230.26
669.224	6252.79
669.416	6338.8
669.607	6199.54
669.798	6168.82
669.989	6148.34
670.18	6027.51
670.371	6064.38
670.563	6031.61
670.754	6103.29
670.945	5974.27
671.136	5794.04
671.327	5814.52
671.518	6000.89
671.709	5904.64
671.9	5955.83
672.091	6097.14
672.282	5984.51
672.473	5818.62
672.664	5904.64
672.855	5783.81
673.046	5748.99
673.237	5800.19
673.428	5742.85
673.619	5789.95
673.809	5648.64
674	5654.78
674.191	5806.33
674.382	5495.04
674.573	5665.02
674.764	5617.92
674.954	5630.21
675.145	5593.34
675.336	5515.52
675.527	5495.04
675.717	5583.1
675.908	5546.24
676.099	5581.06
676.289	5499.14
676.48	5593.34
676.671	5443.84
676.861	5519.62
677.052	5542.14
677.243	5339.4
677.433	5466.37
677.624	5396.74
677.814	5484.8
678.005	5460.23
678.195	5419.27
678.386	5368.07
678.576	5318.92
678.767	5206.28
678.957	5273.86
679.148	5269.76
679.338	5253.38
679.529	5220.61
679.719	5325.06
679.909	5292.29
680.1	5187.85
680.29	5275.91
680.481	5175.56
680.671	5337.35
680.861	5329.16
681.052	5331.2
681.242	5237
681.432	5380.36
681.622	5099.78
681.813	5310.72
682.003	5357.83
682.193	5226.76
682.383	5214.47
682.573	5048.58
682.764	5198.09
682.954	5245.19
683.144	5204.23
683.334	5185.8
683.524	5091.59
683.714	5163.27
683.904	5087.5
684.094	5267.72
684.284	5153.03
684.474	5058.82
684.664	5110.02
684.854	5273.86
685.044	5028.1
685.234	4944.14
685.424	5140.74
685.614	4954.38
685.804	5081.35
685.994	5009.67
686.184	4983.05
686.374	4907.27
686.564	4768.01
686.753	4964.62
686.943	4819.21
687.133	4952.33
687.323	4837.64
687.513	4829.45
687.702	4761.87
687.892	4702.48
688.082	4778.25
688.272	4755.72
688.461	4614.41
688.651	4647.18
688.841	4649.23
689.03	4665.61
689.22	4528.4
689.41	4768.01
689.599	4495.63
689.789	4692.24
689.979	4493.58
690.168	4612.37
690.358	4399.38
690.547	4397.33
690.737	4624.65
690.926	4356.37
691.116	4415.76
691.305	4374.8
691.495	4479.25
691.684	4307.22
691.874	4315.41
692.063	4278.55
692.252	4366.61
692.442	4405.52
692.631	4368.66
692.82	4344.08
693.01	4387.09
693.199	4278.55
693.388	4092.18
693.578	4241.68
693.767	4260.12
693.956	4135.19
694.146	4026.65
694.335	4239.64
694.524	4026.65
694.713	4024.6
694.902	4045.08
695.092	4024.6
695.281	3950.87
695.47	4038.94
695.659	4061.46
695.848	4036.89
696.037	3930.39
696.226	4045.08
696.415	4114.71
696.604	4077.85
696.793	4032.79
696.982	3997.98
697.171	3954.97
697.36	4006.17
697.549	3942.68
697.738	4178.2
697.927	4094.23
698.116	3991.83
698.305	4040.98
698.494	3979.54
698.683	3905.82
698.872	3836.19
699.061	3889.43
699.25	4012.31
699.438	4026.65
699.627	3971.35
699.816	3885.34
700.005	3893.53
700.193	3909.91
700.382	3965.21
700.571	3858.71
700.76	3807.52
700.948	3926.3
701.137	3840.28
701.326	3838.23
701.514	3846.43
701.703	3922.2
701.892	3883.29
702.08	4016.41
702.269	3760.41
702.457	3918.11
702.646	3809.56
702.834	3778.84
703.023	3862.81
703.212	3739.93
703.4	3903.77
703.589	3664.16
703.777	3729.69
703.965	3748.12
704.154	3711.26
704.342	3735.84
704.531	3762.46
704.719	3694.88
704.907	3903.77
705.096	3680.54
705.284	3782.94
705.472	3633.44
705.661	3639.58
705.849	3741.98
706.037	3789.08
706.226	3744.03
706.414	3774.75
706.602	3660.06
706.79	3766.56
706.979	3674.4
707.167	3692.83
707.355	3733.79
707.543	3739.93
707.731	3725.6
707.919	3666.21
708.107	3737.88
708.296	3787.04
708.484	3678.49
708.672	3795.23
708.86	3662.11
709.048	3815.71
709.236	3645.73
709.424	3817.76
709.612	3834.14
709.8	3739.93
709.988	3676.45
710.176	3741.98
710.364	3926.3
710.551	3817.76
710.739	3623.2
710.927	3715.36
711.115	3758.36
711.303	3723.55
711.491	3735.84
711.679	3852.57
711.866	3744.03
712.054	3731.74
712.242	3619.1
712.43	3877.15
712.617	3746.08
712.805	3713.31
712.993	3709.21
713.181	3543.33
713.368	3719.45
713.556	3764.51
713.744	3555.62
713.931	3795.23
714.119	3733.79
714.306	3746.08
714.494	3625.25
714.682	3649.82
714.869	3817.76
715.057	3637.53
715.244	3608.86
715.432	3815.71
715.619	3619.1
715.807	3698.97
715.994	3731.74
716.182	3641.63
716.369	3752.22
716.556	3682.59
716.744	3727.64
716.931	3782.94
717.119	3715.36
717.306	3664.16
717.493	3694.88
717.681	3660.06
717.868	3741.98
718.055	3574.05
718.242	3662.11
718.43	3668.25
718.617	3658.01
718.804	3643.68
718.991	3709.21
719.179	3723.55
719.366	3639.58
719.553	3635.49
719.74	3627.29
719.927	3623.2
720.114	3668.25
720.301	3678.49
720.488	3528.99
720.676	3709.21
720.863	3774.75
721.05	3746.08
721.237	3748.12
721.424	3612.96
721.611	3635.49
721.798	3692.83
721.985	3672.35
722.172	3635.49
722.358	3684.64
722.545	3690.78
722.732	3676.45
722.919	3688.73
723.106	3686.69
723.293	3735.84
723.48	3594.53
723.667	3574.05
723.853	3580.19
724.04	3631.39
724.227	3610.91
724.414	3694.88
724.6	3535.14
724.787	3557.66
724.974	3612.96
725.161	3643.68
725.347	3567.9
725.534	3684.64
725.72	3545.38
725.907	3713.31
726.094	3615.01
726.28	3451.17
726.467	3615.01
726.653	3535.14
726.84	3524.9
727.027	3641.63
727.213	3479.84
727.4	3543.33
727.586	3442.98
727.773	3514.66
727.959	3502.37
728.145	3391.78
728.332	3549.47
728.518	3559.71
728.705	3574.05
728.891	3569.95
729.077	3475.74
729.264	3531.04
729.45	3348.77
729.636	3561.76
729.823	3389.73
730.009	3514.66
730.195	3637.53
730.382	3512.61
730.568	3473.7
730.754	3522.85
730.94	3578.14
731.126	3471.65
731.313	3557.66
731.499	3545.38
731.685	3559.71
731.871	3469.6
732.057	3385.63
732.243	3485.98
732.429	3610.91
732.615	3354.91
732.801	3586.33
732.987	3475.74
733.173	3492.13
733.359	3506.46
733.545	3539.23
733.731	3340.58
733.917	3477.79
734.103	3420.45
734.289	3352.87
734.475	3455.26
734.661	3512.61
734.847	3436.83
735.033	3389.73
735.219	3406.11
735.404	3377.44
735.59	3256.61
735.776	3356.96
735.962	3342.63
736.148	3498.27
736.333	3445.02
736.519	3330.34
736.705	3379.49
736.89	3313.95
737.076	3324.19
737.262	3264.8
737.447	3338.53
737.633	3229.99
737.819	3393.83
738.004	3244.32
738.19	3361.06
738.375	3193.12
738.561	3385.63
738.747	3299.62
738.932	3279.14
739.118	3336.48
739.303	3389.73
739.489	3256.61
739.674	3119.4
739.859	3203.36
740.045	3254.56
740.23	3295.52
740.416	2971.94
740.601	3174.69
740.786	2990.38
740.972	3025.19
741.157	3139.88
741.342	3068.2
741.528	3098.92
741.713	3328.29
741.898	3119.4
742.084	3066.15
742.269	2998.57
742.454	3160.36
742.639	2971.94
742.824	2971.94
743.01	2978.09
743.195	2963.75
743.38	2887.98
743.565	2984.23
743.75	2971.94
743.935	2853.16
744.12	3021.1
744.305	2996.52
744.49	2943.27
744.675	2906.41
744.86	2877.74
745.045	2933.03
745.23	2873.64
745.415	2943.27
745.6	2644.27
745.785	2816.3
745.97	2720.04
746.155	2861.35
746.34	2873.64
746.525	2857.26
746.71	2691.37
746.895	2668.84
747.079	2619.69
747.264	2715.95
747.449	2765.1
747.634	2601.26
747.819	2791.72
748.003	2644.27
748.188	2619.69
748.373	2595.12
748.557	2603.31
748.742	2550.06
748.927	2468.14
749.111	2519.34
749.296	2418.99
749.481	2472.24
749.665	2443.57
749.85	2277.68
750.034	2480.43
750.219	2324.79
750.404	2404.66
750.588	2373.94
750.773	2322.74
750.957	2349.36
751.141	2398.51
751.326	2271.54
751.51	2300.21
751.695	2310.45
751.879	2308.4
752.064	2328.88
752.248	2197.81
752.432	2267.44
752.617	2257.2
752.801	2113.85
752.985	2212.15
753.17	2181.43
753.354	2251.06
753.538	2085.17
753.722	1956.15
753.907	2036.02
754.091	2142.52
754.275	2027.83
754.459	2105.65
754.643	2017.59
754.828	1939.77
755.012	2054.45
755.196	1919.29
755.38	2081.08
755.564	1978.68
755.748	1909.05
755.932	1886.52
756.116	1837.37
756.3	1919.29
756.484	1947.96
756.668	1808.7
756.852	1859.9
757.036	1802.55
757.22	1765.69
757.404	1775.93
757.588	1698.11
757.772	1749.31
757.956	1796.41
758.14	1788.22
758.323	1763.64
758.507	1741.11
758.691	1720.64
758.875	1677.63
759.059	1734.97
759.242	1696.06
759.426	1663.29
759.61	1659.2
759.794	1622.33
759.977	1640.76
760.161	1732.92
760.345	1610.04
760.528	1667.39
760.712	1587.52
760.895	1677.63
761.079	1579.33
761.263	1630.52
761.446	1620.28
761.63	1470.78
761.813	1644.86
761.997	1493.31
762.18	1491.26
762.364	1632.57
762.547	1440.06
762.731	1562.94
762.914	1472.83
763.098	1444.16
763.281	1507.65
763.464	1556.8
763.648	1405.25
763.831	1407.3
764.015	1399.1
764.198	1503.55
764.381	1470.78
764.564	1505.6
764.748	1464.64
764.931	1300.8
765.114	1435.97
765.297	1433.92
765.481	1382.72
765.664	1450.3
765.847	1296.71
766.03	1325.38
766.213	1231.17
766.397	1349.95
766.58	1339.71
766.763	1356.1
766.946	1352
767.129	1300.8
767.312	1366.34
767.495	1356.1
767.678	1362.24
767.861	1345.86
768.044	1280.32
768.227	1313.09
768.41	1202.5
768.593	1388.86
768.776	1308.99
768.959	1263.94
769.142	1306.95
769.324	1229.12
769.507	1313.09
769.69	1212.74
769.873	1347.9
770.056	1218.88
770.239	1227.07
770.421	1222.98
770.604	1161.54
770.787	1175.88
770.97	1190.21
771.152	1239.36
771.335	1200.45
771.518	1175.88
771.7	1173.83
771.883	1167.68
772.066	1177.92
772.248	1116.48
772.431	1151.3
772.613	1143.11
772.796	981.32
772.978	1184.07
773.161	1116.48
773.343	1159.49
773.526	1079.62
773.708	995.65
773.891	1102.15
774.073	1081.67
774.256	1079.62
774.438	1009.99
774.621	1061.19
774.803	1050.95
774.985	1001.8
775.168	1071.43
775.35	1106.24
775.532	977.22
775.715	1063.24
775.897	954.69
776.079	1009.99
776.261	1022.28
776.444	958.79
776.626	995.65
776.808	858.44
776.99	907.59
777.173	997.7
777.355	887.11
777.537	960.84
777.719	840.01
777.901	862.54
778.083	940.36
778.265	813.38
778.447	926.02
778.629	794.95
778.811	956.74
778.993	878.92
779.175	868.68
779.357	860.49
779.539	833.86
779.721	874.82
779.903	811.34
780.085	756.04
780.267	788.81
780.449	756.04
780.631	862.54
780.812	850.25
780.994	799.05
781.176	856.39
781.358	790.86
781.54	659.79
781.721	794.95
781.903	715.08
782.085	721.23
782.267	817.48
782.448	653.64
782.63	747.85
782.812	706.89
782.993	790.86
783.175	733.51
783.357	700.75
783.538	786.76
783.72	678.22
783.901	731.47
784.083	745.8
784.264	637.26
784.446	545.1
784.627	667.98
784.809	682.31
784.99	596.3
785.172	715.08
785.353	639.31
785.535	661.84
785.716	651.6
785.897	547.15
786.079	653.64
786.26	588.11
786.441	645.45
786.623	608.59
786.804	622.92
786.985	559.44
787.167	602.44
787.348	604.49
787.529	629.07
787.71	620.88
787.891	561.48
788.073	530.77
788.254	520.53
788.435	620.88
788.616	629.07
788.797	510.29
788.978	549.2
789.159	563.53
789.34	530.77
789.522	489.81
789.703	514.38
789.884	510.29
790.065	506.19
790.246	645.45
790.427	498
790.607	498
790.788	567.63
790.969	446.8
791.15	534.86
791.331	477.52
791.512	457.04
791.693	422.22
791.874	469.33
792.054	530.77
792.235	526.67
792.416	467.28
792.597	422.22
792.778	381.26
792.958	518.48
793.139	481.61
793.32	500.05
793.5	360.78
793.681	498
793.862	418.13
794.042	469.33
794.223	506.19
794.404	362.83
794.584	407.89
794.765	459.09
794.945	430.41
795.126	559.44
795.306	446.8
795.487	375.12
795.667	407.89
795.848	485.71
796.028	354.64
796.209	403.79
796.389	420.17
796.57	444.75
796.75	420.17
796.93	371.02
797.111	467.28
797.291	389.46
797.471	438.61
797.652	407.89
797.832	397.65
798.012	481.61
798.192	348.5
798.373	428.37
798.553	366.93
798.733	375.12
798.913	391.5
799.093	295.25
799.274	381.26
799.454	393.55
799.634	391.5
799.814	307.54
799.994	405.84
800.174	354.64
800.354	399.7
800.534	340.3
800.714	356.69
800.894	268.63
801.074	264.53
801.254	311.63
801.434	438.61
801.614	305.49
801.794	346.45
801.974	792.91
802.154	285.01
802.334	325.97
802.514	260.43
802.693	342.35
802.873	313.68
803.053	409.94
803.233	250.19
803.413	317.78
803.592	291.15
803.772	309.58
803.952	336.21
804.131	266.58
804.311	360.78
804.491	321.87
804.67	278.87
804.85	278.87
805.03	215.38
805.209	301.39
805.389	201.04
805.568	338.26
805.748	248.15
805.928	274.77
806.107	315.73
806.287	258.39
806.466	244.05
806.646	205.14
806.825	278.87
807.004	217.43
807.184	280.91
807.363	264.53
807.543	227.67
807.722	285.01
807.901	237.91
808.081	307.54
808.26	227.67
808.439	242
808.619	213.33
808.798	242
808.977	295.25
809.156	252.24
809.336	272.72
809.515	336.21
809.694	282.96
809.873	268.63
810.052	198.99
810.231	256.34
810.411	242
810.59	190.8
810.769	291.15
810.948	250.19
811.127	217.43
811.306	149.84
811.485	215.38
811.664	250.19
811.843	215.38
812.022	233.81
812.201	254.29
812.38	223.57
812.559	244.05
812.737	289.1
812.916	198.99
813.095	264.53
813.274	219.47
813.453	242
813.632	149.84
813.811	223.57
813.989	133.46
814.168	223.57
814.347	233.81
814.526	198.99
814.704	231.76
814.883	242
815.062	198.99
815.24	227.67
815.419	211.28
815.598	237.91
815.776	143.7
815.955	194.9
816.133	180.56
816.312	239.95
816.49	170.32
816.669	256.34
816.847	231.76
817.026	215.38
817.204	172.37
817.383	162.13
817.561	215.38
817.74	219.47
817.918	244.05
818.097	164.18
818.275	151.89
818.453	143.7
818.632	180.56
818.81	172.37
818.988	170.32
819.167	227.67
819.345	160.08
819.523	180.56
819.701	158.03
819.879	158.03
820.058	235.86
820.236	172.37
820.414	180.56
820.592	180.56
820.77	155.99
820.948	180.56
821.127	143.7
821.305	172.37
821.483	172.37
821.661	215.38
821.839	78.16
822.017	115.03
822.195	119.12
822.373	215.38
822.551	176.47
822.729	145.75
822.907	121.17
823.085	151.89
823.262	110.93
823.44	133.46
823.618	147.8
823.796	139.6
823.974	145.75
824.152	196.95
824.329	117.08
824.507	115.03
824.685	145.75
824.863	143.7
825.04	133.46
825.218	166.23
825.396	96.6
825.574	166.23
825.751	203.09
825.929	176.47
826.107	123.22
826.284	151.89
826.462	145.75
826.639	67.92
826.817	92.5
826.994	155.99
827.172	129.36
827.349	166.23
827.527	125.27
827.704	125.27
827.882	149.84
828.059	125.27
828.237	166.23
828.414	82.26
828.591	117.08
828.769	151.89
828.946	112.98
829.124	180.56
829.301	147.8
829.478	186.71
829.655	123.22
829.833	133.46
830.01	22.87
830.187	123.22
830.364	55.64
830.542	108.88
830.719	115.03
830.896	155.99
831.073	90.45
831.25	166.23
831.427	135.51
831.604	88.4
831.782	78.16
831.959	102.74
832.136	117.08
832.313	115.03
832.49	119.12
832.667	84.31
832.844	166.23
833.021	186.71
833.198	127.32
833.374	37.2
833.551	119.12
833.728	112.98
833.905	119.12
834.082	88.4
834.259	172.37
834.436	153.94
834.612	55.64
834.789	180.56
834.966	82.26
835.143	112.98
835.319	96.6
835.496	145.75
835.673	53.59
835.85	121.17
836.026	96.6
836.203	168.27
836.38	22.87
836.556	55.64
836.733	119.12
836.909	170.32
837.086	96.6
837.262	61.78
837.439	-16.04
837.616	149.84
837.792	94.55
837.968	102.74
838.145	125.27
838.321	49.49
838.498	29.01
838.674	162.13
838.851	110.93
839.027	125.27
839.203	18.77
839.38	106.84
839.556	121.17
839.732	151.89
839.909	129.36
840.085	96.6
840.261	47.44
840.437	123.22
840.614	137.56
840.79	76.12
840.966	145.75
841.142	88.4
841.318	108.88
841.494	43.35
841.671	123.22
841.847	55.64
842.023	37.2
842.199	108.88
842.375	86.36
842.551	84.31
842.727	-20.14
842.903	162.13
843.079	112.98
843.255	151.89
843.431	72.02
843.607	94.55
843.783	-3.75
843.959	121.17
844.134	37.2
844.31	112.98
844.486	18.77
844.662	49.49
844.838	112.98
845.013	39.25
845.189	31.06
845.365	96.6
845.541	141.65
845.716	86.36
845.892	131.41
846.068	94.55
846.244	35.16
846.419	88.4
846.595	47.44
846.77	59.73
846.946	59.73
847.122	74.07
847.297	0.34
847.473	135.51
847.648	69.97
847.824	67.92
847.999	22.87
848.175	59.73
848.35	57.68
848.526	123.22
848.701	135.51
848.876	47.44
849.052	84.31
849.227	74.07
849.403	84.31
849.578	12.63
849.753	31.06
849.929	53.59
850.104	14.68
850.279	41.3
850.454	65.88
850.63	145.75
850.805	51.54
850.98	119.12
851.155	24.92
851.33	119.12
851.505	18.77
851.681	45.4
851.856	47.44
852.031	4.44
852.206	96.6
852.381	69.97
852.556	86.36
852.731	43.35
852.906	29.01
853.081	18.77
853.256	108.88
853.431	31.06
853.606	26.96
853.781	47.44
853.956	51.54
854.131	74.07
854.305	22.87
854.48	88.4
854.655	45.4
854.83	29.01
855.005	26.96
855.18	92.5
855.354	69.97
855.529	80.21
855.704	51.54
855.879	123.22
856.053	39.25
856.228	90.45
856.403	10.58
856.577	59.73
856.752	4.44
856.926	39.25
857.101	29.01
857.276	37.2
857.45	55.64
857.625	72.02
857.799	31.06
857.974	65.88
858.148	-54.95
858.323	80.21
858.497	47.44
858.672	55.64
858.846	35.16
859.02	33.11
859.195	8.53
859.369	96.6
859.543	47.44
859.718	45.4
859.892	39.25
860.066	47.44
860.241	31.06
860.415	80.21
860.589	33.11
860.763	61.78
860.938	-38.57
861.112	59.73
861.286	10.58
861.46	57.68
861.634	53.59
861.808	55.64
861.982	-22.19
862.157	-18.09
862.331	61.78
862.505	22.87
862.679	4.44
862.853	-5.8
863.027	14.68
863.201	4.44
863.375	84.31
863.549	-22.19
863.722	-18.09
863.896	88.4
864.07	35.16
864.244	12.63
864.418	59.73
864.592	-9.9
864.766	37.2
864.939	18.77
865.113	61.78
865.287	88.4
865.461	6.49
865.634	41.3
865.808	12.63
865.982	29.01
866.156	-3.75
866.329	-1.71
866.503	51.54
866.676	-18.09
866.85	55.64
867.024	-1.71
867.197	-5.8
867.371	31.06
867.544	43.35
867.718	-59.05
867.891	26.96
868.065	12.63
868.238	55.64
868.412	72.02
868.585	104.79
868.759	-22.19
868.932	57.68
869.105	63.83
869.279	55.64
869.452	45.4
869.625	29.01
869.799	31.06
869.972	88.4
870.145	0.34
870.319	84.31
870.492	-22.19
870.665	72.02
870.838	45.4
871.011	-46.76
871.185	-24.23
871.358	33.11
871.531	16.73
871.704	-32.43
871.877	88.4
872.05	12.63
872.223	59.73
872.396	88.4
872.569	2.39
872.742	-18.09
872.915	41.3
873.088	65.88
873.261	-22.19
873.434	69.97
873.607	14.68
873.78	80.21
873.953	10.58
874.126	-5.8
874.299	69.97
874.471	49.49
874.644	-9.9
874.817	14.68
874.99	84.31
875.163	76.12
875.335	31.06
875.508	0.34
875.681	55.64
875.853	39.25
876.026	80.21
876.199	10.58
876.371	-9.9
876.544	22.87
876.717	26.96
876.889	8.53
877.062	22.87
877.234	-1.71
877.407	-3.75
877.579	4.44
877.752	43.35
877.924	-26.28
878.097	88.4
878.269	22.87
878.442	59.73
878.614	125.27
878.786	0.34
878.959	-38.57
879.131	33.11
879.303	-22.19
879.476	67.92
879.648	10.58
879.82	59.73
879.993	43.35
880.165	74.07
880.337	-38.57
880.509	39.25
880.681	45.4
880.854	-63.15
881.026	-18.09
881.198	29.01
881.37	2.39
881.542	20.82
881.714	47.44
881.886	-26.28
882.058	-3.75
882.23	10.58
882.402	-28.33
882.574	-13.99
882.746	14.68
882.918	10.58
883.09	-7.85
883.262	59.73
883.434	53.59
883.606	-36.52
883.778	16.73
883.95	35.16
884.122	43.35
884.293	47.44
884.465	-1.71
884.637	55.64
884.809	-22.19
884.98	14.68
885.152	26.96
885.324	-28.33
885.496	12.63
885.667	51.54
885.839	55.64
886.011	35.16
886.182	-18.09
886.354	47.44
886.525	16.73
886.697	-1.71
886.869	-18.09
887.04	84.31
887.212	33.11
887.383	104.79
887.555	63.83
887.726	-69.29
887.897	61.78
888.069	78.16
888.24	51.54
888.412	-18.09
888.583	-3.75
888.754	90.45
888.926	31.06
889.097	-28.33
889.268	47.44
889.44	61.78
889.611	29.01
889.782	0.34
889.953	43.35
890.125	-30.38
890.296	6.49
890.467	-52.91
890.638	-20.14
890.809	14.68
890.98	-20.14
891.151	16.73
891.323	98.64
891.494	39.25
891.665	53.59
891.836	-9.9
892.007	-57
892.178	12.63
892.349	-1.71
892.52	6.49
892.691	-50.86
892.862	24.92
893.032	-40.62
893.203	-28.33
893.374	2.39
893.545	84.31
893.716	-36.52
893.887	-7.85
894.057	-16.04
894.228	33.11
894.399	16.73
894.57	57.68
894.74	-30.38
894.911	51.54
895.082	2.39
895.253	35.16
895.423	-3.75
895.594	31.06
895.764	2.39
895.935	-38.57
896.106	55.64
896.276	-59.05
896.447	18.77
896.617	-71.34
896.788	-71.34
896.958	31.06
897.129	92.5
897.299	24.92
897.47	65.88
897.64	4.44
897.81	33.11
897.981	47.44
898.151	8.53
898.322	-30.38
898.492	33.11
898.662	39.25
898.832	2.39
899.003	31.06
899.173	-20.14
899.343	8.53
899.513	-18.09
