Data from USB4F104151__81__10-24-16-151.txt Node

Date: Wed Mar 12 10:24:16 EDT 2025
User: louis
Spectrometer: USB4F10415
Trigger mode: 4
Integration Time (sec): 3.000000E-2
Scans to average: 1
Electric dark correction enabled: true
Nonlinearity correction enabled: false
Boxcar width: 0
XAxis mode: Wavelengths
Number of Pixels in Spectrum: 3648
>>>>>Begin Spectral Data<<<<<
178.204	-73.04
178.424	-73.04
178.644	-73.04
178.864	-173.39
179.084	-130.39
179.304	-15.7
179.524	-15.7
179.744	12.97
179.964	0.68
180.184	-1.37
180.404	-40.28
180.624	-23.89
180.844	21.16
181.064	-25.94
181.283	49.83
181.503	-32.08
181.723	70.31
181.943	-11.61
182.163	90.79
182.383	6.83
182.602	41.64
182.822	27.31
183.042	6.83
183.262	80.55
183.482	-32.08
183.701	17.07
183.921	-1.37
184.141	37.55
184.361	107.18
184.58	-9.56
184.8	70.31
185.02	49.83
185.239	15.02
185.459	-9.56
185.679	31.4
185.898	-44.37
186.118	49.83
186.338	58.03
186.557	17.07
186.777	43.69
186.997	-1.37
187.216	4.78
187.436	119.46
187.655	51.88
187.875	-7.51
188.095	66.22
188.314	129.7
188.534	6.83
188.753	76.46
188.973	17.07
189.192	64.17
189.412	72.36
189.631	66.22
189.851	0.68
190.07	39.59
190.29	49.83
190.509	25.26
190.729	-34.13
190.948	47.79
191.168	125.61
191.387	45.74
191.607	37.55
191.826	6.83
192.045	21.16
192.265	37.55
192.484	15.02
192.704	49.83
192.923	-13.65
193.142	98.99
193.362	-9.56
193.581	119.46
193.8	78.51
194.02	58.03
194.239	4.78
194.458	-11.61
194.678	-9.56
194.897	19.11
195.116	-50.52
195.335	0.68
195.555	25.26
195.774	15.02
195.993	-15.7
196.212	68.27
196.432	8.87
196.651	96.94
196.87	-19.8
197.089	62.12
197.308	82.6
197.528	103.08
197.747	41.64
197.966	62.12
198.185	45.74
198.404	33.45
198.623	-40.28
198.842	92.84
199.062	37.55
199.281	123.56
199.5	17.07
199.719	-7.51
199.938	37.55
200.157	70.31
200.376	94.89
200.595	103.08
200.814	-9.56
201.033	25.26
201.252	-15.7
201.471	47.79
201.69	58.03
201.909	-7.51
202.128	-9.56
202.347	47.79
202.566	139.94
202.785	-56.66
203.004	12.97
203.223	92.84
203.442	6.83
203.661	47.79
203.879	53.93
204.098	94.89
204.317	15.02
204.536	105.13
204.755	12.97
204.974	92.84
205.193	-13.65
205.411	82.6
205.63	-44.37
205.849	68.27
206.068	45.74
206.287	82.6
206.505	113.32
206.724	-44.37
206.943	39.59
207.162	23.21
207.381	55.98
207.599	45.74
207.818	45.74
208.037	-1.37
208.255	-23.89
208.474	41.64
208.693	41.64
208.911	-25.94
209.13	37.55
209.349	45.74
209.567	53.93
209.786	115.37
210.005	33.45
210.223	35.5
210.442	-34.13
210.661	45.74
210.879	-21.85
211.098	119.46
211.316	94.89
211.535	43.69
211.753	17.07
211.972	41.64
212.191	8.87
212.409	17.07
212.628	-15.7
212.846	-1.37
213.065	-3.41
213.283	131.75
213.502	-1.37
213.72	17.07
213.938	45.74
214.157	45.74
214.375	-11.61
214.594	8.87
214.812	139.94
215.031	37.55
215.249	15.02
215.467	80.55
215.686	66.22
215.904	47.79
216.122	27.31
216.341	66.22
216.559	82.6
216.778	74.41
216.996	21.16
217.214	45.74
217.432	35.5
217.651	31.4
217.869	41.64
218.087	33.45
218.306	12.97
218.524	60.07
218.742	41.64
218.96	2.73
219.179	25.26
219.397	-38.23
219.615	45.74
219.833	31.4
220.051	98.99
220.27	96.94
220.488	39.59
220.706	47.79
220.924	58.03
221.142	12.97
221.36	17.07
221.578	51.88
221.796	6.83
222.015	58.03
222.233	92.84
222.451	127.66
222.669	-5.46
222.887	45.74
223.105	17.07
223.323	31.4
223.541	70.31
223.759	82.6
223.977	53.93
224.195	98.99
224.413	37.55
224.631	4.78
224.849	58.03
225.067	74.41
225.285	101.03
225.503	41.64
225.721	0.68
225.939	60.07
226.157	19.11
226.375	55.98
226.592	0.68
226.81	105.13
227.028	55.98
227.246	107.18
227.464	43.69
227.682	-15.7
227.9	23.21
228.117	47.79
228.335	27.31
228.553	-34.13
228.771	94.89
228.989	37.55
229.206	82.6
229.424	-23.89
229.642	-7.51
229.86	-52.56
230.077	6.83
230.295	15.02
230.513	49.83
230.731	88.75
230.948	17.07
231.166	0.68
231.384	21.16
231.601	45.74
231.819	92.84
232.037	41.64
232.254	25.26
232.472	103.08
232.689	-13.65
232.907	-1.37
233.125	-23.89
233.342	29.35
233.56	29.35
233.777	-5.46
233.995	0.68
234.213	84.65
234.43	82.6
234.648	17.07
234.865	8.87
235.083	74.41
235.3	68.27
235.518	-60.76
235.735	74.41
235.953	47.79
236.17	53.93
236.388	25.26
236.605	119.46
236.822	2.73
237.04	19.11
237.257	-13.65
237.475	-7.51
237.692	37.55
237.909	115.37
238.127	84.65
238.344	74.41
238.562	35.5
238.779	21.16
238.996	66.22
239.214	98.99
239.431	64.17
239.648	27.31
239.865	117.42
240.083	27.31
240.3	25.26
240.517	4.78
240.735	64.17
240.952	70.31
241.169	23.21
241.386	70.31
241.603	64.17
241.821	-1.37
242.038	-17.75
242.255	55.98
242.472	45.74
242.689	123.56
242.907	27.31
243.124	111.27
243.341	19.11
243.558	84.65
243.775	37.55
243.992	-75.09
244.209	49.83
244.426	144.04
244.643	74.41
244.86	-11.61
245.078	19.11
245.295	70.31
245.512	45.74
245.729	21.16
245.946	72.36
246.163	-56.66
246.38	66.22
246.597	25.26
246.814	45.74
247.031	29.35
247.248	119.46
247.464	25.26
247.681	49.83
247.898	33.45
248.115	62.12
248.332	-15.7
248.549	45.74
248.766	12.97
248.983	41.64
249.2	47.79
249.417	119.46
249.633	39.59
249.85	47.79
250.067	-1.37
250.284	113.32
250.501	115.37
250.717	23.21
250.934	-21.85
251.151	70.31
251.368	-3.41
251.585	17.07
251.801	4.78
252.018	45.74
252.235	43.69
252.451	60.07
252.668	33.45
252.885	33.45
253.102	25.26
253.318	98.99
253.535	15.02
253.752	-15.7
253.968	-3.41
254.185	27.31
254.401	-1.37
254.618	135.85
254.835	47.79
255.051	49.83
255.268	51.88
255.484	51.88
255.701	33.45
255.917	86.7
256.134	19.11
256.351	21.16
256.567	90.79
256.784	31.4
257	27.31
257.217	80.55
257.433	15.02
257.65	115.37
257.866	109.22
258.082	45.74
258.299	66.22
258.515	45.74
258.732	0.68
258.948	2.73
259.165	94.89
259.381	29.35
259.597	-42.32
259.814	101.03
260.03	-42.32
260.246	96.94
260.463	82.6
260.679	29.35
260.895	74.41
261.112	107.18
261.328	45.74
261.544	-9.56
261.761	74.41
261.977	53.93
262.193	-11.61
262.409	98.99
262.626	94.89
262.842	53.93
263.058	-15.7
263.274	49.83
263.49	90.79
263.707	45.74
263.923	107.18
264.139	86.7
264.355	109.22
264.571	47.79
264.787	86.7
265.004	62.12
265.22	31.4
265.436	-50.52
265.652	17.07
265.868	8.87
266.084	62.12
266.3	17.07
266.516	-11.61
266.732	-11.61
266.948	39.59
267.164	-3.41
267.38	68.27
267.596	70.31
267.812	92.84
268.028	10.92
268.244	64.17
268.46	37.55
268.676	37.55
268.892	6.83
269.108	31.4
269.324	68.27
269.54	4.78
269.756	35.5
269.972	-56.66
270.188	58.03
270.403	84.65
270.619	37.55
270.835	131.75
271.051	-19.8
271.267	19.11
271.483	72.36
271.698	-11.61
271.914	37.55
272.13	15.02
272.346	41.64
272.562	64.17
272.777	78.51
272.993	23.21
273.209	41.64
273.425	33.45
273.64	-42.32
273.856	62.12
274.072	15.02
274.287	-9.56
274.503	107.18
274.719	45.74
274.934	-48.47
275.15	15.02
275.366	25.26
275.581	8.87
275.797	10.92
276.012	-11.61
276.228	62.12
276.444	4.78
276.659	62.12
276.875	23.21
277.09	49.83
277.306	47.79
277.521	66.22
277.737	27.31
277.952	51.88
278.168	70.31
278.383	43.69
278.599	-5.46
278.814	0.68
279.03	121.51
279.245	88.75
279.461	150.18
279.676	105.13
279.892	-21.85
280.107	88.75
280.322	-1.37
280.538	-27.99
280.753	49.83
280.969	-48.47
281.184	8.87
281.399	84.65
281.615	90.79
281.83	74.41
282.045	45.74
282.26	37.55
282.476	6.83
282.691	-9.56
282.906	-40.28
283.122	98.99
283.337	25.26
283.552	53.93
283.767	-3.41
283.983	82.6
284.198	37.55
284.413	80.55
284.628	62.12
284.843	45.74
285.058	107.18
285.274	58.03
285.489	33.45
285.704	66.22
285.919	-44.37
286.134	121.51
286.349	86.7
286.564	-11.61
286.779	64.17
286.995	29.35
287.21	39.59
287.425	129.7
287.64	70.31
287.855	21.16
288.07	8.87
288.285	-44.37
288.5	72.36
288.715	115.37
288.93	33.45
289.145	103.08
289.36	107.18
289.575	80.55
289.79	41.64
290.004	96.94
290.219	96.94
290.434	27.31
290.649	55.98
290.864	94.89
291.079	-19.8
291.294	55.98
291.509	17.07
291.724	17.07
291.938	21.16
292.153	49.83
292.368	4.78
292.583	129.7
292.798	-7.51
293.012	21.16
293.227	68.27
293.442	43.69
293.657	72.36
293.871	127.66
294.086	49.83
294.301	125.61
294.516	70.31
294.73	82.6
294.945	58.03
295.16	82.6
295.374	123.56
295.589	72.36
295.804	70.31
296.018	45.74
296.233	29.35
296.447	84.65
296.662	-36.18
296.877	66.22
297.091	88.75
297.306	68.27
297.52	45.74
297.735	107.18
297.949	92.84
298.164	64.17
298.378	96.94
298.593	33.45
298.807	94.89
299.022	33.45
299.236	-5.46
299.451	31.4
299.665	15.02
299.88	80.55
300.094	49.83
300.309	58.03
300.523	43.69
300.737	33.45
300.952	27.31
301.166	47.79
301.381	90.79
301.595	27.31
301.809	86.7
302.024	17.07
302.238	27.31
302.452	76.46
302.667	64.17
302.881	94.89
303.095	74.41
303.309	115.37
303.524	127.66
303.738	47.79
303.952	64.17
304.166	164.52
304.381	-3.41
304.595	131.75
304.809	-15.7
305.023	107.18
305.237	84.65
305.452	78.51
305.666	66.22
305.88	62.12
306.094	49.83
306.308	17.07
306.522	96.94
306.736	37.55
306.95	-1.37
307.164	29.35
307.379	62.12
307.593	135.85
307.807	123.56
308.021	78.51
308.235	84.65
308.449	66.22
308.663	101.03
308.877	86.7
309.091	39.59
309.305	49.83
309.519	-46.42
309.733	37.55
309.947	-36.18
310.161	41.64
310.374	8.87
310.588	41.64
310.802	-15.7
311.016	-32.08
311.23	64.17
311.444	70.31
311.658	27.31
311.872	72.36
312.085	29.35
312.299	64.17
312.513	53.93
312.727	70.31
312.941	8.87
313.154	8.87
313.368	2.73
313.582	-3.41
313.796	-30.04
314.009	49.83
314.223	94.89
314.437	156.33
314.651	88.75
314.864	0.68
315.078	76.46
315.292	62.12
315.505	49.83
315.719	33.45
315.933	37.55
316.146	-36.18
316.36	-21.85
316.573	144.04
316.787	86.7
317.001	90.79
317.214	96.94
317.428	76.46
317.641	-3.41
317.855	70.31
318.068	60.07
318.282	113.32
318.495	123.56
318.709	41.64
318.922	55.98
319.136	148.14
319.349	86.7
319.563	10.92
319.776	2.73
319.99	43.69
320.203	86.7
320.417	80.55
320.63	-15.7
320.843	144.04
321.057	103.08
321.27	72.36
321.483	35.5
321.697	86.7
321.91	10.92
322.124	123.56
322.337	96.94
322.55	70.31
322.763	82.6
322.977	43.69
323.19	6.83
323.403	41.64
323.617	109.22
323.83	43.69
324.043	-11.61
324.256	15.02
324.469	90.79
324.683	107.18
324.896	12.97
325.109	-25.94
325.322	66.22
325.535	35.5
325.748	113.32
325.962	27.31
326.175	135.85
326.388	80.55
326.601	53.93
326.814	31.4
327.027	39.59
327.24	12.97
327.453	68.27
327.666	96.94
327.879	8.87
328.092	55.98
328.305	94.89
328.518	47.79
328.731	17.07
328.944	58.03
329.157	27.31
329.37	-13.65
329.583	82.6
329.796	53.93
330.009	-27.99
330.222	98.99
330.435	41.64
330.648	15.02
330.861	127.66
331.073	25.26
331.286	66.22
331.499	117.42
331.712	15.02
331.925	92.84
332.138	68.27
332.35	72.36
332.563	29.35
332.776	98.99
332.989	66.22
333.202	12.97
333.414	31.4
333.627	66.22
333.84	15.02
334.053	45.74
334.265	98.99
334.478	-7.51
334.691	29.35
334.903	-15.7
335.116	58.03
335.329	68.27
335.541	96.94
335.754	37.55
335.966	90.79
336.179	72.36
336.392	55.98
336.604	41.64
336.817	82.6
337.029	33.45
337.242	109.22
337.454	-7.51
337.667	139.94
337.88	53.93
338.092	86.7
338.305	76.46
338.517	25.26
338.729	19.11
338.942	139.94
339.154	101.03
339.367	80.55
339.579	64.17
339.792	60.07
340.004	107.18
340.217	39.59
340.429	58.03
340.641	-17.75
340.854	10.92
341.066	33.45
341.278	90.79
341.491	107.18
341.703	80.55
341.915	25.26
342.128	33.45
342.34	23.21
342.552	47.79
342.764	70.31
342.977	82.6
343.189	58.03
343.401	-48.47
343.613	55.98
343.826	66.22
344.038	35.5
344.25	62.12
344.462	98.99
344.674	17.07
344.886	45.74
345.099	4.78
345.311	49.83
345.523	78.51
345.735	-9.56
345.947	72.36
346.159	49.83
346.371	49.83
346.583	47.79
346.795	174.76
347.007	37.55
347.219	51.88
347.431	4.78
347.643	90.79
347.855	-15.7
348.067	53.93
348.279	-15.7
348.491	86.7
348.703	39.59
348.915	58.03
349.127	12.97
349.339	4.78
349.551	-15.7
349.763	101.03
349.975	17.07
350.187	49.83
350.399	113.32
350.61	101.03
350.822	41.64
351.034	84.65
351.246	72.36
351.458	84.65
351.669	86.7
351.881	17.07
352.093	74.41
352.305	29.35
352.517	84.65
352.728	107.18
352.94	37.55
353.152	96.94
353.363	23.21
353.575	82.6
353.787	96.94
353.999	39.59
354.21	58.03
354.422	-3.41
354.633	55.98
354.845	55.98
355.057	80.55
355.268	15.02
355.48	47.79
355.692	12.97
355.903	47.79
356.115	58.03
356.326	31.4
356.538	115.37
356.749	76.46
356.961	45.74
357.172	113.32
357.384	51.88
357.595	74.41
357.807	131.75
358.018	49.83
358.23	82.6
358.441	33.45
358.653	92.84
358.864	0.68
359.075	25.26
359.287	33.45
359.498	49.83
359.709	84.65
359.921	117.42
360.132	86.7
360.344	53.93
360.555	51.88
360.766	60.07
360.977	33.45
361.189	125.61
361.4	82.6
361.611	84.65
361.823	41.64
362.034	-7.51
362.245	-15.7
362.456	131.75
362.667	66.22
362.879	78.51
363.09	6.83
363.301	49.83
363.512	23.21
363.723	90.79
363.935	31.4
364.146	86.7
364.357	84.65
364.568	31.4
364.779	19.11
364.99	41.64
365.201	66.22
365.412	121.51
365.623	72.36
365.834	-1.37
366.045	82.6
366.256	21.16
366.467	62.12
366.678	60.07
366.889	-7.51
367.1	51.88
367.311	107.18
367.522	111.27
367.733	45.74
367.944	64.17
368.155	27.31
368.366	33.45
368.577	90.79
368.788	107.18
368.999	58.03
369.209	86.7
369.42	39.59
369.631	172.71
369.842	37.55
370.053	49.83
370.264	92.84
370.474	70.31
370.685	70.31
370.896	23.21
371.107	6.83
371.317	41.64
371.528	58.03
371.739	96.94
371.95	137.9
372.16	41.64
372.371	39.59
372.582	148.14
372.792	98.99
373.003	103.08
373.214	113.32
373.424	60.07
373.635	82.6
373.846	144.04
374.056	66.22
374.267	-7.51
374.477	92.84
374.688	80.55
374.898	84.65
375.109	43.69
375.319	72.36
375.53	86.7
375.74	88.75
375.951	70.31
376.161	49.83
376.372	72.36
376.582	49.83
376.793	51.88
377.003	107.18
377.214	78.51
377.424	98.99
377.635	98.99
377.845	39.59
378.055	25.26
378.266	-1.37
378.476	154.28
378.686	51.88
378.897	33.45
379.107	113.32
379.317	74.41
379.528	49.83
379.738	80.55
379.948	15.02
380.158	62.12
380.369	105.13
380.579	88.75
380.789	21.16
380.999	78.51
381.21	82.6
381.42	70.31
381.63	60.07
381.84	152.23
382.05	8.87
382.261	123.56
382.471	119.46
382.681	19.11
382.891	146.09
383.101	96.94
383.311	-23.89
383.521	64.17
383.731	84.65
383.941	86.7
384.151	39.59
384.361	29.35
384.571	58.03
384.781	86.7
384.991	131.75
385.201	197.29
385.411	80.55
385.621	115.37
385.831	98.99
386.041	103.08
386.251	17.07
386.461	64.17
386.671	45.74
386.881	105.13
387.091	66.22
387.301	41.64
387.511	90.79
387.72	72.36
387.93	70.31
388.14	-3.41
388.35	64.17
388.56	70.31
388.769	111.27
388.979	96.94
389.189	-7.51
389.399	-19.8
389.609	86.7
389.818	107.18
390.028	88.75
390.238	123.56
390.447	86.7
390.657	66.22
390.867	111.27
391.076	103.08
391.286	49.83
391.496	43.69
391.705	82.6
391.915	66.22
392.125	123.56
392.334	131.75
392.544	156.33
392.753	107.18
392.963	51.88
393.172	164.52
393.382	123.56
393.591	141.99
393.801	72.36
394.01	123.56
394.22	76.46
394.429	53.93
394.639	64.17
394.848	121.51
395.058	45.74
395.267	113.32
395.477	158.38
395.686	96.94
395.895	109.22
396.105	178.86
396.314	96.94
396.524	113.32
396.733	86.7
396.942	64.17
397.152	176.81
397.361	262.82
397.57	172.71
397.78	131.75
397.989	156.33
398.198	203.43
398.407	101.03
398.617	111.27
398.826	80.55
399.035	160.42
399.244	146.09
399.453	180.9
399.663	51.88
399.872	146.09
400.081	144.04
400.29	211.62
400.499	86.7
400.708	191.14
400.917	125.61
401.127	107.18
401.336	193.19
401.545	211.62
401.754	199.34
401.963	205.48
402.172	121.51
402.381	107.18
402.59	174.76
402.799	105.13
403.008	203.43
403.217	123.56
403.426	160.42
403.635	146.09
403.844	103.08
404.053	199.34
404.262	185
404.471	164.52
404.68	139.94
404.888	197.29
405.097	74.41
405.306	137.9
405.515	246.44
405.724	144.04
405.933	266.92
406.142	221.86
406.35	127.66
406.559	139.94
406.768	252.58
406.977	205.48
407.185	244.39
407.394	219.82
407.603	254.63
407.812	256.68
408.02	209.58
408.229	246.44
408.438	250.53
408.646	291.49
408.855	264.87
409.064	305.83
409.272	344.74
409.481	342.69
409.69	260.77
409.898	324.26
410.107	375.46
410.315	373.41
410.524	416.42
410.733	408.23
410.941	291.49
411.15	436.9
411.358	395.94
411.567	414.37
411.775	387.75
411.984	418.47
412.192	471.72
412.401	504.48
412.609	541.35
412.818	668.32
413.026	619.17
413.234	578.21
413.443	551.59
413.651	606.88
413.86	627.36
414.068	643.74
414.276	701.09
414.485	740
414.693	744.1
414.901	803.49
415.11	809.63
415.318	793.25
415.526	809.63
415.734	873.12
415.943	860.83
416.151	860.83
416.359	1049.24
416.567	866.97
416.776	1012.38
416.984	1032.86
417.192	1168.02
417.4	1114.78
417.608	1180.31
417.817	1122.97
418.025	1256.09
418.233	1315.48
418.441	1204.89
418.649	1376.92
418.857	1362.58
419.065	1426.07
419.273	1430.16
419.481	1505.94
419.689	1585.81
419.897	1604.24
420.105	1634.96
420.313	1794.7
420.521	1897.1
420.729	1811.09
420.937	1905.29
421.145	1899.15
421.353	2144.91
421.561	2175.63
421.769	2200.2
421.977	2155.15
422.185	2292.36
422.393	2366.09
422.601	2597.51
422.809	2454.15
423.017	2534.02
423.224	2695.81
423.432	2798.21
423.64	2945.66
423.848	2933.37
424.056	3015.29
424.263	3148.41
424.471	3078.78
424.679	3111.55
424.887	3392.12
425.094	3496.57
425.302	3465.85
425.51	3586.68
425.718	3768.95
425.925	3906.16
426.133	3955.31
426.341	4233.83
426.548	4315.75
426.756	4264.55
426.964	4428.39
427.171	4571.75
427.379	4776.55
427.586	4878.94
427.794	4977.25
428.001	5347.93
428.209	5501.53
428.417	5313.11
428.624	5655.12
428.832	5808.72
429.039	5698.13
429.247	5808.72
429.454	6398.54
429.662	6734.4
429.869	6257.23
430.076	6664.77
430.284	6429.26
430.491	6722.12
430.699	7117.37
430.906	7049.79
431.114	7268.92
431.321	7453.24
431.528	7596.6
431.736	8004.14
431.943	8421.93
432.15	8206.89
432.358	8530.47
432.565	8796.71
432.772	8778.28
432.979	9263.65
433.187	9417.24
433.394	9474.59
433.601	9722.39
433.808	10058.26
434.016	10105.36
434.223	10310.16
434.43	10838.53
434.637	10988.03
434.844	11401.72
435.052	11588.09
435.259	11647.48
435.466	12007.92
435.673	11645.43
435.88	12513.77
436.087	13085.15
436.294	13017.57
436.501	12790.25
436.708	13019.62
436.915	13287.9
437.122	14080.47
437.329	13992.41
437.537	14348.75
437.743	14690.76
437.95	14432.72
438.157	15251.91
438.364	15821.24
438.571	15735.23
438.778	15874.49
438.985	17359.27
439.192	16908.71
439.399	17267.11
439.606	16693.68
439.813	17951.13
440.02	19075.46
440.227	18375.06
440.433	18287
440.64	18981.26
440.847	18854.28
441.054	19247.49
441.261	20511.09
441.467	20316.53
441.674	20898.16
441.881	21449.06
442.088	21381.48
442.294	21090.66
442.501	21829.98
442.708	22102.36
442.914	23013.71
443.121	23824.7
443.328	23296.33
443.534	24889.65
443.741	24099.13
443.948	24095.03
444.154	25524.52
444.361	25448.74
444.568	25690.4
444.774	25727.27
444.981	26100
445.187	26603.8
445.394	27986.18
445.6	27660.55
445.807	30130.4
446.013	28543.22
446.22	29481.19
446.426	30195.93
446.633	30693.59
446.839	31682.76
447.046	30146.78
447.252	31693
447.459	31711.43
447.665	32170.18
447.871	33349.81
448.078	34697.37
448.284	32979.12
448.491	33765.54
448.697	35088.53
448.903	35391.63
449.11	35719.31
449.316	35096.72
449.522	35502.22
449.728	37169.27
449.935	37021.81
450.141	36710.52
450.347	37726.32
450.553	36384.9
450.76	36991.09
450.966	38187.11
451.172	37810.28
451.378	38725.72
451.584	37496.94
451.791	38781.02
451.997	38803.55
452.203	39149.65
452.409	39114.84
452.615	38623.33
452.821	37212.27
453.027	37202.03
453.233	39037.01
453.44	37118.07
453.646	37843.05
453.852	37779.56
454.058	38668.38
454.264	36960.37
454.47	37978.22
454.676	37068.92
454.882	38246.5
455.088	34990.23
455.294	35594.38
455.5	35940.49
455.705	36364.42
455.911	35014.8
456.117	34377.89
456.323	33448.11
456.529	31887.56
456.735	33102
456.941	32614.58
457.147	32143.55
457.352	31125.71
457.558	30537.94
457.764	30685.4
457.97	30089.44
458.176	29382.89
458.381	29405.42
458.587	28219.64
458.793	27803.91
458.999	26321.18
459.204	28352.76
459.41	27490.57
459.616	25598.24
459.821	25633.06
460.027	25745.7
460.233	25278.76
460.438	24004.92
460.644	24324.41
460.85	23163.21
461.055	22860.11
461.261	22589.78
461.466	21094.76
461.672	20525.43
461.878	22145.37
462.083	20400.5
462.289	20033.91
462.494	19646.85
462.7	18985.35
462.905	18373.01
463.111	19329.41
463.316	19153.29
463.522	18626.96
463.727	18725.26
463.932	18823.56
464.138	18782.6
464.343	18483.6
464.549	18227.6
464.754	18798.99
464.959	18450.83
465.165	18235.8
465.37	17787.29
465.575	17211.81
465.781	18102.68
465.986	17961.37
466.191	17432.99
466.397	16851.37
466.602	16009.65
466.807	16877.99
467.012	16984.49
467.218	16882.09
467.423	16798.12
467.628	16390.58
467.833	17351.07
468.038	16554.41
468.244	16079.29
468.449	16710.06
468.654	16269.75
468.859	16071.09
469.064	15983.03
469.269	15524.29
469.474	15327.68
469.679	15808.95
469.885	15122.88
470.09	15440.32
470.295	15628.73
470.5	15139.27
470.705	15192.51
470.91	14901.7
471.115	14766.54
471.32	14836.17
471.525	14760.39
471.73	14430.67
471.935	14459.34
472.139	14027.22
472.344	14084.56
472.549	13992.41
472.754	13783.51
472.959	13423.07
473.164	13095.39
473.369	12960.23
473.574	13591
473.778	13429.21
473.983	13210.08
474.188	12997.09
474.393	12575.21
474.598	12724.71
474.802	12642.79
475.007	12571.11
475.212	12607.98
475.417	12122.61
475.621	12444.14
475.826	12198.38
476.031	11792.89
476.235	11602.43
476.44	11919.86
476.645	11471.36
476.849	11645.43
477.054	11354.62
477.259	11168.26
477.463	11360.77
477.668	11014.66
477.872	11168.26
478.077	11145.73
478.282	10725.89
478.486	10711.56
478.691	10469.9
478.895	10461.71
479.1	10482.19
479.304	10545.67
479.509	10056.21
479.713	10340.88
479.918	10250.77
480.122	9910.8
480.326	10140.18
480.531	10242.57
480.735	9880.08
480.94	9941.52
481.144	10279.44
481.348	9875.99
481.553	10052.11
481.757	9595.42
481.961	9884.18
482.166	10011.15
482.37	10043.92
482.574	9732.63
482.778	9714.2
482.983	10007.06
483.187	9867.8
483.391	9634.33
483.595	9761.3
483.8	9730.58
484.004	9794.07
484.208	9617.94
484.412	9710.1
484.616	9980.43
484.821	9859.6
485.025	9511.45
485.229	9994.77
485.433	9757.21
485.637	9695.77
485.841	9902.61
486.045	9454.11
486.249	9486.87
486.453	9560.6
486.657	9669.14
486.861	9650.71
487.065	9644.57
487.269	9556.5
487.473	9728.53
487.677	9820.69
487.881	9755.16
488.085	9775.64
488.289	9984.53
488.493	9585.18
488.697	9830.93
488.901	9804.31
489.105	9843.22
489.309	9749.01
489.512	9800.21
489.716	9753.11
489.92	9828.88
490.124	9902.61
490.328	9896.47
490.531	9828.88
490.735	9951.76
490.939	9962
491.143	10117.65
491.346	9972.24
491.55	10252.81
491.754	10088.98
491.958	10207.76
492.161	10076.69
492.365	10387.98
492.569	10490.38
492.772	10277.39
492.976	10398.22
493.18	10394.12
493.383	10492.43
493.587	10641.93
493.79	10797.57
493.994	10537.48
494.197	10600.97
494.401	10816.01
494.605	10813.96
494.808	11014.66
495.012	10760.71
495.215	11229.7
495.419	11297.28
495.622	11008.51
495.825	11256.32
496.029	11321.85
496.232	11557.37
496.436	11577.85
496.639	11948.53
496.843	11858.42
497.046	11950.58
497.249	12063.22
497.453	12124.66
497.656	12335.6
497.859	12128.75
498.063	12493.29
498.266	12782.06
498.469	12743.14
498.673	12882.41
498.876	12771.82
499.079	13142.5
499.282	13132.26
499.485	13464.03
499.689	13320.67
499.892	13683.16
500.095	13713.88
500.298	14064.08
500.501	13892.05
500.705	14432.72
500.908	14541.26
501.111	14643.66
501.314	14776.78
501.517	14918.09
501.72	15169.99
501.923	15002.05
502.126	15409.6
502.329	15761.85
502.532	15741.37
502.735	16036.28
502.938	16206.26
503.141	16308.66
503.344	16531.89
503.547	16302.51
503.75	16689.58
503.953	16935.34
504.156	16896.42
504.359	17213.86
504.562	17559.97
504.765	17482.14
504.968	17828.25
505.17	18088.34
505.373	18270.61
505.576	18330
505.779	18596.24
505.982	18741.64
506.185	19050.89
506.387	19073.42
506.59	19444.1
506.793	19628.42
506.996	19753.34
507.198	20449.65
507.401	20038.01
507.604	20568.43
507.807	20621.68
508.009	20531.57
508.212	20980.07
508.415	21201.26
508.617	21565.79
508.82	21553.51
509.022	21598.56
509.225	21807.45
509.428	22356.31
509.63	22374.74
509.833	22876.49
510.035	23109.96
510.238	22690.13
510.44	23353.67
510.643	23568.71
510.845	23791.94
511.048	23734.59
511.25	24045.88
511.453	24570.16
511.655	25159.98
511.858	24764.72
512.06	25121.07
512.262	25489.7
512.465	25473.32
512.667	26151.2
512.87	26056.99
513.072	26218.78
513.274	26716.43
513.477	26777.87
513.679	27037.97
513.881	27535.62
514.084	27642.12
514.286	27515.14
514.488	27736.32
514.69	28590.33
514.893	28690.68
515.095	28711.16
515.297	29108.46
515.499	29305.07
515.701	29548.78
515.904	29821.16
516.106	30443.74
516.308	30515.42
516.51	30832.85
516.712	31191.25
516.914	31058.13
517.116	31793.35
517.318	31717.57
517.52	31822.02
517.722	31938.76
517.925	32344.25
518.127	32811.19
518.329	33069.23
518.531	32897.2
518.733	33906.85
518.935	34035.88
519.136	34007.2
519.338	34142.37
519.54	34691.23
519.742	35023
519.944	35123.35
520.146	35809.42
520.348	35659.91
520.55	35895.43
520.752	36423.81
520.954	36894.84
521.155	36601.98
521.357	37132.4
521.559	37728.36
521.761	37836.91
521.963	37417.07
522.164	38060.13
522.366	38344.8
522.568	38652
522.77	38586.46
522.971	39387.22
523.173	39032.92
523.375	39430.22
523.576	39948.36
523.778	40061
523.98	39921.74
524.181	40671.29
524.383	40847.42
524.584	40910.91
524.786	41093.18
524.988	40691.77
525.189	41502.77
525.391	41656.37
525.592	41895.98
525.794	42197.03
525.995	42428.45
526.197	42823.71
526.398	42670.11
526.6	43022.36
526.801	42924.06
527.003	43354.13
527.204	43321.37
527.406	43829.26
527.607	43739.15
527.808	43796.49
528.01	42860.57
528.211	43946
528.412	44515.33
528.614	44115.98
528.815	44617.73
529.016	44593.15
529.218	44429.32
529.419	45133.82
529.62	44890.11
529.822	44961.79
530.023	45049.85
530.224	45244.41
530.425	45246.46
530.626	44914.69
530.828	45101.05
531.029	45795.31
531.23	45193.21
531.431	45508.6
531.632	45717.49
531.833	46211.05
532.035	45885.42
532.236	45783.02
532.437	46098.41
532.638	45758.45
532.839	45979.63
533.04	46024.68
533.241	45549.56
533.442	46471.14
533.643	46321.64
533.844	46206.95
534.045	46710.75
534.246	45510.64
534.447	46555.11
534.648	46389.22
534.849	46800.86
535.05	46116.84
535.251	46694.37
535.451	46340.07
535.652	46514.15
535.853	46475.24
536.054	46630.88
536.255	46942.17
536.456	46122.99
536.657	47286.23
536.857	46229.48
537.058	46266.34
537.259	46903.26
537.46	46917.6
537.66	46739.43
537.861	46954.46
538.062	46641.12
538.263	46852.06
538.463	46575.59
538.664	46782.43
538.865	46753.76
539.065	46864.35
539.266	46280.68
539.466	47288.28
539.667	46598.12
539.868	47173.59
540.068	46774.24
540.269	46647.27
540.469	47204.31
540.67	46555.11
540.87	46528.48
541.071	46229.48
541.271	47247.32
541.472	46782.43
541.672	46591.97
541.873	46188.52
542.073	46499.81
542.274	47290.33
542.474	46614.5
542.675	46409.7
542.875	46391.27
543.075	46585.83
543.276	46467.05
543.476	46784.48
543.676	46718.95
543.877	47132.64
544.077	46610.4
544.277	46557.16
544.478	46630.88
544.678	47140.83
544.878	46563.3
545.078	46974.94
545.279	46194.67
545.479	46331.88
545.679	46514.15
545.879	46462.95
546.079	46565.35
546.28	46245.86
546.48	46424.04
546.68	46901.21
546.88	46862.3
547.08	46841.82
547.28	46241.77
547.48	46237.67
547.68	46458.85
547.88	46188.52
548.081	46677.99
548.281	46600.16
548.481	46249.96
548.681	47122.4
548.881	46206.95
549.081	46497.77
549.28	46362.6
549.48	46753.76
549.68	46589.92
549.88	47015.9
550.08	46225.39
550.28	46604.26
550.48	46000.11
550.68	46868.45
550.88	46241.77
551.08	46215.15
551.279	45989.87
551.479	45938.67
551.679	46274.54
551.879	46108.65
552.079	46733.28
552.278	46329.83
552.478	46213.1
552.678	46170.09
552.878	46415.85
553.077	46094.32
553.277	45760.5
553.477	46548.96
553.676	45744.11
553.876	46047.21
554.076	45606.9
554.275	45854.7
554.475	45563.89
554.674	45780.98
554.874	46366.7
555.074	45934.57
555.273	45705.2
555.473	46151.66
555.672	45729.78
555.872	45836.27
556.071	45627.38
556.271	46155.75
556.47	45500.4
556.67	45385.72
556.869	45236.22
557.068	45742.06
557.268	45385.72
557.467	45266.94
557.667	45447.16
557.866	45363.19
558.065	45522.93
558.265	44734.46
558.464	44810.24
558.663	45432.82
558.863	44763.14
559.062	45496.31
559.261	44505.09
559.461	45527.03
559.66	44544
559.859	44740.61
560.058	44593.15
560.258	44752.9
560.457	43935.76
560.656	44451.84
560.855	44595.2
561.054	44400.65
561.253	44181.51
561.453	44115.98
561.652	44091.4
561.851	44374.02
562.05	43776.01
562.249	43681.81
562.448	43913.23
562.647	43706.38
562.846	43698.19
563.045	44017.68
563.244	42887.2
563.443	43513.87
563.642	43206.68
563.841	43552.79
564.04	43255.83
564.239	43528.21
564.438	42997.79
564.637	43175.96
564.836	43511.83
565.035	42831.9
565.234	43051.03
565.432	42549.28
565.631	42391.59
565.83	42739.74
566.029	42321.96
566.228	42514.47
566.427	42235.94
566.625	42055.72
566.824	41736.24
567.023	42248.23
567.222	41592.88
567.42	42432.55
567.619	41564.21
567.818	41404.47
568.016	41652.27
568.215	41633.84
568.414	41119.8
568.612	41295.92
568.811	40876.09
569.01	41345.08
569.208	40372.29
569.407	41445.43
569.605	40077.38
569.804	41097.27
570.002	40482.88
570.201	40474.69
570.4	40183.88
570.598	40495.17
570.797	39944.27
570.995	40179.78
571.193	39561.29
571.392	40251.46
571.59	39716.94
571.789	39622.73
571.987	39415.89
572.186	39450.7
572.384	39524.43
572.582	39753.8
572.781	39643.21
572.979	38645.85
573.177	39127.13
573.376	39297.11
573.574	38479.97
573.772	39237.72
573.971	38643.81
574.169	38619.23
574.367	38248.55
574.565	38738.01
574.763	38236.26
574.962	37967.98
575.16	37935.21
575.358	38197.35
575.556	37529.71
575.754	37877.86
575.952	37363.82
576.151	37644.4
576.349	37245.04
576.547	37490.8
576.745	37601.39
576.943	37025.91
577.141	37017.72
577.339	37412.98
577.537	36804.73
577.735	37113.97
577.933	36714.62
578.131	36958.33
578.329	36595.84
578.527	36388.99
578.725	36456.57
578.923	36651.13
579.121	36114.56
579.319	36110.47
579.516	36147.33
579.714	35926.15
579.912	35690.63
580.11	35813.51
580.308	35678.35
580.506	35866.76
580.704	35147.92
580.901	35518.6
581.099	35637.39
581.297	35195.03
581.495	35252.37
581.692	35377.29
581.89	34867.35
582.088	35041.43
582.285	34762.9
582.483	35381.39
582.681	35082.39
582.878	34662.55
583.076	33904.81
583.274	34439.33
583.471	33757.35
583.669	34138.27
583.866	33679.53
584.064	34099.36
584.262	33243.31
584.459	34072.74
584.657	33544.36
584.854	33546.41
585.052	33167.54
585.249	33650.86
585.447	33276.08
585.644	33087.67
585.841	33224.88
586.039	33163.44
586.236	32528.57
586.434	32573.63
586.631	32667.83
586.828	32628.92
587.026	32932.02
587.223	32571.58
587.42	32385.21
587.618	32350.4
587.815	32151.74
588.012	31996.1
588.21	31983.81
588.407	32366.78
588.604	31862.98
588.801	31293.65
588.999	31633.61
589.196	31662.28
589.393	31340.75
589.59	31330.51
589.787	31609.03
589.984	30972.11
590.182	30695.64
590.379	31131.86
590.576	31072.46
590.773	31101.14
590.97	30660.82
591.167	30707.93
591.364	30480.6
591.561	30619.86
591.758	30257.37
591.955	30474.46
592.152	30396.63
592.349	30204.13
592.546	30273.76
592.743	29843.68
592.94	29765.86
593.137	29677.8
593.334	29483.24
593.531	29284.59
593.727	29747.43
593.924	29407.47
594.121	29124.85
594.318	29532.39
594.515	28780.79
594.712	29243.63
594.908	29014.26
595.105	28995.82
595.302	28739.83
595.499	28811.51
595.696	28401.91
595.892	28203.26
596.089	28686.58
596.286	28481.78
596.482	28406.01
596.679	28299.51
596.876	28283.13
597.072	28272.89
597.269	28326.14
597.466	27611.4
597.662	27511.05
597.859	27945.22
598.055	27670.79
598.252	27052.3
598.448	27183.37
598.645	27773.19
598.841	27099.41
599.038	27468.04
599.234	27377.93
599.431	27140.36
599.627	27011.34
599.824	27154.7
600.02	26845.46
600.217	26943.76
600.413	26757.39
600.609	26695.96
600.806	26231.07
601.002	26609.94
601.198	26388.76
601.395	26071.32
601.591	26075.42
601.787	26186.01
601.984	25657.64
602.18	26132.76
602.376	25911.58
602.572	25731.36
602.769	25567.52
602.965	25559.33
603.161	25645.35
603.357	25553.19
603.553	24840.5
603.75	25340.2
603.946	25268.52
604.142	25508.13
604.338	25108.78
604.534	24738.1
604.73	24873.26
604.926	24457.53
605.122	24711.47
605.318	24881.46
605.514	24435
605.71	24543.54
605.906	24621.36
606.102	24324.41
606.298	24277.3
606.494	24099.13
606.69	24025.4
606.886	24183.1
607.082	24158.52
607.278	24097.08
607.474	23697.73
607.67	23957.82
607.866	23505.22
608.062	24019.26
608.257	23593.28
608.453	23398.73
608.649	23916.86
608.845	23361.86
609.041	23415.11
609.236	23468.36
609.432	23374.15
609.628	23445.83
609.824	23511.36
610.019	23443.78
610.215	23304.52
610.411	23408.97
610.606	22962.51
610.802	22890.83
610.998	23007.56
611.193	22821.2
611.389	22761.81
611.584	22960.46
611.78	22798.67
611.976	22655.31
612.171	22653.26
612.367	22153.56
612.562	22485.33
612.758	22045.02
612.953	22323.54
613.149	22591.83
613.344	21819.74
613.539	22352.21
613.735	22384.98
613.93	22153.56
614.126	22190.42
614.321	22397.27
614.517	22106.46
614.712	21922.14
614.907	21899.61
615.103	21780.83
615.298	21698.91
615.493	21907.8
615.688	21711.2
615.884	22161.75
616.079	21684.58
616.274	21897.56
616.47	21842.27
616.665	21735.78
616.86	21672.29
617.055	21461.35
617.25	21234.02
617.445	21483.87
617.641	21098.86
617.836	21246.31
618.031	20988.27
618.226	21148.01
618.421	20656.5
618.616	21328.23
618.811	20736.37
619.006	20984.17
619.201	20597.1
619.396	20795.76
619.591	20431.22
619.786	20593.01
619.981	20148.6
620.176	20353.4
620.371	20068.73
620.566	20242.81
620.761	19908.99
620.956	19878.27
621.151	19777.92
621.346	19941.75
621.541	19487.11
621.735	19919.23
621.93	19693.95
622.125	19317.12
622.32	19108.23
622.515	19444.1
622.709	19489.15
622.904	19184.01
623.099	19030.41
623.294	19001.74
623.488	18661.77
623.683	18852.24
623.878	18291.09
624.072	18297.24
624.267	18379.15
624.462	18284.95
624.656	18084.25
624.851	18055.58
625.046	18057.62
625.24	18090.39
625.435	17736.09
625.629	17846.68
625.824	17748.38
626.018	17480.1
626.213	17148.32
626.407	17451.42
626.602	17254.82
626.796	17306.02
626.991	17115.56
627.185	17072.55
627.38	16812.46
627.574	16900.52
627.768	16665
627.963	16599.47
628.157	16382.38
628.352	16361.91
628.546	16202.16
628.74	16382.38
628.935	16361.91
629.129	16110
629.323	15806.91
629.517	15815.1
629.712	15798.71
629.906	15757.75
630.1	15690.17
630.294	15665.6
630.489	15471.04
630.683	15479.23
630.877	15225.28
631.071	15280.58
631.265	15221.19
631.459	15092.16
631.653	14971.33
631.848	14733.77
632.042	14635.47
632.236	14813.64
632.43	14569.93
632.624	14684.62
632.818	14449.1
633.012	14416.33
633.206	14103
633.4	14109.14
633.594	14107.09
633.788	14258.64
633.982	14129.62
634.176	13982.17
634.369	13750.74
634.563	13711.83
634.757	13799.9
634.951	13472.22
635.145	13924.82
635.339	13709.79
635.533	13500.89
635.726	13371.87
635.92	13146.59
636.114	13124.07
636.308	13283.81
636.501	13302.24
636.695	13306.34
636.889	13095.39
637.083	12945.89
637.276	12876.26
637.47	12827.11
637.664	12618.22
637.857	12863.97
638.051	12622.31
638.244	12622.31
638.438	12550.64
638.632	12153.33
638.825	12456.43
639.019	12315.12
639.212	12050.93
639.406	12014.07
639.599	12081.65
639.793	12104.18
639.986	11854.33
640.18	11895.29
640.373	11827.7
640.567	11772.41
640.76	11672.06
640.954	11583.99
641.147	11581.95
641.34	11508.22
641.534	11540.99
641.727	11397.63
641.92	11186.69
642.114	11254.27
642.307	11178.5
642.5	11123.2
642.694	11069.95
642.887	10830.34
643.08	11108.87
643.273	10897.92
643.467	10576.39
643.66	10572.3
643.853	10785.29
644.046	10588.68
644.239	10768.9
644.432	10633.74
644.626	10539.53
644.819	10486.28
645.012	10375.69
645.205	10170.9
645.398	10299.92
645.591	10076.69
645.784	10215.95
645.977	10035.73
646.17	10005.01
646.363	9990.67
646.556	9990.67
646.749	9953.81
646.942	9867.8
647.135	9757.21
647.328	9669.14
647.521	9540.12
647.714	9597.46
647.907	9671.19
648.099	9550.36
648.292	9642.52
648.485	9445.91
648.678	9198.11
648.871	9361.95
649.064	9183.77
649.256	9288.22
649.449	9175.58
649.642	9175.58
649.835	8905.25
650.027	8874.53
650.22	9099.81
650.413	8770.08
650.605	9105.95
650.798	8782.37
650.991	8665.64
651.183	9128.48
651.376	8684.07
651.568	8606.25
651.761	8835.62
651.954	8536.62
652.146	8462.89
652.339	8364.59
652.531	8446.51
652.724	8516.14
652.916	8403.5
653.109	8227.37
653.301	8432.17
653.494	8274.48
653.686	8102.45
653.879	8137.26
654.071	8067.63
654.263	8108.59
654.456	7946.8
654.648	7969.33
654.84	7819.83
655.033	7879.22
655.225	7776.82
655.417	7834.16
655.61	7983.66
655.802	7873.07
655.994	7625.27
656.186	7625.27
656.379	7598.65
656.571	7436.86
656.763	7559.74
656.955	7481.91
657.148	7572.02
657.34	7574.07
657.532	7320.12
657.724	7303.74
657.916	7428.67
658.108	7150.14
658.3	7258.68
658.492	7402.04
658.684	7029.31
658.876	7367.23
659.068	7021.12
659.26	7150.14
659.452	7012.93
659.644	7055.93
659.836	6984.26
660.028	7158.33
660.22	6988.35
660.412	6765.12
660.604	6816.32
660.796	6834.75
660.988	6779.46
661.18	6732.36
661.372	6623.81
661.563	6621.77
661.755	6679.11
661.947	6529.61
662.139	6603.33
662.331	6564.42
662.522	6324.81
662.714	6502.98
662.906	6484.55
663.097	6234.7
663.289	6496.84
663.481	6330.95
663.673	6275.66
663.864	6347.34
664.056	6208.08
664.247	6355.53
664.439	6191.69
664.631	6195.79
664.822	6273.61
665.014	6124.11
665.205	6050.38
665.397	6052.43
665.588	6031.95
665.78	6005.33
665.971	6120.01
666.163	5976.66
666.354	5825.11
666.546	5775.95
666.737	5909.07
666.929	5821.01
667.12	5767.76
667.311	5737.04
667.503	5689.94
667.694	5849.68
667.885	5747.28
668.077	5616.21
668.268	5562.97
668.459	5499.48
668.651	5648.98
668.842	5726.8
669.033	5489.24
669.224	5403.22
669.416	5550.68
669.607	5487.19
669.798	5558.87
669.989	5544.53
670.18	5517.91
670.371	5489.24
670.563	5448.28
670.754	5337.69
670.945	5329.5
671.136	5423.7
671.327	5259.87
671.518	5331.55
671.709	5313.11
671.9	5317.21
672.091	5415.51
672.282	5145.18
672.473	5284.44
672.664	5216.86
672.855	5145.18
673.046	5182.04
673.237	5163.61
673.428	5159.52
673.619	5050.97
673.809	5100.12
674	5272.15
674.191	5069.41
674.382	4960.86
674.573	5200.48
674.764	4971.1
674.954	5055.07
675.145	4946.53
675.336	5012.06
675.527	5169.76
675.717	5087.84
675.908	5030.49
676.099	4905.57
676.289	4967.01
676.48	4782.69
676.671	4835.94
676.861	4989.53
677.052	4848.22
677.243	4850.27
677.433	4827.74
677.624	4928.1
677.814	4889.18
678.005	4780.64
678.195	4915.81
678.386	4813.41
678.576	4848.22
678.767	4874.85
678.957	4903.52
679.148	4807.27
679.338	4670.05
679.529	4864.61
679.719	4835.94
679.909	4809.31
680.1	4856.42
680.29	4782.69
680.481	4813.41
680.671	4844.13
680.861	4663.91
681.052	4579.94
681.242	4747.87
681.432	4663.91
681.622	4579.94
681.813	4854.37
682.003	4645.48
682.193	4573.8
682.383	4749.92
682.573	4627.04
682.764	4729.44
682.954	4784.74
683.144	4711.01
683.334	4547.17
683.524	4629.09
683.714	4801.12
683.904	4489.83
684.094	4612.71
684.284	4618.85
684.474	4598.37
684.664	4579.94
684.854	4481.64
685.044	4389.48
685.234	4412.01
685.424	4579.94
685.614	4512.36
685.804	4584.04
685.994	4495.97
686.184	4512.36
686.374	4375.14
686.564	4577.89
686.753	4551.27
686.943	4446.82
687.133	4532.84
687.323	4217.45
687.513	4514.41
687.702	4375.14
687.892	4223.59
688.082	4221.55
688.272	4332.14
688.461	4307.56
688.651	4336.23
688.841	4293.23
689.03	4311.66
689.22	4110.96
689.41	4209.26
689.599	4070
689.789	4192.87
689.979	4135.53
690.168	4244.07
690.358	3983.98
690.547	4182.63
690.737	4106.86
690.926	4110.96
691.116	3977.84
691.305	4045.42
691.495	4006.51
691.684	3973.74
691.874	3883.63
692.063	3932.78
692.252	3932.78
692.442	4037.23
692.631	3877.49
692.82	3900.02
693.01	3887.73
693.199	3908.21
693.388	3809.9
693.578	3885.68
693.767	3826.29
693.956	3807.86
694.146	3859.06
694.335	3734.13
694.524	3809.9
694.713	3793.52
694.902	3773.04
695.092	3891.82
695.281	3795.57
695.47	3699.31
695.659	3793.52
695.848	3740.27
696.037	3752.56
696.226	3699.31
696.415	3662.45
696.604	3805.81
696.793	3547.76
696.982	3621.49
697.171	3621.49
697.36	3709.55
697.549	3625.59
697.738	3687.03
697.927	3603.06
698.116	3709.55
698.305	3584.63
698.494	3635.83
698.683	3545.72
698.872	3689.07
699.061	3711.6
699.25	3633.78
699.438	3701.36
699.627	3637.88
699.816	3660.4
700.005	3588.72
700.193	3654.26
700.382	3570.29
700.571	3549.81
700.76	3662.45
700.948	3611.25
701.137	3500.66
701.326	3494.52
701.514	3498.61
701.703	3639.92
701.892	3578.48
702.08	3551.86
702.269	3547.76
702.457	3566.2
702.646	3592.82
702.834	3596.92
703.023	3465.85
703.212	3607.16
703.4	3549.81
703.589	3549.81
703.777	3535.48
703.965	3465.85
704.154	3500.66
704.342	3537.52
704.531	3547.76
704.719	3525.24
704.907	3695.22
705.096	3562.1
705.284	3576.44
705.472	3441.27
705.661	3543.67
705.849	3539.57
706.037	3553.91
706.226	3504.76
706.414	3607.16
706.602	3388.02
706.79	3537.52
706.979	3576.44
707.167	3594.87
707.355	3488.37
707.543	3437.17
707.731	3523.19
707.919	3543.67
708.107	3502.71
708.296	3486.33
708.484	3474.04
708.672	3498.61
708.86	3465.85
709.048	3519.09
709.236	3488.37
709.424	3441.27
709.612	3453.56
709.8	3424.89
709.988	3504.76
710.176	3525.24
710.364	3682.93
710.551	3449.46
710.739	3304.06
710.927	3531.38
711.115	3377.78
711.303	3494.52
711.491	3357.3
711.679	3461.75
711.866	3531.38
712.054	3478.13
712.242	3471.99
712.43	3646.07
712.617	3474.04
712.805	3463.8
712.993	3463.8
713.181	3549.81
713.368	3461.75
713.556	3408.5
713.744	3332.73
713.931	3484.28
714.119	3510.9
714.306	3551.86
714.494	3570.29
714.682	3492.47
714.869	3506.81
715.057	3496.57
715.244	3545.72
715.432	3551.86
715.619	3449.46
715.807	3406.45
715.994	3375.74
716.182	3463.8
716.369	3451.51
716.556	3482.23
716.744	3385.97
716.931	3480.18
717.119	3410.55
717.306	3428.98
717.493	3515
717.681	3512.95
717.868	3439.22
718.055	3439.22
718.242	3558
718.43	3437.17
718.617	3428.98
718.804	3545.72
718.991	3535.48
719.179	3467.89
719.366	3551.86
719.553	3428.98
719.74	3441.27
719.927	3498.61
720.114	3510.9
720.301	3512.95
720.488	3515
720.676	3508.85
720.863	3463.8
721.05	3566.2
721.237	3555.96
721.424	3457.65
721.611	3498.61
721.798	3414.65
721.985	3445.37
722.172	3439.22
722.358	3295.86
722.545	3353.21
722.732	3375.74
722.919	3422.84
723.106	3392.12
723.293	3476.09
723.48	3404.41
723.667	3431.03
723.853	3459.7
724.04	3428.98
724.227	3433.08
724.414	3492.47
724.6	3275.38
724.787	3371.64
724.974	3324.54
725.161	3457.65
725.347	3457.65
725.534	3457.65
725.72	3332.73
725.907	3490.42
726.094	3463.8
726.28	3373.69
726.467	3469.94
726.653	3379.83
726.84	3424.89
727.027	3484.28
727.213	3347.06
727.4	3363.45
727.586	3486.33
727.773	3424.89
727.959	3283.58
728.145	3492.47
728.332	3361.4
728.518	3324.54
728.705	3351.16
728.891	3388.02
729.077	3463.8
729.264	3342.97
729.45	3375.74
729.636	3302.01
729.823	3340.92
730.009	3455.61
730.195	3342.97
730.382	3355.26
730.568	3355.26
730.754	3336.82
730.94	3330.68
731.126	3314.3
731.313	3422.84
731.499	3312.25
731.685	3291.77
731.871	3347.06
732.057	3267.19
732.243	3324.54
732.429	3287.67
732.615	3240.57
732.801	3334.78
732.987	3265.14
733.173	3408.5
733.359	3170.94
733.545	3164.79
733.731	3299.96
733.917	3181.18
734.103	3183.23
734.289	3334.78
734.475	3125.88
734.661	3191.42
734.847	3312.25
735.033	3222.14
735.219	3265.14
735.404	3273.34
735.59	3306.1
735.776	3097.21
735.962	3328.63
736.148	3324.54
736.333	3150.46
736.519	3129.98
736.705	3281.53
736.89	3189.37
737.076	3181.18
737.262	3091.07
737.447	3226.23
737.633	3146.36
737.819	3148.41
738.004	3181.18
738.19	3050.11
738.375	3070.59
738.561	3228.28
738.747	3054.2
738.932	3107.45
739.118	3058.3
739.303	3070.59
739.489	3132.03
739.674	3007.1
739.859	3095.16
740.045	3025.53
740.23	3101.31
740.416	2904.7
740.601	3111.55
740.786	2960
740.972	2882.17
741.157	3035.77
741.342	3064.44
741.528	2919.04
741.713	2896.51
741.898	2894.46
742.084	2894.46
742.269	2886.27
742.454	2886.27
742.639	2996.86
742.824	2800.26
743.01	2794.11
743.195	2785.92
743.38	2812.54
743.565	2835.07
743.75	2802.3
743.935	2843.26
744.12	2845.31
744.305	2663.04
744.49	2761.34
744.675	2773.63
744.86	2738.82
745.045	2687.62
745.23	2681.47
745.415	2777.73
745.6	2683.52
745.785	2759.3
745.97	2660.99
746.155	2548.36
746.34	2554.5
746.525	2587.27
746.71	2611.84
746.895	2577.03
747.079	2439.81
747.264	2591.36
747.449	2478.72
747.634	2552.45
747.819	2470.53
748.003	2374.28
748.188	2419.33
748.373	2333.32
748.557	2400.9
748.742	2357.89
748.927	2429.57
749.111	2359.94
749.296	2448.01
749.481	2314.89
749.665	2341.51
749.85	2329.22
750.034	2405
750.219	2222.73
750.404	2218.63
750.588	2230.92
750.773	2241.16
750.957	2263.69
751.141	2146.95
751.326	2144.91
751.51	2232.97
751.695	2110.09
751.879	2218.63
752.064	2146.95
752.248	2134.67
752.432	2095.75
752.617	2128.52
752.801	2065.04
752.985	2112.14
753.17	2013.84
753.354	2003.6
753.538	1938.06
753.722	1993.36
753.907	1987.21
754.091	1936.01
754.275	1948.3
754.459	1995.4
754.643	1866.38
754.828	1958.54
755.012	1976.97
755.196	1759.89
755.38	1825.42
755.564	1784.46
755.748	1780.37
755.932	1847.95
756.116	1763.98
756.3	1776.27
756.484	1751.7
756.668	1749.65
756.852	1659.54
757.036	1637.01
757.22	1684.11
757.404	1788.56
757.588	1657.49
757.772	1692.3
757.956	1624.72
758.14	1739.41
758.323	1612.43
758.507	1651.35
758.691	1632.91
758.875	1706.64
759.059	1657.49
759.242	1589.91
759.426	1563.28
759.61	1546.9
759.794	1583.76
759.977	1608.34
760.161	1655.44
760.345	1641.11
760.528	1514.13
760.712	1569.43
760.895	1663.63
761.079	1634.96
761.263	1454.74
761.446	1421.97
761.63	1598.1
761.813	1483.41
761.997	1495.7
762.18	1499.8
762.364	1469.08
762.547	1483.41
762.731	1419.92
762.914	1557.14
763.098	1262.23
763.281	1434.26
763.464	1454.74
763.648	1479.32
763.831	1467.03
764.015	1415.83
764.198	1364.63
764.381	1385.11
764.564	1442.45
764.748	1389.21
764.931	1315.48
765.114	1381.01
765.297	1299.09
765.481	1378.97
765.664	1272.47
765.847	1417.88
766.03	1370.77
766.213	1348.25
766.397	1352.34
766.58	1249.94
766.763	1335.96
766.946	1327.77
767.129	1354.39
767.312	1282.71
767.495	1299.09
767.678	1286.81
767.861	1229.46
768.044	1194.65
768.227	1282.71
768.41	1176.22
768.593	1286.81
768.776	1278.62
768.959	1196.7
769.142	1221.27
769.324	1137.31
769.507	1194.65
769.69	1204.89
769.873	1217.18
770.056	1217.18
770.239	1145.5
770.421	1231.51
770.604	1143.45
770.787	1079.96
770.97	1155.74
771.152	1131.16
771.335	1168.02
771.518	1198.74
771.7	1114.78
771.883	1090.2
772.066	1186.46
772.248	1055.39
772.431	981.66
772.613	1057.43
772.796	1079.96
772.978	1061.53
773.161	1108.63
773.343	1082.01
773.526	1108.63
773.708	1077.91
773.891	1016.48
774.073	957.08
774.256	1024.67
774.438	1090.2
774.621	1104.54
774.803	1010.33
774.985	991.9
775.168	963.23
775.35	983.71
775.532	998.04
775.715	957.08
775.897	1051.29
776.079	899.74
776.261	946.84
776.444	965.28
776.626	1004.19
776.808	920.22
776.99	928.41
777.173	905.88
777.355	981.66
777.537	916.12
777.719	809.63
777.901	826.01
778.083	764.57
778.265	832.16
778.447	848.54
778.629	768.67
778.811	823.97
778.993	879.26
779.175	711.33
779.357	799.39
779.539	778.91
779.721	768.67
779.903	737.95
780.085	748.19
780.267	762.53
780.449	752.29
780.631	737.95
780.812	826.01
780.994	799.39
781.176	737.95
781.358	780.96
781.54	709.28
781.721	735.9
781.903	760.48
782.085	770.72
782.267	662.18
782.448	692.9
782.63	733.86
782.812	649.89
782.993	713.38
783.175	752.29
783.357	674.46
783.538	674.46
783.72	604.83
783.901	715.42
784.083	625.31
784.264	629.41
784.446	629.41
784.627	629.41
784.809	613.03
784.99	572.07
785.172	709.28
785.353	594.59
785.535	594.59
785.716	619.17
785.897	500.39
786.079	590.5
786.26	631.46
786.441	631.46
786.623	635.55
786.804	549.54
786.985	555.68
787.167	547.49
787.348	549.54
787.529	572.07
787.71	520.87
787.891	506.53
788.073	543.39
788.254	516.77
788.435	557.73
788.616	494.24
788.797	479.91
788.978	529.06
789.159	582.31
789.34	531.11
789.522	492.2
789.703	531.11
789.884	527.01
790.065	549.54
790.246	514.72
790.427	459.43
790.607	447.14
790.788	500.39
790.969	422.56
791.15	535.2
791.331	471.72
791.512	436.9
791.693	477.86
791.874	383.65
792.054	565.92
792.235	479.91
792.416	506.53
792.597	393.89
792.778	504.48
792.958	492.2
793.139	459.43
793.32	479.91
793.5	422.56
793.681	428.71
793.862	395.94
794.042	406.18
794.223	387.75
794.404	402.08
794.584	361.13
794.765	402.08
794.945	324.26
795.126	428.71
795.306	410.28
795.487	389.8
795.667	443.04
795.848	397.99
796.028	332.45
796.209	414.37
796.389	430.76
796.57	369.32
796.75	352.93
796.93	369.32
797.111	387.75
797.291	275.11
797.471	416.42
797.652	410.28
797.832	332.45
798.012	350.89
798.192	318.12
798.373	359.08
798.553	350.89
798.733	387.75
798.913	357.03
799.093	342.69
799.274	328.36
799.454	305.83
799.634	375.46
799.814	373.41
799.994	299.69
800.174	340.65
800.354	320.17
800.534	367.27
800.714	410.28
800.894	275.11
801.074	379.56
801.254	373.41
801.434	367.27
801.614	318.12
801.794	287.4
801.974	852.64
802.154	285.35
802.334	377.51
802.514	283.3
802.693	297.64
802.873	244.39
803.053	352.93
803.233	410.28
803.413	271.01
803.592	262.82
803.772	283.3
803.952	293.54
804.131	295.59
804.311	275.11
804.491	336.55
804.67	287.4
804.85	246.44
805.03	275.11
805.209	311.97
805.389	301.73
805.568	236.2
805.748	230.06
805.928	211.62
806.107	281.25
806.287	234.15
806.466	191.14
806.646	273.06
806.825	332.45
807.004	236.2
807.184	273.06
807.363	277.16
807.543	268.97
807.722	230.06
807.901	309.93
808.081	254.63
808.26	139.94
808.439	283.3
808.619	279.21
808.798	248.49
808.977	289.45
809.156	223.91
809.336	217.77
809.515	225.96
809.694	225.96
809.873	236.2
810.052	264.87
810.231	293.54
810.411	191.14
810.59	209.58
810.769	156.33
810.948	238.25
811.127	189.1
811.306	279.21
811.485	225.96
811.664	279.21
811.843	279.21
812.022	293.54
812.201	158.38
812.38	164.52
812.559	162.47
812.737	234.15
812.916	207.53
813.095	182.95
813.274	195.24
813.453	156.33
813.632	213.67
813.811	234.15
813.989	156.33
814.168	221.86
814.347	127.66
814.526	205.48
814.704	193.19
814.883	230.06
815.062	234.15
815.24	279.21
815.419	141.99
815.598	252.58
815.776	141.99
815.955	191.14
816.133	178.86
816.312	156.33
816.49	123.56
816.669	271.01
816.847	209.58
817.026	141.99
817.204	119.46
817.383	197.29
817.561	115.37
817.74	170.66
817.918	211.62
818.097	105.13
818.275	172.71
818.453	119.46
818.632	131.75
818.81	197.29
818.988	135.85
819.167	131.75
819.345	131.75
819.523	168.62
819.701	221.86
819.879	203.43
820.058	182.95
820.236	199.34
820.414	160.42
820.592	154.28
820.77	193.19
820.948	76.46
821.127	119.46
821.305	135.85
821.483	191.14
821.661	170.66
821.839	111.27
822.017	66.22
822.195	170.66
822.373	127.66
822.551	141.99
822.729	180.9
822.907	117.42
823.085	187.05
823.262	111.27
823.44	156.33
823.618	115.37
823.796	211.62
823.974	166.57
824.152	139.94
824.329	113.32
824.507	121.51
824.685	137.9
824.863	203.43
825.04	154.28
825.218	131.75
825.396	133.8
825.574	156.33
825.751	160.42
825.929	144.04
826.107	68.27
826.284	107.18
826.462	98.99
826.639	156.33
826.817	88.75
826.994	152.23
827.172	90.79
827.349	205.48
827.527	137.9
827.704	117.42
827.882	121.51
828.059	162.47
828.237	146.09
828.414	182.95
828.591	139.94
828.769	45.74
828.946	96.94
829.124	213.67
829.301	115.37
829.478	144.04
829.655	180.9
829.833	162.47
830.01	119.46
830.187	131.75
830.364	176.81
830.542	121.51
830.719	178.86
830.896	242.34
831.073	119.46
831.25	168.62
831.427	170.66
831.604	150.18
831.782	96.94
831.959	98.99
832.136	92.84
832.313	94.89
832.49	154.28
832.667	119.46
832.844	78.51
833.021	199.34
833.198	74.41
833.374	164.52
833.551	41.64
833.728	43.69
833.905	146.09
834.082	53.93
834.259	74.41
834.436	98.99
834.612	86.7
834.789	113.32
834.966	45.74
835.143	168.62
835.319	139.94
835.496	62.12
835.673	105.13
835.85	125.61
836.026	109.22
836.203	125.61
836.38	21.16
836.556	76.46
836.733	76.46
836.909	158.38
837.086	86.7
837.262	111.27
837.439	107.18
837.616	90.79
837.792	78.51
837.968	82.6
838.145	39.59
838.321	103.08
838.498	49.83
838.674	86.7
838.851	119.46
839.027	131.75
839.203	19.11
839.38	51.88
839.556	53.93
839.732	137.9
839.909	101.03
840.085	125.61
840.261	131.75
840.437	51.88
840.614	74.41
840.79	152.23
840.966	66.22
841.142	82.6
841.318	-3.41
841.494	121.51
841.671	150.18
841.847	127.66
842.023	33.45
842.199	98.99
842.375	103.08
842.551	35.5
842.727	53.93
842.903	90.79
843.079	127.66
843.255	123.56
843.431	8.87
843.607	64.17
843.783	-40.28
843.959	146.09
844.134	94.89
844.31	64.17
844.486	74.41
844.662	80.55
844.838	45.74
845.013	76.46
845.189	62.12
845.365	19.11
845.541	12.97
845.716	-27.99
845.892	148.14
846.068	23.21
846.244	43.69
846.419	109.22
846.595	-9.56
846.77	39.59
846.946	103.08
847.122	96.94
847.297	115.37
847.473	154.28
847.648	15.02
847.824	88.75
847.999	47.79
848.175	182.95
848.35	86.7
848.526	60.07
848.701	86.7
848.876	168.62
849.052	66.22
849.227	49.83
849.403	62.12
849.578	43.69
849.753	23.21
849.929	33.45
850.104	12.97
850.279	27.31
850.454	0.68
850.63	76.46
850.805	58.03
850.98	88.75
851.155	64.17
851.33	31.4
851.505	74.41
851.681	66.22
851.856	12.97
852.031	51.88
852.206	-17.75
852.381	98.99
852.556	45.74
852.731	70.31
852.906	55.98
853.081	41.64
853.256	148.14
853.431	25.26
853.606	78.51
853.781	47.79
853.956	-5.46
854.131	90.79
854.305	-15.7
854.48	49.83
854.655	29.35
854.83	45.74
855.005	58.03
855.18	103.08
855.354	25.26
855.529	70.31
855.704	-68.95
855.879	82.6
856.053	-17.75
856.228	-1.37
856.403	37.55
856.577	41.64
856.752	8.87
856.926	-1.37
857.101	66.22
857.276	74.41
857.45	72.36
857.625	39.59
857.799	45.74
857.974	17.07
858.148	-7.51
858.323	25.26
858.497	86.7
858.672	60.07
858.846	66.22
859.02	49.83
859.195	37.55
859.369	115.37
859.543	-7.51
859.718	-1.37
859.892	109.22
860.066	129.7
860.241	37.55
860.415	23.21
860.589	62.12
860.763	41.64
860.938	41.64
861.112	58.03
861.286	33.45
861.46	29.35
861.634	47.79
861.808	49.83
861.982	72.36
862.157	35.5
862.331	8.87
862.505	58.03
862.679	17.07
862.853	146.09
863.027	19.11
863.201	111.27
863.375	-58.71
863.549	-7.51
863.722	29.35
863.896	64.17
864.07	0.68
864.244	45.74
864.418	45.74
864.592	37.55
864.766	88.75
864.939	47.79
865.113	64.17
865.287	86.7
865.461	101.03
865.634	8.87
865.808	-38.23
865.982	66.22
866.156	-15.7
866.329	6.83
866.503	10.92
866.676	107.18
866.85	51.88
867.024	101.03
867.197	-1.37
867.371	10.92
867.544	29.35
867.718	33.45
867.891	109.22
868.065	49.83
868.238	23.21
868.412	-9.56
868.585	41.64
868.759	21.16
868.932	-7.51
869.105	-3.41
869.279	2.73
869.452	-93.52
869.625	37.55
869.799	41.64
869.972	-11.61
870.145	-27.99
870.319	119.46
870.492	31.4
870.665	-11.61
870.838	78.51
871.011	0.68
871.185	25.26
871.358	49.83
871.531	117.42
871.704	-27.99
871.877	31.4
872.05	86.7
872.223	17.07
872.396	70.31
872.569	37.55
872.742	-36.18
872.915	39.59
873.088	55.98
873.261	39.59
873.434	23.21
873.607	6.83
873.78	49.83
873.953	-11.61
874.126	92.84
874.299	12.97
874.471	-34.13
874.644	39.59
874.817	35.5
874.99	80.55
875.163	15.02
875.335	31.4
875.508	70.31
875.681	-11.61
875.853	66.22
876.026	45.74
876.199	84.65
876.371	66.22
876.544	49.83
876.717	76.46
876.889	-3.41
877.062	29.35
877.234	78.51
877.407	58.03
877.579	33.45
877.752	4.78
877.924	82.6
878.097	21.16
878.269	103.08
878.442	76.46
878.614	33.45
878.786	10.92
878.959	25.26
879.131	21.16
879.303	2.73
879.476	107.18
879.648	39.59
879.82	-17.75
879.993	33.45
880.165	0.68
880.337	-21.85
880.509	10.92
880.681	41.64
880.854	21.16
881.026	62.12
881.198	35.5
881.37	55.98
881.542	43.69
881.714	74.41
881.886	80.55
882.058	72.36
882.23	82.6
882.402	33.45
882.574	72.36
882.746	29.35
882.918	103.08
883.09	47.79
883.262	37.55
883.434	21.16
883.606	19.11
883.778	55.98
883.95	72.36
884.122	39.59
884.293	31.4
884.465	-3.41
884.637	58.03
884.809	58.03
884.98	49.83
885.152	-11.61
885.324	47.79
885.496	72.36
885.667	66.22
885.839	21.16
886.011	8.87
886.182	37.55
886.354	6.83
886.525	45.74
886.697	33.45
886.869	-11.61
887.04	66.22
887.212	23.21
887.383	82.6
887.555	55.98
887.726	33.45
887.897	10.92
888.069	25.26
888.24	-19.8
888.412	-56.66
888.583	17.07
888.754	58.03
888.926	-42.32
889.097	15.02
889.268	-42.32
889.44	-19.8
889.611	0.68
889.782	74.41
889.953	4.78
890.125	43.69
890.296	29.35
890.467	-34.13
890.638	33.45
890.809	-34.13
890.98	45.74
891.151	58.03
891.323	80.55
891.494	47.79
891.665	8.87
891.836	-13.65
892.007	-42.32
892.178	90.79
892.349	2.73
892.52	15.02
892.691	27.31
892.862	-36.18
893.032	19.11
893.203	21.16
893.374	-1.37
893.545	8.87
893.716	-11.61
893.887	58.03
894.057	47.79
894.228	-27.99
894.399	90.79
894.57	25.26
894.74	27.31
894.911	-1.37
895.082	47.79
895.253	33.45
895.423	-30.04
895.594	-15.7
895.764	31.4
895.935	29.35
896.106	4.78
896.276	53.93
896.447	12.97
896.617	23.21
896.788	21.16
896.958	-7.51
897.129	21.16
897.299	23.21
897.47	-34.13
897.64	25.26
897.81	-3.41
897.981	43.69
898.151	58.03
898.322	53.93
898.492	10.92
898.662	19.11
898.832	64.17
899.003	12.97
899.173	96.94
899.343	45.74
899.513	-11.61
