Data from USB4F104151__54__10-23-43-274.txt Node

Date: Wed Mar 12 10:23:43 EDT 2025
User: louis
Spectrometer: USB4F10415
Trigger mode: 4
Integration Time (sec): 3.000000E-2
Scans to average: 1
Electric dark correction enabled: true
Nonlinearity correction enabled: false
Boxcar width: 0
XAxis mode: Wavelengths
Number of Pixels in Spectrum: 3648
>>>>>Begin Spectral Data<<<<<
178.204	-88.06
178.424	-88.06
178.644	-88.06
178.864	-153.6
179.084	-81.92
179.304	-49.15
179.524	-26.62
179.744	32.77
179.964	65.53
180.184	28.67
180.404	-20.48
180.624	-71.68
180.844	61.44
181.064	-43.01
181.283	16.38
181.503	-10.24
181.723	16.38
181.943	-43.01
182.163	38.91
182.383	-16.38
182.602	45.06
182.822	-36.86
183.042	43.01
183.262	6.14
183.482	34.82
183.701	6.14
183.921	86.01
184.141	30.72
184.361	43.01
184.58	38.91
184.8	-65.54
185.02	8.19
185.239	45.06
185.459	53.25
185.679	6.14
185.898	6.14
186.118	-38.91
186.338	-2.05
186.557	61.44
186.777	16.38
186.997	18.43
187.216	-40.96
187.436	118.78
187.655	12.29
187.875	40.96
188.095	55.3
188.314	100.35
188.534	110.59
188.753	-34.82
188.973	90.11
189.192	-24.58
189.412	45.06
189.631	59.39
189.851	-10.24
190.07	-16.38
190.29	30.72
190.509	6.14
190.729	-47.1
190.948	90.11
191.168	40.96
191.387	49.15
191.607	-51.2
191.826	6.14
192.045	-90.11
192.265	-69.63
192.484	49.15
192.704	-20.48
192.923	34.82
193.142	32.77
193.362	12.29
193.581	77.82
193.8	65.53
194.02	43.01
194.239	55.3
194.458	55.3
194.678	32.77
194.897	6.14
195.116	10.24
195.335	71.68
195.555	32.77
195.774	10.24
195.993	77.82
196.212	32.77
196.432	94.21
196.651	18.43
196.87	32.77
197.089	71.68
197.308	-2.05
197.528	57.34
197.747	-49.15
197.966	22.53
198.185	40.96
198.404	8.19
198.623	88.06
198.842	22.53
199.062	57.34
199.281	45.06
199.5	12.29
199.719	-8.19
199.938	53.25
200.157	-8.19
200.376	20.48
200.595	12.29
200.814	-12.29
201.033	43.01
201.252	45.06
201.471	-10.24
201.69	12.29
201.909	32.77
202.128	16.38
202.347	40.96
202.566	-34.82
202.785	83.97
203.004	-0
203.223	26.62
203.442	36.86
203.661	12.29
203.879	57.34
204.098	24.58
204.317	22.53
204.536	69.63
204.755	-34.82
204.974	22.53
205.193	-59.39
205.411	16.38
205.63	-0
205.849	20.48
206.068	53.25
206.287	40.96
206.505	61.44
206.724	49.15
206.943	-49.15
207.162	81.92
207.381	18.43
207.599	24.58
207.818	40.96
208.037	36.86
208.255	-49.15
208.474	12.29
208.693	12.29
208.911	53.25
209.13	14.34
209.349	26.62
209.567	47.1
209.786	-6.14
210.005	67.58
210.223	-14.34
210.442	61.44
210.661	6.14
210.879	18.43
211.098	73.73
211.316	-12.29
211.535	16.38
211.753	-4.1
211.972	43.01
212.191	-18.43
212.409	12.29
212.628	36.86
212.846	16.38
213.065	14.34
213.283	16.38
213.502	77.82
213.72	14.34
213.938	-2.05
214.157	63.49
214.375	-26.62
214.594	-16.38
214.812	81.92
215.031	32.77
215.249	-22.53
215.467	-32.77
215.686	-26.62
215.904	40.96
216.122	-22.53
216.341	24.58
216.559	-8.19
216.778	28.67
216.996	67.58
217.214	81.92
217.432	40.96
217.651	-43.01
217.869	-18.43
218.087	28.67
218.306	-24.58
218.524	32.77
218.742	12.29
218.96	69.63
219.179	-51.2
219.397	26.62
219.615	88.06
219.833	-40.96
220.051	14.34
220.27	18.43
220.488	69.63
220.706	-63.49
220.924	12.29
221.142	8.19
221.36	-20.48
221.578	24.58
221.796	4.1
222.015	-8.19
222.233	40.96
222.451	8.19
222.669	-4.1
222.887	57.34
223.105	81.92
223.323	43.01
223.541	-51.2
223.759	45.06
223.977	32.77
224.195	65.53
224.413	-16.38
224.631	-32.77
224.849	6.14
225.067	92.16
225.285	55.3
225.503	49.15
225.721	6.14
225.939	-2.05
226.157	16.38
226.375	86.01
226.592	133.12
226.81	10.24
227.028	40.96
227.246	96.25
227.464	26.62
227.682	49.15
227.9	49.15
228.117	12.29
228.335	30.72
228.553	59.39
228.771	16.38
228.989	59.39
229.206	34.82
229.424	34.82
229.642	-2.05
229.86	22.53
230.077	6.14
230.295	24.58
230.513	6.14
230.731	24.58
230.948	40.96
231.166	43.01
231.384	53.25
231.601	43.01
231.819	51.2
232.037	10.24
232.254	-10.24
232.472	104.45
232.689	12.29
232.907	-14.34
233.125	-14.34
233.342	20.48
233.56	-34.82
233.777	8.19
233.995	18.43
234.213	12.29
234.43	98.3
234.648	61.44
234.865	59.39
235.083	47.1
235.3	106.49
235.518	32.77
235.735	67.58
235.953	73.73
236.17	18.43
236.388	-18.43
236.605	12.29
236.822	40.96
237.04	-2.05
237.257	22.53
237.475	94.21
237.692	30.72
237.909	59.39
238.127	22.53
238.344	-30.72
238.562	28.67
238.779	10.24
238.996	-22.53
239.214	4.1
239.431	59.39
239.648	-16.38
239.865	96.25
240.083	63.49
240.3	8.19
240.517	-0
240.735	61.44
240.952	-16.38
241.169	-0
241.386	36.86
241.603	12.29
241.821	47.1
242.038	90.11
242.255	-24.58
242.472	22.53
242.689	53.25
242.907	116.73
243.124	14.34
243.341	108.54
243.558	28.67
243.775	20.48
243.992	8.19
244.209	30.72
244.426	-24.58
244.643	69.63
244.86	12.29
245.078	40.96
245.295	24.58
245.512	38.91
245.729	69.63
245.946	161.79
246.163	55.3
246.38	34.82
246.597	40.96
246.814	-36.86
247.031	69.63
247.248	69.63
247.464	18.43
247.681	47.1
247.898	59.39
248.115	75.77
248.332	49.15
248.549	49.15
248.766	135.17
248.983	14.34
249.2	8.19
249.417	8.19
249.633	2.05
249.85	67.58
250.067	73.73
250.284	77.82
250.501	4.1
250.717	86.01
250.934	-0
251.151	28.67
251.368	24.58
251.585	57.34
251.801	20.48
252.018	2.05
252.235	65.53
252.451	-10.24
252.668	40.96
252.885	22.53
253.102	59.39
253.318	30.72
253.535	45.06
253.752	-43.01
253.968	34.82
254.185	-49.15
254.401	-4.1
254.618	32.77
254.835	63.49
255.051	-0
255.268	24.58
255.484	47.1
255.701	-6.14
255.917	20.48
256.134	22.53
256.351	28.67
256.567	24.58
256.784	83.97
257	-22.53
257.217	32.77
257.433	65.53
257.65	-12.29
257.866	16.38
258.082	28.67
258.299	8.19
258.515	36.86
258.732	-22.53
258.948	12.29
259.165	83.97
259.381	-45.06
259.597	98.3
259.814	92.16
260.03	65.53
260.246	6.14
260.463	71.68
260.679	51.2
260.895	79.87
261.112	55.3
261.328	57.34
261.544	-81.92
261.761	106.49
261.977	12.29
262.193	-4.1
262.409	61.44
262.626	-10.24
262.842	8.19
263.058	32.77
263.274	-30.72
263.49	45.06
263.707	18.43
263.923	59.39
264.139	20.48
264.355	-14.34
264.571	47.1
264.787	96.25
265.004	61.44
265.22	2.05
265.436	12.29
265.652	-4.1
265.868	30.72
266.084	2.05
266.3	12.29
266.516	34.82
266.732	49.15
266.948	47.1
267.164	77.82
267.38	40.96
267.596	61.44
267.812	75.77
268.028	22.53
268.244	51.2
268.46	40.96
268.676	8.19
268.892	57.34
269.108	14.34
269.324	36.86
269.54	-18.43
269.756	28.67
269.972	61.44
270.188	-30.72
270.403	-26.62
270.619	45.06
270.835	4.1
271.051	36.86
271.267	-12.29
271.483	-49.15
271.698	36.86
271.914	45.06
272.13	8.19
272.346	45.06
272.562	4.1
272.777	106.49
272.993	59.39
273.209	-4.1
273.425	16.38
273.64	-4.1
273.856	12.29
274.072	-0
274.287	-22.53
274.503	51.2
274.719	32.77
274.934	61.44
275.15	-40.96
275.366	38.91
275.581	-43.01
275.797	6.14
276.012	118.78
276.228	-67.58
276.444	28.67
276.659	96.25
276.875	2.05
277.09	4.1
277.306	53.25
277.521	61.44
277.737	-32.77
277.952	-4.1
278.168	2.05
278.383	-6.14
278.599	67.58
278.814	-24.58
279.03	22.53
279.245	24.58
279.461	34.82
279.676	137.21
279.892	-24.58
280.107	-12.29
280.322	14.34
280.538	-24.58
280.753	-14.34
280.969	65.53
281.184	14.34
281.399	36.86
281.615	81.92
281.83	61.44
282.045	-8.19
282.26	-18.43
282.476	90.11
282.691	114.69
282.906	-36.86
283.122	-40.96
283.337	-0
283.552	38.91
283.767	32.77
283.983	40.96
284.198	45.06
284.413	57.34
284.628	83.97
284.843	-24.58
285.058	16.38
285.274	-59.39
285.489	24.58
285.704	59.39
285.919	6.14
286.134	-24.58
286.349	12.29
286.564	-24.58
286.779	55.3
286.995	28.67
287.21	-18.43
287.425	47.1
287.64	36.86
287.855	75.77
288.07	-18.43
288.285	-2.05
288.5	-32.77
288.715	-43.01
288.93	114.69
289.145	94.21
289.36	67.58
289.575	-22.53
289.79	59.39
290.004	8.19
290.219	24.58
290.434	-4.1
290.649	-51.2
290.864	12.29
291.079	4.1
291.294	45.06
291.509	69.63
291.724	12.29
291.938	57.34
292.153	40.96
292.368	-36.86
292.583	69.63
292.798	28.67
293.012	-24.58
293.227	104.45
293.442	53.25
293.657	14.34
293.871	59.39
294.086	-24.58
294.301	100.35
294.516	10.24
294.73	-32.77
294.945	79.87
295.16	-4.1
295.374	90.11
295.589	65.53
295.804	53.25
296.018	86.01
296.233	53.25
296.447	34.82
296.662	14.34
296.877	55.3
297.091	45.06
297.306	30.72
297.52	47.1
297.735	67.58
297.949	86.01
298.164	112.64
298.378	55.3
298.593	57.34
298.807	69.63
299.022	98.3
299.236	49.15
299.451	86.01
299.665	61.44
299.88	47.1
300.094	69.63
300.309	73.73
300.523	-32.77
300.737	79.87
300.952	51.2
301.166	-40.96
301.381	-16.38
301.595	14.34
301.809	49.15
302.024	10.24
302.238	65.53
302.452	61.44
302.667	45.06
302.881	49.15
303.095	88.06
303.309	59.39
303.524	-22.53
303.738	57.34
303.952	-12.29
304.166	49.15
304.381	36.86
304.595	88.06
304.809	4.1
305.023	36.86
305.237	67.58
305.452	26.62
305.666	-0
305.88	14.34
306.094	92.16
306.308	-8.19
306.522	65.53
306.736	106.49
306.95	30.72
307.164	10.24
307.379	-20.48
307.593	24.58
307.807	26.62
308.021	61.44
308.235	94.21
308.449	-49.15
308.663	47.1
308.877	57.34
309.091	12.29
309.305	90.11
309.519	-16.38
309.733	47.1
309.947	16.38
310.161	114.69
310.374	20.48
310.588	102.4
310.802	38.91
311.016	63.49
311.23	-2.05
311.444	-40.96
311.658	47.1
311.872	53.25
312.085	12.29
312.299	96.25
312.513	73.73
312.727	22.53
312.941	38.91
313.154	79.87
313.368	40.96
313.582	20.48
313.796	4.1
314.009	30.72
314.223	75.77
314.437	79.87
314.651	53.25
314.864	49.15
315.078	2.05
315.292	14.34
315.505	12.29
315.719	8.19
315.933	-16.38
316.146	98.3
316.36	-53.25
316.573	-14.34
316.787	47.1
317.001	8.19
317.214	10.24
317.428	8.19
317.641	24.58
317.855	69.63
318.068	81.92
318.282	-63.49
318.495	98.3
318.709	45.06
318.922	-2.05
319.136	-10.24
319.349	53.25
319.563	-14.34
319.776	77.82
319.99	24.58
320.203	69.63
320.417	10.24
320.63	69.63
320.843	147.45
321.057	10.24
321.27	14.34
321.483	83.97
321.697	131.07
321.91	38.91
322.124	18.43
322.337	112.64
322.55	57.34
322.763	10.24
322.977	49.15
323.19	-8.19
323.403	86.01
323.617	53.25
323.83	32.77
324.043	61.44
324.256	32.77
324.469	86.01
324.683	118.78
324.896	57.34
325.109	4.1
325.322	30.72
325.535	53.25
325.748	57.34
325.962	49.15
326.175	59.39
326.388	61.44
326.601	96.25
326.814	38.91
327.027	-32.77
327.24	135.17
327.453	-24.58
327.666	65.53
327.879	22.53
328.092	49.15
328.305	71.68
328.518	79.87
328.731	-45.06
328.944	20.48
329.157	32.77
329.37	-30.72
329.583	108.54
329.796	30.72
330.009	-4.1
330.222	20.48
330.435	45.06
330.648	34.82
330.861	8.19
331.073	32.77
331.286	133.12
331.499	104.45
331.712	6.14
331.925	90.11
332.138	34.82
332.35	69.63
332.563	16.38
332.776	96.25
332.989	-16.38
333.202	-26.62
333.414	57.34
333.627	-12.29
333.84	-2.05
334.053	22.53
334.265	-104.45
334.478	10.24
334.691	59.39
334.903	61.44
335.116	-6.14
335.329	112.64
335.541	-49.15
335.754	83.97
335.966	59.39
336.179	-26.62
336.392	4.1
336.604	36.86
336.817	92.16
337.029	53.25
337.242	81.92
337.454	32.77
337.667	-8.19
337.88	53.25
338.092	26.62
338.305	63.49
338.517	32.77
338.729	59.39
338.942	108.54
339.154	94.21
339.367	63.49
339.579	69.63
339.792	8.19
340.004	36.86
340.217	63.49
340.429	102.4
340.641	-2.05
340.854	-36.86
341.066	69.63
341.278	112.64
341.491	8.19
341.703	88.06
341.915	16.38
342.128	36.86
342.34	-10.24
342.552	63.49
342.764	14.34
342.977	38.91
343.189	-4.1
343.401	22.53
343.613	38.91
343.826	102.4
344.038	114.69
344.25	90.11
344.462	38.91
344.674	63.49
344.886	90.11
345.099	59.39
345.311	45.06
345.523	53.25
345.735	16.38
345.947	53.25
346.159	47.1
346.371	-8.19
346.583	14.34
346.795	73.73
347.007	14.34
347.219	-28.67
347.431	22.53
347.643	18.43
347.855	-20.48
348.067	102.4
348.279	4.1
348.491	30.72
348.703	102.4
348.915	24.58
349.127	114.69
349.339	30.72
349.551	-47.1
349.763	59.39
349.975	40.96
350.187	10.24
350.399	106.49
350.61	102.4
350.822	2.05
351.034	32.77
351.246	94.21
351.458	86.01
351.669	102.4
351.881	67.58
352.093	165.89
352.305	18.43
352.517	63.49
352.728	16.38
352.94	67.58
353.152	-51.2
353.363	-24.58
353.575	16.38
353.787	20.48
353.999	32.77
354.21	26.62
354.422	4.1
354.633	28.67
354.845	108.54
355.057	53.25
355.268	73.73
355.48	28.67
355.692	83.97
355.903	6.14
356.115	55.3
356.326	-8.19
356.538	32.77
356.749	51.2
356.961	106.49
357.172	12.29
357.384	-22.53
357.595	86.01
357.807	81.92
358.018	81.92
358.23	63.49
358.441	129.02
358.653	59.39
358.864	-8.19
359.075	-6.14
359.287	77.82
359.498	92.16
359.709	16.38
359.921	112.64
360.132	98.3
360.344	28.67
360.555	22.53
360.766	110.59
360.977	-28.67
361.189	4.1
361.4	-2.05
361.611	53.25
361.823	53.25
362.034	90.11
362.245	30.72
362.456	12.29
362.667	110.59
362.879	20.48
363.09	83.97
363.301	49.15
363.512	-0
363.723	10.24
363.935	43.01
364.146	75.77
364.357	-51.2
364.568	116.73
364.779	-0
364.99	51.2
365.201	102.4
365.412	63.49
365.623	20.48
365.834	47.1
366.045	86.01
366.256	108.54
366.467	16.38
366.678	57.34
366.889	73.73
367.1	71.68
367.311	71.68
367.522	92.16
367.733	12.29
367.944	59.39
368.155	47.1
368.366	67.58
368.577	88.06
368.788	143.36
368.999	14.34
369.209	141.31
369.42	131.07
369.631	75.77
369.842	38.91
370.053	57.34
370.264	61.44
370.474	-20.48
370.685	104.45
370.896	94.21
371.107	104.45
371.317	83.97
371.528	63.49
371.739	55.3
371.95	38.91
372.16	53.25
372.371	86.01
372.582	88.06
372.792	8.19
373.003	51.2
373.214	67.58
373.424	81.92
373.635	-28.67
373.846	96.25
374.056	45.06
374.267	159.74
374.477	61.44
374.688	30.72
374.898	40.96
375.109	83.97
375.319	120.83
375.53	18.43
375.74	88.06
375.951	83.97
376.161	61.44
376.372	40.96
376.582	-10.24
376.793	69.63
377.003	36.86
377.214	59.39
377.424	90.11
377.635	96.25
377.845	69.63
378.055	112.64
378.266	-51.2
378.476	43.01
378.686	59.39
378.897	69.63
379.107	133.12
379.317	-8.19
379.528	59.39
379.738	129.02
379.948	36.86
380.158	55.3
380.369	16.38
380.579	73.73
380.789	-12.29
380.999	79.87
381.21	24.58
381.42	163.84
381.63	53.25
381.84	45.06
382.05	63.49
382.261	81.92
382.471	172.03
382.681	-8.19
382.891	12.29
383.101	-18.43
383.311	61.44
383.521	86.01
383.731	65.53
383.941	36.86
384.151	24.58
384.361	49.15
384.571	32.77
384.781	24.58
384.991	118.78
385.201	14.34
385.411	73.73
385.621	43.01
385.831	-8.19
386.041	79.87
386.251	18.43
386.461	73.73
386.671	110.59
386.881	59.39
387.091	32.77
387.301	38.91
387.511	71.68
387.72	69.63
387.93	71.68
388.14	118.78
388.35	57.34
388.56	69.63
388.769	49.15
388.979	63.49
389.189	75.77
389.399	59.39
389.609	88.06
389.818	96.25
390.028	8.19
390.238	8.19
390.447	10.24
390.657	131.07
390.867	110.59
391.076	94.21
391.286	81.92
391.496	40.96
391.705	-8.19
391.915	63.49
392.125	75.77
392.334	16.38
392.544	73.73
392.753	53.25
392.963	43.01
393.172	55.3
393.382	53.25
393.591	86.01
393.801	114.69
394.01	65.53
394.22	4.1
394.429	98.3
394.639	34.82
394.848	49.15
395.058	135.17
395.267	53.25
395.477	106.49
395.686	65.53
395.895	137.21
396.105	178.17
396.314	100.35
396.524	131.07
396.733	169.98
396.942	190.46
397.152	81.92
397.361	210.94
397.57	137.21
397.78	88.06
397.989	94.21
398.198	155.65
398.407	38.91
398.617	139.26
398.826	92.16
399.035	122.88
399.244	141.31
399.453	118.78
399.663	153.6
399.872	186.37
400.081	92.16
400.29	186.37
400.499	40.96
400.708	102.4
400.917	202.75
401.127	77.82
401.336	106.49
401.545	155.65
401.754	194.56
401.963	147.45
402.172	155.65
402.381	149.5
402.59	108.54
402.799	229.37
403.008	184.32
403.217	145.41
403.426	196.6
403.635	153.6
403.844	69.63
404.053	212.99
404.262	182.27
404.471	210.94
404.68	147.45
404.888	221.18
405.097	221.18
405.306	186.37
405.515	192.51
405.724	208.89
405.933	188.41
406.142	262.14
406.35	256
406.559	245.76
406.768	163.84
406.977	258.04
407.185	249.85
407.394	202.75
407.603	235.52
407.812	299
408.02	245.76
408.229	278.52
408.438	272.38
408.646	229.37
408.855	274.43
409.064	331.77
409.272	299
409.481	425.98
409.69	339.96
409.898	315.39
410.107	376.83
410.315	354.3
410.524	327.67
410.733	417.79
410.941	434.17
411.15	442.36
411.358	380.92
411.567	505.85
411.775	522.23
411.984	526.33
412.192	442.36
412.401	565.24
412.609	630.77
412.818	516.09
413.026	595.96
413.234	634.87
413.443	606.2
413.651	632.82
413.86	645.11
414.068	641.01
414.276	745.46
414.485	749.56
414.693	767.99
414.901	731.12
415.11	788.47
415.318	813.04
415.526	860.15
415.734	927.73
415.943	997.36
416.151	964.59
416.359	1013.74
416.567	978.93
416.776	1095.66
416.984	1079.28
417.192	1228.78
417.4	1153.01
417.608	1243.12
417.817	1282.03
418.025	1259.5
418.233	1378.28
418.441	1439.72
418.649	1359.85
418.857	1613.8
419.065	1490.92
419.273	1425.39
419.481	1624.04
419.689	1710.05
419.897	1779.68
420.105	1802.21
420.313	1804.26
420.521	1972.19
420.729	1957.86
420.937	2027.49
421.145	2127.84
421.353	2193.37
421.561	2293.72
421.769	2228.19
421.977	2465.75
422.185	2455.51
422.393	2451.42
422.601	2703.32
422.809	2656.22
423.017	2672.6
423.224	2840.53
423.432	2965.46
423.64	2885.59
423.848	3219.41
424.056	3209.17
424.263	3368.91
424.471	3450.83
424.679	3542.99
424.887	3545.03
425.094	3745.73
425.302	3841.99
425.51	3940.29
425.718	3964.87
425.925	4169.66
426.133	4177.86
426.341	4442.04
426.548	4659.13
426.756	4822.97
426.964	4698.04
427.171	4927.41
427.379	5093.3
427.586	5083.06
427.794	5255.09
428.001	5642.15
428.209	5851.05
428.417	5863.33
428.624	6152.1
428.832	6203.3
429.039	6178.72
429.247	6328.22
429.454	6791.06
429.662	7055.25
429.869	6856.6
430.076	7192.47
430.284	6893.46
430.491	7444.37
430.699	7677.83
430.906	7632.78
431.114	7716.75
431.321	8073.09
431.528	8292.23
431.736	8814.46
431.943	9461.62
432.15	9019.25
432.358	9027.45
432.565	9502.57
432.772	9484.14
432.979	9877.35
433.187	10157.92
433.394	10278.76
433.601	10895.19
433.808	11104.09
434.016	10841.95
434.223	11147.09
434.43	12103.5
434.637	11730.76
434.844	12242.76
435.052	12681.02
435.259	12717.89
435.466	12715.84
435.673	12738.37
435.88	13606.7
436.087	13942.57
436.294	14128.94
436.501	13780.78
436.708	13983.53
436.915	14368.55
437.122	15283.99
437.329	15138.58
437.537	15607.57
437.743	15908.62
437.95	15701.78
438.157	16697.09
438.364	17059.58
438.571	17164.03
438.778	17082.11
438.985	18671.33
439.192	18038.51
439.399	18853.6
439.606	18325.22
439.813	19107.55
440.02	20451.02
440.227	20217.55
440.433	19936.98
440.64	20365
440.847	20362.95
441.054	20696.77
441.261	22347.43
441.467	22103.73
441.674	22083.25
441.881	23213.73
442.088	23029.41
442.294	22795.94
442.501	23502.49
442.708	24045.2
442.914	25142.91
443.121	25785.97
443.328	24999.55
443.534	26682.98
443.741	26537.58
443.948	25994.87
444.154	27807.32
444.361	27786.84
444.568	28034.64
444.774	27774.55
444.981	28272.21
445.187	28784.2
445.394	30275.12
445.6	29597.24
445.807	32851.47
446.013	31399.46
446.22	31383.07
446.426	32876.04
446.633	33052.17
446.839	33900.03
447.046	32892.43
447.252	34850.28
447.459	34522.61
447.665	34571.76
447.871	35630.56
448.078	37203.4
448.284	35489.25
448.491	37043.66
448.697	37864.89
448.903	38366.65
449.11	38798.77
449.316	37961.15
449.522	38460.85
449.728	39531.94
449.935	39798.18
450.141	39710.11
450.347	40854.93
450.553	39443.88
450.76	39896.48
450.966	41219.47
451.172	40701.33
451.378	42143.1
451.584	40990.09
451.791	42190.2
451.997	41739.65
452.203	42423.67
452.409	42120.57
452.615	41624.96
452.821	40453.53
453.027	40244.63
453.233	42005.89
453.44	40363.42
453.646	41190.8
453.852	40949.14
454.058	41821.57
454.264	40074.65
454.47	41237.9
454.676	40287.64
454.882	41590.15
455.088	37590.47
455.294	38380.98
455.5	38888.88
455.705	39335.34
455.911	37981.63
456.117	37086.67
456.323	36595.15
456.529	34532.85
456.735	36154.84
456.941	35091.94
457.147	34688.49
457.352	33725.95
457.558	33318.4
457.764	33224.2
457.97	32392.72
458.176	31868.44
458.381	32024.09
458.587	30144.05
458.793	30828.07
458.999	28843.59
459.204	30885.42
459.41	29771.32
459.616	28229.2
459.821	28077.65
460.027	27985.49
460.233	27422.3
460.438	25824.89
460.644	26191.47
460.85	25093.76
461.055	24833.67
461.261	24528.52
461.466	22924.96
461.672	22148.78
461.878	24022.67
462.083	22095.53
462.289	21827.25
462.494	21593.78
462.7	20827.84
462.905	20096.72
463.111	20895.43
463.316	20793.03
463.522	20436.68
463.727	20737.73
463.932	20539.08
464.138	20270.79
464.343	19953.36
464.549	19439.32
464.754	20438.73
464.959	20197.07
465.165	19775.19
465.37	19134.17
465.575	18642.66
465.781	19535.57
465.986	19439.32
466.191	19003.1
466.397	18517.73
466.602	17780.46
466.807	18212.59
467.012	18224.87
467.218	18249.45
467.423	17907.44
467.628	18112.24
467.833	18878.18
468.038	18077.42
468.244	17585.91
468.449	18261.74
468.654	17485.56
468.859	17544.95
469.064	17450.74
469.269	16717.57
469.474	16953.09
469.679	17106.68
469.885	16891.65
470.09	16703.23
470.295	16867.07
470.5	16348.93
470.705	16611.07
470.91	16189.19
471.115	16164.62
471.32	16062.22
471.525	16135.95
471.73	15871.76
471.935	15916.81
472.139	15236.89
472.344	15247.13
472.549	15318.81
472.754	15044.38
472.959	14726.94
473.164	14450.47
473.369	14133.03
473.574	14755.61
473.778	14638.88
473.983	14493.47
474.188	14473
474.393	13788.97
474.598	13643.57
474.802	13700.91
475.007	13602.61
475.212	13483.83
475.417	13055.8
475.621	13213.49
475.826	13244.21
476.031	13031.23
476.235	12891.96
476.44	12992.31
476.645	12769.09
476.849	12666.69
477.054	12650.3
477.259	12521.28
477.463	12377.92
477.668	12128.07
477.872	11999.05
478.077	11962.19
478.282	11730.76
478.486	11738.96
478.691	11593.55
478.895	11659.09
479.1	11505.49
479.304	11388.75
479.509	11075.41
479.713	11437.91
479.918	11122.52
480.122	11065.18
480.326	11243.35
480.531	11097.94
480.735	11069.27
480.94	10934.11
481.144	11251.54
481.348	10833.75
481.553	10913.63
481.757	10508.13
481.961	10735.45
482.166	11056.98
482.37	10915.67
482.574	10733.4
482.778	10788.7
482.983	10735.45
483.187	10805.08
483.391	10919.77
483.595	10633.05
483.8	10800.99
484.004	10653.53
484.208	10702.68
484.412	10645.34
484.616	10727.26
484.821	10770.27
485.025	10661.73
485.229	10956.63
485.433	10643.29
485.637	10866.52
485.841	10501.98
486.045	10450.78
486.249	10665.82
486.453	10657.63
486.657	10735.45
486.861	10743.64
487.065	10407.78
487.269	10760.03
487.473	10477.41
487.677	10719.07
487.881	10710.88
488.085	10692.44
488.289	10909.53
488.493	10547.04
488.697	10731.36
488.901	10817.37
489.105	10764.12
489.309	10854.23
489.512	10983.26
489.716	10807.13
489.92	10794.84
490.124	10837.85
490.328	11089.75
490.531	10835.8
490.735	11104.09
490.939	11007.83
491.143	11163.48
491.346	10944.34
491.55	11229.01
491.754	11194.2
491.958	11255.64
492.161	11181.91
492.365	11292.5
492.569	11171.67
492.772	11194.2
492.976	11585.36
493.18	11673.42
493.383	11499.34
493.587	11630.41
493.79	11765.58
493.994	11620.17
494.197	11962.19
494.401	12033.86
494.605	12011.34
494.808	12146.5
495.012	12289.86
495.215	12216.13
495.419	12474.18
495.622	12291.91
495.825	12625.73
496.029	12343.11
496.232	12832.57
496.436	13002.55
496.639	13039.42
496.843	13061.94
497.046	13131.58
497.249	13442.87
497.453	13561.65
497.656	13463.35
497.859	13778.73
498.063	14012.2
498.266	13942.57
498.469	14237.48
498.673	14116.65
498.876	14372.64
499.079	14612.26
499.282	14509.86
499.485	15191.83
499.689	15122.2
499.892	15333.14
500.095	15464.21
500.298	15802.13
500.501	15462.16
500.705	16027.4
500.908	16105.23
501.111	16385.8
501.314	16430.85
501.517	16547.59
501.72	16721.66
501.923	16924.41
502.126	17024.76
502.329	17637.11
502.532	17344.25
502.735	17551.09
502.938	17780.46
503.141	18165.48
503.344	18183.91
503.547	18394.86
503.75	18773.73
503.953	18833.12
504.156	18910.94
504.359	19224.28
504.562	19402.46
504.765	19838.67
504.968	19941.07
505.17	20080.33
505.373	19799.76
505.576	20543.17
505.779	20684.48
505.982	21036.74
506.185	21341.88
506.387	21440.18
506.59	21575.35
506.793	21960.37
506.996	21913.27
507.198	22720.17
507.401	22494.89
507.604	22892.19
507.807	22998.69
508.009	23168.67
508.212	23072.42
508.415	24034.96
508.617	23848.6
508.82	24413.84
509.022	24194.7
509.225	24960.64
509.428	24970.88
509.63	25257.6
509.833	25603.71
510.035	25665.14
510.238	25771.64
510.44	25992.82
510.643	26373.74
510.845	26963.56
511.048	26748.52
511.25	27090.53
511.453	27190.88
511.655	28210.77
511.858	27774.55
512.06	28094.04
512.262	28458.57
512.465	28438.09
512.667	29017.67
512.87	29115.97
513.072	29017.67
513.274	29687.35
513.477	30357.04
513.679	30363.18
513.881	30619.18
514.084	30883.37
514.286	30809.64
514.488	31327.78
514.69	31716.89
514.893	32112.15
515.095	32040.47
515.297	32820.75
515.499	32640.53
515.701	33211.91
515.904	33746.43
516.106	34149.88
516.308	34127.35
516.51	34229.75
516.712	34620.91
516.914	35288.55
517.116	35593.7
517.318	35433.96
517.52	36107.74
517.722	35843.55
517.925	36605.39
518.127	36892.11
518.329	37373.38
518.531	36980.17
518.733	38104.51
518.935	38309.3
519.136	38014.4
519.338	38960.56
519.54	38733.23
519.742	39476.65
519.944	39265.7
520.146	39904.67
520.348	40564.12
520.55	40727.95
520.752	40777.11
520.954	41391.5
521.155	41211.28
521.357	41811.33
521.559	42184.06
521.761	42640.76
521.963	42489.21
522.164	43249
522.366	42802.55
522.568	43566.44
522.77	43421.03
522.971	44135.77
523.173	44127.58
523.375	44748.12
523.576	44766.55
523.778	45018.45
523.98	45245.77
524.181	45290.83
524.383	45813.06
524.584	46177.6
524.786	46597.43
524.988	45983.04
525.189	47029.55
525.391	47109.43
525.592	47494.44
525.794	47570.22
525.995	47588.65
526.197	47920.42
526.398	47818.02
526.6	48080.16
526.801	48579.87
527.003	48450.84
527.204	48676.12
527.406	49425.68
527.607	49198.35
527.808	49419.53
528.01	48639.26
528.211	49001.75
528.412	49839.37
528.614	49999.11
528.815	50187.52
529.016	50466.05
529.218	50124.04
529.419	50332.93
529.62	50480.38
529.822	50468.09
530.023	50709.75
530.224	50844.92
530.425	50930.93
530.626	50390.27
530.828	50629.88
531.029	51786.99
531.23	50914.55
531.431	51074.29
531.632	51358.96
531.833	51619.05
532.035	51111.16
532.236	51844.33
532.437	51655.92
532.638	51539.18
532.839	51731.69
533.04	51899.62
533.241	51487.98
533.442	52243.68
533.643	52012.26
533.844	51811.56
534.045	52491.49
534.246	51614.96
534.447	52475.1
534.648	52227.3
534.849	52319.46
535.05	51782.89
535.251	52536.54
535.451	52081.89
535.652	52315.36
535.853	52067.56
536.054	52331.75
536.255	52583.65
536.456	51651.82
536.657	52581.6
536.857	52348.13
537.058	52376.8
537.259	52593.89
537.46	52829.4
537.66	52430.05
537.861	52450.53
538.062	52409.57
538.263	52847.83
538.463	52276.45
538.664	52464.86
538.865	52552.93
539.065	52636.89
539.266	52116.71
539.466	52808.92
539.667	52073.7
539.868	53011.67
540.068	52415.71
540.269	52530.4
540.469	52571.36
540.67	52204.77
540.87	52356.32
541.071	52018.41
541.271	52884.7
541.472	52247.78
541.672	52051.17
541.873	52339.94
542.073	52180.2
542.274	52966.62
542.474	52634.84
542.675	52053.22
542.875	52767.96
543.075	52309.22
543.276	51856.62
543.476	52237.54
543.676	52194.53
543.877	52462.82
544.077	52258.02
544.277	52356.32
544.478	51834.09
544.678	52430.05
544.878	52473.06
545.078	52307.17
545.279	52200.68
545.479	51983.59
545.679	51895.53
545.879	52112.61
546.079	52325.6
546.28	52239.59
546.48	51741.93
546.68	52266.21
546.88	52292.83
547.08	52069.61
547.28	51811.56
547.48	52073.7
547.68	52262.11
547.88	51774.7
548.081	52051.17
548.281	51965.16
548.481	52049.13
548.681	51885.29
548.881	52184.29
549.081	51873
549.28	51725.55
549.48	52282.59
549.68	51969.25
549.88	52516.06
550.08	51756.27
550.28	52221.16
550.48	51987.69
550.68	51922.15
550.88	51647.72
551.08	52045.03
551.279	51885.29
551.479	51508.46
551.679	51567.85
551.879	51973.35
552.079	52126.95
552.278	51991.78
552.478	51746.03
552.678	51737.83
552.878	52198.63
553.077	51287.28
553.277	51274.99
553.477	52315.36
553.676	51877.1
553.876	51569.9
554.076	51612.91
554.275	51293.43
554.475	50920.69
554.674	51309.81
554.874	51479.79
555.074	51094.77
555.273	51639.53
555.473	51717.35
555.672	51137.78
555.872	51231.99
556.071	51004.66
556.271	51315.95
556.47	51129.59
556.67	50693.37
556.869	50664.7
557.068	51043.57
557.268	50603.26
557.467	51205.36
557.667	50808.06
557.866	51064.05
558.065	50382.08
558.265	50382.08
558.464	50179.33
558.663	50865.4
558.863	49802.5
559.062	50961.65
559.261	50468.09
559.461	50554.11
559.66	49706.25
559.859	50005.25
560.058	49833.22
560.258	49988.87
560.457	49810.7
560.656	49990.92
560.855	49644.81
561.054	49874.18
561.253	49308.94
561.453	49530.12
561.652	49816.84
561.851	50021.64
562.05	49782.02
562.249	49095.95
562.448	49610
562.647	49147.15
562.846	49497.36
563.045	49325.33
563.244	48743.7
563.443	49427.73
563.642	48483.61
563.841	48733.46
564.04	48524.57
564.239	49050.9
564.438	48637.21
564.637	48555.29
564.836	48629.02
565.035	47879.46
565.234	47908.13
565.432	48194.85
565.631	47736.1
565.83	48080.16
566.029	47813.93
566.228	47695.14
566.427	47250.74
566.625	47480.11
566.824	47211.82
567.023	47574.31
567.222	46624.06
567.42	47344.94
567.619	46851.38
567.818	46990.64
568.016	46427.45
568.215	46859.57
568.414	46044.48
568.612	47256.88
568.811	46423.36
569.01	46310.72
569.208	45905.22
569.407	46286.14
569.605	45974.85
569.804	46204.22
570.002	45868.36
570.201	45942.08
570.4	45237.58
570.598	44926.29
570.797	44879.19
570.995	45657.42
571.193	44778.84
571.392	45196.62
571.59	44660.05
571.789	44615
571.987	44846.42
572.186	44492.12
572.384	43943.27
572.582	44737.88
572.781	44541.27
572.979	43783.52
573.177	43795.81
573.376	44201.31
573.574	43345.26
573.772	43775.33
573.971	43648.36
574.169	43441.51
574.367	43693.41
574.565	43505
574.763	42972.53
574.962	43341.16
575.16	42562.93
575.358	43312.49
575.556	42804.59
575.754	43017.58
575.952	42532.21
576.151	42825.07
576.349	41907.58
576.547	42337.66
576.745	42220.92
576.943	42036.61
577.141	41891.2
577.339	41747.84
577.537	41588.1
577.735	41979.26
577.933	41252.23
578.131	41586.05
578.329	41006.48
578.527	41043.34
578.725	41057.68
578.923	41477.51
579.121	40701.33
579.319	40605.08
579.516	40715.67
579.714	40684.95
579.912	40689.04
580.11	40478.1
580.308	40179.1
580.506	40043.93
580.704	39890.34
580.901	40222.11
581.099	40105.37
581.297	39607.72
581.495	39499.17
581.692	39908.77
581.89	39570.85
582.088	39882.14
582.285	39255.46
582.483	39697.83
582.681	39357.86
582.878	39167.4
583.076	38542.77
583.274	38888.88
583.471	38208.95
583.669	38825.39
583.866	38671.79
584.064	38467
584.262	38026.68
584.459	38204.86
584.657	38180.28
584.854	38141.37
585.052	37563.84
585.249	38182.33
585.447	38227.38
585.644	37467.59
585.841	37438.92
586.039	37301.7
586.236	37146.06
586.434	37049.8
586.631	37152.2
586.828	37103.05
587.026	36914.64
587.223	36955.6
587.42	36855.25
587.618	36853.2
587.815	36511.19
588.012	36507.09
588.21	36679.12
588.407	36691.41
588.604	36081.11
588.801	35907.04
588.999	35919.32
589.196	35833.31
589.393	35616.22
589.59	35845.6
589.787	35433.96
589.984	35429.86
590.182	35407.33
590.379	35517.92
590.576	35556.83
590.773	35184.1
590.97	34432.5
591.167	34909.68
591.364	34926.06
591.561	34956.78
591.758	34260.47
591.955	34874.86
592.152	34657.78
592.349	33893.88
592.546	34344.44
592.743	34309.62
592.94	33426.95
593.137	34158.07
593.334	34113.02
593.531	33476.1
593.727	33926.65
593.924	33781.24
594.121	33355.27
594.318	33455.62
594.515	33181.19
594.712	33375.75
594.908	33031.69
595.105	33314.31
595.302	32919.05
595.499	33015.3
595.696	32816.65
595.892	32835.08
596.089	32736.78
596.286	32503.31
596.482	32407.06
596.679	32218.64
596.876	32138.77
597.072	32095.77
597.269	32134.68
597.466	31917.59
597.662	32175.64
597.859	31997.46
598.055	31780.38
598.252	31745.56
598.448	31409.7
598.645	31403.55
598.841	31018.53
599.038	31438.37
599.234	31421.98
599.431	30750.25
599.627	30848.55
599.824	30973.48
600.02	30858.79
600.217	30903.85
600.413	30340.66
600.609	30475.82
600.806	29918.78
601.002	30557.74
601.198	30217.78
601.395	29969.97
601.591	29775.42
601.787	29881.91
601.984	29722.17
602.18	30230.07
602.376	29826.62
602.572	29490.75
602.769	29259.33
602.965	29185.6
603.161	29478.46
603.357	28726.86
603.553	28900.93
603.75	29111.88
603.946	29060.68
604.142	29300.29
604.338	28583.5
604.534	28847.69
604.73	28311.12
604.926	28384.85
605.122	28796.49
605.318	28350.03
605.514	28122.71
605.71	28266.06
605.906	28091.99
606.102	27993.68
606.298	28241.49
606.494	27819.61
606.69	27997.78
606.886	28038.74
607.082	27188.83
607.278	27760.22
607.474	27450.97
607.67	27604.57
607.866	27227.74
608.062	27489.88
608.257	27367.01
608.453	27061.86
608.649	27444.83
608.845	26850.92
609.041	27115.11
609.236	27229.79
609.432	26840.68
609.628	26920.55
609.824	26642.03
610.019	26717.8
610.215	26470
610.411	26746.47
610.606	26369.65
610.802	26443.37
610.998	26580.59
611.193	26551.91
611.389	26220.14
611.584	26015.35
611.78	25980.53
611.976	26019.44
612.171	26013.3
612.367	26003.06
612.562	26017.39
612.758	25427.58
612.953	25648.76
613.149	26048.11
613.344	25837.17
613.539	26025.59
613.735	25104
613.93	25570.94
614.126	25585.27
614.321	25618.04
614.517	25593.47
614.712	25400.96
614.907	25304.7
615.103	25357.95
615.298	25165.44
615.493	25452.16
615.688	24878.72
615.884	25249.41
616.079	24729.22
616.274	24964.74
616.47	24923.78
616.665	25034.37
616.86	24493.71
617.055	24667.78
617.25	24514.19
617.445	24649.35
617.641	24131.22
617.836	24571.53
618.031	24409.74
618.226	24391.31
618.421	24147.6
618.616	23983.76
618.811	24004.24
619.006	23920.28
619.201	23709.33
619.396	23918.23
619.591	23174.81
619.786	23774.87
619.981	23266.97
620.176	23641.75
620.371	23223.97
620.566	23256.73
620.761	23246.49
620.956	23269.02
621.151	22679.21
621.346	22914.72
621.541	22617.77
621.735	22607.53
621.93	22505.13
622.125	22296.24
622.32	22302.38
622.515	22429.35
622.709	21825.2
622.904	21829.3
623.099	21589.69
623.294	21796.53
623.488	21870.26
623.683	21810.87
623.878	21288.64
624.072	21237.44
624.267	21237.44
624.462	21022.4
624.656	20897.47
624.851	20743.88
625.046	20856.51
625.24	20604.61
625.435	20582.09
625.629	20639.43
625.824	20309.71
626.018	20281.03
626.213	19713.75
626.407	20074.19
626.602	19912.4
626.796	19957.46
626.991	20043.47
627.185	19672.79
627.38	19617.49
627.574	19285.72
627.768	19023.58
627.963	19330.78
628.157	18994.91
628.352	18906.85
628.546	18505.45
628.74	18878.18
628.935	18679.52
629.129	18775.78
629.323	18493.16
629.517	18327.27
629.712	18085.61
629.906	17960.69
630.1	17868.53
630.294	18087.66
630.489	17759.99
630.683	17817.33
630.877	17598.2
631.071	17590
631.265	17483.51
631.459	17399.54
631.653	17286.9
631.848	17088.25
632.042	17213.18
632.236	17172.22
632.43	16598.79
632.624	16871.17
632.818	16850.69
633.012	16408.33
633.206	16437
633.4	16652.03
633.594	16307.98
633.788	16353.03
633.982	16428.81
634.176	16383.75
634.369	16152.33
634.563	16004.88
634.757	16250.63
634.951	15771.41
635.145	15732.5
635.339	16051.98
635.533	15558.42
635.726	15542.03
635.92	15279.89
636.114	15296.28
636.308	15277.85
636.501	15394.58
636.695	15341.33
636.889	14950.17
637.083	14855.97
637.276	14923.55
637.47	14802.72
637.664	14774.05
637.857	14675.74
638.051	14489.38
638.244	14624.54
638.438	14350.12
638.632	14386.98
638.825	14126.89
639.019	14071.59
639.212	14040.87
639.406	13864.75
639.599	14010.15
639.793	14012.2
639.986	13645.62
640.18	13684.53
640.373	13539.12
640.567	13494.07
640.76	13555.51
640.954	13193.01
641.147	13154.1
641.34	13035.32
641.534	13369.14
641.727	13301.56
641.92	13145.91
642.114	12883.77
642.307	12873.53
642.5	12662.59
642.694	12613.44
642.887	12508.99
643.08	12652.35
643.273	12525.38
643.467	12332.87
643.66	12324.68
643.853	12261.19
644.046	12371.78
644.239	12015.43
644.432	12031.82
644.626	12037.96
644.819	11927.37
645.012	12089.16
645.205	11827.02
645.398	11829.07
645.591	11657.04
645.784	11601.74
645.977	11595.6
646.17	11472.72
646.363	11442
646.556	11312.98
646.749	11155.29
646.942	11288.4
647.135	11274.07
647.328	11124.57
647.521	11089.75
647.714	10858.33
647.907	10932.06
648.099	10852.19
648.292	10948.44
648.485	10639.2
648.678	10645.34
648.871	10643.29
649.064	10456.93
649.256	10571.61
649.449	10465.12
649.642	10379.11
649.835	10254.18
650.027	10442.59
650.22	10172.26
650.413	10215.27
650.605	10389.35
650.798	10121.06
650.991	10116.97
651.183	10035.05
651.376	9830.25
651.568	9858.92
651.761	9813.87
651.954	9555.82
652.146	9777
652.339	9494.38
652.531	9803.63
652.724	9523.05
652.916	9371.5
653.109	9506.67
653.301	9348.98
653.494	9690.99
653.686	9109.36
653.879	9203.57
654.071	9305.97
654.263	9111.41
654.456	9250.67
654.648	9285.49
654.84	9027.45
655.033	8927.1
655.225	9043.83
655.417	8974.2
655.61	8742.78
655.802	8970.1
655.994	8808.31
656.186	8832.89
656.379	8785.79
656.571	8642.43
656.763	8433.54
656.955	8562.56
657.148	8599.42
657.34	8365.95
657.532	8130.44
657.724	8411.01
657.916	8435.58
658.108	8304.51
658.3	8361.86
658.492	8183.68
658.684	8169.35
658.876	8112
659.068	8038.28
659.26	8007.56
659.452	7882.63
659.644	8064.9
659.836	7798.66
660.028	8060.81
660.22	7767.95
660.412	7718.79
660.604	7829.38
660.796	7624.59
660.988	7655.31
661.18	7554.96
661.372	7542.67
661.563	7649.16
661.755	7479.18
661.947	7286.67
662.139	7382.93
662.331	7434.13
662.522	7331.73
662.714	7313.3
662.906	7331.73
663.097	7421.84
663.289	7303.06
663.481	7149.46
663.673	7133.08
663.864	7143.31
664.056	7071.64
664.247	7020.44
664.439	6813.59
664.631	6913.94
664.822	6967.19
665.014	6940.57
665.205	6795.16
665.397	6768.54
665.588	6954.9
665.78	6578.08
665.971	6840.22
666.163	6692.76
666.354	6846.36
666.546	6487.96
666.737	6594.46
666.929	6608.8
667.12	6510.49
667.311	6578.08
667.503	6430.62
667.694	6397.85
667.885	6524.83
668.077	6438.81
668.268	6385.57
668.459	6266.78
668.651	6258.59
668.842	6336.42
669.033	6369.18
669.224	6053.8
669.416	6283.17
669.607	6221.73
669.798	6094.75
669.989	6258.59
670.18	5902.25
670.371	6072.23
670.563	6111.14
670.754	5898.15
670.945	5945.25
671.136	5918.63
671.327	6010.79
671.518	5881.77
671.709	5926.82
671.9	5965.73
672.091	5902.25
672.282	5941.16
672.473	5887.91
672.664	5992.36
672.855	5859.24
673.046	5855.14
673.237	5664.68
673.428	5644.2
673.619	5785.51
673.809	5654.44
674	5734.31
674.191	5726.12
674.382	5486.51
674.573	5722.02
674.764	5674.92
674.954	5509.04
675.145	5504.94
675.336	5582.76
675.527	5556.14
675.717	5791.66
675.908	5531.56
676.099	5463.98
676.289	5658.54
676.48	5482.41
676.671	5633.96
676.861	5447.6
677.052	5459.88
677.243	5607.34
677.433	5453.74
677.624	5431.21
677.814	5377.97
678.005	5451.69
678.195	5396.4
678.386	5357.49
678.576	5341.1
678.767	5343.15
678.957	5334.96
679.148	5226.42
679.338	5371.82
679.529	5308.33
679.719	5210.03
679.909	5337.01
680.1	5330.86
680.29	5386.16
680.481	5259.18
680.671	5185.46
680.861	5304.24
681.052	5267.38
681.242	5070.77
681.432	5138.35
681.622	5193.65
681.813	5281.71
682.003	5189.55
682.193	5136.31
682.383	5312.43
682.573	5332.91
682.764	5070.77
682.954	5218.22
683.144	5097.39
683.334	5021.62
683.524	4978.61
683.714	4951.99
683.904	4919.22
684.094	5128.11
684.284	5164.98
684.474	5074.87
684.664	5150.64
684.854	5093.3
685.044	5023.67
685.234	4906.93
685.424	4958.13
685.614	5021.62
685.804	4970.42
685.994	4921.27
686.184	4958.13
686.374	5001.14
686.564	4874.17
686.753	5021.62
686.943	4865.97
687.133	4923.32
687.323	4898.74
687.513	4915.12
687.702	4947.89
687.892	4773.82
688.082	4779.96
688.272	4710.33
688.461	4644.79
688.651	4779.96
688.841	4755.38
689.03	4685.75
689.22	4700.09
689.41	4544.44
689.599	4798.39
689.789	4685.75
689.979	4544.44
690.168	4509.63
690.358	4632.51
690.547	4517.82
690.737	4493.24
690.926	4554.68
691.116	4437.95
691.305	4571.07
691.495	4419.52
691.684	4300.73
691.874	4335.55
692.063	4499.39
692.252	4390.84
692.442	4372.41
692.631	4267.97
692.82	4368.32
693.01	4247.49
693.199	4390.84
693.388	4298.69
693.578	4212.67
693.767	4528.06
693.956	4222.91
694.146	4327.36
694.335	4165.57
694.524	4200.38
694.713	4267.97
694.902	4184
695.092	4165.57
695.281	4126.66
695.47	4110.27
695.659	4179.9
695.848	4140.99
696.037	4134.85
696.226	4005.83
696.415	4085.7
696.604	4194.24
696.793	4122.56
696.982	4167.62
697.171	4218.82
697.36	4169.66
697.549	4011.97
697.738	4001.73
697.927	4018.11
698.116	3979.2
698.305	4042.69
698.494	3987.4
698.683	3940.29
698.872	4128.7
699.061	3932.1
699.25	3981.25
699.438	3993.54
699.627	3954.63
699.816	4048.83
700.005	3946.44
700.193	3936.2
700.382	4038.59
700.571	3860.42
700.76	4011.97
700.948	3944.39
701.137	3973.06
701.326	4077.51
701.514	3928
701.703	4024.26
701.892	3831.75
702.08	3899.33
702.269	3917.76
702.457	3858.37
702.646	3925.96
702.834	3897.28
703.023	4018.11
703.212	3930.05
703.4	3932.1
703.589	3860.42
703.777	4005.83
703.965	3844.04
704.154	3821.51
704.342	3796.93
704.531	3940.29
704.719	3788.74
704.907	3835.85
705.096	3928
705.284	3913.67
705.472	3911.62
705.661	3796.93
705.849	3880.9
706.037	3841.99
706.226	3817.41
706.414	3813.32
706.602	3764.17
706.79	3692.49
706.979	3821.51
707.167	3719.11
707.355	3635.14
707.543	3848.13
707.731	3956.68
707.919	3895.24
708.107	3696.58
708.296	3907.52
708.484	3860.42
708.672	3760.07
708.86	3885
709.048	3899.33
709.236	3778.5
709.424	3856.33
709.612	3792.84
709.8	3889.09
709.988	3639.24
710.176	3721.16
710.364	3688.39
710.551	3776.45
710.739	3719.11
710.927	3807.17
711.115	3706.82
711.303	3833.8
711.491	3753.93
711.679	3653.58
711.866	3897.28
712.054	3694.54
712.242	3809.22
712.43	3710.92
712.617	3809.22
712.805	3692.49
712.993	3616.71
713.181	3616.71
713.368	3592.14
713.556	3866.56
713.744	3571.66
713.931	3815.37
714.119	3835.85
714.306	3639.24
714.494	3629
714.682	3710.92
714.869	3573.71
715.057	3743.69
715.244	3706.82
715.432	3645.38
715.619	3745.73
715.807	3807.17
715.994	3653.58
716.182	3702.73
716.369	3776.45
716.556	3809.22
716.744	3721.16
716.931	3672.01
717.119	3674.06
717.306	3751.88
717.493	3651.53
717.681	3618.76
717.868	3796.93
718.055	3801.03
718.242	3643.34
718.43	3747.78
718.617	3848.13
718.804	3805.13
718.991	3706.82
719.179	3649.48
719.366	3659.72
719.553	3569.61
719.74	3712.97
719.927	3735.49
720.114	3692.49
720.301	3751.88
720.488	3530.7
720.676	3723.21
720.863	3577.8
721.05	3645.38
721.237	3690.44
721.424	3770.31
721.611	3698.63
721.798	3538.89
721.985	3645.38
722.172	3569.61
722.358	3542.99
722.545	3690.44
722.732	3741.64
722.919	3676.1
723.106	3575.75
723.293	3602.38
723.48	3569.61
723.667	3522.51
723.853	3561.42
724.04	3602.38
724.227	3719.11
724.414	3573.71
724.6	3571.66
724.787	3491.79
724.974	3661.77
725.161	3561.42
725.347	3536.84
725.534	3495.88
725.72	3413.96
725.907	3536.84
726.094	3653.58
726.28	3383.24
726.467	3424.2
726.653	3579.85
726.84	3481.55
727.027	3606.47
727.213	3497.93
727.4	3481.55
727.586	3520.46
727.773	3473.35
727.959	3444.68
728.145	3518.41
728.332	3454.92
728.518	3502.03
728.705	3540.94
728.891	3512.27
729.077	3426.25
729.264	3370.96
729.45	3448.78
729.636	3477.45
729.823	3536.84
730.009	3473.35
730.195	3448.78
730.382	3547.08
730.568	3391.44
730.754	3524.55
730.94	3403.72
731.126	3401.68
731.313	3506.12
731.499	3440.59
731.685	3332.05
731.871	3428.3
732.057	3387.34
732.243	3377.1
732.429	3418.06
732.615	3401.68
732.801	3327.95
732.987	3461.07
733.173	3350.48
733.359	3348.43
733.545	3383.24
733.731	3413.96
733.917	3350.48
734.103	3323.85
734.289	3436.49
734.475	3276.75
734.661	3348.43
734.847	3393.48
735.033	3293.13
735.219	3254.22
735.404	3407.82
735.59	3325.9
735.776	3299.28
735.962	3454.92
736.148	3215.31
736.333	3209.17
736.519	3074
736.705	3272.65
736.89	3327.95
737.076	3160.02
737.262	3241.93
737.447	3338.19
737.633	3231.69
737.819	3291.09
738.004	3045.33
738.19	3190.74
738.375	3229.65
738.561	3256.27
738.747	3170.26
738.932	3209.17
739.118	3123.15
739.303	3020.75
739.489	3170.26
739.674	3078.1
739.859	3162.06
740.045	3104.72
740.23	3018.71
740.416	3110.86
740.601	3074
740.786	3098.58
740.972	3086.29
741.157	2895.83
741.342	2983.89
741.528	2985.94
741.713	2961.36
741.898	3080.14
742.084	3000.27
742.269	2865.11
742.454	2994.13
742.639	2920.4
742.824	2795.48
743.01	3020.75
743.195	2842.58
743.38	2863.06
743.565	2856.92
743.75	2912.21
743.935	2871.25
744.12	3006.42
744.305	2770.9
744.49	2842.58
744.675	2838.48
744.86	2818.01
745.045	2822.1
745.23	2740.18
745.415	2811.86
745.6	2781.14
745.785	2496.47
745.97	2777.05
746.155	2662.36
746.34	2662.36
746.525	2596.82
746.71	2625.5
746.895	2639.83
747.079	2578.39
747.264	2662.36
747.449	2607.06
747.634	2568.15
747.819	2580.44
748.003	2516.95
748.188	2559.96
748.373	2494.43
748.557	2531.29
748.742	2531.29
748.927	2455.51
749.111	2533.34
749.296	2297.82
749.481	2449.37
749.665	2504.67
749.85	2447.32
750.034	2369.5
750.219	2338.78
750.404	2310.11
750.588	2265.05
750.773	2246.62
750.957	2260.96
751.141	2263.01
751.326	2193.37
751.51	2220
751.695	2205.66
751.879	2260.96
752.064	2252.77
752.248	2123.74
752.432	2244.57
752.617	2099.17
752.801	2078.69
752.985	2074.59
753.17	2084.83
753.354	2031.58
753.538	2019.3
753.722	2023.39
753.907	2166.75
754.091	1986.53
754.275	1998.82
754.459	2007.01
754.643	1964
754.828	1990.63
755.012	1955.81
755.196	1966.05
755.38	1834.98
755.564	1800.16
755.748	1822.69
755.932	1912.8
756.116	1796.07
756.3	1882.08
756.484	1865.7
756.668	1810.4
756.852	1691.62
757.036	1843.17
757.22	1880.04
757.404	1757.16
757.588	1683.43
757.772	1824.74
757.956	1679.33
758.14	1742.82
758.323	1638.37
758.507	1789.92
758.691	1654.76
758.875	1757.16
759.059	1683.43
759.242	1630.18
759.426	1624.04
759.61	1699.81
759.794	1611.75
759.977	1527.78
760.161	1642.47
760.345	1671.14
760.528	1607.66
760.712	1568.74
760.895	1482.73
761.079	1417.19
761.263	1560.55
761.446	1370.09
761.63	1613.8
761.813	1458.15
761.997	1419.24
762.18	1437.67
762.364	1374.19
762.547	1333.23
762.731	1454.06
762.914	1417.19
763.098	1382.38
763.281	1478.63
763.464	1376.23
763.648	1396.71
763.831	1345.52
764.015	1384.43
764.198	1363.95
764.381	1421.29
764.564	1443.82
764.748	1437.67
764.931	1368.04
765.114	1425.39
765.297	1345.52
765.481	1331.18
765.664	1327.08
765.847	1378.28
766.03	1302.51
766.213	1441.77
766.397	1396.71
766.58	1351.66
766.763	1294.32
766.946	1329.13
767.129	1331.18
767.312	1286.12
767.495	1318.89
767.678	1292.27
767.861	1259.5
768.044	1261.55
768.227	1306.6
768.41	1181.68
768.593	1318.89
768.776	1261.55
768.959	1302.51
769.142	1214.45
769.324	1191.92
769.507	1206.25
769.69	1241.07
769.873	1241.07
770.056	1153.01
770.239	1179.63
770.421	1132.53
770.604	1284.08
770.787	1165.29
770.97	1153.01
771.152	1110
771.335	1021.94
771.518	1034.22
771.7	1093.62
771.883	1142.77
772.066	1110
772.248	1105.9
772.431	1153.01
772.613	1036.27
772.796	1089.52
772.978	1089.52
773.161	1089.52
773.343	1101.81
773.526	1005.55
773.708	1040.37
773.891	1034.22
774.073	1036.27
774.256	991.22
774.438	1058.8
774.621	968.69
774.803	1013.74
774.985	983.02
775.168	1040.37
775.35	931.83
775.532	864.24
775.715	948.21
775.897	925.68
776.079	993.26
776.261	946.16
776.444	983.02
776.626	897.01
776.808	915.44
776.99	970.74
777.173	876.53
777.355	804.85
777.537	858.1
777.719	864.24
777.901	884.72
778.083	811
778.265	833.52
778.447	884.72
778.629	827.38
778.811	825.33
778.993	897.01
779.175	835.57
779.357	790.52
779.539	858.1
779.721	802.8
779.903	808.95
780.085	794.61
780.267	837.62
780.449	794.61
780.631	780.28
780.812	708.6
780.994	794.61
781.176	770.04
781.358	686.07
781.54	737.27
781.721	763.89
781.903	813.04
782.085	761.84
782.267	811
782.448	659.45
782.63	755.7
782.812	718.84
782.993	761.84
783.175	647.16
783.357	620.53
783.538	604.15
783.72	638.97
783.901	638.97
784.083	679.93
784.264	585.72
784.446	671.73
784.627	559.1
784.809	638.97
784.99	563.19
785.172	688.12
785.353	514.04
785.535	573.43
785.716	536.57
785.897	579.58
786.079	585.72
786.26	557.05
786.441	610.29
786.623	464.89
786.804	653.3
786.985	645.11
787.167	542.71
787.348	540.66
787.529	528.38
787.71	557.05
787.891	581.62
788.073	585.72
788.254	489.46
788.435	606.2
788.616	432.12
788.797	499.7
788.978	540.66
789.159	585.72
789.34	530.42
789.522	503.8
789.703	405.5
789.884	493.56
790.065	524.28
790.246	573.43
790.427	430.07
790.607	471.03
790.788	565.24
790.969	458.74
791.15	421.88
791.331	380.92
791.512	532.47
791.693	405.5
791.874	403.45
792.054	376.83
792.235	409.59
792.416	464.89
792.597	432.12
792.778	415.74
792.958	477.18
793.139	450.55
793.32	434.17
793.5	448.51
793.681	415.74
793.862	415.74
794.042	448.51
794.223	358.39
794.404	405.5
794.584	380.92
794.765	350.2
794.945	344.06
795.126	409.59
795.306	430.07
795.487	413.69
795.667	411.64
795.848	438.27
796.028	407.55
796.209	372.73
796.389	360.44
796.57	374.78
796.75	356.35
796.93	387.07
797.111	241.66
797.291	280.57
797.471	325.63
797.652	399.35
797.832	313.34
798.012	360.44
798.192	350.2
798.373	364.54
798.553	319.48
798.733	362.49
798.913	374.78
799.093	307.2
799.274	378.87
799.454	360.44
799.634	344.06
799.814	368.63
799.994	380.92
800.174	253.95
800.354	344.06
800.534	325.63
800.714	323.58
800.894	292.86
801.074	350.2
801.254	272.38
801.434	319.48
801.614	286.72
801.794	319.48
801.974	866.29
802.154	311.29
802.334	352.25
802.514	319.48
802.693	319.48
802.873	260.09
803.053	278.52
803.233	288.76
803.413	253.95
803.592	294.91
803.772	212.99
803.952	235.52
804.131	309.24
804.311	280.57
804.491	266.24
804.67	274.43
804.85	358.39
805.03	217.08
805.209	301.05
805.389	301.05
805.568	305.15
805.748	356.35
805.928	260.09
806.107	301.05
806.287	315.39
806.466	274.43
806.646	278.52
806.825	258.04
807.004	200.7
807.184	335.87
807.363	225.28
807.543	284.67
807.722	241.66
807.901	270.33
808.081	231.42
808.26	239.61
808.439	268.28
808.619	210.94
808.798	243.71
808.977	200.7
809.156	262.14
809.336	165.89
809.515	342.01
809.694	198.65
809.873	251.9
810.052	272.38
810.231	217.08
810.411	210.94
810.59	174.08
810.769	210.94
810.948	266.24
811.127	188.41
811.306	262.14
811.485	192.51
811.664	272.38
811.843	206.84
812.022	215.04
812.201	114.69
812.38	192.51
812.559	243.71
812.737	153.6
812.916	137.21
813.095	178.17
813.274	243.71
813.453	227.32
813.632	153.6
813.811	286.72
813.989	24.58
814.168	253.95
814.347	227.32
814.526	186.37
814.704	260.09
814.883	311.29
815.062	212.99
815.24	219.13
815.419	184.32
815.598	206.84
815.776	180.22
815.955	188.41
816.133	145.41
816.312	219.13
816.49	161.79
816.669	233.47
816.847	198.65
817.026	186.37
817.204	235.52
817.383	186.37
817.561	188.41
817.74	276.48
817.918	161.79
818.097	131.07
818.275	131.07
818.453	145.41
818.632	233.47
818.81	182.27
818.988	208.89
819.167	157.69
819.345	106.49
819.523	180.22
819.701	172.03
819.879	159.74
820.058	227.32
820.236	217.08
820.414	204.8
820.592	122.88
820.77	102.4
820.948	198.65
821.127	108.54
821.305	204.8
821.483	98.3
821.661	188.41
821.839	180.22
822.017	124.93
822.195	157.69
822.373	163.84
822.551	178.17
822.729	153.6
822.907	137.21
823.085	118.78
823.262	141.31
823.44	61.44
823.618	157.69
823.796	153.6
823.974	49.15
824.152	118.78
824.329	69.63
824.507	147.45
824.685	163.84
824.863	86.01
825.04	147.45
825.218	208.89
825.396	221.18
825.574	159.74
825.751	188.41
825.929	106.49
826.107	67.58
826.284	86.01
826.462	135.17
826.639	94.21
826.817	126.97
826.994	174.08
827.172	192.51
827.349	163.84
827.527	120.83
827.704	94.21
827.882	135.17
828.059	172.03
828.237	81.92
828.414	235.52
828.591	106.49
828.769	157.69
828.946	65.53
829.124	90.11
829.301	129.02
829.478	98.3
829.655	102.4
829.833	96.25
830.01	98.3
830.187	77.82
830.364	96.25
830.542	30.72
830.719	63.49
830.896	180.22
831.073	135.17
831.25	188.41
831.427	100.35
831.604	83.97
831.782	71.68
831.959	75.77
832.136	116.73
832.313	6.14
832.49	69.63
832.667	79.87
832.844	77.82
833.021	155.65
833.198	135.17
833.374	114.69
833.551	120.83
833.728	100.35
833.905	96.25
834.082	55.3
834.259	94.21
834.436	67.58
834.612	28.67
834.789	106.49
834.966	90.11
835.143	83.97
835.319	137.21
835.496	71.68
835.673	32.77
835.85	131.07
836.026	163.84
836.203	75.77
836.38	98.3
836.556	174.08
836.733	96.25
836.909	57.34
837.086	88.06
837.262	22.53
837.439	34.82
837.616	45.06
837.792	77.82
837.968	81.92
838.145	2.05
838.321	114.69
838.498	61.44
838.674	65.53
838.851	118.78
839.027	94.21
839.203	32.77
839.38	131.07
839.556	55.3
839.732	88.06
839.909	24.58
840.085	94.21
840.261	67.58
840.437	34.82
840.614	43.01
840.79	24.58
840.966	143.36
841.142	45.06
841.318	28.67
841.494	24.58
841.671	38.91
841.847	81.92
842.023	65.53
842.199	135.17
842.375	71.68
842.551	77.82
842.727	90.11
842.903	49.15
843.079	77.82
843.255	110.59
843.431	49.15
843.607	59.39
843.783	-10.24
843.959	110.59
844.134	143.36
844.31	96.25
844.486	96.25
844.662	34.82
844.838	28.67
845.013	112.64
845.189	149.5
845.365	30.72
845.541	88.06
845.716	8.19
845.892	137.21
846.068	98.3
846.244	-4.1
846.419	26.62
846.595	-10.24
846.77	26.62
846.946	63.49
847.122	122.88
847.297	75.77
847.473	73.73
847.648	24.58
847.824	38.91
847.999	-34.82
848.175	40.96
848.35	-0
848.526	69.63
848.701	71.68
848.876	94.21
849.052	61.44
849.227	71.68
849.403	-4.1
849.578	-0
849.753	-4.1
849.929	61.44
850.104	83.97
850.279	18.43
850.454	47.1
850.63	106.49
850.805	4.1
850.98	-8.19
851.155	81.92
851.33	61.44
851.505	83.97
851.681	36.86
851.856	-26.62
852.031	12.29
852.206	20.48
852.381	12.29
852.556	40.96
852.731	14.34
852.906	40.96
853.081	65.53
853.256	77.82
853.431	-10.24
853.606	45.06
853.781	10.24
853.956	10.24
854.131	55.3
854.305	-4.1
854.48	57.34
854.655	69.63
854.83	-26.62
855.005	-4.1
855.18	88.06
855.354	-71.68
855.529	24.58
855.704	-36.86
855.879	45.06
856.053	-40.96
856.228	65.53
856.403	-2.05
856.577	24.58
856.752	32.77
856.926	-0
857.101	4.1
857.276	57.34
857.45	61.44
857.625	75.77
857.799	69.63
857.974	57.34
858.148	16.38
858.323	57.34
858.497	28.67
858.672	-4.1
858.846	-32.77
859.02	57.34
859.195	-2.05
859.369	77.82
859.543	22.53
859.718	22.53
859.892	-38.91
860.066	20.48
860.241	55.3
860.415	26.62
860.589	12.29
860.763	43.01
860.938	-16.38
861.112	-4.1
861.286	-51.2
861.46	45.06
861.634	49.15
861.808	51.2
861.982	57.34
862.157	-34.82
862.331	43.01
862.505	30.72
862.679	6.14
862.853	26.62
863.027	18.43
863.201	98.3
863.375	-38.91
863.549	49.15
863.722	45.06
863.896	94.21
864.07	4.1
864.244	43.01
864.418	32.77
864.592	-104.45
864.766	28.67
864.939	94.21
865.113	12.29
865.287	28.67
865.461	51.2
865.634	53.25
865.808	12.29
865.982	-12.29
866.156	-12.29
866.329	-36.86
866.503	20.48
866.676	-10.24
866.85	8.19
867.024	43.01
867.197	69.63
867.371	40.96
867.544	20.48
867.718	-16.38
867.891	-10.24
868.065	-6.14
868.238	69.63
868.412	55.3
868.585	73.73
868.759	-12.29
868.932	24.58
869.105	12.29
869.279	6.14
869.452	20.48
869.625	63.49
869.799	26.62
869.972	-4.1
870.145	-2.05
870.319	79.87
870.492	-12.29
870.665	40.96
870.838	71.68
871.011	-67.58
871.185	63.49
871.358	20.48
871.531	-32.77
871.704	20.48
871.877	-26.62
872.05	71.68
872.223	20.48
872.396	83.97
872.569	-0
872.742	-43.01
872.915	24.58
873.088	77.82
873.261	-16.38
873.434	-53.25
873.607	-47.1
873.78	40.96
873.953	-6.14
874.126	8.19
874.299	-36.86
874.471	65.53
874.644	-12.29
874.817	98.3
874.99	40.96
875.163	30.72
875.335	8.19
875.508	-26.62
875.681	4.1
875.853	57.34
876.026	-51.2
876.199	-28.67
876.371	30.72
876.544	47.1
876.717	12.29
876.889	20.48
877.062	22.53
877.234	-8.19
877.407	-28.67
877.579	32.77
877.752	22.53
877.924	36.86
878.097	28.67
878.269	38.91
878.442	20.48
878.614	-8.19
878.786	59.39
878.959	8.19
879.131	-59.39
879.303	-81.92
879.476	53.25
879.648	55.3
879.82	65.53
879.993	-6.14
880.165	6.14
880.337	-40.96
880.509	20.48
880.681	32.77
880.854	-55.3
881.026	32.77
881.198	77.82
881.37	-22.53
881.542	30.72
881.714	-32.77
881.886	43.01
882.058	-34.82
882.23	12.29
882.402	-4.1
882.574	-51.2
882.746	-14.34
882.918	63.49
883.09	-59.39
883.262	32.77
883.434	24.58
883.606	-26.62
883.778	-8.19
883.95	90.11
884.122	43.01
884.293	43.01
884.465	-26.62
884.637	38.91
884.809	-34.82
884.98	-47.1
885.152	-18.43
885.324	81.92
885.496	-0
885.667	24.58
885.839	-92.16
886.011	-90.11
886.182	-45.06
886.354	26.62
886.525	-53.25
886.697	47.1
886.869	-45.06
887.04	-36.86
887.212	-8.19
887.383	28.67
887.555	2.05
887.726	10.24
887.897	-0
888.069	86.01
888.24	16.38
888.412	-0
888.583	32.77
888.754	24.58
888.926	-57.34
889.097	-8.19
889.268	-18.43
889.44	2.05
889.611	30.72
889.782	-55.3
889.953	-16.38
890.125	40.96
890.296	-57.34
890.467	81.92
890.638	-20.48
890.809	-24.58
890.98	-16.38
891.151	102.4
891.323	-36.86
891.494	10.24
891.665	-59.39
891.836	8.19
892.007	6.14
892.178	-12.29
892.349	47.1
892.52	38.91
892.691	88.06
892.862	14.34
893.032	-28.67
893.203	-18.43
893.374	-28.67
893.545	4.1
893.716	14.34
893.887	90.11
894.057	-10.24
894.228	-65.54
894.399	-20.48
894.57	81.92
894.74	-55.3
894.911	53.25
895.082	-8.19
895.253	-16.38
895.423	2.05
895.594	81.92
895.764	34.82
895.935	-2.05
896.106	2.05
896.276	-38.91
896.447	-0
896.617	-77.82
896.788	-67.58
896.958	-12.29
897.129	6.14
897.299	20.48
897.47	47.1
897.64	-34.82
897.81	-16.38
897.981	45.06
898.151	-51.2
898.322	81.92
898.492	-34.82
898.662	-65.54
898.832	28.67
899.003	-65.54
899.173	12.29
899.343	-2.05
899.513	14.34
