Data from USB4F104151__210__10-29-52-407.txt Node

Date: Wed Mar 12 10:29:52 EDT 2025
User: louis
Spectrometer: USB4F10415
Trigger mode: 4
Integration Time (sec): 3.000000E-2
Scans to average: 1
Electric dark correction enabled: true
Nonlinearity correction enabled: false
Boxcar width: 0
XAxis mode: Wavelengths
Number of Pixels in Spectrum: 3648
>>>>>Begin Spectral Data<<<<<
178.204	-171.35
178.424	-171.35
178.644	-171.35
178.864	-77.14
179.084	-128.34
179.304	-15.7
179.524	29.35
179.744	33.45
179.964	-3.41
180.184	-60.76
180.404	-38.23
180.624	-27.99
180.844	8.87
181.064	-34.13
181.283	78.51
181.503	10.92
181.723	19.11
181.943	-44.37
182.163	70.31
182.383	78.51
182.602	15.02
182.822	21.16
183.042	86.7
183.262	21.16
183.482	21.16
183.701	10.92
183.921	33.45
184.141	-9.56
184.361	96.94
184.58	12.97
184.8	60.07
185.02	-7.51
185.239	23.21
185.459	-36.18
185.679	45.74
185.898	21.16
186.118	86.7
186.338	41.64
186.557	84.65
186.777	-19.8
186.997	94.89
187.216	-19.8
187.436	66.22
187.655	94.89
187.875	148.14
188.095	0.68
188.314	66.22
188.534	82.6
188.753	70.31
188.973	27.31
189.192	101.03
189.412	-23.89
189.631	-48.47
189.851	2.73
190.07	103.08
190.29	8.87
190.509	60.07
190.729	-11.61
190.948	43.69
191.168	121.51
191.387	-13.65
191.607	15.02
191.826	53.93
192.045	-7.51
192.265	19.11
192.484	84.65
192.704	78.51
192.923	49.83
193.142	82.6
193.362	-40.28
193.581	62.12
193.8	6.83
194.02	41.64
194.239	0.68
194.458	-27.99
194.678	6.83
194.897	94.89
195.116	37.55
195.335	35.5
195.555	78.51
195.774	60.07
195.993	107.18
196.212	82.6
196.432	21.16
196.651	43.69
196.87	-56.66
197.089	94.89
197.308	76.46
197.528	66.22
197.747	45.74
197.966	8.87
198.185	94.89
198.404	-25.94
198.623	64.17
198.842	-15.7
199.062	-13.65
199.281	78.51
199.5	-3.41
199.719	2.73
199.938	-5.46
200.157	98.99
200.376	37.55
200.595	68.27
200.814	133.8
201.033	60.07
201.252	137.9
201.471	39.59
201.69	29.35
201.909	60.07
202.128	-34.13
202.347	-17.75
202.566	-27.99
202.785	19.11
203.004	-7.51
203.223	117.42
203.442	8.87
203.661	-17.75
203.879	2.73
204.098	19.11
204.317	-44.37
204.536	10.92
204.755	45.74
204.974	74.41
205.193	72.36
205.411	109.22
205.63	82.6
205.849	31.4
206.068	68.27
206.287	58.03
206.505	17.07
206.724	-11.61
206.943	19.11
207.162	115.37
207.381	21.16
207.599	35.5
207.818	68.27
208.037	37.55
208.255	-11.61
208.474	62.12
208.693	92.84
208.911	47.79
209.13	37.55
209.349	127.66
209.567	49.83
209.786	8.87
210.005	-5.46
210.223	4.78
210.442	-3.41
210.661	37.55
210.879	4.78
211.098	29.35
211.316	15.02
211.535	15.02
211.753	2.73
211.972	-5.46
212.191	17.07
212.409	2.73
212.628	58.03
212.846	21.16
213.065	60.07
213.283	60.07
213.502	37.55
213.72	45.74
213.938	-23.89
214.157	29.35
214.375	17.07
214.594	45.74
214.812	68.27
215.031	15.02
215.249	119.46
215.467	51.88
215.686	60.07
215.904	139.94
216.122	21.16
216.341	62.12
216.559	82.6
216.778	8.87
216.996	109.22
217.214	94.89
217.432	19.11
217.651	12.97
217.869	62.12
218.087	33.45
218.306	78.51
218.524	45.74
218.742	-34.13
218.96	0.68
219.179	47.79
219.397	-5.46
219.615	53.93
219.833	37.55
220.051	-21.85
220.27	62.12
220.488	-9.56
220.706	39.59
220.924	41.64
221.142	8.87
221.36	0.68
221.578	49.83
221.796	33.45
222.015	-7.51
222.233	17.07
222.451	76.46
222.669	19.11
222.887	45.74
223.105	17.07
223.323	29.35
223.541	-34.13
223.759	68.27
223.977	-13.65
224.195	103.08
224.413	27.31
224.631	41.64
224.849	21.16
225.067	51.88
225.285	33.45
225.503	31.4
225.721	0.68
225.939	29.35
226.157	10.92
226.375	109.22
226.592	-58.71
226.81	21.16
227.028	84.65
227.246	62.12
227.464	43.69
227.682	-27.99
227.9	90.79
228.117	58.03
228.335	-17.75
228.553	43.69
228.771	-21.85
228.989	47.79
229.206	72.36
229.424	101.03
229.642	27.31
229.86	-13.65
230.077	68.27
230.295	49.83
230.513	66.22
230.731	86.7
230.948	51.88
231.166	47.79
231.384	10.92
231.601	31.4
231.819	60.07
232.037	41.64
232.254	62.12
232.472	-7.51
232.689	68.27
232.907	31.4
233.125	-17.75
233.342	10.92
233.56	60.07
233.777	10.92
233.995	35.5
234.213	29.35
234.43	84.65
234.648	62.12
234.865	23.21
235.083	60.07
235.3	6.83
235.518	-32.08
235.735	37.55
235.953	-19.8
236.17	-34.13
236.388	19.11
236.605	-23.89
236.822	129.7
237.04	90.79
237.257	4.78
237.475	-7.51
237.692	62.12
237.909	53.93
238.127	-27.99
238.344	35.5
238.562	51.88
238.779	47.79
238.996	-52.56
239.214	70.31
239.431	45.74
239.648	49.83
239.865	39.59
240.083	17.07
240.3	-48.47
240.517	88.75
240.735	6.83
240.952	58.03
241.169	98.99
241.386	-44.37
241.603	74.41
241.821	92.84
242.038	125.61
242.255	25.26
242.472	-19.8
242.689	19.11
242.907	103.08
243.124	-15.7
243.341	4.78
243.558	12.97
243.775	35.5
243.992	-30.04
244.209	60.07
244.426	47.79
244.643	19.11
244.86	92.84
245.078	115.37
245.295	96.94
245.512	8.87
245.729	-46.42
245.946	72.36
246.163	64.17
246.38	-52.56
246.597	-1.37
246.814	-7.51
247.031	2.73
247.248	45.74
247.464	10.92
247.681	60.07
247.898	55.98
248.115	90.79
248.332	19.11
248.549	98.99
248.766	92.84
248.983	2.73
249.2	45.74
249.417	-27.99
249.633	49.83
249.85	33.45
250.067	37.55
250.284	103.08
250.501	41.64
250.717	58.03
250.934	-44.37
251.151	121.51
251.368	-5.46
251.585	62.12
251.801	-5.46
252.018	19.11
252.235	60.07
252.451	43.69
252.668	29.35
252.885	58.03
253.102	-42.32
253.318	-11.61
253.535	37.55
253.752	41.64
253.968	62.12
254.185	88.75
254.401	68.27
254.618	70.31
254.835	8.87
255.051	107.18
255.268	58.03
255.484	49.83
255.701	70.31
255.917	66.22
256.134	10.92
256.351	51.88
256.567	10.92
256.784	29.35
257	-27.99
257.217	78.51
257.433	-13.65
257.65	21.16
257.866	101.03
258.082	62.12
258.299	12.97
258.515	109.22
258.732	-56.66
258.948	41.64
259.165	27.31
259.381	51.88
259.597	21.16
259.814	37.55
260.03	27.31
260.246	47.79
260.463	37.55
260.679	43.69
260.895	-44.37
261.112	103.08
261.328	21.16
261.544	-42.32
261.761	127.66
261.977	-7.51
262.193	43.69
262.409	-19.8
262.626	43.69
262.842	92.84
263.058	-36.18
263.274	-11.61
263.49	17.07
263.707	82.6
263.923	82.6
264.139	43.69
264.355	-23.89
264.571	70.31
264.787	-21.85
265.004	33.45
265.22	41.64
265.436	10.92
265.652	115.37
265.868	60.07
266.084	45.74
266.3	58.03
266.516	41.64
266.732	98.99
266.948	43.69
267.164	25.26
267.38	31.4
267.596	90.79
267.812	86.7
268.028	60.07
268.244	115.37
268.46	10.92
268.676	4.78
268.892	23.21
269.108	84.65
269.324	43.69
269.54	35.5
269.756	94.89
269.972	29.35
270.188	29.35
270.403	-1.37
270.619	45.74
270.835	58.03
271.051	-34.13
271.267	62.12
271.483	-30.04
271.698	-21.85
271.914	66.22
272.13	84.65
272.346	62.12
272.562	37.55
272.777	78.51
272.993	37.55
273.209	-87.38
273.425	-3.41
273.64	78.51
273.856	72.36
274.072	72.36
274.287	12.97
274.503	-34.13
274.719	-5.46
274.934	2.73
275.15	4.78
275.366	29.35
275.581	55.98
275.797	33.45
276.012	27.31
276.228	-9.56
276.444	-5.46
276.659	131.75
276.875	49.83
277.09	35.5
277.306	0.68
277.521	51.88
277.737	-17.75
277.952	92.84
278.168	-19.8
278.383	76.46
278.599	29.35
278.814	-19.8
279.03	29.35
279.245	92.84
279.461	53.93
279.676	49.83
279.892	-52.56
280.107	29.35
280.322	-30.04
280.538	60.07
280.753	-17.75
280.969	90.79
281.184	29.35
281.399	72.36
281.615	-21.85
281.83	41.64
282.045	10.92
282.26	66.22
282.476	76.46
282.691	58.03
282.906	-56.66
283.122	-3.41
283.337	35.5
283.552	125.61
283.767	62.12
283.983	45.74
284.198	27.31
284.413	45.74
284.628	47.79
284.843	94.89
285.058	-3.41
285.274	45.74
285.489	27.31
285.704	84.65
285.919	15.02
286.134	10.92
286.349	21.16
286.564	12.97
286.779	86.7
286.995	0.68
287.21	-7.51
287.425	80.55
287.64	23.21
287.855	80.55
288.07	0.68
288.285	53.93
288.5	-21.85
288.715	129.7
288.93	-5.46
289.145	10.92
289.36	17.07
289.575	29.35
289.79	96.94
290.004	-23.89
290.219	47.79
290.434	27.31
290.649	41.64
290.864	8.87
291.079	53.93
291.294	-3.41
291.509	29.35
291.724	68.27
291.938	27.31
292.153	60.07
292.368	-11.61
292.583	-7.51
292.798	62.12
293.012	86.7
293.227	-44.37
293.442	35.5
293.657	-30.04
293.871	68.27
294.086	27.31
294.301	68.27
294.516	107.18
294.73	27.31
294.945	-52.56
295.16	68.27
295.374	47.79
295.589	68.27
295.804	45.74
296.018	66.22
296.233	150.18
296.447	4.78
296.662	21.16
296.877	37.55
297.091	35.5
297.306	-11.61
297.52	45.74
297.735	19.11
297.949	60.07
298.164	-13.65
298.378	49.83
298.593	68.27
298.807	86.7
299.022	-38.23
299.236	68.27
299.451	45.74
299.665	-1.37
299.88	51.88
300.094	-19.8
300.309	39.59
300.523	68.27
300.737	-52.56
300.952	109.22
301.166	17.07
301.381	12.97
301.595	19.11
301.809	-27.99
302.024	-56.66
302.238	-7.51
302.452	64.17
302.667	23.21
302.881	55.98
303.095	-34.13
303.309	-9.56
303.524	70.31
303.738	-44.37
303.952	-36.18
304.166	41.64
304.381	-38.23
304.595	-9.56
304.809	12.97
305.023	76.46
305.237	4.78
305.452	-23.89
305.666	39.59
305.88	-17.75
306.094	70.31
306.308	45.74
306.522	53.93
306.736	49.83
306.95	60.07
307.164	-36.18
307.379	70.31
307.593	41.64
307.807	119.46
308.021	84.65
308.235	45.74
308.449	78.51
308.663	12.97
308.877	121.51
309.091	70.31
309.305	-1.37
309.519	41.64
309.733	53.93
309.947	-23.89
310.161	-1.37
310.374	-71
310.588	111.27
310.802	51.88
311.016	62.12
311.23	94.89
311.444	94.89
311.658	-13.65
311.872	78.51
312.085	23.21
312.299	47.79
312.513	49.83
312.727	17.07
312.941	17.07
313.154	68.27
313.368	8.87
313.582	70.31
313.796	33.45
314.009	12.97
314.223	33.45
314.437	53.93
314.651	94.89
314.864	51.88
315.078	45.74
315.292	-7.51
315.505	12.97
315.719	2.73
315.933	17.07
316.146	-17.75
316.36	-27.99
316.573	90.79
316.787	78.51
317.001	29.35
317.214	12.97
317.428	49.83
317.641	0.68
317.855	6.83
318.068	66.22
318.282	4.78
318.495	43.69
318.709	101.03
318.922	17.07
319.136	15.02
319.349	123.56
319.563	-48.47
319.776	8.87
319.99	23.21
320.203	62.12
320.417	21.16
320.63	45.74
320.843	86.7
321.057	2.73
321.27	62.12
321.483	-3.41
321.697	31.4
321.91	70.31
322.124	76.46
322.337	148.14
322.55	121.51
322.763	-9.56
322.977	70.31
323.19	60.07
323.403	60.07
323.617	70.31
323.83	33.45
324.043	8.87
324.256	86.7
324.469	-36.18
324.683	84.65
324.896	84.65
325.109	66.22
325.322	-42.32
325.535	10.92
325.748	43.69
325.962	74.41
326.175	-15.7
326.388	8.87
326.601	148.14
326.814	109.22
327.027	15.02
327.24	53.93
327.453	-13.65
327.666	92.84
327.879	41.64
328.092	60.07
328.305	15.02
328.518	39.59
328.731	0.68
328.944	-7.51
329.157	70.31
329.37	53.93
329.583	92.84
329.796	70.31
330.009	0.68
330.222	43.69
330.435	123.56
330.648	41.64
330.861	37.55
331.073	23.21
331.286	51.88
331.499	-11.61
331.712	33.45
331.925	12.97
332.138	152.23
332.35	-1.37
332.563	51.88
332.776	37.55
332.989	8.87
333.202	17.07
333.414	-23.89
333.627	-11.61
333.84	27.31
334.053	70.31
334.265	21.16
334.478	-11.61
334.691	66.22
334.903	45.74
335.116	49.83
335.329	66.22
335.541	80.55
335.754	86.7
335.966	-48.47
336.179	25.26
336.392	58.03
336.604	25.26
336.817	47.79
337.029	49.83
337.242	-21.85
337.454	62.12
337.667	25.26
337.88	115.37
338.092	-1.37
338.305	111.27
338.517	12.97
338.729	27.31
338.942	70.31
339.154	39.59
339.367	70.31
339.579	90.79
339.792	12.97
340.004	39.59
340.217	-13.65
340.429	15.02
340.641	19.11
340.854	66.22
341.066	-19.8
341.278	39.59
341.491	90.79
341.703	47.79
341.915	66.22
342.128	103.08
342.34	70.31
342.552	29.35
342.764	21.16
342.977	31.4
343.189	53.93
343.401	-7.51
343.613	53.93
343.826	12.97
344.038	-50.52
344.25	111.27
344.462	41.64
344.674	51.88
344.886	2.73
345.099	144.04
345.311	74.41
345.523	10.92
345.735	27.31
345.947	21.16
346.159	78.51
346.371	37.55
346.583	39.59
346.795	127.66
347.007	31.4
347.219	47.79
347.431	19.11
347.643	82.6
347.855	64.17
348.067	27.31
348.279	33.45
348.491	45.74
348.703	94.89
348.915	-13.65
349.127	35.5
349.339	10.92
349.551	119.46
349.763	45.74
349.975	37.55
350.187	-17.75
350.399	72.36
350.61	12.97
350.822	27.31
351.034	0.68
351.246	70.31
351.458	-19.8
351.669	47.79
351.881	111.27
352.093	45.74
352.305	90.79
352.517	62.12
352.728	146.09
352.94	109.22
353.152	10.92
353.363	-30.04
353.575	49.83
353.787	10.92
353.999	82.6
354.21	58.03
354.422	72.36
354.633	29.35
354.845	53.93
355.057	-5.46
355.268	76.46
355.48	70.31
355.692	10.92
355.903	29.35
356.115	-3.41
356.326	49.83
356.538	92.84
356.749	31.4
356.961	29.35
357.172	45.74
357.384	-5.46
357.595	139.94
357.807	82.6
358.018	39.59
358.23	-1.37
358.441	139.94
358.653	121.51
358.864	-3.41
359.075	31.4
359.287	51.88
359.498	4.78
359.709	98.99
359.921	21.16
360.132	23.21
360.344	123.56
360.555	109.22
360.766	72.36
360.977	25.26
361.189	66.22
361.4	8.87
361.611	98.99
361.823	86.7
362.034	37.55
362.245	-19.8
362.456	55.98
362.667	49.83
362.879	58.03
363.09	-5.46
363.301	60.07
363.512	94.89
363.723	33.45
363.935	31.4
364.146	88.75
364.357	55.98
364.568	62.12
364.779	-36.18
364.99	62.12
365.201	23.21
365.412	80.55
365.623	-44.37
365.834	101.03
366.045	98.99
366.256	66.22
366.467	29.35
366.678	78.51
366.889	-30.04
367.1	35.5
367.311	86.7
367.522	78.51
367.733	45.74
367.944	78.51
368.155	58.03
368.366	55.98
368.577	45.74
368.788	10.92
368.999	29.35
369.209	68.27
369.42	111.27
369.631	-3.41
369.842	84.65
370.053	49.83
370.264	70.31
370.474	39.59
370.685	53.93
370.896	45.74
371.107	37.55
371.317	125.61
371.528	-58.71
371.739	41.64
371.95	74.41
372.16	103.08
372.371	37.55
372.582	25.26
372.792	49.83
373.003	49.83
373.214	78.51
373.424	55.98
373.635	25.26
373.846	86.7
374.056	27.31
374.267	-36.18
374.477	-7.51
374.688	29.35
374.898	84.65
375.109	84.65
375.319	21.16
375.53	82.6
375.74	111.27
375.951	74.41
376.161	111.27
376.372	111.27
376.582	101.03
376.793	133.8
377.003	55.98
377.214	45.74
377.424	41.64
377.635	12.97
377.845	88.75
378.055	105.13
378.266	37.55
378.476	60.07
378.686	35.5
378.897	27.31
379.107	-23.89
379.317	103.08
379.528	74.41
379.738	37.55
379.948	8.87
380.158	35.5
380.369	78.51
380.579	135.85
380.789	17.07
380.999	45.74
381.21	53.93
381.42	49.83
381.63	10.92
381.84	41.64
382.05	66.22
382.261	133.8
382.471	115.37
382.681	-60.76
382.891	86.7
383.101	94.89
383.311	70.31
383.521	53.93
383.731	72.36
383.941	29.35
384.151	12.97
384.361	78.51
384.571	135.85
384.781	88.75
384.991	23.21
385.201	66.22
385.411	109.22
385.621	17.07
385.831	74.41
386.041	29.35
386.251	49.83
386.461	115.37
386.671	146.09
386.881	-3.41
387.091	25.26
387.301	21.16
387.511	21.16
387.72	70.31
387.93	92.84
388.14	101.03
388.35	70.31
388.56	78.51
388.769	51.88
388.979	49.83
389.189	-1.37
389.399	37.55
389.609	111.27
389.818	53.93
390.028	-30.04
390.238	25.26
390.447	12.97
390.657	139.94
390.867	51.88
391.076	66.22
391.286	111.27
391.496	66.22
391.705	2.73
391.915	58.03
392.125	-11.61
392.334	84.65
392.544	101.03
392.753	41.64
392.963	76.46
393.172	82.6
393.382	12.97
393.591	119.46
393.801	-23.89
394.01	160.42
394.22	86.7
394.429	90.79
394.639	68.27
394.848	117.42
395.058	107.18
395.267	70.31
395.477	96.94
395.686	47.79
395.895	78.51
396.105	133.8
396.314	101.03
396.524	62.12
396.733	15.02
396.942	115.37
397.152	117.42
397.361	90.79
397.57	66.22
397.78	119.46
397.989	115.37
398.198	156.33
398.407	94.89
398.617	144.04
398.826	82.6
399.035	78.51
399.244	129.7
399.453	98.99
399.663	117.42
399.872	150.18
400.081	105.13
400.29	103.08
400.499	109.22
400.708	76.46
400.917	117.42
401.127	111.27
401.336	43.69
401.545	139.94
401.754	123.56
401.963	90.79
402.172	45.74
402.381	107.18
402.59	119.46
402.799	113.32
403.008	111.27
403.217	74.41
403.426	94.89
403.635	172.71
403.844	131.75
404.053	176.81
404.262	156.33
404.471	105.13
404.68	133.8
404.888	137.9
405.097	168.62
405.306	156.33
405.515	121.51
405.724	219.82
405.933	185
406.142	113.32
406.35	150.18
406.559	164.52
406.768	121.51
406.977	160.42
407.185	217.77
407.394	221.86
407.603	123.56
407.812	168.62
408.02	238.25
408.229	207.53
408.438	207.53
408.646	170.66
408.855	225.96
409.064	316.07
409.272	205.48
409.481	297.64
409.69	301.73
409.898	176.81
410.107	275.11
410.315	336.55
410.524	289.45
410.733	336.55
410.941	311.97
411.15	350.89
411.358	316.07
411.567	357.03
411.775	357.03
411.984	494.24
412.192	389.8
412.401	412.32
412.609	494.24
412.818	449.19
413.026	457.38
413.234	471.72
413.443	529.06
413.651	461.48
413.86	500.39
414.068	586.4
414.276	527.01
414.485	596.64
414.693	639.65
414.901	608.93
415.11	531.11
415.318	723.62
415.526	756.38
415.734	617.12
415.943	746.14
416.151	772.77
416.359	813.73
416.567	778.91
416.776	869.02
416.984	895.64
417.192	875.17
417.4	909.98
417.608	938.65
417.817	967.32
418.025	1032.86
418.233	1034.91
418.441	1055.39
418.649	1118.87
418.857	1278.62
419.065	1268.38
419.273	1106.59
419.481	1268.38
419.689	1340.05
419.897	1333.91
420.105	1436.31
420.313	1401.49
420.521	1409.69
420.729	1460.88
420.937	1569.43
421.145	1499.8
421.353	1753.74
421.561	1821.33
421.769	1827.47
421.977	1895.05
422.185	1856.14
422.393	1974.92
422.601	2151.05
422.809	2282.12
423.017	2167.43
423.224	2267.78
423.432	2435.72
423.64	2310.79
423.848	2525.83
424.056	2466.44
424.263	2585.22
424.471	2695.81
424.679	2656.9
424.887	2865.79
425.094	2890.37
425.302	2912.89
425.51	3168.89
425.718	3086.97
425.925	3060.35
426.133	3207.8
426.341	3445.37
426.548	3455.61
426.756	3758.71
426.964	3601.01
427.171	3672.69
427.379	4108.91
427.586	3983.98
427.794	4223.59
428.001	4366.95
428.209	4403.82
428.417	4418.15
428.624	4772.45
428.832	4713.06
429.039	4797.03
429.247	4651.62
429.454	5251.67
429.662	5665.36
429.869	5071.45
430.076	5464.66
430.284	5337.69
430.491	5593.69
430.699	5898.83
430.906	5859.92
431.114	5841.49
431.321	6183.5
431.528	6382.15
431.736	6578.76
431.943	6933.06
432.15	6844.99
432.358	6828.61
432.565	7332.41
432.772	7207.48
432.979	7576.12
433.187	7615.03
433.394	7821.88
433.601	8303.15
433.808	8309.29
434.016	8301.1
434.223	8784.42
434.43	9093.66
434.637	9005.6
434.844	9615.9
435.052	9855.51
435.259	9755.16
435.466	9626.14
435.673	9716.25
435.88	10095.12
436.087	10596.87
436.294	10664.46
436.501	10588.68
436.708	10779.14
436.915	11041.28
437.122	11522.55
437.329	11598.33
437.537	11870.71
437.743	11952.63
437.95	11971.06
438.157	12677.61
438.364	12976.61
438.571	12872.17
438.778	12984.8
438.985	14195.15
439.192	13648.35
439.399	14068.18
439.606	13736.41
439.813	14696.91
440.02	15552.96
440.227	15114.69
440.433	14942.66
440.64	15530.43
440.847	15774.14
441.054	15866.3
441.261	16953.77
441.467	16658.86
441.674	16863.66
441.881	17408.42
442.088	17605.02
442.294	17596.83
442.501	17938.84
442.708	18409.87
442.914	19081.61
443.121	19837.31
443.328	19356.04
443.534	20373.88
443.741	20107.64
443.948	19683.71
444.154	21258.6
444.361	21143.91
444.568	21543.27
444.774	21512.55
444.981	21350.76
445.187	21913.95
445.394	22872.4
445.6	22731.09
445.807	24901.93
446.013	23841.09
446.22	24336.7
446.426	25219.37
446.633	25340.2
446.839	26036.51
447.046	24953.13
447.252	26169.63
447.459	26335.51
447.665	26429.72
447.871	27343.11
448.078	28418.3
448.284	27074.83
448.491	27994.37
448.697	28866.8
448.903	29366.51
449.11	29571.3
449.316	29094.13
449.522	29747.43
449.728	30226.65
449.935	30718.17
450.141	30515.42
450.347	31334.6
450.553	30044.38
450.76	30380.25
450.966	31357.13
451.172	31146.19
451.378	31885.51
451.584	31514.83
451.791	32221.37
451.997	31553.74
452.203	32235.71
452.409	31897.8
452.615	31981.76
452.821	30931.15
453.027	30712.02
453.233	32010.43
453.44	30587.1
453.646	31316.17
453.852	31424.72
454.058	32018.63
454.264	30750.93
454.47	31400.14
454.676	30523.61
454.882	31789.25
455.088	28764.4
455.294	29075.69
455.5	29395.18
455.705	30050.53
455.911	28788.98
456.117	28375.29
456.323	27652.36
456.529	26349.85
456.735	27554.05
456.941	26622.23
457.147	26374.42
457.352	25340.2
457.558	24985.9
457.764	25309.48
457.97	25112.88
458.176	24361.27
458.381	24424.76
458.587	23181.64
458.793	23007.56
458.999	21660
459.204	23292.23
459.41	22786.38
459.616	21102.95
459.821	21014.89
460.027	21021.03
460.233	20859.24
460.438	19638.65
460.644	19962.23
460.85	19040.65
461.055	18925.96
461.261	18692.49
461.466	17484.19
461.672	16834.99
461.878	17779.1
462.083	16798.12
462.289	16406.96
462.494	16529.84
462.7	15720.89
462.905	15225.28
463.111	15692.22
463.316	15946.17
463.522	15593.92
463.727	15643.07
463.932	15313.34
464.138	15190.47
464.343	15368.64
464.549	15155.65
464.754	15395.26
464.959	15428.03
465.165	15176.13
465.37	14555.6
465.575	14408.14
465.781	14522.83
465.986	14758.35
466.191	14244.31
466.397	14098.9
466.602	13328.86
466.807	13887.96
467.012	13756.89
467.218	13775.32
467.423	13498.84
467.628	13736.41
467.833	14174.67
468.038	13683.16
468.244	13253.09
468.449	14002.64
468.654	13275.62
468.859	13189.6
469.064	13277.66
469.269	12765.67
469.474	12972.52
469.679	12995.04
469.885	12823.01
470.09	12855.78
470.295	12661.23
470.5	12524.01
470.705	12601.83
470.91	12159.47
471.115	12182
471.32	12390.89
471.525	12263.92
471.73	11954.68
471.935	12050.93
472.139	11495.93
472.344	11555.32
472.549	11487.74
472.754	11551.23
472.959	11299.33
473.164	10916.36
473.369	10838.53
473.574	11098.63
473.778	11112.96
473.983	10824.2
474.188	11047.43
474.393	10377.74
474.598	10492.43
474.802	10306.06
475.007	10041.87
475.212	10420.75
475.417	10109.46
475.621	10000.91
475.826	10134.03
476.031	9959.95
476.235	9812.5
476.44	9794.07
476.645	9583.13
476.849	9554.46
477.054	9654.81
477.259	9339.42
477.463	9511.45
477.668	9167.39
477.872	9144.86
478.077	8870.44
478.282	8978.98
478.486	8772.13
478.691	8647.21
478.895	8774.18
479.1	8714.79
479.304	8655.4
479.509	8276.52
479.713	8591.91
479.918	8475.18
480.122	8436.27
480.326	8313.39
480.531	8417.83
480.735	8311.34
480.94	8245.8
481.144	8493.61
481.348	8102.45
481.553	8167.98
481.757	8010.29
481.961	8106.54
482.166	8219.18
482.37	8245.8
482.574	8088.11
482.778	8278.57
482.983	8151.6
483.187	8165.93
483.391	8376.87
483.595	8127.02
483.8	7971.38
484.004	8200.75
484.208	8127.02
484.412	8133.17
484.616	8317.48
484.821	8073.78
485.025	8102.45
485.229	8196.65
485.433	8147.5
485.637	8167.98
485.841	8167.98
486.045	8049.2
486.249	8174.13
486.453	8221.23
486.657	8210.99
486.861	8131.12
487.065	7897.65
487.269	8118.83
487.473	7948.85
487.677	8286.76
487.881	8307.24
488.085	8167.98
488.289	8272.43
488.493	8159.79
488.697	8299.05
488.901	8194.61
489.105	8383.02
489.309	8196.65
489.512	8237.61
489.716	8241.71
489.92	8274.48
490.124	8274.48
490.328	8294.96
490.531	8399.4
490.735	8442.41
490.939	8366.63
491.143	8456.75
491.346	8393.26
491.55	8374.83
491.754	8401.45
491.958	8526.38
492.161	8581.67
492.365	8505.9
492.569	8593.96
492.772	8645.16
492.976	8841.76
493.18	8665.64
493.383	8833.57
493.587	8673.83
493.79	8968.74
493.994	8747.56
494.197	8833.57
494.401	9124.38
494.605	8909.35
494.808	9249.31
495.012	9126.43
495.215	9214.49
495.419	9437.72
495.622	9423.39
495.825	9626.14
496.029	9611.8
496.232	9886.23
496.436	9560.6
496.639	9933.33
496.843	9931.28
497.046	10062.35
497.249	10211.85
497.453	10232.33
497.656	10261.01
497.859	10375.69
498.063	10517
498.266	10777.09
498.469	10775.05
498.673	10658.31
498.876	10797.57
499.079	10973.7
499.282	10889.73
499.485	11411.96
499.689	11510.27
499.892	11651.58
500.095	11475.45
500.298	11747.83
500.501	11706.87
500.705	12028.4
500.908	12354.03
501.111	12192.24
501.314	12421.61
501.517	12706.28
501.72	12607.98
501.923	12849.64
502.126	13197.79
502.329	13134.31
502.532	13386.21
502.735	13369.82
502.938	13707.74
503.141	13515.23
503.344	13953.49
503.547	13965.78
503.75	14117.33
503.953	14291.41
504.156	14449.1
504.359	14633.42
504.562	14633.42
504.765	15016.39
504.968	15198.66
505.17	15415.74
505.373	15473.09
505.576	15532.48
505.779	15784.38
505.982	15980.98
506.185	16331.19
506.387	16388.53
506.59	16456.11
506.793	16511.41
506.996	16497.07
507.198	16974.25
507.401	17291.68
507.604	17199.52
507.807	17277.35
508.009	17629.6
508.212	17856.92
508.415	18366.87
508.617	18278.8
508.82	18612.62
509.022	18473.36
509.225	19030.41
509.428	19288.45
509.63	19284.36
509.833	19360.13
510.035	19831.16
510.238	19628.42
510.44	20007.29
510.643	20033.91
510.845	20406.64
511.048	20586.86
511.25	20486.51
511.453	21061.99
511.655	21694.82
511.858	21580.13
512.06	21606.75
512.262	21651.81
512.465	21584.23
512.667	22108.51
512.87	22229.34
513.072	22784.33
513.274	23062.86
513.477	23114.06
513.679	23380.29
513.881	23798.08
514.084	23857.47
514.286	23839.04
514.488	24084.8
514.69	24967.47
514.893	24768.82
515.095	24873.26
515.297	25149.74
515.499	25293.1
515.701	25712.93
515.904	25846.05
516.106	26349.85
516.308	26415.38
516.51	26665.24
516.712	26982.67
516.914	27035.92
517.116	27590.92
517.318	27592.97
517.52	27797.76
517.722	27961.6
517.925	28719.35
518.127	28809.46
518.329	28831.99
518.531	28487.93
518.733	29464.81
518.935	29628.65
519.136	29860.07
519.338	30240.99
519.54	30165.21
519.742	30300.38
519.944	30947.54
520.146	31318.22
520.348	31379.66
520.55	31828.16
520.752	31795.4
520.954	32381.12
521.155	31758.53
521.357	32946.36
521.559	32745.65
521.761	33493.16
521.963	33317.04
522.164	33749.16
522.366	33765.54
522.568	33616.04
522.77	34424.99
522.971	34691.23
523.173	34498.72
523.375	34662.55
523.576	34846.87
523.778	35346.58
523.98	35790.98
524.181	35950.73
524.383	35743.88
524.584	36757.63
524.786	36565.12
524.988	36499.58
525.189	37103.73
525.391	37245.04
525.592	37343.34
525.794	37425.26
525.995	37582.96
526.197	37752.94
526.398	38017.13
526.6	38125.67
526.801	38473.82
527.003	38301.79
527.204	38797.4
527.406	39092.31
527.607	38684.76
527.808	39303.25
528.01	38590.56
528.211	39192.66
528.412	40003.66
528.614	39632.97
528.815	39770.19
529.016	40056.9
529.218	39675.98
529.419	40001.61
529.62	40118.34
529.822	40278.08
530.023	40130.63
530.224	40552.51
530.425	40302.66
530.626	40044.62
530.828	39954.5
531.029	41021.5
531.23	40759.36
531.431	40638.53
531.632	41070.65
531.833	40501.31
532.035	41246.77
532.236	41095.22
532.437	41664.56
532.638	41105.46
532.839	41396.28
533.04	41338.93
533.241	41019.45
533.442	41945.13
533.643	41502.77
533.844	41580.59
534.045	41609.26
534.246	41506.87
534.447	41697.33
534.648	41551.92
534.849	41744.43
535.05	41392.18
535.251	41756.72
535.451	41883.69
535.652	41840.68
535.853	41715.76
536.054	41652.27
536.255	41984.04
536.456	41336.88
536.657	42528.8
536.857	41949.23
537.058	41613.36
537.259	42199.08
537.46	42000.43
537.66	41713.71
537.861	42231.85
538.062	42065.96
538.263	42117.16
538.463	41801.77
538.664	42088.49
538.865	42352.68
539.065	42383.4
539.266	41703.47
539.466	42442.79
539.667	41670.7
539.868	42711.07
540.068	41599.02
540.269	42025
540.469	42395.68
540.67	41617.46
540.87	42072.1
541.071	41621.55
541.271	42559.52
541.472	41707.57
541.672	41887.79
541.873	42010.67
542.073	41465.91
542.274	42006.57
542.474	41887.79
542.675	41642.03
542.875	42258.47
543.075	41961.51
543.276	41650.22
543.476	42047.53
543.676	41769.01
543.877	41977.9
544.077	41920.56
544.277	41670.7
544.478	41711.66
544.678	42049.58
544.878	41596.98
545.078	42080.3
545.279	41453.62
545.479	41795.63
545.679	41846.83
545.879	41218.1
546.079	41687.09
546.28	41771.05
546.48	41435.19
546.68	41981.99
546.88	41797.68
547.08	42074.15
547.28	41660.46
547.48	41601.07
547.68	42072.1
547.88	41332.79
548.081	41486.39
548.281	41881.64
548.481	41424.95
548.681	42164.26
548.881	41648.18
549.081	41355.32
549.28	41508.91
549.48	41570.35
549.68	41220.15
549.88	42203.17
550.08	41373.75
550.28	41642.03
550.48	41191.48
550.68	41828.4
550.88	41347.12
551.08	41238.58
551.279	41582.64
551.479	41359.41
551.679	41326.64
551.879	41390.13
552.079	41533.49
552.278	41441.33
552.478	41728.05
552.678	41175.09
552.878	41400.37
553.077	41230.39
553.277	41486.39
553.477	41850.92
553.676	40757.31
553.876	41500.72
554.076	40904.76
554.275	41304.12
554.475	40810.56
554.674	41488.43
554.874	41416.75
555.074	40783.93
555.273	41220.15
555.473	40915
555.672	41050.17
555.872	40755.26
556.071	41072.7
556.271	40912.95
556.47	40929.34
556.67	40081.48
556.869	40581.18
557.068	40689.73
557.268	40507.46
557.467	40302.66
557.667	40650.81
557.866	40478.79
558.065	40343.62
558.265	39903.31
558.464	40007.75
558.663	40175.69
558.863	40071.24
559.062	40235.08
559.261	39712.84
559.461	40382.53
559.66	39383.12
559.859	40421.44
560.058	39436.37
560.258	39936.07
560.457	39293.01
560.656	39727.18
560.855	39188.56
561.054	39700.56
561.253	39092.31
561.453	39329.87
561.652	39532.62
561.851	39499.86
562.05	39346.26
562.249	39073.88
562.448	39131.22
562.647	38961.24
562.846	38705.24
563.045	39073.88
563.244	38701.15
563.443	38684.76
563.642	38156.39
563.841	38656.09
564.04	38420.58
564.239	38600.8
564.438	37988.46
564.637	38244.45
564.836	38221.92
565.035	37738.6
565.234	37832.81
565.432	37884.01
565.631	37378.16
565.83	37808.23
566.029	37439.6
566.228	37312.63
566.427	37185.65
566.625	36900.98
566.824	36894.84
567.023	37263.47
567.222	36257.92
567.42	37044.34
567.619	37177.46
567.818	36632.7
568.016	36286.59
568.215	36999.29
568.414	36186.24
568.612	36358.27
568.811	35936.39
569.01	36372.61
569.208	35731.59
569.407	35928.2
569.605	35481.74
569.804	36092.04
570.002	35678.35
570.201	35780.74
570.4	35616.91
570.598	34922.65
570.797	35313.81
570.995	35182.74
571.193	34807.96
571.392	35047.57
571.59	34666.65
571.789	34691.23
571.987	34963.61
572.186	34658.46
572.384	34375.84
572.582	34330.78
572.781	34660.51
572.979	34138.27
573.177	34218.14
573.376	34201.76
573.574	33798.31
573.772	33941.67
573.971	33693.86
574.169	33550.51
574.367	33210.54
574.565	33835.17
574.763	33026.23
574.962	33448.11
575.16	33274.03
575.358	33138.86
575.556	32952.5
575.754	32983.22
575.952	32426.17
576.151	32778.42
576.349	32389.31
576.547	32647.35
576.745	32403.64
576.943	32571.58
577.141	32159.94
577.339	32049.35
577.537	31992
577.735	32225.47
577.933	31860.93
578.131	31989.95
578.329	31799.49
578.527	31783.11
578.725	31523.02
578.923	31484.11
579.121	31541.45
579.319	31097.04
579.516	31236.3
579.714	31357.13
579.912	31074.51
580.11	31320.27
580.308	30816.47
580.506	30580.95
580.704	30509.27
580.901	30560.47
581.099	30904.53
581.297	30353.63
581.495	30513.37
581.692	30157.02
581.89	30081.25
582.088	30212.32
582.285	30034.14
582.483	30111.97
582.681	29796.58
582.878	29747.43
583.076	29221.1
583.274	29819.11
583.471	29520.1
583.669	29616.36
583.866	29083.89
584.064	29561.06
584.262	28791.03
584.459	29174
584.657	28844.27
584.854	28870.9
585.052	28365.05
585.249	29049.07
585.447	29108.46
585.644	28371.19
585.841	28594.42
586.039	28946.67
586.236	28457.21
586.434	28160.25
586.631	28180.73
586.828	28104.96
587.026	28326.14
587.223	27977.98
587.42	27916.54
587.618	27996.42
587.815	27431.18
588.012	27599.11
588.21	27492.62
588.407	27683.08
588.604	27318.54
588.801	27181.32
588.999	27091.21
589.196	27330.83
589.393	27199.76
589.59	27144.46
589.787	26673.43
589.984	26669.33
590.182	26556.69
590.379	26853.65
590.576	26181.92
590.773	26474.77
590.97	26278.17
591.167	26259.74
591.364	26018.08
591.561	26147.1
591.758	25823.52
591.955	26177.82
592.152	25803.04
592.349	25803.04
592.546	25702.69
592.743	26054.94
592.94	25356.58
593.137	25688.35
593.334	25805.09
593.531	25112.88
593.727	25213.23
593.924	25178.41
594.121	24987.95
594.318	25227.56
594.515	25020.72
594.712	25018.67
594.908	24598.84
595.105	24889.65
595.302	24555.83
595.499	24703.28
595.696	24752.43
595.892	24092.99
596.089	24539.44
596.286	24389.94
596.482	24217.91
596.679	24217.91
596.876	24289.59
597.072	24213.82
597.269	23775.55
597.466	23701.82
597.662	23685.44
597.859	23673.15
598.055	23970.11
598.252	23312.71
598.448	23714.11
598.645	23705.92
598.841	22868.3
599.038	23224.65
599.234	23513.41
599.431	22968.65
599.627	22946.12
599.824	23447.88
600.02	23370.05
600.217	23126.35
600.413	22733.14
600.609	23048.52
600.806	22540.63
601.002	22849.87
601.198	22483.28
601.395	22282.58
601.591	22212.95
601.787	22419.8
601.984	22139.22
602.18	22667.6
602.376	21932.38
602.572	22022.49
602.769	21926.24
602.965	21784.93
603.161	21862.75
603.357	21776.73
603.553	21858.65
603.75	21711.2
603.946	21719.39
604.142	21635.42
604.338	21356.9
604.534	21578.08
604.73	21363.04
604.926	21242.21
605.122	21176.68
605.318	20830.57
605.514	20980.07
605.71	20930.92
605.906	20666.74
606.102	21105
606.298	20689.26
606.494	20945.26
606.69	20695.41
606.886	20810.09
607.082	20398.45
607.278	20679.02
607.474	20029.82
607.67	20425.07
607.866	20132.22
608.062	20472.18
608.257	20232.57
608.453	20343.16
608.649	20412.79
608.845	20238.71
609.041	20236.66
609.236	20033.91
609.432	20113.78
609.628	19859.84
609.824	19956.09
610.019	19751.29
610.215	19825.02
610.411	19870.08
610.606	19624.32
610.802	19775.87
610.998	19468.67
611.193	19489.15
611.389	19304.84
611.584	19429.76
611.78	19495.3
611.976	19130.76
612.171	19165.57
612.367	19251.59
612.562	19065.22
612.758	19022.22
612.953	18862.47
613.149	19384.71
613.344	18809.23
613.539	19317.12
613.735	18973.07
613.93	19108.23
614.126	19042.7
614.321	19046.79
614.517	19038.6
614.712	18747.79
614.907	18596.24
615.103	18725.26
615.298	18483.6
615.493	18712.97
615.688	18360.72
615.884	18680.21
616.079	18362.77
616.274	18403.73
616.47	18459.02
616.665	18577.81
616.86	18438.55
617.055	18108.82
617.25	17998.23
617.445	18368.91
617.641	18102.68
617.836	18383.25
618.031	17682.84
618.226	18282.9
618.421	17897.88
618.616	17852.83
618.811	17658.27
619.006	17861.02
619.201	17211.81
619.396	17478.05
619.591	17269.16
619.786	17519.01
619.981	17193.38
620.176	17316.26
620.371	17244.58
620.566	17301.92
620.761	17084.84
620.956	17039.78
621.151	16925.1
621.346	16943.53
621.541	16640.43
621.735	16773.55
621.93	16464.3
622.125	16804.27
622.32	16314.8
622.515	16345.52
622.709	16085.43
622.904	16296.37
623.099	16157.11
623.294	16067
623.488	15913.4
623.683	15999.41
623.878	15714.75
624.072	15712.7
624.267	15765.95
624.462	15716.79
624.656	15382.98
624.851	15534.53
625.046	15360.45
625.24	15157.7
625.435	15028.68
625.629	15071.68
625.824	15106.5
626.018	14893.51
626.213	14545.36
626.407	14903.75
626.602	14735.82
626.796	14758.35
626.991	14803.4
627.185	14537.16
627.38	14324.18
627.574	14121.43
627.768	14393.81
627.963	14275.02
628.157	14150.1
628.352	14004.69
628.546	13660.63
628.74	13941.21
628.935	13814.23
629.129	13836.76
629.323	13498.84
629.517	13584.86
629.712	13500.89
629.906	13396.45
630.1	13269.47
630.294	13230.56
630.489	13083.11
630.683	13238.75
630.877	12917.22
631.071	13044.2
631.265	13074.92
631.459	12890.6
631.653	12755.43
631.848	12870.12
632.042	12644.84
632.236	12663.27
632.43	12446.19
632.624	12370.41
632.818	12624.36
633.012	12292.59
633.206	12358.13
633.4	12362.22
633.594	12104.18
633.788	12100.08
633.982	12042.74
634.176	12106.23
634.369	11813.37
634.563	11856.37
634.757	11655.67
634.951	11532.79
635.145	11782.65
635.339	11581.95
635.533	11612.67
635.726	11672.06
635.92	11512.31
636.114	11434.49
636.308	11328
636.501	11219.46
636.695	11295.23
636.889	11076.1
637.083	11104.77
637.276	11012.61
637.47	10781.19
637.664	10945.03
637.857	10912.26
638.051	10807.81
638.244	10682.89
638.438	10613.26
638.632	10334.73
638.825	10506.76
639.019	10410.51
639.212	10383.88
639.406	10547.72
639.599	10076.69
639.793	10177.04
639.986	10123.79
640.18	10111.5
640.373	10209.81
640.567	9982.48
640.76	10097.17
640.954	9785.88
641.147	9847.32
641.34	9742.87
641.534	9742.87
641.727	9695.77
641.92	9605.66
642.114	9415.19
642.307	9746.97
642.5	9753.11
642.694	9251.36
642.887	9349.66
643.08	9427.48
643.273	9323.04
643.467	9404.96
643.66	9234.97
643.853	8888.87
644.046	9105.95
644.239	8974.88
644.432	9155.1
644.626	8856.1
644.819	8856.1
645.012	8897.06
645.205	8784.42
645.398	8647.21
645.591	8593.96
645.784	8364.59
645.977	8528.42
646.17	8553
646.363	8442.41
646.556	8411.69
646.749	8475.18
646.942	8323.63
647.135	8487.47
647.328	8270.38
647.521	8327.72
647.714	8421.93
647.907	8147.5
648.099	7932.47
648.292	8127.02
648.485	8020.53
648.678	8032.82
648.871	8104.49
649.064	7924.27
649.256	7926.32
649.449	7856.69
649.642	7768.63
649.835	7705.14
650.027	7598.65
650.22	7653.94
650.413	7606.84
650.605	7705.14
650.798	7457.34
650.991	7383.61
651.183	7561.78
651.376	7303.74
651.568	7354.94
651.761	7359.03
651.954	7397.95
652.146	7330.36
652.339	7459.38
652.531	7305.79
652.724	7195.2
652.916	7021.12
653.109	7062.08
653.301	6928.96
653.494	6994.5
653.686	6935.1
653.879	7019.07
654.071	6976.06
654.263	6734.4
654.456	6871.62
654.648	6750.79
654.84	6765.12
655.033	6910.53
655.225	6744.64
655.417	6722.12
655.61	6433.35
655.802	6677.06
655.994	6677.06
656.186	6652.49
656.379	6541.89
656.571	6591.05
656.763	6416.97
656.955	6394.44
657.148	6437.45
657.34	6513.22
657.532	6302.28
657.724	6251.08
657.916	6279.75
658.108	5952.08
658.3	6087.25
658.492	6136.4
658.684	6001.23
658.876	6091.34
659.068	5982.8
659.26	6013.52
659.452	6068.81
659.644	6048.33
659.836	6056.53
660.028	6072.91
660.22	5855.83
660.412	5745.23
660.604	5585.49
660.796	5818.96
660.988	5735
661.18	5698.13
661.372	5673.56
661.563	5628.5
661.755	5636.69
661.947	5673.56
662.139	5626.45
662.331	5485.14
662.522	5587.54
662.714	5347.93
662.906	5415.51
663.097	5452.38
663.289	5376.6
663.481	5335.64
663.673	5585.49
663.864	5235.29
664.056	5227.1
664.247	5302.87
664.439	5261.91
664.631	5339.74
664.822	5268.06
665.014	5177.95
665.205	5128.8
665.397	5100.12
665.588	5102.17
665.78	5132.89
665.971	5171.8
666.163	5157.47
666.354	5112.41
666.546	5073.5
666.737	5024.35
666.929	5014.11
667.12	4842.08
667.311	4821.6
667.503	4889.18
667.694	4893.28
667.885	4942.43
668.077	4819.55
668.268	4985.44
668.459	4926.05
668.651	4985.44
668.842	4854.37
669.033	4840.03
669.224	4680.29
669.416	4696.68
669.607	4788.83
669.798	4543.08
669.989	4665.96
670.18	4723.3
670.371	4731.49
670.563	4751.97
670.754	4665.96
670.945	4674.15
671.136	4622.95
671.327	4651.62
671.518	4430.44
671.709	4725.35
671.9	4733.54
672.091	4532.84
672.282	4526.69
672.473	4518.5
672.664	4600.42
672.855	4526.69
673.046	4338.28
673.237	4602.47
673.428	4338.28
673.619	4450.92
673.809	4530.79
674	4424.3
674.191	4518.5
674.382	4424.3
674.573	4436.58
674.764	4325.99
674.954	4524.65
675.145	4313.7
675.336	4422.25
675.527	4325.99
675.717	4373.1
675.908	4395.62
676.099	4332.14
676.289	4328.04
676.48	4420.2
676.671	4391.53
676.861	4280.94
677.052	4334.18
677.243	4336.23
677.433	4280.94
677.624	4317.8
677.814	4180.59
678.005	4434.53
678.195	4321.9
678.386	4330.09
678.576	4149.87
678.767	4268.65
678.957	4301.42
679.148	4289.13
679.338	4194.92
679.529	4213.35
679.719	4350.57
679.909	4256.36
680.1	4137.58
680.29	4174.44
680.481	4289.13
680.671	4315.75
680.861	4205.16
681.052	4317.8
681.242	4190.83
681.432	4307.56
681.622	4139.63
681.813	4149.87
682.003	4291.18
682.193	4115.05
682.383	4287.08
682.573	4190.83
682.764	4192.87
682.954	4235.88
683.144	4223.59
683.334	4213.35
683.524	4287.08
683.714	4309.61
683.904	4117.1
684.094	4125.29
684.284	4147.82
684.474	4358.76
684.664	4252.27
684.854	4174.44
685.044	4106.86
685.234	4082.28
685.424	4192.87
685.614	4113
685.804	4012.65
685.994	4055.66
686.184	4248.17
686.374	3953.26
686.564	3977.84
686.753	4059.76
686.943	4072.04
687.133	4080.24
687.323	4016.75
687.513	4018.8
687.702	3973.74
687.892	3959.41
688.082	3936.88
688.272	3961.45
688.461	3912.3
688.651	4006.51
688.841	3809.9
689.03	3916.4
689.22	3773.04
689.41	3895.92
689.599	3881.58
689.789	3826.29
689.979	3705.46
690.168	3660.4
690.358	3650.16
690.547	3674.74
690.737	3695.22
690.926	3666.55
691.116	3734.13
691.305	3660.4
691.495	3770.99
691.684	3631.73
691.874	3637.88
692.063	3646.07
692.252	3723.89
692.442	3560.05
692.631	3543.67
692.82	3574.39
693.01	3613.3
693.199	3451.51
693.388	3609.2
693.578	3625.59
693.767	3603.06
693.956	3453.56
694.146	3672.69
694.335	3441.27
694.524	3418.74
694.713	3535.48
694.902	3422.84
695.092	3457.65
695.281	3494.52
695.47	3449.46
695.659	3424.89
695.848	3396.21
696.037	3422.84
696.226	3351.16
696.415	3332.73
696.604	3414.65
696.793	3388.02
696.982	3476.09
697.171	3465.85
697.36	3416.69
697.549	3449.46
697.738	3322.49
697.927	3371.64
698.116	3433.08
698.305	3287.67
698.494	3328.63
698.683	3277.43
698.872	3328.63
699.061	3383.93
699.25	3322.49
699.438	3385.98
699.627	3424.89
699.816	3363.45
700.005	3363.45
700.193	3410.55
700.382	3471.99
700.571	3211.9
700.76	3295.86
700.948	3263.1
701.137	3328.63
701.326	3398.26
701.514	3314.3
701.703	3306.1
701.892	3218.04
702.08	3267.19
702.269	3338.87
702.457	3265.14
702.646	3222.14
702.834	3244.67
703.023	3168.89
703.212	3285.62
703.4	3338.87
703.589	3203.71
703.777	3369.59
703.965	3193.47
704.154	3279.48
704.342	3259
704.531	3201.66
704.719	3179.13
704.907	3408.5
705.096	3232.38
705.284	3207.8
705.472	3388.02
705.661	3252.86
705.849	3289.72
706.037	3310.2
706.226	3281.53
706.414	3381.88
706.602	3240.57
706.79	3322.49
706.979	3320.44
707.167	3306.1
707.355	3275.38
707.543	3156.6
707.731	3304.06
707.919	3299.96
708.107	3230.33
708.296	3230.33
708.484	3203.71
708.672	3285.62
708.86	3302.01
709.048	3365.5
709.236	3279.48
709.424	3287.67
709.612	3373.69
709.8	3330.68
709.988	3205.75
710.176	3220.09
710.364	3328.63
710.551	3224.19
710.739	3222.14
710.927	3248.76
711.115	3267.19
711.303	3336.82
711.491	3269.24
711.679	3261.05
711.866	3304.06
712.054	3396.21
712.242	3220.09
712.43	3279.48
712.617	3347.06
712.805	3222.14
712.993	3375.74
713.181	3183.23
713.368	3334.78
713.556	3279.48
713.744	3213.95
713.931	3394.17
714.119	3273.34
714.306	3254.9
714.494	3166.84
714.682	3388.02
714.869	3160.7
715.057	3164.79
715.244	3127.93
715.432	3273.34
715.619	3302.01
715.807	3299.96
715.994	3435.13
716.182	3269.24
716.369	3281.53
716.556	3158.65
716.744	3256.95
716.931	3232.38
717.119	3175.03
717.306	3295.86
717.493	3261.05
717.681	3400.31
717.868	3224.19
718.055	3330.68
718.242	3193.47
718.43	3363.45
718.617	3287.67
718.804	3299.96
718.991	3211.9
719.179	3234.43
719.366	3287.67
719.553	3228.28
719.74	3269.24
719.927	3238.52
720.114	3207.8
720.301	3183.23
720.488	3220.09
720.676	3218.04
720.863	3232.38
721.05	3289.72
721.237	3232.38
721.424	3355.26
721.611	3383.93
721.798	3232.38
721.985	3279.48
722.172	3308.15
722.358	3240.57
722.545	3172.99
722.732	3117.69
722.919	3215.99
723.106	3244.67
723.293	3338.87
723.48	3211.9
723.667	3240.57
723.853	3256.95
724.04	3232.38
724.227	3291.77
724.414	3211.9
724.6	3322.49
724.787	3285.62
724.974	3207.8
725.161	3193.47
725.347	2980.48
725.534	3234.43
725.72	3199.61
725.907	3197.56
726.094	3187.32
726.28	3390.07
726.467	3199.61
726.653	3195.51
726.84	3140.22
727.027	3302.01
727.213	3041.92
727.4	3224.19
727.586	3232.38
727.773	3199.61
727.959	3097.21
728.145	3179.13
728.332	3144.31
728.518	3119.74
728.705	3172.99
728.891	3218.04
729.077	3095.16
729.264	3134.07
729.45	3072.64
729.636	3132.03
729.823	3025.53
730.009	3060.35
730.195	3136.12
730.382	3170.94
730.568	3009.15
730.754	3050.11
730.94	3052.16
731.126	3158.65
731.313	3121.79
731.499	3039.87
731.685	3052.16
731.871	3068.54
732.057	3091.07
732.243	3074.68
732.429	3080.83
732.615	2992.77
732.801	3076.73
732.987	2964.09
733.173	2998.91
733.359	3060.35
733.545	3033.72
733.731	3033.72
733.917	3027.58
734.103	3156.6
734.289	3056.25
734.475	2904.7
734.661	3125.88
734.847	2986.62
735.033	3013.24
735.219	3011.2
735.404	3043.96
735.59	2992.77
735.776	2929.28
735.962	2953.85
736.148	3037.82
736.333	2994.81
736.519	2957.95
736.705	2935.42
736.89	2857.6
737.076	2876.03
737.262	2804.35
737.447	2808.45
737.633	2867.84
737.819	2835.07
738.004	2828.93
738.19	2978.43
738.375	2843.26
738.561	2923.13
738.747	2962.05
738.932	2800.26
739.118	3015.29
739.303	2777.73
739.489	2857.6
739.674	2794.11
739.859	2992.77
740.045	2822.78
740.23	2841.22
740.416	2712.19
740.601	2775.68
740.786	2822.78
740.972	2822.78
741.157	2790.02
741.342	2792.06
741.528	2837.12
741.713	2710.15
741.898	2693.76
742.084	2699.91
742.269	2650.75
742.454	2734.72
742.639	2708.1
742.824	2648.71
743.01	2777.73
743.195	2689.67
743.38	2669.19
743.565	2597.51
743.75	2646.66
743.935	2566.79
744.12	2736.77
744.305	2636.42
744.49	2585.22
744.675	2499.2
744.86	2429.57
745.045	2527.88
745.23	2632.32
745.415	2474.63
745.6	2435.72
745.785	2450.05
745.97	2548.36
746.155	2417.29
746.34	2441.86
746.525	2312.84
746.71	2468.48
746.895	2398.85
747.079	2230.92
747.264	2273.93
747.449	2333.32
747.634	2331.27
747.819	2298.5
748.003	2187.91
748.188	2245.26
748.373	2310.79
748.557	2384.52
748.742	2232.97
748.927	2220.68
749.111	2349.7
749.296	2155.15
749.481	2280.07
749.665	2134.67
749.85	2013.84
750.034	2212.49
750.219	2103.95
750.404	2062.99
750.588	2077.32
750.773	2126.47
750.957	2075.27
751.141	2015.88
751.326	2093.71
751.51	2034.32
751.695	2005.64
751.879	1954.44
752.064	2036.36
752.248	1917.58
752.432	2009.74
752.617	2007.69
752.801	1862.29
752.985	1847.95
753.17	1903.25
753.354	1974.92
753.538	1931.92
753.722	1856.14
753.907	1823.37
754.091	1794.7
754.275	1694.35
754.459	1794.7
754.643	1815.18
754.828	1800.85
755.012	1718.93
755.196	1766.03
755.38	1671.83
755.564	1708.69
755.748	1688.21
755.932	1667.73
756.116	1739.41
756.3	1675.92
756.484	1655.44
756.668	1733.26
756.852	1639.06
757.036	1598.1
757.22	1567.38
757.404	1477.27
757.588	1602.19
757.772	1585.81
757.956	1618.58
758.14	1487.51
758.323	1571.47
758.507	1569.43
758.691	1567.38
758.875	1503.89
759.059	1548.95
759.242	1481.36
759.426	1501.84
759.61	1452.69
759.794	1401.49
759.977	1479.32
760.161	1499.8
760.345	1469.08
760.528	1432.21
760.712	1426.07
760.895	1327.77
761.079	1356.44
761.263	1399.45
761.446	1372.82
761.63	1376.92
761.813	1366.68
761.997	1407.64
762.18	1323.67
762.364	1401.49
762.547	1266.33
762.731	1323.67
762.914	1374.87
763.098	1249.94
763.281	1362.58
763.464	1299.09
763.648	1331.86
763.831	1305.24
764.015	1235.61
764.198	1297.05
764.381	1280.66
764.564	1264.28
764.748	1241.75
764.931	1192.6
765.114	1184.41
765.297	1290.9
765.481	1221.27
765.664	1225.37
765.847	1254.04
766.03	1262.23
766.213	1159.83
766.397	1161.88
766.58	1125.02
766.763	1227.42
766.946	1125.02
767.129	1116.83
767.312	1198.74
767.495	1202.84
767.678	1131.16
767.861	1114.78
768.044	1157.78
768.227	1202.84
768.41	1133.21
768.593	1141.4
768.776	1071.77
768.959	1151.64
769.142	1110.68
769.324	1141.4
769.507	1102.49
769.69	1094.3
769.873	1034.91
770.056	1114.78
770.239	1071.77
770.421	1125.02
770.604	1028.76
770.787	1143.45
770.97	1006.24
771.152	959.13
771.335	998.04
771.518	1092.25
771.7	1114.78
771.883	1118.87
772.066	1024.67
772.248	1043.1
772.431	1045.15
772.613	938.65
772.796	1000.09
772.978	1024.67
773.161	987.8
773.343	930.46
773.526	991.9
773.708	973.47
773.891	944.8
774.073	885.41
774.256	873.12
774.438	1012.38
774.621	887.45
774.803	942.75
774.985	905.88
775.168	975.52
775.35	848.54
775.532	971.42
775.715	952.99
775.897	826.01
776.079	817.82
776.261	811.68
776.444	840.35
776.626	789.15
776.808	830.11
776.99	811.68
777.173	801.44
777.355	805.53
777.537	844.45
777.719	758.43
777.901	774.81
778.083	754.34
778.265	731.81
778.447	799.39
778.629	711.33
778.811	770.72
778.993	680.61
779.175	727.71
779.357	705.18
779.539	715.42
779.721	664.22
779.903	719.52
780.085	701.09
780.267	643.74
780.449	705.18
780.631	742.05
780.812	711.33
780.994	688.8
781.176	633.5
781.358	621.22
781.54	551.59
781.721	711.33
781.903	553.63
782.085	684.7
782.267	656.03
782.448	701.09
782.63	590.5
782.812	619.17
782.993	676.51
783.175	639.65
783.357	643.74
783.538	565.92
783.72	588.45
783.901	582.31
784.083	582.31
784.264	567.97
784.446	555.68
784.627	486.05
784.809	629.41
784.99	631.46
785.172	651.94
785.353	572.07
785.535	574.11
785.716	567.97
785.897	500.39
786.079	596.64
786.26	567.97
786.441	512.67
786.623	506.53
786.804	473.76
786.985	531.11
787.167	486.05
787.348	502.43
787.529	500.39
787.71	559.78
787.891	441
788.073	443.04
788.254	551.59
788.435	514.72
788.616	496.29
788.797	352.93
788.978	498.34
789.159	443.04
789.34	543.39
789.522	408.23
789.703	471.72
789.884	459.43
790.065	537.25
790.246	504.48
790.427	434.85
790.607	443.04
790.788	471.72
790.969	400.04
791.15	377.51
791.331	481.96
791.512	428.71
791.693	424.61
791.874	527.01
792.054	438.95
792.235	395.94
792.416	469.67
792.597	408.23
792.778	342.69
792.958	432.8
793.139	395.94
793.32	387.75
793.5	336.55
793.681	359.08
793.862	426.66
794.042	381.6
794.223	320.17
794.404	406.18
794.584	381.6
794.765	324.26
794.945	352.93
795.126	371.36
795.306	375.46
795.487	373.41
795.667	397.99
795.848	291.49
796.028	338.6
796.209	258.73
796.389	354.98
796.57	375.46
796.75	256.68
796.93	436.9
797.111	428.71
797.291	400.04
797.471	324.26
797.652	385.7
797.832	258.73
798.012	369.32
798.192	281.25
798.373	332.45
798.553	287.4
798.733	301.73
798.913	430.76
799.093	291.49
799.274	365.22
799.454	365.22
799.634	275.11
799.814	369.32
799.994	361.13
800.174	289.45
800.354	299.69
800.534	260.77
800.714	301.73
800.894	254.63
801.074	191.14
801.254	322.21
801.434	330.41
801.614	275.11
801.794	275.11
801.974	836.25
802.154	234.15
802.334	291.49
802.514	330.41
802.693	260.77
802.873	289.45
803.053	217.77
803.233	268.97
803.413	279.21
803.592	189.1
803.772	240.29
803.952	250.53
804.131	230.06
804.311	277.16
804.491	354.98
804.67	281.25
804.85	334.5
805.03	283.3
805.209	322.21
805.389	213.67
805.568	275.11
805.748	264.87
805.928	228.01
806.107	293.54
806.287	299.69
806.466	207.53
806.646	236.2
806.825	139.94
807.004	334.5
807.184	217.77
807.363	254.63
807.543	262.82
807.722	154.28
807.901	209.58
808.081	297.64
808.26	154.28
808.439	148.14
808.619	207.53
808.798	158.38
808.977	250.53
809.156	221.86
809.336	191.14
809.515	205.48
809.694	193.19
809.873	199.34
810.052	297.64
810.231	207.53
810.411	201.38
810.59	238.25
810.769	158.38
810.948	223.91
811.127	164.52
811.306	268.97
811.485	248.49
811.664	236.2
811.843	213.67
812.022	156.33
812.201	246.44
812.38	199.34
812.559	250.53
812.737	207.53
812.916	158.38
813.095	219.82
813.274	250.53
813.453	271.01
813.632	228.01
813.811	191.14
813.989	123.56
814.168	195.24
814.347	219.82
814.526	193.19
814.704	195.24
814.883	209.58
815.062	211.62
815.24	187.05
815.419	148.14
815.598	225.96
815.776	115.37
815.955	139.94
816.133	70.31
816.312	180.9
816.49	213.67
816.669	144.04
816.847	168.62
817.026	182.95
817.204	166.57
817.383	125.61
817.561	182.95
817.74	160.42
817.918	154.28
818.097	174.76
818.275	152.23
818.453	195.24
818.632	199.34
818.81	168.62
818.988	88.75
819.167	113.32
819.345	152.23
819.523	166.57
819.701	172.71
819.879	189.1
820.058	148.14
820.236	258.73
820.414	127.66
820.592	135.85
820.77	123.56
820.948	131.75
821.127	107.18
821.305	123.56
821.483	152.23
821.661	164.52
821.839	111.27
822.017	72.36
822.195	164.52
822.373	225.96
822.551	117.42
822.729	187.05
822.907	84.65
823.085	152.23
823.262	201.38
823.44	92.84
823.618	90.79
823.796	103.08
823.974	191.14
824.152	101.03
824.329	107.18
824.507	189.1
824.685	168.62
824.863	176.81
825.04	84.65
825.218	78.51
825.396	150.18
825.574	133.8
825.751	103.08
825.929	178.86
826.107	144.04
826.284	176.81
826.462	109.22
826.639	88.75
826.817	98.99
826.994	168.62
827.172	103.08
827.349	105.13
827.527	170.66
827.704	84.65
827.882	139.94
828.059	62.12
828.237	94.89
828.414	201.38
828.591	27.31
828.769	166.57
828.946	72.36
829.124	96.94
829.301	146.09
829.478	187.05
829.655	154.28
829.833	115.37
830.01	78.51
830.187	127.66
830.364	96.94
830.542	92.84
830.719	111.27
830.896	101.03
831.073	58.03
831.25	105.13
831.427	189.1
831.604	180.9
831.782	109.22
831.959	74.41
832.136	154.28
832.313	127.66
832.49	74.41
832.667	148.14
832.844	66.22
833.021	123.56
833.198	127.66
833.374	82.6
833.551	178.86
833.728	139.94
833.905	96.94
834.082	92.84
834.259	125.61
834.436	180.9
834.612	19.11
834.789	131.75
834.966	156.33
835.143	148.14
835.319	55.98
835.496	105.13
835.673	94.89
835.85	144.04
836.026	82.6
836.203	121.51
836.38	21.16
836.556	29.35
836.733	88.75
836.909	129.7
837.086	12.97
837.262	58.03
837.439	51.88
837.616	58.03
837.792	66.22
837.968	131.75
838.145	92.84
838.321	101.03
838.498	68.27
838.674	152.23
838.851	66.22
839.027	86.7
839.203	62.12
839.38	47.79
839.556	62.12
839.732	35.5
839.909	27.31
840.085	62.12
840.261	84.65
840.437	123.56
840.614	105.13
840.79	101.03
840.966	139.94
841.142	92.84
841.318	105.13
841.494	72.36
841.671	96.94
841.847	66.22
842.023	76.46
842.199	45.74
842.375	78.51
842.551	70.31
842.727	21.16
842.903	129.7
843.079	12.97
843.255	62.12
843.431	43.69
843.607	94.89
843.783	4.78
843.959	45.74
844.134	41.64
844.31	117.42
844.486	103.08
844.662	37.55
844.838	43.69
845.013	62.12
845.189	70.31
845.365	31.4
845.541	84.65
845.716	76.46
845.892	60.07
846.068	41.64
846.244	27.31
846.419	68.27
846.595	15.02
846.77	70.31
846.946	70.31
847.122	82.6
847.297	76.46
847.473	78.51
847.648	-38.23
847.824	109.22
847.999	-7.51
848.175	62.12
848.35	101.03
848.526	84.65
848.701	53.93
848.876	53.93
849.052	86.7
849.227	27.31
849.403	29.35
849.578	74.41
849.753	8.87
849.929	70.31
850.104	-7.51
850.279	53.93
850.454	111.27
850.63	66.22
850.805	33.45
850.98	23.21
851.155	35.5
851.33	51.88
851.505	12.97
851.681	39.59
851.856	35.5
852.031	84.65
852.206	68.27
852.381	25.26
852.556	107.18
852.731	115.37
852.906	88.75
853.081	84.65
853.256	66.22
853.431	90.79
853.606	41.64
853.781	19.11
853.956	15.02
854.131	49.83
854.305	-7.51
854.48	94.89
854.655	45.74
854.83	-19.8
855.005	8.87
855.18	27.31
855.354	21.16
855.529	-3.41
855.704	51.88
855.879	47.79
856.053	4.78
856.228	39.59
856.403	-3.41
856.577	60.07
856.752	-40.28
856.926	8.87
857.101	33.45
857.276	4.78
857.45	84.65
857.625	72.36
857.799	101.03
857.974	76.46
858.148	84.65
858.323	96.94
858.497	70.31
858.672	31.4
858.846	144.04
859.02	66.22
859.195	-15.7
859.369	29.35
859.543	49.83
859.718	49.83
859.892	27.31
860.066	66.22
860.241	25.26
860.415	8.87
860.589	31.4
860.763	23.21
860.938	-60.76
861.112	72.36
861.286	21.16
861.46	51.88
861.634	-1.37
861.808	15.02
861.982	-9.56
862.157	33.45
862.331	27.31
862.505	23.21
862.679	2.73
862.853	49.83
863.027	17.07
863.201	103.08
863.375	60.07
863.549	64.17
863.722	12.97
863.896	88.75
864.07	21.16
864.244	39.59
864.418	37.55
864.592	8.87
864.766	-7.51
864.939	8.87
865.113	21.16
865.287	47.79
865.461	62.12
865.634	82.6
865.808	27.31
865.982	-11.61
866.156	25.26
866.329	33.45
866.503	49.83
866.676	27.31
866.85	60.07
867.024	35.5
867.197	-25.94
867.371	62.12
867.544	23.21
867.718	-27.99
867.891	129.7
868.065	55.98
868.238	39.59
868.412	66.22
868.585	53.93
868.759	-3.41
868.932	49.83
869.105	-32.08
869.279	-30.04
869.452	-1.37
869.625	-27.99
869.799	19.11
869.972	-13.65
870.145	53.93
870.319	64.17
870.492	-17.75
870.665	29.35
870.838	117.42
871.011	4.78
871.185	27.31
871.358	37.55
871.531	-32.08
871.704	-7.51
871.877	53.93
872.05	-11.61
872.223	72.36
872.396	90.79
872.569	-38.23
872.742	-34.13
872.915	8.87
873.088	8.87
873.261	17.07
873.434	45.74
873.607	33.45
873.78	-38.23
873.953	-48.47
874.126	-27.99
874.299	25.26
874.471	0.68
874.644	119.46
874.817	29.35
874.99	82.6
875.163	33.45
875.335	-23.89
875.508	-11.61
875.681	2.73
875.853	-23.89
876.026	74.41
876.199	8.87
876.371	-11.61
876.544	49.83
876.717	127.66
876.889	53.93
877.062	60.07
877.234	-44.37
877.407	86.7
877.579	60.07
877.752	27.31
877.924	96.94
878.097	-21.85
878.269	45.74
878.442	37.55
878.614	4.78
878.786	10.92
878.959	37.55
879.131	117.42
879.303	-40.28
879.476	10.92
879.648	76.46
879.82	-13.65
879.993	43.69
880.165	51.88
880.337	10.92
880.509	51.88
880.681	-27.99
880.854	37.55
881.026	41.64
881.198	12.97
881.37	-7.51
881.542	25.26
881.714	-5.46
881.886	4.78
882.058	-11.61
882.23	37.55
882.402	12.97
882.574	35.5
882.746	47.79
882.918	82.6
883.09	111.27
883.262	-30.04
883.434	-58.71
883.606	33.45
883.778	-32.08
883.95	86.7
884.122	45.74
884.293	49.83
884.465	29.35
884.637	72.36
884.809	19.11
884.98	31.4
885.152	-23.89
885.324	90.79
885.496	6.83
885.667	2.73
885.839	-60.76
886.011	60.07
886.182	33.45
886.354	0.68
886.525	21.16
886.697	55.98
886.869	-52.56
887.04	41.64
887.212	55.98
887.383	4.78
887.555	53.93
887.726	-36.18
887.897	-36.18
888.069	21.16
888.24	-11.61
888.412	64.17
888.583	4.78
888.754	-32.08
888.926	-36.18
889.097	4.78
889.268	-19.8
889.44	37.55
889.611	-48.47
889.782	-3.41
889.953	-42.32
890.125	-17.75
890.296	-46.42
890.467	2.73
890.638	-68.95
890.809	33.45
890.98	-11.61
891.151	92.84
891.323	55.98
891.494	21.16
891.665	12.97
891.836	37.55
892.007	70.31
892.178	-54.61
892.349	92.84
892.52	27.31
892.691	21.16
892.862	17.07
893.032	-42.32
893.203	35.5
893.374	41.64
893.545	68.27
893.716	-7.51
893.887	53.93
894.057	53.93
894.228	2.73
894.399	25.26
894.57	15.02
894.74	-36.18
894.911	-5.46
895.082	58.03
895.253	-89.43
895.423	68.27
895.594	-68.95
895.764	31.4
895.935	15.02
896.106	45.74
896.276	8.87
896.447	2.73
896.617	119.46
896.788	33.45
896.958	25.26
897.129	29.35
897.299	-11.61
897.47	-40.28
897.64	15.02
897.81	-5.46
897.981	-11.61
898.151	23.21
898.322	39.59
898.492	-27.99
898.662	58.03
898.832	-7.51
899.003	94.89
899.173	51.88
899.343	-66.9
899.513	-58.71
