Data from USB4F104151__248__10-31-04-016.txt Node

Date: Wed Mar 12 10:31:04 EDT 2025
User: louis
Spectrometer: USB4F10415
Trigger mode: 4
Integration Time (sec): 3.000000E-2
Scans to average: 1
Electric dark correction enabled: true
Nonlinearity correction enabled: false
Boxcar width: 0
XAxis mode: Wavelengths
Number of Pixels in Spectrum: 3648
>>>>>Begin Spectral Data<<<<<
178.204	-110.93
178.424	-110.93
178.644	-110.93
178.864	-143.7
179.084	-131.41
179.304	-37.2
179.524	-45.4
179.744	-33.11
179.964	44.71
180.184	34.47
180.404	26.28
180.624	-2.39
180.844	13.99
181.064	-82.26
181.283	28.33
181.503	-8.53
181.723	61.1
181.943	22.19
182.163	102.06
182.383	-12.63
182.602	11.95
182.822	20.14
183.042	20.14
183.262	40.62
183.482	-12.63
183.701	59.05
183.921	3.75
184.141	-16.73
184.361	52.91
184.58	83.63
184.8	18.09
185.02	9.9
185.239	-0.34
185.459	-12.63
185.679	40.62
185.898	-0.34
186.118	81.58
186.338	-6.49
186.557	-24.92
186.777	-20.82
186.997	34.47
187.216	-18.77
187.436	102.06
187.655	-16.73
187.875	71.34
188.095	-47.44
188.314	67.24
188.534	30.38
188.753	36.52
188.973	-12.63
189.192	24.23
189.412	52.91
189.631	22.19
189.851	-20.82
190.07	61.1
190.29	16.04
190.509	13.99
190.729	-51.54
190.948	26.28
191.168	95.91
191.387	69.29
191.607	7.85
191.826	20.14
192.045	-22.87
192.265	48.81
192.484	24.23
192.704	32.43
192.923	-47.44
193.142	52.91
193.362	7.85
193.581	79.53
193.8	52.91
194.02	-24.92
194.239	-37.2
194.458	61.1
194.678	-20.82
194.897	20.14
195.116	32.43
195.335	81.58
195.555	40.62
195.774	11.95
195.993	48.81
196.212	7.85
196.432	28.33
196.651	9.9
196.87	-24.92
197.089	11.95
197.308	65.19
197.528	42.67
197.747	-33.11
197.966	-12.63
198.185	102.06
198.404	-69.97
198.623	54.95
198.842	65.19
199.062	75.43
199.281	61.1
199.5	1.71
199.719	-43.35
199.938	-12.63
200.157	52.91
200.376	26.28
200.595	34.47
200.814	9.9
201.033	-37.2
201.252	16.04
201.471	48.81
201.69	9.9
201.909	22.19
202.128	20.14
202.347	54.95
202.566	-41.3
202.785	-51.54
203.004	28.33
203.223	83.63
203.442	52.91
203.661	16.04
203.879	-8.53
204.098	16.04
204.317	28.33
204.536	67.24
204.755	22.19
204.974	20.14
205.193	44.71
205.411	87.72
205.63	38.57
205.849	-2.39
206.068	34.47
206.287	-4.44
206.505	-29.01
206.724	-14.68
206.943	46.76
207.162	-24.92
207.381	34.47
207.599	36.52
207.818	32.43
208.037	-45.4
208.255	11.95
208.474	36.52
208.693	34.47
208.911	-2.39
209.13	-0.34
209.349	85.67
209.567	38.57
209.786	83.63
210.005	63.15
210.223	28.33
210.442	24.23
210.661	20.14
210.879	5.8
211.098	-2.39
211.316	26.28
211.535	-57.68
211.753	77.48
211.972	38.57
212.191	-0.34
212.409	77.48
212.628	5.8
212.846	-0.34
213.065	32.43
213.283	95.91
213.502	61.1
213.72	48.81
213.938	22.19
214.157	34.47
214.375	-31.06
214.594	38.57
214.812	118.44
215.031	50.86
215.249	61.1
215.467	-18.77
215.686	46.76
215.904	75.43
216.122	-29.01
216.341	54.95
216.559	11.95
216.778	20.14
216.996	28.33
217.214	9.9
217.432	-12.63
217.651	20.14
217.869	57
218.087	44.71
218.306	-37.2
218.524	11.95
218.742	20.14
218.96	38.57
219.179	-45.4
219.397	52.91
219.615	61.1
219.833	85.67
220.051	24.23
220.27	93.87
220.488	28.33
220.706	-14.68
220.924	-41.3
221.142	-2.39
221.36	20.14
221.578	-2.39
221.796	108.2
222.015	16.04
222.233	28.33
222.451	-16.73
222.669	32.43
222.887	102.06
223.105	1.71
223.323	46.76
223.541	-51.54
223.759	36.52
223.977	13.99
224.195	52.91
224.413	40.62
224.631	69.29
224.849	102.06
225.067	61.1
225.285	30.38
225.503	42.67
225.721	-37.2
225.939	11.95
226.157	32.43
226.375	36.52
226.592	13.99
226.81	44.71
227.028	-59.73
227.246	75.43
227.464	-0.34
227.682	26.28
227.9	28.33
228.117	52.91
228.335	-29.01
228.553	-22.87
228.771	-8.53
228.989	59.05
229.206	16.04
229.424	16.04
229.642	46.76
229.86	13.99
230.077	52.91
230.295	20.14
230.513	-4.44
230.731	61.1
230.948	118.44
231.166	-8.53
231.384	40.62
231.601	-0.34
231.819	100.01
232.037	-22.87
232.254	1.71
232.472	-6.49
232.689	46.76
232.907	-18.77
233.125	16.04
233.342	-20.82
233.56	36.52
233.777	-10.58
233.995	-16.73
234.213	57
234.43	34.47
234.648	20.14
234.865	5.8
235.083	24.23
235.3	-8.53
235.518	-14.68
235.735	87.72
235.953	93.87
236.17	11.95
236.388	-31.06
236.605	26.28
236.822	-4.44
237.04	36.52
237.257	44.71
237.475	11.95
237.692	1.71
237.909	-33.11
238.127	-29.01
238.344	61.1
238.562	22.19
238.779	1.71
238.996	-8.53
239.214	69.29
239.431	50.86
239.648	-16.73
239.865	57
240.083	36.52
240.3	9.9
240.517	57
240.735	11.95
240.952	46.76
241.169	81.58
241.386	52.91
241.603	34.47
241.821	28.33
242.038	52.91
242.255	61.1
242.472	-78.16
242.689	26.28
242.907	54.95
243.124	-26.96
243.341	91.82
243.558	7.85
243.775	-51.54
243.992	32.43
244.209	18.09
244.426	97.96
244.643	-16.73
244.86	-4.44
245.078	38.57
245.295	11.95
245.512	9.9
245.729	3.75
245.946	93.87
246.163	97.96
246.38	-43.35
246.597	-10.58
246.814	36.52
247.031	26.28
247.248	-43.35
247.464	69.29
247.681	7.85
247.898	46.76
248.115	28.33
248.332	46.76
248.549	124.58
248.766	93.87
248.983	34.47
249.2	18.09
249.417	48.81
249.633	61.1
249.85	48.81
250.067	18.09
250.284	71.34
250.501	79.53
250.717	-2.39
250.934	26.28
251.151	-31.06
251.368	50.86
251.585	-37.2
251.801	16.04
252.018	61.1
252.235	36.52
252.451	46.76
252.668	1.71
252.885	28.33
253.102	42.67
253.318	75.43
253.535	3.75
253.752	-51.54
253.968	44.71
254.185	42.67
254.401	38.57
254.618	20.14
254.835	-22.87
255.051	130.73
255.268	-45.4
255.484	-4.44
255.701	48.81
255.917	95.91
256.134	-4.44
256.351	79.53
256.567	-53.59
256.784	-29.01
257	16.04
257.217	40.62
257.433	63.15
257.65	-33.11
257.866	59.05
258.082	-18.77
258.299	5.8
258.515	50.86
258.732	-12.63
258.948	130.73
259.165	22.19
259.381	-24.92
259.597	71.34
259.814	-53.59
260.03	32.43
260.246	44.71
260.463	13.99
260.679	5.8
260.895	75.43
261.112	102.06
261.328	-45.4
261.544	67.24
261.761	73.39
261.977	16.04
262.193	32.43
262.409	34.47
262.626	65.19
262.842	91.82
263.058	-6.49
263.274	69.29
263.49	65.19
263.707	102.06
263.923	36.52
264.139	-12.63
264.355	-2.39
264.571	89.77
264.787	75.43
265.004	16.04
265.22	-72.02
265.436	46.76
265.652	61.1
265.868	32.43
266.084	36.52
266.3	-26.96
266.516	-24.92
266.732	-12.63
266.948	-59.73
267.164	36.52
267.38	11.95
267.596	67.24
267.812	40.62
268.028	-29.01
268.244	52.91
268.46	110.25
268.676	42.67
268.892	16.04
269.108	32.43
269.324	11.95
269.54	-4.44
269.756	63.15
269.972	-0.34
270.188	-26.96
270.403	-14.68
270.619	42.67
270.835	3.75
271.051	36.52
271.267	18.09
271.483	26.28
271.698	-12.63
271.914	48.81
272.13	32.43
272.346	-22.87
272.562	3.75
272.777	50.86
272.993	-37.2
273.209	-59.73
273.425	28.33
273.64	69.29
273.856	57
274.072	-41.3
274.287	7.85
274.503	-35.16
274.719	102.06
274.934	36.52
275.15	5.8
275.366	44.71
275.581	13.99
275.797	-10.58
276.012	-8.53
276.228	69.29
276.444	-14.68
276.659	81.58
276.875	-20.82
277.09	-8.53
277.306	73.39
277.521	89.77
277.737	26.28
277.952	-31.06
278.168	-14.68
278.383	-0.34
278.599	40.62
278.814	52.91
279.03	-0.34
279.245	50.86
279.461	40.62
279.676	52.91
279.892	-8.53
280.107	79.53
280.322	24.23
280.538	38.57
280.753	7.85
280.969	40.62
281.184	69.29
281.399	79.53
281.615	26.28
281.83	-12.63
282.045	44.71
282.26	30.38
282.476	24.23
282.691	126.63
282.906	-31.06
283.122	-12.63
283.337	-33.11
283.552	50.86
283.767	38.57
283.983	3.75
284.198	42.67
284.413	87.72
284.628	-12.63
284.843	22.19
285.058	24.23
285.274	-8.53
285.489	26.28
285.704	65.19
285.919	110.25
286.134	13.99
286.349	28.33
286.564	-4.44
286.779	89.77
286.995	71.34
287.21	65.19
287.425	93.87
287.64	61.1
287.855	65.19
288.07	16.04
288.285	-0.34
288.5	-2.39
288.715	-16.73
288.93	-31.06
289.145	32.43
289.36	-0.34
289.575	-18.77
289.79	63.15
290.004	89.77
290.219	106.15
290.434	11.95
290.649	24.23
290.864	54.95
291.079	7.85
291.294	32.43
291.509	11.95
291.724	57
291.938	-26.96
292.153	46.76
292.368	22.19
292.583	3.75
292.798	30.38
293.012	1.71
293.227	-20.82
293.442	-37.2
293.657	69.29
293.871	81.58
294.086	11.95
294.301	32.43
294.516	16.04
294.73	16.04
294.945	-4.44
295.16	83.63
295.374	32.43
295.589	120.49
295.804	40.62
296.018	48.81
296.233	-6.49
296.447	52.91
296.662	24.23
296.877	44.71
297.091	-6.49
297.306	40.62
297.52	-16.73
297.735	30.38
297.949	67.24
298.164	-2.39
298.378	13.99
298.593	-33.11
298.807	22.19
299.022	46.76
299.236	110.25
299.451	-35.16
299.665	-22.87
299.88	48.81
300.094	42.67
300.309	48.81
300.523	83.63
300.737	54.95
300.952	57
301.166	-10.58
301.381	-49.49
301.595	69.29
301.809	50.86
302.024	-4.44
302.238	13.99
302.452	5.8
302.667	3.75
302.881	102.06
303.095	85.67
303.309	57
303.524	20.14
303.738	3.75
303.952	67.24
304.166	50.86
304.381	-12.63
304.595	36.52
304.809	36.52
305.023	73.39
305.237	-8.53
305.452	-43.35
305.666	36.52
305.88	85.67
306.094	77.48
306.308	36.52
306.522	61.1
306.736	42.67
306.95	28.33
307.164	40.62
307.379	-41.3
307.593	81.58
307.807	69.29
308.021	83.63
308.235	114.34
308.449	-26.96
308.663	20.14
308.877	110.25
309.091	42.67
309.305	16.04
309.519	-26.96
309.733	83.63
309.947	5.8
310.161	79.53
310.374	22.19
310.588	102.06
310.802	36.52
311.016	5.8
311.23	79.53
311.444	-33.11
311.658	50.86
311.872	114.34
312.085	118.44
312.299	28.33
312.513	59.05
312.727	75.43
312.941	-14.68
313.154	26.28
313.368	11.95
313.582	42.67
313.796	52.91
314.009	-22.87
314.223	65.19
314.437	-4.44
314.651	24.23
314.864	36.52
315.078	-49.49
315.292	32.43
315.505	-61.78
315.719	24.23
315.933	-0.34
316.146	28.33
316.36	20.14
316.573	73.39
316.787	26.28
317.001	124.58
317.214	16.04
317.428	-47.44
317.641	11.95
317.855	63.15
318.068	104.11
318.282	40.62
318.495	44.71
318.709	48.81
318.922	-16.73
319.136	93.87
319.349	83.63
319.563	30.38
319.776	30.38
319.99	91.82
320.203	9.9
320.417	-16.73
320.63	61.1
320.843	54.95
321.057	40.62
321.27	67.24
321.483	85.67
321.697	16.04
321.91	26.28
322.124	32.43
322.337	28.33
322.55	69.29
322.763	26.28
322.977	16.04
323.19	18.09
323.403	22.19
323.617	9.9
323.83	30.38
324.043	52.91
324.256	104.11
324.469	97.96
324.683	5.8
324.896	32.43
325.109	-6.49
325.322	-49.49
325.535	44.71
325.748	28.33
325.962	54.95
326.175	30.38
326.388	89.77
326.601	48.81
326.814	13.99
327.027	28.33
327.24	157.35
327.453	-0.34
327.666	22.19
327.879	38.57
328.092	24.23
328.305	-59.73
328.518	30.38
328.731	65.19
328.944	16.04
329.157	69.29
329.37	50.86
329.583	124.58
329.796	32.43
330.009	38.57
330.222	38.57
330.435	34.47
330.648	104.11
330.861	11.95
331.073	108.2
331.286	73.39
331.499	54.95
331.712	26.28
331.925	22.19
332.138	52.91
332.35	11.95
332.563	77.48
332.776	18.09
332.989	3.75
333.202	28.33
333.414	-49.49
333.627	73.39
333.84	67.24
334.053	3.75
334.265	-20.82
334.478	20.14
334.691	9.9
334.903	57
335.116	28.33
335.329	71.34
335.541	22.19
335.754	79.53
335.966	-55.64
336.179	73.39
336.392	11.95
336.604	48.81
336.817	81.58
337.029	65.19
337.242	1.71
337.454	71.34
337.667	44.71
337.88	110.25
338.092	93.87
338.305	85.67
338.517	-4.44
338.729	36.52
338.942	67.24
339.154	79.53
339.367	22.19
339.579	20.14
339.792	-112.98
340.004	38.57
340.217	18.09
340.429	122.54
340.641	32.43
340.854	40.62
341.066	59.05
341.278	85.67
341.491	89.77
341.703	24.23
341.915	54.95
342.128	75.43
342.34	44.71
342.552	100.01
342.764	69.29
342.977	52.91
343.189	-6.49
343.401	54.95
343.613	11.95
343.826	69.29
344.038	-4.44
344.25	-4.44
344.462	1.71
344.674	97.96
344.886	20.14
345.099	93.87
345.311	-39.25
345.523	38.57
345.735	36.52
345.947	28.33
346.159	46.76
346.371	108.2
346.583	75.43
346.795	28.33
347.007	5.8
347.219	28.33
347.431	-6.49
347.643	38.57
347.855	-61.78
348.067	40.62
348.279	9.9
348.491	34.47
348.703	26.28
348.915	81.58
349.127	-18.77
349.339	89.77
349.551	28.33
349.763	91.82
349.975	20.14
350.187	83.63
350.399	118.44
350.61	69.29
350.822	13.99
351.034	118.44
351.246	-24.92
351.458	79.53
351.669	77.48
351.881	120.49
352.093	134.82
352.305	50.86
352.517	46.76
352.728	48.81
352.94	36.52
353.152	59.05
353.363	-45.4
353.575	18.09
353.787	100.01
353.999	132.78
354.21	75.43
354.422	50.86
354.633	69.29
354.845	42.67
355.057	-29.01
355.268	28.33
355.48	38.57
355.692	9.9
355.903	52.91
356.115	65.19
356.326	28.33
356.538	5.8
356.749	61.1
356.961	22.19
357.172	-33.11
357.384	85.67
357.595	91.82
357.807	18.09
358.018	85.67
358.23	26.28
358.441	118.44
358.653	116.39
358.864	44.71
359.075	13.99
359.287	134.82
359.498	24.23
359.709	71.34
359.921	61.1
360.132	59.05
360.344	46.76
360.555	46.76
360.766	69.29
360.977	34.47
361.189	40.62
361.4	3.75
361.611	87.72
361.823	11.95
362.034	34.47
362.245	-33.11
362.456	24.23
362.667	38.57
362.879	40.62
363.09	44.71
363.301	73.39
363.512	38.57
363.723	63.15
363.935	57
364.146	1.71
364.357	20.14
364.568	61.1
364.779	-12.63
364.99	61.1
365.201	20.14
365.412	120.49
365.623	18.09
365.834	50.86
366.045	44.71
366.256	81.58
366.467	5.8
366.678	106.15
366.889	77.48
367.1	44.71
367.311	28.33
367.522	91.82
367.733	89.77
367.944	106.15
368.155	-20.82
368.366	79.53
368.577	83.63
368.788	-4.44
368.999	-14.68
369.209	9.9
369.42	89.77
369.631	161.45
369.842	77.48
370.053	54.95
370.264	73.39
370.474	100.01
370.685	75.43
370.896	85.67
371.107	50.86
371.317	61.1
371.528	20.14
371.739	18.09
371.95	91.82
372.16	102.06
372.371	81.58
372.582	50.86
372.792	-20.82
373.003	24.23
373.214	-0.34
373.424	110.25
373.635	9.9
373.846	120.49
374.056	67.24
374.267	40.62
374.477	118.44
374.688	77.48
374.898	91.82
375.109	75.43
375.319	85.67
375.53	93.87
375.74	77.48
375.951	1.71
376.161	77.48
376.372	79.53
376.582	9.9
376.793	36.52
377.003	28.33
377.214	36.52
377.424	102.06
377.635	54.95
377.845	85.67
378.055	46.76
378.266	24.23
378.476	102.06
378.686	69.29
378.897	71.34
379.107	77.48
379.317	36.52
379.528	93.87
379.738	71.34
379.948	59.05
380.158	65.19
380.369	75.43
380.579	61.1
380.789	24.23
380.999	-12.63
381.21	44.71
381.42	79.53
381.63	42.67
381.84	26.28
382.05	22.19
382.261	44.71
382.471	65.19
382.681	46.76
382.891	57
383.101	38.57
383.311	34.47
383.521	-12.63
383.731	77.48
383.941	65.19
384.151	65.19
384.361	57
384.571	97.96
384.781	18.09
384.991	149.16
385.201	163.5
385.411	61.1
385.621	106.15
385.831	28.33
386.041	104.11
386.251	50.86
386.461	95.91
386.671	57
386.881	75.43
387.091	81.58
387.301	59.05
387.511	50.86
387.72	59.05
387.93	18.09
388.14	-0.34
388.35	18.09
388.56	87.72
388.769	28.33
388.979	36.52
389.189	69.29
389.399	42.67
389.609	67.24
389.818	91.82
390.028	73.39
390.238	81.58
390.447	69.29
390.657	81.58
390.867	97.96
391.076	36.52
391.286	22.19
391.496	63.15
391.705	-4.44
391.915	83.63
392.125	73.39
392.334	93.87
392.544	26.28
392.753	104.11
392.963	-8.53
393.172	128.68
393.382	28.33
393.591	120.49
393.801	36.52
394.01	91.82
394.22	65.19
394.429	65.19
394.639	124.58
394.848	102.06
395.058	104.11
395.267	28.33
395.477	75.43
395.686	52.91
395.895	153.26
396.105	173.74
396.314	120.49
396.524	167.59
396.733	106.15
396.942	118.44
397.152	102.06
397.361	126.63
397.57	81.58
397.78	97.96
397.989	71.34
398.198	112.3
398.407	46.76
398.617	128.68
398.826	110.25
399.035	226.98
399.244	116.39
399.453	97.96
399.663	102.06
399.872	112.3
400.081	130.73
400.29	153.26
400.499	83.63
400.708	95.91
400.917	61.1
401.127	153.26
401.336	44.71
401.545	177.83
401.754	118.44
401.963	136.87
402.172	120.49
402.381	61.1
402.59	97.96
402.799	138.92
403.008	89.77
403.217	140.97
403.426	183.98
403.635	59.05
403.844	106.15
404.053	128.68
404.262	122.54
404.471	175.78
404.68	159.4
404.888	171.69
405.097	177.83
405.306	186.02
405.515	161.45
405.724	179.88
405.933	241.32
406.142	173.74
406.35	167.59
406.559	151.21
406.768	171.69
406.977	196.26
407.185	173.74
407.394	229.03
407.603	190.12
407.812	263.85
408.02	317.09
408.229	134.82
408.438	243.37
408.646	253.61
408.855	286.37
409.064	321.19
409.272	257.7
409.481	278.18
409.69	239.27
409.898	298.66
410.107	304.81
410.315	306.85
410.524	315.05
410.733	337.57
410.941	427.68
411.15	396.96
411.358	452.26
411.567	476.84
411.775	419.49
411.984	425.64
412.192	470.69
412.401	413.35
412.609	525.99
412.818	581.28
413.026	454.31
413.234	548.51
413.443	564.9
413.651	548.51
413.86	607.91
414.068	655.01
414.276	622.24
414.485	597.67
414.693	747.17
414.901	767.65
415.11	706.21
415.318	646.82
415.526	753.31
415.734	773.79
415.943	736.93
416.151	913.05
416.359	884.38
416.567	779.93
416.776	884.38
416.984	937.63
417.192	1009.31
417.4	1062.55
417.608	1029.79
417.817	1117.85
418.025	1162.9
418.233	1246.87
418.441	1210.01
418.649	1242.78
418.857	1347.22
419.065	1377.94
419.273	1339.03
419.481	1351.32
419.689	1447.57
419.897	1545.88
420.105	1642.13
420.313	1629.84
420.521	1681.04
420.729	1750.67
420.937	1756.82
421.145	1873.55
421.353	1830.54
421.561	1957.52
421.769	2059.92
421.977	2096.78
422.185	2064.01
422.393	2135.69
422.601	2358.92
422.809	2360.97
423.017	2354.82
423.224	2516.61
423.432	2563.72
423.64	2580.1
423.848	2825.86
424.056	2858.62
424.263	2991.74
424.471	2862.72
424.679	3004.03
424.887	3202.68
425.094	3337.85
425.302	3366.52
425.51	3436.15
425.718	3561.08
425.925	3624.56
426.133	3690.1
426.341	3853.94
426.548	3995.25
426.756	4001.39
426.964	4142.7
427.171	4423.27
427.379	4525.67
427.586	4511.33
427.794	4738.66
428.001	4843.1
428.209	4947.55
428.417	4898.4
428.624	5488.21
428.832	5525.08
429.039	5193.31
429.247	5418.58
429.454	5826.13
429.662	6075.98
429.869	5822.03
430.076	6350.41
430.284	6043.21
430.491	6411.85
430.699	6889.03
430.906	6747.72
431.114	6886.98
431.321	7112.25
431.528	7188.03
431.736	7673.4
431.943	8015.41
432.15	7677.49
432.358	7855.67
432.565	8420.91
432.772	8193.58
432.979	8832.55
433.187	8662.57
433.394	8787.49
433.601	9342.49
433.808	9621.02
434.016	9465.37
434.223	10083.86
434.43	10403.34
434.637	10262.03
434.844	10937.86
435.052	11169.28
435.259	11156.99
435.466	10917.38
435.673	11052.55
435.88	11892.21
436.087	12328.43
436.294	12418.54
436.501	11980.28
436.708	12230.13
436.915	12830.18
437.122	13340.13
437.329	13389.28
437.537	13612.51
437.743	13913.56
437.95	13780.44
438.157	14562.76
438.364	14771.66
438.571	14925.25
438.778	15117.76
438.985	16362.93
439.192	15924.66
439.399	16158.13
439.606	16020.92
439.813	16733.61
440.02	17823.13
440.227	17429.92
440.433	17554.85
440.64	17839.51
440.847	17857.95
441.054	18576.78
441.261	19312
441.467	19103.11
441.674	19694.97
441.881	20489.59
442.088	20196.73
442.294	20123
442.501	20721.01
442.708	21054.83
442.914	21857.63
443.121	22766.93
443.328	22322.52
443.534	23838.01
443.741	22795.6
443.948	22816.08
444.154	24419.64
444.361	24208.7
444.568	24407.35
444.774	24386.87
444.981	24534.32
445.187	25349.42
445.394	26506.52
445.6	26408.22
445.807	28706.04
446.013	27415.82
446.22	28103.93
446.426	29052.14
446.633	29392.11
446.839	29996.26
447.046	28957.94
447.252	30481.63
447.459	30237.92
447.665	30332.12
447.871	31593.67
448.078	33238.19
448.284	31397.07
448.491	32171.2
448.697	33569.96
448.903	33901.73
449.11	33811.62
449.316	33457.32
449.522	34112.67
449.728	34788.5
449.935	35183.76
450.141	35716.23
450.347	36217.99
450.553	34854.04
450.76	34899.09
450.966	36428.93
451.172	35787.91
451.378	36836.47
451.584	36287.62
451.791	36973.69
451.997	37115
452.203	37284.98
452.409	37289.07
452.615	37401.71
452.821	35728.52
453.027	35447.95
453.233	37295.22
453.44	35697.8
453.646	36295.81
453.852	36594.81
454.058	37123.19
454.264	35396.75
454.47	36713.59
454.676	35337.36
454.882	36811.9
455.088	33019.06
455.294	33911.97
455.5	34323.61
455.705	34913.43
455.911	33283.25
456.117	32816.31
456.323	32269.5
456.529	30618.84
456.735	31925.44
456.941	30991.57
457.147	30692.57
457.352	29705.45
457.558	29205.74
457.764	29236.46
457.97	28783.86
458.176	28202.24
458.381	27868.42
458.587	26782.99
458.793	26656.02
458.999	25443.62
459.204	27131.15
459.41	26498.33
459.616	24730.93
459.821	24837.42
460.027	24806.7
460.233	24143.16
460.438	22758.74
460.644	23305.54
460.85	22336.85
461.055	21812.57
461.261	22021.47
461.466	20209.01
461.672	19647.87
461.878	20970.86
462.083	19727.74
462.289	19555.71
462.494	19248.52
462.7	18251.16
462.905	17853.85
463.111	18371.99
463.316	18458
463.522	18183.57
463.727	18007.45
463.932	17890.71
464.138	17628.57
464.343	17814.94
464.549	17374.63
464.754	17569.18
464.959	17653.15
465.165	17489.31
465.37	16946.6
465.575	16512.43
465.781	17116.58
465.986	17159.59
466.191	16496.05
466.397	16141.75
466.602	15478.21
466.807	15953.34
467.012	16035.25
467.218	15850.94
467.423	15922.62
467.628	15867.32
467.833	16694.7
468.038	15955.38
468.244	15365.57
468.449	16174.52
468.654	15545.79
468.859	15437.25
469.064	15332.8
469.269	14810.57
469.474	14857.67
469.679	15285.7
469.885	14714.31
470.09	14951.88
470.295	14681.55
470.5	14366.16
470.705	14718.41
470.91	14194.13
471.115	13934.04
471.32	14118.36
471.525	14052.82
471.73	13895.13
471.935	13686.23
472.139	13348.32
472.344	13407.71
472.549	13325.79
472.754	13221.34
472.959	12793.32
473.164	12529.13
473.369	12553.71
473.574	12891.62
473.778	12776.94
473.983	12609
474.188	12654.06
474.393	12011
474.598	12123.63
474.802	11677.18
475.007	11746.81
475.212	11961.84
475.417	11494.91
475.621	11406.84
475.826	11439.61
476.031	11357.69
476.235	11247.1
476.44	11320.83
476.645	11111.94
476.849	10939.91
477.054	11175.42
477.259	10726.92
477.463	10700.3
477.668	10561.03
477.872	10688.01
478.077	10321.42
478.282	9940.5
478.486	10249.74
478.691	10165.78
478.895	9903.64
479.1	9924.12
479.304	9885.2
479.509	9721.37
479.713	10096.14
479.918	9385.5
480.122	9399.84
480.326	9600.54
480.531	9483.8
480.735	9532.95
480.94	9469.47
481.144	9745.94
481.348	9287.2
481.553	9293.34
481.757	9184.8
481.961	9459.23
482.166	9311.77
482.37	9299.48
482.574	9152.03
482.778	9424.41
482.983	9389.6
483.187	9365.02
483.391	9293.34
483.595	9348.64
483.8	9059.87
484.004	9131.55
484.208	9285.15
484.412	9190.94
484.616	9240.09
484.821	9213.47
485.025	8953.38
485.229	9242.14
485.433	8988.19
485.637	9190.94
485.841	9236
486.045	9092.64
486.249	9246.24
486.453	9227.81
486.657	9111.07
486.861	9381.4
487.065	9031.2
487.269	9123.36
487.473	8906.27
487.677	9342.49
487.881	9166.37
488.085	9156.13
488.289	9180.7
488.493	9285.15
488.697	9201.18
488.901	9348.64
489.105	9258.53
489.309	9375.26
489.512	9160.22
489.716	9221.66
489.92	9174.56
490.124	9197.09
490.328	9446.94
490.531	9297.44
490.735	9395.74
490.939	9387.55
491.143	9395.74
491.346	9266.72
491.55	9448.99
491.754	9446.94
491.958	9563.67
492.161	9653.78
492.365	9715.22
492.569	9516.57
492.772	9498.14
492.976	9733.65
493.18	9819.67
493.383	9899.54
493.587	10034.71
493.79	10212.88
493.994	9856.53
494.197	9971.22
494.401	10182.16
494.605	10020.37
494.808	10374.67
495.012	10225.17
495.215	10487.31
495.419	10706.44
495.622	10554.89
495.825	10601.99
496.029	10669.58
496.232	10937.86
496.436	10890.76
496.639	11103.75
496.843	10993.15
497.046	11329.02
497.249	11419.13
497.453	11380.22
497.656	11617.79
497.859	11654.65
498.063	11623.93
498.266	11922.93
498.469	11910.64
498.673	12008.95
498.876	12131.83
499.079	12324.33
499.282	12152.31
499.485	12631.53
499.689	12752.36
499.892	12824.04
500.095	12768.74
500.298	13118.95
500.501	13233.63
500.705	13485.53
500.908	13434.33
501.111	13723.1
501.314	13786.58
501.517	13833.69
501.72	14398.93
501.923	13905.37
502.126	14699.98
502.329	14902.73
502.532	14781.9
502.735	14863.82
502.938	14951.88
503.141	15128
503.344	15390.14
503.547	15404.48
503.75	15642.04
503.953	16055.73
504.156	15998.39
504.359	16166.32
504.562	16317.87
504.765	16557.49
504.968	16635.31
505.17	17026.47
505.373	16862.63
505.576	17139.11
505.779	17495.46
505.982	17511.84
506.185	17870.23
506.387	18025.88
506.59	18058.65
506.793	18546.06
506.996	18486.67
507.198	18998.66
507.401	18742.67
507.604	19047.82
507.807	19524.99
508.009	19369.35
508.212	19527.04
508.415	19604.86
508.617	20082.04
508.82	20217.21
509.022	20108.66
509.225	20970.86
509.428	20954.47
509.63	21085.54
509.833	21071.21
510.035	21841.25
510.238	21544.29
510.44	21597.54
510.643	22031.71
510.845	22486.36
511.048	22179.16
511.25	22762.83
511.453	22705.49
511.655	23700.8
511.858	23182.66
512.06	23602.5
512.262	24038.72
512.465	23835.97
512.667	24296.76
512.87	24550.71
513.072	24546.61
513.274	25134.38
513.477	25345.32
513.679	25767.2
513.881	25666.85
514.084	25902.37
514.286	26438.94
514.488	26320.15
514.69	27194.64
514.893	27006.22
515.095	27110.67
515.297	27880.71
515.499	27512.07
515.701	28290.3
515.904	28144.89
516.106	28161.28
516.308	28882.16
516.51	28867.83
516.712	29445.35
516.914	29727.97
517.116	30053.6
517.318	29861.09
517.52	30252.25
517.722	30436.57
517.925	30592.22
518.127	31685.83
518.329	31442.12
518.531	31380.68
518.733	31974.59
518.935	32435.39
519.136	31810.76
519.338	32816.31
519.54	32918.71
519.742	33424.56
519.944	33297.58
520.146	33897.64
520.348	34231.46
520.55	34315.42
520.752	34751.64
520.954	35030.16
521.155	34757.78
521.357	35359.89
521.559	35613.84
521.761	36226.18
521.963	35804.3
522.164	36275.33
522.366	36619.39
522.568	36656.25
522.77	36918.39
522.971	37680.24
523.173	37708.91
523.375	37825.64
523.576	37459.06
523.778	38005.86
523.98	38638.69
524.181	38861.91
524.383	38524
524.584	39879.75
524.786	39425.11
524.988	39185.49
525.189	39918.67
525.391	40076.36
525.592	40399.94
525.794	40176.71
525.995	40211.53
526.197	40430.66
526.398	40934.46
526.6	41104.44
526.801	41423.92
527.003	41569.33
527.204	41038.9
527.406	41630.77
527.607	42001.45
527.808	42591.26
528.01	41649.2
528.211	42138.66
528.412	43041.82
528.614	42675.23
528.815	42931.23
529.016	43170.84
529.218	42712.09
529.419	42697.76
529.62	42939.42
529.822	42968.09
530.023	43193.37
530.224	43975.69
530.425	43736.08
530.626	43023.39
530.828	43109.4
531.029	44323.85
531.23	43709.46
531.431	44078.09
531.632	44151.82
531.833	44258.31
532.035	44282.89
532.236	44235.78
532.437	44725.25
532.638	44409.86
532.839	44590.08
533.04	44727.3
533.241	43615.25
533.442	45286.39
533.643	44819.45
533.844	45102.07
534.045	44393.48
534.246	44610.56
534.447	44897.28
534.648	44864.51
534.849	45024.25
535.05	44336.13
535.251	44880.89
535.451	44839.93
535.652	44917.76
535.853	44954.62
536.054	45464.56
536.255	45032.44
536.456	44278.79
536.657	45497.33
536.857	44983.29
537.058	45034.49
537.259	45566.96
537.46	45439.99
537.66	45161.47
537.861	45462.52
538.062	45040.64
538.263	44721.15
538.463	44948.48
538.664	44747.78
538.865	45325.3
539.065	45573.11
539.266	45018.11
539.466	45577.2
539.667	45032.44
539.868	45892.59
540.068	45102.07
540.269	44839.93
540.469	45448.18
540.67	45167.61
540.87	45231.1
541.071	44835.84
541.271	45214.71
541.472	45261.82
541.672	45286.39
541.873	45265.91
542.073	44647.43
542.274	45300.73
542.474	45161.47
542.675	44782.59
542.875	45421.56
543.075	44923.9
543.276	44573.7
543.476	45732.85
543.676	44852.22
543.877	45276.15
544.077	45478.9
544.277	45159.42
544.478	44946.43
544.678	45263.86
544.878	45351.93
545.078	45270.01
545.279	44901.37
545.479	44739.58
545.679	45442.04
545.879	44979.2
546.079	44633.09
546.28	45388.79
546.48	44090.38
546.68	45202.42
546.88	44612.61
547.08	44747.78
547.28	45028.35
547.48	44663.81
547.68	45073.4
547.88	44880.89
548.081	45073.4
548.281	44833.79
548.481	44702.72
548.681	45122.55
548.881	44522.5
549.081	44661.76
549.28	45048.83
549.48	45173.75
549.68	44676.1
549.88	45364.21
550.08	44493.83
550.28	44733.44
550.48	44778.5
550.68	44932.09
550.88	44923.9
551.08	44606.47
551.279	44844.03
551.479	44641.28
551.679	45138.94
551.879	44700.67
552.079	44717.06
552.278	44526.6
552.478	44706.82
552.678	44534.79
552.878	44712.96
553.077	44600.32
553.277	44121.1
553.477	44706.82
553.676	44618.75
553.876	44358.66
554.076	44370.95
554.275	44512.26
554.475	44233.74
554.674	44332.04
554.874	44049.42
555.074	44325.89
555.273	44268.55
555.473	44350.47
555.672	44004.36
555.872	43938.83
556.071	44268.55
556.271	44577.79
556.47	43877.39
556.67	43813.9
556.869	43852.81
557.068	43879.44
557.268	43369.49
557.467	43777.04
557.667	43625.49
557.866	43979.79
558.065	43662.35
558.265	43156.5
558.464	43332.63
558.663	43893.77
558.863	42898.46
559.062	43979.79
559.261	43308.05
559.461	43553.81
559.66	42730.53
559.859	43039.77
560.058	42452
560.258	43052.06
560.457	42306.6
560.656	42966.04
560.855	42548.26
561.054	43111.45
561.253	42220.58
561.453	42681.38
561.652	42570.79
561.851	42834.97
562.05	41913.39
562.249	41866.28
562.448	42406.95
562.647	42179.62
562.846	42062.89
563.045	42150.95
563.244	41796.65
563.443	42071.08
563.642	41374.77
563.841	41524.27
564.04	40987.71
564.239	41477.17
564.438	40823.87
564.637	41360.44
564.836	41389.11
565.035	40664.13
565.234	41116.73
565.432	40463.43
565.631	40494.14
565.83	40774.72
566.029	40635.45
566.228	40338.5
566.427	40141.89
566.625	40023.11
566.824	39429.2
567.023	40219.72
567.222	39197.78
567.42	40088.65
567.619	40006.73
567.818	39730.25
568.016	39375.95
568.215	39795.79
568.414	39353.43
568.612	39619.66
568.811	39031.9
569.01	39408.72
569.208	38681.69
569.407	38995.03
569.605	38530.14
569.804	38491.23
570.002	38513.76
570.201	38866.01
570.4	37770.35
570.598	38028.39
570.797	37915.75
570.995	38081.64
571.193	37909.61
571.392	38317.15
571.59	37536.88
571.789	37749.87
571.987	37866.6
572.186	37524.59
572.384	37147.76
572.582	37598.32
572.781	37446.77
572.979	36891.77
573.177	37375.09
573.376	37352.56
573.574	36762.75
573.772	36930.68
573.971	36455.55
574.169	36342.91
574.367	36387.97
574.565	36005
574.763	36459.65
574.962	35902.6
575.16	35302.54
575.358	35945.61
575.556	35280.02
575.754	36054.15
575.952	35331.22
576.151	35859.59
576.349	35056.79
576.547	35194
576.745	34958.49
576.943	35300.5
577.141	35196.05
577.339	35073.17
577.537	34743.45
577.735	34694.3
577.933	34421.92
578.131	34608.28
578.329	34301.09
578.527	34075.81
578.725	34317.47
578.923	34294.94
579.121	34069.67
579.319	34120.87
579.516	34036.9
579.714	33971.36
579.912	33389.74
580.11	33604.78
580.308	33420.46
580.506	33414.32
580.704	32746.68
580.901	33356.97
581.099	33619.11
581.297	33019.06
581.495	32890.04
581.692	33217.71
581.89	32744.63
582.088	32763.06
582.285	32468.16
582.483	32677.05
582.681	32662.71
582.878	32271.55
583.076	32185.54
583.274	32120
583.471	31777.99
583.669	32195.78
583.866	31403.21
584.064	31968.45
584.262	31771.85
584.459	31405.26
584.657	31636.68
584.854	31456.46
585.052	30923.99
585.249	31161.55
585.447	31016.15
585.644	30842.07
585.841	30948.56
586.039	30948.56
586.236	30833.88
586.434	30473.43
586.631	30381.28
586.828	30518.49
587.026	30489.82
587.223	30297.31
587.42	30219.49
587.618	30063.84
587.815	29953.25
588.012	29975.78
588.21	29990.11
588.407	30233.82
588.604	29654.25
588.801	29189.36
588.999	29766.88
589.196	29244.65
589.393	29291.76
589.59	29398.25
589.787	29121.77
589.984	28855.54
590.182	28785.91
590.379	28929.27
590.576	28703.99
590.773	28939.51
590.97	28105.98
591.167	28669.17
591.364	28278.01
591.561	28235
591.758	28185.85
591.955	28198.14
592.152	28323.07
592.349	27913.47
592.546	27817.22
592.743	27710.72
592.94	27254.03
593.137	27362.57
593.334	27618.57
593.531	27217.16
593.727	27254.03
593.924	27329.8
594.121	26916.11
594.318	27270.41
594.515	26844.43
594.712	27251.98
594.908	26694.93
595.105	26932.5
595.302	26772.75
595.499	26633.49
595.696	26389.78
595.892	26160.41
596.089	26371.35
596.286	26504.47
596.482	26111.26
596.679	26086.68
596.876	26139.93
597.072	25885.98
597.269	25664.8
597.466	25660.71
597.662	25613.6
597.859	25877.79
598.055	25523.49
598.252	25302.31
598.448	25318.7
598.645	24986.93
598.841	25169.19
599.038	25097.52
599.234	25236.78
599.431	24603.96
599.627	24931.63
599.824	24960.3
600.02	24532.28
600.217	24583.48
600.413	24769.84
600.609	24845.62
600.806	24331.58
601.002	24550.71
601.198	24261.94
601.395	23885.12
601.591	24466.74
601.787	24026.43
601.984	23987.52
602.18	24032.57
602.376	23719.23
602.572	23743.81
602.769	23905.6
602.965	23387.46
603.161	23485.76
603.357	23403.85
603.553	23373.13
603.75	23489.86
603.946	23104.84
604.142	23014.73
604.338	22766.93
604.534	22826.32
604.73	22861.13
604.926	22775.12
605.122	22652.24
605.318	22656.34
605.514	22371.67
605.71	22474.07
605.906	22320.47
606.102	22099.29
606.298	22506.84
606.494	22269.27
606.69	22041.95
606.886	22132.06
607.082	21656.93
607.278	22291.8
607.474	21468.52
607.67	21896.54
607.866	21714.27
608.062	22015.32
608.257	21785.95
608.453	21847.39
608.649	21554.53
608.845	21226.85
609.041	21603.68
609.236	21609.82
609.432	21460.32
609.628	21474.66
609.824	21394.79
610.019	21157.22
610.215	21204.33
610.411	21396.84
610.606	20946.28
610.802	21187.94
610.998	20858.22
611.193	20813.17
611.389	20784.49
611.584	20727.15
611.78	20821.36
611.976	20567.41
612.171	20854.12
612.367	20829.55
612.562	20645.23
612.758	20591.98
612.953	20198.77
613.149	20637.04
613.344	20219.25
613.539	20376.95
613.735	20305.27
613.93	20606.32
614.126	20155.77
614.321	20335.99
614.517	20393.33
614.712	20163.96
614.907	19914.11
615.103	20141.43
615.298	20043.13
615.493	20274.55
615.688	19848.57
615.884	20241.78
616.079	19692.93
616.274	19744.13
616.47	19858.81
616.665	19856.76
616.86	19807.61
617.055	19660.16
617.25	19502.47
617.445	19463.55
617.641	19430.79
617.836	19357.06
618.031	19287.43
618.226	19537.28
618.421	19434.88
618.616	19139.97
618.811	18972.04
619.006	19271.04
619.201	18687.37
619.396	18797.96
619.591	18656.65
619.786	19058.06
619.981	18677.13
620.176	18621.84
620.371	18443.67
620.566	18458
620.761	18476.43
620.956	18517.39
621.151	18238.87
621.346	18339.22
621.541	17790.36
621.735	18154.9
621.93	17927.58
622.125	18118.04
622.32	17376.67
622.515	17921.43
622.709	17470.88
622.904	17464.74
623.099	17417.63
623.294	17352.1
623.488	17110.44
623.683	17044.9
623.878	16842.15
624.072	17087.91
624.267	16850.35
624.462	16573.87
624.656	16668.08
624.851	16711.08
625.046	16465.33
625.24	16582.06
625.435	16076.21
625.629	16022.97
625.824	15975.86
626.018	16182.71
626.213	15824.31
626.407	16108.98
626.602	15402.43
626.796	15691.2
626.991	15846.84
627.185	15658.43
627.38	15541.69
627.574	15461.82
627.768	15183.3
627.963	15162.82
628.157	15039.94
628.352	15185.35
628.546	14845.38
628.74	15082.95
628.935	14718.41
629.129	14706.12
629.323	14599.63
629.517	14798.28
629.712	14638.54
629.906	14536.14
630.1	14241.23
630.294	14239.19
630.489	14263.76
630.683	13979.09
630.877	14056.92
631.071	13970.9
631.265	13931.99
631.459	13796.82
631.653	13778.39
631.848	13700.57
632.042	13632.99
632.236	13508.06
632.43	13350.37
632.624	13409.76
632.818	13469.15
633.012	13135.33
633.206	13229.54
633.4	13047.27
633.594	12856.81
633.788	12899.81
633.982	12881.38
634.176	13002.21
634.369	12625.39
634.563	12545.52
634.757	12731.88
634.951	12512.75
635.145	12748.26
635.339	12615.15
635.533	12215.79
635.726	12144.11
635.92	11970.04
636.114	12178.93
636.308	12246.51
636.501	11914.74
636.695	12420.59
636.889	11908.6
637.083	11763.19
637.276	11875.83
637.47	11638.27
637.664	11638.27
637.857	11791.86
638.051	11691.51
638.244	11462.14
638.438	11302.4
638.632	11310.59
638.825	11361.79
639.019	11191.81
639.212	11304.45
639.406	11017.73
639.599	11001.35
639.793	11042.31
639.986	10733.06
640.18	11095.55
640.373	11044.35
640.567	10718.73
640.76	10720.78
640.954	10622.47
641.147	10503.69
641.34	10606.09
641.534	10556.94
641.727	10386.96
641.92	10196.5
642.114	10389
642.307	10116.62
642.5	10364.43
642.694	10092.05
642.887	10137.1
643.08	10012.18
643.273	10012.18
643.467	9881.11
643.66	9897.49
643.853	9788.95
644.046	9688.6
644.239	9842.2
644.432	9479.71
644.626	9684.5
644.819	9647.64
645.012	9690.65
645.205	9520.67
645.398	9621.02
645.591	9420.31
645.784	9367.07
645.977	9348.64
646.17	9084.45
646.363	9031.2
646.556	9020.96
646.749	9051.68
646.942	9104.93
647.135	9006.63
647.328	9051.68
647.521	8613.42
647.714	8787.49
647.907	8728.1
648.099	8969.76
648.292	8810.02
648.485	8625.7
648.678	8560.17
648.871	8527.4
649.064	8580.65
649.256	8560.17
649.449	8410.67
649.642	8351.28
649.835	8250.92
650.027	8252.97
650.22	8304.17
650.413	8195.63
650.605	8212.01
650.798	8103.47
650.991	7964.21
651.183	8351.28
651.376	7972.4
651.568	8066.61
651.761	7892.53
651.954	7884.34
652.146	7841.33
652.339	7810.61
652.531	7837.24
652.724	7687.73
652.916	7556.66
653.109	7677.49
653.301	7503.42
653.494	7527.99
653.686	7681.59
653.879	7597.62
654.071	7497.27
654.263	7366.2
654.456	7519.8
654.648	7521.85
654.84	7226.94
655.033	7341.63
655.225	7315
655.417	7065.15
655.61	7282.24
655.802	7247.42
655.994	7237.18
656.186	7161.41
656.379	7210.56
656.571	7032.38
656.763	6952.51
656.955	6886.98
657.148	7054.91
657.34	6911.55
657.532	6882.88
657.724	6843.97
657.916	6786.63
658.108	6940.22
658.3	6633.03
658.492	6745.67
658.684	6579.78
658.876	6616.65
659.068	6608.45
659.26	6364.75
659.452	6610.5
659.644	6518.34
659.836	6229.58
660.028	6620.74
660.22	6235.72
660.412	6499.91
660.604	6245.96
660.796	6456.9
660.988	6235.72
661.18	6338.12
661.372	6235.72
661.563	6284.87
661.755	6174.28
661.947	6368.84
662.139	6116.94
662.331	5951.06
662.522	6024.78
662.714	6051.41
662.906	6141.52
663.097	5850.71
663.289	5840.47
663.481	5852.75
663.673	6032.97
663.864	5744.21
664.056	5785.17
664.247	5834.32
664.439	5652.05
664.631	5867.09
664.822	5783.12
665.014	5750.35
665.205	5590.61
665.397	5617.24
665.588	5561.94
665.78	5602.9
665.971	5553.75
666.163	5619.28
666.354	5676.63
666.546	5510.74
666.737	5514.84
666.929	5566.04
667.12	5383.77
667.311	5432.92
667.503	5305.95
667.694	5531.22
667.885	5342.81
668.077	5305.95
668.268	5275.23
668.459	5379.67
668.651	5189.21
668.842	5363.29
669.033	5228.12
669.224	5084.77
669.416	5269.08
669.607	5283.42
669.798	5324.38
669.989	5181.02
670.18	5011.04
670.371	5121.63
670.563	5068.38
670.754	5131.87
670.945	4994.65
671.136	5039.71
671.327	4974.17
671.518	5033.57
671.709	5023.33
671.9	5068.38
672.091	4918.88
672.282	5000.8
672.473	4931.17
672.664	4951.65
672.855	4861.54
673.046	4990.56
673.237	5058.14
673.428	4947.55
673.619	4806.24
673.809	4810.34
674	4877.92
674.191	4939.36
674.382	4714.08
674.573	4767.33
674.764	4685.41
674.954	4929.12
675.145	4910.69
675.336	4808.29
675.527	4832.86
675.717	4730.47
675.908	4703.84
676.099	4892.26
676.289	4800.1
676.48	4769.38
676.671	4607.59
676.861	4628.07
677.052	4738.66
677.243	4613.73
677.433	4673.12
677.624	4638.31
677.814	4587.11
678.005	4673.12
678.195	4730.47
678.386	4601.44
678.576	4484.71
678.767	4650.6
678.957	4585.06
679.148	4693.6
679.338	4632.16
679.529	4699.75
679.719	4564.58
679.909	4669.03
680.1	4669.03
680.29	4468.33
680.481	4497
680.671	4632.16
680.861	4683.36
681.052	4642.4
681.242	4513.38
681.432	4533.86
681.622	4656.74
681.813	4681.32
682.003	4466.28
682.193	4396.65
682.383	4593.25
682.573	4513.38
682.764	4482.66
682.954	4427.37
683.144	4681.32
683.334	4470.37
683.524	4437.61
683.714	4349.54
683.904	4474.47
684.094	4484.71
684.284	4466.28
684.474	4550.25
684.664	4458.09
684.854	4365.93
685.044	4505.19
685.234	4320.87
685.424	4488.81
685.614	4427.37
685.804	4443.75
685.994	4433.51
686.184	4363.88
686.374	4316.78
686.564	4204.14
686.753	4329.06
686.943	4157.04
687.133	4277.87
687.323	4267.63
687.513	4197.99
687.702	4208.23
687.892	4105.84
688.082	4105.84
688.272	4232.81
688.461	4181.61
688.651	4288.11
688.841	4105.84
689.03	4095.6
689.22	4154.99
689.41	4111.98
689.599	4021.87
689.789	4034.16
689.979	4025.97
690.168	4050.54
690.358	4089.45
690.547	3985.01
690.737	4001.39
690.926	4085.36
691.116	3868.27
691.305	3853.94
691.495	4025.97
691.684	3876.46
691.874	3901.04
692.063	3917.42
692.252	3987.05
692.442	3944.05
692.631	3901.04
692.82	3798.64
693.01	3802.74
693.199	3755.63
693.388	3757.68
693.578	3835.5
693.767	3882.61
693.956	3708.53
694.146	3827.31
694.335	3724.91
694.524	3763.83
694.713	3626.61
694.902	3759.73
695.092	3657.33
695.281	3643
695.47	3587.7
695.659	3634.8
695.848	3468.92
696.037	3571.32
696.226	3643
696.415	3593.84
696.604	3606.13
696.793	3624.56
696.982	3767.92
697.171	3741.3
697.36	3591.8
697.549	3440.25
697.738	3626.61
697.927	3507.83
698.116	3526.26
698.305	3509.88
698.494	3616.37
698.683	3468.92
698.872	3540.6
699.061	3532.4
699.25	3571.32
699.438	3663.47
699.627	3581.56
699.816	3616.37
700.005	3516.02
700.193	3536.5
700.382	3612.28
700.571	3501.69
700.76	3669.62
700.948	3618.42
701.137	3497.59
701.326	3442.29
701.514	3468.92
701.703	3556.98
701.892	3513.97
702.08	3511.93
702.269	3444.34
702.457	3442.29
702.646	3493.49
702.834	3487.35
703.023	3516.02
703.212	3483.25
703.4	3413.62
703.589	3556.98
703.777	3561.08
703.965	3509.88
704.154	3460.73
704.342	3358.33
704.531	3513.97
704.719	3417.72
704.907	3460.73
705.096	3513.97
705.284	3509.88
705.472	3559.03
705.661	3583.6
705.849	3591.8
706.037	3606.13
706.226	3509.88
706.414	3524.21
706.602	3346.04
706.79	3509.88
706.979	3364.47
707.167	3499.64
707.355	3393.14
707.543	3335.8
707.731	3378.81
707.919	3384.95
708.107	3401.33
708.296	3477.11
708.484	3372.66
708.672	3430.01
708.86	3532.4
709.048	3458.68
709.236	3491.45
709.424	3552.88
709.612	3659.38
709.8	3415.67
709.988	3575.41
710.176	3460.73
710.364	3444.34
710.551	3616.37
710.739	3460.73
710.927	3434.1
711.115	3440.25
711.303	3507.83
711.491	3499.64
711.679	3530.36
711.866	3509.88
712.054	3599.99
712.242	3468.92
712.43	3518.07
712.617	3440.25
712.805	3567.22
712.993	3536.5
713.181	3554.93
713.368	3477.11
713.556	3606.13
713.744	3491.45
713.931	3608.18
714.119	3464.82
714.306	3602.04
714.494	3595.89
714.682	3526.26
714.869	3585.65
715.057	3575.41
715.244	3483.25
715.432	3436.15
715.619	3483.25
715.807	3620.47
715.994	3509.88
716.182	3518.07
716.369	3640.95
716.556	3571.32
716.744	3491.45
716.931	3612.28
717.119	3563.12
717.306	3575.41
717.493	3604.08
717.681	3628.66
717.868	3599.99
718.055	3569.27
718.242	3448.44
718.43	3565.17
718.617	3706.48
718.804	3686
718.991	3520.12
719.179	3583.6
719.366	3591.8
719.553	3593.84
719.74	3501.69
719.927	3464.82
720.114	3673.71
720.301	3663.47
720.488	3493.49
720.676	3653.23
720.863	3599.99
721.05	3536.5
721.237	3575.41
721.424	3647.09
721.611	3606.13
721.798	3513.97
721.985	3554.93
722.172	3552.88
722.358	3446.39
722.545	3378.81
722.732	3458.68
722.919	3581.56
723.106	3409.53
723.293	3511.93
723.48	3575.41
723.667	3524.21
723.853	3524.21
724.04	3708.53
724.227	3483.25
724.414	3577.46
724.6	3587.7
724.787	3462.77
724.974	3473.01
725.161	3573.36
725.347	3491.45
725.534	3671.67
725.72	3427.96
725.907	3579.51
726.094	3479.16
726.28	3401.33
726.467	3460.73
726.653	3538.55
726.84	3573.36
727.027	3475.06
727.213	3362.42
727.4	3528.31
727.586	3540.6
727.773	3563.12
727.959	3505.78
728.145	3432.05
728.332	3493.49
728.518	3505.78
728.705	3483.25
728.891	3446.39
729.077	3466.87
729.264	3430.01
729.45	3481.21
729.636	3542.64
729.823	3444.34
730.009	3550.84
730.195	3458.68
730.382	3331.7
730.568	3434.1
730.754	3448.44
730.94	3393.14
731.126	3470.97
731.313	3518.07
731.499	3409.53
731.685	3532.4
731.871	3462.77
732.057	3470.97
732.243	3440.25
732.429	3477.11
732.615	3427.96
732.801	3483.25
732.987	3325.56
733.173	3399.29
733.359	3450.49
733.545	3427.96
733.731	3452.53
733.917	3372.66
734.103	3427.96
734.289	3411.57
734.475	3432.05
734.661	3442.29
734.847	3495.54
735.033	3364.47
735.219	3481.21
735.404	3300.98
735.59	3391.09
735.776	3454.58
735.962	3333.75
736.148	3321.46
736.333	3352.18
736.519	3411.57
736.705	3343.99
736.89	3249.79
737.076	3255.93
737.262	3178.11
737.447	3313.27
737.633	3296.89
737.819	3321.46
738.004	3190.39
738.19	3235.45
738.375	3331.7
738.561	3278.46
738.747	3319.42
738.932	3194.49
739.118	3169.91
739.303	3184.25
739.489	3303.03
739.674	3176.06
739.859	3065.47
740.045	3303.03
740.23	3227.26
740.416	3194.49
740.601	3231.35
740.786	3141.24
740.972	3100.28
741.157	3192.44
741.342	3098.24
741.528	3042.94
741.713	2999.93
741.898	3038.84
742.084	3004.03
742.269	3128.95
742.454	3065.47
742.639	3108.48
742.824	3122.81
743.01	3018.36
743.195	2993.79
743.38	2942.59
743.565	2989.69
743.75	2981.5
743.935	2856.58
744.12	3049.08
744.305	2807.42
744.49	2885.25
744.675	2932.35
744.86	2870.91
745.045	2840.19
745.23	2907.77
745.415	2721.41
745.6	2915.97
745.785	2788.99
745.97	2657.92
746.155	2834.05
746.34	2702.98
746.525	2846.34
746.71	2752.13
746.895	2707.07
747.079	2672.26
747.264	2717.31
747.449	2737.79
747.634	2582.15
747.819	2596.48
748.003	2674.31
748.188	2616.96
748.373	2625.15
748.557	2588.29
748.742	2543.24
748.927	2455.17
749.111	2424.45
749.296	2502.28
749.481	2481.8
749.665	2461.32
749.85	2414.21
750.034	2399.88
750.219	2356.87
750.404	2291.34
750.588	2399.88
750.773	2227.85
750.957	2387.59
751.141	2254.47
751.326	2381.45
751.51	2272.9
751.695	2197.13
751.879	2156.17
752.064	2320.01
752.248	2170.51
752.432	2201.23
752.617	2193.03
752.801	2201.23
752.985	2223.75
753.17	2188.94
753.354	2145.93
753.538	2094.73
753.722	2072.2
753.907	2047.63
754.091	2098.83
754.275	2166.41
754.459	2088.59
754.643	1959.56
754.828	2094.73
755.012	2025.1
755.196	2016.91
755.38	1902.22
755.564	1896.08
755.748	1965.71
755.932	1969.8
756.116	1816.21
756.3	2029.2
756.484	1822.35
756.668	1765.01
756.852	1781.39
757.036	1889.93
757.22	1736.34
757.404	1797.78
757.588	1783.44
757.772	1828.49
757.956	1740.43
758.14	1838.73
758.323	1678.99
758.507	1814.16
758.691	1687.18
758.875	1732.24
759.059	1719.95
759.242	1629.84
759.426	1615.51
759.61	1676.95
759.794	1597.07
759.977	1803.92
760.161	1707.66
760.345	1611.41
760.528	1582.74
760.712	1724.05
760.895	1574.55
761.079	1676.95
761.263	1603.22
761.446	1527.44
761.63	1521.3
761.813	1543.83
761.997	1470.1
762.18	1611.41
762.364	1574.55
762.547	1525.4
762.731	1427.09
762.914	1470.1
763.098	1468.05
763.281	1515.16
763.464	1433.24
763.648	1441.43
763.831	1541.78
764.015	1449.62
764.198	1367.7
764.381	1396.37
764.564	1474.2
764.748	1427.09
764.931	1486.48
765.114	1441.43
765.297	1490.58
765.481	1379.99
765.664	1439.38
765.847	1275.54
766.03	1357.46
766.213	1461.91
766.397	1328.79
766.58	1330.84
766.763	1349.27
766.946	1326.74
767.129	1334.93
767.312	1291.93
767.495	1263.26
767.678	1355.41
767.861	1306.26
768.044	1382.04
768.227	1330.84
768.41	1210.01
768.593	1212.06
768.776	1240.73
768.959	1275.54
769.142	1255.06
769.324	1230.49
769.507	1207.96
769.69	1169.05
769.873	1265.3
770.056	1222.3
770.239	1232.54
770.421	1218.2
770.604	1265.3
770.787	1085.08
770.97	1281.69
771.152	1152.67
771.335	1162.9
771.518	1189.53
771.7	1042.07
771.883	1093.27
772.066	1212.06
772.248	1265.3
772.431	1089.18
772.613	1164.95
772.796	1021.6
772.978	1044.12
773.161	1109.66
773.343	1156.76
773.526	1109.66
773.708	1080.99
773.891	984.73
774.073	1044.12
774.256	1023.64
774.438	980.64
774.621	1068.7
774.803	986.78
774.985	1074.84
775.168	1040.03
775.35	921.24
775.532	1011.36
775.715	997.02
775.897	966.3
776.079	1001.12
776.261	980.64
776.444	898.72
776.626	882.33
776.808	964.25
776.99	908.96
777.173	896.67
777.355	962.2
777.537	888.48
777.719	851.61
777.901	835.23
778.083	863.9
778.265	911
778.447	777.89
778.629	753.31
778.811	829.09
778.993	937.63
779.175	954.01
779.357	775.84
779.539	818.85
779.721	835.23
779.903	763.55
780.085	788.13
780.267	814.75
780.449	726.69
780.631	743.07
780.812	773.79
780.994	788.13
781.176	845.47
781.358	802.46
781.54	730.78
781.721	761.5
781.903	755.36
782.085	734.88
782.267	671.39
782.448	675.49
782.63	659.1
782.812	691.87
782.993	695.97
783.175	652.96
783.357	689.82
783.538	597.67
783.72	661.15
783.901	585.38
784.083	689.82
784.264	609.95
784.446	597.67
784.627	593.57
784.809	624.29
784.99	521.89
785.172	626.34
785.353	626.34
785.535	657.06
785.716	620.19
785.897	597.67
786.079	587.43
786.26	636.58
786.441	612
786.623	532.13
786.804	519.84
786.985	648.86
787.167	587.43
787.348	618.15
787.529	568.99
787.71	579.23
787.891	642.72
788.073	517.79
788.254	616.1
788.435	507.55
788.616	495.27
788.797	450.21
788.978	609.95
789.159	470.69
789.34	519.84
789.522	485.03
789.703	503.46
789.884	517.79
790.065	476.84
790.246	466.6
790.427	407.2
790.607	501.41
790.788	448.16
790.969	507.55
791.15	485.03
791.331	456.36
791.512	497.32
791.693	372.39
791.874	544.42
792.054	429.73
792.235	460.45
792.416	431.78
792.597	540.32
792.778	374.44
792.958	411.3
793.139	403.11
793.32	450.21
793.5	300.71
793.681	403.11
793.862	401.06
794.042	405.16
794.223	392.87
794.404	384.68
794.584	329.38
794.765	366.25
794.945	374.44
795.126	464.55
795.306	442.02
795.487	415.4
795.667	384.68
795.848	386.72
796.028	499.36
796.209	380.58
796.389	417.44
796.57	335.53
796.75	319.14
796.93	407.2
797.111	431.78
797.291	390.82
797.471	384.68
797.652	319.14
797.832	333.48
798.012	372.39
798.192	394.92
798.373	282.28
798.553	276.13
798.733	362.15
798.913	317.09
799.093	386.72
799.274	353.96
799.454	327.33
799.634	325.29
799.814	343.72
799.994	378.53
800.174	392.87
800.354	390.82
800.534	331.43
800.714	339.62
800.894	319.14
801.074	362.15
801.254	325.29
801.434	310.95
801.614	335.53
801.794	296.61
801.974	732.83
802.154	347.81
802.334	284.33
802.514	218.79
802.693	294.57
802.873	349.86
803.053	327.33
803.233	298.66
803.413	276.13
803.592	286.37
803.772	267.94
803.952	286.37
804.131	284.33
804.311	278.18
804.491	292.52
804.67	308.9
804.85	257.7
805.03	296.61
805.209	310.95
805.389	265.89
805.568	200.36
805.748	214.7
805.928	237.22
806.107	317.09
806.287	218.79
806.466	288.42
806.646	239.27
806.825	247.46
807.004	239.27
807.184	276.13
807.363	286.37
807.543	249.51
807.722	257.7
807.901	284.33
808.081	239.27
808.26	198.31
808.439	315.05
808.619	255.65
808.798	251.56
808.977	257.7
809.156	302.76
809.336	202.41
809.515	358.05
809.694	298.66
809.873	206.5
810.052	140.97
810.231	192.17
810.411	233.13
810.59	251.56
810.769	208.55
810.948	218.79
811.127	229.03
811.306	237.22
811.485	198.31
811.664	343.72
811.843	171.69
812.022	183.98
812.201	226.98
812.38	224.94
812.559	188.07
812.737	214.7
812.916	143.02
813.095	218.79
813.274	216.74
813.453	243.37
813.632	188.07
813.811	192.17
813.989	190.12
814.168	261.8
814.347	214.7
814.526	202.41
814.704	263.85
814.883	214.7
815.062	136.87
815.24	194.22
815.419	192.17
815.598	196.26
815.776	147.11
815.955	214.7
816.133	114.34
816.312	259.75
816.49	102.06
816.669	149.16
816.847	143.02
817.026	200.36
817.204	126.63
817.383	134.82
817.561	202.41
817.74	190.12
817.918	224.94
818.097	200.36
818.275	140.97
818.453	220.84
818.632	116.39
818.81	196.26
818.988	167.59
819.167	116.39
819.345	183.98
819.523	175.78
819.701	167.59
819.879	169.64
820.058	157.35
820.236	163.5
820.414	190.12
820.592	124.58
820.77	145.06
820.948	91.82
821.127	167.59
821.305	202.41
821.483	138.92
821.661	155.3
821.839	216.74
822.017	57
822.195	165.54
822.373	120.49
822.551	157.35
822.729	231.08
822.907	157.35
823.085	243.37
823.262	143.02
823.44	118.44
823.618	198.31
823.796	124.58
823.974	97.96
824.152	83.63
824.329	126.63
824.507	106.15
824.685	159.4
824.863	132.78
825.04	171.69
825.218	132.78
825.396	155.3
825.574	175.78
825.751	149.16
825.929	57
826.107	93.87
826.284	169.64
826.462	153.26
826.639	157.35
826.817	122.54
826.994	100.01
827.172	97.96
827.349	192.17
827.527	108.2
827.704	87.72
827.882	104.11
828.059	114.34
828.237	89.77
828.414	155.3
828.591	57
828.769	169.64
828.946	114.34
829.124	188.07
829.301	91.82
829.478	93.87
829.655	114.34
829.833	79.53
830.01	40.62
830.187	95.91
830.364	106.15
830.542	50.86
830.719	167.59
830.896	118.44
831.073	97.96
831.25	124.58
831.427	136.87
831.604	108.2
831.782	-14.68
831.959	138.92
832.136	165.54
832.313	112.3
832.49	73.39
832.667	122.54
832.844	91.82
833.021	69.29
833.198	138.92
833.374	97.96
833.551	65.19
833.728	124.58
833.905	108.2
834.082	87.72
834.259	179.88
834.436	171.69
834.612	67.24
834.789	20.14
834.966	114.34
835.143	116.39
835.319	30.38
835.496	177.83
835.673	134.82
835.85	114.34
836.026	106.15
836.203	140.97
836.38	61.1
836.556	7.85
836.733	61.1
836.909	140.97
837.086	20.14
837.262	100.01
837.439	85.67
837.616	79.53
837.792	110.25
837.968	188.07
838.145	-24.92
838.321	36.52
838.498	97.96
838.674	87.72
838.851	42.67
839.027	93.87
839.203	22.19
839.38	97.96
839.556	20.14
839.732	151.21
839.909	13.99
840.085	110.25
840.261	48.81
840.437	61.1
840.614	81.58
840.79	132.78
840.966	71.34
841.142	97.96
841.318	26.28
841.494	134.82
841.671	26.28
841.847	120.49
842.023	26.28
842.199	100.01
842.375	155.3
842.551	30.38
842.727	65.19
842.903	116.39
843.079	16.04
843.255	249.51
843.431	114.34
843.607	97.96
843.783	16.04
843.959	71.34
844.134	85.67
844.31	71.34
844.486	42.67
844.662	44.71
844.838	36.52
845.013	116.39
845.189	67.24
845.365	57
845.541	67.24
845.716	85.67
845.892	26.28
846.068	100.01
846.244	9.9
846.419	112.3
846.595	65.19
846.77	136.87
846.946	116.39
847.122	36.52
847.297	65.19
847.473	1.71
847.648	3.75
847.824	32.43
847.999	-12.63
848.175	118.44
848.35	95.91
848.526	81.58
848.701	93.87
848.876	114.34
849.052	-24.92
849.227	38.57
849.403	79.53
849.578	24.23
849.753	102.06
849.929	-12.63
850.104	22.19
850.279	50.86
850.454	36.52
850.63	-0.34
850.805	46.76
850.98	65.19
851.155	28.33
851.33	52.91
851.505	28.33
851.681	75.43
851.856	-4.44
852.031	69.29
852.206	3.75
852.381	20.14
852.556	-4.44
852.731	32.43
852.906	50.86
853.081	24.23
853.256	106.15
853.431	22.19
853.606	7.85
853.781	16.04
853.956	7.85
854.131	52.91
854.305	26.28
854.48	11.95
854.655	18.09
854.83	-8.53
855.005	32.43
855.18	-35.16
855.354	75.43
855.529	61.1
855.704	22.19
855.879	97.96
856.053	34.47
856.228	44.71
856.403	36.52
856.577	13.99
856.752	50.86
856.926	75.43
857.101	-41.3
857.276	-12.63
857.45	61.1
857.625	52.91
857.799	69.29
857.974	-6.49
858.148	38.57
858.323	61.1
858.497	32.43
858.672	16.04
858.846	77.48
859.02	57
859.195	-31.06
859.369	30.38
859.543	-20.82
859.718	112.3
859.892	-20.82
860.066	16.04
860.241	16.04
860.415	32.43
860.589	71.34
860.763	75.43
860.938	-6.49
861.112	69.29
861.286	-14.68
861.46	11.95
861.634	44.71
861.808	71.34
861.982	-8.53
862.157	7.85
862.331	36.52
862.505	89.77
862.679	20.14
862.853	-29.01
863.027	73.39
863.201	24.23
863.375	1.71
863.549	59.05
863.722	-8.53
863.896	30.38
864.07	-8.53
864.244	-4.44
864.418	-102.74
864.592	67.24
864.766	-6.49
864.939	52.91
865.113	7.85
865.287	16.04
865.461	11.95
865.634	22.19
865.808	9.9
865.982	-31.06
866.156	26.28
866.329	-12.63
866.503	42.67
866.676	71.34
866.85	-20.82
867.024	1.71
867.197	93.87
867.371	38.57
867.544	85.67
867.718	-4.44
867.891	44.71
868.065	34.47
868.238	44.71
868.412	11.95
868.585	11.95
868.759	-12.63
868.932	22.19
869.105	1.71
869.279	-6.49
869.452	-29.01
869.625	75.43
869.799	28.33
869.972	18.09
870.145	-26.96
870.319	32.43
870.492	-6.49
870.665	-41.3
870.838	63.15
871.011	36.52
871.185	65.19
871.358	-0.34
871.531	13.99
871.704	-47.44
871.877	1.71
872.05	7.85
872.223	18.09
872.396	40.62
872.569	40.62
872.742	-45.4
872.915	44.71
873.088	-31.06
873.261	-8.53
873.434	44.71
873.607	-20.82
873.78	-43.35
873.953	42.67
874.126	48.81
874.299	48.81
874.471	-2.39
874.644	-0.34
874.817	26.28
874.99	81.58
875.163	-4.44
875.335	-51.54
875.508	-29.01
875.681	50.86
875.853	3.75
876.026	22.19
876.199	11.95
876.371	38.57
876.544	28.33
876.717	24.23
876.889	11.95
877.062	-33.11
877.234	61.1
877.407	-18.77
877.579	7.85
877.752	-39.25
877.924	38.57
878.097	75.43
878.269	52.91
878.442	30.38
878.614	26.28
878.786	-24.92
878.959	3.75
879.131	-53.59
879.303	-35.16
879.476	-12.63
879.648	42.67
879.82	-20.82
879.993	-6.49
880.165	-51.54
880.337	3.75
880.509	5.8
880.681	-35.16
880.854	-51.54
881.026	67.24
881.198	77.48
881.37	30.38
881.542	32.43
881.714	7.85
881.886	24.23
882.058	-0.34
882.23	67.24
882.402	-26.96
882.574	-57.68
882.746	5.8
882.918	69.29
883.09	-26.96
883.262	-53.59
883.434	42.67
883.606	-14.68
883.778	-41.3
883.95	48.81
884.122	-14.68
884.293	54.95
884.465	-6.49
884.637	30.38
884.809	9.9
884.98	48.81
885.152	-41.3
885.324	108.2
885.496	30.38
885.667	-22.87
885.839	-8.53
886.011	42.67
886.182	-29.01
886.354	-4.44
886.525	7.85
886.697	16.04
886.869	-6.49
887.04	5.8
887.212	73.39
887.383	81.58
887.555	18.09
887.726	5.8
887.897	-63.83
888.069	11.95
888.24	46.76
888.412	-8.53
888.583	77.48
888.754	3.75
888.926	-53.59
889.097	3.75
889.268	52.91
889.44	-4.44
889.611	-53.59
889.782	38.57
889.953	-12.63
890.125	-0.34
890.296	-55.64
890.467	-8.53
890.638	16.04
890.809	36.52
890.98	-69.97
891.151	48.81
891.323	9.9
891.494	13.99
891.665	30.38
891.836	18.09
892.007	-4.44
892.178	-37.2
892.349	-37.2
892.52	-8.53
892.691	-53.59
892.862	32.43
893.032	-102.74
893.203	-45.4
893.374	24.23
893.545	48.81
893.716	-29.01
893.887	22.19
894.057	71.34
894.228	13.99
894.399	-14.68
894.57	-41.3
894.74	26.28
894.911	-35.16
895.082	-12.63
895.253	-14.68
895.423	-29.01
895.594	52.91
895.764	38.57
895.935	-55.64
896.106	-22.87
896.276	-86.36
896.447	-12.63
896.617	-37.2
896.788	-63.83
896.958	-29.01
897.129	28.33
897.299	46.76
897.47	-2.39
897.64	-0.34
897.81	-65.88
897.981	-35.16
898.151	-26.96
898.322	-22.87
898.492	52.91
898.662	-45.4
898.832	50.86
899.003	-37.2
899.173	16.04
899.343	-53.59
899.513	-69.97
