Data from USB4F104151__133__10-25-45-811.txt Node

Date: Wed Mar 12 10:25:45 EDT 2025
User: louis
Spectrometer: USB4F10415
Trigger mode: 4
Integration Time (sec): 3.000000E-2
Scans to average: 1
Electric dark correction enabled: true
Nonlinearity correction enabled: false
Boxcar width: 0
XAxis mode: Wavelengths
Number of Pixels in Spectrum: 3648
>>>>>Begin Spectral Data<<<<<
178.204	-42.32
178.424	-42.32
178.644	-42.32
178.864	-157.01
179.084	-83.28
179.304	12.97
179.524	-52.56
179.744	2.73
179.964	37.55
180.184	4.78
180.404	2.73
180.624	0.68
180.844	12.97
181.064	-32.08
181.283	17.07
181.503	-5.46
181.723	-1.37
181.943	-68.95
182.163	29.35
182.383	-5.46
182.602	21.16
182.822	94.89
183.042	19.11
183.262	0.68
183.482	6.83
183.701	-52.56
183.921	-23.89
184.141	8.87
184.361	-30.04
184.58	-25.94
184.8	21.16
185.02	-19.8
185.239	10.92
185.459	4.78
185.679	15.02
185.898	-19.8
186.118	74.41
186.338	29.35
186.557	-11.61
186.777	-13.65
186.997	55.98
187.216	10.92
187.436	58.03
187.655	25.26
187.875	-42.32
188.095	-23.89
188.314	131.75
188.534	0.68
188.753	-38.23
188.973	55.98
189.192	66.22
189.412	-46.42
189.631	21.16
189.851	58.03
190.07	37.55
190.29	-9.56
190.509	-21.84
190.729	4.78
190.948	23.21
191.168	191.14
191.387	15.02
191.607	66.22
191.826	62.12
192.045	12.97
192.265	-9.56
192.484	27.31
192.704	37.55
192.923	-34.13
193.142	103.08
193.362	-15.7
193.581	33.45
193.8	25.26
194.02	17.07
194.239	-15.7
194.458	23.21
194.678	-25.94
194.897	17.07
195.116	82.6
195.335	21.16
195.555	64.17
195.774	53.93
195.993	41.64
196.212	33.45
196.432	41.64
196.651	-5.46
196.87	0.68
197.089	33.45
197.308	35.5
197.528	82.6
197.747	-15.7
197.966	-34.13
198.185	94.89
198.404	-3.41
198.623	29.35
198.842	113.32
199.062	49.83
199.281	76.46
199.5	94.89
199.719	-1.37
199.938	88.75
200.157	-5.46
200.376	90.79
200.595	29.35
200.814	53.93
201.033	8.87
201.252	43.69
201.471	31.4
201.69	58.03
201.909	37.55
202.128	19.11
202.347	88.75
202.566	6.83
202.785	12.97
203.004	62.12
203.223	107.18
203.442	31.4
203.661	-52.56
203.879	33.45
204.098	4.78
204.317	-25.94
204.536	25.26
204.755	-27.99
204.974	12.97
205.193	-15.7
205.411	60.07
205.63	-7.51
205.849	19.11
206.068	31.4
206.287	27.31
206.505	4.78
206.724	101.03
206.943	37.55
207.162	-23.89
207.381	4.78
207.599	6.83
207.818	39.59
208.037	15.02
208.255	8.87
208.474	58.03
208.693	0.68
208.911	-3.41
209.13	101.03
209.349	-27.99
209.567	74.41
209.786	70.31
210.005	-15.7
210.223	-38.23
210.442	-23.89
210.661	90.79
210.879	8.87
211.098	17.07
211.316	47.79
211.535	53.93
211.753	4.78
211.972	64.17
212.191	45.74
212.409	8.87
212.628	-5.46
212.846	-3.41
213.065	6.83
213.283	66.22
213.502	31.4
213.72	15.02
213.938	12.97
214.157	41.64
214.375	51.88
214.594	17.07
214.812	35.5
215.031	55.98
215.249	8.87
215.467	8.87
215.686	6.83
215.904	94.89
216.122	-19.8
216.341	98.99
216.559	55.98
216.778	25.26
216.996	55.98
217.214	8.87
217.432	-19.8
217.651	-50.52
217.869	-30.04
218.087	41.64
218.306	-73.04
218.524	-11.61
218.742	21.16
218.96	58.03
219.179	19.11
219.397	21.16
219.615	70.31
219.833	-34.13
220.051	-9.56
220.27	-36.18
220.488	88.75
220.706	21.16
220.924	37.55
221.142	72.36
221.36	33.45
221.578	64.17
221.796	74.41
222.015	96.94
222.233	-19.8
222.451	113.32
222.669	-7.51
222.887	-25.94
223.105	-58.71
223.323	-42.32
223.541	12.97
223.759	68.27
223.977	15.02
224.195	53.93
224.413	35.5
224.631	94.89
224.849	31.4
225.067	19.11
225.285	68.27
225.503	41.64
225.721	-1.37
225.939	-25.94
226.157	27.31
226.375	53.93
226.592	-15.7
226.81	45.74
227.028	72.36
227.246	4.78
227.464	25.26
227.682	105.13
227.9	-13.65
228.117	17.07
228.335	4.78
228.553	43.69
228.771	-1.37
228.989	49.83
229.206	45.74
229.424	58.03
229.642	-42.32
229.86	15.02
230.077	55.98
230.295	35.5
230.513	4.78
230.731	29.35
230.948	-32.08
231.166	43.69
231.384	58.03
231.601	15.02
231.819	41.64
232.037	-52.56
232.254	-44.37
232.472	-7.51
232.689	33.45
232.907	58.03
233.125	25.26
233.342	-42.32
233.56	-19.8
233.777	49.83
233.995	-9.56
234.213	58.03
234.43	39.59
234.648	-7.51
234.865	-19.8
235.083	-3.41
235.3	41.64
235.518	98.99
235.735	90.79
235.953	64.17
236.17	-46.42
236.388	62.12
236.605	-30.04
236.822	8.87
237.04	66.22
237.257	-3.41
237.475	4.78
237.692	25.26
237.909	86.7
238.127	37.55
238.344	64.17
238.562	-27.99
238.779	-25.94
238.996	64.17
239.214	0.68
239.431	19.11
239.648	-11.61
239.865	62.12
240.083	90.79
240.3	-40.28
240.517	0.68
240.735	41.64
240.952	-7.51
241.169	101.03
241.386	4.78
241.603	47.79
241.821	-11.61
242.038	45.74
242.255	98.99
242.472	-48.47
242.689	25.26
242.907	47.79
243.124	23.21
243.341	33.45
243.558	-52.56
243.775	84.65
243.992	-21.84
244.209	62.12
244.426	92.84
244.643	15.02
244.86	31.4
245.078	17.07
245.295	-27.99
245.512	21.16
245.729	72.36
245.946	17.07
246.163	31.4
246.38	8.87
246.597	66.22
246.814	8.87
247.031	-32.08
247.248	70.31
247.464	33.45
247.681	37.55
247.898	15.02
248.115	64.17
248.332	-1.37
248.549	78.51
248.766	66.22
248.983	8.87
249.2	33.45
249.417	135.85
249.633	21.16
249.85	29.35
250.067	39.59
250.284	-3.41
250.501	51.88
250.717	41.64
250.934	6.83
251.151	25.26
251.368	-66.9
251.585	25.26
251.801	74.41
252.018	-23.89
252.235	21.16
252.451	-19.8
252.668	-32.08
252.885	-13.65
253.102	25.26
253.318	-58.71
253.535	84.65
253.752	15.02
253.968	-40.28
254.185	-11.61
254.401	51.88
254.618	29.35
254.835	45.74
255.051	47.79
255.268	58.03
255.484	-7.51
255.701	-13.65
255.917	68.27
256.134	-9.56
256.351	8.87
256.567	-23.89
256.784	55.98
257	-58.71
257.217	82.6
257.433	12.97
257.65	4.78
257.866	39.59
258.082	-56.66
258.299	74.41
258.515	62.12
258.732	31.4
258.948	-7.51
259.165	-11.61
259.381	-52.56
259.597	35.5
259.814	12.97
260.03	-19.8
260.246	72.36
260.463	15.02
260.679	31.4
260.895	6.83
261.112	25.26
261.328	-3.41
261.544	39.59
261.761	86.7
261.977	90.79
262.193	2.73
262.409	43.69
262.626	39.59
262.842	17.07
263.058	-48.47
263.274	-13.65
263.49	58.03
263.707	21.16
263.923	-42.32
264.139	-17.75
264.355	33.45
264.571	2.73
264.787	76.46
265.004	25.26
265.22	25.26
265.436	-7.51
265.652	107.18
265.868	37.55
266.084	21.16
266.3	84.65
266.516	23.21
266.732	58.03
266.948	6.83
267.164	33.45
267.38	39.59
267.596	-1.37
267.812	66.22
268.028	17.07
268.244	12.97
268.46	47.79
268.676	-60.76
268.892	39.59
269.108	78.51
269.324	31.4
269.54	25.26
269.756	127.66
269.972	15.02
270.188	76.46
270.403	12.97
270.619	37.55
270.835	-52.56
271.051	21.16
271.267	-7.51
271.483	21.16
271.698	129.7
271.914	12.97
272.13	90.79
272.346	-21.84
272.562	-3.41
272.777	29.35
272.993	0.68
273.209	0.68
273.425	29.35
273.64	27.31
273.856	90.79
274.072	74.41
274.287	12.97
274.503	58.03
274.719	49.83
274.934	37.55
275.15	12.97
275.366	58.03
275.581	-17.75
275.797	6.83
276.012	-40.28
276.228	-48.47
276.444	107.18
276.659	6.83
276.875	-52.56
277.09	90.79
277.306	27.31
277.521	19.11
277.737	25.26
277.952	60.07
278.168	2.73
278.383	-21.84
278.599	-46.42
278.814	53.93
279.03	49.83
279.245	94.89
279.461	4.78
279.676	62.12
279.892	45.74
280.107	-19.8
280.322	41.64
280.538	74.41
280.753	8.87
280.969	39.59
281.184	-3.41
281.399	25.26
281.615	17.07
281.83	-7.51
282.045	25.26
282.26	41.64
282.476	66.22
282.691	74.41
282.906	21.16
283.122	25.26
283.337	-27.99
283.552	-3.41
283.767	10.92
283.983	21.16
284.198	15.02
284.413	12.97
284.628	31.4
284.843	6.83
285.058	25.26
285.274	-38.23
285.489	-83.28
285.704	47.79
285.919	0.68
286.134	41.64
286.349	33.45
286.564	0.68
286.779	37.55
286.995	103.08
287.21	12.97
287.425	72.36
287.64	-11.61
287.855	25.26
288.07	29.35
288.285	80.55
288.5	4.78
288.715	10.92
288.93	10.92
289.145	43.69
289.36	-7.51
289.575	25.26
289.79	2.73
290.004	27.31
290.219	66.22
290.434	25.26
290.649	25.26
290.864	60.07
291.079	133.8
291.294	58.03
291.509	-27.99
291.724	8.87
291.938	-3.41
292.153	74.41
292.368	4.78
292.583	0.68
292.798	27.31
293.012	23.21
293.227	12.97
293.442	25.26
293.657	78.51
293.871	66.22
294.086	-15.7
294.301	90.79
294.516	45.74
294.73	8.87
294.945	31.4
295.16	21.16
295.374	15.02
295.589	29.35
295.804	43.69
296.018	8.87
296.233	-11.61
296.447	17.07
296.662	-30.04
296.877	64.17
297.091	12.97
297.306	66.22
297.52	53.93
297.735	45.74
297.949	39.59
298.164	70.31
298.378	-44.37
298.593	78.51
298.807	29.35
299.022	23.21
299.236	-7.51
299.451	33.45
299.665	8.87
299.88	39.59
300.094	-13.65
300.309	47.79
300.523	8.87
300.737	-13.65
300.952	41.64
301.166	39.59
301.381	-7.51
301.595	-17.75
301.809	-15.7
302.024	58.03
302.238	-1.37
302.452	49.83
302.667	47.79
302.881	119.46
303.095	-75.09
303.309	4.78
303.524	-19.8
303.738	29.35
303.952	43.69
304.166	0.68
304.381	-7.51
304.595	62.12
304.809	-25.94
305.023	4.78
305.237	70.31
305.452	17.07
305.666	66.22
305.88	51.88
306.094	64.17
306.308	29.35
306.522	43.69
306.736	45.74
306.95	53.93
307.164	15.02
307.379	58.03
307.593	58.03
307.807	74.41
308.021	12.97
308.235	58.03
308.449	-21.84
308.663	0.68
308.877	70.31
309.091	41.64
309.305	53.93
309.519	8.87
309.733	43.69
309.947	41.64
310.161	43.69
310.374	37.55
310.588	60.07
310.802	-27.99
311.016	-32.08
311.23	37.55
311.444	-19.8
311.658	43.69
311.872	37.55
312.085	53.93
312.299	41.64
312.513	-1.37
312.727	80.55
312.941	31.4
313.154	-27.99
313.368	35.5
313.582	82.6
313.796	12.97
314.009	41.64
314.223	43.69
314.437	58.03
314.651	51.88
314.864	-30.04
315.078	27.31
315.292	49.83
315.505	-7.51
315.719	76.46
315.933	47.79
316.146	-13.65
316.36	25.26
316.573	15.02
316.787	33.45
317.001	41.64
317.214	51.88
317.428	-3.41
317.641	19.11
317.855	-17.75
318.068	68.27
318.282	15.02
318.495	58.03
318.709	31.4
318.922	-42.32
319.136	41.64
319.349	41.64
319.563	35.5
319.776	101.03
319.99	39.59
320.203	23.21
320.417	19.11
320.63	-15.7
320.843	94.89
321.057	41.64
321.27	-30.04
321.483	76.46
321.697	76.46
321.91	-7.51
322.124	33.45
322.337	53.93
322.55	29.35
322.763	15.02
322.977	76.46
323.19	15.02
323.403	-42.32
323.617	-5.46
323.83	8.87
324.043	-25.94
324.256	53.93
324.469	-50.52
324.683	-11.61
324.896	80.55
325.109	58.03
325.322	-3.41
325.535	41.64
325.748	31.4
325.962	-15.7
326.175	35.5
326.388	-34.13
326.601	17.07
326.814	-9.56
327.027	60.07
327.24	72.36
327.453	-19.8
327.666	117.42
327.879	94.89
328.092	146.09
328.305	39.59
328.518	47.79
328.731	8.87
328.944	19.11
329.157	12.97
329.37	37.55
329.583	53.93
329.796	107.18
330.009	-19.8
330.222	123.56
330.435	72.36
330.648	70.31
330.861	-7.51
331.073	10.92
331.286	64.17
331.499	62.12
331.712	25.26
331.925	25.26
332.138	29.35
332.35	27.31
332.563	-36.18
332.776	12.97
332.989	62.12
333.202	58.03
333.414	-5.46
333.627	29.35
333.84	35.5
334.053	10.92
334.265	15.02
334.478	-36.18
334.691	0.68
334.903	31.4
335.116	74.41
335.329	19.11
335.541	90.79
335.754	51.88
335.966	76.46
336.179	21.16
336.392	74.41
336.604	39.59
336.817	74.41
337.029	86.7
337.242	55.98
337.454	41.64
337.667	33.45
337.88	47.79
338.092	82.6
338.305	25.26
338.517	33.45
338.729	4.78
338.942	105.13
339.154	-81.24
339.367	39.59
339.579	96.94
339.792	-23.89
340.004	76.46
340.217	4.78
340.429	-11.61
340.641	25.26
340.854	25.26
341.066	29.35
341.278	86.7
341.491	43.69
341.703	41.64
341.915	-11.61
342.128	-3.41
342.34	55.98
342.552	-11.61
342.764	49.83
342.977	90.79
343.189	19.11
343.401	53.93
343.613	2.73
343.826	33.45
344.038	-27.99
344.25	23.21
344.462	86.7
344.674	33.45
344.886	72.36
345.099	94.89
345.311	45.74
345.523	58.03
345.735	-13.65
345.947	62.12
346.159	49.83
346.371	-38.23
346.583	15.02
346.795	123.56
347.007	55.98
347.219	47.79
347.431	39.59
347.643	47.79
347.855	21.16
348.067	80.55
348.279	-7.51
348.491	60.07
348.703	55.98
348.915	51.88
349.127	-17.75
349.339	78.51
349.551	23.21
349.763	82.6
349.975	-9.56
350.187	-21.84
350.399	62.12
350.61	49.83
350.822	49.83
351.034	39.59
351.246	12.97
351.458	47.79
351.669	25.26
351.881	49.83
352.093	21.16
352.305	62.12
352.517	62.12
352.728	123.56
352.94	90.79
353.152	-32.08
353.363	113.32
353.575	-7.51
353.787	25.26
353.999	160.42
354.21	72.36
354.422	27.31
354.633	17.07
354.845	49.83
355.057	-27.99
355.268	86.7
355.48	45.74
355.692	17.07
355.903	139.94
356.115	12.97
356.326	-19.8
356.538	92.84
356.749	37.55
356.961	62.12
357.172	74.41
357.384	45.74
357.595	12.97
357.807	15.02
358.018	35.5
358.23	43.69
358.441	107.18
358.653	107.18
358.864	49.83
359.075	6.83
359.287	33.45
359.498	51.88
359.709	-3.41
359.921	70.31
360.132	39.59
360.344	62.12
360.555	74.41
360.766	41.64
360.977	103.08
361.189	98.99
361.4	-27.99
361.611	103.08
361.823	47.79
362.034	62.12
362.245	62.12
362.456	-36.18
362.667	12.97
362.879	43.69
363.09	37.55
363.301	72.36
363.512	33.45
363.723	49.83
363.935	60.07
364.146	33.45
364.357	53.93
364.568	27.31
364.779	6.83
364.99	51.88
365.201	39.59
365.412	45.74
365.623	-5.46
365.834	33.45
366.045	82.6
366.256	53.93
366.467	21.16
366.678	66.22
366.889	-36.18
367.1	76.46
367.311	76.46
367.522	86.7
367.733	15.02
367.944	82.6
368.155	-21.84
368.366	8.87
368.577	70.31
368.788	33.45
368.999	29.35
369.209	35.5
369.42	76.46
369.631	105.13
369.842	66.22
370.053	2.73
370.264	129.7
370.474	29.35
370.685	43.69
370.896	31.4
371.107	90.79
371.317	60.07
371.528	74.41
371.739	137.9
371.95	19.11
372.16	78.51
372.371	58.03
372.582	21.16
372.792	37.55
373.003	88.75
373.214	31.4
373.424	25.26
373.635	66.22
373.846	66.22
374.056	6.83
374.267	15.02
374.477	33.45
374.688	-15.7
374.898	72.36
375.109	98.99
375.319	60.07
375.53	70.31
375.74	-40.28
375.951	45.74
376.161	139.94
376.372	66.22
376.582	49.83
376.793	4.78
377.003	0.68
377.214	80.55
377.424	68.27
377.635	92.84
377.845	58.03
378.055	23.21
378.266	51.88
378.476	84.65
378.686	31.4
378.897	-13.65
379.107	80.55
379.317	66.22
379.528	17.07
379.738	80.55
379.948	64.17
380.158	103.08
380.369	27.31
380.579	115.37
380.789	66.22
380.999	33.45
381.21	86.7
381.42	41.64
381.63	0.68
381.84	98.99
382.05	58.03
382.261	68.27
382.471	23.21
382.681	101.03
382.891	107.18
383.101	182.95
383.311	-7.51
383.521	70.31
383.731	29.35
383.941	35.5
384.151	-36.18
384.361	74.41
384.571	55.98
384.781	94.89
384.991	86.7
385.201	68.27
385.411	78.51
385.621	27.31
385.831	60.07
386.041	96.94
386.251	62.12
386.461	66.22
386.671	31.4
386.881	82.6
387.091	6.83
387.301	53.93
387.511	47.79
387.72	55.98
387.93	103.08
388.14	78.51
388.35	27.31
388.56	156.33
388.769	74.41
388.979	21.16
389.189	47.79
389.399	115.37
389.609	74.41
389.818	101.03
390.028	74.41
390.238	117.42
390.447	86.7
390.657	58.03
390.867	25.26
391.076	62.12
391.286	88.75
391.496	41.64
391.705	0.68
391.915	74.41
392.125	49.83
392.334	55.98
392.544	-3.41
392.753	74.41
392.963	19.11
393.172	84.65
393.382	-7.51
393.591	144.04
393.801	131.75
394.01	166.57
394.22	123.56
394.429	60.07
394.639	23.21
394.848	107.18
395.058	35.5
395.267	43.69
395.477	25.26
395.686	58.03
395.895	98.99
396.105	156.33
396.314	146.09
396.524	131.75
396.733	94.89
396.942	101.03
397.152	96.94
397.361	170.66
397.57	55.98
397.78	25.26
397.989	47.79
398.198	107.18
398.407	47.79
398.617	164.52
398.826	119.46
399.035	45.74
399.244	82.6
399.453	72.36
399.663	107.18
399.872	125.61
400.081	49.83
400.29	88.75
400.499	90.79
400.708	133.8
400.917	154.28
401.127	109.23
401.336	82.6
401.545	135.85
401.754	101.03
401.963	150.18
402.172	74.41
402.381	168.62
402.59	103.08
402.799	185
403.008	172.71
403.217	105.13
403.426	178.86
403.635	148.14
403.844	160.42
404.053	37.55
404.262	82.6
404.471	176.81
404.68	105.13
404.888	148.14
405.097	-9.56
405.306	94.89
405.515	164.52
405.724	98.99
405.933	215.72
406.142	225.96
406.35	199.34
406.559	176.81
406.768	156.33
406.977	217.77
407.185	178.86
407.394	119.46
407.603	189.1
407.812	193.19
408.02	293.54
408.229	180.9
408.438	289.45
408.646	146.09
408.855	213.67
409.064	201.38
409.272	252.58
409.481	328.36
409.69	250.53
409.898	273.06
410.107	252.58
410.315	322.21
410.524	275.11
410.733	354.98
410.941	375.46
411.15	463.52
411.358	436.9
411.567	352.93
411.775	465.57
411.984	418.47
412.192	461.48
412.401	449.19
412.609	422.56
412.818	531.11
413.026	467.62
413.234	535.2
413.443	469.67
413.651	516.77
413.86	520.87
414.068	592.55
414.276	610.98
414.485	615.07
414.693	645.79
414.901	783.01
415.11	752.29
415.318	643.74
415.526	780.96
415.734	785.05
415.943	869.02
416.151	836.25
416.359	844.45
416.567	801.44
416.776	879.26
416.984	971.42
417.192	1039
417.4	993.95
417.608	930.46
417.817	1092.25
418.025	1094.3
418.233	1290.9
418.441	1188.5
418.649	1188.5
418.857	1264.28
419.065	1268.38
419.273	1284.76
419.481	1344.15
419.689	1436.31
419.897	1565.33
420.105	1510.04
420.313	1551
420.521	1624.72
420.729	1702.54
420.937	1788.56
421.145	1737.36
421.353	1847.95
421.561	1917.58
421.769	1976.97
421.977	2069.13
422.185	2079.37
422.393	2151.05
422.601	2228.87
422.809	2316.94
423.017	2255.5
423.224	2368.13
423.432	2384.52
423.64	2493.06
423.848	2642.56
424.056	2620.03
424.263	2785.92
424.471	2851.46
424.679	2933.37
424.887	2962.05
425.094	3132.03
425.302	3250.81
425.51	3269.24
425.718	3424.89
425.925	3347.06
426.133	3490.42
426.341	3576.44
426.548	3910.26
426.756	3795.57
426.964	4002.41
427.171	4203.11
427.379	4209.26
427.586	4407.91
427.794	4530.79
428.001	4567.65
428.209	4762.21
428.417	4688.48
428.624	5057.12
428.832	5022.3
429.039	5034.59
429.247	5093.98
429.454	5661.27
429.662	5919.31
429.869	5689.94
430.076	5790.29
430.284	5851.73
430.491	5993.04
430.699	6521.42
430.906	6371.91
431.114	6492.74
431.321	6734.4
431.528	6763.08
431.736	7219.77
431.943	7592.5
432.15	7123.52
432.358	7506.49
432.565	7936.56
432.772	7852.59
432.979	8280.62
433.187	8368.68
433.394	8495.66
433.601	8841.76
433.808	8983.07
434.016	8763.94
434.223	9329.18
434.43	10140.18
434.637	9996.82
434.844	10207.76
435.052	10570.25
435.259	10439.18
435.466	10500.62
435.673	10498.57
435.88	11096.58
436.087	11610.62
436.294	11811.32
436.501	11440.64
436.708	11680.25
436.915	12048.88
437.122	12810.73
437.329	12364.27
437.537	12913.13
437.743	12886.5
437.95	12990.95
438.157	13629.91
438.364	14098.9
438.571	13937.11
438.778	14256.59
438.985	15677.88
439.192	14895.56
439.399	15606.2
439.606	15190.47
439.813	15950.26
440.02	16687.53
440.227	16425.39
440.433	16265.65
440.64	17019.3
440.847	16943.53
441.054	17226.15
441.261	18479.5
441.467	18362.77
441.674	18366.87
441.881	18999.69
442.088	19003.78
442.294	19126.66
442.501	19431.81
442.708	19595.65
442.914	20369.78
443.121	21475.68
443.328	20930.92
443.534	22360.41
443.741	21582.18
443.948	21610.85
444.154	23423.3
444.361	22823.25
444.568	23044.43
444.774	22931.79
444.981	23128.39
445.187	23796.03
445.394	24867.12
445.6	24615.22
445.807	26798.35
446.013	25622.82
446.22	26075.42
446.426	27042.06
446.633	26992.91
446.839	28176.64
447.046	26972.43
447.252	28563.7
447.459	28684.53
447.665	28504.31
447.871	29681.89
448.078	30650.58
448.284	29323.5
448.491	30120.16
448.697	31275.21
448.903	31385.8
449.11	31516.87
449.316	31518.92
449.522	31772.87
449.728	32626.87
449.935	33306.8
450.141	32932.02
450.347	33542.31
450.553	32680.12
450.76	32850.1
450.966	34267.3
451.172	33570.99
451.378	34187.42
451.584	33702.06
451.791	34361.5
451.997	34128.03
452.203	34881.69
452.409	34906.26
452.615	34863.25
452.821	33550.51
453.027	32837.81
453.233	34582.68
453.44	33274.03
453.646	33802.41
453.852	33976.48
454.058	34128.03
454.264	32960.69
454.47	33859.75
454.676	32737.46
454.882	34367.65
455.088	30920.91
455.294	31256.78
455.5	31729.86
455.705	32141.5
455.911	30699.73
456.117	30038.24
456.323	30118.11
456.529	28526.84
456.735	29604.07
456.941	28555.51
457.147	28274.94
457.352	27164.94
457.558	27101.45
457.764	26904.85
457.97	26638.61
458.176	26083.61
458.381	26018.08
458.587	24267.06
458.793	24664.37
458.999	23290.18
459.204	25223.47
459.41	24424.76
459.616	22987.08
459.821	22817.1
460.027	22647.12
460.233	22212.95
460.438	21305.7
460.644	21404
460.85	20478.32
461.055	19976.57
461.261	20115.83
461.466	18575.76
461.672	17764.76
461.878	19333.51
462.083	17910.17
462.289	17723.8
462.494	17529.25
462.7	16892.33
462.905	16325.04
463.111	16914.86
463.316	17041.83
463.522	16796.07
463.727	16589.23
463.932	16658.86
464.138	16576.94
464.343	16523.69
464.549	16062.9
464.754	16476.59
464.959	16558.51
465.165	16243.12
465.37	15602.11
465.575	15182.28
465.781	15950.26
465.986	16034.23
466.191	15442.37
466.397	15010.25
466.602	14100.95
466.807	14817.74
467.012	15038.92
467.218	14782.92
467.423	14641.61
467.628	14557.64
467.833	15026.63
468.038	14903.75
468.244	14338.51
468.449	15065.54
468.654	14264.78
468.859	14422.48
469.064	14031.32
469.269	13650.39
469.474	13566.43
469.679	14002.65
469.885	13588.96
470.09	13926.87
470.295	13832.66
470.5	13369.82
470.705	13312.48
470.91	13189.6
471.115	13068.77
471.32	13285.86
471.525	13111.78
471.73	12919.27
471.935	12726.76
472.139	12417.52
472.344	12544.49
472.549	12292.59
472.754	12126.71
472.959	12024.31
473.164	11639.29
473.369	11463.16
473.574	12182
473.778	11780.6
473.983	11772.41
474.188	11758.07
474.393	11160.06
474.598	11358.72
474.802	11319.81
475.007	10848.77
475.212	11129.34
475.417	10660.36
475.621	10574.35
475.826	10779.14
476.031	10252.81
476.235	10373.64
476.44	10498.57
476.645	10209.81
476.849	10101.26
477.054	10138.13
477.259	9916.95
477.463	9959.95
477.668	9605.66
477.872	9779.73
478.077	9730.58
478.282	9478.68
478.486	9325.08
478.691	9339.42
478.895	9304.6
479.1	9431.58
479.304	9407
479.509	8948.26
479.713	9245.21
479.918	9007.65
480.122	9011.75
480.326	9085.47
480.531	9239.07
480.735	8862.24
480.94	8780.32
481.144	8989.22
481.348	8538.66
481.553	8755.75
481.757	8765.99
481.961	8671.78
482.166	8782.37
482.37	8874.53
482.574	8528.42
482.778	8532.52
482.983	8821.28
483.187	8565.29
483.391	8616.49
483.595	8479.27
483.8	8591.91
484.004	8665.64
484.208	8671.78
484.412	8528.42
484.616	8507.94
484.821	8536.62
485.025	8536.62
485.229	8684.07
485.433	8573.48
485.637	8387.11
485.841	8606.25
486.045	8520.23
486.249	8774.18
486.453	8456.75
486.657	8477.23
486.861	8540.71
487.065	8372.78
487.269	8569.38
487.473	8573.48
487.677	8741.41
487.881	8628.77
488.085	8481.32
488.289	8628.77
488.493	8538.66
488.697	8585.77
488.901	8714.79
489.105	8628.77
489.309	8710.69
489.512	8602.15
489.716	8690.21
489.92	8692.26
490.124	8546.86
490.328	8790.56
490.531	8729.13
490.735	8806.95
490.939	8835.62
491.143	9101.86
491.346	8940.07
491.55	9009.7
491.754	9046.56
491.958	9001.51
492.161	9103.9
492.365	9108
492.569	8888.87
492.772	9122.34
492.976	9267.74
493.18	9200.16
493.383	9212.45
493.587	9298.46
493.79	9435.67
493.994	9460.25
494.197	9470.49
494.401	9388.57
494.605	9388.57
494.808	9640.47
495.012	9665.05
495.215	9804.31
495.419	9820.69
495.622	9798.17
495.825	10029.59
496.029	9849.36
496.232	10187.28
496.436	10297.87
496.639	10467.85
496.843	10480.14
497.046	10615.3
497.249	10834.44
497.453	10633.74
497.656	10893.83
497.859	11057.67
498.063	10957.32
498.266	11416.06
498.469	11088.39
498.673	11141.63
498.876	11321.85
499.079	11753.98
499.282	11424.25
499.485	11942.39
499.689	12032.5
499.892	11960.82
500.095	12151.28
500.298	12329.45
500.501	12261.87
500.705	12677.61
500.908	12726.76
501.111	12866.02
501.314	12990.95
501.517	13099.49
501.72	13150.69
501.923	13205.99
502.126	13515.23
502.329	13795.8
502.532	13740.5
502.735	13953.49
502.938	14260.69
503.141	14311.89
503.344	14545.36
503.547	14690.76
503.75	14811.59
503.953	15208.9
504.156	15313.35
504.359	15358.4
504.562	15294.91
504.765	15692.22
504.968	16038.33
505.17	16058.81
505.373	16171.44
505.576	16454.06
505.779	16458.16
505.982	16513.45
506.185	16886.19
506.387	17117.61
506.59	17326.5
506.793	17412.51
506.996	17359.27
507.198	17918.36
507.401	17854.87
507.604	17998.23
507.807	18518.42
508.009	18592.14
508.212	18651.53
508.415	18608.53
508.617	19216.77
508.82	19130.76
509.022	19276.16
509.225	19622.27
509.428	19712.38
509.63	19964.28
509.833	19951.99
510.035	20509.04
510.238	20425.08
510.44	20660.59
510.643	21119.34
510.845	21193.06
511.048	21102.95
511.25	21645.66
511.453	21639.52
511.655	22425.94
511.858	22196.57
512.06	22473.04
512.262	22745.42
512.465	22905.17
512.667	22757.71
512.87	23109.96
513.072	23175.5
513.274	23529.8
513.477	23857.47
513.679	24248.63
513.881	24082.75
514.084	24420.66
514.286	24840.5
514.488	24863.02
514.69	25659.68
514.893	25381.16
515.095	25864.48
515.297	26059.04
515.499	26304.79
515.701	26470.68
515.904	26611.99
516.106	27199.76
516.308	27083.02
516.51	27562.25
516.712	27359.5
516.914	27924.74
517.116	28408.06
517.318	28510.46
517.52	28674.29
517.722	28680.44
517.925	29276.4
518.127	29268.2
518.329	29391.08
518.531	29530.34
518.733	30107.87
518.935	30193.89
519.136	30247.13
519.338	30750.93
519.54	31195.34
519.742	31105.23
519.944	31598.79
520.146	31973.57
520.348	31975.62
520.55	32219.33
520.752	32508.09
520.954	32860.34
521.155	32948.4
521.357	33466.54
521.559	33503.4
521.761	34238.62
521.963	34175.14
522.164	34173.09
522.366	34543.77
522.568	34812.06
522.77	34633.88
522.971	35311.76
523.173	35205.27
523.375	35700.87
523.576	35674.25
523.778	35602.57
523.98	36262.02
524.181	36171.91
524.383	36526.21
524.584	37032.05
524.786	36745.34
524.988	36954.23
525.189	37224.56
525.391	37810.28
525.592	37718.12
525.794	37582.96
525.995	38111.33
526.197	37998.69
526.398	38000.74
526.6	38547.55
526.801	38707.29
527.003	38695
527.204	39098.45
527.406	39553.1
527.607	39209.04
527.808	39364.69
528.01	38721.63
528.211	39247.96
528.412	40091.72
528.614	39612.49
528.815	39891.02
529.016	40304.71
529.218	39626.83
529.419	40257.6
529.62	40355.91
529.822	40450.11
530.023	40208.45
530.224	40648.77
530.425	40458.31
530.626	40683.58
530.828	40417.35
531.029	41490.48
531.23	41019.45
531.431	40628.29
531.632	40704.06
531.833	41003.06
532.035	40945.72
532.236	41326.64
532.437	41689.13
532.638	41363.51
532.839	41472.05
533.04	41312.31
533.241	40904.76
533.442	41855.02
533.643	41574.45
533.844	41336.88
534.045	41668.65
534.246	40775.74
534.447	41691.18
534.648	41248.82
534.849	41678.89
535.05	41097.27
535.251	41721.9
535.451	41861.16
535.652	42022.95
535.853	41515.06
536.054	41945.13
536.255	41793.58
536.456	41535.54
536.657	42211.37
536.857	41359.41
537.058	41551.92
537.259	41973.8
537.46	42070.06
537.66	41805.87
537.861	42207.27
538.062	41633.84
538.263	41771.05
538.463	41674.8
538.664	41728.05
538.865	41859.12
539.065	41822.25
539.266	41603.12
539.466	42264.61
539.667	41302.07
539.868	42350.63
540.068	41674.8
540.269	41623.6
540.469	41801.77
540.67	41691.18
540.87	41625.65
541.071	42119.21
541.271	41826.35
541.472	41639.98
541.672	41463.86
541.873	41545.78
542.073	41166.9
542.274	41830.44
542.474	41826.35
542.675	41537.58
542.875	42010.67
543.075	41879.6
543.276	41113.66
543.476	41791.53
543.676	41723.95
543.877	41812.01
544.077	41412.66
544.277	41799.72
544.478	41195.57
544.678	41781.29
544.878	41682.99
545.078	41568.3
545.279	41482.29
545.479	41179.19
545.679	41490.48
545.879	41418.8
546.079	41429.04
546.28	41533.49
546.48	41322.55
546.68	41506.87
546.88	41664.56
547.08	41390.13
547.28	41162.81
547.48	41275.44
547.68	41617.46
547.88	40992.83
548.081	41517.11
548.281	41453.62
548.481	41003.06
548.681	41392.18
548.881	41650.22
549.081	41441.33
549.28	41054.26
549.48	41519.15
549.68	41314.36
549.88	41920.56
550.08	41015.35
550.28	41201.72
550.48	41228.34
550.68	41263.16
550.88	40869.95
551.08	40878.14
551.279	41461.81
551.479	40757.31
551.679	41015.35
551.879	41035.83
552.079	41048.12
552.278	40730.69
552.478	41207.86
552.678	41027.64
552.878	41562.16
553.077	41211.96
553.277	40831.04
553.477	41537.58
553.676	40652.86
553.876	40736.83
554.076	40720.45
554.275	40751.16
554.475	40390.72
554.674	40968.25
554.874	41009.21
555.074	40443.97
555.273	40951.87
555.473	40714.3
555.672	40581.18
555.872	40521.79
556.071	40439.87
556.271	40906.81
556.47	40149.06
556.67	40458.31
556.869	40130.63
557.068	40157.25
557.268	39733.32
557.467	39798.86
557.667	39626.83
557.866	40026.18
558.065	40058.95
558.265	40142.92
558.464	39929.93
558.663	40818.75
558.863	39499.86
559.062	40202.31
559.261	39426.13
559.461	40167.49
559.66	39221.33
559.859	39522.38
560.058	39118.93
560.258	39540.82
560.457	38895.71
560.656	39579.73
560.855	39163.99
561.054	39012.44
561.253	38965.34
561.453	38639.71
561.652	38899.8
561.851	39145.56
562.05	39086.17
562.249	38674.52
562.448	38877.27
562.647	38492.26
562.846	38615.13
563.045	38551.65
563.244	38097
563.443	38781.02
563.642	38019.17
563.841	38006.89
564.04	38035.56
564.239	38463.58
564.438	38154.34
564.637	37963.88
564.836	37982.31
565.035	37554.29
565.234	37804.14
565.432	37494.89
565.631	37701.74
565.83	37849.19
566.029	37181.56
566.228	36774.01
566.427	37103.73
566.625	37027.96
566.824	36464.77
567.023	37267.57
567.222	36599.93
567.42	37032.05
567.619	36593.79
567.818	36604.03
568.016	36380.8
568.215	36382.85
568.414	36505.73
568.612	36601.98
568.811	36219.01
569.01	36235.39
569.208	35803.27
569.407	36018.31
569.605	35645.58
569.804	36026.5
570.002	35618.96
570.201	35985.54
570.4	35670.15
570.598	35569.8
570.797	34928.79
570.995	35481.74
571.193	35090.58
571.392	35201.17
571.59	34844.82
571.789	34867.35
571.987	34918.55
572.186	35033.24
572.384	34455.71
572.582	34277.54
572.781	34676.89
572.979	34334.88
573.177	34267.3
573.376	34232.48
573.574	34089.12
573.772	34078.88
573.971	33851.56
574.169	33685.67
574.367	33663.14
574.565	33863.85
574.763	33351.85
574.962	33147.06
575.16	32848.05
575.358	33054.9
575.556	32929.97
575.754	33548.46
575.952	32774.33
576.151	33231.02
576.349	32782.52
576.547	32645.3
576.745	32731.32
576.943	32467.13
577.141	32579.77
577.339	32565.43
577.537	32118.98
577.735	32524.47
577.933	31834.31
578.131	32280.77
578.329	32020.67
578.527	31660.23
578.725	31670.47
578.923	32198.85
579.121	31817.93
579.319	31449.29
579.516	31420.62
579.714	31725.77
579.912	31545.55
580.11	31367.37
580.308	31152.34
580.506	31123.66
580.704	30447.83
580.901	31113.42
581.099	31293.65
581.297	30748.89
581.495	30619.86
581.692	30648.53
581.89	30437.59
582.088	30687.45
582.285	30257.37
582.483	30519.51
582.681	30120.16
582.878	29982.95
583.076	29997.28
583.274	30060.77
583.471	29593.83
583.669	30122.21
583.866	29436.14
584.064	29759.72
584.262	29305.07
584.459	29626.6
584.657	29257.96
584.854	29782.24
585.052	28782.84
585.249	29024.5
585.447	29171.95
585.644	28866.8
585.841	28831.99
586.039	29223.15
586.236	28289.27
586.434	28647.67
586.631	28569.85
586.828	28659.96
587.026	28389.63
587.223	28305.66
587.42	28129.53
587.618	28178.68
587.815	27957.5
588.012	28190.97
588.21	27863.3
588.407	27922.69
588.604	27693.32
588.801	27547.91
588.999	27754.76
589.196	27314.44
589.393	27541.77
589.59	27463.94
589.787	27322.63
589.984	27259.15
590.182	27224.33
590.379	27287.82
590.576	26751.25
590.773	27068.69
590.97	26353.94
591.167	26919.18
591.364	26700.05
591.561	27033.87
591.758	26476.82
591.955	26161.44
592.152	26394.9
592.349	26310.94
592.546	26321.18
592.743	26249.5
592.94	25676.07
593.137	26210.59
593.334	26403.1
593.531	25418.02
593.727	25719.07
593.924	25655.59
594.121	25430.31
594.318	25545
594.515	25370.92
594.712	25778.47
594.908	25116.97
595.105	25448.74
595.302	25235.75
595.499	25135.4
595.696	25153.83
595.892	24996.14
596.089	25096.49
596.286	24969.52
596.482	24615.22
596.679	24568.12
596.876	24795.44
597.072	24351.03
597.269	24727.86
597.466	24279.35
597.662	24135.99
597.859	24125.75
598.055	24148.28
598.252	23959.87
598.448	23923.01
598.645	23988.54
598.841	23787.84
599.038	23943.49
599.234	23652.67
599.431	23619.91
599.627	23558.47
599.824	23667.01
600.02	23191.88
600.217	23710.02
600.413	23468.36
600.609	22978.89
600.806	22866.25
601.002	23185.74
601.198	22946.12
601.395	22716.75
601.591	22800.72
601.787	22927.69
601.984	22559.06
602.18	22896.97
602.376	22473.04
602.572	22546.77
602.769	22546.77
602.965	22262.1
603.161	22483.28
603.357	22364.5
603.553	22421.84
603.75	22446.42
603.946	21979.48
604.142	22049.11
604.338	21780.83
604.534	21934.43
604.73	21686.62
604.926	21645.66
605.122	21739.87
605.318	21576.03
605.514	21410.15
605.71	21401.96
605.906	21221.73
606.102	21315.94
606.298	21309.8
606.494	21234.02
606.69	21264.74
606.886	21350.76
607.082	20832.62
607.278	21217.64
607.474	20808.05
607.67	21223.78
607.866	20693.36
608.062	21326.18
608.257	20806
608.453	20916.59
608.649	20736.37
608.845	20451.7
609.041	20658.54
609.236	20611.44
609.432	20629.87
609.628	20457.84
609.824	20416.88
610.019	20195.7
610.215	20492.66
610.411	20318.58
610.606	20463.99
610.802	20459.89
610.998	20427.12
611.193	20283.77
611.389	19835.26
611.584	19976.57
611.78	19898.75
611.976	20038.01
612.171	20138.36
612.367	19773.82
612.562	19863.93
612.758	19581.31
612.953	19761.53
613.149	20058.49
613.344	19708.29
613.539	20031.86
613.735	19597.7
613.93	19605.89
614.126	19278.21
614.321	19677.57
614.517	19462.53
614.712	19270.02
614.907	19351.94
615.103	19075.46
615.298	19169.67
615.493	19095.94
615.688	18866.57
615.884	19304.84
616.079	18985.35
616.274	19515.78
616.47	19128.71
616.665	19179.91
616.86	18839.95
617.055	19007.88
617.25	18764.17
617.445	19153.29
617.641	18432.4
617.836	18885
618.031	18567.57
618.226	18602.38
618.421	18557.33
618.616	18665.87
618.811	18287
619.006	18344.34
619.201	18364.82
619.396	18295.19
619.591	18016.66
619.786	18256.28
619.981	18084.25
620.176	18176.41
620.371	17910.17
620.566	17777.05
620.761	17664.41
620.956	17811.87
621.151	17521.06
621.346	17562.01
621.541	17357.22
621.735	17220
621.93	17199.52
622.125	17301.92
622.32	16908.71
622.515	16918.95
622.709	16816.55
622.904	16863.66
623.099	16794.03
623.294	16806.31
623.488	16597.42
623.683	16595.37
623.878	16333.23
624.072	16097.72
624.267	16306.61
624.462	16228.79
624.656	15987.13
624.851	16017.85
625.046	15894.97
625.24	15897.02
625.435	15870.39
625.629	15804.86
625.824	15747.51
626.018	15825.34
626.213	15249.86
626.407	15481.28
626.602	15217.09
626.796	15284.67
626.991	15290.82
627.185	15225.28
627.38	15057.35
627.574	15073.73
627.768	14533.07
627.963	14674.38
628.157	14449.1
628.352	14668.23
628.546	14438.86
628.74	14500.3
628.935	14277.07
629.129	14340.56
629.323	14387.66
629.517	14014.93
629.712	14031.32
629.906	13912.53
630.1	13740.5
630.294	13832.66
630.489	13914.58
630.683	13662.68
630.877	13554.14
631.071	13504.99
631.265	13337.06
631.459	13052.39
631.653	13498.84
631.848	13355.49
632.042	13294.05
632.236	12958.18
632.43	12874.21
632.624	13173.22
632.818	12943.85
633.012	12782.06
633.206	12739.05
633.4	12782.06
633.594	12556.78
633.788	12528.11
633.982	12634.6
634.176	12351.98
634.369	12374.51
634.563	12599.79
634.757	12196.34
634.951	12220.91
635.145	12071.41
635.339	12012.02
635.533	12128.75
635.726	12114.42
635.92	11708.92
636.114	11893.24
636.308	11745.78
636.501	11706.87
636.695	11606.52
636.889	11463.16
637.083	11416.06
637.276	11563.51
637.47	11239.94
637.664	11348.48
637.857	11366.91
638.051	11086.34
638.244	11024.9
638.438	11383.29
638.632	11014.66
638.825	10955.27
639.019	10885.64
639.212	10758.66
639.406	10899.97
639.599	10721.8
639.793	10703.37
639.986	10740.23
640.18	10533.39
640.373	10494.47
640.567	10381.84
640.76	10365.45
640.954	10537.48
641.147	10261.01
641.34	10258.96
641.534	10131.98
641.727	10091.02
641.92	10011.15
642.114	9994.77
642.307	10045.97
642.5	9990.67
642.694	9728.53
642.887	9802.26
643.08	9771.54
643.273	9646.62
643.467	9740.82
643.66	9488.92
643.853	9564.7
644.046	9345.56
644.239	9312.8
644.432	9232.93
644.626	9447.96
644.819	9462.3
645.012	9167.39
645.205	9380.38
645.398	9153.06
645.591	9108
645.784	9060.9
645.977	8827.43
646.17	8948.26
646.363	8983.07
646.556	8921.63
646.749	8802.85
646.942	8976.93
647.135	8589.86
647.328	8819.24
647.521	8479.27
647.714	8583.72
647.907	8477.23
648.099	8620.58
648.292	8645.16
648.485	8550.95
648.678	8221.23
648.871	8223.28
649.064	8249.9
649.256	8135.21
649.449	8163.89
649.642	8202.8
649.835	8053.3
650.027	7938.61
650.22	8036.91
650.413	8043.06
650.605	7846.45
650.798	7791.16
650.991	7731.76
651.183	7813.68
651.376	7883.31
651.568	7772.72
651.761	7707.19
651.954	7635.51
652.146	7619.13
652.339	7610.93
652.531	7537.21
652.724	7520.82
652.916	7453.24
653.109	7535.16
653.301	7270.97
653.494	7328.31
653.686	7148.09
653.879	7340.6
654.071	7230.01
654.263	7066.17
654.456	7242.3
654.648	7273.02
654.84	6937.15
655.033	7033.41
655.225	7121.47
655.417	6857.28
655.61	6926.91
655.802	7006.78
655.994	6761.03
656.186	6810.18
656.379	6894.15
656.571	6908.48
656.763	6711.88
656.955	6644.29
657.148	6705.73
657.34	6732.36
657.532	6453.83
657.724	6488.65
657.916	6408.78
658.108	6496.84
658.3	6322.76
658.492	6406.73
658.684	6169.16
658.876	6324.81
659.068	6298.19
659.26	6328.91
659.452	6273.61
659.644	6337.1
659.836	6134.35
660.028	6201.93
660.22	6210.12
660.412	5888.59
660.604	6036.05
660.796	5943.89
660.988	6042.19
661.18	5894.74
661.372	5890.64
661.563	5921.36
661.755	5954.13
661.947	5689.94
662.139	5814.87
662.331	5800.53
662.522	5810.77
662.714	5696.08
662.906	5587.54
663.097	5665.36
663.289	5542.49
663.481	5411.42
663.673	5577.3
663.864	5675.6
664.056	5634.64
664.247	5579.35
664.439	5317.21
664.631	5458.52
664.822	5507.67
665.014	5364.31
665.205	5560.92
665.397	5362.26
665.588	5309.02
665.78	5186.14
665.971	5216.86
666.163	5386.84
666.354	5210.72
666.546	5249.63
666.737	5202.52
666.929	5245.53
667.12	5255.77
667.311	5116.51
667.503	5171.8
667.694	5118.56
667.885	5122.65
668.077	4958.81
668.268	4942.43
668.459	4938.34
668.651	4930.14
668.842	5106.27
669.033	4846.18
669.224	4936.29
669.416	4885.09
669.607	4860.51
669.798	4772.45
669.989	4883.04
670.18	4835.94
670.371	4835.94
670.563	4670.05
670.754	4747.87
670.945	4676.2
671.136	4797.03
671.327	4713.06
671.518	4711.01
671.709	4606.56
671.9	4702.82
672.091	4821.6
672.282	4651.62
672.473	4463.21
672.664	4657.76
672.855	4655.72
673.046	4725.35
673.237	4629.09
673.428	4530.79
673.619	4598.37
673.809	4469.35
674	4399.72
674.191	4440.68
674.382	4424.3
674.573	4391.53
674.764	4401.77
674.954	4430.44
675.145	4440.68
675.336	4225.64
675.527	4305.51
675.717	4434.53
675.908	4287.08
676.099	4207.21
676.289	4334.18
676.48	4362.86
676.671	4369
676.861	4332.14
677.052	4227.69
677.243	4170.35
677.433	4264.55
677.624	4325.99
677.814	4289.13
678.005	4444.77
678.195	4276.84
678.386	4235.88
678.576	4252.27
678.767	4207.21
678.957	4242.03
679.148	4258.41
679.338	4127.34
679.529	4268.65
679.719	4239.98
679.909	4414.06
680.1	4092.52
680.29	4242.03
680.481	4231.79
680.671	4104.81
680.861	4121.2
681.052	4127.34
681.242	4231.79
681.432	4137.58
681.622	4080.24
681.813	4031.09
682.003	4258.41
682.193	4053.61
682.383	4270.7
682.573	4207.21
682.764	4080.24
682.954	4063.85
683.144	4149.87
683.334	4039.28
683.524	4113
683.714	4121.2
683.904	4020.85
684.094	4100.72
684.284	4059.76
684.474	3963.5
684.664	4022.89
684.854	4080.24
685.044	4098.67
685.234	3836.53
685.424	4086.38
685.614	3908.21
685.804	3861.1
685.994	3873.39
686.184	4004.46
686.374	3902.06
686.564	3924.59
686.753	3902.06
686.943	3881.58
687.133	3863.15
687.323	3830.38
687.513	3977.84
687.702	3879.54
687.892	3742.32
688.082	3854.96
688.272	3746.42
688.461	3596.92
688.651	3869.3
688.841	3717.75
689.03	3814
689.22	3773.04
689.41	3691.12
689.599	3879.54
689.789	3527.28
689.979	3654.26
690.168	3625.59
690.358	3512.95
690.547	3560.05
690.737	3631.73
690.926	3459.7
691.116	3531.38
691.305	3678.83
691.495	3519.09
691.684	3517.05
691.874	3486.33
692.063	3568.24
692.252	3474.04
692.442	3424.89
692.631	3324.54
692.82	3453.56
693.01	3308.15
693.199	3437.17
693.388	3302.01
693.578	3398.26
693.767	3539.57
693.956	3373.69
694.146	3275.38
694.335	3287.67
694.524	3281.53
694.713	3369.59
694.902	3222.14
695.092	3349.11
695.281	3476.09
695.47	3256.95
695.659	3201.66
695.848	3142.27
696.037	3205.75
696.226	3248.76
696.415	3226.23
696.604	3199.61
696.793	3363.45
696.982	3168.89
697.171	3195.51
697.36	3185.27
697.549	3152.51
697.738	3132.03
697.927	3132.03
698.116	3144.31
698.305	3215.99
698.494	3215.99
698.683	3244.67
698.872	3252.86
699.061	3252.86
699.25	3152.51
699.438	3207.8
699.627	3144.31
699.816	3160.7
700.005	3136.12
700.193	2937.47
700.382	3129.98
700.571	3203.71
700.76	3109.5
700.948	3107.45
701.137	3093.12
701.326	3025.53
701.514	3025.53
701.703	3162.75
701.892	3056.25
702.08	3084.92
702.269	3003
702.457	3019.39
702.646	3003
702.834	2951.81
703.023	2994.81
703.212	3203.71
703.4	3086.97
703.589	3080.83
703.777	3086.97
703.965	3099.26
704.154	2960
704.342	3043.96
704.531	3070.59
704.719	3037.82
704.907	3070.59
705.096	2982.53
705.284	3046.01
705.472	2966.14
705.661	3015.29
705.849	3003
706.037	3039.87
706.226	2937.47
706.414	2960
706.602	3013.24
706.79	2970.24
706.979	3021.44
707.167	2935.42
707.355	2916.99
707.543	2988.67
707.731	2943.61
707.919	2951.81
708.107	2871.93
708.296	2966.14
708.484	2968.19
708.672	2992.76
708.86	3048.06
709.048	3033.72
709.236	3078.78
709.424	3043.96
709.612	2962.05
709.8	2951.81
709.988	2892.41
710.176	2982.53
710.364	2970.24
710.551	2923.13
710.739	3003
710.927	2910.85
711.115	3009.15
711.303	2992.76
711.491	2996.86
711.679	2986.62
711.866	2968.19
712.054	2972.29
712.242	3025.53
712.43	3019.39
712.617	2923.13
712.805	2974.33
712.993	2902.65
713.181	2871.93
713.368	2886.27
713.556	3070.59
713.744	2808.45
713.931	3129.98
714.119	2937.47
714.306	3052.16
714.494	2783.87
714.682	2988.67
714.869	2923.13
715.057	3070.59
715.244	2904.7
715.432	3062.4
715.619	3027.58
715.807	2947.71
715.994	2820.74
716.182	3068.54
716.369	3037.82
716.556	2900.61
716.744	2964.09
716.931	2953.85
717.119	2927.23
717.306	2953.85
717.493	3000.96
717.681	2962.05
717.868	2876.03
718.055	3027.58
718.242	2984.57
718.43	2962.05
718.617	3064.44
718.804	2941.57
718.991	2972.29
719.179	2896.51
719.366	2931.33
719.553	2933.37
719.74	2980.48
719.927	2933.37
720.114	2949.76
720.301	3025.53
720.488	2763.39
720.676	2941.57
720.863	2955.9
721.05	2886.27
721.237	2820.74
721.424	2898.56
721.611	2906.75
721.798	2767.49
721.985	2826.88
722.172	2998.91
722.358	2738.82
722.545	2929.28
722.732	2931.33
722.919	2857.6
723.106	2833.02
723.293	2966.14
723.48	2888.32
723.667	2847.36
723.853	2855.55
724.04	2927.23
724.227	2953.85
724.414	2925.18
724.6	2769.54
724.787	2820.74
724.974	2857.6
725.161	2794.11
725.347	2886.27
725.534	2849.41
725.72	2908.8
725.907	2890.37
726.094	2855.55
726.28	2804.35
726.467	2810.5
726.653	2826.88
726.84	2914.94
727.027	2884.22
727.213	2830.98
727.4	2828.93
727.586	2820.74
727.773	2865.79
727.959	2894.46
728.145	2925.18
728.332	2691.71
728.518	2802.3
728.705	2755.2
728.891	2849.41
729.077	2720.39
729.264	2814.59
729.45	2777.73
729.636	2769.54
729.823	2704
730.009	2812.54
730.195	2732.67
730.382	2742.91
730.568	2806.4
730.754	2728.58
730.94	2783.87
731.126	2804.35
731.313	2716.29
731.499	2808.45
731.685	2716.29
731.871	2742.91
732.057	2695.81
732.243	2744.96
732.429	2732.67
732.615	2738.82
732.801	2787.97
732.987	2683.52
733.173	2796.16
733.359	2687.62
733.545	2634.37
733.731	2753.15
733.917	2708.1
734.103	2646.66
734.289	2734.72
734.475	2597.51
734.661	2763.39
734.847	2804.35
735.033	2777.73
735.219	2677.38
735.404	2613.89
735.59	2677.38
735.776	2695.81
735.962	2642.56
736.148	2718.34
736.333	2728.58
736.519	2691.71
736.705	2564.74
736.89	2626.18
737.076	2577.03
737.262	2503.3
737.447	2478.72
737.633	2540.16
737.819	2681.47
738.004	2638.47
738.19	2607.75
738.375	2679.43
738.561	2622.08
738.747	2579.08
738.932	2556.55
739.118	2646.66
739.303	2531.97
739.489	2538.12
739.674	2536.07
739.859	2505.35
740.045	2519.68
740.23	2568.84
740.416	2386.57
740.601	2599.56
740.786	2466.44
740.972	2540.16
741.157	2499.2
741.342	2394.76
741.528	2488.96
741.713	2542.21
741.898	2544.26
742.084	2402.95
742.269	2349.7
742.454	2341.51
742.639	2472.58
742.824	2230.92
743.01	2384.52
743.195	2364.04
743.38	2341.51
743.565	2329.22
743.75	2302.6
743.935	2376.33
744.12	2292.36
744.305	2278.02
744.49	2368.13
744.675	2345.61
744.86	2269.83
745.045	2253.45
745.23	2198.15
745.415	2298.5
745.6	2347.65
745.785	2196.11
745.97	2198.15
746.155	2249.35
746.34	2173.58
746.525	2171.53
746.71	2187.91
746.895	2179.72
747.079	2120.33
747.264	2089.61
747.449	2073.23
747.634	2142.86
747.819	2058.89
748.003	2028.17
748.188	2077.32
748.373	2005.64
748.557	2116.23
748.742	2040.46
748.927	2038.41
749.111	1921.68
749.296	2013.84
749.481	1970.83
749.665	1841.81
749.85	1837.71
750.034	1993.36
750.219	1888.91
750.404	1938.06
750.588	1923.73
750.773	1913.49
750.957	1782.42
751.141	1825.42
751.326	1774.22
751.51	1847.95
751.695	1817.23
751.879	1843.85
752.064	1823.37
752.248	1819.28
752.432	1806.99
752.617	1770.13
752.801	1688.21
752.985	1649.3
753.17	1733.26
753.354	1620.63
753.538	1686.16
753.722	1675.92
753.907	1645.2
754.091	1507.99
754.275	1565.33
754.459	1718.93
754.643	1630.87
754.828	1612.43
755.012	1577.62
755.196	1639.06
755.38	1604.24
755.564	1407.64
755.748	1540.76
755.932	1559.19
756.116	1512.08
756.3	1516.18
756.484	1417.88
756.668	1503.89
756.852	1471.12
757.036	1407.64
757.22	1473.17
757.404	1338.01
757.588	1381.01
757.772	1526.42
757.956	1360.53
758.14	1331.86
758.323	1309.33
758.507	1368.73
758.691	1278.62
758.875	1346.2
759.059	1323.67
759.242	1290.9
759.426	1243.8
759.61	1358.49
759.794	1260.18
759.977	1233.56
760.161	1442.45
760.345	1335.96
760.528	1254.04
760.712	1274.52
760.895	1340.05
761.079	1288.86
761.263	1129.11
761.446	1186.46
761.63	1251.99
761.813	1180.31
761.997	1229.46
762.18	1116.83
762.364	1145.5
762.547	1231.51
762.731	1213.08
762.914	1143.45
763.098	1100.44
763.281	1069.72
763.464	1147.55
763.648	1172.12
763.831	1100.44
764.015	1151.64
764.198	1245.85
764.381	1090.2
764.564	1149.59
764.748	1217.18
764.931	1170.07
765.114	1155.74
765.297	1178.26
765.481	1102.49
765.664	934.56
765.847	1053.34
766.03	1071.77
766.213	1114.78
766.397	1135.26
766.58	1057.43
766.763	1043.1
766.946	1108.63
767.129	1039
767.312	930.46
767.495	1014.43
767.678	1045.15
767.861	1053.34
768.044	1030.81
768.227	1041.05
768.41	1024.67
768.593	996
768.776	1002.14
768.959	963.23
769.142	993.95
769.324	922.27
769.507	1090.2
769.69	965.28
769.873	991.9
770.056	942.75
770.239	1018.52
770.421	1049.24
770.604	916.12
770.787	883.36
770.97	856.73
771.152	926.36
771.335	950.94
771.518	768.67
771.7	916.12
771.883	963.23
772.066	1004.19
772.248	877.21
772.431	989.85
772.613	899.74
772.796	899.74
772.978	924.32
773.161	920.22
773.343	799.39
773.526	856.73
773.708	774.81
773.891	889.5
774.073	836.25
774.256	809.63
774.438	862.88
774.621	809.63
774.803	813.73
774.985	715.42
775.168	848.54
775.35	678.56
775.532	807.58
775.715	789.15
775.897	733.86
776.079	774.81
776.261	832.16
776.444	789.15
776.626	725.66
776.808	721.57
776.99	723.62
777.173	766.62
777.355	711.33
777.537	647.84
777.719	740
777.901	653.98
778.083	760.48
778.265	662.18
778.447	721.57
778.629	672.42
778.811	735.9
778.993	723.62
779.175	694.94
779.357	649.89
779.539	639.65
779.721	709.28
779.903	598.69
780.085	645.79
780.267	623.27
780.449	623.27
780.631	627.36
780.812	699.04
780.994	602.79
781.176	639.65
781.358	522.91
781.54	588.45
781.721	627.36
781.903	533.15
782.085	613.03
782.267	631.46
782.448	535.2
782.63	553.63
782.812	582.31
782.993	627.36
783.175	604.83
783.357	410.28
783.538	602.79
783.72	471.72
783.901	588.45
784.083	490.15
784.264	522.91
784.446	465.57
784.627	412.32
784.809	461.48
784.99	455.33
785.172	506.53
785.353	443.04
785.535	447.14
785.716	453.28
785.897	504.48
786.079	498.34
786.26	467.62
786.441	475.81
786.623	406.18
786.804	455.33
786.985	502.44
787.167	416.42
787.348	488.1
787.529	381.6
787.71	467.62
787.891	502.44
788.073	500.39
788.254	410.28
788.435	451.24
788.616	449.19
788.797	416.42
788.978	492.2
789.159	385.7
789.34	436.9
789.522	383.65
789.703	410.28
789.884	443.04
790.065	348.84
790.246	490.15
790.427	375.46
790.607	397.99
790.788	402.08
790.969	418.47
791.15	402.08
791.331	424.61
791.512	324.26
791.693	377.51
791.874	303.78
792.054	385.7
792.235	414.37
792.416	400.04
792.597	375.46
792.778	334.5
792.958	369.32
793.139	332.45
793.32	393.89
793.5	338.6
793.681	361.13
793.862	289.45
794.042	291.49
794.223	303.78
794.404	346.79
794.584	340.65
794.765	332.45
794.945	373.41
795.126	363.17
795.306	307.88
795.487	297.64
795.667	307.88
795.848	336.55
796.028	373.41
796.209	230.06
796.389	307.88
796.57	320.17
796.75	281.25
796.93	262.82
797.111	205.48
797.291	275.11
797.471	301.73
797.652	293.54
797.832	279.21
798.012	295.59
798.192	316.07
798.373	230.06
798.553	232.1
798.733	271.01
798.913	293.54
799.093	283.3
799.274	260.77
799.454	223.91
799.634	307.88
799.814	281.25
799.994	250.53
800.174	279.21
800.354	279.21
800.534	189.1
800.714	262.82
800.894	307.88
801.074	248.49
801.254	174.76
801.434	240.3
801.614	201.38
801.794	213.67
801.974	725.66
802.154	246.44
802.334	258.73
802.514	170.66
802.693	176.81
802.873	162.47
803.053	287.4
803.233	248.49
803.413	258.73
803.592	211.62
803.772	162.47
803.952	154.28
804.131	221.86
804.311	266.92
804.491	178.86
804.67	154.28
804.85	262.82
805.03	209.58
805.209	299.69
805.389	211.62
805.568	203.43
805.748	250.53
805.928	189.1
806.107	225.96
806.287	209.58
806.466	176.81
806.646	211.62
806.825	266.92
807.004	238.25
807.184	139.94
807.363	271.01
807.543	164.52
807.722	189.1
807.901	264.87
808.081	252.58
808.26	201.38
808.439	162.47
808.619	213.67
808.798	271.01
808.977	250.53
809.156	215.72
809.336	238.25
809.515	277.16
809.694	209.58
809.873	178.86
810.052	193.19
810.231	174.76
810.411	197.29
810.59	217.77
810.769	144.04
810.948	221.86
811.127	135.85
811.306	172.71
811.485	154.28
811.664	152.23
811.843	197.29
812.022	178.86
812.201	170.66
812.38	176.81
812.559	193.19
812.737	166.57
812.916	137.9
813.095	119.46
813.274	121.51
813.453	193.19
813.632	195.24
813.811	207.53
813.989	162.47
814.168	185
814.347	119.46
814.526	191.14
814.704	135.85
814.883	193.19
815.062	90.79
815.24	178.86
815.419	158.38
815.598	111.27
815.776	117.42
815.955	187.05
816.133	148.14
816.312	55.98
816.49	123.56
816.669	170.66
816.847	113.32
817.026	189.1
817.204	156.33
817.383	158.38
817.561	98.99
817.74	156.33
817.918	232.1
818.097	162.47
818.275	90.79
818.453	197.29
818.632	139.94
818.81	176.81
818.988	154.28
819.167	162.47
819.345	10.92
819.523	55.98
819.701	148.14
819.879	170.66
820.058	111.27
820.236	131.75
820.414	33.45
820.592	115.37
820.77	168.62
820.948	164.52
821.127	103.08
821.305	105.13
821.483	86.7
821.661	119.46
821.839	88.75
822.017	123.56
822.195	111.27
822.373	201.38
822.551	119.46
822.729	51.88
822.907	139.94
823.085	160.42
823.262	156.33
823.44	115.37
823.618	131.75
823.796	131.75
823.974	72.36
824.152	64.17
824.329	86.7
824.507	144.04
824.685	98.99
824.863	127.66
825.04	105.13
825.218	115.37
825.396	62.12
825.574	98.99
825.751	119.46
825.929	82.6
826.107	35.5
826.284	121.51
826.462	160.42
826.639	172.71
826.817	86.7
826.994	64.17
827.172	98.99
827.349	160.42
827.527	115.37
827.704	113.32
827.882	82.6
828.059	90.79
828.237	92.84
828.414	158.38
828.591	37.55
828.769	107.18
828.946	39.59
829.124	53.93
829.301	131.75
829.478	123.56
829.655	103.08
829.833	98.99
830.01	19.11
830.187	119.46
830.364	80.55
830.542	154.28
830.719	148.14
830.896	66.22
831.073	119.46
831.25	82.6
831.427	156.33
831.604	80.55
831.782	66.22
831.959	96.94
832.136	15.02
832.313	113.32
832.49	144.04
832.667	125.61
832.844	141.99
833.021	64.17
833.198	35.5
833.374	55.98
833.551	53.93
833.728	101.03
833.905	123.56
834.082	84.65
834.259	82.6
834.436	98.99
834.612	-13.65
834.789	49.83
834.966	131.75
835.143	105.13
835.319	90.79
835.496	47.79
835.673	41.64
835.85	90.79
836.026	117.42
836.203	115.37
836.38	55.98
836.556	15.02
836.733	21.16
836.909	137.9
837.086	92.84
837.262	41.64
837.439	109.23
837.616	51.88
837.792	98.99
837.968	80.55
838.145	115.37
838.321	10.92
838.498	33.45
838.674	123.56
838.851	49.83
839.027	25.26
839.203	33.45
839.38	43.69
839.556	72.36
839.732	76.46
839.909	0.68
840.085	68.27
840.261	82.6
840.437	-1.37
840.614	49.83
840.79	103.08
840.966	49.83
841.142	53.93
841.318	74.41
841.494	76.46
841.671	90.79
841.847	55.98
842.023	6.83
842.199	68.27
842.375	123.56
842.551	-11.61
842.727	109.23
842.903	74.41
843.079	66.22
843.255	117.42
843.431	-3.41
843.607	72.36
843.783	8.87
843.959	98.99
844.134	17.07
844.31	80.55
844.486	76.46
844.662	-32.08
844.838	39.59
845.013	111.27
845.189	45.74
845.365	86.7
845.541	129.7
845.716	76.46
845.892	96.94
846.068	25.26
846.244	17.07
846.419	29.35
846.595	70.31
846.77	19.11
846.946	74.41
847.122	74.41
847.297	39.59
847.473	111.27
847.648	-3.41
847.824	160.42
847.999	47.79
848.175	64.17
848.35	-9.56
848.526	58.03
848.701	25.26
848.876	70.31
849.052	37.55
849.227	68.27
849.403	23.21
849.578	12.97
849.753	86.7
849.929	72.36
850.104	-40.28
850.279	109.23
850.454	8.87
850.63	103.08
850.805	66.22
850.98	90.79
851.155	41.64
851.33	12.97
851.505	31.4
851.681	101.03
851.856	-3.41
852.031	64.17
852.206	119.46
852.381	19.11
852.556	15.02
852.731	45.74
852.906	94.89
853.081	43.69
853.256	33.45
853.431	66.22
853.606	-9.56
853.781	-7.51
853.956	37.55
854.131	-17.75
854.305	62.12
854.48	2.73
854.655	62.12
854.83	-19.8
855.005	88.75
855.18	8.87
855.354	25.26
855.529	33.45
855.704	8.87
855.879	90.79
856.053	6.83
856.228	84.65
856.403	53.93
856.577	37.55
856.752	80.55
856.926	8.87
857.101	-11.61
857.276	17.07
857.45	-15.7
857.625	33.45
857.799	90.79
857.974	-5.46
858.148	-30.04
858.323	33.45
858.497	-66.9
858.672	19.11
858.846	39.59
859.02	17.07
859.195	58.03
859.369	15.02
859.543	82.6
859.718	-73.04
859.892	35.5
860.066	82.6
860.241	2.73
860.415	37.55
860.589	-32.08
860.763	27.31
860.938	0.68
861.112	15.02
861.286	4.78
861.46	-5.46
861.634	8.87
861.808	80.55
861.982	15.02
862.157	-17.75
862.331	39.59
862.505	-17.75
862.679	4.78
862.853	-36.18
863.027	-15.7
863.201	49.83
863.375	94.89
863.549	53.93
863.722	17.07
863.896	-13.65
864.07	25.26
864.244	53.93
864.418	-19.8
864.592	17.07
864.766	-5.46
864.939	70.31
865.113	-1.37
865.287	0.68
865.461	74.41
865.634	47.79
865.808	31.4
865.982	-38.23
866.156	-46.42
866.329	35.5
866.503	107.18
866.676	-5.46
866.85	31.4
867.024	-1.37
867.197	94.89
867.371	4.78
867.544	29.35
867.718	-7.51
867.891	70.31
868.065	8.87
868.238	-13.65
868.412	12.97
868.585	0.68
868.759	0.68
868.932	-19.8
869.105	-13.65
869.279	-3.41
869.452	55.98
869.625	12.97
869.799	37.55
869.972	4.78
870.145	-27.99
870.319	4.78
870.492	21.16
870.665	-56.66
870.838	23.21
871.011	-34.13
871.185	-30.04
871.358	8.87
871.531	27.31
871.704	-13.65
871.877	60.07
872.05	29.35
872.223	33.45
872.396	55.98
872.569	25.26
872.742	43.69
872.915	47.79
873.088	15.02
873.261	4.78
873.434	0.68
873.607	82.6
873.78	29.35
873.953	27.31
874.126	10.92
874.299	60.07
874.471	-1.37
874.644	4.78
874.817	55.98
874.99	6.83
875.163	-93.52
875.335	31.4
875.508	-23.89
875.681	70.31
875.853	0.68
876.026	53.93
876.199	-15.7
876.371	27.31
876.544	-1.37
876.717	4.78
876.889	-21.84
877.062	8.87
877.234	-3.41
877.407	-93.52
877.579	41.64
877.752	-7.51
877.924	-52.56
878.097	74.41
878.269	-5.46
878.442	51.88
878.614	49.83
878.786	-9.56
878.959	-66.9
879.131	23.21
879.303	-1.37
879.476	6.83
879.648	70.31
879.82	33.45
879.993	25.26
880.165	10.92
880.337	-21.84
880.509	-25.94
880.681	-32.08
880.854	-21.84
881.026	-34.13
881.198	29.35
881.37	-19.8
881.542	-19.8
881.714	-3.41
881.886	6.83
882.058	-32.08
882.23	15.02
882.402	-34.13
882.574	-3.41
882.746	-7.51
882.918	70.31
883.09	41.64
883.262	58.03
883.434	-46.42
883.606	-7.51
883.778	6.83
883.95	2.73
884.122	-17.75
884.293	88.75
884.465	47.79
884.637	-23.89
884.809	8.87
884.98	10.92
885.152	-48.47
885.324	47.79
885.496	39.59
885.667	-11.61
885.839	8.87
886.011	35.5
886.182	8.87
886.354	31.4
886.525	6.83
886.697	17.07
886.869	-62.8
887.04	72.36
887.212	86.7
887.383	17.07
887.555	-23.89
887.726	-48.47
887.897	41.64
888.069	-19.8
888.24	-56.66
888.412	-17.75
888.583	27.31
888.754	41.64
888.926	-25.94
889.097	-42.32
889.268	-122.2
889.44	-34.13
889.611	-5.46
889.782	2.73
889.953	27.31
890.125	53.93
890.296	-58.71
890.467	-34.13
890.638	-13.65
890.809	2.73
890.98	-56.66
891.151	-1.37
891.323	4.78
891.494	-27.99
891.665	15.02
891.836	-15.7
892.007	23.21
892.178	31.4
892.349	-1.37
892.52	39.59
892.691	-19.8
892.862	33.45
893.032	4.78
893.203	82.6
893.374	27.31
893.545	19.11
893.716	-19.8
893.887	33.45
894.057	25.26
894.228	-64.85
894.399	-64.85
894.57	35.5
894.74	-1.37
894.911	49.83
895.082	4.78
895.253	-27.99
895.423	-1.37
895.594	29.35
895.764	2.73
895.935	-34.13
896.106	-52.56
896.276	12.97
896.447	-19.8
896.617	-54.61
896.788	-34.13
896.958	33.45
897.129	-25.94
897.299	-15.7
897.47	-1.37
897.64	8.87
897.81	-27.99
897.981	70.31
898.151	-17.75
898.322	-44.37
898.492	-40.28
898.662	31.4
898.832	-66.9
899.003	29.35
899.173	-3.41
899.343	-23.89
899.513	19.11
