Data from USB4F104151__131__10-25-44-671.txt Node

Date: Wed Mar 12 10:25:44 EDT 2025
User: louis
Spectrometer: USB4F10415
Trigger mode: 4
Integration Time (sec): 3.000000E-2
Scans to average: 1
Electric dark correction enabled: true
Nonlinearity correction enabled: false
Boxcar width: 0
XAxis mode: Wavelengths
Number of Pixels in Spectrum: 3648
>>>>>Begin Spectral Data<<<<<
178.204	-91.31
178.424	-91.31
178.644	-91.31
178.864	-42.15
179.084	-60.59
179.304	45.91
179.524	39.76
179.744	-44.2
179.964	19.29
180.184	-38.06
180.404	-1.19
180.624	-5.29
180.844	-50.35
181.064	-13.48
181.283	27.48
181.503	35.67
181.723	-15.53
181.943	29.52
182.163	76.63
182.383	-29.87
182.602	62.29
182.822	13.14
183.042	101.2
183.262	-15.53
183.482	19.29
183.701	84.82
183.921	29.52
184.141	-17.58
184.361	68.44
184.58	74.58
184.8	54.1
185.02	19.29
185.239	35.67
185.459	74.58
185.679	25.43
185.898	60.24
186.118	93.01
186.338	15.19
186.557	52.05
186.777	-42.15
186.997	11.09
187.216	43.86
187.436	-27.82
187.655	56.15
187.875	21.33
188.095	-25.77
188.314	72.53
188.534	-9.39
188.753	64.34
188.973	47.96
189.192	68.44
189.412	25.43
189.631	23.38
189.851	9.05
190.07	56.15
190.29	-15.53
190.509	19.29
190.729	23.38
190.948	56.15
191.168	152.4
191.387	115.54
191.607	62.29
191.826	84.82
192.045	17.24
192.265	19.29
192.484	56.15
192.704	52.05
192.923	0.85
193.142	119.64
193.362	123.73
193.581	50
193.8	76.63
194.02	56.15
194.239	90.96
194.458	-9.39
194.678	33.62
194.897	-5.29
195.116	52.05
195.335	9.05
195.555	109.4
195.774	76.63
195.993	33.62
196.212	-21.67
196.432	15.19
196.651	33.62
196.87	7
197.089	113.49
197.308	25.43
197.528	97.11
197.747	15.19
197.966	0.85
198.185	68.44
198.404	-11.43
198.623	97.11
198.842	7
199.062	35.67
199.281	35.67
199.5	9.05
199.719	111.44
199.938	93.01
200.157	37.72
200.376	-13.48
200.595	109.4
200.814	27.48
201.033	107.35
201.252	-5.29
201.471	43.86
201.69	115.54
201.909	56.15
202.128	90.96
202.347	-1.19
202.566	31.57
202.785	31.57
203.004	133.97
203.223	140.12
203.442	-15.53
203.661	-21.67
203.879	25.43
204.098	-7.34
204.317	29.52
204.536	29.52
204.755	101.2
204.974	27.48
205.193	21.33
205.411	56.15
205.63	60.24
205.849	21.33
206.068	-9.39
206.287	39.76
206.505	9.05
206.724	72.53
206.943	-21.67
207.162	70.48
207.381	60.24
207.599	19.29
207.818	-3.24
208.037	-7.34
208.255	76.63
208.474	35.67
208.693	54.1
208.911	-7.34
209.13	27.48
209.349	-5.29
209.567	50
209.786	47.96
210.005	-9.39
210.223	-56.49
210.442	-21.67
210.661	109.4
210.879	15.19
211.098	43.86
211.316	19.29
211.535	125.78
211.753	7
211.972	33.62
212.191	7
212.409	31.57
212.628	62.29
212.846	-3.24
213.065	25.43
213.283	43.86
213.502	-29.87
213.72	54.1
213.938	84.82
214.157	97.11
214.375	82.77
214.594	9.05
214.812	125.78
215.031	45.91
215.249	99.16
215.467	74.58
215.686	33.62
215.904	80.72
216.122	58.2
216.341	123.73
216.559	29.52
216.778	64.34
216.996	52.05
217.214	13.14
217.432	60.24
217.651	76.63
217.869	23.38
218.087	23.38
218.306	56.15
218.524	29.52
218.742	-1.19
218.96	25.43
219.179	23.38
219.397	68.44
219.615	187.22
219.833	97.11
220.051	2.9
220.27	66.39
220.488	19.29
220.706	111.44
220.924	68.44
221.142	27.48
221.36	66.39
221.578	23.38
221.796	88.92
222.015	72.53
222.233	68.44
222.451	78.68
222.669	39.76
222.887	58.2
223.105	9.05
223.323	-52.39
223.541	29.52
223.759	86.87
223.977	9.05
224.195	19.29
224.413	-25.77
224.631	4.95
224.849	72.53
225.067	33.62
225.285	-19.63
225.503	2.9
225.721	29.52
225.939	101.2
226.157	-33.96
226.375	121.68
226.592	60.24
226.81	-15.53
227.028	140.12
227.246	146.26
227.464	23.38
227.682	52.05
227.9	66.39
228.117	58.2
228.335	105.3
228.553	58.2
228.771	29.52
228.989	15.19
229.206	76.63
229.424	25.43
229.642	0.85
229.86	47.96
230.077	9.05
230.295	74.58
230.513	25.43
230.731	31.57
230.948	29.52
231.166	117.59
231.384	95.06
231.601	60.24
231.819	99.16
232.037	-17.58
232.254	-23.72
232.472	117.59
232.689	-64.68
232.907	133.97
233.125	-5.29
233.342	0.85
233.56	-7.34
233.777	7
233.995	72.53
234.213	68.44
234.43	66.39
234.648	47.96
234.865	84.82
235.083	15.19
235.3	27.48
235.518	35.67
235.735	144.21
235.953	45.91
236.17	68.44
236.388	84.82
236.605	4.95
236.822	70.48
237.04	43.86
237.257	-42.15
237.475	39.76
237.692	56.15
237.909	43.86
238.127	113.49
238.344	37.72
238.562	37.72
238.779	54.1
238.996	-1.19
239.214	50
239.431	4.95
239.648	117.59
239.865	9.05
240.083	43.86
240.3	-44.2
240.517	17.24
240.735	76.63
240.952	23.38
241.169	72.53
241.386	72.53
241.603	62.29
241.821	-70.83
242.038	84.82
242.255	4.95
242.472	64.34
242.689	54.1
242.907	47.96
243.124	80.72
243.341	60.24
243.558	27.48
243.775	-7.34
243.992	-103.59
244.209	35.67
244.426	19.29
244.643	70.48
244.86	37.72
245.078	84.82
245.295	64.34
245.512	56.15
245.729	25.43
245.946	80.72
246.163	33.62
246.38	15.19
246.597	70.48
246.814	88.92
247.031	41.81
247.248	13.14
247.464	56.15
247.681	47.96
247.898	60.24
248.115	13.14
248.332	15.19
248.549	7
248.766	74.58
248.983	60.24
249.2	47.96
249.417	133.97
249.633	27.48
249.85	7
250.067	-93.35
250.284	50
250.501	-9.39
250.717	142.16
250.934	13.14
251.151	21.33
251.368	50
251.585	9.05
251.801	-1.19
252.018	9.05
252.235	50
252.451	56.15
252.668	72.53
252.885	60.24
253.102	115.54
253.318	2.9
253.535	0.85
253.752	72.53
253.968	80.72
254.185	45.91
254.401	62.29
254.618	27.48
254.835	27.48
255.051	82.77
255.268	58.2
255.484	78.68
255.701	58.2
255.917	21.33
256.134	93.01
256.351	7
256.567	-46.25
256.784	17.24
257	21.33
257.217	11.09
257.433	76.63
257.65	142.16
257.866	-13.48
258.082	2.9
258.299	60.24
258.515	86.87
258.732	-9.39
258.948	25.43
259.165	4.95
259.381	72.53
259.597	64.34
259.814	35.67
260.03	66.39
260.246	37.72
260.463	-9.39
260.679	64.34
260.895	88.92
261.112	31.57
261.328	37.72
261.544	31.57
261.761	99.16
261.977	29.52
262.193	-21.67
262.409	11.09
262.626	70.48
262.842	37.72
263.058	0.85
263.274	78.68
263.49	-23.72
263.707	136.02
263.923	41.81
264.139	17.24
264.355	52.05
264.571	7
264.787	-13.48
265.004	78.68
265.22	64.34
265.436	-13.48
265.652	11.09
265.868	-25.77
266.084	43.86
266.3	21.33
266.516	76.63
266.732	35.67
266.948	101.2
267.164	11.09
267.38	43.86
267.596	133.97
267.812	68.44
268.028	66.39
268.244	23.38
268.46	70.48
268.676	-5.29
268.892	9.05
269.108	45.91
269.324	9.05
269.54	-29.87
269.756	39.76
269.972	52.05
270.188	60.24
270.403	23.38
270.619	58.2
270.835	68.44
271.051	-21.67
271.267	-19.63
271.483	66.39
271.698	43.86
271.914	117.59
272.13	15.19
272.346	-9.39
272.562	23.38
272.777	-1.19
272.993	25.43
273.209	2.9
273.425	68.44
273.64	-5.29
273.856	39.76
274.072	25.43
274.287	41.81
274.503	27.48
274.719	74.58
274.934	31.57
275.15	39.76
275.366	35.67
275.581	66.39
275.797	41.81
276.012	68.44
276.228	13.14
276.444	64.34
276.659	95.06
276.875	23.38
277.09	50
277.306	31.57
277.521	25.43
277.737	17.24
277.952	25.43
278.168	52.05
278.383	47.96
278.599	60.24
278.814	86.87
279.03	41.81
279.245	60.24
279.461	62.29
279.676	109.4
279.892	-5.29
280.107	23.38
280.322	27.48
280.538	9.05
280.753	109.4
280.969	23.38
281.184	9.05
281.399	84.82
281.615	74.58
281.83	58.2
282.045	56.15
282.26	37.72
282.476	58.2
282.691	52.05
282.906	-15.53
283.122	4.95
283.337	11.09
283.552	90.96
283.767	-29.87
283.983	74.58
284.198	-40.11
284.413	-11.43
284.628	-1.19
284.843	117.59
285.058	64.34
285.274	35.67
285.489	58.2
285.704	43.86
285.919	84.82
286.134	15.19
286.349	-46.25
286.564	-3.24
286.779	125.78
286.995	60.24
287.21	64.34
287.425	31.57
287.64	35.67
287.855	86.87
288.07	25.43
288.285	93.01
288.5	101.2
288.715	76.63
288.93	19.29
289.145	19.29
289.36	43.86
289.575	41.81
289.79	150.36
290.004	74.58
290.219	25.43
290.434	15.19
290.649	72.53
290.864	-29.87
291.079	47.96
291.294	-7.34
291.509	66.39
291.724	35.67
291.938	58.2
292.153	27.48
292.368	-11.43
292.583	-13.48
292.798	86.87
293.012	-1.19
293.227	9.05
293.442	117.59
293.657	43.86
293.871	111.44
294.086	29.52
294.301	45.91
294.516	27.48
294.73	54.1
294.945	72.53
295.16	29.52
295.374	90.96
295.589	60.24
295.804	21.33
296.018	11.09
296.233	37.72
296.447	-58.54
296.662	-23.72
296.877	-1.19
297.091	52.05
297.306	66.39
297.52	52.05
297.735	-5.29
297.949	31.57
298.164	23.38
298.378	47.96
298.593	19.29
298.807	39.76
299.022	39.76
299.236	82.77
299.451	4.95
299.665	9.05
299.88	11.09
300.094	113.49
300.309	56.15
300.523	68.44
300.737	52.05
300.952	60.24
301.166	23.38
301.381	-1.19
301.595	90.96
301.809	72.53
302.024	27.48
302.238	-5.29
302.452	109.4
302.667	7
302.881	99.16
303.095	76.63
303.309	80.72
303.524	50
303.738	97.11
303.952	76.63
304.166	27.48
304.381	29.52
304.595	13.14
304.809	7
305.023	21.33
305.237	0.85
305.452	41.81
305.666	52.05
305.88	23.38
306.094	-25.77
306.308	56.15
306.522	33.62
306.736	52.05
306.95	-9.39
307.164	60.24
307.379	13.14
307.593	41.81
307.807	72.53
308.021	50
308.235	58.2
308.449	15.19
308.663	2.9
308.877	121.68
309.091	84.82
309.305	88.92
309.519	-66.73
309.733	64.34
309.947	-9.39
310.161	109.4
310.374	19.29
310.588	119.64
310.802	45.91
311.016	97.11
311.23	47.96
311.444	31.57
311.658	47.96
311.872	86.87
312.085	-13.48
312.299	76.63
312.513	25.43
312.727	19.29
312.941	19.29
313.154	74.58
313.368	70.48
313.582	66.39
313.796	70.48
314.009	41.81
314.223	23.38
314.437	58.2
314.651	0.85
314.864	23.38
315.078	27.48
315.292	-17.58
315.505	76.63
315.719	19.29
315.933	21.33
316.146	60.24
316.36	2.9
316.573	25.43
316.787	4.95
317.001	76.63
317.214	93.01
317.428	64.34
317.641	25.43
317.855	52.05
318.068	43.86
318.282	78.68
318.495	121.68
318.709	72.53
318.922	66.39
319.136	70.48
319.349	90.96
319.563	-19.63
319.776	60.24
319.99	-5.29
320.203	25.43
320.417	70.48
320.63	39.76
320.843	82.77
321.057	11.09
321.27	-5.29
321.483	45.91
321.697	84.82
321.91	9.05
322.124	-31.91
322.337	97.11
322.55	125.78
322.763	52.05
322.977	-5.29
323.19	17.24
323.403	76.63
323.617	52.05
323.83	93.01
324.043	60.24
324.256	60.24
324.469	4.95
324.683	166.74
324.896	25.43
325.109	23.38
325.322	47.96
325.535	66.39
325.748	2.9
325.962	31.57
326.175	29.52
326.388	66.39
326.601	41.81
326.814	101.2
327.027	9.05
327.24	121.68
327.453	17.24
327.666	52.05
327.879	82.77
328.092	43.86
328.305	60.24
328.518	23.38
328.731	-1.19
328.944	31.57
329.157	23.38
329.37	-27.82
329.583	27.48
329.796	23.38
330.009	21.33
330.222	27.48
330.435	43.86
330.648	4.95
330.861	50
331.073	103.25
331.286	56.15
331.499	70.48
331.712	-13.48
331.925	35.67
332.138	84.82
332.35	23.38
332.563	43.86
332.776	62.29
332.989	54.1
333.202	60.24
333.414	15.19
333.627	129.88
333.84	76.63
334.053	109.4
334.265	29.52
334.478	93.01
334.691	80.72
334.903	58.2
335.116	109.4
335.329	-44.2
335.541	37.72
335.754	64.34
335.966	76.63
336.179	76.63
336.392	35.67
336.604	80.72
336.817	47.96
337.029	52.05
337.242	70.48
337.454	11.09
337.667	52.05
337.88	56.15
338.092	2.9
338.305	60.24
338.517	-15.53
338.729	80.72
338.942	88.92
339.154	90.96
339.367	62.29
339.579	-17.58
339.792	129.88
340.004	105.3
340.217	27.48
340.429	37.72
340.641	80.72
340.854	52.05
341.066	43.86
341.278	88.92
341.491	78.68
341.703	140.12
341.915	82.77
342.128	29.52
342.34	84.82
342.552	37.72
342.764	19.29
342.977	25.43
343.189	2.9
343.401	72.53
343.613	-11.43
343.826	56.15
344.038	47.96
344.25	111.44
344.462	33.62
344.674	60.24
344.886	68.44
345.099	43.86
345.311	72.53
345.523	80.72
345.735	82.77
345.947	76.63
346.159	93.01
346.371	113.49
346.583	-13.48
346.795	95.06
347.007	35.67
347.219	-7.34
347.431	72.53
347.643	-1.19
347.855	-33.96
348.067	47.96
348.279	-44.2
348.491	-9.39
348.703	148.31
348.915	109.4
349.127	-15.53
349.339	56.15
349.551	23.38
349.763	33.62
349.975	33.62
350.187	19.29
350.399	52.05
350.61	35.67
350.822	64.34
351.034	76.63
351.246	23.38
351.458	115.54
351.669	9.05
351.881	125.78
352.093	52.05
352.305	95.06
352.517	146.26
352.728	88.92
352.94	-1.19
353.152	23.38
353.363	76.63
353.575	33.62
353.787	140.12
353.999	2.9
354.21	90.96
354.422	2.9
354.633	88.92
354.845	64.34
355.057	-15.53
355.268	45.91
355.48	88.92
355.692	19.29
355.903	60.24
356.115	72.53
356.326	17.24
356.538	62.29
356.749	9.05
356.961	58.2
357.172	86.87
357.384	0.85
357.595	99.16
357.807	-5.29
358.018	19.29
358.23	37.72
358.441	129.88
358.653	150.36
358.864	-3.24
359.075	17.24
359.287	80.72
359.498	103.25
359.709	60.24
359.921	-36.01
360.132	66.39
360.344	25.43
360.555	37.72
360.766	70.48
360.977	88.92
361.189	109.4
361.4	43.86
361.611	56.15
361.823	150.36
362.034	37.72
362.245	15.19
362.456	23.38
362.667	35.67
362.879	-44.2
363.09	80.72
363.301	47.96
363.512	52.05
363.723	76.63
363.935	43.86
364.146	54.1
364.357	82.77
364.568	101.2
364.779	23.38
364.99	62.29
365.201	-15.53
365.412	84.82
365.623	31.57
365.834	23.38
366.045	93.01
366.256	115.54
366.467	62.29
366.678	-5.29
366.889	54.1
367.1	-3.24
367.311	142.16
367.522	-17.58
367.733	70.48
367.944	68.44
368.155	76.63
368.366	58.2
368.577	97.11
368.788	58.2
368.999	0.85
369.209	-5.29
369.42	76.63
369.631	144.21
369.842	23.38
370.053	19.29
370.264	66.39
370.474	119.64
370.685	54.1
370.896	29.52
371.107	111.44
371.317	127.83
371.528	0.85
371.739	80.72
371.95	52.05
372.16	54.1
372.371	68.44
372.582	-13.48
372.792	19.29
373.003	66.39
373.214	82.77
373.424	82.77
373.635	33.62
373.846	88.92
374.056	74.58
374.267	15.19
374.477	80.72
374.688	17.24
374.898	37.72
375.109	29.52
375.319	76.63
375.53	97.11
375.74	93.01
375.951	2.9
376.161	68.44
376.372	101.2
376.582	25.43
376.793	109.4
377.003	58.2
377.214	70.48
377.424	76.63
377.635	76.63
377.845	19.29
378.055	-21.67
378.266	50
378.476	105.3
378.686	86.87
378.897	76.63
379.107	64.34
379.317	39.76
379.528	58.2
379.738	144.21
379.948	17.24
380.158	52.05
380.369	52.05
380.579	146.26
380.789	13.14
380.999	41.81
381.21	109.4
381.42	74.58
381.63	52.05
381.84	68.44
382.05	125.78
382.261	158.55
382.471	80.72
382.681	60.24
382.891	133.97
383.101	7
383.311	41.81
383.521	88.92
383.731	101.2
383.941	119.64
384.151	15.19
384.361	111.44
384.571	107.35
384.781	50
384.991	19.29
385.201	121.68
385.411	-1.19
385.621	115.54
385.831	68.44
386.041	117.59
386.251	84.82
386.461	29.52
386.671	129.88
386.881	66.39
387.091	95.06
387.301	166.74
387.511	78.68
387.72	107.35
387.93	95.06
388.14	62.29
388.35	0.85
388.56	88.92
388.769	125.78
388.979	119.64
389.189	-23.72
389.399	97.11
389.609	45.91
389.818	90.96
390.028	31.57
390.238	70.48
390.447	66.39
390.657	93.01
390.867	82.77
391.076	-52.39
391.286	88.92
391.496	93.01
391.705	66.39
391.915	47.96
392.125	115.54
392.334	101.2
392.544	56.15
392.753	52.05
392.963	52.05
393.172	66.39
393.382	86.87
393.591	193.36
393.801	107.35
394.01	86.87
394.22	107.35
394.429	166.74
394.639	131.92
394.848	80.72
395.058	56.15
395.267	97.11
395.477	93.01
395.686	62.29
395.895	84.82
396.105	172.88
396.314	88.92
396.524	43.86
396.733	170.83
396.942	90.96
397.152	37.72
397.361	179.03
397.57	117.59
397.78	133.97
397.989	58.2
398.198	146.26
398.407	166.74
398.617	164.69
398.826	107.35
399.035	133.97
399.244	181.07
399.453	154.45
399.663	131.92
399.872	125.78
400.081	43.86
400.29	199.51
400.499	107.35
400.708	88.92
400.917	158.55
401.127	115.54
401.336	41.81
401.545	203.6
401.754	150.36
401.963	179.03
402.172	113.49
402.381	191.31
402.59	152.4
402.799	125.78
403.008	166.74
403.217	138.07
403.426	172.88
403.635	150.36
403.844	211.79
404.053	176.98
404.262	80.72
404.471	281.43
404.68	215.89
404.888	154.45
405.097	150.36
405.306	236.37
405.515	244.56
405.724	179.03
405.933	140.12
406.142	217.94
406.35	222.03
406.559	230.23
406.768	158.55
406.977	189.27
407.185	273.23
407.394	205.65
407.603	197.46
407.812	189.27
408.02	242.51
408.229	287.57
408.438	224.08
408.646	213.84
408.855	197.46
409.064	316.24
409.272	277.33
409.481	277.33
409.69	318.29
409.898	306
410.107	371.54
410.315	351.06
410.524	369.49
410.733	287.57
410.941	312.14
411.15	371.54
411.358	310.1
411.567	428.88
411.775	428.88
411.984	385.87
412.192	496.46
412.401	426.83
412.609	551.76
412.818	516.94
413.026	543.57
413.234	516.94
413.443	500.56
413.651	459.6
413.86	584.52
414.068	547.66
414.276	699.21
414.485	600.91
414.693	731.98
414.901	772.94
415.11	717.64
415.318	719.69
415.526	723.79
415.734	707.4
415.943	885.58
416.151	848.71
416.359	879.43
416.567	846.66
416.776	924.49
416.984	1088.32
417.192	1035.08
417.4	1000.26
417.608	1172.29
417.817	1051.46
418.025	1166.15
418.233	1155.91
418.441	1235.78
418.649	1280.83
418.857	1293.12
419.065	1368.9
419.273	1383.23
419.481	1385.28
419.689	1452.86
419.897	1448.77
420.105	1514.3
420.313	1612.6
420.521	1583.93
420.729	1610.56
420.937	1796.92
421.145	1854.27
421.353	1884.98
421.561	1968.95
421.769	1993.53
421.977	2048.82
422.185	2075.45
422.393	2294.58
422.601	2337.59
422.809	2394.93
423.017	2321.2
423.224	2622.25
423.432	2497.33
423.64	2597.68
423.848	2681.64
424.056	2720.56
424.263	2829.1
424.471	3042.09
424.679	2919.21
424.887	3189.54
425.094	3271.46
425.302	3302.18
425.51	3412.77
425.718	3451.68
425.925	3515.17
426.133	3556.13
426.341	3773.21
426.548	4066.07
426.756	3932.95
426.964	4154.13
427.171	4250.39
427.379	4449.04
427.586	4432.66
427.794	4543.25
428.001	4817.68
428.209	5008.14
428.417	4885.26
428.624	5319.43
428.832	5298.95
429.039	5182.21
429.247	5198.6
429.454	5698.3
429.662	6124.28
429.869	5597.95
430.076	6068.98
430.284	6195.96
430.491	6374.13
430.699	6585.07
430.906	6574.83
431.114	6449.91
431.321	6796.01
431.528	7183.08
431.736	7402.21
431.943	7854.81
432.15	7576.29
432.358	7774.94
432.565	8100.57
432.772	7926.49
432.979	8381.14
433.187	8569.55
433.394	8753.87
433.601	9155.27
433.808	9286.34
434.016	9253.58
434.223	9818.82
434.43	10046.14
434.637	9839.3
434.844	10574.52
435.052	10828.46
435.259	10732.21
435.466	10764.98
435.673	10654.39
435.88	11434.66
436.087	11831.97
436.294	12026.53
436.501	11637.41
436.708	12020.38
436.915	12399.26
437.122	13101.71
437.329	12796.56
437.537	13486.73
437.743	13179.53
437.95	13378.19
438.157	14027.39
438.364	14514.81
438.571	14500.47
438.778	14557.82
438.985	15848.04
439.192	15338.09
439.399	15755.88
439.606	15194.73
439.813	16329.31
440.02	17257.04
440.227	16988.75
440.433	16718.42
440.64	17535.56
440.847	17224.27
441.054	17969.73
441.261	18733.62
441.467	18477.63
441.674	18881.08
441.881	19632.68
442.088	19702.31
442.294	19429.93
442.501	19853.86
442.708	20449.82
442.914	21160.47
443.121	21918.21
443.328	21453.33
443.534	22706.68
443.741	22360.58
443.948	21910.02
444.154	23540.21
444.361	23390.7
444.568	23689.71
444.774	23448.05
444.981	23878.12
445.187	24551.9
445.394	25571.79
445.6	24945.11
445.807	27816.36
446.013	26362.31
446.22	26872.25
446.426	27789.74
446.633	27867.56
446.839	29028.76
447.046	28160.42
447.252	29692.3
447.459	29223.32
447.665	29290.9
447.871	30521.73
448.078	31742.32
448.284	30273.93
448.491	31064.44
448.697	31897.97
448.903	32321.9
449.11	32457.06
449.316	32250.22
449.522	32983.39
449.728	33620.31
449.935	33669.46
450.141	33698.13
450.347	34742.6
450.553	33423.7
450.76	33917.26
450.966	34597.19
451.172	34715.97
451.378	35162.43
451.584	34754.88
451.791	35150.14
451.997	35057.98
452.203	35858.74
452.409	35770.68
452.615	35252.54
452.821	34277.71
453.027	33915.22
453.233	35465.53
453.44	34021.71
453.646	34267.47
453.852	34799.94
454.058	35197.24
454.264	33767.76
454.47	34384.2
454.676	34212.17
454.882	34705.73
455.088	31875.44
455.294	32469.35
455.5	32465.25
455.705	32840.03
455.911	31723.89
456.117	30966.14
456.323	30648.71
456.529	29026.71
456.735	30284.17
456.941	29311.38
457.147	28993.95
457.352	28115.37
457.558	27670.96
457.764	27685.29
457.97	27058.62
458.176	26476.99
458.381	26837.44
458.587	25344.47
458.793	25248.21
458.999	24017.38
459.204	25610.7
459.41	25215.44
459.616	23570.93
459.821	23540.21
460.027	23314.93
460.233	22737.4
460.438	21631.5
460.644	22133.25
460.85	20924.95
461.055	20644.38
461.261	20673.05
461.466	18866.74
461.672	18498.11
461.878	19786.28
462.083	18577.98
462.289	18258.49
462.494	18047.55
462.7	17173.07
462.905	16753.24
463.111	17220.17
463.316	17306.19
463.522	16882.26
463.727	17050.19
463.932	17191.5
464.138	17054.29
464.343	17060.43
464.549	16431.71
464.754	17009.23
464.959	16699.99
465.165	16468.57
465.37	15925.86
465.575	15635.05
465.781	16374.36
465.986	16450.14
466.191	15628.9
466.397	15381.1
466.602	14731.89
466.807	15348.33
467.012	15207.02
467.218	15153.77
467.423	14955.12
467.628	15166.06
467.833	15639.14
468.038	15110.77
468.244	14809.72
468.449	15303.28
468.654	14699.13
468.859	14576.25
469.064	14580.34
469.269	13968
469.474	14174.85
469.679	14127.74
469.885	13898.37
470.09	14219.9
470.295	14125.69
470.5	13740.68
470.705	13908.61
470.91	13617.8
471.115	13410.95
471.32	13306.51
471.525	13318.79
471.73	13144.72
471.935	13101.71
472.139	12739.22
472.344	12927.63
472.549	12950.16
472.754	12524.18
472.959	12130.97
473.164	11854.5
473.369	11909.79
473.574	12425.88
473.778	12151.45
473.983	12059.29
474.188	11948.7
474.393	11551.4
474.598	11317.93
474.802	11367.08
475.007	11455.14
475.212	11264.68
475.417	10998.45
475.621	11008.69
475.826	10963.63
476.031	10691.25
476.235	10554.04
476.44	10681.01
476.645	10697.39
476.849	10304.18
477.054	10468.02
477.259	10207.93
477.463	10390.2
477.668	9910.97
477.872	9722.56
478.077	9763.52
478.282	9654.98
478.486	9784
478.691	9736.9
478.895	9614.02
479.1	9503.43
479.304	9446.09
479.509	9353.93
479.713	9229
479.918	9067.21
480.122	9005.77
480.326	9231.05
480.531	9341.64
480.735	9188.04
480.94	9054.92
481.144	9265.86
481.348	8800.98
481.553	9026.25
481.757	8696.53
481.961	9026.25
482.166	9134.79
482.37	9048.78
482.574	8870.61
482.778	8776.4
482.983	9038.54
483.187	8778.45
483.391	9013.96
483.595	8829.65
483.8	8659.67
484.004	8757.97
484.208	8833.74
484.412	8782.54
484.616	8819.41
484.821	8854.22
485.025	8600.27
485.229	9065.16
485.433	8846.03
485.637	8766.16
485.841	8674
486.045	8678.1
486.249	8794.83
486.453	8667.86
486.657	8944.33
486.861	8878.8
487.065	8780.5
487.269	8823.5
487.473	8788.69
487.677	8764.11
487.881	8950.48
488.085	8655.57
488.289	8714.96
488.493	8837.84
488.697	8989.39
488.901	8932.05
489.105	8778.45
489.309	8872.65
489.512	8868.56
489.716	9102.03
489.92	8985.29
490.124	8991.44
490.328	9048.78
490.531	8854.22
490.735	9169.61
490.939	9097.93
491.143	8979.15
491.346	8989.39
491.55	9272.01
491.754	9382.6
491.958	9112.27
492.161	9087.69
492.365	9284.3
492.569	9345.73
492.772	9355.97
492.976	9487.04
493.18	9298.63
493.383	9704.13
493.587	9593.54
493.79	9827.01
493.994	9571.01
494.197	9710.27
494.401	9714.37
494.605	9790.14
494.808	10011.32
495.012	10062.52
495.215	9962.17
495.419	9892.54
495.622	10189.5
495.825	10199.74
496.029	10263.22
496.232	10533.56
496.436	10521.27
496.639	10754.74
496.843	10623.67
497.046	10762.93
497.249	11195.05
497.453	11082.41
497.656	10937.01
497.859	11293.35
498.063	11279.02
498.266	11745.95
498.469	11532.97
498.673	11709.09
498.876	11676.32
499.079	11930.27
499.282	11942.56
499.485	12135.07
499.689	12272.28
499.892	12475.03
500.095	12450.46
500.298	12876.43
500.501	12513.94
500.705	13159.05
500.908	13101.71
501.111	13181.58
501.314	13390.47
501.517	13542.02
501.72	13888.13
501.923	13795.97
502.126	14086.78
502.329	14254.72
502.532	14305.92
502.735	14475.9
502.938	14697.08
503.141	14555.77
503.344	14920.31
503.547	14785.14
503.75	15274.6
503.953	15430.25
504.156	15346.28
504.359	15731.3
504.562	15823.46
504.765	16302.68
504.968	16243.29
505.17	16388.7
505.373	16423.51
505.576	16769.62
505.779	16874.07
505.982	16798.29
506.185	17488.46
506.387	17572.43
506.59	17537.61
506.793	18123.33
506.996	17603.14
507.198	18303.55
507.401	18229.82
507.604	18559.55
507.807	18825.78
508.009	18713.14
508.212	19112.5
508.415	19544.62
508.617	19640.87
508.82	19589.67
509.022	19925.54
509.225	20351.52
509.428	20283.94
509.63	20517.4
509.833	20730.39
510.035	20908.57
510.238	20890.13
510.44	21322.26
510.643	21428.75
510.845	21944.84
511.048	21801.48
511.25	21936.65
511.453	22344.19
511.655	23110.13
511.858	22696.44
512.06	22802.94
512.262	23292.4
512.465	23316.98
512.667	23757.29
512.87	24142.31
513.072	23607.79
513.274	24203.75
513.477	24570.33
513.679	24621.53
513.881	25141.72
514.084	25088.47
514.286	25272.79
514.488	25823.69
514.69	26132.93
514.893	26323.4
515.095	26155.46
515.297	26862.01
515.499	26837.44
515.701	27017.66
515.904	27218.36
516.106	27711.92
516.308	27726.25
516.51	28119.46
516.712	28092.84
516.914	28705.18
517.116	29405.59
517.318	29268.37
517.52	29481.36
517.722	29483.41
517.925	29684.11
518.127	30441.86
518.329	30863.74
518.531	30011.79
518.733	31117.69
518.935	31097.21
519.136	31383.93
519.338	31533.43
519.54	32043.37
519.742	32049.52
519.944	32354.66
520.146	32940.38
520.348	33093.98
520.55	32831.84
520.752	33038.69
520.954	33628.5
521.155	33327.45
521.357	34175.31
521.559	34525.51
521.761	34881.86
521.963	34654.53
522.164	35316.03
522.366	35080.51
522.568	35500.34
522.77	35469.62
522.971	36374.83
523.173	35920.18
523.375	36579.62
523.576	36210.99
523.778	36888.87
523.98	36974.88
524.181	37476.63
524.383	37224.73
524.584	38009.11
524.786	37716.25
524.988	37773.59
525.189	38379.79
525.391	38484.23
525.592	38404.36
525.794	38674.7
525.995	38961.41
526.197	38885.64
526.398	39260.41
526.6	39448.83
526.801	39844.09
527.003	40038.64
527.204	39825.65
527.406	39989.49
527.607	39731.45
527.808	40495.34
528.01	40005.87
528.211	40300.78
528.412	41341.15
528.614	40810.73
528.815	40855.78
529.016	41560.28
529.218	41023.72
529.419	40937.7
529.62	41074.91
529.822	41263.33
530.023	41205.98
530.224	41705.69
530.425	41443.55
530.626	41353.44
530.828	41617.63
531.029	42086.61
531.23	41527.52
531.431	41842.9
531.632	41939.16
531.833	42064.08
532.035	42070.23
532.236	42191.06
532.437	42412.24
532.638	42049.75
532.839	42285.26
533.04	42950.85
533.241	42014.93
533.442	43098.31
533.643	42236.11
533.844	42637.51
534.045	42926.28
534.246	42113.23
534.447	42963.14
534.648	42377.42
534.849	42688.71
535.05	42488.01
535.251	42625.23
535.451	42787.02
535.652	42844.36
535.853	42565.84
536.054	42893.51
536.255	42621.13
536.456	42772.68
536.657	43382.98
536.857	42463.44
537.058	42340.56
537.259	43157.7
537.46	42766.54
537.66	43049.16
537.861	43387.07
538.062	42418.38
538.263	42907.85
538.463	42578.12
538.664	42608.84
538.865	42737.87
539.065	43544.76
539.266	42909.89
539.466	43446.46
539.667	42422.48
539.868	43061.44
540.068	42619.08
540.269	42717.39
540.469	43036.87
540.67	42526.92
540.87	43065.54
541.071	42614.99
541.271	42795.21
541.472	42614.99
541.672	42590.41
541.873	42299.6
542.073	42168.53
542.274	43118.79
542.474	42660.04
542.675	42492.11
542.875	43104.45
543.075	42957
543.276	42137.81
543.476	42885.32
543.676	42535.12
543.877	42866.89
544.077	42725.58
544.277	42496.2
544.478	42528.97
544.678	42621.13
544.878	42440.91
545.078	42383.57
545.279	42473.68
545.479	42318.03
545.679	42893.51
545.879	42303.7
546.079	42496.2
546.28	42582.22
546.48	41933.01
546.68	42625.23
546.88	42627.27
547.08	42541.26
547.28	42275.02
547.48	41504.99
547.68	42506.44
547.88	42174.67
548.081	42528.97
548.281	42668.23
548.481	42272.98
548.681	42754.25
548.881	42426.57
549.081	42199.25
549.28	41996.5
549.48	42696.91
549.68	41824.47
549.88	42922.18
550.08	42311.89
550.28	42326.22
550.48	41896.15
550.68	42629.32
550.88	42012.88
551.08	41986.26
551.279	42131.67
551.479	42137.81
551.679	42107.09
551.879	41849.05
552.079	42414.29
552.278	41928.92
552.478	41980.12
552.678	42107.09
552.878	42178.77
553.077	42119.38
553.277	41609.43
553.477	42485.97
553.676	41789.66
553.876	42041.56
554.076	41881.81
554.275	41834.71
554.475	41314.53
554.674	41840.85
554.874	41611.48
555.074	41562.33
555.273	41767.13
555.473	41763.03
555.672	41353.44
555.872	41464.03
556.071	41683.16
556.271	41496.8
556.47	41222.37
556.67	41124.07
556.869	40667.37
557.068	41410.78
557.268	41324.77
557.467	41429.21
557.667	41732.31
557.866	41033.96
558.065	41054.43
558.265	40685.8
558.464	40739.05
558.663	41183.46
558.863	40446.19
559.062	41087.2
559.261	40392.94
559.461	40958.18
559.66	40481
559.859	40755.43
560.058	40319.21
560.258	40552.68
560.457	39977.2
560.656	40474.86
560.855	40067.31
561.054	40380.65
561.253	39962.87
561.453	40114.42
561.652	39792.89
561.851	40024.31
562.05	39874.8
562.249	39977.2
562.448	40057.07
562.647	39932.15
562.846	39782.65
563.045	39741.69
563.244	39577.85
563.443	39530.75
563.642	38703.37
563.841	39272.7
564.04	38979.84
564.239	39131.39
564.438	38985.99
564.637	38777.09
564.836	38838.53
565.035	38672.65
565.234	38891.78
565.432	38557.96
565.631	38320.4
565.83	38250.77
566.029	38263.05
566.228	38218
566.427	37976.34
566.625	38050.06
566.824	37828.88
567.023	38105.36
567.222	37148.96
567.42	37701.91
567.619	37716.25
567.818	37810.45
568.016	37290.27
568.215	37505.31
568.414	37210.4
568.612	37480.73
568.811	36878.63
569.01	36989.22
569.208	36892.96
569.407	36962.59
569.605	36628.77
569.804	36958.5
570.002	36362.54
570.201	37064.99
570.4	36028.72
570.598	36002.1
570.797	36000.05
570.995	36075.82
571.193	35787.06
571.392	36319.53
571.59	36038.96
571.789	36006.19
571.987	35639.61
572.186	35608.89
572.384	35111.23
572.582	35750.2
572.781	35383.61
572.979	34783.55
573.177	35279.16
573.376	35217.72
573.574	35098.94
573.772	35250.49
573.971	34681.16
574.169	34591.05
574.367	34414.92
574.565	34640.2
574.763	34492.74
574.962	34267.47
575.16	34052.43
575.358	34226.51
575.556	33413.46
575.754	34255.18
575.952	33472.85
576.151	34140.49
576.349	33466.71
576.547	33315.16
576.745	33435.99
576.943	33849.68
577.141	33198.43
577.339	33298.78
577.537	33327.45
577.735	33206.62
577.933	32627.04
578.131	33112.41
578.329	32782.69
578.527	32547.17
578.725	32688.48
578.923	32657.76
579.121	32702.82
579.319	32387.43
579.516	32612.71
579.714	32266.6
579.912	32244.07
580.11	32096.62
580.308	32010.6
580.506	31834.48
580.704	31285.62
580.901	31717.75
581.099	31900.01
581.297	31654.26
581.495	31455.61
581.692	31738.23
581.89	31072.64
582.088	31371.64
582.285	30908.8
582.483	31773.04
582.681	30974.33
582.878	30757.25
583.076	30462.34
583.274	31175.03
583.471	30534.02
583.669	30474.63
583.866	30411.14
584.064	30640.51
584.262	29946.25
584.459	30271.88
584.657	30261.64
584.854	30212.49
585.052	29893.01
585.249	29911.44
585.447	29700.5
585.644	29616.53
585.841	29575.57
586.039	29997.45
586.236	29514.13
586.434	29419.92
586.631	29057.43
586.828	29192.6
587.026	29319.57
587.223	28748.19
587.42	28758.43
587.618	29239.7
587.815	28492.19
588.012	28496.29
588.21	28488.1
588.407	28539.3
588.604	28309.93
588.801	28320.17
588.999	28260.77
589.196	28496.29
589.393	28283.3
589.59	28154.28
589.787	27857.32
589.984	27937.2
590.182	27494.83
590.379	27855.28
590.576	27382.2
590.773	27781.55
590.97	27650.48
591.167	27605.42
591.364	27267.51
591.561	27539.89
591.758	27290.04
591.955	27154.87
592.152	27355.57
592.349	27273.65
592.546	27167.16
592.743	26812.86
592.94	26751.42
593.137	26579.39
593.334	26505.66
593.531	26229.19
593.727	26649.02
593.924	26552.77
594.121	26122.69
594.318	26591.68
594.515	26218.95
594.712	26276.29
594.908	26206.66
595.105	25915.85
595.302	25557.46
595.499	25952.71
595.696	25776.59
595.892	25491.92
596.089	25577.94
596.286	25522.64
596.482	25469.39
596.679	25334.23
596.876	25080.28
597.072	25084.37
597.269	25604.56
597.466	24822.23
597.662	24848.86
597.859	25289.17
598.055	24850.91
598.252	24820.19
598.448	24928.73
598.645	24732.12
598.841	24381.92
599.038	24429.02
599.234	24250.85
599.431	24015.33
599.627	24213.99
599.824	24549.85
600.02	24013.29
600.217	24267.24
600.413	23986.66
600.609	23845.35
600.806	23822.83
601.002	23824.87
601.198	23697.9
601.395	23486.96
601.591	23517.68
601.787	23515.63
601.984	23335.41
602.18	23429.62
602.376	23341.55
602.572	23312.88
602.769	23093.75
602.965	23081.46
603.161	23208.44
603.357	22972.92
603.553	22675.96
603.75	22786.55
603.946	22598.14
604.142	22819.32
604.338	22155.78
604.534	22690.3
604.73	22286.85
604.926	22575.61
605.122	22559.23
605.318	21928.45
605.514	22092.29
605.71	21844.49
605.906	21983.75
606.102	21854.73
606.298	22008.33
606.494	21860.87
606.69	21789.19
606.886	21836.3
607.082	21385.74
607.278	21533.2
607.474	21424.65
607.67	21617.16
607.866	21486.09
608.062	21727.75
608.257	21252.63
608.453	21355.02
608.649	21410.32
608.845	21162.51
609.041	21320.21
609.236	21105.17
609.432	21099.03
609.628	21271.06
609.824	21008.92
610.019	20912.66
610.215	21056.02
610.411	21019.16
610.606	20562.46
610.802	20791.83
610.998	20681.24
611.193	20470.3
611.389	20685.34
611.584	20627.99
611.78	20279.84
611.976	20464.16
612.171	20410.91
612.367	20363.81
612.562	20337.18
612.758	19991.08
612.953	20085.28
613.149	20290.08
613.344	19923.49
613.539	20480.54
613.735	20265.5
613.93	20161.06
614.126	19880.49
614.321	20185.63
614.517	19941.93
614.712	19950.12
614.907	19644.97
615.103	19843.62
615.298	19606.06
615.493	19962.4
615.688	19870.25
615.884	19794.47
616.079	19399.21
616.274	19722.79
616.47	19356.21
616.665	19522.09
616.86	19569.19
617.055	19612.2
617.25	19100.21
617.445	19708.46
617.641	19067.44
617.836	19255.86
618.031	19085.87
618.226	19286.58
618.421	18948.66
618.616	19124.79
618.811	18694.71
619.006	18917.94
619.201	18598.46
619.396	18549.31
619.591	18586.17
619.786	18588.22
619.981	18371.13
620.176	18596.41
620.371	18039.36
620.566	18448.96
620.761	18121.28
620.956	18221.63
621.151	17736.26
621.346	18125.38
621.541	17463.88
621.735	17887.81
621.93	17592.9
622.125	17551.95
622.32	17248.85
622.515	17453.64
622.709	17386.06
622.904	17478.22
623.099	17431.12
623.294	17076.82
623.488	16947.79
623.683	17209.93
623.878	16896.6
624.072	16757.33
624.267	16743
624.462	16433.75
624.656	16200.29
624.851	16370.27
625.046	16378.46
625.24	16247.39
625.435	16015.97
625.629	15907.43
625.824	16020.06
626.018	15972.96
626.213	15618.66
626.407	15848.04
626.602	15526.5
626.796	15735.4
626.991	15882.85
627.185	15434.35
627.38	15311.47
627.574	15315.56
627.768	15125.1
627.963	15082.1
628.157	14885.49
628.352	15194.73
628.546	14819.96
628.74	14873.2
628.935	14809.72
629.129	14697.08
629.323	14402.17
629.517	14541.43
629.712	14252.67
629.906	14443.13
630.1	14271.1
630.294	14469.75
630.489	14281.34
630.683	14090.88
630.877	13861.51
631.071	13849.22
631.265	14056.06
631.459	13709.96
631.653	13677.19
631.848	13638.28
632.042	13322.89
632.236	13679.24
632.43	13329.03
632.624	13363.85
632.818	13181.58
633.012	13015.69
633.206	13066.89
633.4	13116.05
633.594	13044.37
633.788	13019.79
633.982	12987.02
634.176	12911.25
634.369	12751.51
634.563	12771.99
634.757	12685.97
634.951	12630.68
635.145	12626.58
635.339	12425.88
635.533	12489.37
635.726	12446.36
635.92	12161.69
636.114	12176.03
636.308	12186.27
636.501	12200.6
636.695	12008.09
636.889	11926.18
637.083	11965.09
637.276	11893.41
637.47	11369.13
637.664	11479.72
637.857	11590.31
638.051	11408.04
638.244	11262.63
638.438	11559.59
638.632	11133.61
638.825	11225.77
639.019	11332.26
639.212	11178.67
639.406	11186.86
639.599	11047.6
639.793	11360.94
639.986	11055.79
640.18	10865.33
640.373	11027.12
640.567	10613.43
640.76	10674.87
640.954	10529.46
641.147	10693.3
641.34	10506.93
641.534	10377.91
641.727	10500.79
641.92	10439.35
642.114	10291.9
642.307	10341.05
642.5	10259.13
642.694	10107.58
642.887	9915.07
643.08	10042.04
643.273	9900.73
643.467	9908.93
643.66	9835.2
643.853	9691.84
644.046	9671.36
644.239	9749.18
644.432	9616.07
644.626	9525.96
644.819	9544.39
645.012	9564.87
645.205	9362.12
645.398	9538.24
645.591	9411.27
645.784	9198.28
645.977	9194.19
646.17	9210.57
646.363	9155.27
646.556	9216.71
646.749	9173.71
646.942	9069.26
647.135	8970.96
647.328	9022.16
647.521	8823.5
647.714	8772.3
647.907	8796.88
648.099	8567.51
648.292	8788.69
648.485	8710.86
648.678	8579.79
648.871	8514.26
649.064	8551.12
649.256	8600.27
649.449	8506.07
649.642	8293.08
649.835	8260.31
650.027	8137.43
650.22	8086.23
650.413	8190.68
650.605	8196.82
650.798	8000.22
650.991	7942.88
651.183	8170.2
651.376	7875.29
651.568	7949.02
651.761	7848.67
651.954	7801.57
652.146	7580.39
652.339	7729.89
652.531	7758.56
652.724	7551.71
652.916	7574.24
653.109	7719.65
653.301	7428.84
653.494	7568.1
653.686	7326.44
653.879	7570.15
654.071	7381.73
654.263	7344.87
654.456	7420.64
654.648	7404.26
654.84	7195.37
655.033	7084.78
655.225	7148.26
655.417	7045.87
655.61	7252.71
655.802	7058.15
655.994	6918.89
656.186	7031.53
656.379	6894.32
656.571	6961.9
656.763	6773.49
656.955	6736.62
657.148	6826.73
657.34	6761.2
657.532	6894.32
657.724	6720.24
657.916	6814.45
658.108	6773.49
658.3	6478.58
658.492	6523.63
658.684	6382.32
658.876	6497.01
659.068	6513.39
659.26	6441.72
659.452	6365.94
659.644	6548.21
659.836	6302.45
660.028	6349.56
660.22	6216.44
660.412	6222.58
660.604	6101.75
660.796	6161.14
660.988	6222.58
661.18	6159.1
661.372	6085.37
661.563	6218.49
661.755	6128.38
661.947	5982.97
662.139	5884.67
662.331	5839.61
662.522	5767.93
662.714	5925.63
662.906	5708.54
663.097	5856
663.289	5651.2
663.481	5663.49
663.673	5688.06
663.864	5802.75
664.056	5640.96
664.247	5718.78
664.439	5651.2
664.631	5749.5
664.822	5577.47
665.014	5655.3
665.205	5393.16
665.397	5524.23
665.588	5456.64
665.78	5589.76
665.971	5434.11
666.163	5434.11
666.354	5425.92
666.546	5354.24
666.737	5323.52
666.929	5133.06
667.12	5231.37
667.311	5278.47
667.503	5190.41
667.694	5319.43
667.885	5098.25
668.077	5100.3
668.268	5110.54
668.459	5167.88
668.651	5257.99
668.842	4987.66
669.033	5026.57
669.224	5008.14
669.416	5169.93
669.607	4967.18
669.798	4942.6
669.989	5010.18
670.18	4889.35
670.371	5071.62
670.563	4958.99
670.754	4918.03
670.945	4942.6
671.136	4893.45
671.327	4848.4
671.518	4932.36
671.709	4905.74
671.9	4799.24
672.091	4721.42
672.282	4705.04
672.473	4696.85
672.664	4924.17
672.855	4838.16
673.046	4774.67
673.237	4696.85
673.428	4776.72
673.619	4571.92
673.809	4635.41
674	4655.89
674.191	4842.25
674.382	4655.89
674.573	4692.75
674.764	4610.83
674.954	4578.06
675.145	4602.64
675.336	4557.58
675.527	4553.49
675.717	4578.06
675.908	4416.27
676.099	4408.08
676.289	4483.86
676.48	4451.09
676.671	4406.03
676.861	4393.75
677.052	4430.61
677.243	4260.63
677.433	4426.51
677.624	4455.19
677.814	4569.87
678.005	4426.51
678.195	4346.64
678.386	4287.25
678.576	4303.64
678.767	4315.92
678.957	4360.98
679.148	4565.78
679.338	4418.32
679.529	4414.23
679.719	4264.72
679.909	4336.4
680.1	4244.24
680.29	4397.84
680.481	4348.69
680.671	4305.68
680.861	4356.88
681.052	4338.45
681.242	4234
681.432	4483.86
681.622	4283.16
681.813	4203.29
682.003	4389.65
682.193	4225.81
682.383	4344.6
682.573	4213.53
682.764	4277.01
682.954	4287.25
683.144	4152.09
683.334	4309.78
683.524	3996.44
683.714	4303.64
683.904	4168.47
684.094	4184.85
684.284	4096.79
684.474	4225.81
684.664	4156.18
684.854	4207.38
685.044	4111.13
685.234	4234
685.424	4021.02
685.614	4004.63
685.804	4055.83
685.994	4037.4
686.184	3988.25
686.374	4064.02
686.564	3961.62
686.753	3939.1
686.943	4021.02
687.133	4006.68
687.323	3894.04
687.513	4000.54
687.702	3875.61
687.892	3697.44
688.082	3889.95
688.272	3978.01
688.461	3900.19
688.651	3984.15
688.841	3736.35
689.03	3824.41
689.22	3752.73
689.41	3808.03
689.599	3805.98
689.789	3713.82
689.979	3791.64
690.168	3713.82
690.358	3687.2
690.547	3689.25
690.737	3590.94
690.926	3818.27
691.116	3650.33
691.305	3707.68
691.495	3506.98
691.684	3705.63
691.874	3644.19
692.063	3527.46
692.252	3549.98
692.442	3549.98
692.631	3455.78
692.82	3560.22
693.01	3461.92
693.199	3689.25
693.388	3515.17
693.578	3433.25
693.767	3547.94
693.956	3513.12
694.146	3269.41
694.335	3435.3
694.524	3400.48
694.713	3494.69
694.902	3412.77
695.092	3384.1
695.281	3400.48
695.47	3287.84
695.659	3244.84
695.848	3380
696.037	3347.23
696.226	3279.65
696.415	3302.18
696.604	3339.04
696.793	3316.51
696.982	3238.69
697.171	3353.38
697.36	3425.06
697.549	3232.55
697.738	3177.25
697.927	3230.5
698.116	3205.92
698.305	3234.6
698.494	3205.92
698.683	3156.77
698.872	3291.94
699.061	3193.64
699.25	3214.12
699.438	3234.6
699.627	3132.2
699.816	3146.53
700.005	3269.41
700.193	3316.51
700.382	3185.44
700.571	3124.01
700.76	3083.05
700.948	3353.38
701.137	3150.63
701.326	3167.01
701.514	3136.29
701.703	3218.21
701.892	3093.29
702.08	3187.49
702.269	2990.89
702.457	3119.91
702.646	3238.69
702.834	3066.66
703.023	3113.77
703.212	3140.39
703.4	3203.88
703.589	3044.13
703.777	3099.43
703.965	3011.37
704.154	3136.29
704.342	3138.34
704.531	3261.22
704.719	3099.43
704.907	3207.97
705.096	2935.59
705.284	2968.36
705.472	3138.34
705.661	3101.48
705.849	3048.23
706.037	3115.81
706.226	3019.56
706.414	3046.18
706.602	3140.39
706.79	3101.48
706.979	3160.87
707.167	3093.29
707.355	3033.9
707.543	3128.1
707.731	3119.91
707.919	3111.72
708.107	3044.13
708.296	3068.71
708.484	3164.97
708.672	3132.2
708.86	3027.75
709.048	3009.32
709.236	3009.32
709.424	3072.81
709.612	3132.2
709.8	2974.5
709.988	3089.19
710.176	3179.3
710.364	3105.57
710.551	3160.87
710.739	2945.83
710.927	2968.36
711.115	3007.27
711.303	3083.05
711.491	3027.75
711.679	3029.8
711.866	3083.05
712.054	3109.67
712.242	2960.17
712.43	3062.57
712.617	3017.51
712.805	2886.44
712.993	3027.75
713.181	3017.51
713.368	3035.94
713.556	3177.25
713.744	2997.03
713.931	3150.63
714.119	3070.76
714.306	3009.32
714.494	2966.31
714.682	3021.61
714.869	2925.35
715.057	2927.4
715.244	2997.03
715.432	3046.18
715.619	2960.17
715.807	3097.38
715.994	3132.2
716.182	2956.07
716.369	3124.01
716.556	3099.43
716.744	3124.01
716.931	3035.94
717.119	2980.65
717.306	3042.09
717.493	3121.96
717.681	3146.53
717.868	2911.02
718.055	3113.77
718.242	3119.91
718.43	3095.33
718.617	2980.65
718.804	3087.14
718.991	3025.7
719.179	2988.84
719.366	3081
719.553	3081
719.74	3025.7
719.927	3037.99
720.114	3033.9
720.301	2974.5
720.488	2831.15
720.676	3060.52
720.863	3009.32
721.05	2968.36
721.237	2882.35
721.424	2943.78
721.611	3070.76
721.798	2958.12
721.985	2904.87
722.172	2906.92
722.358	2921.26
722.545	2964.26
722.732	2894.63
722.919	2933.54
723.106	3001.13
723.293	2927.4
723.48	3027.75
723.667	2980.65
723.853	2906.92
724.04	2974.5
724.227	2845.48
724.414	2870.06
724.6	3013.42
724.787	2988.84
724.974	2990.89
725.161	2865.96
725.347	2825
725.534	2990.89
725.72	2980.65
725.907	2868.01
726.094	2941.74
726.28	2837.29
726.467	2882.35
726.653	2845.48
726.84	2913.06
727.027	2937.64
727.213	2792.23
727.4	2947.88
727.586	2933.54
727.773	3021.61
727.959	2861.87
728.145	2933.54
728.332	2829.1
728.518	2855.72
728.705	2878.25
728.891	2794.28
729.077	2880.3
729.264	2796.33
729.45	2747.18
729.636	2861.87
729.823	2900.78
730.009	2917.16
730.195	2890.54
730.382	2968.36
730.568	2829.1
730.754	2720.56
730.94	2769.71
731.126	2876.2
731.313	2943.78
731.499	2777.9
731.685	2829.1
731.871	2796.33
732.057	2980.65
732.243	2884.39
732.429	2818.86
732.615	2843.43
732.801	2804.52
732.987	2800.43
733.173	2839.34
733.359	2798.38
733.545	2796.33
733.731	2710.32
733.917	2890.54
734.103	2792.23
734.289	2908.97
734.475	2779.95
734.661	2882.35
734.847	2800.43
735.033	2810.67
735.219	2771.76
735.404	2745.13
735.59	2710.32
735.776	2650.92
735.962	2816.81
736.148	2638.64
736.333	2650.92
736.519	2687.79
736.705	2712.36
736.89	2659.12
737.076	2841.39
737.262	2562.86
737.447	2646.83
737.633	2607.92
737.819	2728.75
738.004	2743.08
738.19	2669.36
738.375	2640.69
738.561	2636.59
738.747	2605.87
738.932	2542.38
739.118	2698.03
739.303	2585.39
739.489	2530.09
739.674	2638.64
739.859	2556.72
740.045	2612.01
740.23	2505.52
740.416	2511.66
740.601	2722.6
740.786	2505.52
740.972	2435.89
741.157	2448.18
741.342	2509.62
741.528	2458.42
741.713	2513.71
741.898	2583.34
742.084	2478.9
742.269	2554.67
742.454	2472.75
742.639	2575.15
742.824	2482.99
743.01	2501.42
743.195	2542.38
743.38	2296.63
743.565	2325.3
743.75	2288.43
743.935	2386.74
744.12	2476.85
744.305	2247.48
744.49	2362.16
744.675	2286.39
744.86	2382.64
745.045	2335.54
745.23	2403.12
745.415	2304.82
745.6	2317.11
745.785	2276.15
745.97	2272.05
746.155	2270
746.34	2202.42
746.525	2163.51
746.71	2198.32
746.895	2239.28
747.079	2259.76
747.264	2278.19
747.449	2147.12
747.634	2040.63
747.819	2106.17
748.003	2020.15
748.188	1971
748.373	2069.3
748.557	1977.14
748.742	2028.34
748.927	2032.44
749.111	1975.1
749.296	2014.01
749.481	2067.25
749.665	1989.43
749.85	2044.73
750.034	1944.38
750.219	1913.66
750.404	1864.5
750.588	1862.46
750.773	1909.56
750.957	1919.8
751.141	1956.66
751.326	1841.98
751.51	1882.94
751.695	1923.9
751.879	1903.42
752.064	1766.2
752.248	1786.68
752.432	1792.83
752.617	1768.25
752.801	1704.76
752.985	1694.52
753.17	1776.44
753.354	1770.3
753.538	1678.14
753.722	1708.86
753.907	1749.82
754.091	1606.46
754.275	1559.36
754.459	1594.17
754.643	1688.38
754.828	1690.43
755.012	1559.36
755.196	1602.36
755.38	1579.84
755.564	1542.97
755.748	1573.69
755.932	1608.51
756.116	1436.48
756.3	1506.11
756.484	1420.1
756.668	1518.4
756.852	1436.48
757.036	1481.53
757.22	1426.24
757.404	1442.62
757.588	1450.82
757.772	1434.43
757.956	1469.25
758.14	1405.76
758.323	1350.46
758.507	1368.9
758.691	1352.51
758.875	1344.32
759.059	1340.22
759.242	1375.04
759.426	1383.23
759.61	1213.25
759.794	1291.07
759.977	1252.16
760.161	1372.99
760.345	1379.14
760.528	1385.28
760.712	1340.22
760.895	1289.03
761.079	1272.64
761.263	1198.92
761.446	1428.29
761.63	1235.78
761.813	1268.55
761.997	1248.07
762.18	1258.31
762.364	1205.06
762.547	1198.92
762.731	1135.43
762.914	1239.87
763.098	1239.87
763.281	1215.3
763.464	1170.24
763.648	1168.2
763.831	1248.07
764.015	1153.86
764.198	1157.96
764.381	1137.48
764.564	1284.93
764.748	1209.15
764.931	1241.92
765.114	1160
765.297	1129.28
765.481	1092.42
765.664	1133.38
765.847	1088.32
766.03	1190.72
766.213	1059.65
766.397	1061.7
766.58	1047.37
766.763	1133.38
766.946	1067.85
767.129	1047.37
767.312	1043.27
767.495	1039.17
767.678	1088.32
767.861	1127.24
768.044	1057.61
768.227	1106.76
768.41	1026.89
768.593	1022.79
768.776	1084.23
768.959	940.87
769.142	1059.65
769.324	1033.03
769.507	1157.96
769.69	936.78
769.873	922.44
770.056	1076.04
770.239	969.54
770.421	1037.13
770.604	967.49
770.787	1043.27
770.97	887.62
771.152	912.2
771.335	1049.41
771.518	947.01
771.7	996.17
771.883	998.21
772.066	949.06
772.248	965.45
772.431	957.25
772.613	906.06
772.796	875.34
772.978	906.06
773.161	936.78
773.343	844.62
773.526	883.53
773.708	850.76
773.891	779.08
774.073	764.75
774.256	756.55
774.438	936.78
774.621	846.66
774.803	793.42
774.985	809.8
775.168	865.1
775.35	850.76
775.532	801.61
775.715	746.31
775.897	815.94
776.079	830.28
776.261	795.47
776.444	799.56
776.626	774.99
776.808	785.23
776.99	805.71
777.173	682.83
777.355	779.08
777.537	760.65
777.719	772.94
777.901	746.31
778.083	764.75
778.265	752.46
778.447	691.02
778.629	695.11
778.811	695.11
778.993	736.07
779.175	754.51
779.357	717.64
779.539	668.49
779.721	605
779.903	641.87
780.085	621.39
780.267	629.58
780.449	584.52
780.631	607.05
780.812	666.44
780.994	744.27
781.176	613.2
781.358	654.16
781.54	731.98
781.721	584.52
781.903	666.44
782.085	502.61
782.267	650.06
782.448	539.47
782.63	598.86
782.812	584.52
782.993	572.24
783.175	611.15
783.357	518.99
783.538	650.06
783.72	512.85
783.901	514.89
784.083	539.47
784.264	594.76
784.446	512.85
784.627	510.8
784.809	549.71
784.99	596.81
785.172	502.61
785.353	527.18
785.535	539.47
785.716	486.22
785.897	547.66
786.079	531.28
786.26	471.89
786.441	521.04
786.623	437.07
786.804	506.7
786.985	496.46
787.167	480.08
787.348	482.13
787.529	486.22
787.71	510.8
787.891	475.98
788.073	449.36
788.254	439.12
788.435	432.97
788.616	430.93
788.797	453.45
788.978	420.69
789.159	363.34
789.34	539.47
789.522	449.36
789.703	416.59
789.884	402.26
790.065	498.51
790.246	357.2
790.427	457.55
790.607	377.68
790.788	545.61
790.969	344.91
791.15	359.25
791.331	426.83
791.512	385.87
791.693	371.54
791.874	387.92
792.054	392.02
792.235	398.16
792.416	418.64
792.597	357.2
792.778	295.76
792.958	400.21
793.139	373.58
793.32	306
793.5	326.48
793.681	369.49
793.862	486.22
794.042	346.96
794.223	314.19
794.404	240.47
794.584	281.43
794.765	361.3
794.945	422.73
795.126	371.54
795.306	355.15
795.487	371.54
795.667	310.1
795.848	326.48
796.028	252.75
796.209	346.96
796.389	353.1
796.57	291.66
796.75	297.81
796.93	336.72
797.111	301.9
797.291	283.47
797.471	285.52
797.652	267.09
797.832	308.05
798.012	404.3
798.192	285.52
798.373	240.47
798.553	295.76
798.733	273.23
798.913	258.9
799.093	279.38
799.274	314.19
799.454	338.77
799.634	336.72
799.814	297.81
799.994	277.33
800.174	369.49
800.354	256.85
800.534	174.93
800.714	383.82
800.894	334.67
801.074	207.7
801.254	211.79
801.434	248.66
801.614	265.04
801.794	246.61
801.974	811.85
802.154	219.99
802.334	283.47
802.514	279.38
802.693	277.33
802.873	273.23
803.053	314.19
803.233	295.76
803.413	234.32
803.592	306
803.772	232.27
803.952	316.24
804.131	203.6
804.311	308.05
804.491	277.33
804.67	256.85
804.85	248.66
805.03	252.75
805.209	328.53
805.389	166.74
805.568	230.23
805.748	207.7
805.928	248.66
806.107	248.66
806.287	240.47
806.466	207.7
806.646	228.18
806.825	234.32
807.004	240.47
807.184	234.32
807.363	271.19
807.543	258.9
807.722	211.79
807.901	187.22
808.081	299.86
808.26	189.27
808.439	203.6
808.619	144.21
808.798	195.41
808.977	230.23
809.156	250.71
809.336	271.19
809.515	260.95
809.694	133.97
809.873	213.84
810.052	203.6
810.231	195.41
810.411	228.18
810.59	265.04
810.769	191.31
810.948	176.98
811.127	170.83
811.306	201.55
811.485	222.03
811.664	265.04
811.843	252.75
812.022	252.75
812.201	215.89
812.38	187.22
812.559	154.45
812.737	224.08
812.916	138.07
813.095	152.4
813.274	191.31
813.453	215.89
813.632	207.7
813.811	260.95
813.989	176.98
814.168	222.03
814.347	224.08
814.526	207.7
814.704	164.69
814.883	224.08
815.062	213.84
815.24	158.55
815.419	156.5
815.598	201.55
815.776	142.16
815.955	109.4
816.133	47.96
816.312	107.35
816.49	203.6
816.669	215.89
816.847	84.82
817.026	217.94
817.204	183.12
817.383	193.36
817.561	15.19
817.74	183.12
817.918	189.27
818.097	158.55
818.275	146.26
818.453	140.12
818.632	119.64
818.81	133.97
818.988	203.6
819.167	127.83
819.345	140.12
819.523	185.17
819.701	232.27
819.879	109.4
820.058	176.98
820.236	148.31
820.414	64.34
820.592	189.27
820.77	138.07
820.948	207.7
821.127	168.79
821.305	179.03
821.483	189.27
821.661	121.68
821.839	129.88
822.017	150.36
822.195	133.97
822.373	166.74
822.551	193.36
822.729	129.88
822.907	142.16
823.085	136.02
823.262	199.51
823.44	13.14
823.618	133.97
823.796	125.78
823.974	191.31
824.152	90.96
824.329	107.35
824.507	148.31
824.685	68.44
824.863	189.27
825.04	70.48
825.218	172.88
825.396	133.97
825.574	162.64
825.751	117.59
825.929	174.93
826.107	82.77
826.284	166.74
826.462	158.55
826.639	136.02
826.817	207.7
826.994	105.3
827.172	64.34
827.349	150.36
827.527	199.51
827.704	103.25
827.882	113.49
828.059	21.33
828.237	101.2
828.414	123.73
828.591	84.82
828.769	90.96
828.946	99.16
829.124	93.01
829.301	109.4
829.478	160.59
829.655	136.02
829.833	105.3
830.01	68.44
830.187	115.54
830.364	72.53
830.542	70.48
830.719	68.44
830.896	93.01
831.073	117.59
831.25	148.31
831.427	45.91
831.604	129.88
831.782	43.86
831.959	125.78
832.136	68.44
832.313	131.92
832.49	158.55
832.667	29.52
832.844	60.24
833.021	72.53
833.198	170.83
833.374	97.11
833.551	103.25
833.728	90.96
833.905	101.2
834.082	84.82
834.259	74.58
834.436	78.68
834.612	101.2
834.789	127.83
834.966	158.55
835.143	93.01
835.319	27.48
835.496	125.78
835.673	33.62
835.85	117.59
836.026	121.68
836.203	131.92
836.38	62.29
836.556	72.53
836.733	76.63
836.909	162.64
837.086	90.96
837.262	58.2
837.439	131.92
837.616	99.16
837.792	93.01
837.968	129.88
838.145	54.1
838.321	54.1
838.498	35.67
838.674	142.16
838.851	74.58
839.027	47.96
839.203	80.72
839.38	95.06
839.556	80.72
839.732	95.06
839.909	50
840.085	76.63
840.261	93.01
840.437	105.3
840.614	76.63
840.79	150.36
840.966	121.68
841.142	90.96
841.318	80.72
841.494	146.26
841.671	68.44
841.847	66.39
842.023	-56.49
842.199	117.59
842.375	43.86
842.551	54.1
842.727	-38.06
842.903	84.82
843.079	58.2
843.255	78.68
843.431	66.39
843.607	113.49
843.783	74.58
843.959	86.87
844.134	66.39
844.31	82.77
844.486	19.29
844.662	99.16
844.838	37.72
845.013	129.88
845.189	4.95
845.365	4.95
845.541	117.59
845.716	47.96
845.892	121.68
846.068	-23.72
846.244	37.72
846.419	39.76
846.595	111.44
846.77	39.76
846.946	76.63
847.122	68.44
847.297	113.49
847.473	105.3
847.648	99.16
847.824	121.68
847.999	27.48
848.175	43.86
848.35	58.2
848.526	136.02
848.701	50
848.876	131.92
849.052	84.82
849.227	62.29
849.403	-9.39
849.578	50
849.753	25.43
849.929	50
850.104	-13.48
850.279	58.2
850.454	90.96
850.63	43.86
850.805	97.11
850.98	31.57
851.155	107.35
851.33	60.24
851.505	39.76
851.681	56.15
851.856	54.1
852.031	13.14
852.206	7
852.381	88.92
852.556	54.1
852.731	17.24
852.906	39.76
853.081	105.3
853.256	68.44
853.431	27.48
853.606	129.88
853.781	-33.96
853.956	23.38
854.131	47.96
854.305	15.19
854.48	-7.34
854.655	2.9
854.83	41.81
855.005	-31.91
855.18	150.36
855.354	15.19
855.529	64.34
855.704	33.62
855.879	84.82
856.053	41.81
856.228	95.06
856.403	56.15
856.577	29.52
856.752	-5.29
856.926	78.68
857.101	19.29
857.276	93.01
857.45	88.92
857.625	-23.72
857.799	76.63
857.974	58.2
858.148	17.24
858.323	84.82
858.497	17.24
858.672	64.34
858.846	9.05
859.02	50
859.195	27.48
859.369	-21.67
859.543	15.19
859.718	37.72
859.892	58.2
860.066	62.29
860.241	7
860.415	7
860.589	45.91
860.763	66.39
860.938	7
861.112	93.01
861.286	17.24
861.46	58.2
861.634	11.09
861.808	39.76
861.982	58.2
862.157	-13.48
862.331	31.57
862.505	31.57
862.679	13.14
862.853	50
863.027	60.24
863.201	-1.19
863.375	0.85
863.549	68.44
863.722	27.48
863.896	95.06
864.07	-11.43
864.244	58.2
864.418	37.72
864.592	-38.06
864.766	11.09
864.939	29.52
865.113	15.19
865.287	45.91
865.461	-1.19
865.634	31.57
865.808	60.24
865.982	68.44
866.156	31.57
866.329	-7.34
866.503	15.19
866.676	131.92
866.85	43.86
867.024	19.29
867.197	-70.83
867.371	84.82
867.544	35.67
867.718	4.95
867.891	-9.39
868.065	43.86
868.238	-48.3
868.412	93.01
868.585	-13.48
868.759	7
868.932	-11.43
869.105	35.67
869.279	-29.87
869.452	-21.67
869.625	9.05
869.799	47.96
869.972	-42.15
870.145	19.29
870.319	-7.34
870.492	86.87
870.665	-5.29
870.838	31.57
871.011	11.09
871.185	21.33
871.358	101.2
871.531	31.57
871.704	-13.48
871.877	-7.34
872.05	76.63
872.223	19.29
872.396	-7.34
872.569	-13.48
872.742	13.14
872.915	72.53
873.088	9.05
873.261	7
873.434	86.87
873.607	-1.19
873.78	19.29
873.953	41.81
874.126	-25.77
874.299	47.96
874.471	56.15
874.644	29.52
874.817	29.52
874.99	70.48
875.163	-60.59
875.335	9.05
875.508	45.91
875.681	-42.15
875.853	-19.63
876.026	29.52
876.199	-9.39
876.371	-17.58
876.544	33.62
876.717	-83.11
876.889	35.67
877.062	27.48
877.234	19.29
877.407	-9.39
877.579	33.62
877.752	7
877.924	-29.87
878.097	-9.39
878.269	-9.39
878.442	60.24
878.614	7
878.786	-21.67
878.959	-5.29
879.131	86.87
879.303	68.44
879.476	60.24
879.648	70.48
879.82	50
879.993	-50.35
880.165	31.57
880.337	-31.91
880.509	23.38
880.681	9.05
880.854	-46.25
881.026	15.19
881.198	88.92
881.37	60.24
881.542	2.9
881.714	19.29
881.886	45.91
882.058	-11.43
882.23	35.67
882.402	60.24
882.574	-11.43
882.746	74.58
882.918	35.67
883.09	50
883.262	25.43
883.434	-42.15
883.606	-9.39
883.778	-70.83
883.95	125.78
884.122	93.01
884.293	41.81
884.465	-44.2
884.637	23.38
884.809	-21.67
884.98	60.24
885.152	-52.39
885.324	123.73
885.496	-19.63
885.667	52.05
885.839	-1.19
886.011	82.77
886.182	-9.39
886.354	9.05
886.525	4.95
886.697	-40.11
886.869	54.1
887.04	-17.58
887.212	7
887.383	88.92
887.555	62.29
887.726	-5.29
887.897	33.62
888.069	9.05
888.24	19.29
888.412	11.09
888.583	-33.96
888.754	19.29
888.926	-15.53
889.097	-29.87
889.268	47.96
889.44	52.05
889.611	23.38
889.782	45.91
889.953	27.48
890.125	17.24
890.296	25.43
890.467	62.29
890.638	-72.87
890.809	58.2
890.98	76.63
891.151	23.38
891.323	-21.67
891.494	-89.26
891.665	41.81
891.836	43.86
892.007	33.62
892.178	4.95
892.349	25.43
892.52	99.16
892.691	35.67
892.862	43.86
893.032	23.38
893.203	45.91
893.374	-40.11
893.545	72.53
893.716	-7.34
893.887	58.2
894.057	-38.06
894.228	23.38
894.399	29.52
894.57	7
894.74	78.68
894.911	70.48
895.082	-15.53
895.253	56.15
895.423	101.2
895.594	95.06
895.764	19.29
895.935	-13.48
896.106	47.96
896.276	66.39
896.447	33.62
896.617	-3.24
896.788	7
896.958	-38.06
897.129	-72.87
897.299	15.19
897.47	41.81
897.64	31.57
897.81	78.68
897.981	45.91
898.151	50
898.322	84.82
898.492	-1.19
898.662	-38.06
898.832	-33.96
899.003	15.19
899.173	11.09
899.343	-25.77
899.513	-15.53
