Data from USB4F104151__4__10-20-07-778.txt Node

Date: Wed Mar 12 10:20:07 EDT 2025
User: louis
Spectrometer: USB4F10415
Trigger mode: 4
Integration Time (sec): 3.000000E-2
Scans to average: 1
Electric dark correction enabled: true
Nonlinearity correction enabled: false
Boxcar width: 0
XAxis mode: Wavelengths
Number of Pixels in Spectrum: 3648
>>>>>Begin Spectral Data<<<<<
178.204	-137.73
178.424	-137.73
178.644	-137.73
178.864	-111.1
179.084	-45.57
179.304	-20.99
179.524	5.63
179.744	11.78
179.964	40.45
180.184	-104.96
180.404	85.5
180.624	-43.52
180.844	-33.28
181.064	-25.09
181.283	32.26
181.503	-0.51
181.723	52.74
181.943	-57.86
182.163	69.12
182.383	73.21
182.602	97.79
182.822	7.68
183.042	-37.38
183.262	19.97
183.482	42.5
183.701	7.68
183.921	26.11
184.141	73.21
184.361	67.07
184.58	28.16
184.8	34.3
185.02	-61.95
185.239	15.87
185.459	19.97
185.679	11.78
185.898	-92.67
186.118	52.74
186.338	38.4
186.557	24.06
186.777	7.68
186.997	50.69
187.216	-20.99
187.436	32.26
187.655	24.06
187.875	19.97
188.095	-18.94
188.314	81.41
188.534	42.5
188.753	38.4
188.973	42.5
189.192	95.74
189.412	-18.94
189.631	26.11
189.851	77.31
190.07	81.41
190.29	-20.99
190.509	-18.94
190.729	-27.14
190.948	60.93
191.168	62.98
191.387	65.02
191.607	3.58
191.826	58.88
192.045	-18.94
192.265	65.02
192.484	34.3
192.704	42.5
192.923	-0.51
193.142	60.93
193.362	52.74
193.581	11.78
193.8	32.26
194.02	-37.38
194.239	19.97
194.458	110.08
194.678	28.16
194.897	118.27
195.116	34.3
195.335	65.02
195.555	81.41
195.774	-41.47
195.993	79.36
196.212	-41.47
196.432	30.21
196.651	-6.66
196.87	-14.85
197.089	110.08
197.308	22.02
197.528	-45.57
197.747	-33.28
197.966	7.68
198.185	36.35
198.404	48.64
198.623	13.82
198.842	56.83
199.062	5.63
199.281	54.78
199.5	71.17
199.719	-68.09
199.938	54.78
200.157	67.07
200.376	-31.23
200.595	62.98
200.814	97.79
201.033	56.83
201.252	22.02
201.471	44.54
201.69	52.74
201.909	75.26
202.128	73.21
202.347	81.41
202.566	52.74
202.785	-10.75
203.004	-37.38
203.223	122.37
203.442	50.69
203.661	-16.9
203.879	-41.47
204.098	142.85
204.317	-18.94
204.536	15.87
204.755	58.88
204.974	52.74
205.193	32.26
205.411	81.41
205.63	40.45
205.849	52.74
206.068	-43.52
206.287	32.26
206.505	75.26
206.724	9.73
206.943	54.78
207.162	-16.9
207.381	118.27
207.599	-35.33
207.818	-10.75
208.037	48.64
208.255	-18.94
208.474	15.87
208.693	13.82
208.911	34.3
209.13	15.87
209.349	69.12
209.567	79.36
209.786	79.36
210.005	52.74
210.223	89.6
210.442	5.63
210.661	-2.56
210.879	5.63
211.098	19.97
211.316	-23.04
211.535	-0.51
211.753	-2.56
211.972	69.12
212.191	-0.51
212.409	36.35
212.628	65.02
212.846	40.45
213.065	97.79
213.283	136.7
213.502	-0.51
213.72	15.87
213.938	24.06
214.157	116.22
214.375	-2.56
214.594	-8.7
214.812	114.17
215.031	-16.9
215.249	1.54
215.467	65.02
215.686	-2.56
215.904	112.13
216.122	-31.23
216.341	46.59
216.559	11.78
216.778	42.5
216.996	148.99
217.214	15.87
217.432	-0.51
217.651	65.02
217.869	77.31
218.087	34.3
218.306	9.73
218.524	83.45
218.742	-2.56
218.96	48.64
219.179	38.4
219.397	-12.8
219.615	56.83
219.833	26.11
220.051	65.02
220.27	67.07
220.488	-16.9
220.706	60.93
220.924	40.45
221.142	5.63
221.36	48.64
221.578	38.4
221.796	79.36
222.015	50.69
222.233	-35.33
222.451	87.55
222.669	11.78
222.887	-8.7
223.105	40.45
223.323	56.83
223.541	44.54
223.759	9.73
223.977	38.4
224.195	56.83
224.413	42.5
224.631	65.02
224.849	101.89
225.067	93.69
225.285	-10.75
225.503	15.87
225.721	17.92
225.939	56.83
226.157	46.59
226.375	48.64
226.592	48.64
226.81	19.97
227.028	30.21
227.246	134.65
227.464	-0.51
227.682	91.65
227.9	30.21
228.117	-8.7
228.335	69.12
228.553	19.97
228.771	19.97
228.989	24.06
229.206	81.41
229.424	28.16
229.642	15.87
229.86	-35.33
230.077	24.06
230.295	40.45
230.513	159.23
230.731	60.93
230.948	17.92
231.166	87.55
231.384	52.74
231.601	-12.8
231.819	71.17
232.037	62.98
232.254	-27.14
232.472	26.11
232.689	-59.9
232.907	114.17
233.125	-0.51
233.342	32.26
233.56	9.73
233.777	118.27
233.995	-43.52
234.213	77.31
234.43	65.02
234.648	48.64
234.865	38.4
235.083	40.45
235.3	19.97
235.518	52.74
235.735	38.4
235.953	54.78
236.17	7.68
236.388	9.73
236.605	5.63
236.822	81.41
237.04	-2.56
237.257	122.37
237.475	-25.09
237.692	62.98
237.909	-14.85
238.127	-25.09
238.344	5.63
238.562	9.73
238.779	48.64
238.996	40.45
239.214	44.54
239.431	42.5
239.648	38.4
239.865	7.68
240.083	1.54
240.3	50.69
240.517	-37.38
240.735	32.26
240.952	-0.51
241.169	116.22
241.386	15.87
241.603	40.45
241.821	-16.9
242.038	103.93
242.255	97.79
242.472	19.97
242.689	73.21
242.907	42.5
243.124	48.64
243.341	69.12
243.558	-10.75
243.775	-2.56
243.992	-16.9
244.209	5.63
244.426	13.82
244.643	38.4
244.86	-10.75
245.078	38.4
245.295	-29.18
245.512	93.69
245.729	24.06
245.946	71.17
246.163	38.4
246.38	52.74
246.597	56.83
246.814	-10.75
247.031	17.92
247.248	114.17
247.464	13.82
247.681	60.93
247.898	97.79
248.115	85.5
248.332	-18.94
248.549	24.06
248.766	89.6
248.983	83.45
249.2	36.35
249.417	56.83
249.633	28.16
249.85	44.54
250.067	34.3
250.284	52.74
250.501	85.5
250.717	26.11
250.934	-8.7
251.151	-27.14
251.368	52.74
251.585	15.87
251.801	13.82
252.018	44.54
252.235	-16.9
252.451	13.82
252.668	15.87
252.885	40.45
253.102	71.17
253.318	36.35
253.535	11.78
253.752	40.45
253.968	-8.7
254.185	-33.28
254.401	-12.8
254.618	71.17
254.835	-10.75
255.051	11.78
255.268	58.88
255.484	24.06
255.701	105.98
255.917	30.21
256.134	3.58
256.351	-4.61
256.567	-33.28
256.784	3.58
257	-57.86
257.217	146.94
257.433	-12.8
257.65	83.45
257.866	32.26
258.082	40.45
258.299	52.74
258.515	-0.51
258.732	5.63
258.948	1.54
259.165	5.63
259.381	40.45
259.597	22.02
259.814	50.69
260.03	40.45
260.246	-16.9
260.463	67.07
260.679	126.46
260.895	3.58
261.112	28.16
261.328	-4.61
261.544	44.54
261.761	146.94
261.977	-12.8
262.193	-6.66
262.409	69.12
262.626	28.16
262.842	93.69
263.058	-51.71
263.274	19.97
263.49	60.93
263.707	108.03
263.923	128.51
264.139	60.93
264.355	3.58
264.571	122.37
264.787	95.74
265.004	71.17
265.22	56.83
265.436	11.78
265.652	13.82
265.868	1.54
266.084	-0.51
266.3	56.83
266.516	52.74
266.732	-37.38
266.948	-29.18
267.164	-33.28
267.38	105.98
267.596	81.41
267.812	56.83
268.028	28.16
268.244	60.93
268.46	67.07
268.676	56.83
268.892	50.69
269.108	-16.9
269.324	58.88
269.54	13.82
269.756	87.55
269.972	22.02
270.188	17.92
270.403	56.83
270.619	-2.56
270.835	91.65
271.051	1.54
271.267	22.02
271.483	26.11
271.698	87.55
271.914	67.07
272.13	17.92
272.346	42.5
272.562	91.65
272.777	36.35
272.993	-31.23
273.209	9.73
273.425	75.26
273.64	69.12
273.856	1.54
274.072	-37.38
274.287	-20.99
274.503	17.92
274.719	79.36
274.934	48.64
275.15	46.59
275.366	-14.85
275.581	54.78
275.797	3.58
276.012	17.92
276.228	48.64
276.444	13.82
276.659	69.12
276.875	11.78
277.09	56.83
277.306	62.98
277.521	93.69
277.737	46.59
277.952	56.83
278.168	28.16
278.383	95.74
278.599	-4.61
278.814	85.5
279.03	7.68
279.245	52.74
279.461	11.78
279.676	28.16
279.892	-25.09
280.107	56.83
280.322	44.54
280.538	40.45
280.753	89.6
280.969	1.54
281.184	3.58
281.399	126.46
281.615	40.45
281.83	73.21
282.045	-14.85
282.26	-29.18
282.476	73.21
282.691	-41.47
282.906	-29.18
283.122	30.21
283.337	-0.51
283.552	60.93
283.767	52.74
283.983	17.92
284.198	-41.47
284.413	19.97
284.628	-53.76
284.843	38.4
285.058	40.45
285.274	97.79
285.489	5.63
285.704	87.55
285.919	22.02
286.134	24.06
286.349	65.02
286.564	-16.9
286.779	38.4
286.995	13.82
287.21	-25.09
287.425	42.5
287.64	65.02
287.855	40.45
288.07	40.45
288.285	93.69
288.5	15.87
288.715	60.93
288.93	81.41
289.145	17.92
289.36	146.94
289.575	-10.75
289.79	-20.99
290.004	11.78
290.219	3.58
290.434	54.78
290.649	-10.75
290.864	69.12
291.079	50.69
291.294	3.58
291.509	52.74
291.724	-0.51
291.938	-41.47
292.153	26.11
292.368	58.88
292.583	-43.52
292.798	97.79
293.012	73.21
293.227	54.78
293.442	7.68
293.657	32.26
293.871	62.98
294.086	-23.04
294.301	38.4
294.516	32.26
294.73	24.06
294.945	71.17
295.16	105.98
295.374	89.6
295.589	81.41
295.804	26.11
296.018	-0.51
296.233	77.31
296.447	28.16
296.662	-49.66
296.877	56.83
297.091	-4.61
297.306	36.35
297.52	-31.23
297.735	19.97
297.949	62.98
298.164	81.41
298.378	-18.94
298.593	26.11
298.807	-12.8
299.022	42.5
299.236	-14.85
299.451	19.97
299.665	60.93
299.88	110.08
300.094	42.5
300.309	46.59
300.523	32.26
300.737	-39.42
300.952	54.78
301.166	48.64
301.381	3.58
301.595	85.5
301.809	-0.51
302.024	-14.85
302.238	97.79
302.452	77.31
302.667	54.78
302.881	30.21
303.095	19.97
303.309	67.07
303.524	114.17
303.738	60.93
303.952	-6.66
304.166	24.06
304.381	24.06
304.595	171.52
304.809	19.97
305.023	17.92
305.237	1.54
305.452	1.54
305.666	77.31
305.88	-12.8
306.094	15.87
306.308	7.68
306.522	89.6
306.736	48.64
306.95	77.31
307.164	5.63
307.379	11.78
307.593	56.83
307.807	73.21
308.021	52.74
308.235	52.74
308.449	89.6
308.663	54.78
308.877	130.56
309.091	44.54
309.305	48.64
309.519	-41.47
309.733	105.98
309.947	-2.56
310.161	95.74
310.374	42.5
310.588	38.4
310.802	-33.28
311.016	3.58
311.23	103.93
311.444	32.26
311.658	32.26
311.872	36.35
312.085	13.82
312.299	30.21
312.513	75.26
312.727	79.36
312.941	1.54
313.154	97.79
313.368	32.26
313.582	85.5
313.796	11.78
314.009	-8.7
314.223	62.98
314.437	-20.99
314.651	40.45
314.864	-41.47
315.078	95.74
315.292	-23.04
315.505	-0.51
315.719	67.07
315.933	128.51
316.146	36.35
316.36	26.11
316.573	108.03
316.787	71.17
317.001	95.74
317.214	-29.18
317.428	42.5
317.641	44.54
317.855	62.98
318.068	48.64
318.282	-12.8
318.495	122.37
318.709	40.45
318.922	89.6
319.136	44.54
319.349	73.21
319.563	24.06
319.776	5.63
319.99	-12.8
320.203	77.31
320.417	32.26
320.63	50.69
320.843	108.03
321.057	15.87
321.27	-31.23
321.483	40.45
321.697	58.88
321.91	13.82
322.124	71.17
322.337	3.58
322.55	79.36
322.763	3.58
322.977	32.26
323.19	24.06
323.403	58.88
323.617	62.98
323.83	122.37
324.043	42.5
324.256	-16.9
324.469	24.06
324.683	87.55
324.896	36.35
325.109	28.16
325.322	26.11
325.535	56.83
325.748	62.98
325.962	75.26
326.175	44.54
326.388	-8.7
326.601	77.31
326.814	44.54
327.027	93.69
327.24	69.12
327.453	-29.18
327.666	62.98
327.879	-16.9
328.092	24.06
328.305	97.79
328.518	32.26
328.731	13.82
328.944	36.35
329.157	67.07
329.37	-45.57
329.583	62.98
329.796	132.61
330.009	62.98
330.222	97.79
330.435	13.82
330.648	-39.42
330.861	87.55
331.073	101.89
331.286	32.26
331.499	3.58
331.712	24.06
331.925	28.16
332.138	48.64
332.35	32.26
332.563	-16.9
332.776	81.41
332.989	-18.94
333.202	40.45
333.414	44.54
333.627	32.26
333.84	11.78
334.053	48.64
334.265	48.64
334.478	50.69
334.691	67.07
334.903	36.35
335.116	13.82
335.329	19.97
335.541	71.17
335.754	97.79
335.966	52.74
336.179	62.98
336.392	40.45
336.604	46.59
336.817	126.46
337.029	108.03
337.242	-74.24
337.454	32.26
337.667	81.41
337.88	3.58
338.092	9.73
338.305	60.93
338.517	-25.09
338.729	85.5
338.942	75.26
339.154	13.82
339.367	-10.75
339.579	52.74
339.792	52.74
340.004	75.26
340.217	-6.66
340.429	67.07
340.641	58.88
340.854	11.78
341.066	48.64
341.278	85.5
341.491	67.07
341.703	36.35
341.915	54.78
342.128	105.98
342.34	-4.61
342.552	26.11
342.764	73.21
342.977	7.68
343.189	79.36
343.401	62.98
343.613	71.17
343.826	75.26
344.038	-4.61
344.25	17.92
344.462	30.21
344.674	97.79
344.886	13.82
345.099	36.35
345.311	73.21
345.523	65.02
345.735	67.07
345.947	44.54
346.159	54.78
346.371	79.36
346.583	65.02
346.795	73.21
347.007	-33.28
347.219	99.84
347.431	50.69
347.643	112.13
347.855	36.35
348.067	56.83
348.279	48.64
348.491	13.82
348.703	38.4
348.915	38.4
349.127	-51.71
349.339	-0.51
349.551	24.06
349.763	58.88
349.975	95.74
350.187	52.74
350.399	28.16
350.61	9.73
350.822	54.78
351.034	71.17
351.246	-18.94
351.458	65.02
351.669	-6.66
351.881	56.83
352.093	85.5
352.305	103.93
352.517	56.83
352.728	114.17
352.94	7.68
353.152	40.45
353.363	1.54
353.575	58.88
353.787	85.5
353.999	19.97
354.21	101.89
354.422	-35.33
354.633	30.21
354.845	71.17
355.057	17.92
355.268	67.07
355.48	58.88
355.692	167.42
355.903	-47.62
356.115	-41.47
356.326	7.68
356.538	120.32
356.749	36.35
356.961	95.74
357.172	28.16
357.384	54.78
357.595	83.45
357.807	48.64
358.018	75.26
358.23	11.78
358.441	30.21
358.653	62.98
358.864	77.31
359.075	110.08
359.287	56.83
359.498	171.52
359.709	-20.99
359.921	40.45
360.132	48.64
360.344	81.41
360.555	46.59
360.766	26.11
360.977	30.21
361.189	87.55
361.4	-27.14
361.611	89.6
361.823	-53.76
362.034	114.17
362.245	-49.66
362.456	44.54
362.667	85.5
362.879	24.06
363.09	118.27
363.301	85.5
363.512	87.55
363.723	101.89
363.935	58.88
364.146	24.06
364.357	91.65
364.568	48.64
364.779	62.98
364.99	122.37
365.201	7.68
365.412	-8.7
365.623	3.58
365.834	81.41
366.045	58.88
366.256	50.69
366.467	54.78
366.678	81.41
366.889	81.41
367.1	71.17
367.311	81.41
367.522	48.64
367.733	40.45
367.944	71.17
368.155	48.64
368.366	34.3
368.577	71.17
368.788	71.17
368.999	13.82
369.209	87.55
369.42	132.61
369.631	71.17
369.842	110.08
370.053	34.3
370.264	81.41
370.474	42.5
370.685	103.93
370.896	69.12
371.107	79.36
371.317	48.64
371.528	24.06
371.739	60.93
371.95	173.57
372.16	77.31
372.371	32.26
372.582	99.84
372.792	50.69
373.003	52.74
373.214	24.06
373.424	81.41
373.635	91.65
373.846	48.64
374.056	5.63
374.267	60.93
374.477	69.12
374.688	136.7
374.898	56.83
375.109	62.98
375.319	85.5
375.53	87.55
375.74	91.65
375.951	81.41
376.161	9.73
376.372	1.54
376.582	-33.28
376.793	56.83
377.003	36.35
377.214	-8.7
377.424	79.36
377.635	19.97
377.845	71.17
378.055	146.94
378.266	75.26
378.476	-14.85
378.686	85.5
378.897	46.59
379.107	40.45
379.317	122.37
379.528	46.59
379.738	77.31
379.948	48.64
380.158	48.64
380.369	28.16
380.579	95.74
380.789	-8.7
380.999	120.32
381.21	81.41
381.42	110.08
381.63	-0.51
381.84	73.21
382.05	3.58
382.261	83.45
382.471	24.06
382.681	81.41
382.891	114.17
383.101	36.35
383.311	-10.75
383.521	28.16
383.731	15.87
383.941	65.02
384.151	7.68
384.361	-6.66
384.571	79.36
384.781	40.45
384.991	122.37
385.201	89.6
385.411	89.6
385.621	24.06
385.831	83.45
386.041	52.74
386.251	87.55
386.461	28.16
386.671	93.69
386.881	5.63
387.091	1.54
387.301	60.93
387.511	52.74
387.72	128.51
387.93	58.88
388.14	36.35
388.35	73.21
388.56	44.54
388.769	101.89
388.979	65.02
389.189	69.12
389.399	30.21
389.609	32.26
389.818	42.5
390.028	40.45
390.238	112.13
390.447	71.17
390.657	52.74
390.867	71.17
391.076	44.54
391.286	69.12
391.496	161.28
391.705	85.5
391.915	95.74
392.125	144.89
392.334	77.31
392.544	108.03
392.753	60.93
392.963	87.55
393.172	40.45
393.382	54.78
393.591	144.89
393.801	75.26
394.01	146.94
394.22	179.71
394.429	13.82
394.639	93.69
394.848	58.88
395.058	142.85
395.267	77.31
395.477	105.98
395.686	130.56
395.895	89.6
396.105	124.41
396.314	169.47
396.524	65.02
396.733	89.6
396.942	97.79
397.152	179.71
397.361	105.98
397.57	38.4
397.78	114.17
397.989	138.75
398.198	183.81
398.407	144.89
398.617	128.51
398.826	126.46
399.035	105.98
399.244	130.56
399.453	128.51
399.663	132.61
399.872	220.67
400.081	136.7
400.29	200.19
400.499	146.94
400.708	179.71
400.917	87.55
401.127	79.36
401.336	130.56
401.545	124.41
401.754	140.8
401.963	99.84
402.172	146.94
402.381	112.13
402.59	169.47
402.799	169.47
403.008	153.09
403.217	124.41
403.426	130.56
403.635	32.26
403.844	101.89
404.053	157.18
404.262	155.13
404.471	196.09
404.68	155.13
404.888	163.33
405.097	71.17
405.306	185.85
405.515	155.13
405.724	232.96
405.933	167.42
406.142	208.38
406.35	273.92
406.559	194.05
406.768	241.15
406.977	206.33
407.185	202.24
407.394	151.04
407.603	228.86
407.812	253.44
408.02	280.06
408.229	273.92
408.438	179.71
408.646	280.06
408.855	261.63
409.064	275.96
409.272	280.06
409.481	325.12
409.69	286.2
409.898	343.55
410.107	364.03
410.315	298.49
410.524	318.97
410.733	429.56
410.941	382.46
411.15	364.03
411.358	366.07
411.567	441.85
411.775	480.76
411.984	404.99
412.192	480.76
412.401	452.09
412.609	425.47
412.818	466.42
413.026	507.38
413.234	538.1
413.443	591.35
413.651	636.41
413.86	636.41
414.068	626.17
414.276	728.56
414.485	632.31
414.693	671.22
414.901	757.24
415.11	822.77
415.318	738.8
415.526	777.72
415.734	896.5
415.943	859.63
416.151	851.44
416.359	878.07
416.567	968.18
416.776	1023.47
416.984	1060.34
417.192	1105.39
417.4	953.84
417.608	1086.96
417.817	1058.29
418.025	1183.21
418.233	1338.86
418.441	1234.41
418.649	1191.41
418.857	1412.59
419.065	1404.39
419.273	1357.29
419.481	1494.51
419.689	1539.56
419.897	1641.96
420.105	1713.64
420.313	1664.49
420.521	1750.5
420.729	1752.55
420.937	1832.42
421.145	1818.08
421.353	2010.59
421.561	2059.74
421.769	2207.2
421.977	2260.45
422.185	2229.73
422.393	2391.52
422.601	2551.26
422.809	2493.91
423.017	2571.74
423.224	2653.66
423.432	2803.16
423.64	2770.39
423.848	2966.99
424.056	2754.01
424.263	3053.01
424.471	3120.59
424.679	3192.27
424.887	3513.8
425.094	3507.66
425.302	3526.09
425.51	3495.37
425.718	3608.01
425.925	3823.05
426.133	3751.37
426.341	3982.79
426.548	4148.67
426.756	4230.59
426.964	4371.9
427.171	4574.65
427.379	4718.01
427.586	4799.93
427.794	4922.8
428.001	5057.97
428.209	5457.32
428.417	5203.38
428.624	5537.2
428.832	5733.8
429.039	5766.57
429.247	5512.62
429.454	6186.4
429.662	6659.48
429.869	6249.89
430.076	6583.71
430.284	6434.21
430.491	6581.66
430.699	7040.4
430.906	7036.31
431.114	7200.15
431.321	7345.55
431.528	7576.97
431.736	8019.33
431.943	8547.71
432.15	8111.49
432.358	8375.68
432.565	8639.87
432.772	8617.34
432.979	9078.13
433.187	9170.29
433.394	9250.16
433.601	10046.82
433.808	10210.66
434.016	9860.46
434.223	10425.7
434.43	10956.12
434.637	10579.29
434.844	11507.02
435.052	11713.87
435.259	11459.92
435.466	11330.9
435.673	11468.11
435.88	12268.87
436.087	13114.68
436.294	13208.89
436.501	12569.92
436.708	12832.06
436.915	13186.36
437.122	13921.58
437.329	13735.21
437.537	14392.61
437.743	14345.51
437.95	14458.15
438.157	15168.79
438.364	15658.26
438.571	15478.04
438.778	15727.89
438.985	16991.48
439.192	16403.72
439.399	16997.63
439.606	16549.12
439.813	17448.18
440.02	18683.11
440.227	18306.28
440.433	18162.92
440.64	18738.4
440.847	18631.91
441.054	18914.53
441.261	20282.57
441.467	19954.9
441.674	20624.58
441.881	21470.39
442.088	20929.73
442.294	20872.39
442.501	21830.83
442.708	22031.54
442.914	23102.62
443.121	23516.31
443.328	23198.88
443.534	24624.26
443.741	23887
443.948	23471.26
444.154	25341.05
444.361	25099.39
444.568	25648.25
444.774	25359.49
444.981	25537.66
445.187	26502.25
445.394	27569.24
445.6	27151.46
445.807	29879.35
446.013	28390.48
446.22	29062.21
446.426	29828.15
446.633	30118.96
446.839	31120.42
447.046	30071.86
447.252	32033.82
447.459	31679.52
447.665	31681.56
447.871	32623.63
448.078	34165.75
448.284	32513.04
448.491	33418.24
448.697	34665.46
448.903	35238.89
449.11	35374.05
449.316	34628.59
449.522	35034.09
449.728	36621.27
449.935	36289.49
450.141	36398.04
450.347	37350.34
450.553	35918.81
450.76	36469.72
450.966	37725.12
451.172	37151.69
451.378	37974.97
451.584	37125.07
451.791	37852.09
451.997	37594.05
452.203	38452.15
452.409	38507.44
452.615	38403
452.821	36955.08
453.027	36688.85
453.233	38618.03
453.44	36580.31
453.646	37393.35
453.852	37354.44
454.058	37931.97
454.264	36608.98
454.47	37536.71
454.676	36522.96
454.882	37774.27
455.088	34227.19
455.294	35007.47
455.5	35204.07
455.705	35650.53
455.911	34341.88
456.117	33494.02
456.323	32971.78
456.529	31317.03
456.735	32619.53
456.941	31738.91
457.147	31239.2
457.352	30321.71
457.558	29926.46
457.764	30028.85
457.97	29410.37
458.176	28740.68
458.381	28894.28
458.587	27341.92
458.793	27585.63
458.999	26006.64
459.204	27528.28
459.41	27030.63
459.616	25619.58
459.821	25171.07
460.027	25003.14
460.233	24523.91
460.438	23370.91
460.644	23667.86
460.85	22652.07
461.055	22265
461.261	22138.03
461.466	20688.07
461.672	19977.42
461.878	21322.94
462.083	20165.84
462.289	19778.77
462.494	19563.73
462.7	18470.12
462.905	18046.19
463.111	18943.2
463.316	18935.01
463.522	18400.49
463.727	18408.68
463.932	18300.14
464.138	18267.37
464.343	18093.29
464.549	17917.17
464.754	18359.53
464.959	18246.89
465.165	18031.85
465.37	17409.27
465.575	17022.2
465.781	17681.65
465.986	17628.4
466.191	16737.54
466.397	16731.39
466.602	15854.86
466.807	16663.81
467.012	16635.14
467.218	16524.55
467.423	16465.16
467.628	16364.81
467.833	17114.36
468.038	16473.35
468.244	15901.97
468.449	16571.65
468.654	15951.12
468.859	16080.14
469.064	15944.97
469.269	15086.87
469.474	15340.82
469.679	15389.97
469.885	15211.8
470.09	15273.24
470.295	15158.55
470.5	14982.43
470.705	15170.84
470.91	14513.44
471.115	14413.09
471.32	14779.68
471.525	14515.49
471.73	14183.72
471.935	14322.98
472.139	13767.98
472.344	13942.06
472.549	13866.28
472.754	13718.83
472.959	13335.86
473.164	13081.91
473.369	12838.2
473.574	13235.51
473.778	13153.59
473.983	13118.78
474.188	13217.08
474.393	12401.99
474.598	12524.86
474.802	12483.91
475.007	12336.45
475.212	12201.29
475.417	11779.4
475.621	11906.38
475.826	11910.47
476.031	11558.22
476.235	11656.53
476.44	11863.37
476.645	11347.28
476.849	11494.74
477.054	11234.64
477.259	11111.77
477.463	11171.16
477.668	10904.92
477.872	10978.65
478.077	10792.28
478.282	10452.32
478.486	10505.57
478.691	10591.58
478.895	10419.55
479.1	10450.27
479.304	10327.39
479.509	9960.81
479.713	10270.05
479.918	10116.45
480.122	9882.99
480.326	10104.17
480.531	10122.6
480.735	9975.14
480.94	9741.68
481.144	10136.93
481.348	9735.53
481.553	9848.17
481.757	9758.06
481.961	9661.8
482.166	9770.35
482.37	9563.5
482.574	9657.71
482.778	9735.53
482.983	9786.73
483.187	9571.69
483.391	9817.45
483.595	9676.14
483.8	9649.52
484.004	9733.48
484.208	9796.97
484.412	9653.61
484.616	9774.44
484.821	9604.46
485.025	9416.05
485.229	9485.68
485.433	9713
485.637	9827.69
485.841	9561.45
486.045	9657.71
486.249	9706.86
486.453	9694.57
486.657	9608.56
486.861	9784.68
487.065	9522.54
487.269	9571.69
487.473	9483.63
487.677	9756.01
487.881	9631.09
488.085	9696.62
488.289	9717.1
488.493	9586.03
488.697	9831.79
488.901	9598.32
489.105	9835.88
489.309	9563.5
489.512	9700.72
489.716	9713
489.92	9889.13
490.124	9887.08
490.328	9756.01
490.531	9788.78
490.735	9858.41
490.939	9895.27
491.143	9833.83
491.346	9725.29
491.55	10052.97
491.754	10032.49
491.958	10130.79
492.161	10243.43
492.365	10116.45
492.569	10081.64
492.772	10044.77
492.976	10284.39
493.18	10427.74
493.383	10403.17
493.587	10591.58
493.79	10614.11
493.994	10390.88
494.197	10517.86
494.401	10483.04
494.605	10761.56
494.808	10855.77
495.012	10792.28
495.215	10769.76
495.419	11068.76
495.622	11115.86
495.825	11328.85
496.029	11435.35
496.232	11595.09
496.436	11562.32
496.639	11834.7
496.843	11697.49
497.046	11824.46
497.249	11857.23
497.453	12133.7
497.656	12336.45
497.859	12199.24
498.063	12381.51
498.266	12553.54
498.469	12666.17
498.673	12746.05
498.876	12916.03
499.079	12913.98
499.282	13057.34
499.485	13407.54
499.689	13241.65
499.892	13897
500.095	13778.22
500.298	13968.68
500.501	13804.85
500.705	14296.36
500.908	14626.08
501.111	14523.68
501.314	14798.11
501.517	14808.35
501.72	15187.22
501.923	15041.82
502.126	15420.69
502.329	15588.63
502.532	15645.97
502.735	15803.66
502.938	16090.38
503.141	16184.59
503.344	16569.6
503.547	16528.64
503.75	16805.12
503.953	16835.84
504.156	17196.28
504.359	17196.28
504.562	17167.61
504.765	17861.87
504.968	17919.21
505.17	18048.24
505.373	17939.69
505.576	18570.47
505.779	18754.79
505.982	18724.07
506.185	19205.34
506.387	19061.98
506.59	19479.77
506.793	20002
506.996	19578.07
507.198	20247.76
507.401	19926.22
507.604	20460.74
507.807	20483.27
508.009	20782.27
508.212	20974.78
508.415	21198.01
508.617	21314.75
508.82	21312.7
509.022	21486.78
509.225	22058.16
509.428	22533.29
509.63	22428.84
509.833	22607.02
510.035	23166.11
510.238	22994.08
510.44	23667.86
510.643	23909.52
510.845	24200.33
511.048	23862.42
511.25	24136.85
511.453	24577.16
511.655	25293.95
511.858	25003.14
512.06	25201.79
512.262	25590.91
512.465	25410.68
512.667	26160.24
512.87	26236.02
513.072	26354.8
513.274	26795.11
513.477	26764.39
513.679	27335.77
513.881	27178.08
514.084	27808.86
514.286	27411.55
514.488	28105.81
514.69	28855.37
514.893	28816.46
515.095	28830.79
515.297	29295.68
515.499	29232.19
515.701	29660.22
515.904	30100.53
516.106	30346.29
516.308	30620.72
516.51	31245.35
516.712	30919.72
516.914	30897.19
517.116	31517.73
517.318	31888.41
517.52	32138.26
517.722	32449.55
517.925	32752.65
518.127	32961.55
518.329	33223.69
518.531	33258.5
518.733	33786.88
518.935	34071.54
519.136	34165.75
519.338	35015.66
519.54	35034.09
519.742	35406.82
519.944	35005.42
520.146	36053.98
520.348	36377.56
520.55	36498.39
520.752	36574.16
520.954	37202.89
521.155	36903.88
521.357	37612.48
521.559	37577.67
521.761	38114.23
521.963	38527.92
522.164	38777.78
522.366	38679.47
522.568	39130.03
522.77	39652.26
522.971	39941.02
523.173	39576.48
523.375	39947.17
523.576	40143.77
523.778	40334.23
523.98	41063.31
524.181	40604.56
524.383	41145.23
524.584	41577.35
524.786	41677.7
524.988	41853.83
525.189	42013.57
525.391	42333.05
525.592	42535.8
525.794	43117.42
525.995	42863.47
526.197	43094.89
526.398	42840.95
526.6	43369.32
526.801	43834.21
527.003	43950.95
527.204	43846.5
527.406	44323.68
527.607	44376.92
527.808	44589.91
528.01	44133.21
528.211	44569.43
528.412	44854.1
528.614	45067.09
528.815	45394.76
529.016	45538.12
529.218	45278.03
529.419	45548.36
529.62	45583.18
529.822	45851.46
530.023	45617.99
530.224	45953.86
530.425	45882.18
530.626	45978.43
530.828	45515.59
531.029	46662.46
531.23	45810.5
531.431	46345.02
531.632	46220.09
531.833	46861.11
532.035	46830.39
532.236	46615.35
532.437	46611.26
532.638	46805.81
532.839	46727.99
533.04	47518.51
533.241	46525.24
533.442	47641.39
533.643	47209.26
533.844	47455.02
534.045	47227.7
534.246	47174.45
534.447	47754.02
534.648	47321.9
534.849	47674.15
535.05	47108.91
535.251	47483.69
535.451	47524.65
535.652	47579.95
535.853	47483.69
536.054	47547.18
536.255	47862.57
536.456	47342.38
536.657	48079.65
536.857	47213.36
537.058	47305.52
537.259	48390.94
537.46	47723.3
537.66	47649.58
537.861	47842.09
538.062	47407.92
538.263	48182.05
538.463	47538.99
538.664	47678.25
538.865	47983.4
539.065	47893.29
539.266	47688.49
539.466	48192.29
539.667	47448.88
539.868	47606.57
540.068	47833.89
540.269	47915.81
540.469	47852.33
540.67	47520.55
540.87	48046.88
541.071	47620.91
541.271	48395.04
541.472	47926.05
541.672	47702.82
541.873	47553.32
542.073	47412.01
542.274	48153.38
542.474	47522.6
542.675	47682.34
542.875	48106.27
543.075	47227.7
543.276	47207.22
543.476	47989.54
543.676	47301.42
543.877	47772.46
544.077	47526.7
544.277	47770.41
544.478	47801.13
544.678	47825.7
544.878	47579.95
545.078	48001.83
545.279	47682.34
545.479	47616.81
545.679	47866.66
545.879	47481.64
546.079	47749.93
546.28	47461.16
546.48	47446.83
546.68	47592.23
546.88	47762.22
547.08	47682.34
547.28	47733.54
547.48	47106.87
547.68	47555.37
547.88	47735.59
548.081	48061.22
548.281	47866.66
548.481	47094.58
548.681	48050.98
548.881	47700.78
549.081	47223.6
549.28	47227.7
549.48	47625
549.68	47520.55
549.88	47973.16
550.08	47405.87
550.28	47117.11
550.48	47514.41
550.68	47983.4
550.88	47188.78
551.08	47338.29
551.279	47432.49
551.479	46832.44
551.679	47502.12
551.879	47287.09
552.079	48022.31
552.278	47444.78
552.478	47747.88
552.678	47371.05
552.878	47688.49
553.077	47412.01
553.277	46547.77
553.477	48087.84
553.676	47526.7
553.876	47203.12
554.076	47010.61
554.275	47219.5
554.475	47174.45
554.674	47473.45
554.874	47510.32
555.074	46852.92
555.273	47108.91
555.473	47067.95
555.672	47006.51
555.872	46992.18
556.071	46986.04
556.271	47254.32
556.47	46490.43
556.67	46736.18
556.869	46736.18
557.068	47098.67
557.268	46566.2
557.467	46334.78
557.667	46748.47
557.866	46500.67
558.065	46678.84
558.265	46076.74
558.464	46220.09
558.663	47031.09
558.863	45941.57
559.062	46715.7
559.261	45882.18
559.461	46689.08
559.66	45744.97
559.859	45976.39
560.058	45716.29
560.258	46162.75
560.457	45744.97
560.656	46033.73
560.855	45675.34
561.054	45933.38
561.253	45822.79
561.453	45806.41
561.652	45620.04
561.851	45810.5
562.05	45015.89
562.249	45392.72
562.448	45630.28
562.647	45515.59
562.846	45060.94
563.045	45146.96
563.244	45067.09
563.443	45138.77
563.642	44063.58
563.841	44780.37
564.04	44458.84
564.239	44872.53
564.438	44245.85
564.637	44407.64
564.836	44411.74
565.035	43877.22
565.234	44450.65
565.432	43647.85
565.631	43897.7
565.83	44327.77
566.029	44141.41
566.228	43641.7
566.427	43733.86
566.625	43369.32
566.824	42849.14
567.023	43553.64
567.222	42578.81
567.42	43461.48
567.619	42904.43
567.818	42830.71
568.016	42673.01
568.215	43107.18
568.414	42576.76
568.612	42734.45
568.811	42679.16
569.01	42396.54
569.208	42337.15
569.407	42496.89
569.605	41468.81
569.804	42349.43
570.002	42025.85
570.201	41616.26
570.4	41540.49
570.598	41427.85
570.797	41591.69
570.995	41542.53
571.193	41251.72
571.392	41462.66
571.59	40768.4
571.789	41335.69
571.987	41026.45
572.186	41016.21
572.384	40244.12
572.582	40895.38
572.781	40934.29
572.979	40051.61
573.177	40514.45
573.376	40661.91
573.574	40047.52
573.772	40399.77
573.971	39848.86
574.169	39693.22
574.367	39502.76
574.565	39877.54
574.763	39240.62
574.962	39486.37
575.16	38988.72
575.358	39836.58
575.556	38896.56
575.754	39416.74
575.952	38773.68
576.151	39359.4
576.349	38403
576.547	39084.97
576.745	38564.79
576.943	38308.79
577.141	38425.53
577.339	38347.7
577.537	37800.9
577.735	38011.84
577.933	38126.52
578.131	38124.47
578.329	37815.23
578.527	37700.54
578.725	37407.69
578.923	37741.5
579.121	37231.56
579.319	37436.36
579.516	37571.52
579.714	37438.4
579.912	36752.34
580.11	37272.52
580.308	36713.42
580.506	36901.84
580.704	36293.59
580.901	36973.52
581.099	36662.22
581.297	36211.67
581.495	36213.72
581.692	36512.72
581.89	35750.88
582.088	36244.44
582.285	35722.21
582.483	36455.38
582.681	36332.5
582.878	35505.12
583.076	35318.76
583.274	36086.75
583.471	35400.68
583.669	35597.28
583.866	35124.2
584.064	35681.25
584.262	34544.62
584.459	34927.6
584.657	34966.51
584.854	35363.81
585.052	34612.21
585.249	34757.61
585.447	34497.52
585.644	34284.53
585.841	34724.85
586.039	34485.23
586.236	33950.71
586.434	34010.11
586.631	34079.74
586.828	34128.89
587.026	33829.88
587.223	33496.06
587.42	33887.23
587.618	33895.42
587.815	33319.94
588.012	33149.96
588.21	33125.38
588.407	33184.77
588.604	33131.53
588.801	32830.48
588.999	32928.78
589.196	32822.28
589.393	32822.28
589.59	32404.5
589.787	32547.86
589.984	32375.83
590.182	32302.1
590.379	32551.95
590.576	32027.67
590.773	32089.11
590.97	31603.74
591.167	31996.95
591.364	31519.78
591.561	31585.31
591.758	31101.99
591.955	31454.24
592.152	31632.41
592.349	31214.63
592.546	31427.62
592.743	31382.56
592.94	30700.59
593.137	30858.28
593.334	30966.82
593.531	30299.19
593.727	30919.72
593.924	30506.03
594.121	30219.31
594.318	30766.12
594.515	29848.63
594.712	30344.24
594.908	30024.76
595.105	30336.05
595.302	29570.11
595.499	30018.61
595.696	29873.21
595.892	29713.47
596.089	29774.91
596.286	29860.92
596.482	29688.89
596.679	29355.07
596.876	29549.63
597.072	29111.36
597.269	29135.94
597.466	29162.56
597.662	28869.7
597.859	28965.96
598.055	28634.19
598.252	28810.31
598.448	28836.94
598.645	28351.57
598.841	28544.08
599.038	28335.18
599.234	28441.68
599.431	28191.83
599.627	28128.34
599.824	28134.48
600.02	27698.27
600.217	27757.66
600.413	27817.05
600.609	27665.5
600.806	27585.63
601.002	27538.52
601.198	27225.18
601.395	27198.56
601.591	27167.84
601.787	27346.01
601.984	26963.04
602.18	27401.31
602.376	26879.08
602.572	26877.03
602.769	26760.3
602.965	26758.25
603.161	26864.74
603.357	26385.52
603.553	26420.33
603.75	26348.65
603.946	26174.58
604.142	26328.17
604.338	26145.91
604.534	25836.66
604.73	25693.3
604.926	25879.67
605.122	25924.72
605.318	25547.9
605.514	25515.13
605.71	25570.43
605.906	25412.73
606.102	25320.57
606.298	25377.92
606.494	25289.85
606.69	25416.83
606.886	25322.62
607.082	24915.08
607.278	25199.74
607.474	24591.5
607.67	25083.01
607.866	24423.56
608.062	24958.08
608.257	24487.05
608.453	24390.8
608.649	25138.3
608.845	24173.71
609.041	24345.74
609.236	24378.51
609.432	24442
609.628	24298.64
609.824	24247.44
610.019	24237.2
610.215	24175.76
610.411	24110.22
610.606	24226.96
610.802	23995.54
610.998	23846.04
611.193	24030.35
611.389	23669.91
611.584	23860.37
611.78	23655.58
611.976	23700.63
612.171	23375
612.367	23471.26
612.562	23305.37
612.758	23051.42
612.953	23057.57
613.149	23530.65
613.344	23231.65
613.539	23536.79
613.735	23250.08
613.93	23311.52
614.126	23235.74
614.321	23057.57
614.517	22903.97
614.712	23137.44
614.907	22897.83
615.103	22697.13
615.298	22863.01
615.493	23051.42
615.688	22459.56
615.884	23051.42
616.079	22144.17
616.274	22508.71
616.47	22541.48
616.665	22367.4
616.86	22265
617.055	22146.22
617.25	22170.8
617.445	22244.52
617.641	21853.36
617.836	22068.4
618.031	21875.89
618.226	22178.99
618.421	21961.9
618.616	21845.17
618.811	21470.39
619.006	22105.26
619.201	21576.89
619.396	21693.62
619.591	21243.07
619.786	21365.95
619.981	21228.73
620.176	21087.42
620.371	20843.71
620.566	21222.59
620.761	20763.84
620.956	20964.54
621.151	20346.06
621.346	20491.46
621.541	20413.64
621.735	20536.52
621.93	20116.69
622.125	20333.77
622.32	19696.85
622.515	20016.33
622.709	19895.5
622.904	19774.67
623.099	19778.77
623.294	19862.74
623.488	19600.6
623.683	19533.01
623.878	19535.06
624.072	19340.5
624.267	19082.46
624.462	18967.77
624.656	18908.38
624.851	18922.72
625.046	18930.91
625.24	18625.76
625.435	18316.52
625.629	18560.23
625.824	18343.14
626.018	18402.54
626.213	17851.63
626.407	18158.83
626.602	17976.56
626.796	17908.97
626.991	17773.81
627.185	17491.19
627.38	17587.44
627.574	17378.55
627.768	17448.18
627.963	17169.66
628.157	17016.06
628.352	17120.51
628.546	16925.95
628.74	16938.24
628.935	16624.9
629.129	16682.24
629.323	16540.93
629.517	16628.99
629.712	16575.75
629.906	16702.72
630.1	16041.23
630.294	16065.8
630.489	16084.23
630.683	16024.84
630.877	15758.61
631.071	15854.86
631.265	15664.4
631.459	15492.37
631.653	15643.92
631.848	15613.2
632.042	15318.29
632.236	15514.9
632.43	15070.49
632.624	15537.43
632.818	15197.46
633.012	14900.51
633.206	14769.44
633.4	14988.57
633.594	14568.74
633.788	14972.19
633.982	14529.83
634.176	14779.68
634.369	14544.16
634.563	14400.8
634.757	14361.89
634.951	14349.61
635.145	14193.96
635.339	14187.82
635.533	14013.74
635.726	13956.4
635.92	13647.15
636.114	13796.65
636.308	13608.24
636.501	13710.64
636.695	13655.34
636.889	13251.89
637.083	13313.33
637.276	13516.08
637.47	13229.37
637.664	13456.69
637.857	13313.33
638.051	13428.02
638.244	12987.71
638.438	13174.07
638.632	12989.75
638.825	12680.51
639.019	12520.77
639.212	12811.58
639.406	12639.55
639.599	12406.08
639.793	12334.4
639.986	12412.23
640.18	12111.18
640.373	12414.27
640.567	12016.97
640.76	12025.16
640.954	12127.56
641.147	11846.99
641.34	11889.99
641.534	11801.93
641.727	11748.68
641.92	11693.39
642.114	11459.92
642.307	11525.46
642.5	11443.54
642.694	11437.39
642.887	11468.11
643.08	11402.58
643.273	11128.15
643.467	11175.25
643.66	10927.45
643.853	10984.79
644.046	11033.94
644.239	10992.98
644.432	10841.43
644.626	10902.87
644.819	10786.14
645.012	10802.52
645.205	10730.84
645.398	10698.08
645.591	10401.12
645.784	10544.48
645.977	10450.27
646.17	10437.98
646.363	10431.84
646.556	10202.47
646.749	10192.23
646.942	10270.05
647.135	10263.91
647.328	9995.62
647.521	10044.77
647.714	9895.27
647.907	9786.73
648.099	9930.09
648.292	9993.58
648.485	9934.18
648.678	9598.32
648.871	9493.87
649.064	9598.32
649.256	9600.37
649.449	9706.86
649.642	9393.52
649.835	9350.51
650.027	9254.26
650.22	9385.33
650.413	9239.92
650.605	9315.7
650.798	9139.57
650.991	9041.27
651.183	9264.5
651.376	8910.2
651.568	8996.21
651.761	8959.35
651.954	8992.12
652.146	8963.45
652.339	8977.78
652.531	8789.37
652.724	8764.79
652.916	8482.17
653.109	8471.93
653.301	8512.89
653.494	8682.88
653.686	8465.79
653.879	8453.5
654.071	8545.66
654.263	8228.23
654.456	8299.91
654.648	8134.02
654.84	8260.99
655.033	8078.72
655.225	8195.46
655.417	8150.4
655.61	8013.19
655.802	7837.06
655.994	7918.98
656.186	7976.33
656.379	7822.73
656.571	7816.58
656.763	7773.58
656.955	7744.91
657.148	7744.91
657.34	7779.72
657.532	7619.98
657.724	7507.34
657.916	7742.86
658.108	7515.53
658.3	7337.36
658.492	7450
658.684	7413.13
658.876	7464.33
659.068	7507.34
659.26	7181.71
659.452	7351.7
659.644	7220.63
659.836	7138.71
660.028	7273.87
660.22	6874.52
660.412	7044.5
660.604	7101.84
660.796	6921.62
660.988	6847.9
661.18	6974.87
661.372	6862.23
661.563	6962.58
661.755	6899.09
661.947	6770.07
662.139	6876.57
662.331	6532.51
662.522	6624.67
662.714	6643.1
662.906	6657.43
663.097	6626.71
663.289	6571.42
663.481	6507.93
663.673	6460.83
663.864	6403.49
664.056	6438.3
664.247	6565.28
664.439	6239.65
664.631	6374.81
664.822	6299.04
665.014	6270.37
665.205	6315.42
665.397	6372.77
665.588	6200.74
665.78	6116.77
665.971	6180.26
666.163	6147.49
666.354	6106.53
666.546	6208.93
666.737	5899.69
666.929	6036.9
667.12	6057.38
667.311	5916.07
667.503	5954.98
667.694	6028.71
667.885	5856.68
668.077	5922.21
668.268	5723.56
668.459	6024.61
668.651	5854.63
668.842	5860.77
669.033	5703.08
669.224	5883.3
669.416	5703.08
669.607	5731.75
669.798	5735.85
669.989	5725.61
670.18	5619.11
670.371	5684.65
670.563	5455.28
670.754	5711.27
670.945	5463.47
671.136	5594.54
671.327	5504.43
671.518	5584.3
671.709	5475.76
671.9	5414.32
672.091	5467.56
672.282	5426.61
672.473	5264.82
672.664	5426.61
672.855	5555.63
673.046	5420.46
673.237	5471.66
673.428	5326.25
673.619	5232.05
673.809	5193.14
674	5324.21
674.191	5406.13
674.382	5240.24
674.573	5375.41
674.764	5193.14
674.954	5209.52
675.145	5086.64
675.336	5133.75
675.527	5168.56
675.717	5240.24
675.908	5207.47
676.099	5094.83
676.289	5068.21
676.48	5189.04
676.671	5045.68
676.861	5127.6
677.052	5000.63
677.243	4976.05
677.433	4877.75
677.624	5096.88
677.814	4941.24
678.005	5041.59
678.195	4939.19
678.386	5115.31
678.576	4967.86
678.767	4959.67
678.957	4912.57
679.148	4971.96
679.338	4965.81
679.529	4881.85
679.719	4791.73
679.909	5060.02
680.1	4935.09
680.29	5045.68
680.481	4910.52
680.671	4885.94
680.861	4992.44
681.052	4945.33
681.242	5000.63
681.432	4971.96
681.622	4935.09
681.813	4902.33
682.003	4863.41
682.193	4832.69
682.383	4832.69
682.573	4810.17
682.764	4816.31
682.954	4892.09
683.144	4939.19
683.334	4746.68
683.524	4750.78
683.714	4791.73
683.904	4859.32
684.094	4791.73
684.284	4832.69
684.474	4771.26
684.664	4779.45
684.854	4789.69
685.044	4689.34
685.234	4699.58
685.424	4666.81
685.614	4664.76
685.804	4584.89
685.994	4664.76
686.184	4543.93
686.374	4681.14
686.564	4627.9
686.753	4554.17
686.943	4525.5
687.133	4709.82
687.323	4492.73
687.513	4664.76
687.702	4337.09
687.892	4500.92
688.082	4443.58
688.272	4500.92
688.461	4421.05
688.651	4419
688.841	4326.85
689.03	4382.14
689.22	4384.19
689.41	4517.31
689.599	4380.09
689.789	4382.14
689.979	4193.73
690.168	4283.84
690.358	4320.7
690.547	4269.5
690.737	4294.08
690.926	4259.26
691.116	4089.28
691.305	4152.77
691.495	4244.93
691.684	4253.12
691.874	4316.61
692.063	4214.21
692.252	4242.88
692.442	4181.44
692.631	4029.89
692.82	4060.61
693.01	3995.08
693.199	4001.22
693.388	4013.51
693.578	4009.41
693.767	4023.75
693.956	4042.18
694.146	3970.5
694.335	4085.19
694.524	4048.32
694.713	3964.36
694.902	3980.74
695.092	3978.69
695.281	3886.53
695.47	3880.39
695.659	4029.89
695.848	3808.71
696.037	3913.16
696.226	3874.24
696.415	3825.09
696.604	3843.53
696.793	3857.86
696.982	3861.96
697.171	3950.02
697.36	3925.44
697.549	3753.41
697.738	3839.43
697.927	3751.37
698.116	3896.77
698.305	3823.05
698.494	3730.89
698.683	3784.13
698.872	3849.67
699.061	3857.86
699.25	3827.14
699.438	3773.89
699.627	3825.09
699.816	3853.77
700.005	3812.81
700.193	3866.05
700.382	3683.78
700.571	3782.09
700.76	3763.65
700.948	3640.78
701.137	3761.61
701.326	3790.28
701.514	3777.99
701.703	3798.47
701.892	3794.37
702.08	3767.75
702.269	3753.41
702.457	3745.22
702.646	3698.12
702.834	3661.26
703.023	3681.74
703.212	3616.2
703.4	3825.09
703.589	3689.93
703.777	3847.62
703.965	3579.34
704.154	3675.59
704.342	3675.59
704.531	3730.89
704.719	3851.72
704.907	3825.09
705.096	3810.76
705.284	3730.89
705.472	3716.55
705.661	3816.9
705.849	3679.69
706.037	3845.57
706.226	3470.8
706.414	3661.26
706.602	3734.98
706.79	3636.68
706.979	3665.35
707.167	3626.44
707.355	3732.94
707.543	3749.32
707.731	3769.8
707.919	3706.31
708.107	3630.54
708.296	3673.54
708.484	3544.52
708.672	3636.68
708.86	3589.58
709.048	3823.05
709.236	3579.34
709.424	3665.35
709.612	3636.68
709.8	3765.7
709.988	3788.23
710.176	3669.45
710.364	3720.65
710.551	3585.48
710.739	3651.02
710.927	3624.39
711.115	3714.5
711.303	3712.46
711.491	3577.29
711.679	3630.54
711.866	3667.4
712.054	3759.56
712.242	3601.87
712.43	3755.46
712.617	3759.56
712.805	3648.97
712.993	3632.58
713.181	3601.87
713.368	3616.2
713.556	3714.5
713.744	3521.99
713.931	3751.37
714.119	3579.34
714.306	3743.17
714.494	3620.3
714.682	3741.13
714.869	3605.96
715.057	3708.36
715.244	3763.65
715.432	3628.49
715.619	3739.08
715.807	3657.16
715.994	3798.47
716.182	3648.97
716.369	3780.04
716.556	3763.65
716.744	3550.67
716.931	3640.78
717.119	3804.61
717.306	3675.59
717.493	3565
717.681	3640.78
717.868	3694.02
718.055	3644.87
718.242	3782.09
718.43	3702.22
718.617	3689.93
718.804	3702.22
718.991	3763.65
719.179	3673.54
719.366	3761.61
719.553	3636.68
719.74	3796.42
719.927	3642.82
720.114	3579.34
720.301	3722.7
720.488	3620.3
720.676	3712.46
720.863	3669.45
721.05	3759.56
721.237	3694.02
721.424	3651.02
721.611	3694.02
721.798	3694.02
721.985	3567.05
722.172	3571.15
722.358	3694.02
722.545	3718.6
722.732	3601.87
722.919	3632.58
723.106	3583.43
723.293	3530.19
723.48	3603.91
723.667	3681.74
723.853	3683.78
724.04	3661.26
724.227	3626.44
724.414	3599.82
724.6	3575.24
724.787	3622.34
724.974	3726.79
725.161	3513.8
725.347	3597.77
725.534	3608.01
725.72	3491.27
725.907	3685.83
726.094	3646.92
726.28	3509.71
726.467	3689.93
726.653	3505.61
726.84	3689.93
727.027	3685.83
727.213	3526.09
727.4	3646.92
727.586	3392.97
727.773	3548.62
727.959	3634.63
728.145	3646.92
728.332	3552.71
728.518	3595.72
728.705	3548.62
728.891	3583.43
729.077	3481.03
729.264	3571.15
729.45	3632.58
729.636	3651.02
729.823	3595.72
730.009	3663.3
730.195	3573.19
730.382	3589.58
730.568	3583.43
730.754	3704.26
730.94	3474.89
731.126	3524.04
731.313	3554.76
731.499	3460.56
731.685	3601.87
731.871	3489.23
732.057	3472.84
732.243	3495.37
732.429	3597.77
732.615	3587.53
732.801	3562.95
732.987	3429.84
733.173	3427.79
733.359	3372.49
733.545	3415.5
733.731	3409.36
733.917	3507.66
734.103	3569.1
734.289	3579.34
734.475	3423.69
734.661	3636.68
734.847	3608.01
735.033	3452.36
735.219	3364.3
735.404	3546.57
735.59	3352.01
735.776	3448.27
735.962	3509.71
736.148	3407.31
736.333	3413.45
736.519	3292.62
736.705	3323.34
736.89	3362.25
737.076	3438.03
737.262	3337.68
737.447	3454.41
737.633	3167.7
737.819	3390.92
738.004	3315.15
738.19	3374.54
738.375	3235.28
738.561	3233.23
738.747	3292.62
738.932	3284.43
739.118	3255.76
739.303	3227.09
739.489	3270.09
739.674	3177.94
739.859	3167.7
740.045	3235.28
740.23	3139.02
740.416	3210.7
740.601	3194.32
740.786	3231.18
740.972	3151.31
741.157	3173.84
741.342	3161.55
741.528	3096.02
741.713	3155.41
741.898	3198.42
742.084	3153.36
742.269	3128.78
742.454	3202.51
742.639	3161.55
742.824	3077.59
743.01	3151.31
743.195	3120.59
743.38	3096.02
743.565	3018.19
743.75	3177.94
743.935	2983.38
744.12	2926.04
744.305	2997.71
744.49	2899.41
744.675	2891.22
744.86	2846.16
745.045	2921.94
745.23	2895.32
745.415	2784.73
745.6	3018.19
745.785	2774.49
745.97	2956.75
746.155	2774.49
746.34	2723.29
746.525	2739.67
746.71	2801.11
746.895	2674.14
747.079	2723.29
747.264	2772.44
747.449	2645.46
747.634	2692.57
747.819	2641.37
748.003	2620.89
748.188	2667.99
748.373	2606.55
748.557	2629.08
748.742	2457.05
748.927	2641.37
749.111	2690.52
749.296	2508.25
749.481	2618.84
749.665	2430.43
749.85	2452.95
750.034	2475.48
750.219	2448.86
750.404	2459.1
750.588	2276.83
750.773	2362.84
750.957	2436.57
751.141	2317.79
751.326	2334.17
751.51	2383.32
751.695	2350.56
751.879	2317.79
752.064	2352.6
752.248	2352.6
752.432	2182.62
752.617	2301.4
752.801	2217.44
752.985	2158.05
753.17	2147.81
753.354	2137.57
753.538	2047.46
753.722	2096.61
753.907	2110.94
754.091	2094.56
754.275	2166.24
754.459	2072.03
754.643	2000.35
754.828	2067.94
755.012	1967.59
755.196	2026.98
755.38	1965.54
755.564	2012.64
755.748	1875.43
755.932	1867.24
756.116	2039.26
756.3	1965.54
756.484	1848.8
756.668	1889.76
756.852	1943.01
757.036	1834.47
757.22	1859.04
757.404	1854.95
757.588	1691.11
757.772	1973.73
757.956	1865.19
758.14	1787.36
758.323	1863.14
758.507	1744.36
758.691	1742.31
758.875	1760.74
759.059	1730.02
759.242	1719.78
759.426	1668.58
759.61	1646.05
759.794	1646.05
759.977	1752.55
760.161	1674.73
760.345	1744.36
760.528	1732.07
760.712	1695.21
760.895	1697.25
761.079	1613.29
761.263	1537.51
761.446	1514.98
761.63	1594.86
761.813	1570.28
761.997	1564.14
762.18	1521.13
762.364	1555.94
762.547	1609.19
762.731	1431.02
762.914	1514.98
763.098	1500.65
763.281	1504.75
763.464	1609.19
763.648	1539.56
763.831	1508.84
764.015	1529.32
764.198	1396.2
764.381	1474.03
764.564	1398.25
764.748	1437.16
764.931	1545.7
765.114	1435.11
765.297	1459.69
765.481	1385.96
765.664	1541.61
765.847	1453.55
766.03	1447.4
766.213	1373.68
766.397	1480.17
766.58	1308.14
766.763	1246.7
766.946	1330.67
767.129	1404.39
767.312	1324.52
767.495	1285.61
767.678	1207.79
767.861	1340.91
768.044	1287.66
768.227	1326.57
768.41	1308.14
768.593	1279.47
768.776	1258.99
768.959	1232.37
769.142	1304.04
769.324	1328.62
769.507	1252.84
769.69	1142.25
769.873	1250.8
770.056	1281.52
770.239	1248.75
770.421	1254.89
770.604	1289.71
770.787	1236.46
770.97	1134.06
771.152	1189.36
771.335	1218.03
771.518	1195.5
771.7	1086.96
771.883	1234.41
772.066	1115.63
772.248	1175.02
772.431	1142.25
772.613	1146.35
772.796	1148.4
772.978	1109.49
773.161	1156.59
773.343	1115.63
773.526	1086.96
773.708	1070.58
773.891	1043.95
774.073	1035.76
774.256	1019.38
774.438	1136.11
774.621	957.94
774.803	1089.01
774.985	1005.04
775.168	1062.38
775.35	982.51
775.532	1046
775.715	1013.23
775.897	980.47
776.079	939.51
776.261	937.46
776.444	1062.38
776.626	933.36
776.808	953.84
776.99	919.03
777.173	878.07
777.355	923.12
777.537	923.12
777.719	941.55
777.901	871.92
778.083	824.82
778.265	871.92
778.447	876.02
778.629	931.31
778.811	914.93
778.993	921.07
779.175	941.55
779.357	941.55
779.539	835.06
779.721	824.82
779.903	835.06
780.085	837.11
780.267	839.16
780.449	794.1
780.631	814.58
780.812	781.81
780.994	810.48
781.176	869.87
781.358	806.39
781.54	814.58
781.721	828.92
781.903	734.71
782.085	755.19
782.267	773.62
782.448	734.71
782.63	669.17
782.812	730.61
782.993	679.41
783.175	781.81
783.357	736.76
783.538	724.47
783.72	628.21
783.901	703.99
784.083	769.52
784.264	716.28
784.446	605.69
784.627	638.45
784.809	708.09
784.99	585.21
785.172	538.1
785.353	691.7
785.535	605.69
785.716	581.11
785.897	589.3
786.079	628.21
786.26	581.11
786.441	710.13
786.623	585.21
786.804	488.95
786.985	605.69
787.167	617.97
787.348	611.83
787.529	513.53
787.71	589.3
787.891	646.65
788.073	613.88
788.254	564.73
788.435	585.21
788.616	591.35
788.797	505.34
788.978	574.97
789.159	523.77
789.34	507.38
789.522	511.48
789.703	529.91
789.884	550.39
790.065	517.62
790.246	531.96
790.427	484.86
790.607	538.1
790.788	439.8
790.969	429.56
791.15	585.21
791.331	476.66
791.512	470.52
791.693	433.66
791.874	480.76
792.054	478.71
792.235	460.28
792.416	402.94
792.597	450.04
792.778	470.52
792.958	460.28
793.139	509.43
793.32	386.55
793.5	462.33
793.681	513.53
793.862	409.08
794.042	415.23
794.223	433.66
794.404	441.85
794.584	316.92
794.765	433.66
794.945	374.27
795.126	472.57
795.306	450.04
795.487	419.32
795.667	456.19
795.848	423.42
796.028	394.75
796.209	355.83
796.389	450.04
796.57	476.66
796.75	376.31
796.93	349.69
797.111	409.08
797.291	392.7
797.471	491
797.652	353.79
797.832	368.12
798.012	368.12
798.192	355.83
798.373	345.59
798.553	407.03
798.733	396.79
798.913	413.18
799.093	302.59
799.274	298.49
799.454	361.98
799.634	337.4
799.814	318.97
799.994	366.07
800.174	355.83
800.354	337.4
800.534	300.54
800.714	347.64
800.894	347.64
801.074	290.3
801.254	382.46
801.434	404.99
801.614	347.64
801.794	265.72
801.974	851.44
802.154	347.64
802.334	364.03
802.514	306.68
802.693	298.49
802.873	392.7
803.053	325.12
803.233	325.12
803.413	335.35
803.592	284.16
803.772	284.16
803.952	269.82
804.131	257.53
804.311	241.15
804.491	269.82
804.67	271.87
804.85	337.4
805.03	386.55
805.209	339.45
805.389	349.69
805.568	259.58
805.748	210.43
805.928	282.11
806.107	308.73
806.287	333.31
806.466	300.54
806.646	310.78
806.825	255.48
807.004	273.92
807.184	210.43
807.363	298.49
807.543	265.72
807.722	218.62
807.901	255.48
808.081	278.01
808.26	271.87
808.439	224.76
808.619	237.05
808.798	286.2
808.977	312.83
809.156	255.48
809.336	249.34
809.515	333.31
809.694	187.9
809.873	298.49
810.052	206.33
810.231	286.2
810.411	265.72
810.59	265.72
810.769	337.4
810.948	275.96
811.127	165.37
811.306	302.59
811.485	187.9
811.664	298.49
811.843	316.92
812.022	171.52
812.201	204.28
812.38	228.86
812.559	257.53
812.737	261.63
812.916	220.67
813.095	216.57
813.274	247.29
813.453	239.1
813.632	187.9
813.811	206.33
813.989	192
814.168	208.38
814.347	187.9
814.526	247.29
814.704	181.76
814.883	212.48
815.062	181.76
815.24	228.86
815.419	192
815.598	237.05
815.776	177.66
815.955	185.85
816.133	224.76
816.312	144.89
816.49	245.24
816.669	241.15
816.847	140.8
817.026	163.33
817.204	192
817.383	181.76
817.561	120.32
817.74	144.89
817.918	175.61
818.097	220.67
818.275	161.28
818.453	241.15
818.632	159.23
818.81	171.52
818.988	181.76
819.167	212.48
819.345	173.57
819.523	148.99
819.701	196.09
819.879	189.95
820.058	124.41
820.236	122.37
820.414	194.05
820.592	146.94
820.77	138.75
820.948	157.18
821.127	220.67
821.305	206.33
821.483	179.71
821.661	146.94
821.839	155.13
822.017	118.27
822.195	151.04
822.373	151.04
822.551	235
822.729	226.81
822.907	187.9
823.085	204.28
823.262	146.94
823.44	169.47
823.618	126.46
823.796	155.13
823.974	177.66
824.152	105.98
824.329	124.41
824.507	245.24
824.685	183.81
824.863	202.24
825.04	114.17
825.218	202.24
825.396	165.37
825.574	159.23
825.751	112.13
825.929	146.94
826.107	226.81
826.284	177.66
826.462	153.09
826.639	103.93
826.817	91.65
826.994	175.61
827.172	71.17
827.349	161.28
827.527	167.42
827.704	169.47
827.882	140.8
828.059	114.17
828.237	183.81
828.414	200.19
828.591	81.41
828.769	91.65
828.946	142.85
829.124	132.61
829.301	177.66
829.478	175.61
829.655	134.65
829.833	153.09
830.01	97.79
830.187	126.46
830.364	89.6
830.542	44.54
830.719	153.09
830.896	95.74
831.073	120.32
831.25	99.84
831.427	103.93
831.604	52.74
831.782	89.6
831.959	85.5
832.136	101.89
832.313	132.61
832.49	73.21
832.667	116.22
832.844	85.5
833.021	108.03
833.198	77.31
833.374	105.98
833.551	194.05
833.728	48.64
833.905	138.75
834.082	77.31
834.259	146.94
834.436	126.46
834.612	93.69
834.789	142.85
834.966	108.03
835.143	155.13
835.319	103.93
835.496	124.41
835.673	140.8
835.85	175.61
836.026	134.65
836.203	112.13
836.38	56.83
836.556	62.98
836.733	112.13
836.909	118.27
837.086	146.94
837.262	32.26
837.439	128.51
837.616	99.84
837.792	101.89
837.968	101.89
838.145	118.27
838.321	87.55
838.498	142.85
838.674	79.36
838.851	105.98
839.027	65.02
839.203	110.08
839.38	93.69
839.556	1.54
839.732	105.98
839.909	77.31
840.085	134.65
840.261	-10.75
840.437	97.79
840.614	114.17
840.79	73.21
840.966	138.75
841.142	73.21
841.318	58.88
841.494	140.8
841.671	13.82
841.847	56.83
842.023	-4.61
842.199	142.85
842.375	24.06
842.551	130.56
842.727	42.5
842.903	142.85
843.079	105.98
843.255	73.21
843.431	11.78
843.607	77.31
843.783	54.78
843.959	103.93
844.134	69.12
844.31	118.27
844.486	97.79
844.662	81.41
844.838	71.17
845.013	148.99
845.189	128.51
845.365	50.69
845.541	95.74
845.716	175.61
845.892	95.74
846.068	89.6
846.244	13.82
846.419	120.32
846.595	38.4
846.77	-2.56
846.946	73.21
847.122	71.17
847.297	130.56
847.473	151.04
847.648	142.85
847.824	81.41
847.999	24.06
848.175	87.55
848.35	26.11
848.526	56.83
848.701	19.97
848.876	97.79
849.052	77.31
849.227	71.17
849.403	81.41
849.578	101.89
849.753	28.16
849.929	136.7
850.104	-0.51
850.279	3.58
850.454	58.88
850.63	81.41
850.805	62.98
850.98	79.36
851.155	7.68
851.33	42.5
851.505	13.82
851.681	28.16
851.856	73.21
852.031	5.63
852.206	77.31
852.381	54.78
852.556	38.4
852.731	56.83
852.906	67.07
853.081	91.65
853.256	58.88
853.431	-8.7
853.606	22.02
853.781	52.74
853.956	-0.51
854.131	56.83
854.305	-16.9
854.48	28.16
854.655	46.59
854.83	81.41
855.005	89.6
855.18	69.12
855.354	34.3
855.529	79.36
855.704	-45.57
855.879	15.87
856.053	46.59
856.228	7.68
856.403	73.21
856.577	30.21
856.752	36.35
856.926	42.5
857.101	85.5
857.276	69.12
857.45	130.56
857.625	79.36
857.799	-0.51
857.974	-4.61
858.148	40.45
858.323	48.64
858.497	38.4
858.672	97.79
858.846	62.98
859.02	79.36
859.195	-43.52
859.369	-16.9
859.543	93.69
859.718	36.35
859.892	7.68
860.066	73.21
860.241	38.4
860.415	58.88
860.589	75.26
860.763	30.21
860.938	-43.52
861.112	46.59
861.286	-2.56
861.46	48.64
861.634	83.45
861.808	32.26
861.982	46.59
862.157	54.78
862.331	38.4
862.505	44.54
862.679	19.97
862.853	-12.8
863.027	15.87
863.201	93.69
863.375	-25.09
863.549	124.41
863.722	34.3
863.896	28.16
864.07	46.59
864.244	9.73
864.418	5.63
864.592	48.64
864.766	48.64
864.939	77.31
865.113	40.45
865.287	32.26
865.461	11.78
865.634	142.85
865.808	62.98
865.982	120.32
866.156	-27.14
866.329	-45.57
866.503	71.17
866.676	91.65
866.85	13.82
867.024	-35.33
867.197	32.26
867.371	69.12
867.544	-20.99
867.718	30.21
867.891	-25.09
868.065	38.4
868.238	22.02
868.412	15.87
868.585	9.73
868.759	-18.94
868.932	40.45
869.105	85.5
869.279	-18.94
869.452	-55.81
869.625	22.02
869.799	40.45
869.972	-12.8
870.145	40.45
870.319	58.88
870.492	62.98
870.665	19.97
870.838	81.41
871.011	-0.51
871.185	-2.56
871.358	-14.85
871.531	44.54
871.704	15.87
871.877	56.83
872.05	17.92
872.223	-16.9
872.396	17.92
872.569	11.78
872.742	-39.42
872.915	15.87
873.088	-51.71
873.261	65.02
873.434	32.26
873.607	73.21
873.78	44.54
873.953	-20.99
874.126	-0.51
874.299	36.35
874.471	7.68
874.644	52.74
874.817	110.08
874.99	22.02
875.163	56.83
875.335	73.21
875.508	5.63
875.681	13.82
875.853	7.68
876.026	-45.57
876.199	81.41
876.371	46.59
876.544	-0.51
876.717	7.68
876.889	-0.51
877.062	22.02
877.234	-49.66
877.407	56.83
877.579	-27.14
877.752	-8.7
877.924	32.26
878.097	15.87
878.269	11.78
878.442	40.45
878.614	73.21
878.786	-33.28
878.959	28.16
879.131	58.88
879.303	-33.28
879.476	15.87
879.648	7.68
879.82	42.5
879.993	46.59
880.165	62.98
880.337	85.5
880.509	-90.62
880.681	-70.14
880.854	28.16
881.026	-2.56
881.198	93.69
881.37	5.63
881.542	58.88
881.714	-25.09
881.886	52.74
882.058	50.69
882.23	-14.85
882.402	-66.05
882.574	-4.61
882.746	81.41
882.918	9.73
883.09	-0.51
883.262	28.16
883.434	3.58
883.606	-29.18
883.778	-27.14
883.95	15.87
884.122	-10.75
884.293	-55.81
884.465	-4.61
884.637	46.59
884.809	15.87
884.98	36.35
885.152	112.13
885.324	-35.33
885.496	-78.33
885.667	-18.94
885.839	5.63
886.011	56.83
886.182	11.78
886.354	-2.56
886.525	-0.51
886.697	28.16
886.869	46.59
887.04	32.26
887.212	97.79
887.383	69.12
887.555	19.97
887.726	-37.38
887.897	15.87
888.069	54.78
888.24	3.58
888.412	-2.56
888.583	13.82
888.754	50.69
888.926	30.21
889.097	32.26
889.268	-43.52
889.44	-4.61
889.611	-10.75
889.782	11.78
889.953	-20.99
890.125	87.55
890.296	-49.66
890.467	-23.04
890.638	46.59
890.809	11.78
890.98	26.11
891.151	15.87
891.323	48.64
891.494	-27.14
891.665	48.64
891.836	34.3
892.007	-27.14
892.178	-2.56
892.349	-53.76
892.52	-33.28
892.691	52.74
892.862	-16.9
893.032	-74.24
893.203	34.3
893.374	32.26
893.545	99.84
893.716	-29.18
893.887	75.26
894.057	-61.95
894.228	15.87
894.399	30.21
894.57	52.74
894.74	40.45
894.911	24.06
895.082	-27.14
895.253	22.02
895.423	-6.66
895.594	13.82
895.764	-41.47
895.935	44.54
896.106	32.26
896.276	34.3
896.447	32.26
896.617	7.68
896.788	5.63
896.958	-4.61
897.129	15.87
897.299	32.26
897.47	-59.9
897.64	69.12
897.81	60.93
897.981	-0.51
898.151	-12.8
898.322	24.06
898.492	3.58
898.662	-25.09
898.832	-2.56
899.003	46.59
899.173	38.4
899.343	-31.23
899.513	19.97
