Data from USB4F104151__267__10-40-38-993.txt Node

Date: Wed Mar 12 10:40:38 EDT 2025
User: louis
Spectrometer: USB4F10415
Trigger mode: 4
Integration Time (sec): 3.000000E-2
Scans to average: 1
Electric dark correction enabled: true
Nonlinearity correction enabled: false
Boxcar width: 0
XAxis mode: Wavelengths
Number of Pixels in Spectrum: 3648
>>>>>Begin Spectral Data<<<<<
178.204	-57.68
178.424	-57.68
178.644	-57.68
178.864	-125.27
179.084	-100.69
179.304	-49.49
179.524	36.52
179.744	-24.92
179.964	50.86
180.184	40.62
180.404	18.09
180.624	30.38
180.844	-41.3
181.064	36.52
181.283	-43.35
181.503	-49.49
181.723	-4.44
181.943	16.04
182.163	69.29
182.383	54.95
182.602	20.14
182.822	59.05
183.042	114.34
183.262	38.57
183.482	11.95
183.701	13.99
183.921	44.71
184.141	28.33
184.361	16.04
184.58	16.04
184.8	50.86
185.02	38.57
185.239	20.14
185.459	3.75
185.679	-47.44
185.898	9.9
186.118	71.34
186.338	57
186.557	48.81
186.777	-6.49
186.997	24.23
187.216	-41.3
187.436	61.1
187.655	46.76
187.875	28.33
188.095	44.71
188.314	46.76
188.534	124.58
188.753	97.96
188.973	-33.11
189.192	87.72
189.412	-0.34
189.631	69.29
189.851	5.8
190.07	61.1
190.29	57
190.509	-45.4
190.729	30.38
190.948	110.25
191.168	155.3
191.387	61.1
191.607	34.47
191.826	54.95
192.045	26.28
192.265	-33.11
192.484	54.95
192.704	28.33
192.923	-22.87
193.142	114.34
193.362	83.63
193.581	71.34
193.8	97.96
194.02	112.3
194.239	42.67
194.458	20.14
194.678	40.62
194.897	9.9
195.116	54.95
195.335	13.99
195.555	95.91
195.774	42.67
195.993	63.15
196.212	34.47
196.432	-43.35
196.651	112.3
196.87	83.63
197.089	42.67
197.308	-20.82
197.528	97.96
197.747	-24.92
197.966	16.04
198.185	102.06
198.404	18.09
198.623	5.8
198.842	65.19
199.062	85.67
199.281	40.62
199.5	22.19
199.719	48.81
199.938	7.85
200.157	79.53
200.376	95.91
200.595	116.39
200.814	42.67
201.033	-0.34
201.252	87.72
201.471	1.71
201.69	97.96
201.909	-26.96
202.128	91.82
202.347	85.67
202.566	50.86
202.785	89.77
203.004	-18.77
203.223	52.91
203.442	5.8
203.661	44.71
203.879	73.39
204.098	63.15
204.317	50.86
204.536	77.48
204.755	48.81
204.974	136.87
205.193	54.95
205.411	89.77
205.63	-18.77
205.849	28.33
206.068	65.19
206.287	30.38
206.505	42.67
206.724	54.95
206.943	36.52
207.162	81.58
207.381	20.14
207.599	59.05
207.818	65.19
208.037	24.23
208.255	52.91
208.474	81.58
208.693	30.38
208.911	9.9
209.13	79.53
209.349	28.33
209.567	-10.58
209.786	73.39
210.005	77.48
210.223	52.91
210.442	48.81
210.661	24.23
210.879	81.58
211.098	26.28
211.316	97.96
211.535	26.28
211.753	52.91
211.972	110.25
212.191	-6.49
212.409	50.86
212.628	63.15
212.846	16.04
213.065	83.63
213.283	40.62
213.502	65.19
213.72	114.34
213.938	24.23
214.157	7.85
214.375	106.15
214.594	48.81
214.812	34.47
215.031	59.05
215.249	1.71
215.467	75.43
215.686	24.23
215.904	83.63
216.122	13.99
216.341	89.77
216.559	20.14
216.778	34.47
216.996	42.67
217.214	42.67
217.432	30.38
217.651	5.8
217.869	69.29
218.087	77.48
218.306	-65.88
218.524	73.39
218.742	30.38
218.96	7.85
219.179	24.23
219.397	48.81
219.615	52.91
219.833	97.96
220.051	102.06
220.27	77.48
220.488	44.71
220.706	36.52
220.924	-33.11
221.142	83.63
221.36	50.86
221.578	83.63
221.796	7.85
222.015	30.38
222.233	40.62
222.451	52.91
222.669	-24.92
222.887	38.57
223.105	102.06
223.323	20.14
223.541	57
223.759	65.19
223.977	57
224.195	118.44
224.413	50.86
224.631	50.86
224.849	28.33
225.067	87.72
225.285	11.95
225.503	34.47
225.721	-4.44
225.939	28.33
226.157	-4.44
226.375	198.31
226.592	30.38
226.81	3.75
227.028	71.34
227.246	93.87
227.464	-10.58
227.682	48.81
227.9	71.34
228.117	102.06
228.335	38.57
228.553	87.72
228.771	5.8
228.989	65.19
229.206	32.43
229.424	42.67
229.642	61.1
229.86	97.96
230.077	81.58
230.295	32.43
230.513	134.82
230.731	54.95
230.948	28.33
231.166	161.45
231.384	42.67
231.601	42.67
231.819	79.53
232.037	-12.63
232.254	11.95
232.472	93.87
232.689	61.1
232.907	69.29
233.125	63.15
233.342	20.14
233.56	9.9
233.777	26.28
233.995	75.43
234.213	110.25
234.43	59.05
234.648	79.53
234.865	-20.82
235.083	87.72
235.3	3.75
235.518	-4.44
235.735	79.53
235.953	122.54
236.17	59.05
236.388	143.02
236.605	73.39
236.822	93.87
237.04	91.82
237.257	50.86
237.475	-26.96
237.692	46.76
237.909	30.38
238.127	32.43
238.344	110.25
238.562	59.05
238.779	-6.49
238.996	36.52
239.214	42.67
239.431	16.04
239.648	13.99
239.865	83.63
240.083	48.81
240.3	44.71
240.517	-4.44
240.735	83.63
240.952	63.15
241.169	24.23
241.386	36.52
241.603	28.33
241.821	-18.77
242.038	30.38
242.255	106.15
242.472	9.9
242.689	52.91
242.907	116.39
243.124	50.86
243.341	16.04
243.558	18.09
243.775	65.19
243.992	34.47
244.209	81.58
244.426	89.77
244.643	36.52
244.86	54.95
245.078	124.58
245.295	85.67
245.512	54.95
245.729	11.95
245.946	22.19
246.163	38.57
246.38	5.8
246.597	3.75
246.814	46.76
247.031	3.75
247.248	54.95
247.464	73.39
247.681	89.77
247.898	13.99
248.115	91.82
248.332	57
248.549	97.96
248.766	102.06
248.983	112.3
249.2	32.43
249.417	54.95
249.633	71.34
249.85	3.75
250.067	5.8
250.284	20.14
250.501	75.43
250.717	13.99
250.934	-26.96
251.151	-0.34
251.368	73.39
251.585	65.19
251.801	42.67
252.018	1.71
252.235	22.19
252.451	57
252.668	36.52
252.885	63.15
253.102	81.58
253.318	1.71
253.535	75.43
253.752	18.09
253.968	112.3
254.185	40.62
254.401	11.95
254.618	36.52
254.835	46.76
255.051	24.23
255.268	91.82
255.484	79.53
255.701	54.95
255.917	79.53
256.134	46.76
256.351	20.14
256.567	-0.34
256.784	13.99
257	-12.63
257.217	65.19
257.433	48.81
257.65	79.53
257.866	63.15
258.082	1.71
258.299	52.91
258.515	11.95
258.732	57
258.948	122.54
259.165	7.85
259.381	-2.39
259.597	-2.39
259.814	134.82
260.03	-12.63
260.246	-57.68
260.463	-8.53
260.679	85.67
260.895	13.99
261.112	69.29
261.328	18.09
261.544	48.81
261.761	110.25
261.977	20.14
262.193	-12.63
262.409	46.76
262.626	32.43
262.842	67.24
263.058	-2.39
263.274	54.95
263.49	40.62
263.707	20.14
263.923	48.81
264.139	95.91
264.355	32.43
264.571	81.58
264.787	-0.34
265.004	114.34
265.22	20.14
265.436	36.52
265.652	83.63
265.868	52.91
266.084	20.14
266.3	16.04
266.516	-0.34
266.732	-0.34
266.948	71.34
267.164	128.68
267.38	79.53
267.596	44.71
267.812	108.2
268.028	26.28
268.244	71.34
268.46	11.95
268.676	13.99
268.892	118.44
269.108	54.95
269.324	20.14
269.54	20.14
269.756	-31.06
269.972	-12.63
270.188	61.1
270.403	-29.01
270.619	36.52
270.835	65.19
271.051	40.62
271.267	54.95
271.483	67.24
271.698	73.39
271.914	16.04
272.13	124.58
272.346	116.39
272.562	46.76
272.777	81.58
272.993	20.14
273.209	75.43
273.425	81.58
273.64	16.04
273.856	91.82
274.072	-4.44
274.287	65.19
274.503	79.53
274.719	-0.34
274.934	36.52
275.15	20.14
275.366	34.47
275.581	50.86
275.797	32.43
276.012	-10.58
276.228	67.24
276.444	85.67
276.659	73.39
276.875	-6.49
277.09	5.8
277.306	71.34
277.521	26.28
277.737	16.04
277.952	79.53
278.168	26.28
278.383	93.87
278.599	52.91
278.814	126.63
279.03	61.1
279.245	116.39
279.461	95.91
279.676	52.91
279.892	-12.63
280.107	46.76
280.322	36.52
280.538	59.05
280.753	69.29
280.969	69.29
281.184	36.52
281.399	-12.63
281.615	32.43
281.83	63.15
282.045	-33.11
282.26	16.04
282.476	104.11
282.691	26.28
282.906	79.53
283.122	61.1
283.337	26.28
283.552	106.15
283.767	54.95
283.983	73.39
284.198	83.63
284.413	-16.73
284.628	22.19
284.843	-2.39
285.058	110.25
285.274	-22.87
285.489	36.52
285.704	24.23
285.919	-6.49
286.134	11.95
286.349	-8.53
286.564	36.52
286.779	124.58
286.995	42.67
287.21	48.81
287.425	34.47
287.64	87.72
287.855	48.81
288.07	30.38
288.285	7.85
288.5	65.19
288.715	32.43
288.93	149.16
289.145	40.62
289.36	59.05
289.575	65.19
289.79	79.53
290.004	36.52
290.219	114.34
290.434	102.06
290.649	20.14
290.864	-37.2
291.079	44.71
291.294	79.53
291.509	122.54
291.724	54.95
291.938	71.34
292.153	97.96
292.368	40.62
292.583	24.23
292.798	81.58
293.012	34.47
293.227	61.1
293.442	61.1
293.657	97.96
293.871	138.92
294.086	48.81
294.301	114.34
294.516	126.63
294.73	73.39
294.945	73.39
295.16	57
295.374	118.44
295.589	52.91
295.804	-2.39
296.018	46.76
296.233	91.82
296.447	143.02
296.662	48.81
296.877	73.39
297.091	108.2
297.306	93.87
297.52	81.58
297.735	122.54
297.949	65.19
298.164	134.82
298.378	67.24
298.593	-12.63
298.807	97.96
299.022	89.77
299.236	108.2
299.451	-16.73
299.665	28.33
299.88	24.23
300.094	57
300.309	61.1
300.523	67.24
300.737	75.43
300.952	48.81
301.166	67.24
301.381	-53.59
301.595	46.76
301.809	91.82
302.024	110.25
302.238	-29.01
302.452	77.48
302.667	52.91
302.881	155.3
303.095	114.34
303.309	91.82
303.524	48.81
303.738	36.52
303.952	69.29
304.166	-12.63
304.381	50.86
304.595	-14.68
304.809	42.67
305.023	63.15
305.237	13.99
305.452	69.29
305.666	128.68
305.88	91.82
306.094	24.23
306.308	52.91
306.522	65.19
306.736	120.49
306.95	57
307.164	-24.92
307.379	-24.92
307.593	126.63
307.807	112.3
308.021	85.67
308.235	5.8
308.449	3.75
308.663	11.95
308.877	81.58
309.091	59.05
309.305	32.43
309.519	44.71
309.733	57
309.947	13.99
310.161	134.82
310.374	-14.68
310.588	61.1
310.802	30.38
311.016	71.34
311.23	67.24
311.444	44.71
311.658	44.71
311.872	75.43
312.085	57
312.299	126.63
312.513	122.54
312.727	44.71
312.941	34.47
313.154	52.91
313.368	71.34
313.582	128.68
313.796	73.39
314.009	112.3
314.223	63.15
314.437	87.72
314.651	52.91
314.864	97.96
315.078	50.86
315.292	48.81
315.505	34.47
315.719	-10.58
315.933	79.53
316.146	63.15
316.36	40.62
316.573	108.2
316.787	65.19
317.001	153.26
317.214	61.1
317.428	61.1
317.641	40.62
317.855	-18.77
318.068	24.23
318.282	59.05
318.495	63.15
318.709	48.81
318.922	54.95
319.136	67.24
319.349	13.99
319.563	83.63
319.776	63.15
319.99	26.28
320.203	44.71
320.417	-10.58
320.63	-0.34
320.843	110.25
321.057	32.43
321.27	28.33
321.483	3.75
321.697	93.87
321.91	36.52
322.124	122.54
322.337	69.29
322.55	16.04
322.763	46.76
322.977	75.43
323.19	18.09
323.403	11.95
323.617	28.33
323.83	106.15
324.043	110.25
324.256	69.29
324.469	63.15
324.683	69.29
324.896	13.99
325.109	73.39
325.322	7.85
325.535	28.33
325.748	97.96
325.962	38.57
326.175	83.63
326.388	46.76
326.601	140.97
326.814	46.76
327.027	118.44
327.24	63.15
327.453	11.95
327.666	118.44
327.879	63.15
328.092	93.87
328.305	-4.44
328.518	9.9
328.731	63.15
328.944	67.24
329.157	-20.82
329.37	136.87
329.583	83.63
329.796	120.49
330.009	-0.34
330.222	118.44
330.435	81.58
330.648	91.82
330.861	63.15
331.073	102.06
331.286	20.14
331.499	97.96
331.712	36.52
331.925	95.91
332.138	3.75
332.35	79.53
332.563	67.24
332.776	71.34
332.989	85.67
333.202	69.29
333.414	118.44
333.627	102.06
333.84	28.33
334.053	73.39
334.265	85.67
334.478	7.85
334.691	30.38
334.903	9.9
335.116	38.57
335.329	61.1
335.541	145.06
335.754	50.86
335.966	79.53
336.179	-31.06
336.392	20.14
336.604	22.19
336.817	65.19
337.029	75.43
337.242	30.38
337.454	57
337.667	89.77
337.88	52.91
338.092	81.58
338.305	116.39
338.517	52.91
338.729	71.34
338.942	48.81
339.154	73.39
339.367	46.76
339.579	32.43
339.792	122.54
340.004	46.76
340.217	77.48
340.429	85.67
340.641	59.05
340.854	44.71
341.066	79.53
341.278	52.91
341.491	75.43
341.703	102.06
341.915	69.29
342.128	22.19
342.34	61.1
342.552	-18.77
342.764	16.04
342.977	71.34
343.189	40.62
343.401	91.82
343.613	-20.82
343.826	95.91
344.038	-49.49
344.25	61.1
344.462	32.43
344.674	79.53
344.886	104.11
345.099	61.1
345.311	46.76
345.523	54.95
345.735	-29.01
345.947	44.71
346.159	57
346.371	42.67
346.583	30.38
346.795	93.87
347.007	38.57
347.219	67.24
347.431	40.62
347.643	71.34
347.855	63.15
348.067	-8.53
348.279	89.77
348.491	65.19
348.703	5.8
348.915	42.67
349.127	52.91
349.339	73.39
349.551	24.23
349.763	57
349.975	54.95
350.187	42.67
350.399	32.43
350.61	38.57
350.822	120.49
351.034	116.39
351.246	69.29
351.458	83.63
351.669	54.95
351.881	122.54
352.093	57
352.305	106.15
352.517	75.43
352.728	143.02
352.94	73.39
353.152	50.86
353.363	89.77
353.575	114.34
353.787	138.92
353.999	22.19
354.21	81.58
354.422	87.72
354.633	40.62
354.845	32.43
355.057	48.81
355.268	75.43
355.48	63.15
355.692	22.19
355.903	85.67
356.115	73.39
356.326	-2.39
356.538	110.25
356.749	-35.16
356.961	108.2
357.172	69.29
357.384	63.15
357.595	106.15
357.807	3.75
358.018	54.95
358.23	106.15
358.441	102.06
358.653	97.96
358.864	104.11
359.075	22.19
359.287	77.48
359.498	89.77
359.709	91.82
359.921	13.99
360.132	93.87
360.344	9.9
360.555	87.72
360.766	97.96
360.977	71.34
361.189	97.96
361.4	69.29
361.611	77.48
361.823	50.86
362.034	122.54
362.245	91.82
362.456	136.87
362.667	67.24
362.879	118.44
363.09	108.2
363.301	48.81
363.512	91.82
363.723	32.43
363.935	83.63
364.146	122.54
364.357	5.8
364.568	65.19
364.779	89.77
364.99	165.54
365.201	71.34
365.412	69.29
365.623	59.05
365.834	87.72
366.045	93.87
366.256	151.21
366.467	61.1
366.678	79.53
366.889	65.19
367.1	81.58
367.311	63.15
367.522	36.52
367.733	44.71
367.944	48.81
368.155	46.76
368.366	54.95
368.577	159.4
368.788	134.82
368.999	20.14
369.209	-10.58
369.42	85.67
369.631	67.24
369.842	97.96
370.053	46.76
370.264	91.82
370.474	52.91
370.685	130.73
370.896	118.44
371.107	132.78
371.317	50.86
371.528	57
371.739	38.57
371.95	16.04
372.16	81.58
372.371	26.28
372.582	22.19
372.792	95.91
373.003	85.67
373.214	69.29
373.424	75.43
373.635	30.38
373.846	30.38
374.056	46.76
374.267	54.95
374.477	87.72
374.688	20.14
374.898	1.71
375.109	75.43
375.319	77.48
375.53	91.82
375.74	167.59
375.951	73.39
376.161	52.91
376.372	122.54
376.582	16.04
376.793	95.91
377.003	81.58
377.214	100.01
377.424	-6.49
377.635	32.43
377.845	-12.63
378.055	106.15
378.266	36.52
378.476	97.96
378.686	77.48
378.897	73.39
379.107	11.95
379.317	38.57
379.528	75.43
379.738	28.33
379.948	52.91
380.158	97.96
380.369	128.68
380.579	140.97
380.789	79.53
380.999	163.5
381.21	18.09
381.42	128.68
381.63	57
381.84	110.25
382.05	118.44
382.261	114.34
382.471	-4.44
382.681	89.77
382.891	46.76
383.101	59.05
383.311	9.9
383.521	1.71
383.731	79.53
383.941	77.48
384.151	57
384.361	102.06
384.571	95.91
384.781	134.82
384.991	114.34
385.201	179.88
385.411	122.54
385.621	79.53
385.831	65.19
386.041	28.33
386.251	85.67
386.461	155.3
386.671	130.73
386.881	132.78
387.091	87.72
387.301	95.91
387.511	61.1
387.72	104.11
387.93	89.77
388.14	57
388.35	81.58
388.56	155.3
388.769	112.3
388.979	81.58
389.189	54.95
389.399	61.1
389.609	75.43
389.818	48.81
390.028	95.91
390.238	50.86
390.447	97.96
390.657	95.91
390.867	3.75
391.076	36.52
391.286	95.91
391.496	93.87
391.705	116.39
391.915	97.96
392.125	71.34
392.334	165.54
392.544	155.3
392.753	126.63
392.963	91.82
393.172	138.92
393.382	28.33
393.591	202.41
393.801	104.11
394.01	157.35
394.22	118.44
394.429	120.49
394.639	83.63
394.848	122.54
395.058	140.97
395.267	93.87
395.477	175.78
395.686	57
395.895	95.91
396.105	151.21
396.314	97.96
396.524	126.63
396.733	91.82
396.942	143.02
397.152	171.69
397.361	138.92
397.57	120.49
397.78	175.78
397.989	77.48
398.198	204.46
398.407	149.16
398.617	134.82
398.826	120.49
399.035	151.21
399.244	179.88
399.453	116.39
399.663	100.01
399.872	179.88
400.081	163.5
400.29	237.22
400.499	65.19
400.708	190.12
400.917	145.06
401.127	145.06
401.336	145.06
401.545	147.11
401.754	163.5
401.963	169.64
402.172	95.91
402.381	110.25
402.59	130.73
402.799	145.06
403.008	179.88
403.217	163.5
403.426	163.5
403.635	181.93
403.844	200.36
404.053	204.46
404.262	226.98
404.471	173.74
404.68	233.13
404.888	186.02
405.097	179.88
405.306	224.94
405.515	231.08
405.724	198.31
405.933	224.94
406.142	130.73
406.35	196.26
406.559	196.26
406.768	247.46
406.977	167.59
407.185	239.27
407.394	204.46
407.603	282.28
407.812	263.85
408.02	315.05
408.229	202.41
408.438	333.48
408.646	235.18
408.855	321.19
409.064	317.09
409.272	329.38
409.481	321.19
409.69	321.19
409.898	323.24
410.107	331.43
410.315	409.25
410.524	390.82
410.733	425.64
410.941	364.2
411.15	439.97
411.358	345.77
411.567	407.2
411.775	466.6
411.984	464.55
412.192	550.56
412.401	548.51
412.609	552.61
412.818	560.8
413.026	560.8
413.234	630.43
413.443	732.83
413.651	605.86
413.86	661.15
414.068	673.44
414.276	833.18
414.485	614.05
414.693	796.32
414.901	853.66
415.11	845.47
415.318	786.08
415.526	804.51
415.734	847.52
415.943	986.78
416.151	812.7
416.359	1033.88
416.567	939.68
416.776	956.06
416.984	1117.85
417.192	1222.3
417.4	1130.14
417.608	1119.9
417.817	1185.43
418.025	1326.74
418.233	1351.32
418.441	1300.12
418.649	1455.76
418.857	1410.71
419.065	1578.64
419.273	1580.69
419.481	1552.02
419.689	1730.19
419.897	1822.35
420.105	1750.67
420.313	1828.49
420.521	1863.31
420.729	1957.52
420.937	2016.91
421.145	2006.67
421.353	2207.37
421.561	2311.82
421.769	2297.48
421.977	2467.46
422.185	2451.08
422.393	2555.52
422.601	2639.49
422.809	2621.06
423.017	2678.4
423.224	2872.96
423.432	2981.5
423.64	2905.73
423.848	3321.46
424.056	3155.58
424.263	3159.67
424.471	3337.85
424.679	3563.12
424.887	3604.08
425.094	3839.6
425.302	3874.42
425.51	3927.66
425.718	3905.14
425.925	4150.89
426.133	4214.38
426.341	4429.42
426.548	4660.84
426.756	4724.32
426.964	4798.05
427.171	4918.88
427.379	5121.63
427.586	5131.87
427.794	5400.15
428.001	5785.17
428.209	5836.37
428.417	5805.65
428.624	6194.76
428.832	6266.44
429.039	6188.62
429.247	6127.18
429.454	6821.44
429.662	7267.9
429.869	6778.44
430.076	7181.89
430.284	7003.71
430.491	7249.47
430.699	7900.72
430.906	7734.84
431.114	7790.13
431.321	8152.62
431.528	8402.47
431.736	8844.84
431.943	9164.32
432.15	8791.59
432.358	9018.91
432.565	9539.1
432.772	9489.95
432.979	9946.64
433.187	10120.72
433.394	10419.72
433.601	11165.18
433.808	10913.28
434.016	10862.08
434.223	11265.53
434.43	12086.77
434.637	11550.2
434.844	12520.94
435.052	12664.3
435.259	12660.2
435.466	12918.25
435.673	12559.85
435.88	13641.18
436.087	14335.44
436.294	14366.16
436.501	13463.01
436.708	14136.79
436.915	14573
437.122	15224.26
437.329	15416.77
437.537	15834.55
437.743	16049.59
437.95	15844.79
438.157	16772.52
438.364	17261.99
438.571	17280.42
438.778	17352.1
438.985	18843.02
439.192	18042.26
439.399	18908.55
439.606	18410.9
439.813	19457.41
440.02	20735.34
440.227	20282.74
440.433	20120.95
440.64	20835.69
440.847	20837.74
441.054	21093.74
441.261	22461.78
441.467	22173.02
441.674	22900.05
441.881	23412.04
442.088	23301.45
442.294	23160.14
442.501	23948.61
442.708	24446.26
442.914	25505.06
443.121	26395.93
443.328	25793.83
443.534	27577.61
443.741	26895.63
443.948	26193.18
444.154	28523.77
444.361	27845.89
444.568	27890.95
444.774	28314.87
444.981	28738.8
445.187	29404.39
445.394	30774.49
445.6	30127.33
445.807	33113.27
446.013	31902.92
446.22	32220.35
446.426	33334.45
446.633	33832.1
446.839	34833.56
447.046	33883.3
447.252	35538.06
447.459	35316.88
447.665	35114.13
447.871	36865.14
448.078	38298.72
448.284	36355.2
448.491	37538.93
448.697	38671.45
448.903	39486.54
449.11	39281.75
449.316	38661.21
449.522	39519.31
449.728	40338.5
449.935	40887.35
450.141	40539.2
450.347	41829.42
450.553	40463.43
450.76	40748.09
450.966	41745.45
451.172	41595.95
451.378	42333.22
451.584	41944.11
451.791	42632.22
451.997	42791.97
452.203	43279.38
452.409	42984.47
452.615	42722.33
452.821	41157.69
453.027	40574.02
453.233	42765.34
453.44	40526.91
453.646	41397.3
453.852	41890.86
454.058	42169.38
454.264	40522.82
454.47	41960.49
454.676	40580.16
454.882	41794.6
455.088	38278.24
455.294	38792.28
455.5	38734.94
455.705	39785.55
455.911	37938.28
456.117	36994.17
456.323	36676.73
456.529	34815.13
456.735	36021.38
456.941	35255.44
457.147	34981.01
457.352	33559.72
457.558	32957.62
457.764	33039.54
457.97	32384.19
458.176	31769.8
458.381	31741.13
458.587	30321.88
458.793	30131.42
458.999	28654.84
459.204	30684.37
459.41	29922.53
459.616	27903.23
459.821	27680
460.027	27768.07
460.233	27102.48
460.438	26015.01
460.644	26125.6
460.85	25158.95
461.055	24714.55
461.261	24624.43
461.466	22588.75
461.672	22322.52
461.878	23453
462.083	21968.22
462.289	21648.74
462.494	21685.6
462.7	20338.04
462.905	19969.4
463.111	20667.76
463.316	20843.88
463.522	20346.23
463.727	20206.97
463.932	20665.71
464.138	20131.19
464.343	20239.73
464.549	19707.26
464.754	20153.72
464.959	20182.39
465.165	19948.92
465.37	19305.86
465.575	18404.75
465.781	19477.89
465.986	19701.12
466.191	18818.44
466.397	18451.86
466.602	17737.12
466.807	18152.85
467.012	18501.01
467.218	18202
467.423	18177.43
467.628	18210.2
467.833	18845.07
468.038	18281.88
468.244	17450.4
468.449	18146.71
468.654	17634.72
468.859	17575.33
469.064	17638.81
469.269	17030.57
469.474	16903.59
469.679	17257.89
469.885	16883.11
470.09	17089.96
470.295	16891.3
470.5	16502.19
470.705	16606.64
470.91	16004.53
471.115	15803.83
471.32	16176.56
471.525	16244.15
471.73	15773.11
471.935	15771.07
472.139	15240.64
472.344	15254.98
472.549	15031.75
472.754	15164.87
472.959	14867.91
473.164	14329.3
473.369	14345.68
473.574	14802.38
473.778	14486.99
473.983	14511.57
474.188	14378.45
474.393	13878.74
474.598	13850.07
474.802	13499.87
475.007	13362.65
475.212	13526.49
475.417	13112.8
475.621	13176.29
475.826	13415.9
476.031	12912.1
476.235	12641.77
476.44	12953.06
476.645	12463.6
476.849	12502.51
477.054	12467.69
477.259	12402.16
477.463	12289.52
477.668	12140.02
477.872	12101.11
478.077	12107.25
478.282	11632.12
478.486	11468.28
478.691	11462.14
478.895	11544.06
479.1	11593.21
479.304	11363.84
479.509	10890.76
479.713	11462.14
479.918	11032.07
480.122	11103.75
480.326	10999.3
480.531	11232.77
480.735	11169.28
480.94	10954.24
481.144	11148.8
481.348	10817.03
481.553	10917.38
481.757	10806.79
481.961	10913.28
482.166	10976.77
482.37	10821.13
482.574	10610.18
482.778	10941.96
482.983	11003.39
483.187	10739.21
483.391	10868.23
483.595	10808.84
483.8	10575.37
484.004	10874.37
484.208	11025.92
484.412	11097.6
484.616	10950.15
484.821	10929.67
485.025	10403.34
485.229	10890.76
485.433	10581.51
485.637	10718.73
485.841	10720.78
486.045	10886.66
486.249	10796.55
486.453	10741.25
486.657	10814.98
486.861	10806.79
487.065	10495.5
487.269	10630.66
487.473	10661.38
487.677	10857.99
487.881	10655.24
488.085	10876.42
488.289	10921.48
488.493	10735.11
488.697	10948.1
488.901	10747.4
489.105	10847.75
489.309	10974.72
489.512	11095.55
489.716	11111.94
489.92	11163.14
490.124	11218.43
490.328	11165.18
490.531	11042.31
490.735	11193.86
490.939	11167.23
491.143	11232.77
491.346	11152.9
491.55	11281.92
491.754	11341.31
491.958	11464.19
492.161	11300.35
492.365	11574.78
492.569	11419.13
492.772	11503.1
492.976	11640.31
493.18	11615.74
493.383	11740.66
493.587	11963.89
493.79	12137.97
493.994	11757.05
494.197	12131.83
494.401	12019.19
494.605	12019.19
494.808	12506.6
495.012	12299.76
495.215	12520.94
495.419	12463.6
495.622	12547.56
495.825	12846.57
496.029	12625.39
496.232	13112.8
496.436	12961.25
496.639	13356.51
496.843	13176.29
497.046	13581.79
497.249	13632.99
497.453	13659.61
497.656	13884.89
497.859	13817.3
498.063	14126.55
498.266	14427.6
498.469	14384.59
498.673	14300.62
498.876	14704.07
499.079	14806.47
499.282	14792.14
499.485	15164.87
499.689	15314.37
499.892	15486.4
500.095	15414.72
500.298	15918.52
500.501	15764.92
500.705	16373.17
500.908	16600.49
501.111	16604.59
501.314	16739.76
501.517	16973.22
501.72	17038.76
501.923	17065.38
502.126	17517.98
502.329	17579.42
502.532	17778.08
502.735	18038.17
502.938	18480.53
503.141	18539.92
503.344	18922.89
503.547	18521.49
503.75	19025.29
503.953	19174.79
504.156	19592.58
504.359	19510.66
504.562	19766.65
504.765	20282.74
504.968	20372.85
505.17	20540.79
505.373	20438.39
505.576	21157.22
505.779	21011.82
505.982	21220.71
506.185	21720.42
506.387	21609.82
506.59	21867.87
506.793	22463.83
506.996	22160.73
507.198	23072.07
507.401	22930.76
507.604	23178.57
507.807	23389.51
508.009	23926.08
508.212	23684.42
508.415	24091.96
508.617	24405.3
508.82	24612.15
509.022	24571.19
509.225	24997.17
509.428	25275.69
509.63	25793.83
509.833	25546.02
510.035	26410.26
510.238	26088.73
510.44	26440.98
510.643	26707.22
510.845	27258.12
511.048	27202.83
511.25	27262.22
511.453	27802.88
511.655	28992.75
511.858	28187.9
512.06	28407.03
512.262	28931.31
512.465	28765.43
512.667	29238.51
512.87	29717.73
513.072	29484.26
513.274	30618.84
513.477	30317.79
513.679	31028.43
513.881	31225.04
514.084	31511.75
514.286	31438.03
514.488	31681.74
514.69	32429.24
514.893	32658.62
515.095	32765.11
515.297	33371.31
515.499	32941.24
515.701	33508.52
515.904	33948.84
516.106	34176.16
516.308	34493.6
516.51	34946.2
516.712	34704.54
516.914	35312.78
517.116	35906.69
517.318	35865.74
517.52	35972.23
517.722	36195.46
517.925	36867.19
518.127	37524.59
518.329	37399.66
518.531	37520.49
518.733	37749.87
518.935	38212.71
519.136	37885.03
519.338	39074.9
519.54	39115.86
519.742	39451.73
519.944	39423.06
520.146	40567.87
520.348	40657.98
520.55	40694.85
520.752	40649.79
520.954	41378.87
521.155	41346.1
521.357	41823.28
521.559	42169.38
521.761	42664.99
521.963	42298.41
522.164	42732.57
522.366	42957.85
522.568	43373.59
522.77	43437.08
522.971	44139.53
523.173	43774.99
523.375	44561.41
523.576	44473.35
523.778	44282.89
523.98	45255.67
524.181	45102.07
524.383	45427.7
524.584	45898.73
524.786	46017.52
524.988	45908.97
525.189	46836.7
525.391	46582.76
525.592	47350.74
525.794	46994.4
525.995	47391.7
526.197	47490.01
526.398	47502.29
526.6	48028.62
526.801	47893.46
527.003	48327.63
527.204	48059.34
527.406	49046.46
527.607	48544.71
527.808	49226.68
528.01	48231.37
528.211	48808.9
528.412	49564.6
528.614	49642.42
528.815	49255.36
529.016	49916.85
529.218	49589.17
529.419	49642.42
529.62	49734.58
529.822	49867.7
530.023	49978.29
530.224	49957.81
530.425	49793.97
530.626	49560.5
530.828	49785.78
531.029	50946.98
531.23	50187.18
531.431	50371.5
531.632	51004.32
531.833	50525.1
532.035	50604.97
532.236	50768.8
532.437	50989.98
532.638	50529.19
532.839	51233.69
533.04	51334.04
533.241	50738.08
533.442	51266.46
533.643	51317.66
533.844	51540.89
534.045	51200.93
534.246	51041.18
534.447	51245.98
534.648	50811.81
534.849	51350.43
535.05	50961.31
535.251	51180.45
535.451	51321.76
535.652	51798.93
535.853	51323.8
536.054	51358.62
536.255	51958.67
536.456	50955.17
536.657	51970.96
536.857	50996.13
537.058	51297.18
537.259	51868.56
537.46	51432.35
537.66	51557.27
537.861	51366.81
538.062	51262.36
538.263	51577.75
538.463	51319.71
538.664	51356.57
538.865	51016.61
539.065	52093.84
539.266	51573.66
539.466	51956.63
539.667	50742.18
539.868	52054.93
540.068	51397.53
540.269	50842.53
540.469	51639.19
540.67	51035.04
540.87	51219.36
541.071	51340.19
541.271	51291.04
541.472	51252.12
541.672	51088.29
541.873	51397.53
542.073	50414.51
542.274	51487.64
542.474	51129.25
542.675	50836.39
542.875	51643.29
543.075	51340.19
543.276	50877.35
543.476	51725.21
543.676	50979.74
543.877	50914.21
544.077	51510.17
544.277	50920.35
544.478	51274.65
544.678	51389.34
544.878	51248.03
545.078	51495.83
545.279	50979.74
545.479	50736.04
545.679	51766.16
545.879	51078.05
546.079	51045.28
546.28	50766.76
546.48	50586.53
546.68	51391.39
546.88	51116.96
547.08	51237.79
547.28	50983.84
547.48	50492.33
547.68	50664.36
547.88	50545.58
548.081	50795.43
548.281	50912.16
548.481	50521
548.681	50944.93
548.881	50797.48
549.081	50867.11
549.28	50521
549.48	50662.31
549.68	50717.6
549.88	51225.5
550.08	50512.81
550.28	50396.07
550.48	50477.99
550.68	50643.88
550.88	50521
551.08	50389.93
551.279	50365.35
551.479	50553.77
551.679	50768.8
551.879	50140.08
552.079	50582.44
552.278	50164.65
552.478	50297.77
552.678	50213.8
552.878	50793.38
553.077	50299.82
553.277	50097.07
553.477	50922.4
553.676	50101.17
553.876	50068.4
554.076	50029.49
554.275	49994.67
554.475	49699.76
554.674	50502.57
554.874	50324.39
555.074	49705.91
555.273	50256.81
555.473	50303.92
555.672	49738.68
555.872	50273.2
556.071	49605.56
556.271	50006.96
556.47	49591.22
556.67	49251.26
556.869	49505.21
557.068	49736.63
557.268	49267.64
557.467	49529.78
557.667	49337.27
557.866	49439.67
558.065	49363.9
558.265	49050.56
558.464	49284.03
558.663	49431.48
558.863	48583.62
559.062	49583.03
559.261	48591.81
559.461	49492.92
559.66	48325.58
559.859	48966.59
560.058	48237.51
560.258	48546.76
560.457	47879.12
560.656	48706.5
560.855	48315.34
561.054	48669.64
561.253	47899.6
561.453	48661.44
561.652	48587.72
561.851	48301
562.05	48260.04
562.249	47817.68
562.448	48329.67
562.647	47844.3
562.846	47539.16
563.045	47832.02
563.244	46961.63
563.443	48141.26
563.642	47264.73
563.841	47059.93
564.04	47016.93
564.239	47571.92
564.438	47213.53
564.637	47254.49
564.836	46965.73
565.035	46762.98
565.234	46814.18
565.432	46523.36
565.631	46812.13
565.83	46808.03
566.029	46474.21
566.228	46169.07
566.427	45976.56
566.625	46095.34
566.824	46193.64
567.023	46466.02
567.222	45102.07
567.42	46003.18
567.619	46001.13
567.818	45370.36
568.016	45575.16
568.215	45769.71
568.414	45351.93
568.612	45577.2
568.811	44764.16
569.01	45339.64
569.208	44735.49
569.407	45151.23
569.605	44807.17
569.804	44905.47
570.002	44518.4
570.201	45011.96
570.4	44319.75
570.598	44151.82
570.797	43963.4
570.995	44254.22
571.193	43314.2
571.392	44340.23
571.59	43688.98
571.789	43793.42
571.987	43762.7
572.186	43484.18
572.384	43301.91
572.582	43521.04
572.781	43580.43
572.979	42589.22
573.177	42925.08
573.376	43000.86
573.574	42740.77
573.772	42765.34
573.971	42273.83
574.169	42445.86
574.367	42339.36
574.565	42611.74
574.763	42071.08
574.962	42046.51
575.16	41692.21
575.358	42011.69
575.556	41417.78
575.754	41960.49
575.952	41272.37
576.151	41565.23
576.349	41061.43
576.547	41026.62
576.745	41255.99
576.943	41509.94
577.141	41137.21
577.339	41002.04
577.537	40901.69
577.735	40670.27
577.933	40346.69
578.131	40424.51
578.329	40406.08
578.527	40129.61
578.725	40510.53
578.923	40791.1
579.121	39849.03
579.319	39808.08
579.516	40027.21
579.714	39666.77
579.912	39418.96
580.11	40002.63
580.308	39230.55
580.506	39500.88
580.704	38876.25
580.901	39079
581.099	39494.74
581.297	38429.79
581.495	39015.51
581.692	39056.47
581.89	38626.4
582.088	39177.3
582.285	38573.15
582.483	38808.67
582.681	38497.38
582.878	38372.45
583.076	38126.69
583.274	38272.1
583.471	37823.59
583.669	37418.1
583.866	37600.36
584.064	37919.85
584.262	37663.85
584.459	38057.06
584.657	37287.03
584.854	37745.77
585.052	36815.99
585.249	37194.87
585.447	37076.08
585.644	36865.14
585.841	36807.8
586.039	37414
586.236	36299.9
586.434	36584.57
586.631	36195.46
586.828	36471.93
587.026	36377.73
587.223	36115.59
587.42	36279.43
587.618	36265.09
587.815	35749
588.012	35353.74
588.21	35710.09
588.407	35851.4
588.604	35576.97
588.801	35382.41
588.999	35671.18
589.196	35517.58
589.393	34856.09
589.59	34874.52
589.787	34804.89
589.984	34993.3
590.182	34434.21
590.379	34882.71
590.576	34634.91
590.773	34426.01
590.97	34415.77
591.167	34612.38
591.364	33914.02
591.561	34387.1
591.758	33893.54
591.955	33965.22
592.152	34000.04
592.349	33606.83
592.546	33572.01
592.743	33600.68
592.94	32978.1
593.137	33416.36
593.334	33633.45
593.531	33072.31
593.727	32951.48
593.924	33031.35
594.121	32777.4
594.318	33031.35
594.515	32552.12
594.712	33006.77
594.908	32462.01
595.105	32668.86
595.302	32548.03
595.499	32281.79
595.696	32392.38
595.892	32060.61
596.089	32079.04
596.286	32232.64
596.482	32109.76
596.679	31648.97
596.876	31880.39
597.072	31845.57
597.269	31491.27
597.466	31114.45
597.662	31149.26
597.859	31495.37
598.055	31153.36
598.252	31024.34
598.448	31143.12
598.645	30813.4
598.841	30831.83
599.038	30811.35
599.234	30711
599.431	30479.58
599.627	30338.27
599.824	31001.81
600.02	30117.09
600.217	30352.6
600.413	30205.15
600.609	29879.52
600.806	29781.22
601.002	29914.34
601.198	29723.88
601.395	29488.36
601.591	29682.92
601.787	29416.68
601.984	29193.45
602.18	29527.27
602.376	29166.83
602.572	29158.64
602.769	28845.3
602.965	28732.66
603.161	28876.02
603.357	28849.39
603.553	28642.55
603.75	28822.77
603.946	28341.5
604.142	28796.15
604.338	28148.99
604.534	28523.77
604.73	28118.27
604.926	27833.6
605.122	28335.35
605.318	27964.67
605.514	28003.58
605.71	27823.36
605.906	28042.49
606.102	27583.75
606.298	27550.98
606.494	27434.25
606.69	27417.86
606.886	27718.92
607.082	26844.43
607.278	27364.62
607.474	26981.65
607.67	27215.12
607.866	26750.23
608.062	27333.9
608.257	26660.12
608.453	26838.29
608.649	26570.01
608.845	26631.44
609.041	26699.03
609.236	26580.25
609.432	26393.88
609.628	26246.43
609.824	26320.15
610.019	26553.62
610.215	26266.91
610.411	26023.2
610.606	26227.99
610.802	26082.59
610.998	25928.99
611.193	26006.81
611.389	25681.19
611.584	25867.55
611.78	25623.84
611.976	25912.61
612.171	25759.01
612.367	25558.31
612.562	25396.52
612.758	25218.35
612.953	25484.58
613.149	25500.97
613.344	25109.8
613.539	25904.42
613.735	25085.23
613.93	25388.33
614.126	25031.98
614.321	25244.97
614.517	25275.69
614.712	25040.17
614.907	25042.22
615.103	24931.63
615.298	25109.8
615.493	25283.88
615.688	24538.42
615.884	25226.54
616.079	24563
616.274	24579.38
616.47	24540.47
616.665	24366.39
616.86	24479.03
617.055	24255.8
617.25	24243.51
617.445	24577.33
617.641	23811.39
617.836	24210.75
618.031	23711.04
618.226	23991.61
618.421	23993.66
618.616	24030.52
618.811	23956.8
619.006	24003.9
619.201	23395.65
619.396	23577.92
619.591	23135.56
619.786	23563.59
619.981	23010.64
620.176	23446.85
620.371	23115.08
620.566	23106.89
620.761	22811.98
620.956	23213.38
621.151	22564.18
621.346	22625.62
621.541	22103.39
621.735	22961.48
621.93	22203.74
622.125	22267.22
622.32	21810.53
622.515	21945.69
622.709	21577.06
622.904	21646.69
623.099	21341.54
623.294	21833.05
623.488	21386.6
623.683	21523.81
623.878	21075.31
624.072	21398.88
624.267	21038.44
624.462	20944.24
624.656	20761.97
624.851	20702.57
625.046	20471.15
625.24	20575.6
625.435	20129.14
625.629	20335.99
625.824	20112.76
626.018	20196.73
626.213	19484.03
626.407	19856.76
626.602	19744.13
626.796	19654.01
626.991	19586.43
627.185	19387.78
627.38	19010.95
627.574	19406.21
627.768	18965.9
627.963	19056.01
628.157	18822.54
628.352	18906.51
628.546	18537.87
628.74	18822.54
628.935	18535.82
629.129	18404.75
629.323	18048.41
629.517	18361.75
629.712	18054.55
629.906	18167.19
630.1	17679.77
630.294	17929.63
630.489	17806.75
630.683	17800.6
630.877	17565.09
631.071	17200.55
631.265	17403.3
631.459	17233.32
631.653	16977.32
631.848	17081.77
632.042	16706.99
632.236	16950.7
632.43	16844.2
632.624	16829.87
632.818	16616.88
633.012	16469.42
633.206	16330.16
633.4	16473.52
633.594	16014.77
633.788	16307.63
633.982	16268.72
634.176	16127.41
634.369	15769.02
634.563	15850.94
634.757	15697.34
634.951	15650.24
635.145	15463.87
635.339	15732.15
635.533	15357.38
635.726	15361.47
635.92	15353.28
636.114	15232.45
636.308	14968.26
636.501	14890.44
636.695	15050.18
636.889	14941.64
637.083	14685.64
637.276	14587.34
637.47	14376.4
637.664	14736.84
637.857	14548.43
638.051	14665.16
638.244	14630.35
638.438	14179.79
638.632	14345.68
638.825	14063.06
639.019	13942.23
639.212	13929.94
639.406	13907.41
639.599	13850.07
639.793	13878.74
639.986	13708.76
640.18	13508.06
640.373	13594.08
640.567	13487.58
640.76	13360.61
640.954	13155.81
641.147	13120.99
641.34	13086.18
641.534	13018.6
641.727	13159.91
641.92	13016.55
642.114	12787.18
642.307	12912.1
642.5	12598.76
642.694	12637.67
642.887	12492.27
643.08	12625.39
643.273	12527.08
643.467	12289.52
643.66	12183.02
643.853	12324.33
644.046	12084.72
644.239	12127.73
644.432	11929.08
644.626	11992.56
644.819	11812.34
645.012	12002.8
645.205	11906.55
645.398	11595.26
645.591	11709.94
645.784	11718.14
645.977	11456
646.17	11564.54
646.363	11275.77
646.556	11296.25
646.749	11247.1
646.942	11228.67
647.135	11083.27
647.328	11091.46
647.521	11038.21
647.714	10833.41
647.907	11089.41
648.099	10853.89
648.292	11068.93
648.485	10712.58
648.678	10464.78
648.871	10532.36
649.064	10579.47
649.256	10538.51
649.449	10485.26
649.642	10425.87
649.835	10315.28
650.027	10165.78
650.22	10188.3
650.413	10042.9
650.605	10028.56
650.798	10237.45
650.991	9815.57
651.183	9930.26
651.376	9842.2
651.568	9907.73
651.761	9883.16
651.954	9707.03
652.146	9829.91
652.339	9680.41
652.531	9440.79
652.724	9477.66
652.916	9211.42
653.109	9555.48
653.301	9291.29
653.494	9610.78
653.686	9076.26
653.879	9270.81
654.071	9149.98
654.263	9078.3
654.456	9211.42
654.648	9131.55
654.84	8898.08
655.033	8779.3
655.225	8887.84
655.417	8756.77
655.61	8760.87
655.802	8769.06
655.994	8635.94
656.186	8564.26
656.379	8683.05
656.571	8486.44
656.763	8379.95
656.955	8255.02
657.148	8355.37
657.34	8517.16
657.532	8156.72
657.724	8228.4
657.916	8160.81
658.108	8214.06
658.3	8052.27
658.492	8085.04
658.684	8021.55
658.876	7900.72
659.068	7816.76
659.26	7923.25
659.452	7851.57
659.644	7779.89
659.836	7681.59
660.028	7757.36
660.22	7851.57
660.412	7636.53
660.604	7523.9
660.796	7536.18
660.988	7597.62
661.18	7523.9
661.372	7419.45
661.563	7667.25
661.755	7454.26
661.947	7308.86
662.139	7274.04
662.331	7167.55
662.522	7122.49
662.714	7233.08
662.906	7079.49
663.097	7099.97
663.289	7026.24
663.481	6956.61
663.673	7269.95
663.864	6952.51
664.056	6907.46
664.247	6872.64
664.439	6749.76
664.631	6852.16
664.822	6635.08
665.014	6600.26
665.205	6796.87
665.397	6831.68
665.588	6678.08
665.78	6678.08
665.971	6628.93
666.163	6547.01
666.354	6516.3
666.546	6604.36
666.737	6403.66
666.929	6225.48
667.12	6430.28
667.311	6481.48
667.503	6385.23
667.694	6159.95
667.885	6297.16
668.077	6305.35
668.268	6221.39
668.459	6184.52
668.651	6055.5
668.842	6131.28
669.033	5957.2
669.224	6043.21
669.416	6291.02
669.607	6110.8
669.798	6016.59
669.989	6086.22
670.18	5989.97
670.371	5832.27
670.563	5813.84
670.754	5979.73
670.945	5840.47
671.136	5848.66
671.327	5832.27
671.518	5807.7
671.709	5951.06
671.9	5862.99
672.091	5617.24
672.282	5733.97
672.473	5520.98
672.664	5881.42
672.855	5578.33
673.046	5512.79
673.237	5643.86
673.428	5699.16
673.619	5566.04
673.809	5535.32
674	5557.85
674.191	5520.98
674.382	5488.21
674.573	5480.02
674.764	5414.49
674.954	5316.19
675.145	5529.17
675.336	5461.59
675.527	5461.59
675.717	5338.71
675.908	5166.68
676.099	5437.02
676.289	5146.2
676.48	5252.7
676.671	5281.37
676.861	5312.09
677.052	5246.55
677.243	5127.77
677.433	5279.32
677.624	5170.78
677.814	5066.33
678.005	5090.91
678.195	5140.06
678.386	5017.18
678.576	4890.21
678.767	5121.63
678.957	5070.43
679.148	5066.33
679.338	5072.48
679.529	5013.09
679.719	4968.03
679.909	5113.44
680.1	5074.53
680.29	4965.98
680.481	4916.83
680.671	4941.41
680.861	4959.84
681.052	5002.85
681.242	4970.08
681.432	4941.41
681.622	5006.94
681.813	4873.82
682.003	4965.98
682.193	4783.71
682.383	4873.82
682.573	4836.96
682.764	4865.63
682.954	4804.19
683.144	4771.43
683.334	4705.89
683.524	4687.46
683.714	4808.29
683.904	4783.71
684.094	4800.1
684.284	4734.56
684.474	4752.99
684.664	4685.41
684.854	4671.08
685.044	4683.36
685.234	4720.23
685.424	4605.54
685.614	4578.92
685.804	4460.13
685.994	4466.28
686.184	4695.65
686.374	4574.82
686.564	4482.66
686.753	4609.64
686.943	4447.85
687.133	4451.94
687.323	4578.92
687.513	4527.72
687.702	4415.08
687.892	4386.41
688.082	4378.22
688.272	4308.58
688.461	4404.84
688.651	4404.84
688.841	4247.15
689.03	4290.15
689.22	4083.31
689.41	4267.63
689.599	4109.93
689.789	4300.39
689.979	4220.52
690.168	4148.84
690.358	4238.95
690.547	4136.56
690.737	4161.13
690.926	4173.42
691.116	3919.47
691.305	4011.63
691.495	4144.75
691.684	3995.25
691.874	4136.56
692.063	4038.25
692.252	4118.12
692.442	4107.88
692.631	3991.15
692.82	4030.06
693.01	3989.1
693.199	3853.94
693.388	3972.72
693.578	4001.39
693.767	3909.23
693.956	4011.63
694.146	3815.02
694.335	3817.07
694.524	3845.74
694.713	3808.88
694.902	3737.2
695.092	3794.54
695.281	3944.05
695.47	3841.65
695.659	3761.78
695.848	3784.3
696.037	3716.72
696.226	3776.11
696.415	3737.2
696.604	3700.34
696.793	3726.96
696.982	3688.05
697.171	3735.15
697.36	3698.29
697.549	3638.9
697.738	3585.65
697.927	3581.56
698.116	3651.19
698.305	3616.37
698.494	3663.47
698.683	3647.09
698.872	3550.84
699.061	3524.21
699.25	3559.03
699.438	3663.47
699.627	3655.28
699.816	3688.05
700.005	3425.91
700.193	3487.35
700.382	3599.99
700.571	3653.23
700.76	3544.69
700.948	3548.79
701.137	3538.55
701.326	3589.75
701.514	3427.96
701.703	3548.79
701.892	3395.19
702.08	3593.84
702.269	3530.36
702.457	3434.1
702.646	3554.93
702.834	3434.1
703.023	3583.6
703.212	3589.75
703.4	3446.39
703.589	3559.03
703.777	3432.05
703.965	3411.57
704.154	3513.97
704.342	3403.38
704.531	3448.44
704.719	3489.4
704.907	3624.56
705.096	3393.14
705.284	3446.39
705.472	3382.9
705.661	3317.37
705.849	3493.49
706.037	3366.52
706.226	3448.44
706.414	3513.97
706.602	3516.02
706.79	3442.29
706.979	3337.85
707.167	3329.66
707.355	3423.86
707.543	3294.84
707.731	3452.53
707.919	3444.34
708.107	3296.89
708.296	3550.84
708.484	3329.66
708.672	3368.57
708.86	3317.37
709.048	3325.56
709.236	3341.94
709.424	3374.71
709.612	3489.4
709.8	3364.47
709.988	3415.67
710.176	3317.37
710.364	3540.6
710.551	3374.71
710.739	3364.47
710.927	3370.62
711.115	3358.33
711.303	3411.57
711.491	3473.01
711.679	3448.44
711.866	3305.08
712.054	3389.05
712.242	3389.05
712.43	3452.53
712.617	3372.66
712.805	3473.01
712.993	3387
713.181	3380.86
713.368	3325.56
713.556	3339.9
713.744	3389.05
713.931	3337.85
714.119	3241.59
714.306	3337.85
714.494	3389.05
714.682	3335.8
714.869	3380.86
715.057	3423.86
715.244	3393.14
715.432	3419.77
715.619	3321.46
715.807	3401.33
715.994	3255.93
716.182	3409.53
716.369	3266.17
716.556	3419.77
716.744	3409.53
716.931	3296.89
717.119	3321.46
717.306	3362.42
717.493	3366.52
717.681	3411.57
717.868	3399.29
718.055	3464.82
718.242	3335.8
718.43	3370.62
718.617	3253.88
718.804	3376.76
718.991	3241.59
719.179	3317.37
719.366	3288.7
719.553	3378.81
719.74	3284.6
719.927	3341.94
720.114	3436.15
720.301	3343.99
720.488	3319.42
720.676	3374.71
720.863	3325.56
721.05	3341.94
721.237	3288.7
721.424	3247.74
721.611	3286.65
721.798	3223.16
721.985	3366.52
722.172	3350.14
722.358	3270.26
722.545	3290.74
722.732	3364.47
722.919	3169.91
723.106	3151.48
723.293	3368.57
723.48	3229.31
723.667	3223.16
723.853	3243.64
724.04	3272.31
724.227	3325.56
724.414	3309.18
724.6	3235.45
724.787	3339.9
724.974	3378.81
725.161	3325.56
725.347	3227.26
725.534	3300.98
725.72	3294.84
725.907	3356.28
726.094	3309.18
726.28	3329.66
726.467	3280.5
726.653	3206.78
726.84	3470.97
727.027	3399.29
727.213	3151.48
727.4	3204.73
727.586	3323.51
727.773	3298.94
727.959	3440.25
728.145	3327.61
728.332	3264.12
728.518	3282.55
728.705	3284.6
728.891	3118.72
729.077	3272.31
729.264	3270.26
729.45	3147.39
729.636	3288.7
729.823	3204.73
730.009	3280.5
730.195	3221.11
730.382	3255.93
730.568	3327.61
730.754	3180.15
730.94	3339.9
731.126	3260.02
731.313	3268.22
731.499	3325.56
731.685	3157.63
731.871	3124.86
732.057	3190.39
732.243	3260.02
732.429	3194.49
732.615	3235.45
732.801	3065.47
732.987	3122.81
733.173	3133.05
733.359	3163.77
733.545	3026.56
733.731	3133.05
733.917	3202.68
734.103	3075.71
734.289	3008.12
734.475	3104.38
734.661	3169.91
734.847	3110.52
735.033	3210.87
735.219	3137.15
735.404	3153.53
735.59	3081.85
735.776	3036.8
735.962	3100.28
736.148	3157.63
736.333	3188.35
736.519	3051.13
736.705	3083.9
736.89	3079.8
737.076	3090.04
737.262	2983.55
737.447	3061.37
737.633	3014.27
737.819	3022.46
738.004	2958.97
738.19	2981.5
738.375	3010.17
738.561	3014.27
738.747	2940.54
738.932	2922.11
739.118	3112.57
739.303	3026.56
739.489	2975.36
739.674	2932.35
739.859	2942.59
740.045	2938.49
740.23	3057.28
740.416	2895.49
740.601	2967.17
740.786	2926.21
740.972	2813.57
741.157	2834.05
741.342	2811.52
741.528	2872.96
741.713	2782.85
741.898	2700.93
742.084	2797.18
742.269	2752.13
742.454	2795.14
742.639	2842.24
742.824	2758.27
743.01	2627.2
743.195	2758.27
743.38	2801.28
743.565	2639.49
743.75	2692.74
743.935	2567.81
744.12	2543.24
744.305	2608.77
744.49	2563.72
744.675	2588.29
744.86	2702.98
745.045	2623.11
745.23	2604.67
745.415	2602.63
745.6	2608.77
745.785	2569.86
745.97	2586.24
746.155	2492.04
746.34	2477.7
746.525	2578.05
746.71	2670.21
746.895	2453.13
747.079	2535.04
747.264	2381.45
747.449	2473.6
747.634	2379.4
747.819	2354.82
748.003	2369.16
748.188	2397.83
748.373	2326.15
748.557	2520.71
748.742	2393.73
748.927	2367.11
749.111	2285.19
749.296	2244.23
749.481	2229.9
749.665	2324.1
749.85	2244.23
750.034	2180.75
750.219	2227.85
750.404	2182.79
750.588	2168.46
750.773	2094.73
750.957	2190.99
751.141	2186.89
751.326	2123.4
751.51	2100.87
751.695	2145.93
751.879	2080.39
752.064	2152.07
752.248	2043.53
752.432	2158.22
752.617	2014.86
752.801	1984.14
752.985	1984.14
753.17	2027.15
753.354	2080.39
753.538	1871.5
753.722	1980.04
753.907	1889.93
754.091	1842.83
754.275	1879.69
754.459	1793.68
754.643	1887.89
754.828	1822.35
755.012	1842.83
755.196	1726.1
755.38	1724.05
755.564	1738.38
755.748	1896.08
755.932	1875.6
756.116	1791.63
756.3	1771.15
756.484	1791.63
756.668	1746.58
756.852	1603.22
757.036	1687.18
757.22	1644.18
757.404	1691.28
757.588	1592.98
757.772	1570.45
757.956	1662.61
758.14	1592.98
758.323	1576.59
758.507	1629.84
758.691	1683.09
758.875	1617.55
759.059	1642.13
759.242	1582.74
759.426	1558.16
759.61	1556.11
759.794	1568.4
759.977	1537.68
760.161	1572.5
760.345	1545.88
760.528	1574.55
760.712	1488.53
760.895	1443.48
761.079	1513.11
761.263	1453.72
761.446	1425.04
761.63	1537.68
761.813	1425.04
761.997	1517.2
762.18	1429.14
762.364	1429.14
762.547	1281.69
762.731	1455.76
762.914	1400.47
763.098	1443.48
763.281	1427.09
763.464	1517.2
763.648	1416.85
763.831	1298.07
764.015	1310.36
764.198	1384.09
764.381	1433.24
764.564	1365.65
764.748	1298.07
764.931	1355.41
765.114	1232.54
765.297	1283.74
765.481	1263.26
765.664	1289.88
765.847	1334.93
766.03	1314.45
766.213	1310.36
766.397	1308.31
766.58	1304.21
766.763	1236.63
766.946	1185.43
767.129	1255.06
767.312	1218.2
767.495	1345.17
767.678	1222.3
767.861	1248.92
768.044	1291.93
768.227	1152.67
768.41	1220.25
768.593	1242.78
768.776	1193.62
768.959	1203.86
769.142	1226.39
769.324	1162.9
769.507	1169.05
769.69	1167
769.873	1164.95
770.056	1187.48
770.239	1099.42
770.421	1216.15
770.604	1144.47
770.787	1130.14
770.97	1173.14
771.152	1080.99
771.335	1074.84
771.518	1080.99
771.7	1210.01
771.883	1138.33
772.066	1058.46
772.248	1103.51
772.431	1068.7
772.613	1134.23
772.796	1091.23
772.978	1074.84
773.161	1085.08
773.343	1058.46
773.526	974.49
773.708	1007.26
773.891	980.64
774.073	1072.79
774.256	1091.23
774.438	1089.18
774.621	1013.4
774.803	929.44
774.985	982.68
775.168	988.83
775.35	915.1
775.532	990.88
775.715	845.47
775.897	958.11
776.079	886.43
776.261	1001.12
776.444	956.06
776.626	921.24
776.808	841.37
776.99	870.05
777.173	865.95
777.355	904.86
777.537	886.43
777.719	833.18
777.901	833.18
778.083	835.23
778.265	732.83
778.447	872.09
778.629	794.27
778.811	837.28
778.993	843.42
779.175	806.56
779.357	757.41
779.539	745.12
779.721	806.56
779.903	839.33
780.085	779.93
780.267	685.73
780.449	773.79
780.631	816.8
780.812	804.51
780.994	827.04
781.176	749.22
781.358	749.22
781.54	753.31
781.721	804.51
781.903	781.98
782.085	827.04
782.267	652.96
782.448	659.1
782.63	728.74
782.812	679.58
782.993	675.49
783.175	628.39
783.357	620.19
783.538	669.34
783.72	657.06
783.901	640.67
784.083	700.06
784.264	646.82
784.446	595.62
784.627	636.58
784.809	677.54
784.99	622.24
785.172	677.54
785.353	601.76
785.535	597.67
785.716	587.43
785.897	628.39
786.079	544.42
786.26	661.15
786.441	562.85
786.623	536.23
786.804	534.18
786.985	579.23
787.167	568.99
787.348	546.47
787.529	534.18
787.71	630.43
787.891	552.61
788.073	485.03
788.254	534.18
788.435	607.91
788.616	585.38
788.797	505.51
788.978	534.18
789.159	478.88
789.34	472.74
789.522	566.95
789.703	538.27
789.884	521.89
790.065	466.6
790.246	491.17
790.427	495.27
790.607	505.51
790.788	519.84
790.969	480.93
791.15	448.16
791.331	452.26
791.512	536.23
791.693	470.69
791.874	448.16
792.054	362.15
792.235	519.84
792.416	401.06
792.597	437.92
792.778	525.99
792.958	485.03
793.139	431.78
793.32	415.4
793.5	423.59
793.681	503.46
793.862	499.36
794.042	517.79
794.223	362.15
794.404	427.68
794.584	321.19
794.765	413.35
794.945	370.34
795.126	466.6
795.306	360.1
795.487	482.98
795.667	349.86
795.848	493.22
796.028	476.84
796.209	413.35
796.389	396.96
796.57	353.96
796.75	216.74
796.93	431.78
797.111	380.58
797.291	448.16
797.471	319.14
797.652	269.99
797.832	347.81
798.012	335.53
798.192	380.58
798.373	384.68
798.553	261.8
798.733	386.72
798.913	392.87
799.093	343.72
799.274	315.05
799.454	323.24
799.634	343.72
799.814	382.63
799.994	239.27
800.174	308.9
800.354	353.96
800.534	360.1
800.714	292.52
800.894	310.95
801.074	278.18
801.254	310.95
801.434	337.57
801.614	231.08
801.794	255.65
801.974	773.79
802.154	335.53
802.334	259.75
802.514	286.37
802.693	284.33
802.873	319.14
803.053	345.77
803.233	308.9
803.413	306.85
803.592	257.7
803.772	177.83
803.952	319.14
804.131	308.9
804.311	286.37
804.491	292.52
804.67	325.29
804.85	237.22
805.03	374.44
805.209	319.14
805.389	313
805.568	226.98
805.748	272.04
805.928	282.28
806.107	269.99
806.287	323.24
806.466	226.98
806.646	259.75
806.825	226.98
807.004	218.79
807.184	339.62
807.363	349.86
807.543	247.46
807.722	169.64
807.901	288.42
808.081	245.41
808.26	163.5
808.439	280.23
808.619	175.78
808.798	173.74
808.977	179.88
809.156	269.99
809.336	210.6
809.515	306.85
809.694	243.37
809.873	220.84
810.052	237.22
810.231	261.8
810.411	216.74
810.59	253.61
810.769	263.85
810.948	224.94
811.127	188.07
811.306	214.7
811.485	233.13
811.664	290.47
811.843	161.45
812.022	257.7
812.201	243.37
812.38	257.7
812.559	216.74
812.737	245.41
812.916	220.84
813.095	259.75
813.274	161.45
813.453	200.36
813.632	216.74
813.811	233.13
813.989	181.93
814.168	253.61
814.347	202.41
814.526	204.46
814.704	259.75
814.883	253.61
815.062	159.4
815.24	163.5
815.419	116.39
815.598	169.64
815.776	194.22
815.955	145.06
816.133	136.87
816.312	155.3
816.49	220.84
816.669	210.6
816.847	163.5
817.026	188.07
817.204	161.45
817.383	192.17
817.561	177.83
817.74	186.02
817.918	122.54
818.097	171.69
818.275	110.25
818.453	261.8
818.632	208.55
818.81	175.78
818.988	153.26
819.167	130.73
819.345	190.12
819.523	120.49
819.701	177.83
819.879	124.58
820.058	177.83
820.236	192.17
820.414	200.36
820.592	188.07
820.77	237.22
820.948	200.36
821.127	112.3
821.305	145.06
821.483	136.87
821.661	237.22
821.839	181.93
822.017	130.73
822.195	161.45
822.373	147.11
822.551	212.65
822.729	169.64
822.907	145.06
823.085	153.26
823.262	175.78
823.44	177.83
823.618	175.78
823.796	188.07
823.974	116.39
824.152	198.31
824.329	151.21
824.507	108.2
824.685	151.21
824.863	229.03
825.04	130.73
825.218	157.35
825.396	112.3
825.574	161.45
825.751	188.07
825.929	95.91
826.107	73.39
826.284	145.06
826.462	224.94
826.639	177.83
826.817	171.69
826.994	120.49
827.172	91.82
827.349	200.36
827.527	134.82
827.704	202.41
827.882	85.67
828.059	81.58
828.237	143.02
828.414	151.21
828.591	40.62
828.769	153.26
828.946	110.25
829.124	71.34
829.301	210.6
829.478	122.54
829.655	75.43
829.833	181.93
830.01	229.03
830.187	149.16
830.364	138.92
830.542	157.35
830.719	200.36
830.896	67.24
831.073	93.87
831.25	128.68
831.427	149.16
831.604	110.25
831.782	69.29
831.959	104.11
832.136	130.73
832.313	122.54
832.49	138.92
832.667	143.02
832.844	50.86
833.021	130.73
833.198	63.15
833.374	81.58
833.551	28.33
833.728	130.73
833.905	93.87
834.082	63.15
834.259	138.92
834.436	145.06
834.612	-6.49
834.789	183.98
834.966	138.92
835.143	85.67
835.319	138.92
835.496	126.63
835.673	147.11
835.85	73.39
836.026	57
836.203	100.01
836.38	83.63
836.556	79.53
836.733	69.29
836.909	97.96
837.086	69.29
837.262	87.72
837.439	89.77
837.616	44.71
837.792	93.87
837.968	89.77
838.145	143.02
838.321	116.39
838.498	171.69
838.674	85.67
838.851	95.91
839.027	63.15
839.203	138.92
839.38	147.11
839.556	89.77
839.732	130.73
839.909	69.29
840.085	151.21
840.261	38.57
840.437	110.25
840.614	102.06
840.79	97.96
840.966	124.58
841.142	73.39
841.318	89.77
841.494	81.58
841.671	59.05
841.847	75.43
842.023	32.43
842.199	63.15
842.375	159.4
842.551	110.25
842.727	122.54
842.903	108.2
843.079	63.15
843.255	104.11
843.431	87.72
843.607	32.43
843.783	112.3
843.959	116.39
844.134	32.43
844.31	138.92
844.486	22.19
844.662	36.52
844.838	61.1
845.013	77.48
845.189	134.82
845.365	77.48
845.541	24.23
845.716	77.48
845.892	145.06
846.068	163.5
846.244	38.57
846.419	61.1
846.595	61.1
846.77	77.48
846.946	69.29
847.122	77.48
847.297	52.91
847.473	100.01
847.648	22.19
847.824	69.29
847.999	54.95
848.175	132.78
848.35	95.91
848.526	85.67
848.701	106.15
848.876	102.06
849.052	114.34
849.227	18.09
849.403	57
849.578	79.53
849.753	63.15
849.929	-0.34
850.104	34.47
850.279	95.91
850.454	87.72
850.63	40.62
850.805	61.1
850.98	-2.39
851.155	102.06
851.33	104.11
851.505	71.34
851.681	81.58
851.856	-8.53
852.031	132.78
852.206	59.05
852.381	16.04
852.556	63.15
852.731	85.67
852.906	13.99
853.081	108.2
853.256	106.15
853.431	40.62
853.606	7.85
853.781	108.2
853.956	18.09
854.131	22.19
854.305	63.15
854.48	106.15
854.655	54.95
854.83	-0.34
855.005	-14.68
855.18	54.95
855.354	73.39
855.529	122.54
855.704	32.43
855.879	87.72
856.053	-14.68
856.228	108.2
856.403	46.76
856.577	83.63
856.752	22.19
856.926	26.28
857.101	65.19
857.276	77.48
857.45	24.23
857.625	57
857.799	89.77
857.974	20.14
858.148	-14.68
858.323	89.77
858.497	34.47
858.672	52.91
858.846	69.29
859.02	48.81
859.195	-16.73
859.369	-0.34
859.543	30.38
859.718	5.8
859.892	30.38
860.066	46.76
860.241	59.05
860.415	40.62
860.589	1.71
860.763	54.95
860.938	83.63
861.112	69.29
861.286	28.33
861.46	44.71
861.634	54.95
861.808	75.43
861.982	-51.54
862.157	3.75
862.331	11.95
862.505	57
862.679	11.95
862.853	54.95
863.027	61.1
863.201	18.09
863.375	-45.4
863.549	5.8
863.722	73.39
863.896	57
864.07	59.05
864.244	87.72
864.418	95.91
864.592	57
864.766	28.33
864.939	30.38
865.113	11.95
865.287	11.95
865.461	5.8
865.634	110.25
865.808	13.99
865.982	13.99
866.156	1.71
866.329	114.34
866.503	57
866.676	102.06
866.85	61.1
867.024	3.75
867.197	-2.39
867.371	26.28
867.544	69.29
867.718	-22.87
867.891	73.39
868.065	1.71
868.238	34.47
868.412	75.43
868.585	44.71
868.759	69.29
868.932	54.95
869.105	-0.34
869.279	28.33
869.452	48.81
869.625	-18.77
869.799	44.71
869.972	-0.34
870.145	52.91
870.319	100.01
870.492	3.75
870.665	40.62
870.838	7.85
871.011	7.85
871.185	50.86
871.358	34.47
871.531	16.04
871.704	5.8
871.877	59.05
872.05	-33.11
872.223	124.58
872.396	32.43
872.569	85.67
872.742	40.62
872.915	110.25
873.088	-4.44
873.261	-35.16
873.434	-4.44
873.607	59.05
873.78	18.09
873.953	69.29
874.126	9.9
874.299	95.91
874.471	-4.44
874.644	-0.34
874.817	18.09
874.99	50.86
875.163	38.57
875.335	-16.73
875.508	34.47
875.681	48.81
875.853	28.33
876.026	40.62
876.199	73.39
876.371	61.1
876.544	7.85
876.717	-55.64
876.889	106.15
877.062	73.39
877.234	5.8
877.407	46.76
877.579	48.81
877.752	22.19
877.924	38.57
878.097	77.48
878.269	20.14
878.442	83.63
878.614	3.75
878.786	30.38
878.959	1.71
879.131	-39.25
879.303	-49.49
879.476	46.76
879.648	30.38
879.82	28.33
879.993	38.57
880.165	40.62
880.337	95.91
880.509	-18.77
880.681	-41.3
880.854	63.15
881.026	73.39
881.198	89.77
881.37	-8.53
881.542	85.67
881.714	32.43
881.886	32.43
882.058	57
882.23	1.71
882.402	-8.53
882.574	5.8
882.746	-37.2
882.918	89.77
883.09	44.71
883.262	5.8
883.434	97.96
883.606	13.99
883.778	7.85
883.95	5.8
884.122	71.34
884.293	81.58
884.465	5.8
884.637	34.47
884.809	32.43
884.98	-18.77
885.152	44.71
885.324	59.05
885.496	100.01
885.667	83.63
885.839	3.75
886.011	100.01
886.182	73.39
886.354	-22.87
886.525	-16.73
886.697	40.62
886.869	-16.73
887.04	40.62
887.212	89.77
887.383	59.05
887.555	22.19
887.726	9.9
887.897	-51.54
888.069	18.09
888.24	59.05
888.412	22.19
888.583	-53.59
888.754	20.14
888.926	-29.01
889.097	-61.78
889.268	-10.58
889.44	16.04
889.611	-29.01
889.782	-2.39
889.953	-24.92
890.125	83.63
890.296	-33.11
890.467	-24.92
890.638	36.52
890.809	42.67
890.98	46.76
891.151	-37.2
891.323	65.19
891.494	30.38
891.665	44.71
891.836	36.52
892.007	77.48
892.178	-47.44
892.349	71.34
892.52	30.38
892.691	32.43
892.862	-2.39
893.032	-0.34
893.203	75.43
893.374	-35.16
893.545	24.23
893.716	-16.73
893.887	11.95
894.057	13.99
894.228	-12.63
894.399	59.05
894.57	38.57
894.74	5.8
894.911	30.38
895.082	9.9
895.253	34.47
895.423	-8.53
895.594	-18.77
895.764	-8.53
895.935	28.33
896.106	40.62
896.276	46.76
896.447	20.14
896.617	-16.73
896.788	9.9
896.958	59.05
897.129	50.86
897.299	32.43
897.47	42.67
897.64	93.87
897.81	-0.34
897.981	48.81
898.151	-0.34
898.322	81.58
898.492	24.23
898.662	34.47
898.832	11.95
899.003	34.47
899.173	28.33
899.343	-2.39
899.513	-18.77
