Data from USB4F104151__52__10-23-42-374.txt Node

Date: Wed Mar 12 10:23:42 EDT 2025
User: louis
Spectrometer: USB4F10415
Trigger mode: 4
Integration Time (sec): 3.000000E-2
Scans to average: 1
Electric dark correction enabled: true
Nonlinearity correction enabled: false
Boxcar width: 0
XAxis mode: Wavelengths
Number of Pixels in Spectrum: 3648
>>>>>Begin Spectral Data<<<<<
178.204	-94.55
178.424	-94.55
178.644	-94.55
178.864	-160.08
179.084	-41.3
179.304	-76.12
179.524	16.04
179.744	42.67
179.964	-12.63
180.184	-59.73
180.404	1.71
180.624	-6.49
180.844	13.99
181.064	20.14
181.283	52.91
181.503	36.52
181.723	-29.01
181.943	-20.82
182.163	-41.3
182.383	28.33
182.602	48.81
182.822	63.15
183.042	9.9
183.262	22.19
183.482	32.43
183.701	-37.2
183.921	-8.53
184.141	38.57
184.361	44.71
184.58	1.71
184.8	44.71
185.02	36.52
185.239	22.19
185.459	26.28
185.679	18.09
185.898	-82.26
186.118	20.14
186.338	36.52
186.557	52.91
186.777	36.52
186.997	44.71
187.216	-39.25
187.436	20.14
187.655	59.05
187.875	32.43
188.095	-16.73
188.314	9.9
188.534	54.95
188.753	-16.73
188.973	65.19
189.192	81.58
189.412	9.9
189.631	28.33
189.851	16.04
190.07	18.09
190.29	22.19
190.509	-29.01
190.729	3.75
190.948	-14.68
191.168	89.77
191.387	-20.82
191.607	-96.6
191.826	87.72
192.045	3.75
192.265	59.05
192.484	18.09
192.704	97.96
192.923	-33.11
193.142	-4.44
193.362	16.04
193.581	30.38
193.8	44.71
194.02	77.48
194.239	11.95
194.458	44.71
194.678	-67.92
194.897	102.06
195.116	32.43
195.335	11.95
195.555	67.24
195.774	-24.92
195.993	-12.63
196.212	18.09
196.432	3.75
196.651	-8.53
196.87	59.05
197.089	151.21
197.308	34.47
197.528	5.8
197.747	1.71
197.966	7.85
198.185	40.62
198.404	30.38
198.623	52.91
198.842	34.47
199.062	73.39
199.281	30.38
199.5	-20.82
199.719	102.06
199.938	24.23
200.157	-35.16
200.376	42.67
200.595	57
200.814	-6.49
201.033	24.23
201.252	9.9
201.471	1.71
201.69	85.67
201.909	-39.25
202.128	-12.63
202.347	71.34
202.566	20.14
202.785	-12.63
203.004	7.85
203.223	100.01
203.442	61.1
203.661	71.34
203.879	81.58
204.098	57
204.317	-4.44
204.536	22.19
204.755	-14.68
204.974	67.24
205.193	-41.3
205.411	97.96
205.63	42.67
205.849	42.67
206.068	16.04
206.287	18.09
206.505	93.87
206.724	5.8
206.943	-24.92
207.162	-33.11
207.381	61.1
207.599	7.85
207.818	9.9
208.037	42.67
208.255	46.76
208.474	-37.2
208.693	44.71
208.911	7.85
209.13	-10.58
209.349	52.91
209.567	61.1
209.786	75.43
210.005	44.71
210.223	97.96
210.442	-102.74
210.661	34.47
210.879	52.91
211.098	-0.34
211.316	77.48
211.535	46.76
211.753	89.77
211.972	46.76
212.191	52.91
212.409	54.95
212.628	-29.01
212.846	-39.25
213.065	95.91
213.283	-39.25
213.502	11.95
213.72	89.77
213.938	44.71
214.157	30.38
214.375	24.23
214.594	-33.11
214.812	22.19
215.031	73.39
215.249	-14.68
215.467	-16.73
215.686	13.99
215.904	34.47
216.122	16.04
216.341	32.43
216.559	9.9
216.778	91.82
216.996	77.48
217.214	-29.01
217.432	83.63
217.651	-16.73
217.869	24.23
218.087	-2.39
218.306	-24.92
218.524	126.63
218.742	-12.63
218.96	-14.68
219.179	44.71
219.397	57
219.615	77.48
219.833	75.43
220.051	-74.07
220.27	36.52
220.488	54.95
220.706	-8.53
220.924	87.72
221.142	16.04
221.36	1.71
221.578	1.71
221.796	69.29
222.015	-0.34
222.233	9.9
222.451	104.11
222.669	69.29
222.887	20.14
223.105	-18.77
223.323	57
223.541	-35.16
223.759	42.67
223.977	-45.4
224.195	65.19
224.413	67.24
224.631	20.14
224.849	32.43
225.067	22.19
225.285	-14.68
225.503	24.23
225.721	-16.73
225.939	63.15
226.157	50.86
226.375	106.15
226.592	3.75
226.81	75.43
227.028	24.23
227.246	42.67
227.464	24.23
227.682	-45.4
227.9	65.19
228.117	40.62
228.335	28.33
228.553	46.76
228.771	20.14
228.989	77.48
229.206	81.58
229.424	75.43
229.642	-24.92
229.86	-12.63
230.077	13.99
230.295	24.23
230.513	3.75
230.731	54.95
230.948	44.71
231.166	54.95
231.384	-6.49
231.601	13.99
231.819	-8.53
232.037	57
232.254	1.71
232.472	36.52
232.689	9.9
232.907	143.02
233.125	-12.63
233.342	-4.44
233.56	-4.44
233.777	-4.44
233.995	59.05
234.213	44.71
234.43	87.72
234.648	28.33
234.865	67.24
235.083	52.91
235.3	-4.44
235.518	61.1
235.735	9.9
235.953	7.85
236.17	44.71
236.388	16.04
236.605	-12.63
236.822	16.04
237.04	32.43
237.257	-4.44
237.475	-12.63
237.692	73.39
237.909	-8.53
238.127	-8.53
238.344	32.43
238.562	83.63
238.779	-6.49
238.996	46.76
239.214	52.91
239.431	75.43
239.648	-10.58
239.865	81.58
240.083	50.86
240.3	-18.77
240.517	48.81
240.735	20.14
240.952	50.86
241.169	36.52
241.386	-6.49
241.603	40.62
241.821	28.33
242.038	42.67
242.255	18.09
242.472	46.76
242.689	18.09
242.907	149.16
243.124	32.43
243.341	9.9
243.558	-6.49
243.775	3.75
243.992	36.52
244.209	42.67
244.426	124.58
244.643	36.52
244.86	85.67
245.078	54.95
245.295	42.67
245.512	36.52
245.729	83.63
245.946	-20.82
246.163	34.47
246.38	48.81
246.597	61.1
246.814	20.14
247.031	-41.3
247.248	67.24
247.464	-6.49
247.681	26.28
247.898	59.05
248.115	61.1
248.332	9.9
248.549	83.63
248.766	32.43
248.983	48.81
249.2	44.71
249.417	116.39
249.633	44.71
249.85	-2.39
250.067	-39.25
250.284	89.77
250.501	36.52
250.717	3.75
250.934	-22.87
251.151	48.81
251.368	20.14
251.585	110.25
251.801	26.28
252.018	-10.58
252.235	-0.34
252.451	26.28
252.668	18.09
252.885	95.91
253.102	50.86
253.318	85.67
253.535	-33.11
253.752	50.86
253.968	71.34
254.185	13.99
254.401	24.23
254.618	32.43
254.835	-16.73
255.051	126.63
255.268	52.91
255.484	32.43
255.701	32.43
255.917	54.95
256.134	-31.06
256.351	73.39
256.567	16.04
256.784	69.29
257	11.95
257.217	79.53
257.433	13.99
257.65	34.47
257.866	20.14
258.082	93.87
258.299	28.33
258.515	87.72
258.732	13.99
258.948	16.04
259.165	20.14
259.381	13.99
259.597	54.95
259.814	54.95
260.03	83.63
260.246	71.34
260.463	-45.4
260.679	44.71
260.895	22.19
261.112	-37.2
261.328	36.52
261.544	-22.87
261.761	87.72
261.977	13.99
262.193	24.23
262.409	128.68
262.626	18.09
262.842	81.58
263.058	9.9
263.274	-26.96
263.49	77.48
263.707	81.58
263.923	-33.11
264.139	-96.6
264.355	52.91
264.571	16.04
264.787	48.81
265.004	116.39
265.22	50.86
265.436	44.71
265.652	11.95
265.868	54.95
266.084	1.71
266.3	13.99
266.516	26.28
266.732	50.86
266.948	26.28
267.164	-12.63
267.38	89.77
267.596	-4.44
267.812	77.48
268.028	73.39
268.244	93.87
268.46	42.67
268.676	26.28
268.892	57
269.108	75.43
269.324	-33.11
269.54	16.04
269.756	-12.63
269.972	79.53
270.188	34.47
270.403	59.05
270.619	3.75
270.835	-6.49
271.051	-10.58
271.267	61.1
271.483	106.15
271.698	34.47
271.914	57
272.13	73.39
272.346	-43.35
272.562	11.95
272.777	67.24
272.993	-6.49
273.209	-55.64
273.425	11.95
273.64	-8.53
273.856	-31.06
274.072	75.43
274.287	-2.39
274.503	89.77
274.719	50.86
274.934	18.09
275.15	18.09
275.366	-20.82
275.581	48.81
275.797	93.87
276.012	1.71
276.228	52.91
276.444	-12.63
276.659	20.14
276.875	-74.07
277.09	-4.44
277.306	50.86
277.521	79.53
277.737	18.09
277.952	102.06
278.168	-8.53
278.383	44.71
278.599	-22.87
278.814	57
279.03	11.95
279.245	52.91
279.461	22.19
279.676	7.85
279.892	57
280.107	52.91
280.322	3.75
280.538	-31.06
280.753	-10.58
280.969	59.05
281.184	-2.39
281.399	59.05
281.615	32.43
281.83	79.53
282.045	-53.59
282.26	26.28
282.476	9.9
282.691	100.01
282.906	79.53
283.122	16.04
283.337	1.71
283.552	44.71
283.767	48.81
283.983	59.05
284.198	-2.39
284.413	59.05
284.628	-22.87
284.843	28.33
285.058	44.71
285.274	26.28
285.489	-37.2
285.704	36.52
285.919	20.14
286.134	26.28
286.349	-29.01
286.564	20.14
286.779	-24.92
286.995	-4.44
287.21	-6.49
287.425	79.53
287.64	48.81
287.855	73.39
288.07	-4.44
288.285	145.06
288.5	38.57
288.715	73.39
288.93	-18.77
289.145	28.33
289.36	85.67
289.575	32.43
289.79	69.29
290.004	73.39
290.219	79.53
290.434	59.05
290.649	9.9
290.864	36.52
291.079	48.81
291.294	22.19
291.509	-53.59
291.724	40.62
291.938	-33.11
292.153	71.34
292.368	63.15
292.583	28.33
292.798	63.15
293.012	-22.87
293.227	-6.49
293.442	69.29
293.657	73.39
293.871	40.62
294.086	73.39
294.301	73.39
294.516	-2.39
294.73	75.43
294.945	-69.97
295.16	102.06
295.374	155.3
295.589	171.69
295.804	28.33
296.018	9.9
296.233	-37.2
296.447	24.23
296.662	44.71
296.877	97.96
297.091	26.28
297.306	-31.06
297.52	87.72
297.735	-6.49
297.949	3.75
298.164	83.63
298.378	32.43
298.593	3.75
298.807	-2.39
299.022	138.92
299.236	44.71
299.451	7.85
299.665	-4.44
299.88	40.62
300.094	-18.77
300.309	50.86
300.523	42.67
300.737	52.91
300.952	24.23
301.166	-12.63
301.381	-0.34
301.595	1.71
301.809	46.76
302.024	11.95
302.238	1.71
302.452	18.09
302.667	40.62
302.881	24.23
303.095	89.77
303.309	65.19
303.524	28.33
303.738	52.91
303.952	-14.68
304.166	11.95
304.381	-18.77
304.595	124.58
304.809	28.33
305.023	81.58
305.237	30.38
305.452	52.91
305.666	54.95
305.88	30.38
306.094	36.52
306.308	16.04
306.522	83.63
306.736	59.05
306.95	18.09
307.164	-29.01
307.379	26.28
307.593	42.67
307.807	100.01
308.021	26.28
308.235	77.48
308.449	9.9
308.663	36.52
308.877	147.11
309.091	-18.77
309.305	38.57
309.519	11.95
309.733	32.43
309.947	38.57
310.161	81.58
310.374	69.29
310.588	7.85
310.802	16.04
311.016	-67.92
311.23	61.1
311.444	77.48
311.658	18.09
311.872	30.38
312.085	65.19
312.299	120.49
312.513	85.67
312.727	24.23
312.941	34.47
313.154	-37.2
313.368	24.23
313.582	20.14
313.796	36.52
314.009	-4.44
314.223	79.53
314.437	36.52
314.651	26.28
314.864	28.33
315.078	34.47
315.292	13.99
315.505	7.85
315.719	42.67
315.933	59.05
316.146	-49.49
316.36	73.39
316.573	77.48
316.787	40.62
317.001	59.05
317.214	-12.63
317.428	-29.01
317.641	-0.34
317.855	26.28
318.068	81.58
318.282	85.67
318.495	91.82
318.709	95.91
318.922	36.52
319.136	42.67
319.349	-2.39
319.563	22.19
319.776	22.19
319.99	5.8
320.203	32.43
320.417	30.38
320.63	48.81
320.843	69.29
321.057	73.39
321.27	-24.92
321.483	28.33
321.697	24.23
321.91	-10.58
322.124	22.19
322.337	52.91
322.55	-26.96
322.763	59.05
322.977	5.8
323.19	61.1
323.403	57
323.617	32.43
323.83	124.58
324.043	-8.53
324.256	61.1
324.469	9.9
324.683	40.62
324.896	1.71
325.109	52.91
325.322	24.23
325.535	77.48
325.748	50.86
325.962	-4.44
326.175	116.39
326.388	108.2
326.601	28.33
326.814	3.75
327.027	50.86
327.24	69.29
327.453	-8.53
327.666	61.1
327.879	26.28
328.092	116.39
328.305	30.38
328.518	73.39
328.731	16.04
328.944	75.43
329.157	61.1
329.37	-4.44
329.583	67.24
329.796	16.04
330.009	-63.83
330.222	61.1
330.435	18.09
330.648	54.95
330.861	110.25
331.073	-37.2
331.286	16.04
331.499	77.48
331.712	26.28
331.925	46.76
332.138	48.81
332.35	89.77
332.563	-14.68
332.776	32.43
332.989	46.76
333.202	13.99
333.414	44.71
333.627	130.73
333.84	83.63
334.053	69.29
334.265	87.72
334.478	18.09
334.691	-20.82
334.903	-12.63
335.116	-10.58
335.329	44.71
335.541	122.54
335.754	110.25
335.966	48.81
336.179	-33.11
336.392	75.43
336.604	3.75
336.817	75.43
337.029	-6.49
337.242	69.29
337.454	7.85
337.667	-29.01
337.88	36.52
338.092	-12.63
338.305	44.71
338.517	57
338.729	91.82
338.942	95.91
339.154	32.43
339.367	52.91
339.579	48.81
339.792	61.1
340.004	-41.3
340.217	89.77
340.429	-10.58
340.641	42.67
340.854	85.67
341.066	50.86
341.278	69.29
341.491	1.71
341.703	30.38
341.915	36.52
342.128	97.96
342.34	87.72
342.552	97.96
342.764	32.43
342.977	57
343.189	73.39
343.401	69.29
343.613	48.81
343.826	26.28
344.038	40.62
344.25	67.24
344.462	77.48
344.674	-16.73
344.886	-12.63
345.099	71.34
345.311	18.09
345.523	16.04
345.735	7.85
345.947	9.9
346.159	-20.82
346.371	61.1
346.583	61.1
346.795	77.48
347.007	9.9
347.219	79.53
347.431	-4.44
347.643	75.43
347.855	-74.07
348.067	77.48
348.279	7.85
348.491	67.24
348.703	-6.49
348.915	100.01
349.127	40.62
349.339	36.52
349.551	24.23
349.763	95.91
349.975	-6.49
350.187	104.11
350.399	36.52
350.61	73.39
350.822	116.39
351.034	69.29
351.246	46.76
351.458	89.77
351.669	67.24
351.881	69.29
352.093	46.76
352.305	38.57
352.517	57
352.728	46.76
352.94	89.77
353.152	38.57
353.363	48.81
353.575	54.95
353.787	112.3
353.999	118.44
354.21	95.91
354.422	38.57
354.633	89.77
354.845	40.62
355.057	-4.44
355.268	120.49
355.48	104.11
355.692	36.52
355.903	44.71
356.115	54.95
356.326	32.43
356.538	163.5
356.749	26.28
356.961	50.86
357.172	7.85
357.384	40.62
357.595	93.87
357.807	36.52
358.018	-53.59
358.23	83.63
358.441	48.81
358.653	-24.92
358.864	44.71
359.075	36.52
359.287	26.28
359.498	77.48
359.709	116.39
359.921	28.33
360.132	89.77
360.344	28.33
360.555	-39.25
360.766	30.38
360.977	77.48
361.189	34.47
361.4	-31.06
361.611	65.19
361.823	93.87
362.034	65.19
362.245	18.09
362.456	67.24
362.667	91.82
362.879	65.19
363.09	79.53
363.301	57
363.512	44.71
363.723	116.39
363.935	16.04
364.146	153.26
364.357	83.63
364.568	71.34
364.779	50.86
364.99	85.67
365.201	-6.49
365.412	54.95
365.623	9.9
365.834	42.67
366.045	-18.77
366.256	36.52
366.467	30.38
366.678	34.47
366.889	30.38
367.1	40.62
367.311	67.24
367.522	28.33
367.733	24.23
367.944	40.62
368.155	16.04
368.366	44.71
368.577	104.11
368.788	48.81
368.999	63.15
369.209	61.1
369.42	132.78
369.631	138.92
369.842	91.82
370.053	48.81
370.264	20.14
370.474	57
370.685	-14.68
370.896	91.82
371.107	110.25
371.317	52.91
371.528	-33.11
371.739	42.67
371.95	81.58
372.16	57
372.371	102.06
372.582	57
372.792	46.76
373.003	59.05
373.214	100.01
373.424	106.15
373.635	-4.44
373.846	69.29
374.056	54.95
374.267	100.01
374.477	57
374.688	75.43
374.898	42.67
375.109	63.15
375.319	61.1
375.53	126.63
375.74	40.62
375.951	28.33
376.161	-4.44
376.372	97.96
376.582	36.52
376.793	11.95
377.003	-12.63
377.214	9.9
377.424	32.43
377.635	54.95
377.845	32.43
378.055	46.76
378.266	5.8
378.476	36.52
378.686	57
378.897	116.39
379.107	11.95
379.317	-14.68
379.528	71.34
379.738	116.39
379.948	65.19
380.158	26.28
380.369	20.14
380.579	130.73
380.789	73.39
380.999	30.38
381.21	114.34
381.42	106.15
381.63	73.39
381.84	85.67
382.05	73.39
382.261	124.58
382.471	-16.73
382.681	100.01
382.891	11.95
383.101	32.43
383.311	63.15
383.521	63.15
383.731	59.05
383.941	138.92
384.151	61.1
384.361	61.1
384.571	97.96
384.781	85.67
384.991	114.34
385.201	255.65
385.411	108.2
385.621	57
385.831	75.43
386.041	18.09
386.251	34.47
386.461	100.01
386.671	13.99
386.881	104.11
387.091	57
387.301	108.2
387.511	73.39
387.72	100.01
387.93	122.54
388.14	20.14
388.35	85.67
388.56	126.63
388.769	134.82
388.979	65.19
389.189	97.96
389.399	61.1
389.609	30.38
389.818	89.77
390.028	28.33
390.238	3.75
390.447	108.2
390.657	46.76
390.867	16.04
391.076	112.3
391.286	52.91
391.496	40.62
391.705	106.15
391.915	161.45
392.125	106.15
392.334	52.91
392.544	122.54
392.753	143.02
392.963	44.71
393.172	143.02
393.382	48.81
393.591	134.82
393.801	69.29
394.01	40.62
394.22	132.78
394.429	20.14
394.639	132.78
394.848	161.45
395.058	81.58
395.267	85.67
395.477	71.34
395.686	130.73
395.895	87.72
396.105	206.5
396.314	140.97
396.524	151.21
396.733	97.96
396.942	126.63
397.152	85.67
397.361	130.73
397.57	138.92
397.78	48.81
397.989	50.86
398.198	116.39
398.407	147.11
398.617	114.34
398.826	65.19
399.035	77.48
399.244	165.54
399.453	151.21
399.663	155.3
399.872	87.72
400.081	122.54
400.29	140.97
400.499	59.05
400.708	188.07
400.917	149.16
401.127	102.06
401.336	181.93
401.545	138.92
401.754	157.35
401.963	138.92
402.172	122.54
402.381	59.05
402.59	122.54
402.799	159.4
403.008	151.21
403.217	204.46
403.426	153.26
403.635	159.4
403.844	151.21
404.053	81.58
404.262	200.36
404.471	226.98
404.68	183.98
404.888	149.16
405.097	116.39
405.306	171.69
405.515	208.55
405.724	198.31
405.933	220.84
406.142	212.65
406.35	280.23
406.559	153.26
406.768	212.65
406.977	198.31
407.185	302.76
407.394	212.65
407.603	171.69
407.812	257.7
408.02	296.61
408.229	269.99
408.438	298.66
408.646	269.99
408.855	241.32
409.064	353.96
409.272	265.89
409.481	302.76
409.69	347.81
409.898	282.28
410.107	286.37
410.315	378.53
410.524	313
410.733	376.48
410.941	431.78
411.15	392.87
411.358	489.12
411.567	485.03
411.775	460.45
411.984	501.41
412.192	579.23
412.401	505.51
412.609	536.23
412.818	640.67
413.026	597.67
413.234	528.03
413.443	614.05
413.651	609.95
413.86	622.24
414.068	716.45
414.276	781.98
414.485	767.65
414.693	796.32
414.901	845.47
415.11	874.14
415.318	896.67
415.526	878.24
415.734	935.58
415.943	958.11
416.151	956.06
416.359	1001.12
416.567	1017.5
416.776	1076.89
416.984	1076.89
417.192	1224.34
417.4	1216.15
417.608	1263.26
417.817	1181.34
418.025	1341.08
418.233	1457.81
418.441	1379.99
418.649	1453.72
418.857	1519.25
419.065	1574.55
419.273	1502.87
419.481	1570.45
419.689	1701.52
419.897	1719.95
420.105	1842.83
420.313	1998.48
420.521	1894.03
420.729	1922.7
420.937	2035.34
421.145	2096.78
421.353	2285.19
421.561	2379.4
421.769	2428.55
421.977	2469.51
422.185	2373.25
422.393	2631.3
422.601	2731.65
422.809	2655.87
423.017	2838.14
423.224	2809.47
423.432	2961.02
423.64	3028.6
423.848	3233.4
424.056	3182.2
424.263	3374.71
424.471	3411.57
424.679	3524.21
424.887	3485.3
425.094	3749.49
425.302	3864.18
425.51	3874.42
425.718	4066.92
425.925	4081.26
426.133	4349.54
426.341	4419.18
426.548	4648.55
426.756	4707.94
426.964	4771.43
427.171	4951.65
427.379	5041.76
427.586	5168.73
427.794	5402.2
428.001	5656.15
428.209	5752.4
428.417	5748.31
428.624	6192.72
428.832	6051.41
429.039	6110.8
429.247	6268.49
429.454	6819.39
429.662	7179.84
429.869	6901.31
430.076	7165.5
430.284	7024.19
430.491	7327.29
430.699	7722.55
430.906	7876.15
431.114	8005.17
431.321	8023.6
431.528	8091.18
431.736	8844.84
431.943	9336.35
432.15	9004.58
432.358	9033.25
432.565	9451.03
432.772	9344.54
432.979	10061.33
433.187	10223.12
433.394	10198.54
433.601	10911.24
433.808	10950.15
434.016	10839.56
434.223	11318.78
434.43	12099.06
434.637	11644.41
434.844	12502.51
435.052	12518.89
435.259	12860.9
435.466	12699.11
435.673	12701.16
435.88	13518.3
436.087	14083.54
436.294	14106.07
436.501	13735.39
436.708	14030.29
436.915	14556.62
437.122	15369.66
437.329	15041.99
437.537	15662.52
437.743	15949.24
437.95	15699.39
438.157	16606.64
438.364	17098.15
438.571	17092.01
438.778	17075.62
438.985	18417.04
439.192	18150.81
439.399	18632.08
439.606	18355.6
439.813	19248.52
440.02	20438.39
440.227	19824
440.433	20063.61
440.64	20622.7
440.847	20333.94
441.054	21056.87
441.261	22271.32
441.467	21818.72
441.674	22386.01
441.881	23065.93
442.088	23184.71
442.294	22807.89
442.501	23559.49
442.708	23917.89
442.914	25181.48
443.121	25761.06
443.328	25249.07
443.534	27106.57
443.741	26541.33
443.948	25924.9
444.154	27612.42
444.361	27614.47
444.568	27688.2
444.774	27684.1
444.981	28355.83
445.187	28808.44
445.394	30266.59
445.6	29586.66
445.807	32527.55
446.013	31270.09
446.22	31915.2
446.426	32853.17
446.633	32965.81
446.839	34352.29
447.046	32851.13
447.252	35017.88
447.459	34813.08
447.665	34864.28
447.871	36199.55
448.078	37583.98
448.284	35906.69
448.491	36848.76
448.697	38100.07
448.903	38534.24
449.11	38706.27
449.316	37893.22
449.522	38904.92
449.728	40000.58
449.935	40084.55
450.141	39933
450.347	41190.45
450.553	39681.1
450.76	40240.2
450.966	41202.74
451.172	41129.02
451.378	41993.26
451.584	40938.55
451.791	42120.23
451.997	41999.4
452.203	42542.11
452.409	42492.96
452.615	41825.32
452.821	40690.75
453.027	40115.27
453.233	41917.48
453.44	40522.82
453.646	40862.78
453.852	41131.06
454.058	41792.56
454.264	40752.19
454.47	41534.51
454.676	40221.76
454.882	41489.46
455.088	37852.27
455.294	38386.78
455.5	38853.72
455.705	39099.48
455.911	38026.34
456.117	36967.54
456.323	36488.32
456.529	34509.98
456.735	35918.98
456.941	35296.4
457.147	34651.29
457.352	33133.75
457.558	33064.11
457.764	33279.15
457.97	32609.47
458.176	31995.07
458.381	31616.2
458.587	30285.02
458.793	29900
458.999	28380.41
459.204	30989.52
459.41	30108.9
459.616	28081.41
459.821	28108.03
460.027	27972.86
460.233	27200.78
460.438	25822.5
460.644	26336.54
460.85	25300.26
461.055	24706.35
461.261	24786.22
461.466	22947.15
461.672	22160.73
461.878	24067.39
462.083	22345.05
462.289	21798.24
462.494	21632.35
462.7	20753.77
462.905	20028.79
463.111	20612.46
463.316	20952.43
463.522	20379
463.727	20370.8
463.932	20309.36
464.138	20313.46
464.343	20194.68
464.549	19666.3
464.754	20301.17
464.959	20127.1
465.165	20059.51
465.37	19316.1
465.575	18851.21
465.781	19475.84
465.986	19475.84
466.191	18929.03
466.397	18308.5
466.602	17595.81
466.807	18263.44
467.012	18636.17
467.218	18240.92
467.423	17851.8
467.628	18091.41
467.833	19078.54
468.038	18115.99
468.244	17694.11
468.449	18257.3
468.654	17565.09
468.859	17597.85
469.064	17497.5
469.269	16856.49
469.474	16903.59
469.679	17227.17
469.885	16706.99
470.09	16823.72
470.295	16979.37
470.5	16256.43
470.705	16668.08
470.91	16039.35
471.115	16184.76
471.32	16182.71
471.525	16281.01
471.73	15885.75
471.935	15633.85
472.139	15136.2
472.344	15265.22
472.549	15295.94
472.754	15254.98
472.959	14921.16
473.164	14632.4
473.369	14382.54
473.574	14566.86
473.778	14693.83
473.983	14661.07
474.188	14306.77
474.393	13719
474.598	13843.93
474.802	13759.96
475.007	13651.42
475.212	13796.82
475.417	13215.2
475.621	13118.95
475.826	13372.89
476.031	12998.12
476.235	12619.24
476.44	12971.49
476.645	12797.42
476.849	12729.83
477.054	12453.36
477.259	12353.01
477.463	12236.27
477.668	11881.97
477.872	12328.43
478.077	11965.94
478.282	11861.49
478.486	11890.17
478.691	11798.01
478.895	11564.54
479.1	11628.03
479.304	11513.34
479.509	11183.62
479.713	11537.91
479.918	11302.4
480.122	11019.78
480.326	11167.23
480.531	11476.48
480.735	11001.35
480.94	10862.08
481.144	11189.76
481.348	10685.96
481.553	10845.7
481.757	10472.97
481.961	10825.22
482.166	11021.83
482.37	10675.72
482.574	10583.56
482.778	10710.54
482.983	10901
483.187	10712.58
483.391	10950.15
483.595	10702.34
483.8	10673.67
484.004	10673.67
484.208	10872.32
484.412	10579.47
484.616	10667.53
484.821	10724.87
485.025	10661.38
485.229	10706.44
485.433	10614.28
485.637	10751.49
485.841	10753.54
486.045	10399.24
486.249	10915.33
486.453	10665.48
486.657	10710.54
486.861	10733.06
487.065	10458.64
487.269	10563.08
487.473	10622.47
487.677	10806.79
487.881	10821.13
488.085	10784.26
488.289	10837.51
488.493	10737.16
488.697	11040.26
488.901	10814.98
489.105	10819.08
489.309	10655.24
489.512	10864.13
489.716	10919.43
489.92	10751.49
490.124	10786.31
490.328	11152.9
490.531	10860.04
490.735	10987.01
490.939	11075.07
491.143	10982.92
491.346	11087.36
491.55	11109.89
491.754	11175.42
491.958	11353.6
492.161	11095.55
492.365	11404.8
492.569	11038.21
492.772	11144.7
492.976	11415.04
493.18	11349.5
493.383	11849.21
493.587	11615.74
493.79	11804.15
493.994	11431.42
494.197	11949.56
494.401	12135.92
494.605	12072.43
494.808	12178.93
495.012	11941.36
495.215	12236.27
495.419	12439.02
495.622	12260.85
495.825	12436.97
496.029	12512.75
496.232	12654.06
496.436	12719.59
496.639	13010.4
496.843	12934.63
497.046	13366.75
497.249	13499.87
497.453	13653.47
497.656	13606.36
497.859	13831.64
498.063	13934.04
498.266	14095.83
498.469	14050.77
498.673	14173.65
498.876	14388.69
499.079	14372.3
499.282	14620.11
499.485	15080.9
499.689	15103.43
499.892	15265.22
500.095	15287.75
500.298	15695.29
500.501	15474.11
500.705	15908.28
500.908	16041.4
501.111	16176.56
501.314	16348.59
501.517	16547.25
501.72	16555.44
501.923	16590.25
502.126	17192.36
502.329	17474.98
502.532	17411.49
502.735	17530.27
502.938	17995.16
503.141	17976.73
503.344	18054.55
503.547	18132.37
503.75	18441.62
503.953	18883.98
504.156	19172.74
504.359	19074.44
504.562	19324.29
504.765	19760.51
504.968	19996.03
505.17	20166.01
505.373	20008.31
505.576	20516.21
505.779	20888.94
505.982	20735.34
506.185	21591.39
506.387	21468.52
506.59	21683.55
506.793	22134.1
506.996	21951.84
507.198	22576.47
507.401	22531.41
507.604	22967.63
507.807	23307.59
508.009	23346.5
508.212	23442.76
508.415	23629.12
508.617	24354.1
508.82	24208.7
509.022	24134.97
509.225	24720.69
509.428	25148.71
509.63	25103.66
509.833	25218.35
510.035	25937.18
510.238	25683.23
510.44	26160.41
510.643	26285.34
510.845	26873.1
511.048	26574.1
511.25	27202.83
511.453	27444.49
511.655	28361.98
511.858	28155.13
512.06	28331.26
512.262	28325.11
512.465	28796.15
512.667	28990.7
512.87	29621.48
513.072	29330.67
513.274	30049.5
513.477	29955.3
513.679	30520.54
513.881	30653.65
514.084	31425.74
514.286	31014.1
514.488	31024.34
514.69	32105.66
514.893	32236.73
515.095	32249.02
515.297	32963.76
515.499	32935.09
515.701	33002.68
515.904	33737.9
516.106	34116.77
516.308	34118.82
516.51	34485.4
516.712	34729.11
516.914	34962.58
517.116	35734.67
517.318	36088.96
517.52	36088.96
517.722	36158.59
517.925	36891.77
518.127	37284.98
518.329	37420.14
518.531	37338.22
518.733	37651.56
518.935	38188.13
519.136	38456.42
519.338	38736.99
519.54	38786.14
519.742	39040.09
519.944	39740.49
520.146	40221.76
520.348	40490.05
520.55	40670.27
520.752	40911.93
520.954	41339.96
521.155	41241.65
521.357	41880.62
521.559	42089.51
521.761	42742.81
521.963	42611.74
522.164	42638.37
522.366	43064.35
522.568	43619.35
522.77	43826.19
522.971	44106.76
523.173	43891.72
523.375	44231.69
523.576	44526.6
523.778	44893.18
523.98	45196.28
524.181	45261.82
524.383	45517.81
524.584	45954.03
524.786	46271.46
524.988	46273.51
525.189	46873.57
525.391	47000.54
525.592	47346.65
525.794	47403.99
525.995	47397.85
526.197	47739.86
526.398	47549.4
526.6	48247.75
526.801	48497.61
527.003	48700.36
527.204	48755.65
527.406	49316.79
527.607	49277.88
527.808	49105.85
528.01	48700.36
528.211	49062.85
528.412	50117.55
528.614	50140.08
528.815	49705.91
529.016	50594.73
529.218	49583.03
529.419	50242.48
529.62	49959.86
529.822	50172.85
530.023	50566.06
530.224	50602.92
530.425	50910.11
530.626	50592.68
530.828	50594.73
531.029	51540.89
531.23	51043.23
531.431	50975.65
531.632	51270.56
531.833	52056.98
532.035	51032.99
532.236	51413.91
532.437	51674.01
532.638	52001.68
532.839	51866.52
533.04	52214.67
533.241	51676.05
533.442	52099.98
533.643	51819.41
533.844	51536.79
534.045	52274.06
534.246	51764.12
534.447	52382.6
534.648	51938.19
534.849	52247.44
535.05	51774.36
535.251	52376.46
535.451	52329.36
535.652	52407.18
535.853	52345.74
536.054	52444.04
536.255	52575.11
536.456	51983.25
536.657	52820.87
536.857	52536.2
537.058	52134.8
537.259	52896.64
537.46	52517.77
537.66	52333.45
537.861	52667.27
538.062	52700.04
538.263	52818.82
538.463	52114.32
538.664	52175.76
538.865	52179.85
539.065	52773.77
539.266	52138.9
539.466	52962.18
539.667	51991.44
539.868	52775.81
540.068	52347.79
540.269	52417.42
540.469	53091.2
540.67	52173.71
540.87	52528.01
541.071	52505.48
541.271	52831.11
541.472	52573.06
541.672	52155.28
541.873	52130.7
542.073	51884.95
542.274	52908.93
542.474	52151.18
542.675	52272.01
542.875	52616.07
543.075	52470.67
543.276	51602.33
543.476	52693.89
543.676	52497.29
543.877	52554.63
544.077	51905.43
544.277	52362.12
544.478	52347.79
544.678	52190.09
544.878	52261.77
545.078	52114.32
545.279	51891.09
545.479	51714.97
545.679	52296.59
545.879	52138.9
546.079	52259.73
546.28	52140.94
546.48	52024.21
546.68	52372.36
546.88	52421.51
547.08	52169.61
547.28	52048.78
547.48	52142.99
547.68	52417.42
547.88	51737.49
548.081	52528.01
548.281	52073.36
548.481	51862.42
548.681	52239.25
548.881	52380.56
549.081	52126.61
549.28	51753.88
549.48	52245.39
549.68	51827.6
549.88	52450.19
550.08	51370.91
550.28	52175.76
550.48	51510.17
550.68	52157.33
550.88	51653.53
551.08	51921.81
551.279	52011.92
551.479	51096.48
551.679	51680.15
551.879	51518.36
552.079	51651.48
552.278	51516.31
552.478	51405.72
552.678	51618.71
552.878	51964.82
553.077	51999.63
553.277	51256.22
553.477	52126.61
553.676	51475.35
553.876	51676.05
554.076	51469.21
554.275	51725.21
554.475	51303.32
554.674	51602.33
554.874	51405.72
555.074	51024.8
555.273	51639.19
555.473	51381.15
555.672	50840.48
555.872	51405.72
556.071	51248.03
556.271	51561.37
556.47	50967.46
556.67	50684.84
556.869	50961.31
557.068	51174.3
557.268	50746.28
557.467	50844.58
557.667	50598.82
557.866	50185.13
558.065	50762.66
558.265	50459.56
558.464	50248.62
558.663	50439.08
558.863	50156.46
559.062	50985.89
559.261	50156.46
559.461	50789.28
559.66	49476.54
559.859	50242.48
560.058	49935.28
560.258	50355.11
560.457	49841.07
560.656	49984.43
560.855	49877.94
561.054	50248.62
561.253	49318.84
561.453	50041.78
561.652	49771.44
561.851	49615.8
562.05	49394.62
562.249	49159.1
562.448	49673.14
562.647	49169.34
562.846	48765.89
563.045	48985.02
563.244	48663.49
563.443	49306.55
563.642	48540.61
563.841	48573.38
564.04	48518.09
564.239	49009.6
564.438	48487.37
564.637	48518.09
564.836	48174.03
565.035	48301
565.234	48157.64
565.432	47770.58
565.631	47961.04
565.83	48126.92
566.029	47606.74
566.228	47496.15
566.427	47580.12
566.625	46930.91
566.824	46715.87
567.023	47188.95
567.222	46529.51
567.42	47602.64
567.619	46801.89
567.818	47000.54
568.016	46994.4
568.215	46982.11
568.414	46785.5
568.612	46547.94
568.811	46265.32
569.01	46613.48
569.208	45884.4
569.407	46488.55
569.605	45634.55
569.804	45906.93
570.002	45304.82
570.201	45687.79
570.4	45292.54
570.598	45179.9
570.797	45036.54
570.995	45712.37
571.193	44420.1
571.392	45128.7
571.59	44725.25
571.789	45073.4
571.987	44889.09
572.186	44643.33
572.384	44049.42
572.582	44241.93
572.781	44413.96
572.979	43840.53
573.177	44217.35
573.376	43990.03
573.574	43582.48
573.772	43981.84
573.971	43555.86
574.169	43203.61
574.367	42894.36
574.565	43525.14
574.763	43033.63
574.962	43285.53
575.16	42638.37
575.358	42808.35
575.556	42386.47
575.754	43013.15
575.952	42341.41
576.151	43150.36
576.349	42325.03
576.547	42476.58
576.745	42210.34
576.943	42054.7
577.141	42099.75
577.339	42222.63
577.537	41663.53
577.735	41720.88
577.933	41382.96
578.131	41636.91
578.329	41460.79
578.527	40625.21
578.725	40797.24
578.923	41522.23
579.121	40971.32
579.319	40690.75
579.516	40758.33
579.714	41059.38
579.912	40256.58
580.11	40774.72
580.308	40516.67
580.506	40471.62
580.704	39629.9
580.901	40197.19
581.099	40162.37
581.297	39953.48
581.495	39920.71
581.692	39707.72
581.89	39619.66
582.088	39781.45
582.285	39136.34
582.483	39693.39
582.681	39394.39
582.878	39435.34
583.076	38861.91
583.274	39103.57
583.471	38505.57
583.669	39060.57
583.866	38401.12
584.064	39095.38
584.262	37710.96
584.459	38706.27
584.657	38294.63
584.854	38366.31
585.052	37758.06
585.249	37864.55
585.447	37928.04
585.644	37112.95
585.841	37489.77
586.039	37987.43
586.236	37325.94
586.434	37211.25
586.631	36928.63
586.828	37092.47
587.026	37008.5
587.223	37057.65
587.42	36813.94
587.618	36920.44
587.815	36504.7
588.012	36177.03
588.21	35892.36
588.407	36299.9
588.604	36349.06
588.801	35837.06
588.999	35849.35
589.196	36091.01
589.393	35935.37
589.59	35820.68
589.787	35486.86
589.984	35490.96
590.182	35013.78
590.379	35486.86
590.576	34944.15
590.773	35161.23
590.97	34825.37
591.167	34677.91
591.364	34673.82
591.561	34888.85
591.758	34417.82
591.955	34708.63
592.152	34509.98
592.349	34479.26
592.546	34434.21
592.743	34532.51
592.94	33678.5
593.137	33852.58
593.334	34196.64
593.531	33643.69
593.727	33729.7
593.924	33858.73
594.121	33408.17
594.318	33580.2
594.515	32838.84
594.712	33602.73
594.908	32957.62
595.105	33424.56
595.302	32572.6
595.499	33174.7
595.696	32617.66
595.892	32636.09
596.089	32799.93
596.286	32748.73
596.482	32486.59
596.679	31974.59
596.876	32341.18
597.072	31997.12
597.269	32150.72
597.466	31859.91
597.662	31677.64
597.859	31825.09
598.055	31966.4
598.252	31724.74
598.448	31734.98
598.645	31534.28
598.841	31071.44
599.038	31530.19
599.234	31132.88
599.431	30860.5
599.627	30848.21
599.824	31085.78
600.02	30903.51
600.217	31073.49
600.413	30395.61
600.609	30471.39
600.806	30457.05
601.002	30303.45
601.198	30024.93
601.395	30102.75
601.591	29598.95
601.787	30143.71
601.984	29748.45
602.18	29873.38
602.376	29803.75
602.572	29578.47
602.769	29465.83
602.965	29324.52
603.161	29445.35
603.357	29072.62
603.553	29132.01
603.75	29367.53
603.946	28863.73
604.142	28775.67
604.338	28814.58
604.534	29066.48
604.73	28474.62
604.926	28374.27
605.122	28556.53
605.318	28435.7
605.514	28202.24
605.71	28282.11
605.906	28038.4
606.102	28189.95
606.298	27999.49
606.494	27788.55
606.69	28108.03
606.886	27792.64
607.082	27473.16
607.278	27839.75
607.474	27145.48
607.67	27481.35
607.866	27131.15
608.062	27749.64
608.257	27288.84
608.453	27258.12
608.649	27258.12
608.845	27043.09
609.041	26821.91
609.236	26993.93
609.432	26785.04
609.628	26639.64
609.824	27008.27
610.019	26676.5
610.215	26293.53
610.411	26512.66
610.606	26463.51
610.802	26486.04
610.998	26219.8
611.193	26279.19
611.389	26178.84
611.584	26170.65
611.78	25918.75
611.976	26139.93
612.171	26203.42
612.367	26111.26
612.562	25613.6
612.758	25769.25
612.953	25494.82
613.149	26019.1
613.344	25140.52
613.539	26055.97
613.735	25679.14
613.93	25640.23
614.126	25546.02
614.321	25460.01
614.517	25292.07
614.712	25423.14
614.907	25306.41
615.103	25255.21
615.298	25138.48
615.493	25263.4
615.688	24933.68
615.884	25769.25
616.079	24515.89
616.274	25079.08
616.47	24741.17
616.665	25193.77
616.86	24669.49
617.055	24386.87
617.25	24530.23
617.445	24792.37
617.641	24184.12
617.836	24548.66
618.031	24192.31
618.226	24335.67
618.421	23930.17
618.616	24206.65
618.811	23960.89
619.006	24296.76
619.201	23676.23
619.396	23891.26
619.591	23266.63
619.786	23838.01
619.981	23227.72
620.176	23498.05
620.371	23029.07
620.566	23326.02
620.761	22816.08
620.956	23158.09
621.151	22758.74
621.346	22789.45
621.541	22674.77
621.735	23006.54
621.93	22365.53
622.125	22658.38
622.32	22011.23
622.515	22338.9
622.709	22017.37
622.904	21831.01
623.099	21726.56
623.294	22058.33
623.488	21431.65
623.683	21628.26
623.878	21224.81
624.072	21243.24
624.267	21351.78
624.462	21196.14
624.656	20995.43
624.851	20788.59
625.046	20909.42
625.24	20766.06
625.435	20598.13
625.629	20252.02
625.824	20313.46
626.018	20462.96
626.213	20106.62
626.407	20147.58
626.602	19948.92
626.796	20030.84
626.991	19703.17
627.185	19731.84
627.38	19598.72
627.574	19441.03
627.768	19320.2
627.963	19285.38
628.157	18658.7
628.352	19008.9
628.546	18609.55
628.74	18910.6
628.935	18658.7
629.129	18949.51
629.323	18390.42
629.517	18279.83
629.712	18224.53
629.906	18339.22
630.1	18193.81
630.294	18054.55
630.489	18019.74
630.683	17894.81
630.877	17489.31
631.071	17737.12
631.265	17546.65
631.459	17501.6
631.653	17249.7
631.848	17223.08
632.042	17169.83
632.236	17206.69
632.43	16795.05
632.624	17241.51
632.818	16764.33
633.012	16604.59
633.206	16305.59
633.4	16563.63
633.594	16297.39
633.788	16608.69
633.982	16233.91
634.176	16141.75
634.369	16123.32
634.563	16160.18
634.757	15930.81
634.951	15922.62
635.145	15941.05
635.339	15721.91
635.533	15547.84
635.726	15326.66
635.92	15418.82
636.114	15265.22
636.308	15252.93
636.501	15259.07
636.695	15330.75
636.889	14892.49
637.083	14908.87
637.276	14702.03
637.47	14888.39
637.664	14601.68
637.857	14716.36
638.051	14747.08
638.244	14276.05
638.438	14198.23
638.632	14206.42
638.825	14138.83
639.019	14101.97
639.212	13841.88
639.406	14114.26
639.599	13651.42
639.793	13829.59
639.986	13483.48
640.18	13700.57
640.373	13512.16
640.567	13553.12
640.76	13282.78
640.954	13243.87
641.147	13350.37
641.34	13254.11
641.534	13026.79
641.727	13010.4
641.92	13020.64
642.114	12824.04
642.307	12815.85
642.5	12678.63
642.694	12432.88
642.887	12611.05
643.08	12709.35
643.273	12516.84
643.467	12428.78
643.66	12219.89
643.853	12129.78
644.046	12064.24
644.239	12299.76
644.432	12203.5
644.626	12213.74
644.819	11929.08
645.012	12101.11
645.205	11834.87
645.398	11720.18
645.591	11705.85
645.784	11902.45
645.977	11472.38
646.17	11449.85
646.363	11402.75
646.556	11394.56
646.749	11249.15
646.942	11343.36
647.135	11410.94
647.328	11208.19
647.521	11066.88
647.714	10929.67
647.907	10950.15
648.099	10743.3
648.292	10989.06
648.485	10804.74
648.678	10556.94
648.871	10663.43
649.064	10442.25
649.256	10628.62
649.449	10593.8
649.642	10233.36
649.835	10384.91
650.027	10268.17
650.22	10171.92
650.413	10280.46
650.605	10305.04
650.798	10139.15
650.991	9862.68
651.183	10030.61
651.376	9909.78
651.568	9764.37
651.761	9625.11
651.954	9864.72
652.146	9860.63
652.339	9856.53
652.531	9606.68
652.724	9436.7
652.916	9551.38
653.109	9686.55
653.301	9463.32
653.494	9459.23
653.686	9145.89
653.879	9279.01
654.071	9264.67
654.263	9076.26
654.456	9186.85
654.648	9076.26
654.84	8982.05
655.033	9104.93
655.225	8939.04
655.417	8719.91
655.61	8844.84
655.802	8803.88
655.994	8764.96
656.186	8769.06
656.379	8676.9
656.571	8519.21
656.763	8607.27
656.955	8535.59
657.148	8494.63
657.34	8418.86
657.532	8324.65
657.724	8508.97
657.916	8418.86
658.108	8199.73
658.3	8261.16
658.492	8101.42
658.684	8046.13
658.876	8144.43
659.068	8154.67
659.26	7970.35
659.452	7822.9
659.644	7933.49
659.836	7718.45
660.028	8019.5
660.22	7749.17
660.412	7812.66
660.604	7626.29
660.796	7679.54
660.988	7673.4
661.18	7648.82
661.372	7753.27
661.563	7626.29
661.755	7632.44
661.947	7464.5
662.139	7355.96
662.331	7353.91
662.522	7319.1
662.714	7456.31
662.906	7163.45
663.097	7112.25
663.289	7116.35
663.481	7073.34
663.673	7198.27
663.864	7061.05
664.056	7110.21
664.247	7239.23
664.439	6882.88
664.631	6983.23
664.822	6968.9
665.014	6979.14
665.205	6936.13
665.397	6735.43
665.588	6903.36
665.78	6776.39
665.971	6639.17
666.163	6803.01
666.354	6540.87
666.546	6606.41
666.737	6577.73
666.929	6452.81
667.12	6655.56
667.311	6544.97
667.503	6364.75
667.694	6514.25
667.885	6420.04
668.077	6536.77
668.268	6327.88
668.459	6432.33
668.651	6280.78
668.842	6243.92
669.033	6176.33
669.224	6270.54
669.416	6299.21
669.607	6116.94
669.798	6127.18
669.989	5946.96
670.18	6057.55
670.371	5979.73
670.563	5975.63
670.754	5981.78
670.945	6141.52
671.136	5856.85
671.327	6155.85
671.518	5951.06
671.709	5762.64
671.9	5803.6
672.091	5875.28
672.282	5928.53
672.473	5973.58
672.664	5830.23
672.855	5881.42
673.046	5822.03
673.237	5914.19
673.428	5815.89
673.619	5699.16
673.809	5688.92
674	5576.28
674.191	5779.03
674.382	5434.97
674.573	5615.19
674.764	5553.75
674.954	5635.67
675.145	5424.73
675.336	5586.52
675.527	5459.54
675.717	5623.38
675.908	5445.21
676.099	5486.17
676.289	5494.36
676.48	5613.14
676.671	5389.91
676.861	5496.41
677.052	5379.67
677.243	5377.62
677.433	5289.56
677.624	5549.65
677.814	5408.34
678.005	5455.45
678.195	5428.82
678.386	5363.29
678.576	5232.22
678.767	5326.43
678.957	5289.56
679.148	5338.71
679.338	5324.38
679.529	5375.58
679.719	5150.3
679.909	5303.9
680.1	5375.58
680.29	5203.55
680.481	5418.58
680.671	5258.84
680.861	5342.81
681.052	5156.44
681.242	5031.52
681.432	5262.94
681.622	5181.02
681.813	5267.03
682.003	5299.8
682.193	5164.64
682.383	5189.21
682.573	5119.58
682.764	5181.02
682.954	5176.92
683.144	5037.66
683.334	5254.75
683.524	5049.95
683.714	5138.01
683.904	5037.66
684.094	5133.92
684.284	5039.71
684.474	5090.91
684.664	4863.58
684.854	5121.63
685.044	4988.51
685.234	5062.24
685.424	5047.9
685.614	4851.3
685.804	4810.34
685.994	5103.2
686.184	4920.93
686.374	4947.55
686.564	4953.7
686.753	4947.55
686.943	4744.8
687.133	4890.21
687.323	4859.49
687.513	4726.37
687.702	4773.47
687.892	4691.56
688.082	4703.84
688.272	4832.86
688.461	4851.3
688.651	4716.13
688.841	4488.81
689.03	4705.89
689.22	4752.99
689.41	4609.64
689.599	4519.53
689.789	4687.46
689.979	4585.06
690.168	4634.21
690.358	4587.11
690.547	4392.55
690.737	4423.27
690.926	4501.09
691.116	4372.07
691.305	4617.83
691.495	4273.77
691.684	4443.75
691.874	4351.59
692.063	4433.51
692.252	4505.19
692.442	4419.18
692.631	4333.16
692.82	4374.12
693.01	4247.15
693.199	4271.72
693.388	4277.87
693.578	4413.03
693.767	4275.82
693.956	4206.19
694.146	4191.85
694.335	4146.8
694.524	4318.82
694.713	4173.42
694.902	4140.65
695.092	4245.1
695.281	4226.67
695.47	4103.79
695.659	4163.18
695.848	4048.49
696.037	4064.88
696.226	4206.19
696.415	4091.5
696.604	4169.32
696.793	4111.98
696.982	4150.89
697.171	4128.36
697.36	4025.97
697.549	3952.24
697.738	4099.69
697.927	4021.87
698.116	3901.04
698.305	3985.01
698.494	4167.28
698.683	3976.81
698.872	4091.5
699.061	4075.12
699.25	4095.6
699.438	3841.65
699.627	3802.74
699.816	3935.85
700.005	3909.23
700.193	3950.19
700.382	3960.43
700.571	3964.53
700.76	3868.27
700.948	3806.83
701.137	3944.05
701.326	4007.53
701.514	3972.72
701.703	3927.66
701.892	3731.06
702.08	3956.33
702.269	3935.85
702.457	3886.7
702.646	3948.14
702.834	3876.46
703.023	3860.08
703.212	4028.01
703.4	3886.7
703.589	3800.69
703.777	3993.2
703.965	3976.81
704.154	4001.39
704.342	3886.7
704.531	3776.11
704.719	3874.42
704.907	3909.23
705.096	3831.41
705.284	3931.76
705.472	3858.03
705.661	3796.59
705.849	3890.8
706.037	3974.77
706.226	3806.83
706.414	3901.04
706.602	3792.5
706.79	3821.17
706.979	3784.3
707.167	3765.87
707.355	3786.35
707.543	3780.21
707.731	3831.41
707.919	3786.35
708.107	3837.55
708.296	3870.32
708.484	3628.66
708.672	3757.68
708.86	3731.06
709.048	3726.96
709.236	3733.11
709.424	3694.19
709.612	3645.04
709.8	3655.28
709.988	3812.98
710.176	3704.43
710.364	3841.65
710.551	3812.98
710.739	3788.4
710.927	3784.3
711.115	3772.02
711.303	3737.2
711.491	3731.06
711.679	3765.87
711.866	3698.29
712.054	3864.18
712.242	3696.24
712.43	3772.02
712.617	3759.73
712.805	3710.58
712.993	3729.01
713.181	3667.57
713.368	3792.5
713.556	3757.68
713.744	3710.58
713.931	3817.07
714.119	3706.48
714.306	3700.34
714.494	3630.71
714.682	3661.43
714.869	3714.67
715.057	3753.59
715.244	3743.35
715.432	3804.78
715.619	3722.87
715.807	3671.67
715.994	3851.89
716.182	3726.96
716.369	3599.99
716.556	3624.56
716.744	3700.34
716.931	3645.04
717.119	3778.16
717.306	3858.03
717.493	3626.61
717.681	3761.78
717.868	3608.18
718.055	3716.72
718.242	3675.76
718.43	3722.87
718.617	3624.56
718.804	3718.77
718.991	3573.36
719.179	3675.76
719.366	3671.67
719.553	3647.09
719.74	3612.28
719.927	3649.14
720.114	3661.43
720.301	3733.11
720.488	3694.19
720.676	3677.81
720.863	3657.33
721.05	3614.32
721.237	3559.03
721.424	3585.65
721.611	3630.71
721.798	3577.46
721.985	3643
722.172	3544.69
722.358	3477.11
722.545	3528.31
722.732	3487.35
722.919	3632.76
723.106	3532.4
723.293	3599.99
723.48	3509.88
723.667	3511.93
723.853	3587.7
724.04	3477.11
724.227	3561.08
724.414	3692.15
724.6	3552.88
724.787	3692.15
724.974	3550.84
725.161	3552.88
725.347	3436.15
725.534	3567.22
725.72	3602.04
725.907	3477.11
726.094	3489.4
726.28	3442.29
726.467	3473.01
726.653	3559.03
726.84	3550.84
727.027	3509.88
727.213	3518.07
727.4	3479.16
727.586	3516.02
727.773	3409.53
727.959	3518.07
728.145	3491.45
728.332	3493.49
728.518	3518.07
728.705	3446.39
728.891	3546.74
729.077	3475.06
729.264	3503.73
729.45	3448.44
729.636	3339.9
729.823	3360.38
730.009	3360.38
730.195	3458.68
730.382	3477.11
730.568	3448.44
730.754	3477.11
730.94	3460.73
731.126	3460.73
731.313	3411.57
731.499	3417.72
731.685	3253.88
731.871	3495.54
732.057	3337.85
732.243	3294.84
732.429	3327.61
732.615	3321.46
732.801	3307.13
732.987	3321.46
733.173	3341.94
733.359	3354.23
733.545	3468.92
733.731	3294.84
733.917	3479.16
734.103	3374.71
734.289	3389.05
734.475	3329.66
734.661	3346.04
734.847	3313.27
735.033	3243.64
735.219	3405.43
735.404	3305.08
735.59	3311.22
735.776	3206.78
735.962	3384.95
736.148	3272.31
736.333	3268.22
736.519	3235.45
736.705	3272.31
736.89	3165.82
737.076	3255.93
737.262	3139.19
737.447	3219.07
737.633	3163.77
737.819	3116.67
738.004	3102.33
738.19	3190.39
738.375	3196.54
738.561	3184.25
738.747	3139.19
738.932	3131
739.118	3151.48
739.303	3075.71
739.489	3151.48
739.674	3235.45
739.859	3001.98
740.045	3180.15
740.23	3114.62
740.416	2967.17
740.601	3065.47
740.786	3116.67
740.972	3051.13
741.157	3010.17
741.342	3012.22
741.528	3012.22
741.713	3026.56
741.898	2948.73
742.084	2975.36
742.269	2887.29
742.454	2975.36
742.639	2872.96
742.824	2963.07
743.01	2958.97
743.195	2809.47
743.38	2780.8
743.565	2887.29
743.75	2799.23
743.935	2885.25
744.12	2754.18
744.305	2836.1
744.49	2705.03
744.675	2858.62
744.86	2684.55
745.045	2807.42
745.23	2786.94
745.415	2940.54
745.6	2662.02
745.785	2711.17
745.97	2713.22
746.155	2637.44
746.34	2713.22
746.525	2627.2
746.71	2666.11
746.895	2612.87
747.079	2516.61
747.264	2625.15
747.449	2578.05
747.634	2602.63
747.819	2600.58
748.003	2504.32
748.188	2352.77
748.373	2483.84
748.557	2561.67
748.742	2516.61
748.927	2309.77
749.111	2354.82
749.296	2438.79
749.481	2430.6
749.665	2401.93
749.85	2358.92
750.034	2332.3
750.219	2317.96
750.404	2297.48
750.588	2350.73
750.773	2342.53
750.957	2188.94
751.141	2236.04
751.326	2289.29
751.51	2170.51
751.695	2281.1
751.879	2279.05
752.064	2180.75
752.248	2133.64
752.432	2272.9
752.617	2254.47
752.801	2096.78
752.985	2059.92
753.17	2066.06
753.354	2021
753.538	2131.59
753.722	2117.26
753.907	2031.24
754.091	2111.11
754.275	1978
754.459	1912.46
754.643	1978
754.828	1994.38
755.012	1912.46
755.196	1912.46
755.38	1818.25
755.564	1930.89
755.748	1855.12
755.932	1789.58
756.116	1941.13
756.3	1734.29
756.484	1719.95
756.668	1746.58
756.852	1840.78
757.036	1791.63
757.22	1793.68
757.404	1638.03
757.588	1678.99
757.772	1816.21
757.956	1650.32
758.14	1648.27
758.323	1631.89
758.507	1740.43
758.691	1678.99
758.875	1611.41
759.059	1672.85
759.242	1683.09
759.426	1699.47
759.61	1531.54
759.794	1590.93
759.977	1586.83
760.161	1607.31
760.345	1629.84
760.528	1517.2
760.712	1584.79
760.895	1607.31
761.079	1603.22
761.263	1476.24
761.446	1556.11
761.63	1478.29
761.813	1556.11
761.997	1470.1
762.18	1468.05
762.364	1388.18
762.547	1377.94
762.731	1466
762.914	1486.48
763.098	1433.24
763.281	1437.33
763.464	1433.24
763.648	1466
763.831	1390.23
764.015	1398.42
764.198	1371.8
764.381	1388.18
764.564	1304.21
764.748	1314.45
764.931	1363.61
765.114	1363.61
765.297	1275.54
765.481	1318.55
765.664	1336.98
765.847	1371.8
766.03	1388.18
766.213	1185.43
766.397	1281.69
766.58	1248.92
766.763	1345.17
766.946	1285.78
767.129	1265.3
767.312	1293.97
767.495	1273.5
767.678	1361.56
767.861	1371.8
768.044	1240.73
768.227	1287.83
768.41	1197.72
768.593	1240.73
768.776	1265.3
768.959	1154.71
769.142	1298.07
769.324	1207.96
769.507	1179.29
769.69	1117.85
769.873	1132.19
770.056	1349.27
770.239	1083.03
770.421	1238.68
770.604	1138.33
770.787	1222.3
770.97	1175.19
771.152	1179.29
771.335	1117.85
771.518	1113.75
771.7	1171.1
771.883	1224.34
772.066	1187.48
772.248	1138.33
772.431	1066.65
772.613	1117.85
772.796	1123.99
772.978	1060.51
773.161	1027.74
773.343	1134.23
773.526	1021.6
773.708	1115.8
773.891	1083.03
774.073	937.63
774.256	1042.07
774.438	1019.55
774.621	990.88
774.803	1093.27
774.985	923.29
775.168	994.97
775.35	917.15
775.532	949.92
775.715	923.29
775.897	954.01
776.079	978.59
776.261	886.43
776.444	839.33
776.626	956.06
776.808	984.73
776.99	829.09
777.173	951.96
777.355	892.57
777.537	925.34
777.719	878.24
777.901	845.47
778.083	806.56
778.265	872.09
778.447	827.04
778.629	812.7
778.811	755.36
778.993	878.24
779.175	771.74
779.357	798.37
779.539	876.19
779.721	781.98
779.903	804.51
780.085	730.78
780.267	759.46
780.449	691.87
780.631	726.69
780.812	726.69
780.994	818.85
781.176	773.79
781.358	712.35
781.54	712.35
781.721	736.93
781.903	790.17
782.085	755.36
782.267	781.98
782.448	624.29
782.63	763.55
782.812	757.41
782.993	671.39
783.175	704.16
783.357	650.91
783.538	677.54
783.72	646.82
783.901	702.11
784.083	597.67
784.264	663.2
784.446	607.91
784.627	630.43
784.809	652.96
784.99	587.43
785.172	607.91
785.353	571.04
785.535	665.25
785.716	630.43
785.897	593.57
786.079	544.42
786.26	601.76
786.441	552.61
786.623	519.84
786.804	573.09
786.985	628.39
787.167	585.38
787.348	544.42
787.529	573.09
787.71	665.25
787.891	554.66
788.073	532.13
788.254	464.55
788.435	607.91
788.616	544.42
788.797	493.22
788.978	532.13
789.159	573.09
789.34	521.89
789.522	489.12
789.703	536.23
789.884	532.13
790.065	468.64
790.246	521.89
790.427	480.93
790.607	560.8
790.788	495.27
790.969	499.36
791.15	528.03
791.331	429.73
791.512	435.88
791.693	358.05
791.874	423.59
792.054	419.49
792.235	464.55
792.416	421.54
792.597	401.06
792.778	474.79
792.958	503.46
793.139	468.64
793.32	403.11
793.5	444.07
793.681	456.36
793.862	462.5
794.042	360.1
794.223	388.77
794.404	388.77
794.584	433.83
794.765	327.33
794.945	401.06
795.126	370.34
795.306	386.72
795.487	419.49
795.667	331.43
795.848	409.25
796.028	315.05
796.209	368.29
796.389	403.11
796.57	392.87
796.75	329.38
796.93	329.38
797.111	319.14
797.291	366.25
797.471	415.4
797.652	368.29
797.832	388.77
798.012	302.76
798.192	372.39
798.373	296.61
798.553	337.57
798.733	431.78
798.913	278.18
799.093	304.81
799.274	341.67
799.454	321.19
799.634	337.57
799.814	368.29
799.994	372.39
800.174	362.15
800.354	390.82
800.534	329.38
800.714	306.85
800.894	310.95
801.074	331.43
801.254	319.14
801.434	347.81
801.614	280.23
801.794	208.55
801.974	843.42
802.154	276.13
802.334	251.56
802.514	284.33
802.693	304.81
802.873	276.13
803.053	257.7
803.233	288.42
803.413	282.28
803.592	247.46
803.772	274.09
803.952	319.14
804.131	233.13
804.311	274.09
804.491	321.19
804.67	265.89
804.85	220.84
805.03	370.34
805.209	341.67
805.389	294.57
805.568	233.13
805.748	265.89
805.928	257.7
806.107	241.32
806.287	212.65
806.466	161.45
806.646	253.61
806.825	218.79
807.004	200.36
807.184	243.37
807.363	251.56
807.543	253.61
807.722	323.24
807.901	263.85
808.081	249.51
808.26	177.83
808.439	343.72
808.619	190.12
808.798	200.36
808.977	226.98
809.156	196.26
809.336	237.22
809.515	331.43
809.694	175.78
809.873	175.78
810.052	269.99
810.231	315.05
810.411	231.08
810.59	263.85
810.769	229.03
810.948	259.75
811.127	130.73
811.306	214.7
811.485	173.74
811.664	284.33
811.843	157.35
812.022	200.36
812.201	183.98
812.38	229.03
812.559	151.21
812.737	216.74
812.916	151.21
813.095	200.36
813.274	179.88
813.453	257.7
813.632	218.79
813.811	249.51
813.989	138.92
814.168	159.4
814.347	190.12
814.526	249.51
814.704	159.4
814.883	206.5
815.062	190.12
815.24	196.26
815.419	206.5
815.598	235.18
815.776	192.17
815.955	198.31
816.133	190.12
816.312	226.98
816.49	200.36
816.669	179.88
816.847	241.32
817.026	157.35
817.204	190.12
817.383	214.7
817.561	120.49
817.74	206.5
817.918	155.3
818.097	169.64
818.275	132.78
818.453	143.02
818.632	198.31
818.81	161.45
818.988	110.25
819.167	149.16
819.345	190.12
819.523	212.65
819.701	181.93
819.879	229.03
820.058	192.17
820.236	151.21
820.414	143.02
820.592	120.49
820.77	97.96
820.948	186.02
821.127	171.69
821.305	79.53
821.483	122.54
821.661	177.83
821.839	155.3
822.017	169.64
822.195	155.3
822.373	198.31
822.551	151.21
822.729	177.83
822.907	134.82
823.085	161.45
823.262	171.69
823.44	134.82
823.618	171.69
823.796	200.36
823.974	42.67
824.152	85.67
824.329	163.5
824.507	202.41
824.685	163.5
824.863	130.73
825.04	77.48
825.218	153.26
825.396	196.26
825.574	85.67
825.751	157.35
825.929	100.01
826.107	100.01
826.284	198.31
826.462	77.48
826.639	132.78
826.817	32.43
826.994	93.87
827.172	118.44
827.349	149.16
827.527	114.34
827.704	108.2
827.882	177.83
828.059	54.95
828.237	138.92
828.414	183.98
828.591	85.67
828.769	95.91
828.946	71.34
829.124	118.44
829.301	87.72
829.478	67.24
829.655	132.78
829.833	83.63
830.01	102.06
830.187	120.49
830.364	69.29
830.542	149.16
830.719	161.45
830.896	138.92
831.073	112.3
831.25	93.87
831.427	73.39
831.604	93.87
831.782	40.62
831.959	106.15
832.136	42.67
832.313	77.48
832.49	136.87
832.667	120.49
832.844	93.87
833.021	151.21
833.198	110.25
833.374	79.53
833.551	50.86
833.728	65.19
833.905	126.63
834.082	83.63
834.259	91.82
834.436	175.78
834.612	46.76
834.789	128.68
834.966	85.67
835.143	126.63
835.319	106.15
835.496	114.34
835.673	87.72
835.85	102.06
836.026	106.15
836.203	114.34
836.38	138.92
836.556	32.43
836.733	54.95
836.909	138.92
837.086	38.57
837.262	26.28
837.439	77.48
837.616	-8.53
837.792	36.52
837.968	91.82
838.145	-6.49
838.321	71.34
838.498	38.57
838.674	108.2
838.851	77.48
839.027	34.47
839.203	163.5
839.38	28.33
839.556	46.76
839.732	102.06
839.909	-18.77
840.085	110.25
840.261	75.43
840.437	149.16
840.614	83.63
840.79	48.81
840.966	112.3
841.142	52.91
841.318	89.77
841.494	114.34
841.671	126.63
841.847	102.06
842.023	112.3
842.199	-14.68
842.375	110.25
842.551	59.05
842.727	-10.58
842.903	65.19
843.079	5.8
843.255	65.19
843.431	110.25
843.607	44.71
843.783	81.58
843.959	67.24
844.134	114.34
844.31	48.81
844.486	106.15
844.662	65.19
844.838	73.39
845.013	20.14
845.189	42.67
845.365	126.63
845.541	61.1
845.716	57
845.892	5.8
846.068	44.71
846.244	83.63
846.419	18.09
846.595	61.1
846.77	1.71
846.946	1.71
847.122	61.1
847.297	77.48
847.473	93.87
847.648	16.04
847.824	48.81
847.999	-18.77
848.175	11.95
848.35	-29.01
848.526	151.21
848.701	50.86
848.876	134.82
849.052	28.33
849.227	71.34
849.403	40.62
849.578	11.95
849.753	22.19
849.929	91.82
850.104	77.48
850.279	26.28
850.454	95.91
850.63	79.53
850.805	57
850.98	-41.3
851.155	30.38
851.33	61.1
851.505	-53.59
851.681	50.86
851.856	-10.58
852.031	57
852.206	67.24
852.381	-2.39
852.556	54.95
852.731	24.23
852.906	87.72
853.081	69.29
853.256	108.2
853.431	67.24
853.606	-24.92
853.781	-6.49
853.956	91.82
854.131	83.63
854.305	18.09
854.48	83.63
854.655	7.85
854.83	104.11
855.005	65.19
855.18	89.77
855.354	-4.44
855.529	3.75
855.704	48.81
855.879	75.43
856.053	-14.68
856.228	93.87
856.403	-57.68
856.577	63.15
856.752	-63.83
856.926	32.43
857.101	22.19
857.276	-18.77
857.45	-33.11
857.625	54.95
857.799	71.34
857.974	61.1
858.148	-8.53
858.323	46.76
858.497	-31.06
858.672	77.48
858.846	11.95
859.02	34.47
859.195	65.19
859.369	120.49
859.543	36.52
859.718	36.52
859.892	71.34
860.066	32.43
860.241	3.75
860.415	-20.82
860.589	48.81
860.763	11.95
860.938	9.9
861.112	42.67
861.286	5.8
861.46	-49.49
861.634	61.1
861.808	-47.44
861.982	7.85
862.157	36.52
862.331	16.04
862.505	59.05
862.679	-31.06
862.853	7.85
863.027	-2.39
863.201	32.43
863.375	34.47
863.549	77.48
863.722	89.77
863.896	67.24
864.07	-16.73
864.244	34.47
864.418	18.09
864.592	57
864.766	42.67
864.939	9.9
865.113	-20.82
865.287	69.29
865.461	-51.54
865.634	52.91
865.808	-6.49
865.982	1.71
866.156	77.48
866.329	-14.68
866.503	85.67
866.676	20.14
866.85	69.29
867.024	20.14
867.197	73.39
867.371	57
867.544	32.43
867.718	-29.01
867.891	81.58
868.065	-49.49
868.238	57
868.412	48.81
868.585	18.09
868.759	81.58
868.932	-10.58
869.105	57
869.279	59.05
869.452	18.09
869.625	73.39
869.799	30.38
869.972	-20.82
870.145	59.05
870.319	-45.4
870.492	18.09
870.665	-41.3
870.838	-47.44
871.011	-90.45
871.185	38.57
871.358	-16.73
871.531	24.23
871.704	-29.01
871.877	50.86
872.05	9.9
872.223	-55.64
872.396	-4.44
872.569	40.62
872.742	-31.06
872.915	81.58
873.088	13.99
873.261	28.33
873.434	-10.58
873.607	32.43
873.78	114.34
873.953	40.62
874.126	42.67
874.299	20.14
874.471	-12.63
874.644	-8.53
874.817	126.63
874.99	61.1
875.163	34.47
875.335	36.52
875.508	40.62
875.681	61.1
875.853	-10.58
876.026	-37.2
876.199	73.39
876.371	36.52
876.544	36.52
876.717	26.28
876.889	9.9
877.062	65.19
877.234	-10.58
877.407	13.99
877.579	-18.77
877.752	-26.96
877.924	34.47
878.097	30.38
878.269	9.9
878.442	1.71
878.614	-8.53
878.786	34.47
878.959	-78.16
879.131	24.23
879.303	-45.4
879.476	-37.2
879.648	40.62
879.82	46.76
879.993	-82.26
880.165	-39.25
880.337	-33.11
880.509	9.9
880.681	-12.63
880.854	24.23
881.026	95.91
881.198	59.05
881.37	-29.01
881.542	83.63
881.714	48.81
881.886	-33.11
882.058	24.23
882.23	28.33
882.402	-33.11
882.574	20.14
882.746	52.91
882.918	38.57
883.09	-12.63
883.262	24.23
883.434	11.95
883.606	-31.06
883.778	-10.58
883.95	1.71
884.122	-12.63
884.293	32.43
884.465	18.09
884.637	36.52
884.809	11.95
884.98	-6.49
885.152	-24.92
885.324	48.81
885.496	18.09
885.667	52.91
885.839	-33.11
886.011	24.23
886.182	-12.63
886.354	13.99
886.525	-8.53
886.697	28.33
886.869	16.04
887.04	-20.82
887.212	-6.49
887.383	-2.39
887.555	-43.35
887.726	26.28
887.897	11.95
888.069	26.28
888.24	85.67
888.412	11.95
888.583	54.95
888.754	-6.49
888.926	42.67
889.097	-22.87
889.268	-12.63
889.44	-14.68
889.611	-37.2
889.782	-29.01
889.953	-12.63
890.125	114.34
890.296	3.75
890.467	-61.78
890.638	9.9
890.809	44.71
890.98	-14.68
891.151	24.23
891.323	3.75
891.494	-37.2
891.665	44.71
891.836	65.19
892.007	-0.34
892.178	11.95
892.349	28.33
892.52	-47.44
892.691	9.9
892.862	-14.68
893.032	-49.49
893.203	3.75
893.374	-12.63
893.545	30.38
893.716	9.9
893.887	13.99
894.057	-16.73
894.228	11.95
894.399	-2.39
894.57	65.19
894.74	-57.68
894.911	61.1
895.082	13.99
895.253	-53.59
895.423	18.09
895.594	16.04
895.764	11.95
895.935	-4.44
896.106	11.95
896.276	5.8
896.447	-14.68
896.617	-12.63
896.788	-55.64
896.958	-14.68
897.129	-14.68
897.299	-8.53
897.47	22.19
897.64	3.75
897.81	11.95
897.981	-24.92
898.151	79.53
898.322	38.57
898.492	22.19
898.662	-43.35
898.832	-29.01
899.003	32.43
899.173	46.76
899.343	-33.11
899.513	18.09
