Data from USB4F104151__246__10-30-58-016.txt Node

Date: Wed Mar 12 10:30:58 EDT 2025
User: louis
Spectrometer: USB4F10415
Trigger mode: 4
Integration Time (sec): 3.000000E-2
Scans to average: 1
Electric dark correction enabled: true
Nonlinearity correction enabled: false
Boxcar width: 0
XAxis mode: Wavelengths
Number of Pixels in Spectrum: 3648
>>>>>Begin Spectral Data<<<<<
178.204	-71
178.424	-71
178.644	-71
178.864	-91.48
179.084	-68.95
179.304	17.07
179.524	21.16
179.744	-21.85
179.964	68.27
180.184	-48.47
180.404	51.88
180.624	-15.7
180.844	-21.85
181.064	-21.85
181.283	-13.65
181.503	-19.8
181.723	4.78
181.943	-21.85
182.163	72.36
182.383	15.02
182.602	51.88
182.822	47.79
183.042	-23.89
183.262	43.69
183.482	66.22
183.701	45.74
183.921	43.69
184.141	-120.15
184.361	49.83
184.58	94.89
184.8	49.83
185.02	19.11
185.239	107.18
185.459	15.02
185.679	98.99
185.898	12.97
186.118	170.66
186.338	2.73
186.557	51.88
186.777	-83.28
186.997	12.97
187.216	55.98
187.436	96.94
187.655	29.35
187.875	101.03
188.095	58.03
188.314	68.27
188.534	92.84
188.753	33.45
188.973	68.27
189.192	115.37
189.412	23.21
189.631	76.46
189.851	64.17
190.07	31.4
190.29	33.45
190.509	33.45
190.729	23.21
190.948	60.07
191.168	115.37
191.387	121.51
191.607	60.07
191.826	76.46
192.045	0.68
192.265	55.98
192.484	94.89
192.704	2.73
192.923	-36.18
193.142	172.71
193.362	23.21
193.581	109.22
193.8	146.09
194.02	109.22
194.239	-38.23
194.458	70.31
194.678	41.64
194.897	78.51
195.116	66.22
195.335	43.69
195.555	92.84
195.774	15.02
195.993	19.11
196.212	31.4
196.432	-7.51
196.651	72.36
196.87	37.55
197.089	66.22
197.308	8.87
197.528	101.03
197.747	66.22
197.966	68.27
198.185	17.07
198.404	47.79
198.623	43.69
198.842	68.27
199.062	103.08
199.281	47.79
199.5	60.07
199.719	51.88
199.938	60.07
200.157	60.07
200.376	78.51
200.595	103.08
200.814	27.31
201.033	49.83
201.252	80.55
201.471	92.84
201.69	17.07
201.909	2.73
202.128	47.79
202.347	125.61
202.566	55.98
202.785	66.22
203.004	41.64
203.223	94.89
203.442	-27.99
203.661	27.31
203.879	84.65
204.098	80.55
204.317	51.88
204.536	53.93
204.755	74.41
204.974	88.75
205.193	96.94
205.411	121.51
205.63	101.03
205.849	35.5
206.068	78.51
206.287	35.5
206.505	64.17
206.724	111.27
206.943	51.88
207.162	2.73
207.381	41.64
207.599	23.21
207.818	60.07
208.037	6.83
208.255	60.07
208.474	86.7
208.693	109.22
208.911	51.88
209.13	31.4
209.349	109.22
209.567	-7.51
209.786	133.8
210.005	35.5
210.223	-7.51
210.442	27.31
210.661	82.6
210.879	27.31
211.098	15.02
211.316	60.07
211.535	25.26
211.753	58.03
211.972	37.55
212.191	43.69
212.409	47.79
212.628	76.46
212.846	-3.41
213.065	53.93
213.283	101.03
213.502	43.69
213.72	23.21
213.938	29.35
214.157	78.51
214.375	55.98
214.594	68.27
214.812	27.31
215.031	17.07
215.249	-38.23
215.467	-7.51
215.686	-5.46
215.904	94.89
216.122	-17.75
216.341	70.31
216.559	35.5
216.778	43.69
216.996	55.98
217.214	-40.28
217.432	76.46
217.651	19.11
217.869	45.74
218.087	29.35
218.306	80.55
218.524	58.03
218.742	131.75
218.96	62.12
219.179	12.97
219.397	80.55
219.615	76.46
219.833	84.65
220.051	25.26
220.27	31.4
220.488	64.17
220.706	43.69
220.924	129.7
221.142	-58.71
221.36	-30.04
221.578	12.97
221.796	2.73
222.015	82.6
222.233	10.92
222.451	64.17
222.669	27.31
222.887	-13.65
223.105	27.31
223.323	72.36
223.541	-1.37
223.759	4.78
223.977	78.51
224.195	43.69
224.413	127.66
224.631	98.99
224.849	-23.89
225.067	68.27
225.285	80.55
225.503	39.59
225.721	-13.65
225.939	53.93
226.157	68.27
226.375	76.46
226.592	90.79
226.81	23.21
227.028	6.83
227.246	47.79
227.464	19.11
227.682	72.36
227.9	80.55
228.117	64.17
228.335	47.79
228.553	88.75
228.771	49.83
228.989	53.93
229.206	115.37
229.424	66.22
229.642	-5.46
229.86	23.21
230.077	107.18
230.295	123.56
230.513	101.03
230.731	58.03
230.948	41.64
231.166	84.65
231.384	4.78
231.601	27.31
231.819	6.83
232.037	98.99
232.254	68.27
232.472	113.32
232.689	78.51
232.907	72.36
233.125	27.31
233.342	72.36
233.56	-23.89
233.777	17.07
233.995	33.45
234.213	25.26
234.43	47.79
234.648	47.79
234.865	4.78
235.083	29.35
235.3	39.59
235.518	76.46
235.735	68.27
235.953	125.61
236.17	31.4
236.388	17.07
236.605	47.79
236.822	33.45
237.04	-15.7
237.257	6.83
237.475	2.73
237.692	15.02
237.909	55.98
238.127	47.79
238.344	90.79
238.562	103.08
238.779	-38.23
238.996	51.88
239.214	0.68
239.431	35.5
239.648	31.4
239.865	72.36
240.083	62.12
240.3	25.26
240.517	12.97
240.735	47.79
240.952	25.26
241.169	103.08
241.386	19.11
241.603	43.69
241.821	-1.37
242.038	41.64
242.255	88.75
242.472	105.13
242.689	62.12
242.907	-25.94
243.124	49.83
243.341	58.03
243.558	19.11
243.775	-19.8
243.992	-13.65
244.209	35.5
244.426	84.65
244.643	70.31
244.86	33.45
245.078	51.88
245.295	47.79
245.512	41.64
245.729	-9.56
245.946	45.74
246.163	35.5
246.38	58.03
246.597	43.69
246.814	84.65
247.031	74.41
247.248	64.17
247.464	39.59
247.681	35.5
247.898	55.98
248.115	31.4
248.332	98.99
248.549	113.32
248.766	2.73
248.983	39.59
249.2	88.75
249.417	-17.75
249.633	64.17
249.85	107.18
250.067	35.5
250.284	60.07
250.501	68.27
250.717	111.27
250.934	8.87
251.151	35.5
251.368	49.83
251.585	2.73
251.801	-11.61
252.018	84.65
252.235	101.03
252.451	6.83
252.668	39.59
252.885	68.27
253.102	53.93
253.318	31.4
253.535	51.88
253.752	90.79
253.968	12.97
254.185	-17.75
254.401	82.6
254.618	103.08
254.835	-19.8
255.051	47.79
255.268	62.12
255.484	33.45
255.701	82.6
255.917	47.79
256.134	-87.38
256.351	86.7
256.567	2.73
256.784	51.88
257	-44.37
257.217	58.03
257.433	66.22
257.65	47.79
257.866	37.55
258.082	0.68
258.299	125.61
258.515	66.22
258.732	21.16
258.948	23.21
259.165	21.16
259.381	29.35
259.597	-13.65
259.814	47.79
260.03	62.12
260.246	84.65
260.463	37.55
260.679	15.02
260.895	43.69
261.112	98.99
261.328	21.16
261.544	43.69
261.761	135.85
261.977	101.03
262.193	23.21
262.409	84.65
262.626	66.22
262.842	-34.13
263.058	66.22
263.274	72.36
263.49	39.59
263.707	66.22
263.923	33.45
264.139	-13.65
264.355	70.31
264.571	96.94
264.787	58.03
265.004	-23.89
265.22	-15.7
265.436	68.27
265.652	41.64
265.868	76.46
266.084	27.31
266.3	55.98
266.516	-44.37
266.732	47.79
266.948	2.73
267.164	47.79
267.38	55.98
267.596	47.79
267.812	41.64
268.028	103.08
268.244	17.07
268.46	31.4
268.676	64.17
268.892	121.51
269.108	10.92
269.324	53.93
269.54	55.98
269.756	141.99
269.972	21.16
270.188	39.59
270.403	0.68
270.619	-32.08
270.835	47.79
271.051	35.5
271.267	72.36
271.483	55.98
271.698	43.69
271.914	129.7
272.13	72.36
272.346	35.5
272.562	68.27
272.777	27.31
272.993	94.89
273.209	55.98
273.425	76.46
273.64	-13.65
273.856	82.6
274.072	133.8
274.287	55.98
274.503	51.88
274.719	33.45
274.934	-38.23
275.15	19.11
275.366	64.17
275.581	29.35
275.797	31.4
276.012	76.46
276.228	6.83
276.444	76.46
276.659	60.07
276.875	-11.61
277.09	19.11
277.306	21.16
277.521	45.74
277.737	29.35
277.952	74.41
278.168	27.31
278.383	19.11
278.599	68.27
278.814	101.03
279.03	23.21
279.245	139.94
279.461	111.27
279.676	121.51
279.892	60.07
280.107	58.03
280.322	23.21
280.538	150.18
280.753	-38.23
280.969	105.13
281.184	78.51
281.399	103.08
281.615	47.79
281.83	76.46
282.045	-32.08
282.26	6.83
282.476	92.84
282.691	127.66
282.906	6.83
283.122	105.13
283.337	15.02
283.552	76.46
283.767	68.27
283.983	58.03
284.198	129.7
284.413	86.7
284.628	84.65
284.843	43.69
285.058	86.7
285.274	72.36
285.489	51.88
285.704	51.88
285.919	117.42
286.134	70.31
286.349	86.7
286.564	90.79
286.779	64.17
286.995	84.65
287.21	10.92
287.425	135.85
287.64	41.64
287.855	53.93
288.07	-30.04
288.285	141.99
288.5	101.03
288.715	96.94
288.93	17.07
289.145	68.27
289.36	53.93
289.575	-27.99
289.79	74.41
290.004	60.07
290.219	72.36
290.434	27.31
290.649	31.4
290.864	39.59
291.079	96.94
291.294	90.79
291.509	84.65
291.724	80.55
291.938	82.6
292.153	55.98
292.368	109.22
292.583	80.55
292.798	-11.61
293.012	76.46
293.227	-9.56
293.442	58.03
293.657	45.74
293.871	-7.51
294.086	27.31
294.301	111.27
294.516	66.22
294.73	70.31
294.945	103.08
295.16	105.13
295.374	109.22
295.589	88.75
295.804	68.27
296.018	25.26
296.233	53.93
296.447	37.55
296.662	-19.8
296.877	76.46
297.091	150.18
297.306	35.5
297.52	43.69
297.735	-38.23
297.949	72.36
298.164	43.69
298.378	64.17
298.593	39.59
298.807	74.41
299.022	0.68
299.236	53.93
299.451	123.56
299.665	31.4
299.88	55.98
300.094	45.74
300.309	101.03
300.523	58.03
300.737	78.51
300.952	66.22
301.166	78.51
301.381	2.73
301.595	31.4
301.809	90.79
302.024	35.5
302.238	82.6
302.452	125.61
302.667	39.59
302.881	76.46
303.095	25.26
303.309	127.66
303.524	19.11
303.738	47.79
303.952	55.98
304.166	55.98
304.381	39.59
304.595	60.07
304.809	31.4
305.023	49.83
305.237	96.94
305.452	33.45
305.666	76.46
305.88	27.31
306.094	39.59
306.308	113.32
306.522	135.85
306.736	94.89
306.95	33.45
307.164	19.11
307.379	70.31
307.593	111.27
307.807	117.42
308.021	150.18
308.235	53.93
308.449	43.69
308.663	31.4
308.877	47.79
309.091	23.21
309.305	68.27
309.519	-5.46
309.733	131.75
309.947	-21.85
310.161	62.12
310.374	47.79
310.588	117.42
310.802	74.41
311.016	84.65
311.23	76.46
311.444	60.07
311.658	-36.18
311.872	41.64
312.085	37.55
312.299	23.21
312.513	25.26
312.727	15.02
312.941	58.03
313.154	39.59
313.368	35.5
313.582	43.69
313.796	80.55
314.009	15.02
314.223	82.6
314.437	125.61
314.651	121.51
314.864	27.31
315.078	72.36
315.292	-64.85
315.505	86.7
315.719	12.97
315.933	64.17
316.146	33.45
316.36	45.74
316.573	123.56
316.787	117.42
317.001	33.45
317.214	19.11
317.428	45.74
317.641	23.21
317.855	129.7
318.068	92.84
318.282	98.99
318.495	144.04
318.709	148.14
318.922	21.16
319.136	60.07
319.349	41.64
319.563	64.17
319.776	19.11
319.99	10.92
320.203	84.65
320.417	68.27
320.63	23.21
320.843	80.55
321.057	105.13
321.27	82.6
321.483	60.07
321.697	53.93
321.91	55.98
322.124	78.51
322.337	68.27
322.55	47.79
322.763	43.69
322.977	84.65
323.19	88.75
323.403	-9.56
323.617	88.75
323.83	27.31
324.043	27.31
324.256	82.6
324.469	15.02
324.683	84.65
324.896	51.88
325.109	131.75
325.322	39.59
325.535	84.65
325.748	43.69
325.962	31.4
326.175	23.21
326.388	96.94
326.601	33.45
326.814	39.59
327.027	-7.51
327.24	109.22
327.453	68.27
327.666	96.94
327.879	70.31
328.092	15.02
328.305	58.03
328.518	41.64
328.731	43.69
328.944	47.79
329.157	37.55
329.37	74.41
329.583	115.37
329.796	49.83
330.009	25.26
330.222	84.65
330.435	49.83
330.648	66.22
330.861	62.12
331.073	105.13
331.286	60.07
331.499	105.13
331.712	-46.42
331.925	74.41
332.138	37.55
332.35	68.27
332.563	19.11
332.776	55.98
332.989	27.31
333.202	41.64
333.414	21.16
333.627	80.55
333.84	96.94
334.053	21.16
334.265	78.51
334.478	27.31
334.691	43.69
334.903	82.6
335.116	19.11
335.329	84.65
335.541	64.17
335.754	113.32
335.966	96.94
336.179	60.07
336.392	58.03
336.604	55.98
336.817	62.12
337.029	68.27
337.242	45.74
337.454	76.46
337.667	55.98
337.88	107.18
338.092	107.18
338.305	129.7
338.517	60.07
338.729	51.88
338.942	80.55
339.154	88.75
339.367	23.21
339.579	39.59
339.792	39.59
340.004	94.89
340.217	60.07
340.429	84.65
340.641	51.88
340.854	80.55
341.066	17.07
341.278	101.03
341.491	41.64
341.703	58.03
341.915	68.27
342.128	103.08
342.34	72.36
342.552	55.98
342.764	101.03
342.977	41.64
343.189	41.64
343.401	92.84
343.613	35.5
343.826	101.03
344.038	47.79
344.25	70.31
344.462	27.31
344.674	90.79
344.886	76.46
345.099	76.46
345.311	21.16
345.523	72.36
345.735	17.07
345.947	113.32
346.159	17.07
346.371	86.7
346.583	76.46
346.795	92.84
347.007	60.07
347.219	164.52
347.431	41.64
347.643	105.13
347.855	17.07
348.067	90.79
348.279	12.97
348.491	88.75
348.703	98.99
348.915	27.31
349.127	41.64
349.339	76.46
349.551	107.18
349.763	113.32
349.975	25.26
350.187	121.51
350.399	133.8
350.61	55.98
350.822	19.11
351.034	121.51
351.246	88.75
351.458	105.13
351.669	29.35
351.881	150.18
352.093	98.99
352.305	29.35
352.517	117.42
352.728	21.16
352.94	113.32
353.152	84.65
353.363	55.98
353.575	88.75
353.787	68.27
353.999	76.46
354.21	154.28
354.422	53.93
354.633	68.27
354.845	66.22
355.057	37.55
355.268	117.42
355.48	107.18
355.692	43.69
355.903	51.88
356.115	68.27
356.326	2.73
356.538	133.8
356.749	6.83
356.961	101.03
357.172	144.04
357.384	51.88
357.595	141.99
357.807	70.31
358.018	43.69
358.23	84.65
358.441	129.7
358.653	-25.94
358.864	15.02
359.075	51.88
359.287	41.64
359.498	90.79
359.709	176.81
359.921	64.17
360.132	123.56
360.344	150.18
360.555	31.4
360.766	133.8
360.977	125.61
361.189	105.13
361.4	58.03
361.611	84.65
361.823	152.23
362.034	98.99
362.245	35.5
362.456	58.03
362.667	94.89
362.879	68.27
363.09	152.23
363.301	72.36
363.512	94.89
363.723	109.22
363.935	2.73
364.146	70.31
364.357	-40.28
364.568	76.46
364.779	-48.47
364.99	162.47
365.201	101.03
365.412	162.47
365.623	-21.85
365.834	129.7
366.045	-13.65
366.256	105.13
366.467	146.09
366.678	98.99
366.889	121.51
367.1	68.27
367.311	115.37
367.522	94.89
367.733	47.79
367.944	70.31
368.155	107.18
368.366	51.88
368.577	51.88
368.788	170.66
368.999	2.73
369.209	76.46
369.42	96.94
369.631	94.89
369.842	148.14
370.053	43.69
370.264	76.46
370.474	82.6
370.685	66.22
370.896	131.75
371.107	55.98
371.317	98.99
371.528	133.8
371.739	176.81
371.95	82.6
372.16	92.84
372.371	82.6
372.582	141.99
372.792	60.07
373.003	152.23
373.214	109.22
373.424	55.98
373.635	-13.65
373.846	152.23
374.056	150.18
374.267	51.88
374.477	31.4
374.688	66.22
374.898	137.9
375.109	31.4
375.319	109.22
375.53	78.51
375.74	150.18
375.951	96.94
376.161	103.08
376.372	168.62
376.582	86.7
376.793	43.69
377.003	150.18
377.214	115.37
377.424	51.88
377.635	21.16
377.845	117.42
378.055	121.51
378.266	64.17
378.476	53.93
378.686	146.09
378.897	27.31
379.107	64.17
379.317	107.18
379.528	17.07
379.738	58.03
379.948	-7.51
380.158	152.23
380.369	101.03
380.579	117.42
380.789	82.6
380.999	109.22
381.21	17.07
381.42	131.75
381.63	90.79
381.84	74.41
382.05	96.94
382.261	156.33
382.471	156.33
382.681	137.9
382.891	111.27
383.101	58.03
383.311	43.69
383.521	66.22
383.731	27.31
383.941	123.56
384.151	76.46
384.361	123.56
384.571	27.31
384.781	129.7
384.991	168.62
385.201	111.27
385.411	105.13
385.621	119.46
385.831	101.03
386.041	84.65
386.251	117.42
386.461	127.66
386.671	68.27
386.881	111.27
387.091	94.89
387.301	92.84
387.511	74.41
387.72	64.17
387.93	160.42
388.14	109.22
388.35	125.61
388.56	105.13
388.769	127.66
388.979	191.14
389.189	94.89
389.399	139.94
389.609	76.46
389.818	139.94
390.028	35.5
390.238	103.08
390.447	66.22
390.657	39.59
390.867	92.84
391.076	35.5
391.286	199.34
391.496	146.09
391.705	70.31
391.915	60.07
392.125	141.99
392.334	133.8
392.544	164.52
392.753	101.03
392.963	121.51
393.172	117.42
393.382	82.6
393.591	172.71
393.801	131.75
394.01	197.29
394.22	96.94
394.429	131.75
394.639	96.94
394.848	68.27
395.058	68.27
395.267	164.52
395.477	78.51
395.686	129.7
395.895	133.8
396.105	170.66
396.314	82.6
396.524	125.61
396.733	127.66
396.942	262.82
397.152	185
397.361	178.86
397.57	92.84
397.78	133.8
397.989	76.46
398.198	162.47
398.407	119.46
398.617	199.34
398.826	123.56
399.035	166.57
399.244	213.67
399.453	92.84
399.663	164.52
399.872	207.53
400.081	195.24
400.29	146.09
400.499	139.94
400.708	174.76
400.917	170.66
401.127	154.28
401.336	170.66
401.545	195.24
401.754	207.53
401.963	230.06
402.172	137.9
402.381	213.67
402.59	158.38
402.799	70.31
403.008	228.01
403.217	252.58
403.426	213.67
403.635	162.47
403.844	178.86
404.053	178.86
404.262	180.9
404.471	289.45
404.68	232.1
404.888	260.77
405.097	166.57
405.306	238.25
405.515	275.11
405.724	250.53
405.933	299.69
406.142	240.29
406.35	297.64
406.559	348.84
406.768	285.35
406.977	344.74
407.185	299.69
407.394	281.25
407.603	318.12
407.812	330.41
408.02	342.69
408.229	326.31
408.438	342.69
408.646	385.7
408.855	326.31
409.064	449.19
409.272	336.55
409.481	494.24
409.69	377.51
409.898	357.03
410.107	416.42
410.315	465.57
410.524	510.63
410.733	467.62
410.941	527.01
411.15	498.34
411.358	527.01
411.567	688.8
411.775	565.92
411.984	602.79
412.192	653.98
412.401	727.71
412.609	721.57
412.818	666.27
413.026	715.42
413.234	758.43
413.443	780.96
413.651	813.73
413.86	838.3
414.068	875.17
414.276	944.8
414.485	934.56
414.693	952.99
414.901	1057.43
415.11	1059.48
415.318	1026.71
415.526	1110.68
415.734	1163.93
415.943	1196.7
416.151	1268.38
416.359	1170.07
416.567	1372.82
416.776	1362.58
416.984	1448.6
417.192	1454.74
417.4	1415.83
417.608	1442.45
417.817	1602.19
418.025	1677.97
418.233	1673.87
418.441	1608.34
418.649	1768.08
418.857	1872.53
419.065	1958.54
419.273	2017.93
419.481	1931.92
419.689	2122.38
419.897	2114.19
420.105	2204.3
420.313	2337.41
420.521	2394.76
420.729	2347.65
420.937	2501.25
421.145	2591.36
421.353	2704
421.561	2744.96
421.769	2833.02
421.977	3027.58
422.185	2998.91
422.393	3293.82
422.601	3271.29
422.809	3236.47
423.017	3453.56
423.224	3629.68
423.432	3656.31
423.64	3607.16
423.848	4041.32
424.056	4102.76
424.263	4153.96
424.471	4178.54
424.679	4321.9
424.887	4438.63
425.094	4702.82
425.302	4754.02
425.51	4883.04
425.718	4940.38
425.925	5055.07
426.133	5276.25
426.341	5487.19
426.548	5659.22
426.756	5704.28
426.964	5931.6
427.171	6269.51
427.379	6359.63
427.586	6505.03
427.794	6652.49
428.001	7031.36
428.209	7311.93
428.417	7133.76
428.624	7625.27
428.832	7551.54
429.039	7645.75
429.247	7617.08
429.454	8372.78
429.662	8858.15
429.869	8325.68
430.076	8825.38
430.284	8493.61
430.491	8985.12
430.699	9658.9
430.906	9560.6
431.114	9697.81
431.321	10066.45
431.528	10258.96
431.736	10842.63
431.943	11172.35
432.15	11026.95
432.358	10918.4
432.565	11645.43
432.772	11532.79
432.979	12394.99
433.187	12360.17
433.394	12642.79
433.601	13445.6
433.808	13384.16
434.016	13457.89
434.223	13908.44
434.43	14899.66
434.637	14414.29
434.844	15280.58
435.052	15790.52
435.259	15417.79
435.466	15856.06
435.673	15598.01
435.88	16677.29
436.087	17166.76
436.294	17310.11
436.501	16755.11
436.708	17652.13
436.915	17885.59
437.122	18520.46
437.329	18411.92
437.537	19300.74
437.743	19437.95
437.95	19229.06
438.157	20517.23
438.364	20709.74
438.571	21088.62
438.778	21113.19
438.985	23322.95
439.192	22042.97
439.399	23226.7
439.606	22262.1
439.813	23691.59
440.02	25098.54
440.227	24523.06
440.433	24346.94
440.64	25387.3
440.847	24875.31
441.054	25641.25
441.261	27214.09
441.467	26878.22
441.674	27793.67
441.881	28297.47
442.088	28549.37
442.294	27771.14
442.501	28610.81
442.708	29317.36
442.914	30638.3
443.121	31758.53
443.328	31256.78
443.534	33155.25
443.741	32415.93
443.948	31633.61
444.154	34304.16
444.361	33714.34
444.568	33999.01
444.774	33980.58
444.981	34648.22
445.187	35227.79
445.394	36925.56
445.6	36325.5
445.807	40058.95
446.013	37879.91
446.22	38719.58
446.426	40495.17
446.633	40388.67
446.839	41920.56
447.046	40527.94
447.252	42446.88
447.459	42520.61
447.665	41775.15
447.871	44095.5
448.078	45916.14
448.284	43323.41
448.491	44402.69
448.697	46256.1
448.903	47243.23
449.11	47452.12
449.316	46632.93
449.522	47228.89
449.728	48244.68
449.935	48508.87
450.141	48805.83
450.347	50071.47
450.553	48422.86
450.76	49006.53
450.966	50147.25
451.172	49672.12
451.378	50995.1
451.584	49928.11
451.791	50999.2
451.997	50995.1
452.203	51834.77
452.409	51503
452.615	51302.3
452.821	49715.12
453.027	49186.75
453.233	51447.71
453.44	49354.68
453.646	49964.98
453.852	50302.89
454.058	50730.92
454.264	49084.35
454.47	50204.59
454.676	49102.78
454.882	50966.43
455.088	46569.44
455.294	47153.12
455.5	47423.45
455.705	48191.44
455.911	45981.68
456.117	45006.84
456.323	44863.49
456.529	42328.1
456.735	44298.25
456.941	43139.1
457.147	42534.95
457.352	41271.35
457.558	40452.16
457.764	40693.82
457.97	39794.76
458.176	39254.1
458.381	38891.61
458.587	37245.04
458.793	37081.2
458.999	35127.44
459.204	37984.36
459.41	36972.66
459.616	34349.21
459.821	34343.07
460.027	34244.77
460.233	33636.52
460.438	31926.47
460.644	32530.62
460.85	31129.81
461.055	30478.55
461.261	30314.72
461.466	28367.1
461.672	27269.39
461.878	29450.47
462.083	27371.78
462.289	26820.88
462.494	26419.48
462.7	25313.58
462.905	25045.29
463.111	25932.06
463.316	25723.17
463.522	25282.86
463.727	25301.29
463.932	25170.22
464.138	24957.23
464.343	25080.11
464.549	24172.86
464.754	25180.46
464.959	24822.06
465.165	24707.38
465.37	23812.42
465.575	22939.98
465.781	24189.24
465.986	24097.08
466.191	23390.53
466.397	22796.62
466.602	21825.89
466.807	22536.53
467.012	22313.3
467.218	22749.52
467.423	22272.34
467.628	22393.17
467.833	23157.07
468.038	22288.73
468.244	21676.38
468.449	22770
468.654	22053.21
468.859	21774.69
469.064	21553.51
469.269	20973.93
469.474	20828.52
469.679	21274.98
469.885	20334.96
470.09	21016.94
470.295	20652.4
470.5	20294
470.705	20177.27
470.91	20128.12
471.115	19503.49
471.32	20105.59
471.525	19974.52
471.73	19396.99
471.935	19349.89
472.139	18733.45
472.344	18954.63
472.549	18981.26
472.754	18583.95
472.959	18358.67
473.164	17703.32
473.369	17762.72
473.574	18446.74
473.778	17985.94
473.983	17770.91
474.188	17777.05
474.393	16820.65
474.598	17269.16
474.802	16957.86
475.007	16996.78
475.212	16925.1
475.417	16359.86
475.621	16294.32
475.826	16409.01
476.031	16093.62
476.235	15897.02
476.44	16089.53
476.645	15507.9
476.849	15722.94
477.054	15579.58
477.259	15317.44
477.463	15065.54
477.668	14664.14
477.872	15063.49
478.077	14825.93
478.282	14367.18
478.486	14438.86
478.691	14180.82
478.895	14201.3
479.1	14315.98
479.304	14197.2
479.509	13705.69
479.713	14059.99
479.918	13869.53
480.122	13744.6
480.326	13715.93
480.531	13582.81
480.735	13593.05
480.94	13517.28
481.144	13965.78
481.348	13214.18
481.553	13494.75
481.757	13173.22
481.961	13126.11
482.166	13609.43
482.37	13339.1
482.574	13064.68
482.778	13044.2
482.983	13666.78
483.187	13119.97
483.391	13283.81
483.595	13193.7
483.8	12947.94
484.004	13142.5
484.208	13212.13
484.412	12949.99
484.616	13236.7
484.821	13275.62
485.025	13019.62
485.229	13177.31
485.433	13048.29
485.637	13261.28
485.841	13111.78
486.045	13185.51
486.249	13244.9
486.453	13171.17
486.657	13193.7
486.861	13240.8
487.065	12962.28
487.269	13119.97
487.473	13029.86
487.677	13480.41
487.881	13429.21
488.085	13242.85
488.289	13328.86
488.493	12997.09
488.697	13562.33
488.901	13269.47
489.105	13228.51
489.309	13222.37
489.512	13345.25
489.716	13267.42
489.92	13421.02
490.124	13455.84
490.328	13771.22
490.531	13187.55
490.735	13496.8
490.939	13732.31
491.143	13429.21
491.346	13629.91
491.55	13822.42
491.754	13548
491.958	14037.46
492.161	13760.98
492.365	14127.57
492.569	14019.03
492.772	13969.88
492.976	14244.31
493.18	14182.87
493.383	14389.71
493.587	14504.4
493.79	14563.79
493.994	14408.14
494.197	14594.51
494.401	14916.04
494.605	14664.14
494.808	14997.96
495.012	14848.46
495.215	14776.78
495.419	15065.54
495.622	15403.46
495.825	15454.65
496.029	15409.6
496.232	15778.23
496.436	15387.07
496.639	16288.18
496.843	16023.99
497.046	16171.44
497.249	16640.43
497.453	16476.59
497.656	16624.04
497.859	16652.72
498.063	16519.6
498.266	17265.06
498.469	17166.76
498.673	17381.79
498.876	17942.94
499.079	17772.96
499.282	18008.47
499.485	18172.31
499.689	18358.67
499.892	18571.66
500.095	18858.38
500.298	19134.85
500.501	18997.64
500.705	19659.13
500.908	19665.28
501.111	19906.94
501.314	19831.16
501.517	20271.48
501.72	20457.84
501.923	20148.6
502.126	20689.26
502.329	21268.84
502.532	21539.17
502.735	21496.16
502.938	21760.35
503.141	21836.13
503.344	22305.11
503.547	22446.42
503.75	22761.81
503.953	22917.45
504.156	23152.97
504.359	23208.26
504.562	23482.69
504.765	24066.36
504.968	23996.73
505.17	24099.13
505.373	24654.13
505.576	24992.05
505.779	25178.41
505.982	25379.11
506.185	25815.33
506.387	26181.92
506.59	26435.86
506.793	26894.61
506.996	26800.4
507.198	27226.38
507.401	27216.14
507.604	27359.5
507.807	28233.98
508.009	28332.28
508.212	28514.55
508.415	28692.72
508.617	29024.5
508.82	29130.99
509.022	28999.92
509.225	30097.63
509.428	30097.63
509.63	30263.52
509.833	30492.89
510.035	31355.08
510.238	31238.35
510.44	31594.7
510.643	32127.17
510.845	32010.43
511.048	31914.18
511.25	33028.27
511.453	32868.53
511.655	33964.2
511.858	33826.98
512.06	33734.82
512.262	34128.03
512.465	34064.55
512.667	34877.59
512.87	35256.46
513.072	35485.84
513.274	36333.7
513.477	36018.31
513.679	36366.46
513.881	36800.63
514.084	37335.15
514.286	36847.74
514.488	37554.29
514.69	38451.3
514.893	38324.32
515.095	38512.74
515.297	38998.1
515.499	39088.21
515.701	39788.62
515.904	40292.42
516.106	40265.8
516.308	40423.49
516.51	41314.36
516.712	41160.76
516.914	41779.25
517.116	42123.3
517.318	42645.54
517.52	42561.57
517.722	43063.32
517.925	43470.87
518.127	44079.11
518.329	44281.86
518.531	44023.82
518.733	44345.35
518.935	44955.64
519.136	45330.42
519.338	46061.55
519.54	46039.02
519.742	46790.62
519.944	46860.26
520.146	47429.59
520.348	47663.06
520.55	47787.99
520.752	47865.81
520.954	48467.91
521.155	48261.07
521.357	49362.87
521.559	49616.82
521.761	49848.24
521.963	49797.04
522.164	50249.64
522.366	50640.81
522.568	51345.31
522.77	51738.52
522.971	52133.78
523.173	51879.83
523.375	51873.68
523.576	52240.27
523.778	52825.99
523.98	52752.26
524.181	53319.55
524.383	53182.34
524.584	53845.88
524.786	54204.27
524.988	53968.76
525.189	54706.02
525.391	54884.2
525.592	55017.32
525.794	55246.69
525.995	55334.75
526.197	55613.27
526.398	55553.88
526.6	56428.37
526.801	56194.9
527.003	56299.34
527.204	56776.52
527.406	57292.61
527.607	56618.83
527.808	57233.22
528.01	56440.65
528.211	57278.27
528.412	58382.13
528.614	57923.38
528.815	57700.15
529.016	58683.18
529.218	57790.26
529.419	58634.03
529.62	58388.27
529.822	57966.39
530.023	58220.34
530.224	58912.55
530.425	58777.39
530.626	58814.25
530.828	58042.17
531.029	59539.23
531.23	58791.72
531.431	58486.57
531.632	59506.46
531.833	59215.65
532.035	59023.14
532.236	59580.19
532.437	59823.9
532.638	59289.38
532.839	59860.76
533.04	60002.07
533.241	59416.35
533.442	60606.22
533.643	60067.61
533.844	59842.33
534.045	60149.52
534.246	59436.83
534.447	60479.25
534.648	60104.47
534.849	60370.71
535.05	59825.95
535.251	60374.8
535.451	59891.48
535.652	60610.32
535.853	59668.25
536.054	60163.86
536.255	60491.54
536.456	59526.94
536.657	60821.26
536.857	59965.21
537.058	59940.63
537.259	60505.87
537.46	60780.3
537.66	59922.2
537.861	60395.28
538.062	60002.07
538.263	60739.34
538.463	60061.46
538.664	60102.42
538.865	60133.14
539.065	60469.01
539.266	59832.09
539.466	60167.96
539.667	59563.81
539.868	60362.51
540.068	60448.53
540.269	59903.77
540.469	60624.65
540.67	60034.84
540.87	60165.91
541.071	60075.8
541.271	60043.03
541.472	60016.41
541.672	60129.05
541.873	59453.22
542.073	59453.22
542.274	60622.61
542.474	60059.41
542.675	59895.58
542.875	60133.14
543.075	59985.69
543.276	59514.65
543.476	60083.99
543.676	59875.1
543.877	60071.7
544.077	59705.12
544.277	59758.36
544.478	59739.93
544.678	60391.19
544.878	59813.66
545.078	59752.22
545.279	59778.84
545.479	59477.79
545.679	59662.11
545.879	59559.71
546.079	59817.75
546.28	59959.06
546.48	59633.44
546.68	59694.88
546.88	59666.2
547.08	59488.03
547.28	59875.1
547.48	59182.88
547.68	59752.22
547.88	59103.01
548.081	59946.78
548.281	59342.63
548.481	59438.88
548.681	60000.02
548.881	59465.5
549.081	59602.72
549.28	59281.19
549.48	59731.74
549.68	59305.76
549.88	59930.39
550.08	58982.18
550.28	59782.94
550.48	59326.24
550.68	59879.19
550.88	58976.04
551.08	59344.67
551.279	59791.13
551.479	58877.74
551.679	59105.06
551.879	59154.21
552.079	59316
552.278	59350.82
552.478	59600.67
552.678	59479.84
552.878	59739.93
553.077	59309.86
553.277	58834.73
553.477	59883.29
553.676	58793.77
553.876	58904.36
554.076	58926.89
554.275	58750.76
554.475	58392.37
554.674	58873.64
554.874	59178.79
555.074	58605.36
555.273	58887.98
555.473	58801.96
555.672	58711.85
555.872	58658.6
556.071	58443.57
556.271	59240.23
556.47	57886.52
556.67	58449.71
556.869	58339.12
557.068	58431.28
557.268	58545.97
557.467	58543.92
557.667	57976.63
557.866	58048.31
558.065	58240.82
558.265	58191.67
558.464	57245.51
558.663	58378.03
558.863	57470.78
559.062	58091.32
559.261	57505.6
559.461	58142.52
559.66	57237.31
559.859	57495.36
560.058	56950.6
560.258	57345.86
560.457	56635.21
560.656	57249.6
560.855	57214.79
561.054	57253.7
561.253	56713.03
561.453	56661.83
561.652	57130.82
561.851	56897.35
562.05	56698.7
562.249	56217.42
562.448	56657.74
562.647	56381.26
562.846	55988.05
563.045	56020.82
563.244	55799.64
563.443	56797
563.642	55637.85
563.841	55922.52
564.04	55447.39
564.239	56332.11
564.438	55521.12
564.637	55463.77
564.836	55695.19
565.035	55091.04
565.234	55181.15
565.432	54984.55
565.631	55240.54
565.83	55383.9
566.029	54959.97
566.228	55101.28
566.427	54656.87
566.625	54599.53
566.824	53972.85
567.023	54714.22
567.222	53591.93
567.42	54269.81
567.619	54189.94
567.818	54050.67
568.016	53632.89
568.215	54376.3
568.414	53784.44
568.612	54220.66
568.811	53501.82
569.01	53211.01
569.208	52871.04
569.407	53528.44
569.605	52752.26
569.804	53028.74
570.002	52391.82
570.201	52928.39
570.4	52133.78
570.598	52443.02
570.797	51828.63
570.995	52451.21
571.193	51539.86
571.392	52647.82
571.59	51900.31
571.789	51378.07
571.987	51486.62
572.186	51451.8
572.384	51527.58
572.582	51197.85
572.781	51394.46
572.979	51175.33
573.177	51060.64
573.376	51478.43
573.574	50890.66
573.772	50960.29
573.971	50868.13
574.169	50601.89
574.367	50257.84
574.565	50624.42
574.763	49532.85
574.962	50343.85
575.16	49332.15
575.358	49774.52
575.556	49504.18
575.754	50368.43
575.952	49055.68
576.151	49704.88
576.349	49141.69
576.547	49287.1
576.745	48912.32
576.943	49221.56
577.141	48601.03
577.339	48785.35
577.537	48336.84
577.735	48435.14
577.933	48347.08
578.131	48728
578.329	48228.3
578.527	48191.44
578.725	47814.61
578.923	48046.03
579.121	48078.8
579.319	47265.75
579.516	47953.87
579.714	47714.26
579.912	47445.97
580.11	46886.88
580.308	47288.28
580.506	47116.25
580.704	46069.74
580.901	47063
581.099	46960.61
581.297	46043.12
581.495	46235.63
581.692	46354.41
581.89	45856.75
582.088	46352.36
582.285	45633.52
582.483	46512.1
582.681	46237.67
582.878	45957.1
583.076	45438.97
583.274	45615.09
583.471	45328.38
583.669	45234.17
583.866	45004.8
584.064	45168.63
584.262	44503.04
584.459	45082.62
584.657	44611.59
584.854	44918.78
585.052	43954.19
585.249	44576.77
585.447	44916.73
585.644	44070.92
585.841	44044.3
586.039	44404.74
586.236	43798.54
586.434	43653.14
586.631	43423.76
586.828	43675.66
587.026	43528.21
587.223	43540.5
587.42	43241.49
587.618	42870.81
587.815	42717.21
588.012	42530.85
588.21	42520.61
588.407	42647.58
588.604	42397.73
588.801	42309.67
588.999	42258.47
589.196	42328.1
589.393	42295.33
589.59	41783.34
589.787	41500.72
589.984	41525.3
590.182	41123.9
590.379	41529.39
590.576	40951.87
590.773	41496.63
590.97	41068.6
591.167	41281.59
591.364	40638.53
591.561	40790.08
591.758	40630.33
591.955	40437.83
592.152	40736.83
592.349	40196.17
592.546	40435.78
592.743	40652.86
592.94	39075.93
593.137	40108.1
593.334	40187.97
593.531	39491.66
593.727	39770.19
593.924	39366.74
594.121	39233.62
594.318	39647.31
594.515	38973.53
594.712	39202.9
594.908	39018.58
595.105	39278.68
595.302	38875.23
595.499	38559.84
595.696	38363.23
595.892	38215.78
596.089	38099.05
596.286	38535.26
596.482	38162.53
596.679	38289.51
596.876	38246.5
597.072	37879.91
597.269	37689.45
597.466	37621.87
597.662	37509.23
597.859	37490.8
598.055	37410.93
598.252	36837.5
598.448	37144.69
598.645	37220.47
598.841	36667.52
599.038	36978.81
599.234	36903.03
599.431	36419.71
599.627	36454.53
599.824	36364.42
600.02	36163.71
600.217	36491.39
600.413	36133
600.609	35821.7
600.806	35504.27
601.002	35500.17
601.198	35487.89
601.395	35242.13
601.591	35078.29
601.787	35195.03
601.984	34928.79
602.18	35561.61
602.376	35174.55
602.572	34803.86
602.769	34644.12
602.965	34709.66
603.161	34474.14
603.357	34599.07
603.553	34267.3
603.75	34554.01
603.946	34037.92
604.142	34052.26
604.338	33849.51
604.534	34082.98
604.73	33501.36
604.926	33630.38
605.122	33984.68
605.318	33343.66
605.514	33075.38
605.71	33243.31
605.906	33243.31
606.102	32864.44
606.298	33149.1
606.494	33022.13
606.69	32714.94
606.886	32934.07
607.082	32422.08
607.278	32641.21
607.474	32260.29
607.67	32555.19
607.866	32229.57
608.062	32258.24
608.257	32213.18
608.453	32178.37
608.649	32250.05
608.845	31971.52
609.041	31971.52
609.236	31514.83
609.432	31893.7
609.628	31846.6
609.824	31486.15
610.019	31852.74
610.215	31684.81
610.411	31578.31
610.606	31529.16
610.802	31541.45
610.998	31109.33
611.193	31299.79
611.389	30820.56
611.584	30689.49
611.78	30890.2
611.976	30771.41
612.171	30886.1
612.367	30769.37
612.562	30632.15
612.758	30505.18
612.953	30103.78
613.149	30834.9
613.344	30451.93
613.539	30793.94
613.735	30515.42
613.93	30705.88
614.126	30116.06
614.321	30748.89
614.517	30443.74
614.712	30290.14
614.907	29984.99
615.103	30433.5
615.298	29941.99
615.493	30275.8
615.688	29604.07
615.884	30269.66
616.079	29501.67
616.274	29853.92
616.47	29575.4
616.665	29579.5
616.86	29405.42
617.055	29262.06
617.25	29520.1
617.445	29323.5
617.641	28842.23
617.836	29108.46
618.031	28565.75
618.226	28991.73
618.421	28823.79
618.616	29151.47
618.811	28436.73
619.006	28709.11
619.201	28418.3
619.396	28582.13
619.591	27990.27
619.786	28014.85
619.981	27848.96
620.176	28016.9
620.371	27605.25
620.566	27896.06
620.761	27513.09
620.956	27713.8
621.151	27095.31
621.346	27582.73
621.541	26958.1
621.735	27476.23
621.93	26640.66
622.125	26747.15
622.32	26407.19
622.515	26741.01
622.709	26319.13
622.904	25954.59
623.099	25876.77
623.294	26310.94
623.488	25393.45
623.683	26003.74
623.878	25686.31
624.072	25399.59
624.267	25590.05
624.462	25317.67
624.656	24717.62
624.851	24887.6
625.046	25059.63
625.24	24885.55
625.435	24478.01
625.629	24269.11
625.824	24140.09
626.018	24133.95
626.213	23681.35
626.407	24340.79
626.602	23624
626.796	23728.45
626.991	23646.53
627.185	23257.42
627.38	23132.49
627.574	23136.59
627.768	23177.54
627.963	22974.8
628.157	22497.62
628.352	22784.33
628.546	22602.07
628.74	22640.98
628.935	22038.87
629.129	22255.96
629.323	21946.72
629.517	22249.82
629.712	21885.28
629.906	21844.32
630.1	21295.46
630.294	21786.97
630.489	21477.73
630.683	21514.59
630.877	21076.33
631.071	21096.81
631.265	20959.59
631.459	20724.08
631.653	20973.93
631.848	20791.66
632.042	20584.82
632.236	20451.7
632.43	20347.25
632.624	20226.42
632.818	20007.29
633.012	19939.71
633.206	19485.06
633.4	19976.57
633.594	19456.39
633.788	19384.71
633.982	19452.29
634.176	19351.94
634.369	19241.35
634.563	19208.58
634.757	18874.76
634.951	19032.46
635.145	18880.91
635.339	18825.61
635.533	18545.04
635.726	18700.69
635.92	18405.78
636.114	18565.52
636.308	18373.01
636.501	18131.35
636.695	18153.88
636.889	17594.78
637.083	17736.09
637.276	17797.53
637.47	17596.83
637.664	17580.45
637.857	17467.81
638.051	17289.63
638.244	17340.83
638.438	17000.87
638.632	17088.93
638.825	17017.25
639.019	16871.85
639.212	16814.51
639.406	16705.96
639.599	16470.45
639.793	16812.46
639.986	16339.38
640.18	16329.14
640.373	16363.95
640.567	16206.26
640.76	16271.79
640.954	16091.57
641.147	15851.96
641.34	15827.39
641.534	15823.29
641.727	15665.6
641.92	15727.03
642.114	15493.57
642.307	15454.65
642.5	15385.02
642.694	14985.67
642.887	15194.56
643.08	15243.71
643.273	15131.08
643.467	14776.78
643.66	14846.41
643.853	14754.25
644.046	14496.21
644.239	14674.38
644.432	14219.73
644.626	14483.92
644.819	14496.21
645.012	14299.6
645.205	14084.56
645.398	14324.18
645.591	14193.11
645.784	14205.39
645.977	13898.2
646.17	13828.57
646.363	13816.28
646.556	13681.11
646.749	13568.48
646.942	13500.89
647.135	13441.5
647.328	13384.16
647.521	13451.74
647.714	13330.91
647.907	13306.34
648.099	13150.69
648.292	13263.33
648.485	12952.04
648.678	12902.89
648.871	12642.79
649.064	12788.2
649.256	12855.78
649.449	12642.79
649.642	12407.28
649.835	12349.93
650.027	12562.92
650.22	12511.72
650.413	12296.69
650.605	12204.53
650.798	12052.98
650.991	12061.17
651.183	12147.19
651.376	11887.09
651.568	11975.16
651.761	12067.31
651.954	11788.79
652.146	11946.48
652.339	11911.67
652.531	11672.06
652.724	11528.7
652.916	11184.64
653.109	11422.2
653.301	11354.62
653.494	11336.19
653.686	11270.65
653.879	11467.26
654.071	11100.67
654.263	10940.93
654.456	10992.13
654.648	10818.05
654.84	10807.81
655.033	11049.47
655.225	10773
655.417	10736.13
655.61	10840.58
655.802	10529.29
655.994	10469.9
656.186	10768.9
656.379	10543.63
656.571	10283.53
656.763	10195.47
656.955	10293.77
657.148	10437.13
657.34	10203.66
657.532	10285.58
657.724	10172.94
657.916	10152.46
658.108	10144.27
658.3	9812.5
658.492	10068.5
658.684	9749.01
658.876	9693.72
659.068	9912.85
659.26	9554.46
659.452	9468.44
659.644	9648.66
659.836	9366.04
660.028	9470.49
660.22	9259.55
660.412	9388.57
660.604	9476.63
660.796	9644.57
660.988	9146.91
661.18	9054.75
661.372	9185.82
661.563	8981.03
661.755	9021.99
661.947	8921.63
662.139	8829.48
662.331	8796.71
662.522	8686.12
662.714	8854.05
662.906	8780.32
663.097	8788.52
663.289	8800.8
663.481	8571.43
663.673	8813.09
663.864	8452.65
664.056	8419.88
664.247	8411.69
664.439	8512.04
664.631	8540.71
664.822	8264.24
665.014	8405.55
665.205	8188.46
665.397	8047.15
665.588	8268.33
665.78	8165.93
665.971	8032.82
666.163	8174.13
666.354	7985.71
666.546	8018.48
666.737	7883.31
666.929	7957.04
667.12	8012.34
667.311	7830.07
667.503	7877.17
667.694	7653.94
667.885	7592.5
668.077	7739.96
668.268	7772.72
668.459	7658.04
668.651	7586.36
668.842	7545.4
669.033	7318.07
669.224	7555.64
669.416	7567.93
669.607	7526.97
669.798	7275.07
669.989	7399.99
670.18	7424.57
670.371	7404.09
670.563	7311.93
670.754	7348.79
670.945	7205.44
671.136	7184.96
671.327	7254.59
671.518	7053.89
671.709	7010.88
671.9	7301.69
672.091	7129.66
672.282	7049.79
672.473	6980.16
672.664	7096.89
672.855	7068.22
673.046	6771.27
673.237	7029.31
673.428	6971.97
673.619	7068.22
673.809	6941.25
674	6916.67
674.191	6769.22
674.382	6832.71
674.573	6763.08
674.764	6623.81
674.954	6728.26
675.145	6748.74
675.336	6687.3
675.527	6650.44
675.717	6638.15
675.908	6672.96
676.099	6699.59
676.289	6545.99
676.48	6582.85
676.671	6505.03
676.861	6472.26
677.052	6367.82
677.243	6490.7
677.433	6396.49
677.624	6343.24
677.814	6312.52
678.005	6408.78
678.195	6421.06
678.386	6482.5
678.576	6310.47
678.767	6257.23
678.957	6484.55
679.148	6314.57
679.338	6314.57
679.529	6285.9
679.719	6298.19
679.909	6343.24
680.1	6298.19
680.29	6240.84
680.481	6271.56
680.671	6120.01
680.861	5931.6
681.052	6171.21
681.242	6120.01
681.432	6079.05
681.622	6068.81
681.813	6142.54
682.003	5917.26
682.193	5853.78
682.383	6091.34
682.573	5921.36
682.764	6046.29
682.954	5958.22
683.144	6062.67
683.334	6021.71
683.524	5933.65
683.714	5999.18
683.904	5872.21
684.094	5894.74
684.284	5993.04
684.474	5884.5
684.664	5849.68
684.854	5909.07
685.044	5827.15
685.234	5829.2
685.424	5859.92
685.614	5886.54
685.804	5667.41
685.994	5775.95
686.184	5823.06
686.374	5661.27
686.564	5517.91
686.753	5864.02
686.943	5546.58
687.133	5712.47
687.323	5493.33
687.513	5577.3
687.702	5540.44
687.892	5571.16
688.082	5579.35
688.272	5644.88
688.461	5464.66
688.651	5435.99
688.841	5339.74
689.03	5384.79
689.22	5282.39
689.41	5288.54
689.599	5196.38
689.789	5216.86
689.979	5233.24
690.168	5302.87
690.358	5282.39
690.547	5317.21
690.737	5251.67
690.926	5139.04
691.116	5089.88
691.305	5268.06
691.495	5061.21
691.684	5089.88
691.874	4952.67
692.063	4973.15
692.252	5104.22
692.442	5042.78
692.631	4790.88
692.82	4979.29
693.01	4909.66
693.199	4872.8
693.388	4932.19
693.578	4909.66
693.767	4807.27
693.956	4676.2
694.146	4874.85
694.335	4772.45
694.524	4665.96
694.713	4778.59
694.902	4930.14
695.092	4731.49
695.281	4864.61
695.47	4792.93
695.659	4657.76
695.848	4733.54
696.037	4571.75
696.226	4739.68
696.415	4659.81
696.604	4651.62
696.793	4625
696.982	4661.86
697.171	4477.54
697.36	4698.72
697.549	4571.75
697.738	4629.09
697.927	4743.78
698.116	4647.52
698.305	4592.23
698.494	4737.63
698.683	4530.79
698.872	4741.73
699.061	4584.04
699.25	4668
699.438	4579.94
699.627	4573.8
699.816	4674.15
700.005	4596.32
700.193	4547.17
700.382	4375.14
700.571	4586.08
700.76	4487.78
700.948	4528.74
701.137	4491.88
701.326	4651.62
701.514	4475.49
701.703	4520.55
701.892	4416.1
702.08	4500.07
702.269	4467.3
702.457	4432.49
702.646	4414.06
702.834	4373.1
703.023	4389.48
703.212	4377.19
703.4	4530.79
703.589	4254.31
703.777	4455.01
703.965	4338.28
704.154	4405.86
704.342	4311.66
704.531	4428.39
704.719	4399.72
704.907	4541.03
705.096	4373.1
705.284	4463.21
705.472	4375.14
705.661	4311.66
705.849	4383.34
706.037	4246.12
706.226	4336.23
706.414	4209.26
706.602	4360.81
706.79	4426.34
706.979	4375.14
707.167	4389.48
707.355	4254.31
707.543	4391.53
707.731	4311.66
707.919	4350.57
708.107	4483.69
708.296	4256.36
708.484	4270.7
708.672	4293.23
708.86	4340.33
709.048	4338.28
709.236	4280.94
709.424	4377.19
709.612	4276.84
709.8	4391.53
709.988	4303.46
710.176	4465.25
710.364	4391.53
710.551	4207.21
710.739	4397.67
710.927	4358.76
711.115	4276.84
711.303	4268.65
711.491	4196.97
711.679	4323.94
711.866	4311.66
712.054	4377.19
712.242	4371.05
712.43	4344.42
712.617	4250.22
712.805	4383.34
712.993	4356.71
713.181	4186.73
713.368	4176.49
713.556	4186.73
713.744	4268.65
713.931	4317.8
714.119	4209.26
714.306	4399.72
714.494	4313.7
714.682	4235.88
714.869	4203.11
715.057	4342.38
715.244	4385.38
715.432	4418.15
715.619	4282.99
715.807	4377.19
715.994	4221.55
716.182	4317.8
716.369	4201.07
716.556	4237.93
716.744	4233.83
716.931	4416.1
717.119	4307.56
717.306	4188.78
717.493	4323.94
717.681	4276.84
717.868	4334.18
718.055	4432.49
718.242	4430.44
718.43	4334.18
718.617	4233.83
718.804	4328.04
718.991	4276.84
719.179	4317.8
719.366	4117.1
719.553	4440.68
719.74	4194.92
719.927	4145.77
720.114	4297.32
720.301	4141.68
720.488	4303.46
720.676	4291.18
720.863	4307.56
721.05	4362.86
721.237	4113
721.424	4254.31
721.611	4182.63
721.798	4184.68
721.985	4280.94
722.172	4268.65
722.358	4061.8
722.545	4229.74
722.732	4201.07
722.919	4184.68
723.106	4147.82
723.293	4215.4
723.48	4223.59
723.667	4078.19
723.853	4313.7
724.04	4242.03
724.227	4252.27
724.414	4211.31
724.6	4174.44
724.787	4196.97
724.974	4178.54
725.161	4317.8
725.347	4057.71
725.534	4237.93
725.72	4106.86
725.907	4194.92
726.094	4176.49
726.28	4244.07
726.467	4129.39
726.653	4164.2
726.84	4090.48
727.027	4065.9
727.213	4217.45
727.4	4115.05
727.586	4160.11
727.773	4010.61
727.959	4219.5
728.145	4141.68
728.332	4151.92
728.518	4121.2
728.705	4127.34
728.891	4205.16
729.077	4031.09
729.264	3983.98
729.45	4151.92
729.636	4262.51
729.823	3947.12
730.009	4049.52
730.195	4049.52
730.382	4088.43
730.568	4031.09
730.754	4115.05
730.94	4221.55
731.126	4098.67
731.313	4051.56
731.499	4178.54
731.685	4063.85
731.871	4057.71
732.057	4035.18
732.243	4131.44
732.429	4070
732.615	3906.16
732.801	4012.65
732.987	3973.74
733.173	3926.64
733.359	4020.85
733.545	4049.52
733.731	3975.79
733.917	4080.24
734.103	3969.65
734.289	4070
734.475	4078.19
734.661	3990.13
734.847	3996.27
735.033	3996.27
735.219	3945.07
735.404	4100.72
735.59	3957.36
735.776	3990.13
735.962	3877.49
736.148	3996.27
736.333	3971.69
736.519	3703.41
736.705	3971.69
736.89	3940.97
737.076	3834.48
737.262	3770.99
737.447	3861.1
737.633	3869.3
737.819	3781.23
738.004	3967.6
738.19	3816.05
738.375	3652.21
738.561	3779.18
738.747	3736.18
738.932	3836.53
739.118	3906.16
739.303	3684.98
739.489	3773.04
739.674	3684.98
739.859	3656.31
740.045	3746.42
740.23	3656.31
740.416	3697.27
740.601	3623.54
740.786	3717.75
740.972	3637.88
741.157	3564.15
741.342	3504.76
741.528	3582.58
741.713	3691.12
741.898	3687.03
742.084	3537.52
742.269	3623.54
742.454	3660.4
742.639	3484.28
742.824	3598.96
743.01	3566.2
743.195	3549.81
743.38	3424.89
743.565	3422.84
743.75	3482.23
743.935	3414.65
744.12	3545.72
744.305	3347.06
744.49	3422.84
744.675	3471.99
744.86	3351.16
745.045	3437.17
745.23	3261.05
745.415	3267.19
745.6	3285.62
745.785	3295.86
745.97	3213.95
746.155	3234.43
746.34	3285.62
746.525	3189.37
746.71	3109.5
746.895	3189.37
747.079	3189.37
747.264	3095.16
747.449	3138.17
747.634	3193.47
747.819	3199.61
748.003	2910.85
748.188	2900.61
748.373	3003
748.557	2916.99
748.742	3033.72
748.927	2943.61
749.111	3099.26
749.296	2876.03
749.481	2906.75
749.665	2884.22
749.85	2814.59
750.034	2900.61
750.219	2767.49
750.404	2798.21
750.588	2767.49
750.773	2792.06
750.957	2689.67
751.141	2697.86
751.326	2747.01
751.51	2638.47
751.695	2591.36
751.879	2570.88
752.064	2636.42
752.248	2640.51
752.432	2652.8
752.617	2595.46
752.801	2613.89
752.985	2587.27
753.17	2511.49
753.354	2505.35
753.538	2525.83
753.722	2366.09
753.907	2376.33
754.091	2329.22
754.275	2429.57
754.459	2468.48
754.643	2368.13
754.828	2357.89
755.012	2292.36
755.196	2284.17
755.38	2345.61
755.564	2120.33
755.748	2263.69
755.932	2280.07
756.116	2247.3
756.3	2267.78
756.484	2189.96
756.668	2235.02
756.852	2149
757.036	2149
757.22	2067.08
757.404	2118.28
757.588	2046.6
757.772	1952.4
757.956	2110.09
758.14	2140.81
758.323	2071.18
758.507	1944.2
758.691	2077.32
758.875	1952.4
759.059	1958.54
759.242	2114.19
759.426	1999.5
759.61	2005.64
759.794	1966.73
759.977	1833.61
760.161	2122.38
760.345	1989.26
760.528	2024.08
760.712	1835.66
760.895	1970.83
761.079	1850
761.263	1798.8
761.446	1729.17
761.63	1776.27
761.813	1809.04
761.997	1766.03
762.18	1673.87
762.364	1821.33
762.547	1712.78
762.731	1792.66
762.914	1675.92
763.098	1831.57
763.281	1665.68
763.464	1778.32
763.648	1747.6
763.831	1706.64
764.015	1708.69
764.198	1669.78
764.381	1598.1
764.564	1661.59
764.748	1729.17
764.931	1637.01
765.114	1630.87
765.297	1723.02
765.481	1614.48
765.664	1669.78
765.847	1677.97
766.03	1630.87
766.213	1614.48
766.397	1606.29
766.58	1645.2
766.763	1526.42
766.946	1579.67
767.129	1557.14
767.312	1575.57
767.495	1526.42
767.678	1532.56
767.861	1542.8
768.044	1546.9
768.227	1548.95
768.41	1587.86
768.593	1454.74
768.776	1530.52
768.959	1421.97
769.142	1622.67
769.324	1485.46
769.507	1469.08
769.69	1493.65
769.873	1395.35
770.056	1481.36
770.239	1370.77
770.421	1417.88
770.604	1368.73
770.787	1331.86
770.97	1428.12
771.152	1295
771.335	1391.25
771.518	1485.46
771.7	1393.3
771.883	1430.16
772.066	1428.12
772.248	1350.29
772.431	1311.38
772.613	1401.49
772.796	1354.39
772.978	1290.9
773.161	1432.21
773.343	1262.23
773.526	1391.25
773.708	1276.57
773.891	1235.61
774.073	1151.64
774.256	1266.33
774.438	1313.43
774.621	1272.47
774.803	1260.18
774.985	1241.75
775.168	1213.08
775.35	1141.4
775.532	1211.03
775.715	1178.26
775.897	1278.62
776.079	1161.88
776.261	1233.56
776.444	1256.09
776.626	1104.54
776.808	1135.26
776.99	1127.07
777.173	1098.39
777.355	1112.73
777.537	1141.4
777.719	1139.35
777.901	1139.35
778.083	1055.39
778.265	1067.67
778.447	1047.19
778.629	1006.24
778.811	1159.83
778.993	1102.49
779.175	993.95
779.357	1073.82
779.539	1014.43
779.721	967.32
779.903	1104.54
780.085	996
780.267	1053.34
780.449	977.56
780.631	957.08
780.812	885.41
780.994	916.12
781.176	936.6
781.358	965.28
781.54	928.41
781.721	969.37
781.903	924.32
782.085	957.08
782.267	854.69
782.448	846.49
782.63	801.44
782.812	797.34
782.993	866.97
783.175	746.14
783.357	703.14
783.538	866.97
783.72	830.11
783.901	778.91
784.083	703.14
784.264	819.87
784.446	819.87
784.627	764.57
784.809	778.91
784.99	797.34
785.172	770.72
785.353	797.34
785.535	746.14
785.716	766.62
785.897	686.75
786.079	707.23
786.26	780.96
786.441	688.8
786.623	676.51
786.804	682.66
786.985	737.95
787.167	723.62
787.348	658.08
787.529	696.99
787.71	713.38
787.891	653.98
788.073	649.89
788.254	699.04
788.435	748.19
788.616	686.75
788.797	678.56
788.978	658.08
789.159	623.27
789.34	674.46
789.522	615.07
789.703	649.89
789.884	674.46
790.065	506.53
790.246	703.14
790.427	713.38
790.607	670.37
790.788	631.46
790.969	658.08
791.15	662.18
791.331	457.38
791.512	588.45
791.693	567.97
791.874	627.36
792.054	641.7
792.235	533.15
792.416	570.02
792.597	498.34
792.778	580.26
792.958	559.78
793.139	537.25
793.32	596.64
793.5	500.39
793.681	578.21
793.862	565.92
794.042	584.35
794.223	606.88
794.404	512.67
794.584	465.57
794.765	484
794.945	461.48
795.126	545.44
795.306	531.11
795.487	494.24
795.667	479.91
795.848	541.35
796.028	471.72
796.209	484
796.389	551.59
796.57	457.38
796.75	447.14
796.93	475.81
797.111	471.72
797.291	395.94
797.471	441
797.652	479.91
797.832	430.76
798.012	484
798.192	397.99
798.373	432.8
798.553	434.85
798.733	498.34
798.913	414.37
799.093	395.94
799.274	404.13
799.454	529.06
799.634	494.24
799.814	490.15
799.994	477.86
800.174	375.46
800.354	453.28
800.534	451.24
800.714	400.04
800.894	326.31
801.074	336.55
801.254	397.99
801.434	383.65
801.614	410.28
801.794	385.7
801.974	877.21
802.154	387.75
802.334	449.19
802.514	404.13
802.693	441
802.873	404.13
803.053	426.66
803.233	348.84
803.413	393.89
803.592	371.36
803.772	430.76
803.952	420.52
804.131	314.02
804.311	443.04
804.491	369.32
804.67	373.41
804.85	330.41
805.03	346.79
805.209	400.04
805.389	357.03
805.568	342.69
805.748	359.08
805.928	289.45
806.107	336.55
806.287	408.23
806.466	332.45
806.646	385.7
806.825	293.54
807.004	303.78
807.184	383.65
807.363	346.79
807.543	420.52
807.722	350.89
807.901	305.83
808.081	326.31
808.26	293.54
808.439	379.56
808.619	311.97
808.798	264.87
808.977	344.74
809.156	330.41
809.336	281.25
809.515	357.03
809.694	334.5
809.873	334.5
810.052	242.34
810.231	410.28
810.411	346.79
810.59	363.17
810.769	273.06
810.948	387.75
811.127	225.96
811.306	254.63
811.485	230.06
811.664	320.17
811.843	336.55
812.022	242.34
812.201	254.63
812.38	271.01
812.559	238.25
812.737	254.63
812.916	277.16
813.095	256.68
813.274	240.29
813.453	203.43
813.632	340.65
813.811	260.77
813.989	215.72
814.168	338.6
814.347	156.33
814.526	217.77
814.704	289.45
814.883	354.98
815.062	230.06
815.24	199.34
815.419	295.59
815.598	182.95
815.776	230.06
815.955	221.86
816.133	197.29
816.312	182.95
816.49	199.34
816.669	176.81
816.847	273.06
817.026	244.39
817.204	258.73
817.383	260.77
817.561	164.52
817.74	277.16
817.918	236.2
818.097	268.97
818.275	154.28
818.453	254.63
818.632	215.72
818.81	264.87
818.988	189.1
819.167	193.19
819.345	195.24
819.523	217.77
819.701	178.86
819.879	258.73
820.058	187.05
820.236	238.25
820.414	207.53
820.592	242.34
820.77	236.2
820.948	182.95
821.127	234.15
821.305	201.38
821.483	115.37
821.661	254.63
821.839	178.86
822.017	115.37
822.195	199.34
822.373	230.06
822.551	219.82
822.729	228.01
822.907	176.81
823.085	217.77
823.262	228.01
823.44	172.71
823.618	219.82
823.796	248.49
823.974	182.95
824.152	166.57
824.329	135.85
824.507	164.52
824.685	185
824.863	195.24
825.04	191.14
825.218	94.89
825.396	211.62
825.574	232.1
825.751	219.82
825.929	223.91
826.107	86.7
826.284	160.42
826.462	240.29
826.639	96.94
826.817	182.95
826.994	137.9
827.172	90.79
827.349	176.81
827.527	133.8
827.704	201.38
827.882	135.85
828.059	125.61
828.237	121.51
828.414	230.06
828.591	115.37
828.769	125.61
828.946	209.58
829.124	199.34
829.301	195.24
829.478	203.43
829.655	92.84
829.833	64.17
830.01	182.95
830.187	123.56
830.364	96.94
830.542	109.22
830.719	205.48
830.896	209.58
831.073	166.57
831.25	146.09
831.427	123.56
831.604	211.62
831.782	96.94
831.959	205.48
832.136	180.9
832.313	162.47
832.49	105.13
832.667	232.1
832.844	178.86
833.021	107.18
833.198	107.18
833.374	166.57
833.551	158.38
833.728	144.04
833.905	117.42
834.082	174.76
834.259	129.7
834.436	139.94
834.612	195.24
834.789	160.42
834.966	127.66
835.143	162.47
835.319	60.07
835.496	133.8
835.673	150.18
835.85	113.32
836.026	141.99
836.203	105.13
836.38	156.33
836.556	144.04
836.733	191.14
836.909	148.14
837.086	121.51
837.262	78.51
837.439	178.86
837.616	141.99
837.792	111.27
837.968	115.37
838.145	109.22
838.321	119.46
838.498	133.8
838.674	164.52
838.851	166.57
839.027	117.42
839.203	62.12
839.38	146.09
839.556	125.61
839.732	209.58
839.909	137.9
840.085	141.99
840.261	72.36
840.437	105.13
840.614	17.07
840.79	182.95
840.966	43.69
841.142	174.76
841.318	109.22
841.494	133.8
841.671	199.34
841.847	94.89
842.023	125.61
842.199	121.51
842.375	72.36
842.551	158.38
842.727	62.12
842.903	55.98
843.079	133.8
843.255	164.52
843.431	131.75
843.607	123.56
843.783	84.65
843.959	101.03
844.134	84.65
844.31	72.36
844.486	96.94
844.662	96.94
844.838	119.46
845.013	168.62
845.189	127.66
845.365	103.08
845.541	78.51
845.716	90.79
845.892	117.42
846.068	90.79
846.244	92.84
846.419	137.9
846.595	96.94
846.77	37.55
846.946	111.27
847.122	41.64
847.297	51.88
847.473	96.94
847.648	66.22
847.824	76.46
847.999	66.22
848.175	76.46
848.35	37.55
848.526	148.14
848.701	133.8
848.876	94.89
849.052	84.65
849.227	78.51
849.403	23.21
849.578	76.46
849.753	43.69
849.929	-1.37
850.104	15.02
850.279	92.84
850.454	121.51
850.63	55.98
850.805	84.65
850.98	131.75
851.155	74.41
851.33	17.07
851.505	90.79
851.681	35.5
851.856	101.03
852.031	152.23
852.206	90.79
852.381	-5.46
852.556	107.18
852.731	105.13
852.906	105.13
853.081	55.98
853.256	96.94
853.431	86.7
853.606	55.98
853.781	96.94
853.956	33.45
854.131	51.88
854.305	82.6
854.48	37.55
854.655	78.51
854.83	47.79
855.005	66.22
855.18	64.17
855.354	86.7
855.529	80.55
855.704	92.84
855.879	62.12
856.053	47.79
856.228	84.65
856.403	55.98
856.577	94.89
856.752	-19.8
856.926	80.55
857.101	123.56
857.276	78.51
857.45	111.27
857.625	66.22
857.799	35.5
857.974	60.07
858.148	21.16
858.323	117.42
858.497	33.45
858.672	23.21
858.846	88.75
859.02	35.5
859.195	31.4
859.369	-1.37
859.543	74.41
859.718	51.88
859.892	47.79
860.066	86.7
860.241	27.31
860.415	129.7
860.589	2.73
860.763	58.03
860.938	51.88
861.112	96.94
861.286	64.17
861.46	31.4
861.634	103.08
861.808	98.99
861.982	64.17
862.157	-36.18
862.331	10.92
862.505	29.35
862.679	21.16
862.853	-5.46
863.027	96.94
863.201	62.12
863.375	4.78
863.549	8.87
863.722	51.88
863.896	80.55
864.07	-13.65
864.244	2.73
864.418	41.64
864.592	62.12
864.766	35.5
864.939	55.98
865.113	51.88
865.287	84.65
865.461	41.64
865.634	15.02
865.808	-15.7
865.982	-25.94
866.156	64.17
866.329	4.78
866.503	60.07
866.676	90.79
866.85	74.41
867.024	80.55
867.197	98.99
867.371	43.69
867.544	72.36
867.718	101.03
867.891	35.5
868.065	-5.46
868.238	76.46
868.412	86.7
868.585	31.4
868.759	82.6
868.932	60.07
869.105	12.97
869.279	25.26
869.452	25.26
869.625	23.21
869.799	98.99
869.972	10.92
870.145	17.07
870.319	72.36
870.492	70.31
870.665	-19.8
870.838	17.07
871.011	6.83
871.185	0.68
871.358	15.02
871.531	82.6
871.704	60.07
871.877	96.94
872.05	23.21
872.223	31.4
872.396	111.27
872.569	88.75
872.742	-13.65
872.915	-11.61
873.088	37.55
873.261	43.69
873.434	92.84
873.607	6.83
873.78	76.46
873.953	33.45
874.126	82.6
874.299	72.36
874.471	43.69
874.644	29.35
874.817	58.03
874.99	74.41
875.163	-23.89
875.335	23.21
875.508	10.92
875.681	150.18
875.853	2.73
876.026	84.65
876.199	78.51
876.371	2.73
876.544	-17.75
876.717	-3.41
876.889	-62.8
877.062	109.22
877.234	-3.41
877.407	39.59
877.579	43.69
877.752	37.55
877.924	8.87
878.097	2.73
878.269	66.22
878.442	92.84
878.614	64.17
878.786	49.83
878.959	76.46
879.131	-30.04
879.303	-17.75
879.476	-17.75
879.648	94.89
879.82	58.03
879.993	-5.46
880.165	23.21
880.337	35.5
880.509	-50.52
880.681	12.97
880.854	29.35
881.026	15.02
881.198	78.51
881.37	2.73
881.542	6.83
881.714	23.21
881.886	-54.61
882.058	35.5
882.23	109.22
882.402	45.74
882.574	84.65
882.746	101.03
882.918	131.75
883.09	76.46
883.262	60.07
883.434	4.78
883.606	8.87
883.778	43.69
883.95	78.51
884.122	68.27
884.293	49.83
884.465	-21.85
884.637	-13.65
884.809	6.83
884.98	74.41
885.152	90.79
885.324	-32.08
885.496	0.68
885.667	47.79
885.839	2.73
886.011	64.17
886.182	6.83
886.354	98.99
886.525	51.88
886.697	25.26
886.869	2.73
887.04	-42.32
887.212	82.6
887.383	43.69
887.555	8.87
887.726	8.87
887.897	-5.46
888.069	39.59
888.24	45.74
888.412	86.7
888.583	-7.51
888.754	-5.46
888.926	2.73
889.097	19.11
889.268	10.92
889.44	88.75
889.611	41.64
889.782	-62.8
889.953	41.64
890.125	37.55
890.296	-9.56
890.467	-32.08
890.638	-19.8
890.809	51.88
890.98	-32.08
891.151	60.07
891.323	35.5
891.494	84.65
891.665	-11.61
891.836	62.12
892.007	49.83
892.178	21.16
892.349	119.46
892.52	-32.08
892.691	-46.42
892.862	23.21
893.032	-25.94
893.203	-15.7
893.374	45.74
893.545	51.88
893.716	45.74
893.887	133.8
894.057	-17.75
894.228	84.65
894.399	-42.32
894.57	60.07
894.74	62.12
894.911	-40.28
895.082	68.27
895.253	60.07
895.423	33.45
895.594	58.03
895.764	70.31
895.935	-44.37
896.106	8.87
896.276	10.92
896.447	80.55
896.617	55.98
896.788	-46.42
896.958	33.45
897.129	-62.8
897.299	60.07
897.47	43.69
897.64	12.97
897.81	-87.38
897.981	51.88
898.151	55.98
898.322	-27.99
898.492	2.73
898.662	-1.37
898.832	19.11
899.003	4.78
899.173	12.97
899.343	-9.56
899.513	33.45
