Data from USB4F104151__29__10-21-51-596.txt Node

Date: Wed Mar 12 10:21:51 EDT 2025
User: louis
Spectrometer: USB4F10415
Trigger mode: 4
Integration Time (sec): 3.000000E-2
Scans to average: 1
Electric dark correction enabled: true
Nonlinearity correction enabled: false
Boxcar width: 0
XAxis mode: Wavelengths
Number of Pixels in Spectrum: 3648
>>>>>Begin Spectral Data<<<<<
178.204	-95.23
178.424	-95.23
178.644	-95.23
178.864	-177.15
179.084	-152.57
179.304	56.32
179.524	-56.32
179.744	-7.17
179.964	56.32
180.184	68.61
180.404	29.7
180.624	-60.42
180.844	37.89
181.064	-82.94
181.283	-44.03
181.503	15.36
181.723	-13.31
181.943	-31.74
182.163	97.28
182.383	29.7
182.602	121.85
182.822	64.51
183.042	54.27
183.262	-19.46
183.482	60.42
183.701	-19.46
183.921	56.32
184.141	-39.94
184.361	46.08
184.58	-25.6
184.8	48.13
185.02	37.89
185.239	52.22
185.459	31.74
185.679	21.5
185.898	31.74
186.118	31.74
186.338	84.99
186.557	29.7
186.777	15.36
186.997	25.6
187.216	-3.07
187.436	87.04
187.655	21.5
187.875	62.46
188.095	-3.07
188.314	21.5
188.534	-23.55
188.753	-5.12
188.973	27.65
189.192	35.84
189.412	46.08
189.631	-9.22
189.851	-1.02
190.07	-19.46
190.29	-29.7
190.509	5.12
190.729	33.79
190.948	82.94
191.168	195.58
191.387	103.42
191.607	-23.55
191.826	60.42
192.045	-5.12
192.265	35.84
192.484	64.51
192.704	-9.22
192.923	-33.79
193.142	41.98
193.362	19.46
193.581	-21.5
193.8	74.75
194.02	115.71
194.239	68.61
194.458	27.65
194.678	-25.6
194.897	13.31
195.116	5.12
195.335	60.42
195.555	80.89
195.774	35.84
195.993	62.46
196.212	13.31
196.432	87.04
196.651	54.27
196.87	39.94
197.089	113.66
197.308	78.85
197.528	62.46
197.747	23.55
197.966	37.89
198.185	39.94
198.404	39.94
198.623	84.99
198.842	25.6
199.062	23.55
199.281	93.18
199.5	23.55
199.719	56.32
199.938	27.65
200.157	128
200.376	76.8
200.595	121.85
200.814	19.46
201.033	130.05
201.252	44.03
201.471	7.17
201.69	-29.7
201.909	7.17
202.128	35.84
202.347	52.22
202.566	54.27
202.785	9.22
203.004	-5.12
203.223	54.27
203.442	70.65
203.661	1.02
203.879	-5.12
204.098	64.51
204.317	15.36
204.536	-9.22
204.755	-27.65
204.974	56.32
205.193	74.75
205.411	68.61
205.63	35.84
205.849	23.55
206.068	52.22
206.287	1.02
206.505	46.08
206.724	21.5
206.943	21.5
207.162	48.13
207.381	29.7
207.599	80.89
207.818	80.89
208.037	-33.79
208.255	1.02
208.474	46.08
208.693	-9.22
208.911	23.55
209.13	72.7
209.349	7.17
209.567	7.17
209.786	72.7
210.005	-48.13
210.223	39.94
210.442	19.46
210.661	56.32
210.879	41.98
211.098	39.94
211.316	72.7
211.535	56.32
211.753	44.03
211.972	-5.12
212.191	52.22
212.409	21.5
212.628	35.84
212.846	-52.22
213.065	33.79
213.283	37.89
213.502	7.17
213.72	58.37
213.938	48.13
214.157	11.26
214.375	35.84
214.594	-3.07
214.812	74.75
215.031	72.7
215.249	35.84
215.467	68.61
215.686	13.31
215.904	66.56
216.122	48.13
216.341	70.65
216.559	54.27
216.778	101.37
216.996	5.12
217.214	91.13
217.432	-13.31
217.651	68.61
217.869	29.7
218.087	50.18
218.306	-29.7
218.524	78.85
218.742	-9.22
218.96	39.94
219.179	29.7
219.397	46.08
219.615	23.55
219.833	27.65
220.051	46.08
220.27	105.47
220.488	-5.12
220.706	66.56
220.924	35.84
221.142	-41.98
221.36	15.36
221.578	76.8
221.796	25.6
222.015	60.42
222.233	-3.07
222.451	46.08
222.669	19.46
222.887	35.84
223.105	3.07
223.323	-7.17
223.541	-41.98
223.759	87.04
223.977	-17.41
224.195	64.51
224.413	31.74
224.631	78.85
224.849	31.74
225.067	101.37
225.285	19.46
225.503	-37.89
225.721	-17.41
225.939	27.65
226.157	33.79
226.375	46.08
226.592	-33.79
226.81	23.55
227.028	7.17
227.246	17.41
227.464	68.61
227.682	62.46
227.9	7.17
228.117	58.37
228.335	13.31
228.553	-19.46
228.771	60.42
228.989	62.46
229.206	-17.41
229.424	-11.26
229.642	15.36
229.86	5.12
230.077	46.08
230.295	-29.7
230.513	89.09
230.731	125.95
230.948	7.17
231.166	29.7
231.384	7.17
231.601	35.84
231.819	72.7
232.037	76.8
232.254	-21.5
232.472	11.26
232.689	29.7
232.907	15.36
233.125	78.85
233.342	-1.02
233.56	15.36
233.777	17.41
233.995	46.08
234.213	70.65
234.43	60.42
234.648	27.65
234.865	-15.36
235.083	80.89
235.3	44.03
235.518	68.61
235.735	39.94
235.953	93.18
236.17	3.07
236.388	11.26
236.605	48.13
236.822	89.09
237.04	64.51
237.257	48.13
237.475	17.41
237.692	70.65
237.909	33.79
238.127	35.84
238.344	-1.02
238.562	31.74
238.779	-1.02
238.996	39.94
239.214	27.65
239.431	84.99
239.648	35.84
239.865	-7.17
240.083	99.33
240.3	-56.32
240.517	-7.17
240.735	9.22
240.952	-7.17
241.169	76.8
241.386	-15.36
241.603	39.94
241.821	-13.31
242.038	52.22
242.255	68.61
242.472	-33.79
242.689	35.84
242.907	44.03
243.124	50.18
243.341	111.61
243.558	-52.22
243.775	23.55
243.992	-17.41
244.209	39.94
244.426	146.43
244.643	80.89
244.86	15.36
245.078	46.08
245.295	-17.41
245.512	54.27
245.729	5.12
245.946	44.03
246.163	72.7
246.38	31.74
246.597	39.94
246.814	3.07
247.031	-19.46
247.248	35.84
247.464	-15.36
247.681	-1.02
247.898	58.37
248.115	48.13
248.332	56.32
248.549	60.42
248.766	48.13
248.983	95.23
249.2	97.28
249.417	62.46
249.633	11.26
249.85	27.65
250.067	17.41
250.284	21.5
250.501	62.46
250.717	82.94
250.934	-1.02
251.151	1.02
251.368	29.7
251.585	-5.12
251.801	11.26
252.018	-13.31
252.235	9.22
252.451	74.75
252.668	35.84
252.885	13.31
253.102	5.12
253.318	-25.6
253.535	7.17
253.752	11.26
253.968	33.79
254.185	35.84
254.401	41.98
254.618	80.89
254.835	-1.02
255.051	54.27
255.268	52.22
255.484	99.33
255.701	-3.07
255.917	52.22
256.134	15.36
256.351	39.94
256.567	27.65
256.784	80.89
257	-7.17
257.217	66.56
257.433	-60.42
257.65	76.8
257.866	5.12
258.082	-52.22
258.299	15.36
258.515	-23.55
258.732	52.22
258.948	27.65
259.165	54.27
259.381	-31.74
259.597	-5.12
259.814	11.26
260.03	19.46
260.246	-3.07
260.463	76.8
260.679	168.96
260.895	-17.41
261.112	70.65
261.328	13.31
261.544	52.22
261.761	95.23
261.977	93.18
262.193	-7.17
262.409	27.65
262.626	50.18
262.842	9.22
263.058	35.84
263.274	148.48
263.49	15.36
263.707	101.37
263.923	19.46
264.139	-1.02
264.355	23.55
264.571	46.08
264.787	-17.41
265.004	144.38
265.22	-17.41
265.436	11.26
265.652	23.55
265.868	62.46
266.084	21.5
266.3	107.52
266.516	5.12
266.732	25.6
266.948	50.18
267.164	37.89
267.38	-15.36
267.596	54.27
267.812	103.42
268.028	13.31
268.244	31.74
268.46	27.65
268.676	72.7
268.892	25.6
269.108	-3.07
269.324	-3.07
269.54	46.08
269.756	113.66
269.972	76.8
270.188	17.41
270.403	-1.02
270.619	50.18
270.835	46.08
271.051	13.31
271.267	-27.65
271.483	76.8
271.698	-11.26
271.914	44.03
272.13	56.32
272.346	109.57
272.562	-37.89
272.777	33.79
272.993	-35.84
273.209	74.75
273.425	35.84
273.64	-3.07
273.856	70.65
274.072	-21.5
274.287	41.98
274.503	1.02
274.719	70.65
274.934	56.32
275.15	17.41
275.366	11.26
275.581	68.61
275.797	-3.07
276.012	87.04
276.228	99.33
276.444	7.17
276.659	72.7
276.875	31.74
277.09	-1.02
277.306	-41.98
277.521	1.02
277.737	68.61
277.952	3.07
278.168	-5.12
278.383	27.65
278.599	125.95
278.814	13.31
279.03	56.32
279.245	54.27
279.461	39.94
279.676	-3.07
279.892	1.02
280.107	-15.36
280.322	-9.22
280.538	39.94
280.753	39.94
280.969	29.7
281.184	21.5
281.399	64.51
281.615	56.32
281.83	15.36
282.045	-46.08
282.26	52.22
282.476	27.65
282.691	52.22
282.906	37.89
283.122	7.17
283.337	21.5
283.552	60.42
283.767	23.55
283.983	11.26
284.198	-3.07
284.413	11.26
284.628	64.51
284.843	72.7
285.058	46.08
285.274	64.51
285.489	54.27
285.704	27.65
285.919	15.36
286.134	17.41
286.349	11.26
286.564	29.7
286.779	50.18
286.995	-1.02
287.21	-19.46
287.425	58.37
287.64	-21.5
287.855	95.23
288.07	-9.22
288.285	78.85
288.5	66.56
288.715	56.32
288.93	37.89
289.145	21.5
289.36	37.89
289.575	-39.94
289.79	-21.5
290.004	19.46
290.219	54.27
290.434	7.17
290.649	11.26
290.864	56.32
291.079	33.79
291.294	117.76
291.509	95.23
291.724	48.13
291.938	13.31
292.153	48.13
292.368	15.36
292.583	44.03
292.798	72.7
293.012	-5.12
293.227	23.55
293.442	46.08
293.657	103.42
293.871	50.18
294.086	13.31
294.301	82.94
294.516	21.5
294.73	72.7
294.945	-1.02
295.16	60.42
295.374	80.89
295.589	35.84
295.804	27.65
296.018	78.85
296.233	60.42
296.447	33.79
296.662	64.51
296.877	119.81
297.091	80.89
297.306	91.13
297.52	-5.12
297.735	48.13
297.949	64.51
298.164	41.98
298.378	7.17
298.593	17.41
298.807	15.36
299.022	46.08
299.236	64.51
299.451	37.89
299.665	33.79
299.88	23.55
300.094	9.22
300.309	-27.65
300.523	-52.22
300.737	9.22
300.952	46.08
301.166	-37.89
301.381	1.02
301.595	60.42
301.809	48.13
302.024	52.22
302.238	37.89
302.452	146.43
302.667	-44.03
302.881	101.37
303.095	80.89
303.309	3.07
303.524	-7.17
303.738	80.89
303.952	50.18
304.166	50.18
304.381	11.26
304.595	13.31
304.809	72.7
305.023	60.42
305.237	72.7
305.452	1.02
305.666	-9.22
305.88	70.65
306.094	97.28
306.308	48.13
306.522	70.65
306.736	48.13
306.95	5.12
307.164	33.79
307.379	13.31
307.593	-46.08
307.807	87.04
308.021	91.13
308.235	7.17
308.449	-37.89
308.663	29.7
308.877	50.18
309.091	82.94
309.305	89.09
309.519	13.31
309.733	-9.22
309.947	-13.31
310.161	25.6
310.374	84.99
310.588	113.66
310.802	25.6
311.016	-33.79
311.23	19.46
311.444	-21.5
311.658	13.31
311.872	66.56
312.085	23.55
312.299	23.55
312.513	128
312.727	128
312.941	13.31
313.154	84.99
313.368	121.85
313.582	-7.17
313.796	3.07
314.009	125.95
314.223	115.71
314.437	-19.46
314.651	-1.02
314.864	23.55
315.078	80.89
315.292	31.74
315.505	11.26
315.719	15.36
315.933	41.98
316.146	50.18
316.36	58.37
316.573	78.85
316.787	31.74
317.001	35.84
317.214	66.56
317.428	97.28
317.641	-82.94
317.855	19.46
318.068	44.03
318.282	70.65
318.495	113.66
318.709	21.5
318.922	84.99
319.136	111.61
319.349	119.81
319.563	80.89
319.776	62.46
319.99	7.17
320.203	76.8
320.417	84.99
320.63	87.04
320.843	48.13
321.057	15.36
321.27	17.41
321.483	-7.17
321.697	37.89
321.91	48.13
322.124	97.28
322.337	9.22
322.55	23.55
322.763	50.18
322.977	17.41
323.19	46.08
323.403	89.09
323.617	68.61
323.83	39.94
324.043	15.36
324.256	105.47
324.469	87.04
324.683	21.5
324.896	111.61
325.109	17.41
325.322	23.55
325.535	101.37
325.748	156.67
325.962	-3.07
326.175	70.65
326.388	66.56
326.601	39.94
326.814	72.7
327.027	37.89
327.24	136.19
327.453	60.42
327.666	64.51
327.879	3.07
328.092	101.37
328.305	35.84
328.518	54.27
328.731	72.7
328.944	84.99
329.157	93.18
329.37	-9.22
329.583	95.23
329.796	39.94
330.009	-58.37
330.222	58.37
330.435	72.7
330.648	54.27
330.861	84.99
331.073	93.18
331.286	70.65
331.499	31.74
331.712	-33.79
331.925	5.12
332.138	52.22
332.35	130.05
332.563	31.74
332.776	60.42
332.989	-5.12
333.202	35.84
333.414	15.36
333.627	78.85
333.84	68.61
334.053	-17.41
334.265	56.32
334.478	13.31
334.691	52.22
334.903	39.94
335.116	39.94
335.329	19.46
335.541	44.03
335.754	60.42
335.966	15.36
336.179	136.19
336.392	39.94
336.604	35.84
336.817	99.33
337.029	68.61
337.242	46.08
337.454	33.79
337.667	-5.12
337.88	23.55
338.092	72.7
338.305	70.65
338.517	23.55
338.729	72.7
338.942	97.28
339.154	54.27
339.367	35.84
339.579	48.13
339.792	33.79
340.004	62.46
340.217	52.22
340.429	23.55
340.641	-1.02
340.854	17.41
341.066	7.17
341.278	82.94
341.491	148.48
341.703	103.42
341.915	-1.02
342.128	19.46
342.34	35.84
342.552	21.5
342.764	39.94
342.977	74.75
343.189	58.37
343.401	115.71
343.613	37.89
343.826	99.33
344.038	97.28
344.25	62.46
344.462	46.08
344.674	99.33
344.886	-1.02
345.099	7.17
345.311	15.36
345.523	87.04
345.735	33.79
345.947	-23.55
346.159	11.26
346.371	64.51
346.583	64.51
346.795	78.85
347.007	44.03
347.219	27.65
347.431	-62.46
347.643	62.46
347.855	74.75
348.067	121.85
348.279	56.32
348.491	97.28
348.703	54.27
348.915	-13.31
349.127	-58.37
349.339	50.18
349.551	39.94
349.763	136.19
349.975	-21.5
350.187	113.66
350.399	-11.26
350.61	68.61
350.822	74.75
351.034	64.51
351.246	37.89
351.458	50.18
351.669	97.28
351.881	72.7
352.093	54.27
352.305	119.81
352.517	95.23
352.728	66.56
352.94	-3.07
353.152	54.27
353.363	-15.36
353.575	68.61
353.787	27.65
353.999	54.27
354.21	144.38
354.422	-3.07
354.633	70.65
354.845	68.61
355.057	54.27
355.268	70.65
355.48	25.6
355.692	66.56
355.903	52.22
356.115	29.7
356.326	23.55
356.538	76.8
356.749	58.37
356.961	41.98
357.172	7.17
357.384	60.42
357.595	23.55
357.807	115.71
358.018	52.22
358.23	99.33
358.441	76.8
358.653	91.13
358.864	46.08
359.075	76.8
359.287	7.17
359.498	107.52
359.709	48.13
359.921	52.22
360.132	48.13
360.344	23.55
360.555	48.13
360.766	78.85
360.977	21.5
361.189	80.89
361.4	46.08
361.611	113.66
361.823	101.37
362.034	109.57
362.245	72.7
362.456	11.26
362.667	-54.27
362.879	78.85
363.09	37.89
363.301	23.55
363.512	56.32
363.723	-11.26
363.935	-33.79
364.146	103.42
364.357	29.7
364.568	46.08
364.779	7.17
364.99	31.74
365.201	21.5
365.412	132.09
365.623	-37.89
365.834	-17.41
366.045	48.13
366.256	117.76
366.467	-23.55
366.678	23.55
366.889	35.84
367.1	7.17
367.311	109.57
367.522	39.94
367.733	7.17
367.944	64.51
368.155	13.31
368.366	52.22
368.577	80.89
368.788	111.61
368.999	39.94
369.209	101.37
369.42	160.77
369.631	87.04
369.842	-1.02
370.053	46.08
370.264	58.37
370.474	19.46
370.685	-9.22
370.896	15.36
371.107	64.51
371.317	70.65
371.528	39.94
371.739	101.37
371.95	50.18
372.16	78.85
372.371	52.22
372.582	39.94
372.792	97.28
373.003	27.65
373.214	54.27
373.424	113.66
373.635	62.46
373.846	3.07
374.056	101.37
374.267	66.56
374.477	56.32
374.688	60.42
374.898	78.85
375.109	64.51
375.319	33.79
375.53	70.65
375.74	39.94
375.951	113.66
376.161	68.61
376.372	60.42
376.582	48.13
376.793	89.09
377.003	82.94
377.214	91.13
377.424	72.7
377.635	74.75
377.845	11.26
378.055	60.42
378.266	64.51
378.476	1.02
378.686	82.94
378.897	35.84
379.107	31.74
379.317	66.56
379.528	-27.65
379.738	119.81
379.948	-5.12
380.158	95.23
380.369	97.28
380.579	99.33
380.789	66.56
380.999	74.75
381.21	15.36
381.42	111.61
381.63	23.55
381.84	25.6
382.05	84.99
382.261	132.09
382.471	93.18
382.681	56.32
382.891	56.32
383.101	103.42
383.311	64.51
383.521	29.7
383.731	84.99
383.941	50.18
384.151	48.13
384.361	78.85
384.571	48.13
384.781	109.57
384.991	128
385.201	41.98
385.411	130.05
385.621	91.13
385.831	62.46
386.041	60.42
386.251	-19.46
386.461	162.81
386.671	35.84
386.881	103.42
387.091	66.56
387.301	9.22
387.511	70.65
387.72	119.81
387.93	130.05
388.14	60.42
388.35	111.61
388.56	50.18
388.769	54.27
388.979	105.47
389.189	58.37
389.399	58.37
389.609	107.52
389.818	56.32
390.028	72.7
390.238	128
390.447	29.7
390.657	148.48
390.867	54.27
391.076	105.47
391.286	56.32
391.496	52.22
391.705	5.12
391.915	89.09
392.125	185.34
392.334	39.94
392.544	78.85
392.753	80.89
392.963	111.61
393.172	76.8
393.382	80.89
393.591	72.7
393.801	89.09
394.01	156.67
394.22	117.76
394.429	66.56
394.639	107.52
394.848	111.61
395.058	80.89
395.267	117.76
395.477	70.65
395.686	211.96
395.895	142.33
396.105	160.77
396.314	37.89
396.524	146.43
396.733	33.79
396.942	99.33
397.152	103.42
397.361	93.18
397.57	64.51
397.78	115.71
397.989	46.08
398.198	189.44
398.407	72.7
398.617	134.14
398.826	74.75
399.035	93.18
399.244	111.61
399.453	78.85
399.663	60.42
399.872	70.65
400.081	134.14
400.29	97.28
400.499	121.85
400.708	123.9
400.917	93.18
401.127	101.37
401.336	97.28
401.545	171.01
401.754	113.66
401.963	175.1
402.172	109.57
402.381	144.38
402.59	84.99
402.799	179.2
403.008	125.95
403.217	158.72
403.426	56.32
403.635	123.9
403.844	195.58
404.053	214.01
404.262	101.37
404.471	238.59
404.68	168.96
404.888	148.48
405.097	166.91
405.306	154.62
405.515	109.57
405.724	228.35
405.933	218.11
406.142	205.82
406.35	152.57
406.559	211.96
406.768	179.2
406.977	183.29
407.185	146.43
407.394	164.86
407.603	173.05
407.812	177.15
408.02	308.22
408.229	263.16
408.438	279.55
408.646	203.77
408.855	279.55
409.064	238.59
409.272	336.89
409.481	297.98
409.69	328.7
409.898	267.26
410.107	265.21
410.315	371.71
410.524	400.38
410.733	455.67
410.941	318.46
411.15	338.94
411.358	418.81
411.567	429.05
411.775	414.71
411.984	453.63
412.192	429.05
412.401	383.99
412.609	535.54
412.818	541.69
413.026	494.58
413.234	558.07
413.443	476.15
413.651	515.06
413.86	500.73
414.068	617.46
414.276	685.05
414.485	654.33
414.693	680.95
414.901	664.57
415.11	625.65
415.318	693.24
415.526	693.24
415.734	726
415.943	734.2
416.151	871.41
416.359	920.56
416.567	893.94
416.776	871.41
416.984	1004.53
417.192	930.8
417.4	992.24
417.608	994.29
417.817	1086.45
418.025	1235.95
418.233	1209.33
418.441	1111.02
418.649	1115.12
418.857	1434.6
419.065	1215.47
419.273	1295.34
419.481	1371.12
419.689	1405.93
419.897	1422.31
420.105	1455.08
420.313	1534.95
420.521	1797.09
420.729	1743.85
420.937	1614.82
421.145	1778.66
421.353	1858.53
421.561	1919.97
421.769	2014.18
421.977	2122.72
422.185	2071.52
422.393	2239.45
422.601	2395.1
422.809	2231.26
423.017	2247.65
423.224	2393.05
423.432	2520.03
423.64	2526.17
423.848	2644.95
424.056	2661.34
424.263	2907.09
424.471	2880.47
424.679	2997.2
424.887	3163.09
425.094	3232.72
425.302	3177.42
425.51	3296.21
425.718	3478.47
425.925	3324.88
426.133	3666.89
426.341	3673.03
426.548	3988.42
426.756	3861.45
426.964	3910.6
427.171	4346.81
427.379	4197.31
427.586	4361.15
427.794	4606.91
428.001	4737.98
428.209	4780.98
428.417	4889.53
428.624	5235.63
428.832	5229.49
429.039	5104.56
429.247	5137.33
429.454	5680.04
429.662	6028.2
429.869	5823.4
430.076	6089.64
430.284	5733.29
430.491	6241.18
430.699	6458.27
430.906	6429.6
431.114	6683.55
431.321	6689.69
431.528	7035.8
431.736	7340.94
431.943	7580.56
432.15	7285.65
432.358	7842.7
432.565	8027.01
432.772	8084.36
432.979	8338.3
433.187	8539.01
433.394	8754.04
433.601	9229.17
433.808	9026.42
434.016	9104.25
434.223	9513.84
434.43	10070.89
434.637	9978.73
434.844	10402.66
435.052	10742.62
435.259	10441.57
435.466	10812.25
435.673	10617.69
435.88	11428.69
436.087	11963.21
436.294	12022.6
436.501	11772.75
436.708	11832.14
436.915	12118.86
437.122	12946.23
437.329	13005.63
437.537	13259.57
437.743	13445.94
437.95	13124.41
438.157	13828.91
438.364	14498.59
438.571	14582.56
438.778	14474.02
438.985	15604.5
439.192	15244.06
439.399	15516.44
439.606	15282.97
439.813	16259.85
440.02	17087.23
440.227	17031.93
440.433	16810.75
440.64	17064.7
440.847	17380.09
441.054	17584.88
441.261	18719.46
441.467	18594.53
441.674	18676.45
441.881	19221.21
442.088	19364.57
442.294	19335.9
442.501	19927.76
442.708	20243.15
442.914	21080.77
443.121	21779.12
443.328	21349.05
443.534	22780.58
443.741	22043.31
443.948	21846.71
444.154	23177.89
444.361	23319.2
444.568	23224.99
444.774	23419.55
444.981	23849.62
445.187	24314.51
445.394	25690.74
445.6	25135.74
445.807	27388.51
446.013	26129.01
446.22	26745.45
446.426	28078.68
446.633	27810.39
446.839	28766.79
447.046	27454.05
447.252	29203.01
447.459	29393.47
447.665	29053.51
447.871	30122.55
448.078	31597.09
448.284	30249.52
448.491	30951.98
448.697	32080.41
448.903	32702.99
449.11	32608.78
449.316	32031.26
449.522	32580.11
449.728	33421.83
449.935	33618.43
450.141	33303.04
450.347	34564.59
450.553	33294.85
450.76	33933.82
450.966	35011.05
451.172	34273.78
451.378	35103.21
451.584	34583.02
451.791	35242.47
451.997	34894.32
452.203	35672.54
452.409	35713.5
452.615	35197.41
452.821	34144.76
453.027	33665.53
453.233	35193.32
453.44	33808.89
453.646	34521.59
453.852	34697.71
454.058	34927.08
454.264	33866.24
454.47	34562.54
454.676	33872.38
454.882	34980.33
455.088	31914.52
455.294	32311.83
455.5	32952.84
455.705	32999.94
455.911	31529.5
456.117	31167.01
456.323	30523.95
456.529	29268.55
456.735	30177.84
456.941	29512.25
457.147	28942.92
457.352	28269.14
457.558	27664.99
457.764	27853.4
457.97	27157.09
458.176	26583.66
458.381	26905.19
458.587	25410.17
458.793	25473.66
458.999	24314.51
459.204	25739.9
459.41	24859.27
459.616	23474.84
459.821	23343.77
460.027	23425.69
460.233	22751.91
460.438	21983.92
460.644	21897.91
460.85	20814.53
461.055	20617.93
461.261	20443.85
461.466	19008.22
461.672	18479.85
461.878	19780.31
462.083	18379.5
462.289	18529
462.494	17836.78
462.7	17433.33
462.905	16859.9
463.111	17285.88
463.316	17253.11
463.522	17218.3
463.727	16915.2
463.932	16972.54
464.138	16868.09
464.343	16894.72
464.549	16483.08
464.754	16866.05
464.959	17017.6
465.165	16763.65
465.37	15885.07
465.575	15797.01
465.781	16309
465.986	16417.54
466.191	15633.17
466.397	15541.01
466.602	14752.54
466.807	15371.03
467.012	15358.74
467.218	15110.94
467.423	15239.96
467.628	15141.66
467.833	15686.42
468.038	15074.07
468.244	14660.38
468.449	15282.97
468.654	14879.52
468.859	14641.95
469.064	14656.29
469.269	14234.41
469.474	14224.17
469.679	14578.47
469.885	13818.67
470.09	14285.61
470.295	14168.87
470.5	13845.29
470.705	13900.59
470.91	13497.14
471.115	13509.43
471.32	13562.67
471.525	13507.38
471.73	13251.38
471.935	13118.26
472.139	12768.06
472.344	12960.57
472.549	12872.51
472.754	12698.43
472.959	12292.93
473.164	12077.9
473.369	12020.55
473.574	12366.66
473.778	12188.49
473.983	11871.05
474.188	11967.31
474.393	11608.91
474.598	11469.65
474.802	11498.32
475.007	11561.81
475.212	11314
475.417	11119.45
475.621	10957.66
475.826	11203.41
476.031	11084.63
476.235	10677.09
476.44	10996.57
476.645	10562.4
476.849	10654.56
477.054	10562.4
477.259	10204
477.463	10433.38
477.668	10158.95
477.872	10138.47
478.077	10031.97
478.282	9767.79
478.486	9692.01
478.691	9769.83
478.895	9712.49
479.1	9618.29
479.304	9515.89
479.509	9567.09
479.713	9581.42
479.918	9313.14
480.122	9098.1
480.326	9395.06
480.531	9214.84
480.735	9280.37
480.94	9036.66
481.144	9491.31
481.348	8962.94
481.553	9235.32
481.757	9022.33
481.961	9108.34
482.166	9137.01
482.37	9137.01
482.574	8854.39
482.778	9132.92
482.983	9145.2
483.187	8985.46
483.391	9040.76
483.595	8854.39
483.8	8924.02
484.004	9124.72
484.208	9223.03
484.412	8835.96
484.616	8995.7
484.821	9120.63
485.025	8825.72
485.229	9124.72
485.433	8844.15
485.637	8690.56
485.841	9096.05
486.045	8872.82
486.249	8897.4
486.453	8760.19
486.657	8921.98
486.861	8973.18
487.065	8551.29
487.269	8930.17
487.473	8762.23
487.677	9059.19
487.881	9102.2
488.085	8903.54
488.289	8958.84
488.493	8895.35
488.697	9028.47
488.901	9026.42
489.105	8997.75
489.309	8852.34
489.512	9106.29
489.716	9253.75
489.92	9139.06
490.124	9012.09
490.328	9247.6
490.531	9182.07
490.735	9243.51
490.939	9280.37
491.143	9341.81
491.346	9137.01
491.55	9278.32
491.754	9423.73
491.958	9364.34
492.161	9415.54
492.365	9390.96
492.569	9495.41
492.772	9403.25
492.976	9524.08
493.18	9606
493.383	9636.72
493.587	9812.84
493.79	9925.48
493.994	9831.27
494.197	9999.21
494.401	10087.27
494.605	9929.58
494.808	10183.52
495.012	10244.96
495.215	10457.95
495.419	10488.67
495.622	10404.71
495.825	10320.74
496.029	10326.88
496.232	10484.58
496.436	10693.47
496.639	10785.63
496.843	10824.54
497.046	11086.68
497.249	11287.38
497.453	11289.43
497.656	11451.22
497.859	11551.57
498.063	11436.88
498.266	11815.76
498.469	11838.28
498.673	11848.52
498.876	11930.44
499.079	12094.28
499.282	12260.16
499.485	12473.15
499.689	12444.48
499.892	12643.14
500.095	12665.66
500.298	13130.55
500.501	12782.4
500.705	13376.31
500.908	13349.68
501.111	13714.22
501.314	13669.17
501.517	13736.75
501.72	13722.41
501.923	14144.3
502.126	14326.57
502.329	14676.77
502.532	14789.41
502.735	14398.24
502.938	15182.62
503.141	14992.16
503.344	15338.26
503.547	15262.49
503.75	15543.06
503.953	15661.84
504.156	15942.41
504.359	16079.63
504.562	15932.17
504.765	16573.19
504.968	16587.52
505.17	16620.29
505.373	16550.66
505.576	17220.35
505.779	17173.24
505.982	17433.33
506.185	17656.56
506.387	18010.86
506.59	18010.86
506.793	18236.14
506.996	18180.84
507.198	18698.98
507.401	18621.16
507.604	19059.42
507.807	19260.12
508.009	19423.96
508.212	19505.88
508.415	19522.26
508.617	19958.48
508.82	19981.01
509.022	19892.94
509.225	20513.48
509.428	20845.25
509.63	20775.62
509.833	21054.14
510.035	21531.32
510.238	21031.62
510.44	21582.52
510.643	22012.59
510.845	22264.49
511.048	22061.74
511.25	22293.16
511.453	22657.7
511.655	23442.07
511.858	23327.39
512.06	23317.15
512.262	23483.03
512.465	23532.18
512.667	24136.34
512.87	24275.6
513.072	24603.27
513.274	24734.34
513.477	25115.26
513.679	25326.21
513.881	25275.01
514.084	25606.78
514.286	25746.04
514.488	25653.88
514.69	26632.81
514.893	26694.25
515.095	26993.25
515.297	26987.11
515.499	27290.21
515.701	27748.95
515.904	27904.6
516.106	28277.33
516.308	28539.47
516.51	28566.09
516.712	28738.12
516.914	28828.23
517.116	29596.22
517.318	29727.29
517.52	29708.86
517.722	29639.23
517.925	30368.3
518.127	30704.17
518.329	30880.3
518.531	30470.7
518.733	31621.66
518.935	31777.31
519.136	32135.7
519.338	32137.75
519.54	32346.64
519.742	32639.5
519.944	32739.85
520.146	33622.53
520.348	33522.18
520.55	33624.57
520.752	33767.93
520.954	34734.57
521.155	34238.97
521.357	34843.12
521.559	35107.3
521.761	35439.08
521.963	35539.43
522.164	35736.03
522.366	35865.05
522.568	36215.26
522.77	36524.5
522.971	36725.2
523.173	36626.9
523.375	36944.33
523.576	37495.24
523.778	37298.63
523.98	37814.72
524.181	38150.59
524.383	37999.04
524.584	38662.58
524.786	38664.63
524.988	38445.49
525.189	39215.53
525.391	39168.43
525.592	39229.87
525.794	39917.98
525.995	39496.1
526.197	39502.25
526.398	40083.87
526.6	40370.58
526.801	40419.74
527.003	40604.05
527.204	40567.19
527.406	40919.44
527.607	40743.31
527.808	41494.92
528.01	40964.49
528.211	41603.46
528.412	41769.35
528.614	41920.9
528.815	41953.66
529.016	41619.84
529.218	41816.45
529.419	41865.6
529.62	42318.2
529.822	42258.81
530.023	42330.49
530.224	42852.72
530.425	42178.94
530.626	42609.01
530.828	42199.42
531.029	43280.75
531.23	42568.05
531.431	42748.28
531.632	42813.81
531.833	42996.08
532.035	43151.73
532.236	42832.24
532.437	43499.88
532.638	42901.87
532.839	43438.44
533.04	43252.08
533.241	42426.74
533.442	44040.54
533.643	43645.29
533.844	43200.88
534.045	43305.32
534.246	43217.26
534.447	43704.68
534.648	43651.43
534.849	43428.2
535.05	43485.54
535.251	43864.42
535.451	43233.64
535.652	43571.56
535.853	43893.09
536.054	44071.26
536.255	43782.5
536.456	43522.41
536.657	44208.48
536.857	43854.18
537.058	43835.75
537.259	44089.7
537.46	43999.58
537.66	43295.08
537.861	43958.63
538.062	44314.97
538.263	44022.11
538.463	43805.03
538.664	43747.68
538.865	44347.74
539.065	44521.82
539.266	43712.87
539.466	44618.07
539.667	43231.6
539.868	44224.86
540.068	44089.7
540.269	43651.43
540.469	43661.67
540.67	43659.62
540.87	43725.16
541.071	43821.41
541.271	43680.1
541.472	43813.22
541.672	43430.25
541.873	43745.64
542.073	43377
542.274	44083.55
542.474	43843.94
542.675	43524.46
542.875	44253.53
543.075	44101.98
543.276	43585.89
543.476	43950.43
543.676	43747.68
543.877	43528.55
544.077	43977.06
544.277	44142.94
544.478	43622.76
544.678	43737.44
544.878	43870.56
545.078	44015.97
545.279	44128.61
545.479	44018.02
545.679	43589.99
545.879	43868.51
546.079	43856.23
546.28	43790.69
546.48	43288.94
546.68	44018.02
546.88	43979.1
547.08	44130.65
547.28	43866.47
547.48	43467.11
547.68	43729.25
547.88	43522.41
548.081	44083.55
548.281	43864.42
548.481	43753.83
548.681	43637.09
548.881	43643.24
549.081	43481.45
549.28	43512.17
549.48	44493.15
549.68	43426.15
549.88	44087.65
550.08	43491.69
550.28	43796.84
550.48	43401.58
550.68	43854.18
550.88	43379.05
551.08	43354.47
551.279	43886.95
551.479	43270.51
551.679	43663.72
551.879	43467.11
552.079	44024.16
552.278	43534.7
552.478	43596.13
552.678	43981.15
552.878	43413.87
553.077	43319.66
553.277	43196.78
553.477	43886.95
553.676	43499.88
553.876	43442.54
554.076	43358.57
554.275	43530.6
554.475	42785.14
554.674	43391.34
554.874	43196.78
555.074	43317.61
555.273	43606.37
555.473	43346.28
555.672	42862.96
555.872	43053.42
556.071	43432.3
556.271	43438.44
556.47	43164.01
556.67	42359.16
556.869	43125.1
557.068	42512.76
557.268	42881.39
557.467	42989.94
557.667	42281.34
557.866	42467.7
558.065	42252.67
558.265	42492.28
558.464	42158.46
558.663	43209.07
558.863	42070.4
559.062	42766.71
559.261	42074.49
559.461	42688.88
559.66	41808.26
559.859	42008.96
560.058	41767.3
560.258	42133.89
560.457	41367.94
560.656	42033.53
560.855	41554.31
561.054	41834.88
561.253	41691.52
561.453	41523.59
561.652	41808.26
561.851	42209.66
562.05	41419.14
562.249	41441.67
562.448	41851.27
562.647	41531.78
562.846	41419.14
563.045	41288.07
563.244	41068.94
563.443	41273.74
563.642	40602
563.841	41333.13
564.04	40688.02
564.239	41083.28
564.438	40700.31
564.637	40792.47
564.836	40880.53
565.035	40028.57
565.234	40632.72
565.432	40079.77
565.631	40098.2
565.83	40243.61
566.029	40018.33
566.228	39670.18
566.427	40108.44
566.625	39571.88
566.824	39342.5
567.023	39674.27
567.222	38865.33
567.42	40053.15
567.619	39549.35
567.818	39365.03
568.016	39313.83
568.215	39555.49
568.414	39172.52
568.612	39442.85
568.811	39078.32
569.01	39055.79
569.208	38734.26
569.407	39104.94
569.605	38138.3
569.804	38814.13
570.002	38027.71
570.201	38715.83
570.4	38085.05
570.598	37898.69
570.797	37716.42
570.995	37992.89
571.193	37626.31
571.392	37958.08
571.59	37278.15
571.789	37544.39
571.987	37319.11
572.186	37659.07
572.384	37327.3
572.582	37376.45
572.781	37444.04
572.979	36694.48
573.177	37110.22
573.376	37145.03
573.574	36700.62
573.772	36667.86
573.971	36448.72
574.169	36379.09
574.367	35922.4
574.565	36434.39
574.763	35959.26
574.962	36125.14
575.16	35707.36
575.358	36086.23
575.556	35574.24
575.754	36209.11
575.952	35394.02
576.151	36094.43
576.349	35412.45
576.547	35217.89
576.745	35308.01
576.943	35043.82
577.141	35041.77
577.339	35097.06
577.537	34703.85
577.735	35207.65
577.933	34886.12
578.131	35037.67
578.329	34712.05
578.527	34310.64
578.725	34302.45
578.923	34363.89
579.121	34206.2
579.319	34050.55
579.516	34259.45
579.714	33997.31
579.912	34271.73
580.11	33602.05
580.308	33679.87
580.506	33763.84
580.704	33317.38
580.901	33671.68
581.099	33931.77
581.297	33427.97
581.495	33266.18
581.692	33350.15
581.89	32965.13
582.088	33294.85
582.285	32592.4
582.483	33141.25
582.681	32664.08
582.878	32629.26
583.076	32205.33
583.274	32576.01
583.471	32164.37
583.669	32467.47
583.866	32127.51
584.064	32117.27
584.262	31711.77
584.459	32326.16
584.657	31816.22
584.854	32059.93
585.052	31562.27
585.249	32059.93
585.447	31773.21
585.644	31349.28
585.841	31330.85
586.039	31674.91
586.236	31334.95
586.434	31130.15
586.631	31236.64
586.828	30980.65
587.026	31132.2
587.223	30886.44
587.42	30845.48
587.618	30865.96
587.815	30526
588.012	30317.11
588.21	30368.3
588.407	30366.26
588.604	30612.01
588.801	29971
588.999	30128.69
589.196	29960.76
589.393	29923.9
589.59	30014.01
589.787	29749.82
589.984	29844.02
590.182	29350.46
590.379	29866.55
590.576	29043.27
590.773	29313.6
590.97	29276.74
591.167	29624.89
591.364	28836.42
591.561	29037.12
591.758	28861
591.955	28600.91
592.152	28848.71
592.349	28824.14
592.546	28574.28
592.743	28371.54
592.94	27802.2
593.137	28291.66
593.334	28254.8
593.531	27851.35
593.727	27871.83
593.924	28269.14
594.121	27701.85
594.318	28076.63
594.515	27411.04
594.712	27918.93
594.908	27447.9
595.105	27927.13
595.302	27165.28
595.499	27271.78
595.696	27177.57
595.892	27230.82
596.089	27316.83
596.286	27202.14
596.482	26894.95
596.679	26819.17
596.876	26880.61
597.072	26641
597.269	26387.05
597.466	26385.01
597.662	26548.84
597.859	26102.39
598.055	26720.87
598.252	25961.08
598.448	26040.95
598.645	26075.76
598.841	25825.91
599.038	25823.86
599.234	25854.58
599.431	25383.55
599.627	25686.65
599.824	25522.81
600.02	25442.94
600.217	25383.55
600.413	25483.9
600.609	25016.96
600.806	25068.16
601.002	25440.89
601.198	24840.84
601.395	25035.39
601.591	24900.23
601.787	24855.17
601.984	24593.03
602.18	24945.28
602.376	24326.8
602.572	24386.19
602.769	24306.32
602.965	24291.98
603.161	24590.98
603.357	24269.45
603.553	24208.01
603.75	24115.86
603.946	23958.16
604.142	24248.97
604.338	23364.25
604.534	23790.23
604.73	23427.74
604.926	23663.25
605.122	23648.92
605.318	23292.57
605.514	23560.86
605.71	23296.67
605.906	23483.03
606.102	23093.92
606.298	23110.3
606.494	23087.78
606.69	22977.19
606.886	23323.29
607.082	22725.29
607.278	22819.49
607.474	22538.92
607.67	22938.27
607.866	22461.1
608.062	22860.45
608.257	22686.37
608.453	22405.8
608.649	22479.53
608.845	22143.66
609.041	22475.43
609.236	22424.23
609.432	22366.89
609.628	22387.37
609.824	21938.87
610.019	22041.26
610.215	21955.25
610.411	21957.3
610.606	21818.04
610.802	22209.2
610.998	21969.58
611.193	22026.93
611.389	21963.44
611.584	21680.82
611.78	21729.97
611.976	21748.4
612.171	21772.98
612.367	21248.7
612.562	21275.32
612.758	21220.03
612.953	20945.6
613.149	21285.56
613.344	21078.72
613.539	21553.85
613.735	21471.93
613.93	21314.23
614.126	21400.25
614.321	21236.41
614.517	20943.55
614.712	20951.74
614.907	20988.61
615.103	21154.49
615.298	20980.42
615.493	21134.01
615.688	20523.72
615.884	20861.63
616.079	20255.43
616.274	20638.41
616.47	20398.79
616.665	20595.4
616.86	20441.8
617.055	20206.28
617.25	20353.74
617.445	20550.34
617.641	20271.82
617.836	20185.8
618.031	20142.8
618.226	20294.35
618.421	19874.51
618.616	20300.49
618.811	19876.56
619.006	20427.46
619.201	19419.86
619.396	19989.2
619.591	19227.35
619.786	19555.03
619.981	19217.11
620.176	19682
620.371	19069.66
620.566	19440.34
620.761	19213.02
620.956	19165.92
621.151	19096.28
621.346	19014.37
621.541	18641.64
621.735	18856.67
621.93	18369.26
622.125	18606.82
622.32	18551.52
622.515	18514.66
622.709	18227.95
622.904	18432.74
623.099	17771.25
623.294	18133.74
623.488	17726.19
623.683	17992.43
623.878	17558.26
624.072	17615.6
624.267	17693.43
624.462	17328.89
624.656	17115.9
624.851	17214.2
625.046	17224.44
625.24	17271.54
625.435	16833.28
625.629	16802.56
625.824	16691.97
626.018	16753.41
626.213	16407.3
626.407	16513.8
626.602	16245.51
626.796	16282.38
626.991	16241.42
627.185	16317.19
627.38	15928.08
627.574	16067.34
627.768	15797.01
627.963	15534.87
628.157	15510.29
628.352	15618.83
628.546	15465.24
628.74	15627.03
628.935	15315.73
629.129	15479.57
629.323	15080.22
629.517	15266.58
629.712	14922.52
629.906	14848.8
630.1	14670.62
630.294	14828.32
630.489	14539.55
630.683	14537.51
630.877	14523.17
631.071	14527.27
631.265	14426.92
631.459	14191.4
631.653	14394.15
631.848	14172.97
632.042	14054.19
632.236	14240.55
632.43	14029.61
632.624	13984.55
632.818	13769.52
633.012	13603.63
633.206	13527.86
633.4	13615.92
633.594	13486.9
633.788	13505.33
633.982	13304.63
634.176	13335.35
634.369	13214.52
634.563	12882.75
634.757	13038.39
634.951	12860.22
635.145	12927.8
635.339	12880.7
635.533	12735.29
635.726	12718.91
635.92	12618.56
636.114	12751.68
636.308	12372.8
636.501	12319.56
636.695	12352.32
636.889	12190.53
637.083	12208.97
637.276	12223.3
637.47	12159.81
637.664	11952.97
637.857	12061.51
638.051	11918.15
638.244	11770.7
638.438	11787.08
638.632	11811.66
638.825	11488.08
639.019	11615.05
639.212	11428.69
639.406	11649.87
639.599	11344.72
639.793	11375.44
639.986	11156.31
640.18	11459.41
640.373	11340.63
640.567	10898.27
640.76	10992.47
640.954	10816.35
641.147	10933.08
641.34	10863.45
641.534	10859.35
641.727	10746.72
641.92	10586.97
642.114	10814.3
642.307	10484.58
642.5	10523.49
642.694	10249.06
642.887	10261.35
643.08	10539.87
643.273	10029.93
643.467	10134.37
643.66	10193.76
643.853	9999.21
644.046	9886.57
644.239	10013.54
644.432	9857.9
644.626	9804.65
644.819	9827.18
645.012	9851.75
645.205	9712.49
645.398	9861.99
645.591	9622.38
645.784	9640.81
645.977	9481.07
646.17	9284.47
646.363	9360.24
646.556	9282.42
646.749	9333.62
646.942	9524.08
647.135	9139.06
647.328	9069.43
647.521	9059.19
647.714	9175.92
647.907	8995.7
648.099	8846.2
648.292	8878.97
648.485	8868.73
648.678	8817.53
648.871	8772.47
649.064	8745.85
649.256	8680.32
649.449	8502.14
649.642	8434.56
649.835	8539.01
650.027	8477.57
650.22	8600.44
650.413	8233.86
650.605	8321.92
650.798	8428.42
650.991	8096.64
651.183	8231.81
651.376	8289.15
651.568	8133.51
651.761	8057.73
651.954	8080.26
652.146	8072.07
652.339	7895.94
652.531	7693.19
652.724	7891.85
652.916	7646.09
653.109	7840.65
653.301	7916.42
653.494	7789.45
653.686	7543.69
653.879	7670.67
654.071	7668.62
654.263	7572.36
654.456	7576.46
654.648	7488.4
654.84	7453.58
655.033	7424.91
655.225	7345.04
655.417	7265.17
655.61	7435.15
655.802	7410.57
655.994	7191.44
656.186	7187.35
656.379	7154.58
656.571	7148.43
656.763	7056.28
656.955	7048.08
657.148	7039.89
657.34	7087
657.532	7033.75
657.724	6806.42
657.916	6898.58
658.108	6853.53
658.3	6798.23
658.492	6921.11
658.684	6710.17
658.876	6744.99
659.068	6706.07
659.26	6661.02
659.452	6523.8
659.644	6521.76
659.836	6554.52
660.028	6405.02
660.22	6409.12
660.412	6439.84
660.604	6335.39
660.796	6366.11
660.988	6271.9
661.18	6308.77
661.372	6310.82
661.563	6304.67
661.755	6187.94
661.947	6157.22
662.139	6044.58
662.331	6075.3
662.522	6171.55
662.714	6024.1
662.906	5979.04
663.097	6017.96
663.289	5960.61
663.481	6038.44
663.673	5860.26
663.864	5876.65
664.056	5749.67
664.247	5825.45
664.439	5727.14
664.631	5788.58
664.822	5723.05
665.014	5698.47
665.205	5764.01
665.397	5637.03
665.588	5575.59
665.78	5606.31
665.971	5725.1
666.163	5546.92
666.354	5567.4
666.546	5462.96
666.737	5512.11
666.929	5559.21
667.12	5520.3
667.311	5434.29
667.503	5299.12
667.694	5477.29
667.885	5368.75
668.077	5436.33
668.268	5180.34
668.459	5352.37
668.651	5198.77
668.842	5221.3
669.033	5307.31
669.224	5209.01
669.416	5260.21
669.607	5186.48
669.798	5077.94
669.989	5157.81
670.18	5133.23
670.371	5225.39
670.563	5022.64
670.754	5002.16
670.945	5018.55
671.136	5077.94
671.327	4989.88
671.518	4953.01
671.709	5137.33
671.9	5004.21
672.091	4998.07
672.282	5069.75
672.473	4746.17
672.664	5020.6
672.855	4869.05
673.046	4799.41
673.237	4885.43
673.428	4826.04
673.619	4944.82
673.809	4879.29
674	4842.42
674.191	4803.51
674.382	4830.13
674.573	4783.03
674.764	4756.41
674.954	4838.33
675.145	4686.78
675.336	4666.3
675.527	4619.19
675.717	4729.78
675.908	4694.97
676.099	4742.07
676.289	4713.4
676.48	4615.1
676.671	4727.74
676.861	4559.8
677.052	4651.96
677.243	4611
677.433	4623.29
677.624	4803.51
677.814	4412.35
678.005	4490.17
678.195	4754.36
678.386	4594.62
678.576	4385.73
678.767	4455.36
678.957	4426.68
679.148	4627.39
679.338	4547.51
679.529	4602.81
679.719	4545.47
679.909	4561.85
680.1	4469.69
680.29	4512.7
680.481	4414.4
680.671	4500.41
680.861	4451.26
681.052	4537.27
681.242	4344.77
681.432	4586.43
681.622	4379.58
681.813	4436.92
682.003	4408.25
682.193	4367.29
682.383	4527.03
682.573	4514.75
682.764	4395.96
682.954	4383.68
683.144	4346.81
683.334	4398.01
683.524	4326.33
683.714	4414.4
683.904	4361.15
684.094	4477.88
684.284	4412.35
684.474	4338.62
684.664	4551.61
684.854	4432.83
685.044	4168.64
685.234	4273.09
685.424	4340.67
685.614	4189.12
685.804	4266.94
685.994	4176.83
686.184	4133.82
686.374	4193.22
686.564	4111.3
686.753	4332.48
686.943	4211.65
687.133	4109.25
687.323	4144.06
687.513	4164.54
687.702	4092.87
687.892	4002.75
688.082	4113.35
688.272	4111.3
688.461	3990.47
688.651	4004.8
688.841	4053.95
689.03	4051.91
689.22	3947.46
689.41	4103.11
689.599	3861.45
689.789	4127.68
689.979	3857.35
690.168	3912.64
690.358	4004.8
690.547	3843.01
690.737	3951.56
690.926	3892.16
691.116	3804.1
691.305	3861.45
691.495	3808.2
691.684	3687.37
691.874	3832.77
692.063	3767.24
692.252	3879.88
692.442	3781.57
692.631	3662.79
692.82	3646.41
693.01	3720.14
693.199	3701.7
693.388	3517.39
693.578	3627.98
693.767	3716.04
693.956	3681.22
694.146	3636.17
694.335	3599.31
694.524	3625.93
694.713	3630.02
694.902	3623.88
695.092	3537.87
695.281	3494.86
695.47	3552.2
695.659	3460.04
695.848	3451.85
696.037	3593.16
696.226	3646.41
696.415	3474.38
696.604	3494.86
696.793	3447.76
696.982	3425.23
697.171	3531.72
697.36	3490.76
697.549	3480.52
697.738	3562.44
697.927	3455.95
698.116	3574.73
698.305	3447.76
698.494	3361.74
698.683	3529.67
698.872	3431.37
699.061	3374.03
699.25	3449.8
699.438	3333.07
699.627	3421.13
699.816	3478.47
700.005	3462.09
700.193	3402.7
700.382	3306.45
700.571	3486.67
700.76	3433.42
700.948	3296.21
701.137	3478.47
701.326	3374.03
701.514	3414.99
701.703	3419.08
701.892	3365.84
702.08	3447.76
702.269	3349.45
702.457	3331.02
702.646	3369.93
702.834	3304.4
703.023	3476.43
703.212	3414.99
703.4	3328.97
703.589	3316.69
703.777	3324.88
703.965	3382.22
704.154	3324.88
704.342	3242.96
704.531	3251.15
704.719	3251.15
704.907	3482.57
705.096	3230.67
705.284	3199.95
705.472	3419.08
705.661	3322.83
705.849	3281.87
706.037	3298.25
706.226	3390.41
706.414	3382.22
706.602	3367.88
706.79	3302.35
706.979	3249.1
707.167	3273.68
707.355	3357.64
707.543	3326.93
707.731	3437.52
707.919	3337.17
708.107	3267.53
708.296	3234.77
708.484	3425.23
708.672	3404.75
708.86	3263.44
709.048	3191.76
709.236	3378.12
709.424	3359.69
709.612	3378.12
709.8	3347.4
709.988	3232.72
710.176	3427.28
710.364	3310.54
710.551	3392.46
710.739	3316.69
710.927	3267.53
711.115	3275.73
711.303	3367.88
711.491	3173.33
711.679	3290.06
711.866	3257.29
712.054	3386.32
712.242	3380.17
712.43	3324.88
712.617	3302.35
712.805	3400.65
712.993	3410.89
713.181	3236.81
713.368	3431.37
713.556	3333.07
713.744	3333.07
713.931	3341.26
714.119	3296.21
714.306	3242.96
714.494	3363.79
714.682	3333.07
714.869	3347.4
715.057	3349.45
715.244	3226.57
715.432	3191.76
715.619	3285.97
715.807	3310.54
715.994	3294.16
716.182	3156.94
716.369	3357.64
716.556	3429.32
716.744	3357.64
716.931	3314.64
717.119	3363.79
717.306	3265.49
717.493	3335.12
717.681	3261.39
717.868	3308.49
718.055	3396.56
718.242	3353.55
718.43	3328.97
718.617	3460.04
718.804	3259.34
718.991	3412.94
719.179	3369.93
719.366	3218.38
719.553	3296.21
719.74	3378.12
719.927	3300.3
720.114	3302.35
720.301	3312.59
720.488	3357.64
720.676	3316.69
720.863	3361.74
721.05	3357.64
721.237	3259.34
721.424	3218.38
721.611	3312.59
721.798	3355.6
721.985	3296.21
722.172	3406.8
722.358	3345.36
722.545	3316.69
722.732	3269.58
722.919	3314.64
723.106	3236.81
723.293	3335.12
723.48	3296.21
723.667	3242.96
723.853	3267.53
724.04	3427.28
724.227	3339.21
724.414	3328.97
724.6	3300.3
724.787	3195.86
724.974	3216.33
725.161	3353.55
725.347	3232.72
725.534	3441.61
725.72	3165.14
725.907	3296.21
726.094	3281.87
726.28	3163.09
726.467	3255.25
726.653	3144.66
726.84	3353.55
727.027	3185.62
727.213	3214.29
727.4	3384.27
727.586	3240.91
727.773	3154.9
727.959	3138.51
728.145	3234.77
728.332	3245.01
728.518	3075.03
728.705	3181.52
728.891	3275.73
729.077	3263.44
729.264	3202
729.45	3173.33
729.636	3251.15
729.823	3165.14
730.009	3322.83
730.195	3197.9
730.382	3238.86
730.568	3173.33
730.754	3267.53
730.94	3169.23
731.126	3251.15
731.313	3058.64
731.499	3195.86
731.685	3257.29
731.871	3193.81
732.057	3294.16
732.243	3177.42
732.429	3111.89
732.615	3228.62
732.801	3132.37
732.987	3058.64
733.173	3152.85
733.359	3275.73
733.545	3101.65
733.731	3046.35
733.917	3115.98
734.103	3173.33
734.289	3029.97
734.475	3099.6
734.661	3017.68
734.847	3038.16
735.033	3109.84
735.219	3124.18
735.404	3019.73
735.59	3023.83
735.776	3072.98
735.962	3136.46
736.148	3120.08
736.333	3046.35
736.519	3105.74
736.705	3005.39
736.89	2982.87
737.076	3052.5
737.262	2976.72
737.447	3015.63
737.633	3005.39
737.819	3109.84
738.004	2999.25
738.19	3027.92
738.375	2986.96
738.561	3142.61
738.747	3075.03
738.932	3005.39
739.118	2968.53
739.303	2870.23
739.489	2931.67
739.674	2896.85
739.859	3156.94
740.045	2923.48
740.23	2833.36
740.416	2872.28
740.601	2841.56
740.786	2927.57
740.972	2870.23
741.157	2814.93
741.342	2816.98
741.528	2925.52
741.713	2859.99
741.898	2941.91
742.084	2759.64
742.269	2669.53
742.454	2780.12
742.639	2710.49
742.824	2841.56
743.01	2778.07
743.195	2753.49
743.38	2739.16
743.565	2800.6
743.75	2728.92
743.935	2737.11
744.12	2730.97
744.305	2626.52
744.49	2728.92
744.675	2618.33
744.86	2681.82
745.045	2628.57
745.23	2624.47
745.415	2587.61
745.6	2634.71
745.785	2534.36
745.97	2522.07
746.155	2538.46
746.34	2667.48
746.525	2497.5
746.71	2450.39
746.895	2405.34
747.079	2339.8
747.264	2446.3
747.449	2440.15
747.634	2456.54
747.819	2460.63
748.003	2327.52
748.188	2378.72
748.373	2421.72
748.557	2296.8
748.742	2354.14
748.927	2309.08
749.111	2276.32
749.296	2335.71
749.481	2208.73
749.665	2186.21
749.85	2167.77
750.034	2175.97
750.219	2180.06
750.404	2292.7
750.588	2065.38
750.773	2124.77
750.957	2124.77
751.141	2165.73
751.326	2204.64
751.51	1969.12
751.695	2042.85
751.879	2145.25
752.064	2026.47
752.248	2151.39
752.432	2040.8
752.617	1981.41
752.801	2030.56
752.985	1985.51
753.17	1913.83
753.354	1936.35
753.538	1874.92
753.722	1942.5
753.907	1903.59
754.091	1934.31
754.275	1897.44
754.459	1840.1
754.643	1854.44
754.828	1858.53
755.012	1817.57
755.196	1760.23
755.38	1788.9
755.564	1737.7
755.748	1778.66
755.932	1711.08
756.116	1758.18
756.3	1717.22
756.484	1702.89
756.668	1655.78
756.852	1580.01
757.036	1672.17
757.22	1729.51
757.404	1688.55
757.588	1600.49
757.772	1661.93
757.956	1713.13
758.14	1674.21
758.323	1657.83
758.507	1692.65
758.691	1618.92
758.875	1602.54
759.059	1717.22
759.242	1606.63
759.426	1498.09
759.61	1541.1
759.794	1467.37
759.977	1493.99
760.161	1635.3
760.345	1569.77
760.528	1516.52
760.712	1530.86
760.895	1504.23
761.079	1371.12
761.263	1424.36
761.446	1403.88
761.63	1389.55
761.813	1465.32
761.997	1367.02
762.18	1440.75
762.364	1293.29
762.547	1379.31
762.731	1436.65
762.914	1375.21
763.098	1432.55
763.281	1334.25
763.464	1397.74
763.648	1340.4
763.831	1324.01
764.015	1356.78
764.198	1373.16
764.381	1420.27
764.564	1305.58
764.748	1254.38
764.931	1375.21
765.114	1260.52
765.297	1262.57
765.481	1213.42
765.664	1313.77
765.847	1340.4
766.03	1227.76
766.213	1348.59
766.397	1264.62
766.58	1258.48
766.763	1317.87
766.946	1252.33
767.129	1129.45
767.312	1235.95
767.495	1221.61
767.678	1223.66
767.861	1217.52
768.044	1145.84
768.227	1129.45
768.41	1160.17
768.593	1178.61
768.776	1211.37
768.959	1170.41
769.142	1199.09
769.324	1154.03
769.507	1178.61
769.69	1149.93
769.873	1178.61
770.056	1213.42
770.239	1090.54
770.421	1090.54
770.604	1158.13
770.787	1068.02
770.97	1027.06
771.152	1037.3
771.335	1119.21
771.518	1018.86
771.7	1035.25
771.883	1065.97
772.066	1037.3
772.248	1027.06
772.431	1090.54
772.613	1039.34
772.796	1027.06
772.978	957.43
773.161	1076.21
773.343	953.33
773.526	1027.06
773.708	961.52
773.891	924.66
774.073	922.61
774.256	1031.15
774.438	1002.48
774.621	1037.3
774.803	961.52
774.985	932.85
775.168	973.81
775.35	906.23
775.532	832.5
775.715	990.19
775.897	918.51
776.079	881.65
776.261	928.75
776.444	947.19
776.626	861.17
776.808	793.59
776.99	875.51
777.173	859.12
777.355	807.92
777.537	842.74
777.719	863.22
777.901	945.14
778.083	777.2
778.265	744.44
778.447	785.4
778.629	850.93
778.811	816.12
778.993	799.73
779.175	793.59
779.357	732.15
779.539	760.82
779.721	758.77
779.903	766.96
780.085	746.48
780.267	742.39
780.449	687.09
780.631	738.29
780.812	723.96
780.994	711.67
781.176	629.75
781.358	752.63
781.54	723.96
781.721	713.72
781.903	599.03
782.085	676.85
782.267	713.72
782.448	637.94
782.63	639.99
782.812	642.04
782.993	646.13
783.175	580.6
783.357	656.37
783.538	547.83
783.72	531.45
783.901	605.17
784.083	629.75
784.264	547.83
784.446	576.5
784.627	609.27
784.809	609.27
784.99	586.74
785.172	662.52
785.353	547.83
785.535	689.14
785.716	578.55
785.897	506.87
786.079	588.79
786.26	521.21
786.441	533.5
786.623	560.12
786.804	592.89
786.985	572.41
787.167	543.74
787.348	537.59
787.529	480.25
787.71	553.98
787.891	492.54
788.073	490.49
788.254	537.59
788.435	486.39
788.616	418.81
788.797	490.49
788.978	513.02
789.159	539.64
789.34	488.44
789.522	429.05
789.703	478.2
789.884	443.39
790.065	537.59
790.246	531.45
790.427	474.1
790.607	551.93
790.788	523.26
790.969	431.1
791.15	424.95
791.331	351.23
791.512	416.76
791.693	474.1
791.874	437.24
792.054	521.21
792.235	445.43
792.416	496.63
792.597	388.09
792.778	392.19
792.958	465.91
793.139	451.58
793.32	478.2
793.5	347.13
793.681	488.44
793.862	396.28
794.042	361.47
794.223	427
794.404	408.57
794.584	375.8
794.765	427
794.945	474.1
795.126	400.38
795.306	357.37
795.487	316.41
795.667	355.32
795.848	347.13
796.028	340.99
796.209	365.56
796.389	381.95
796.57	377.85
796.75	347.13
796.93	343.03
797.111	381.95
797.291	386.04
797.471	404.47
797.652	330.75
797.832	316.41
798.012	365.56
798.192	318.46
798.373	302.08
798.553	261.12
798.733	328.7
798.913	283.64
799.093	248.83
799.274	273.4
799.454	386.04
799.634	281.6
799.814	277.5
799.994	283.64
800.174	300.03
800.354	349.18
800.534	338.94
800.714	322.56
800.894	265.21
801.074	302.08
801.254	263.16
801.434	312.32
801.614	340.99
801.794	310.27
801.974	801.78
802.154	254.97
802.334	259.07
802.514	297.98
802.693	259.07
802.873	248.83
803.053	277.5
803.233	322.56
803.413	312.32
803.592	252.92
803.772	332.79
803.952	324.6
804.131	310.27
804.311	250.88
804.491	291.84
804.67	220.16
804.85	177.15
805.03	314.36
805.209	297.98
805.389	250.88
805.568	267.26
805.748	244.73
805.928	250.88
806.107	330.75
806.287	240.64
806.466	289.79
806.646	226.3
806.825	203.77
807.004	273.4
807.184	310.27
807.363	252.92
807.543	281.6
807.722	250.88
807.901	250.88
808.081	273.4
808.26	207.87
808.439	181.25
808.619	209.92
808.798	154.62
808.977	238.59
809.156	228.35
809.336	224.25
809.515	334.84
809.694	142.33
809.873	224.25
810.052	244.73
810.231	230.4
810.411	171.01
810.59	238.59
810.769	148.48
810.948	257.02
811.127	111.61
811.306	187.39
811.485	232.44
811.664	259.07
811.843	230.4
812.022	216.06
812.201	197.63
812.38	250.88
812.559	193.53
812.737	158.72
812.916	87.04
813.095	138.24
813.274	195.58
813.453	193.53
813.632	228.35
813.811	154.62
813.989	185.34
814.168	238.59
814.347	201.72
814.526	183.29
814.704	261.12
814.883	205.82
815.062	158.72
815.24	252.92
815.419	179.2
815.598	211.96
815.776	154.62
815.955	146.43
816.133	209.92
816.312	117.76
816.49	259.07
816.669	226.3
816.847	166.91
817.026	138.24
817.204	183.29
817.383	107.52
817.561	150.53
817.74	179.2
817.918	179.2
818.097	152.57
818.275	101.37
818.453	152.57
818.632	185.34
818.81	162.81
818.988	209.92
819.167	142.33
819.345	195.58
819.523	97.28
819.701	214.01
819.879	138.24
820.058	101.37
820.236	130.05
820.414	146.43
820.592	197.63
820.77	156.67
820.948	185.34
821.127	95.23
821.305	130.05
821.483	154.62
821.661	183.29
821.839	187.39
822.017	199.68
822.195	201.72
822.373	218.11
822.551	156.67
822.729	179.2
822.907	130.05
823.085	166.91
823.262	105.47
823.44	115.71
823.618	128
823.796	152.57
823.974	132.09
824.152	201.72
824.329	166.91
824.507	78.85
824.685	185.34
824.863	146.43
825.04	105.47
825.218	183.29
825.396	136.19
825.574	191.49
825.751	109.57
825.929	130.05
826.107	173.05
826.284	148.48
826.462	160.77
826.639	130.05
826.817	48.13
826.994	142.33
827.172	80.89
827.349	185.34
827.527	125.95
827.704	150.53
827.882	128
828.059	84.99
828.237	87.04
828.414	203.77
828.591	21.5
828.769	134.14
828.946	48.13
829.124	152.57
829.301	111.61
829.478	113.66
829.655	201.72
829.833	152.57
830.01	37.89
830.187	173.05
830.364	48.13
830.542	68.61
830.719	134.14
830.896	82.94
831.073	60.42
831.25	105.47
831.427	87.04
831.604	138.24
831.782	70.65
831.959	103.42
832.136	44.03
832.313	158.72
832.49	119.81
832.667	142.33
832.844	76.8
833.021	111.61
833.198	89.09
833.374	175.1
833.551	95.23
833.728	62.46
833.905	111.61
834.082	78.85
834.259	125.95
834.436	160.77
834.612	68.61
834.789	140.29
834.966	72.7
835.143	99.33
835.319	97.28
835.496	82.94
835.673	97.28
835.85	142.33
836.026	58.37
836.203	142.33
836.38	117.76
836.556	113.66
836.733	21.5
836.909	117.76
837.086	111.61
837.262	64.51
837.439	84.99
837.616	140.29
837.792	115.71
837.968	52.22
838.145	70.65
838.321	62.46
838.498	191.49
838.674	35.84
838.851	97.28
839.027	128
839.203	31.74
839.38	66.56
839.556	9.22
839.732	121.85
839.909	37.89
840.085	138.24
840.261	87.04
840.437	13.31
840.614	99.33
840.79	68.61
840.966	80.89
841.142	121.85
841.318	101.37
841.494	103.42
841.671	84.99
841.847	68.61
842.023	70.65
842.199	140.29
842.375	125.95
842.551	33.79
842.727	62.46
842.903	130.05
843.079	89.09
843.255	105.47
843.431	31.74
843.607	171.01
843.783	29.7
843.959	103.42
844.134	48.13
844.31	107.52
844.486	107.52
844.662	52.22
844.838	113.66
845.013	87.04
845.189	48.13
845.365	111.61
845.541	64.51
845.716	84.99
845.892	89.09
846.068	48.13
846.244	68.61
846.419	78.85
846.595	44.03
846.77	25.6
846.946	37.89
847.122	93.18
847.297	39.94
847.473	138.24
847.648	78.85
847.824	39.94
847.999	-25.6
848.175	60.42
848.35	105.47
848.526	101.37
848.701	82.94
848.876	66.56
849.052	121.85
849.227	107.52
849.403	58.37
849.578	70.65
849.753	58.37
849.929	89.09
850.104	-33.79
850.279	70.65
850.454	103.42
850.63	15.36
850.805	11.26
850.98	72.7
851.155	58.37
851.33	115.71
851.505	31.74
851.681	146.43
851.856	19.46
852.031	62.46
852.206	80.89
852.381	48.13
852.556	15.36
852.731	101.37
852.906	97.28
853.081	66.56
853.256	95.23
853.431	87.04
853.606	-21.5
853.781	37.89
853.956	48.13
854.131	144.38
854.305	-19.46
854.48	82.94
854.655	54.27
854.83	-7.17
855.005	54.27
855.18	95.23
855.354	23.55
855.529	23.55
855.704	101.37
855.879	-1.02
856.053	48.13
856.228	64.51
856.403	70.65
856.577	54.27
856.752	3.07
856.926	89.09
857.101	19.46
857.276	48.13
857.45	35.84
857.625	41.98
857.799	62.46
857.974	-5.12
858.148	58.37
858.323	72.7
858.497	44.03
858.672	50.18
858.846	35.84
859.02	-5.12
859.195	19.46
859.369	66.56
859.543	27.65
859.718	-5.12
859.892	48.13
860.066	87.04
860.241	33.79
860.415	60.42
860.589	3.07
860.763	23.55
860.938	-7.17
861.112	72.7
861.286	52.22
861.46	-37.89
861.634	-7.17
861.808	80.89
861.982	7.17
862.157	113.66
862.331	15.36
862.505	5.12
862.679	15.36
862.853	84.99
863.027	15.36
863.201	84.99
863.375	19.46
863.549	23.55
863.722	31.74
863.896	68.61
864.07	-1.02
864.244	31.74
864.418	66.56
864.592	-1.02
864.766	-33.79
864.939	-5.12
865.113	64.51
865.287	60.42
865.461	-7.17
865.634	-21.5
865.808	5.12
865.982	31.74
866.156	23.55
866.329	-7.17
866.503	-31.74
866.676	44.03
866.85	37.89
867.024	-17.41
867.197	39.94
867.371	111.61
867.544	-35.84
867.718	5.12
867.891	93.18
868.065	48.13
868.238	48.13
868.412	41.98
868.585	64.51
868.759	50.18
868.932	19.46
869.105	-113.66
869.279	-21.5
869.452	54.27
869.625	-9.22
869.799	52.22
869.972	-25.6
870.145	21.5
870.319	-37.89
870.492	-13.31
870.665	52.22
870.838	25.6
871.011	-37.89
871.185	23.55
871.358	29.7
871.531	13.31
871.704	-46.08
871.877	39.94
872.05	-1.02
872.223	44.03
872.396	84.99
872.569	-35.84
872.742	-70.65
872.915	9.22
873.088	13.31
873.261	21.5
873.434	52.22
873.607	89.09
873.78	46.08
873.953	5.12
874.126	39.94
874.299	-1.02
874.471	52.22
874.644	-15.36
874.817	60.42
874.99	101.37
875.163	27.65
875.335	35.84
875.508	1.02
875.681	19.46
875.853	1.02
876.026	23.55
876.199	66.56
876.371	70.65
876.544	3.07
876.717	15.36
876.889	-66.56
877.062	33.79
877.234	-27.65
877.407	-56.32
877.579	13.31
877.752	23.55
877.924	15.36
878.097	78.85
878.269	-19.46
878.442	29.7
878.614	93.18
878.786	54.27
878.959	37.89
879.131	95.23
879.303	-80.89
879.476	11.26
879.648	23.55
879.82	56.32
879.993	52.22
880.165	52.22
880.337	19.46
880.509	-27.65
880.681	-23.55
880.854	-39.94
881.026	19.46
881.198	37.89
881.37	-48.13
881.542	48.13
881.714	-84.99
881.886	19.46
882.058	35.84
882.23	-11.26
882.402	50.18
882.574	19.46
882.746	74.75
882.918	-17.41
883.09	-17.41
883.262	21.5
883.434	13.31
883.606	-19.46
883.778	17.41
883.95	39.94
884.122	13.31
884.293	37.89
884.465	19.46
884.637	44.03
884.809	19.46
884.98	84.99
885.152	46.08
885.324	-13.31
885.496	66.56
885.667	21.5
885.839	29.7
886.011	46.08
886.182	17.41
886.354	7.17
886.525	48.13
886.697	13.31
886.869	25.6
887.04	56.32
887.212	11.26
887.383	80.89
887.555	-13.31
887.726	-54.27
887.897	-29.7
888.069	66.56
888.24	-37.89
888.412	27.65
888.583	-9.22
888.754	64.51
888.926	60.42
889.097	-41.98
889.268	29.7
889.44	-3.07
889.611	5.12
889.782	33.79
889.953	-13.31
890.125	93.18
890.296	62.46
890.467	7.17
890.638	-11.26
890.809	19.46
890.98	11.26
891.151	31.74
891.323	-41.98
891.494	-19.46
891.665	31.74
891.836	-48.13
892.007	62.46
892.178	68.61
892.349	21.5
892.52	-17.41
892.691	-27.65
892.862	21.5
893.032	23.55
893.203	-35.84
893.374	-46.08
893.545	1.02
893.716	44.03
893.887	62.46
894.057	-15.36
894.228	27.65
894.399	68.61
894.57	35.84
894.74	-58.37
894.911	56.32
895.082	56.32
895.253	-3.07
895.423	76.8
895.594	11.26
895.764	33.79
895.935	-9.22
896.106	19.46
896.276	-3.07
896.447	54.27
896.617	-21.5
896.788	5.12
896.958	9.22
897.129	-33.79
897.299	-25.6
897.47	93.18
897.64	21.5
897.81	-1.02
897.981	25.6
898.151	11.26
898.322	21.5
898.492	-68.61
898.662	33.79
898.832	25.6
899.003	103.42
899.173	23.55
899.343	13.31
899.513	23.55
