Data from USB4F104151__41__10-22-40-491.txt Node

Date: Wed Mar 12 10:22:40 EDT 2025
User: louis
Spectrometer: USB4F10415
Trigger mode: 4
Integration Time (sec): 3.000000E-2
Scans to average: 1
Electric dark correction enabled: true
Nonlinearity correction enabled: false
Boxcar width: 0
XAxis mode: Wavelengths
Number of Pixels in Spectrum: 3648
>>>>>Begin Spectral Data<<<<<
178.204	-184.15
178.424	-184.15
178.644	-184.15
178.864	-112.47
179.084	-149.33
179.304	20.65
179.524	-16.21
179.744	4.27
179.964	28.84
180.184	6.31
180.404	41.13
180.624	20.65
180.844	-8.02
181.064	-48.98
181.283	-8.02
181.503	14.51
181.723	-55.12
181.943	-53.08
182.163	43.18
182.383	12.46
182.602	6.31
182.822	69.8
183.042	2.22
183.262	-57.17
183.482	61.61
183.701	-55.12
183.921	51.37
184.141	-3.93
184.361	55.47
184.58	30.89
184.8	-30.55
185.02	8.36
185.239	98.47
185.459	-36.69
185.679	22.7
185.898	-32.6
186.118	84.14
186.338	22.7
186.557	118.95
186.777	45.23
186.997	-32.6
187.216	10.41
187.436	53.42
187.655	24.75
187.875	20.65
188.095	8.36
188.314	-20.31
188.534	24.75
188.753	116.9
188.973	12.46
189.192	14.51
189.412	-20.31
189.631	-10.07
189.851	20.65
190.07	73.9
190.29	41.13
190.509	8.36
190.729	34.99
190.948	-32.6
191.168	94.38
191.387	57.51
191.607	-51.03
191.826	57.51
192.045	32.94
192.265	-26.45
192.484	8.36
192.704	59.56
192.923	28.84
193.142	67.75
193.362	73.9
193.581	-57.17
193.8	92.33
194.02	14.51
194.239	2.22
194.458	-24.4
194.678	-22.36
194.897	80.04
195.116	-28.5
195.335	71.85
195.555	-32.6
195.774	32.94
195.993	47.27
196.212	32.94
196.432	-42.84
196.651	16.55
196.87	37.03
197.089	86.19
197.308	67.75
197.528	-5.97
197.747	-12.12
197.966	16.55
198.185	41.13
198.404	-34.64
198.623	34.99
198.842	86.19
199.062	28.84
199.281	24.75
199.5	-28.5
199.719	20.65
199.938	94.38
200.157	-16.21
200.376	43.18
200.595	121
200.814	-24.4
201.033	-12.12
201.252	22.7
201.471	4.27
201.69	39.08
201.909	18.6
202.128	14.51
202.347	110.76
202.566	-55.12
202.785	43.18
203.004	-34.64
203.223	28.84
203.442	73.9
203.661	-69.46
203.879	-3.93
204.098	26.79
204.317	-20.31
204.536	41.13
204.755	10.41
204.974	135.34
205.193	-3.93
205.411	98.47
205.63	-8.02
205.849	10.41
206.068	-8.02
206.287	-51.03
206.505	92.33
206.724	14.51
206.943	41.13
207.162	41.13
207.381	-53.08
207.599	77.99
207.818	20.65
208.037	20.65
208.255	4.27
208.474	55.47
208.693	-26.45
208.911	12.46
209.13	57.51
209.349	45.23
209.567	67.75
209.786	32.94
210.005	-12.12
210.223	2.22
210.442	-44.88
210.661	-44.88
210.879	-5.97
211.098	-24.4
211.316	32.94
211.535	18.6
211.753	-40.79
211.972	4.27
212.191	6.31
212.409	20.65
212.628	28.84
212.846	39.08
213.065	37.03
213.283	-16.21
213.502	-46.93
213.72	61.61
213.938	-20.31
214.157	-63.32
214.375	-30.55
214.594	41.13
214.812	4.27
215.031	-46.93
215.249	49.32
215.467	39.08
215.686	28.84
215.904	82.09
216.122	-3.93
216.341	77.99
216.559	34.99
216.778	18.6
216.996	10.41
217.214	-18.26
217.432	0.17
217.651	28.84
217.869	20.65
218.087	51.37
218.306	-8.02
218.524	116.9
218.742	-20.31
218.96	-20.31
219.179	-14.17
219.397	37.03
219.615	145.58
219.833	84.14
220.051	16.55
220.27	84.14
220.488	53.42
220.706	45.23
220.924	26.79
221.142	-12.12
221.36	10.41
221.578	6.31
221.796	108.71
222.015	-10.07
222.233	12.46
222.451	77.99
222.669	28.84
222.887	32.94
223.105	-48.98
223.323	16.55
223.541	-48.98
223.759	96.43
223.977	26.79
224.195	82.09
224.413	90.28
224.631	-16.21
224.849	-28.5
225.067	90.28
225.285	-3.93
225.503	28.84
225.721	-38.74
225.939	-24.4
226.157	30.89
226.375	94.38
226.592	24.75
226.81	71.85
227.028	47.27
227.246	10.41
227.464	37.03
227.682	73.9
227.9	-24.4
228.117	67.75
228.335	77.99
228.553	2.22
228.771	51.37
228.989	39.08
229.206	86.19
229.424	43.18
229.642	-30.55
229.86	57.51
230.077	45.23
230.295	10.41
230.513	32.94
230.731	86.19
230.948	-8.02
231.166	28.84
231.384	34.99
231.601	20.65
231.819	84.14
232.037	4.27
232.254	8.36
232.472	4.27
232.689	-36.69
232.907	61.61
233.125	45.23
233.342	-46.93
233.56	75.95
233.777	26.79
233.995	49.32
234.213	34.99
234.43	12.46
234.648	24.75
234.865	28.84
235.083	63.66
235.3	90.28
235.518	18.6
235.735	67.75
235.953	59.56
236.17	90.28
236.388	18.6
236.605	2.22
236.822	59.56
237.04	-10.07
237.257	77.99
237.475	-20.31
237.692	53.42
237.909	2.22
238.127	45.23
238.344	77.99
238.562	51.37
238.779	-69.46
238.996	12.46
239.214	-18.26
239.431	47.27
239.648	20.65
239.865	-20.31
240.083	18.6
240.3	32.94
240.517	41.13
240.735	86.19
240.952	26.79
241.169	30.89
241.386	-30.55
241.603	30.89
241.821	86.19
242.038	67.75
242.255	53.42
242.472	-38.74
242.689	4.27
242.907	55.47
243.124	-8.02
243.341	63.66
243.558	-40.79
243.775	63.66
243.992	16.55
244.209	69.8
244.426	-44.88
244.643	-14.17
244.86	18.6
245.078	75.95
245.295	24.75
245.512	41.13
245.729	-8.02
245.946	43.18
246.163	-16.21
246.38	43.18
246.597	-18.26
246.814	20.65
247.031	57.51
247.248	53.42
247.464	37.03
247.681	37.03
247.898	-28.5
248.115	45.23
248.332	-14.17
248.549	8.36
248.766	86.19
248.983	116.9
249.2	-8.02
249.417	77.99
249.633	94.38
249.85	-14.17
250.067	-1.88
250.284	34.99
250.501	12.46
250.717	32.94
250.934	20.65
251.151	12.46
251.368	37.03
251.585	73.9
251.801	-28.5
252.018	-12.12
252.235	-28.5
252.451	-36.69
252.668	-20.31
252.885	43.18
253.102	63.66
253.318	-18.26
253.535	14.51
253.752	8.36
253.968	43.18
254.185	41.13
254.401	4.27
254.618	65.71
254.835	-24.4
255.051	57.51
255.268	-10.07
255.484	51.37
255.701	16.55
255.917	16.55
256.134	-22.36
256.351	10.41
256.567	4.27
256.784	-20.31
257	-10.07
257.217	49.32
257.433	14.51
257.65	22.7
257.866	65.71
258.082	24.75
258.299	-8.02
258.515	53.42
258.732	6.31
258.948	-32.6
259.165	-12.12
259.381	10.41
259.597	32.94
259.814	67.75
260.03	-5.97
260.246	-3.93
260.463	-22.36
260.679	20.65
260.895	57.51
261.112	114.86
261.328	30.89
261.544	-40.79
261.761	67.75
261.977	-26.45
262.193	10.41
262.409	69.8
262.626	28.84
262.842	104.62
263.058	-32.6
263.274	30.89
263.49	67.75
263.707	20.65
263.923	30.89
264.139	-30.55
264.355	-14.17
264.571	63.66
264.787	12.46
265.004	88.23
265.22	-5.97
265.436	28.84
265.652	37.03
265.868	-10.07
266.084	-59.22
266.3	12.46
266.516	-12.12
266.732	53.42
266.948	14.51
267.164	45.23
267.38	114.86
267.596	2.22
267.812	51.37
268.028	53.42
268.244	26.79
268.46	0.17
268.676	6.31
268.892	0.17
269.108	-14.17
269.324	14.51
269.54	-40.79
269.756	49.32
269.972	16.55
270.188	53.42
270.403	90.28
270.619	45.23
270.835	147.62
271.051	84.14
271.267	-46.93
271.483	45.23
271.698	-20.31
271.914	-10.07
272.13	-34.64
272.346	18.6
272.562	59.56
272.777	22.7
272.993	-1.88
273.209	39.08
273.425	43.18
273.64	-36.69
273.856	71.85
274.072	20.65
274.287	8.36
274.503	92.33
274.719	32.94
274.934	47.27
275.15	-24.4
275.366	32.94
275.581	2.22
275.797	28.84
276.012	-1.88
276.228	2.22
276.444	10.41
276.659	110.76
276.875	-30.55
277.09	20.65
277.306	12.46
277.521	-8.02
277.737	-51.03
277.952	104.62
278.168	77.99
278.383	-53.08
278.599	30.89
278.814	30.89
279.03	8.36
279.245	88.23
279.461	71.85
279.676	67.75
279.892	41.13
280.107	-32.6
280.322	53.42
280.538	24.75
280.753	12.46
280.969	-3.93
281.184	20.65
281.399	28.84
281.615	26.79
281.83	18.6
282.045	37.03
282.26	-55.12
282.476	-12.12
282.691	61.61
282.906	82.09
283.122	65.71
283.337	2.22
283.552	12.46
283.767	-10.07
283.983	59.56
284.198	0.17
284.413	-18.26
284.628	-30.55
284.843	41.13
285.058	24.75
285.274	-24.4
285.489	86.19
285.704	39.08
285.919	41.13
286.134	10.41
286.349	-40.79
286.564	-10.07
286.779	-28.5
286.995	14.51
287.21	18.6
287.425	82.09
287.64	-22.36
287.855	24.75
288.07	-8.02
288.285	59.56
288.5	10.41
288.715	4.27
288.93	4.27
289.145	69.8
289.36	37.03
289.575	34.99
289.79	4.27
290.004	34.99
290.219	4.27
290.434	94.38
290.649	55.47
290.864	26.79
291.079	30.89
291.294	10.41
291.509	4.27
291.724	10.41
291.938	20.65
292.153	-8.02
292.368	28.84
292.583	0.17
292.798	108.71
293.012	20.65
293.227	20.65
293.442	6.31
293.657	-30.55
293.871	77.99
294.086	-12.12
294.301	94.38
294.516	98.47
294.73	96.43
294.945	63.66
295.16	61.61
295.374	59.56
295.589	53.42
295.804	26.79
296.018	86.19
296.233	77.99
296.447	75.95
296.662	-42.84
296.877	131.24
297.091	45.23
297.306	59.56
297.52	-32.6
297.735	55.47
297.949	8.36
298.164	69.8
298.378	59.56
298.593	4.27
298.807	-89.94
299.022	108.71
299.236	30.89
299.451	26.79
299.665	-14.17
299.88	2.22
300.094	73.9
300.309	-5.97
300.523	2.22
300.737	12.46
300.952	49.32
301.166	55.47
301.381	28.84
301.595	49.32
301.809	37.03
302.024	26.79
302.238	84.14
302.452	104.62
302.667	8.36
302.881	106.67
303.095	32.94
303.309	45.23
303.524	-46.93
303.738	82.09
303.952	43.18
304.166	98.47
304.381	-57.17
304.595	43.18
304.809	73.9
305.023	77.99
305.237	-65.36
305.452	4.27
305.666	-16.21
305.88	28.84
306.094	-22.36
306.308	-28.5
306.522	0.17
306.736	57.51
306.95	69.8
307.164	18.6
307.379	49.32
307.593	77.99
307.807	75.95
308.021	53.42
308.235	6.31
308.449	34.99
308.663	86.19
308.877	86.19
309.091	63.66
309.305	77.99
309.519	28.84
309.733	102.57
309.947	24.75
310.161	73.9
310.374	16.55
310.588	116.9
310.802	59.56
311.016	86.19
311.23	14.51
311.444	-20.31
311.658	-34.64
311.872	67.75
312.085	69.8
312.299	77.99
312.513	20.65
312.727	39.08
312.941	45.23
313.154	84.14
313.368	12.46
313.582	121
313.796	55.47
314.009	28.84
314.223	90.28
314.437	51.37
314.651	18.6
314.864	-55.12
315.078	-38.74
315.292	24.75
315.505	-12.12
315.719	43.18
315.933	12.46
316.146	123.05
316.36	-8.02
316.573	116.9
316.787	34.99
317.001	127.14
317.214	0.17
317.428	77.99
317.641	20.65
317.855	16.55
318.068	12.46
318.282	65.71
318.495	28.84
318.709	24.75
318.922	20.65
319.136	37.03
319.349	86.19
319.563	55.47
319.776	135.34
319.99	37.03
320.203	88.23
320.417	-8.02
320.63	-28.5
320.843	53.42
321.057	41.13
321.27	-20.31
321.483	118.95
321.697	57.51
321.91	80.04
322.124	8.36
322.337	53.42
322.55	-14.17
322.763	6.31
322.977	69.8
323.19	10.41
323.403	65.71
323.617	61.61
323.83	28.84
324.043	63.66
324.256	43.18
324.469	39.08
324.683	18.6
324.896	20.65
325.109	2.22
325.322	-18.26
325.535	57.51
325.748	-1.88
325.962	39.08
326.175	12.46
326.388	98.47
326.601	24.75
326.814	65.71
327.027	32.94
327.24	90.28
327.453	-14.17
327.666	-1.88
327.879	20.65
328.092	12.46
328.305	86.19
328.518	20.65
328.731	90.28
328.944	24.75
329.157	84.14
329.37	-5.97
329.583	-12.12
329.796	96.43
330.009	-18.26
330.222	57.51
330.435	41.13
330.648	12.46
330.861	24.75
331.073	73.9
331.286	135.34
331.499	8.36
331.712	8.36
331.925	127.14
332.138	0.17
332.35	77.99
332.563	18.6
332.776	73.9
332.989	32.94
333.202	104.62
333.414	86.19
333.627	51.37
333.84	2.22
334.053	0.17
334.265	-3.93
334.478	-36.69
334.691	127.14
334.903	116.9
335.116	53.42
335.329	-10.07
335.541	-61.27
335.754	53.42
335.966	6.31
336.179	45.23
336.392	49.32
336.604	6.31
336.817	47.27
337.029	-5.97
337.242	28.84
337.454	57.51
337.667	43.18
337.88	4.27
338.092	14.51
338.305	28.84
338.517	43.18
338.729	94.38
338.942	55.47
339.154	2.22
339.367	-8.02
339.579	73.9
339.792	43.18
340.004	133.29
340.217	4.27
340.429	51.37
340.641	53.42
340.854	24.75
341.066	-3.93
341.278	94.38
341.491	26.79
341.703	63.66
341.915	-55.12
342.128	10.41
342.34	20.65
342.552	-18.26
342.764	45.23
342.977	-5.97
343.189	32.94
343.401	39.08
343.613	30.89
343.826	18.6
344.038	94.38
344.25	47.27
344.462	2.22
344.674	20.65
344.886	47.27
345.099	133.29
345.311	73.9
345.523	147.62
345.735	-5.97
345.947	90.28
346.159	-73.56
346.371	43.18
346.583	65.71
346.795	61.61
347.007	16.55
347.219	53.42
347.431	30.89
347.643	69.8
347.855	22.7
348.067	61.61
348.279	-22.36
348.491	-69.46
348.703	12.46
348.915	-48.98
349.127	2.22
349.339	112.81
349.551	37.03
349.763	-36.69
349.975	-8.02
350.187	127.14
350.399	-55.12
350.61	43.18
350.822	51.37
351.034	100.52
351.246	51.37
351.458	32.94
351.669	10.41
351.881	55.47
352.093	65.71
352.305	59.56
352.517	49.32
352.728	26.79
352.94	-16.21
353.152	37.03
353.363	-8.02
353.575	43.18
353.787	145.58
353.999	63.66
354.21	61.61
354.422	53.42
354.633	22.7
354.845	49.32
355.057	16.55
355.268	123.05
355.48	110.76
355.692	53.42
355.903	92.33
356.115	69.8
356.326	8.36
356.538	51.37
356.749	57.51
356.961	102.57
357.172	106.67
357.384	4.27
357.595	73.9
357.807	34.99
358.018	102.57
358.23	61.61
358.441	30.89
358.653	32.94
358.864	-30.55
359.075	8.36
359.287	47.27
359.498	73.9
359.709	0.17
359.921	24.75
360.132	53.42
360.344	37.03
360.555	14.51
360.766	-10.07
360.977	37.03
361.189	32.94
361.4	-12.12
361.611	22.7
361.823	45.23
362.034	80.04
362.245	26.79
362.456	116.9
362.667	2.22
362.879	24.75
363.09	57.51
363.301	106.67
363.512	4.27
363.723	84.14
363.935	2.22
364.146	20.65
364.357	100.52
364.568	22.7
364.779	53.42
364.99	77.99
365.201	10.41
365.412	84.14
365.623	2.22
365.834	24.75
366.045	45.23
366.256	37.03
366.467	37.03
366.678	57.51
366.889	12.46
367.1	51.37
367.311	22.7
367.522	-1.88
367.733	67.75
367.944	28.84
368.155	24.75
368.366	116.9
368.577	47.27
368.788	18.6
368.999	-67.41
369.209	24.75
369.42	106.67
369.631	131.24
369.842	-1.88
370.053	41.13
370.264	61.61
370.474	49.32
370.685	30.89
370.896	-12.12
371.107	73.9
371.317	4.27
371.528	-46.93
371.739	26.79
371.95	14.51
372.16	-1.88
372.371	20.65
372.582	28.84
372.792	47.27
373.003	-5.97
373.214	75.95
373.424	94.38
373.635	37.03
373.846	94.38
374.056	26.79
374.267	14.51
374.477	39.08
374.688	-28.5
374.898	45.23
375.109	57.51
375.319	88.23
375.53	61.61
375.74	110.76
375.951	69.8
376.161	65.71
376.372	73.9
376.582	-46.93
376.793	59.56
377.003	49.32
377.214	84.14
377.424	45.23
377.635	80.04
377.845	-14.17
378.055	10.41
378.266	-42.84
378.476	123.05
378.686	73.9
378.897	20.65
379.107	37.03
379.317	2.22
379.528	75.95
379.738	55.47
379.948	86.19
380.158	57.51
380.369	57.51
380.579	96.43
380.789	45.23
380.999	49.32
381.21	67.75
381.42	82.09
381.63	20.65
381.84	24.75
382.05	82.09
382.261	110.76
382.471	73.9
382.681	14.51
382.891	47.27
383.101	4.27
383.311	-12.12
383.521	47.27
383.731	102.57
383.941	84.14
384.151	0.17
384.361	51.37
384.571	34.99
384.781	45.23
384.991	96.43
385.201	96.43
385.411	-8.02
385.621	116.9
385.831	69.8
386.041	59.56
386.251	43.18
386.461	108.71
386.671	82.09
386.881	32.94
387.091	12.46
387.301	71.85
387.511	43.18
387.72	75.95
387.93	86.19
388.14	131.24
388.35	96.43
388.56	108.71
388.769	45.23
388.979	26.79
389.189	2.22
389.399	61.61
389.609	88.23
389.818	100.52
390.028	75.95
390.238	47.27
390.447	82.09
390.657	125.1
390.867	30.89
391.076	94.38
391.286	10.41
391.496	67.75
391.705	41.13
391.915	94.38
392.125	159.91
392.334	20.65
392.544	69.8
392.753	90.28
392.963	98.47
393.172	77.99
393.382	90.28
393.591	92.33
393.801	94.38
394.01	98.47
394.22	118.95
394.429	69.8
394.639	30.89
394.848	151.72
395.058	98.47
395.267	24.75
395.477	123.05
395.686	100.52
395.895	129.19
396.105	141.48
396.314	82.09
396.524	121
396.733	53.42
396.942	43.18
397.152	84.14
397.361	166.06
397.57	92.33
397.78	37.03
397.989	164.01
398.198	153.77
398.407	174.25
398.617	92.33
398.826	86.19
399.035	139.43
399.244	121
399.453	90.28
399.663	80.04
399.872	123.05
400.081	22.7
400.29	133.29
400.499	121
400.708	129.19
400.917	82.09
401.127	149.67
401.336	86.19
401.545	172.2
401.754	139.43
401.963	116.9
402.172	65.71
402.381	118.95
402.59	104.62
402.799	125.1
403.008	65.71
403.217	145.58
403.426	178.34
403.635	94.38
403.844	153.77
404.053	143.53
404.262	100.52
404.471	207.02
404.68	166.06
404.888	131.24
405.097	178.34
405.306	73.9
405.515	227.5
405.724	170.15
405.933	215.21
406.142	270.5
406.35	190.63
406.559	129.19
406.768	215.21
406.977	293.03
407.185	213.16
407.394	204.97
407.603	256.17
407.812	250.02
408.02	270.5
408.229	221.35
408.438	225.45
408.646	172.2
408.855	237.74
409.064	321.7
409.272	260.26
409.481	262.31
409.69	323.75
409.898	299.17
410.107	348.33
410.315	342.18
410.524	331.94
410.733	276.65
410.941	323.75
411.15	356.52
411.358	403.62
411.567	426.15
411.775	409.76
411.984	409.76
412.192	454.82
412.401	385.19
412.609	473.25
412.818	532.64
413.026	536.74
413.234	491.68
413.443	567.46
413.651	553.12
413.86	544.93
414.068	682.14
414.276	651.42
414.485	604.32
414.693	739.49
414.901	786.59
415.11	755.87
415.318	764.06
415.526	733.34
415.734	807.07
415.943	864.41
416.151	903.32
416.359	917.66
416.567	958.62
416.776	1009.82
416.984	1046.68
417.192	1089.69
417.4	1032.35
417.608	1003.68
417.817	1050.78
418.025	1247.38
418.233	1245.34
418.441	1251.48
418.649	1282.2
418.857	1415.32
419.065	1419.41
419.273	1347.73
419.481	1411.22
419.689	1579.15
419.897	1642.64
420.105	1646.74
420.313	1659.03
420.521	1710.22
420.729	1867.92
420.937	1958.03
421.145	1867.92
421.353	2107.53
421.561	2197.64
421.769	2054.28
421.977	2300.04
422.185	2166.92
422.393	2351.24
422.601	2508.93
422.809	2443.4
423.017	2580.61
423.224	2592.9
423.432	2568.32
423.64	2672.77
423.848	3035.26
424.056	2816.13
424.263	3078.27
424.471	3188.86
424.679	3242.11
424.887	3293.3
425.094	3432.57
425.302	3473.53
425.51	3600.5
425.718	3657.84
425.925	3803.25
426.133	3885.17
426.341	3987.57
426.548	4231.27
426.756	4395.11
426.964	4311.14
427.171	4450.41
427.379	4698.21
427.586	4753.51
427.794	4773.99
428.001	5091.42
428.209	5255.26
428.417	5271.64
428.624	5662.8
428.832	5507.16
429.039	5578.84
429.247	5531.73
429.454	6191.18
429.662	6615.11
429.869	6226
430.076	6500.42
430.284	6332.49
430.491	6533.19
430.699	6881.35
430.906	6770.76
431.114	7034.94
431.321	7450.68
431.528	7364.67
431.736	7761.97
431.943	8304.68
432.15	7938.1
432.358	8230.96
432.565	8638.5
432.772	8484.91
432.979	9013.28
433.187	9150.5
433.394	9183.26
433.601	9676.82
433.808	9869.33
434.016	9693.21
434.223	10246.16
434.43	10870.79
434.637	10608.65
434.844	11239.42
435.052	11509.76
435.259	11519.99
435.466	11538.43
435.673	11366.4
435.88	12273.65
436.087	12816.36
436.294	12885.99
436.501	12675.05
436.708	12679.15
436.915	13115.36
437.122	13719.51
437.329	13789.14
437.537	14133.2
437.743	14467.02
437.95	14368.72
438.157	14833.61
438.364	15286.21
438.571	15429.57
438.778	15767.48
438.985	16873.39
439.192	16371.63
439.399	16906.15
439.606	16480.18
439.813	17590.17
440.02	18419.6
440.227	18179.99
440.433	17870.75
440.64	18374.55
440.847	18333.59
441.054	18749.32
441.261	19953.53
441.467	19781.5
441.674	20037.5
441.881	20918.12
442.088	20770.67
442.294	20789.1
442.501	21114.73
442.708	21933.92
442.914	22507.35
443.121	23330.63
443.328	22810.45
443.534	24442.68
443.741	23609.15
443.948	23279.43
444.154	25237.29
444.361	24807.22
444.568	25059.12
444.774	24897.33
444.981	25151.27
445.187	26195.74
445.394	27524.87
445.6	26603.28
445.807	29249.26
446.013	27942.66
446.22	28598.01
446.426	29611.75
446.633	29964
446.839	30758.61
447.046	29259.5
447.252	31340.24
447.459	31336.14
447.665	31239.89
447.871	32351.93
448.078	33703.59
448.284	31934.15
448.491	33334.96
448.697	34485.92
448.903	34764.44
449.11	35151.51
449.316	34242.21
449.522	34952.85
449.728	35882.63
449.935	36071.04
450.141	35733.13
450.347	36966.01
450.553	35716.75
450.76	36411.01
450.966	37451.38
451.172	36806.27
451.378	37373.55
451.584	37248.63
451.791	37942.89
451.997	37852.78
452.203	37899.88
452.409	38413.92
452.615	37660.27
452.821	36830.84
453.027	36023.94
453.233	37967.46
453.44	36583.04
453.646	36851.32
453.852	37045.88
454.058	37453.42
454.264	36505.21
454.47	36826.74
454.676	36427.39
454.882	37213.81
455.088	33947.3
455.294	34432.67
455.5	35219.09
455.705	35638.92
455.911	33748.65
456.117	33525.42
456.323	32919.22
456.529	31190.73
456.735	32388.8
456.941	31340.24
457.147	31022.8
457.352	30414.55
457.558	29980.39
457.764	29746.92
457.97	29335.28
458.176	28581.62
458.381	28677.88
458.587	27152.14
458.793	27401.99
458.999	25575.2
459.204	27631.37
459.41	26806.03
459.616	25126.7
459.821	25380.65
460.027	25145.13
460.233	24465.21
460.438	23174.99
460.644	23662.4
460.85	22404.95
461.055	22169.43
461.261	22196.06
461.466	20758.38
461.672	19793.79
461.878	21147.5
462.083	19804.03
462.289	19582.85
462.494	19216.26
462.7	18515.86
462.905	17928.09
463.111	18730.89
463.316	18821
463.522	18012.06
463.727	18337.68
463.932	18114.45
464.138	18124.69
464.343	18143.13
464.549	17592.22
464.754	18583.44
464.959	18423.7
465.165	17782.68
465.37	17446.82
465.575	16824.23
465.781	17602.46
465.986	17598.37
466.191	17061.8
466.397	16644.01
466.602	15843.26
466.807	16480.18
467.012	16369.58
467.218	16236.47
467.423	16179.12
467.628	16187.32
467.833	16695.21
468.038	16218.04
468.244	15665.08
468.449	16629.68
468.654	16119.73
468.859	15765.43
469.064	15695.8
469.269	14950.34
469.474	15210.43
469.679	15517.63
469.885	15022.02
470.09	15214.53
470.295	15163.33
470.5	14680.01
470.705	14798.79
470.91	14438.35
471.115	14395.34
471.32	14507.98
471.525	14464.97
471.73	14149.59
471.935	14108.63
472.139	13672.41
472.344	13836.25
472.549	13639.64
472.754	13524.96
472.959	13447.13
473.164	13060.07
473.369	12750.82
473.574	13170.66
473.778	13045.73
473.983	12857.32
474.188	12797.93
474.393	12345.33
474.598	12390.38
474.802	12263.41
475.007	12089.33
475.212	12445.68
475.417	11626.49
475.621	11796.47
475.826	11857.91
476.031	11577.34
476.235	11210.75
476.44	11689.98
476.645	11442.17
476.849	11401.21
477.054	11317.25
477.259	10821.64
477.463	11020.29
477.668	10719.24
477.872	10862.6
478.077	10586.12
478.282	10430.48
478.486	10430.48
478.691	10354.7
478.895	10393.61
479.1	10250.25
479.304	10219.53
479.509	9762.84
479.713	10143.76
479.918	9705.49
480.122	9863.19
480.326	9951.25
480.531	9805.85
480.735	9744.41
480.94	9680.92
481.144	10119.18
481.348	9482.27
481.553	9656.34
481.757	9621.53
481.961	9599
482.166	9693.21
482.37	9414.68
482.574	9502.75
482.778	9457.69
482.983	9885.72
483.187	9472.03
483.391	9574.42
483.595	9777.17
483.8	9435.16
484.004	9621.53
484.208	9416.73
484.412	9605.14
484.616	9637.91
484.821	9351.2
485.025	9383.96
485.229	9662.49
485.433	9512.99
485.637	9623.58
485.841	9484.31
486.045	9517.08
486.249	9568.28
486.453	9281.57
486.657	9439.26
486.861	9416.73
487.065	9187.36
487.269	9353.24
487.473	9361.44
487.677	9494.55
487.881	9467.93
488.085	9431.07
488.289	9719.83
488.493	9355.29
488.697	9662.49
488.901	9639.96
489.105	9553.94
489.309	9572.38
489.512	9701.4
489.716	9580.57
489.92	9484.31
490.124	9789.46
490.328	9611.29
490.531	9652.25
490.735	9625.62
490.939	9764.89
491.143	9687.06
491.346	9852.95
491.55	9791.51
491.754	10065.94
491.958	10027.03
492.161	10104.85
492.365	9904.15
492.569	10063.89
492.772	10051.6
492.976	10248.21
493.18	10201.1
493.383	10145.81
493.587	10481.67
493.79	10448.91
493.994	10317.84
494.197	10414.09
494.401	10872.84
494.605	10508.3
494.808	10786.82
495.012	10979.33
495.215	10969.09
495.419	11030.53
495.622	10821.64
495.825	11104.26
496.029	11053.06
496.232	11440.12
496.436	11317.25
496.639	11636.73
496.843	11323.39
497.046	11700.22
497.249	11892.73
497.453	12134.39
497.656	11988.98
497.859	12128.24
498.063	12052.47
498.266	12271.6
498.469	12466.16
498.673	12431.34
498.876	12820.46
499.079	13041.64
499.282	12634.09
499.485	13262.82
499.689	13326.3
499.892	13406.17
500.095	13551.58
500.298	14018.52
500.501	13512.67
500.705	13930.45
500.908	14260.18
501.111	14356.43
501.314	14430.16
501.517	14809.03
501.72	14897.1
501.923	14546.89
502.126	15122.37
502.329	15212.48
502.532	15323.07
502.735	15554.49
502.938	15843.26
503.141	16050.1
503.344	16080.82
503.547	16183.22
503.75	16187.32
503.953	16766.89
504.156	16879.53
504.359	16863.15
504.562	16846.76
504.765	17389.47
504.968	17700.76
505.17	17584.03
505.373	17934.23
505.576	18386.83
505.779	18075.54
505.982	18481.04
506.185	18530.19
506.387	18732.94
506.59	18964.36
506.793	19283.84
506.996	19365.76
507.198	19818.36
507.401	19867.52
507.604	19912.57
507.807	20453.23
508.009	20602.74
508.212	20631.41
508.415	20856.68
508.617	21270.37
508.82	21247.85
509.022	21423.97
509.225	21731.17
509.428	22071.13
509.63	22081.37
509.833	22245.21
510.035	22892.37
510.238	22560.59
510.44	23015.24
510.643	23234.38
510.845	23494.47
511.048	23412.55
511.25	23885.63
511.453	24002.36
511.655	24739.63
511.858	24653.62
512.06	24792.88
512.262	25225
512.465	24895.28
512.667	25882.4
512.87	25923.36
513.072	26042.14
513.274	26570.52
513.477	26771.22
513.679	26890
513.881	26857.23
514.084	27514.63
514.286	27004.69
514.488	27518.73
514.69	28342.01
514.893	28540.66
515.095	28708.6
515.297	29034.22
515.499	29038.32
515.701	29404.91
515.904	30021.34
516.106	29910.75
516.308	30121.7
516.51	30826.2
516.712	30475.99
516.914	30932.69
517.116	31778.5
517.318	31375.05
517.52	31598.28
517.722	32032.45
517.925	32433.85
518.127	32650.94
518.329	32865.97
518.531	32966.32
518.733	33552.04
518.935	33791.66
519.136	33887.91
519.338	34561.69
519.54	34543.26
519.742	34385.57
519.944	34975.38
520.146	35413.65
520.348	35858.06
520.55	35847.82
520.752	36066.95
520.954	36396.67
521.155	36380.29
521.357	36781.69
521.559	37473.9
521.761	37811.82
521.963	37777
522.164	37863.02
522.366	38082.15
522.568	38594.14
522.77	38501.98
522.971	39978.57
523.173	39024.22
523.375	39358.03
523.576	39812.68
523.778	39630.41
523.98	40271.43
524.181	40277.57
524.383	40721.98
524.584	41176.63
524.786	41033.27
524.988	41489.97
525.189	41391.67
525.391	42221.09
525.592	41999.91
525.794	42542.63
525.995	42368.55
526.197	42712.61
526.398	42894.88
526.6	43023.9
526.801	43253.27
527.003	43546.13
527.204	43283.99
527.406	43767.31
527.607	43941.39
527.808	44512.77
528.01	43365.91
528.211	43906.57
528.412	44783.1
528.614	44342.79
528.815	44500.48
529.016	45133.31
529.218	44783.1
529.419	45016.57
529.62	45258.23
529.822	45049.34
530.023	45086.2
530.224	45383.16
530.425	45334.01
530.626	45299.19
530.828	45188.6
531.029	46175.72
531.23	45690.35
531.431	45604.34
531.632	46165.48
531.833	46220.78
532.035	46073.32
532.236	46308.84
532.437	46650.85
532.638	46155.24
532.839	46648.8
533.04	46562.79
533.241	46065.13
533.442	46929.37
533.643	46751.2
533.844	46558.69
534.045	46487.01
534.246	46224.87
534.447	46900.7
534.648	46276.07
534.849	46816.74
535.05	46564.84
535.251	46706.15
535.451	46081.52
535.652	47003.1
535.853	47011.29
536.054	47203.8
536.255	47021.53
536.456	46493.16
536.657	47533.53
536.857	46595.56
537.058	46720.48
537.259	46958.05
537.46	47306.2
537.66	46906.85
537.861	46956
538.062	46996.96
538.263	47160.8
538.463	47027.68
538.664	46906.85
538.865	47486.42
539.065	47695.31
539.266	46732.77
539.466	47461.85
539.667	46638.56
539.868	47687.12
540.068	46710.24
540.269	46996.96
540.469	47199.71
540.67	46990.81
540.87	46953.95
541.071	46956
541.271	47066.59
541.472	46968.29
541.672	46855.65
541.873	46611.94
542.073	46282.22
542.274	47365.59
542.474	47019.49
542.675	46708.19
542.875	47236.57
543.075	47168.99
543.276	46601.7
543.476	47103.45
543.676	46716.39
543.877	47117.79
544.077	46851.55
544.277	46941.66
544.478	46855.65
544.678	47031.77
544.878	46736.87
545.078	47035.87
545.279	46921.18
545.479	46792.16
545.679	47134.17
545.879	46417.38
546.079	47031.77
546.28	47023.58
546.48	46540.26
546.68	46620.13
546.88	46835.17
547.08	46749.15
547.28	46630.37
547.48	46562.79
547.68	46786.02
547.88	46370.28
548.081	47005.15
548.281	46990.81
548.481	46556.64
548.681	47095.26
548.881	46921.18
549.081	46708.19
549.28	46546.4
549.48	46976.48
549.68	46808.54
549.88	47093.21
550.08	46884.32
550.28	46769.63
550.48	46095.85
550.68	47072.73
550.88	46161.39
551.08	46425.57
551.279	46839.26
551.479	46642.66
551.679	46542.31
551.879	46423.53
552.079	46601.7
552.278	46611.94
552.478	46728.67
552.678	46298.6
552.878	46945.76
553.077	46269.93
553.277	46208.49
553.477	46540.26
553.676	46349.8
553.876	46028.27
554.076	46396.9
554.275	46065.13
554.475	45708.79
554.674	46261.74
554.874	46413.29
555.074	46233.07
555.273	46276.07
555.473	46437.86
555.672	45725.17
555.872	45538.8
556.071	46134.76
556.271	46290.41
556.47	45407.73
556.67	45606.39
556.869	45413.88
557.068	46003.69
557.268	45538.8
557.467	45784.56
557.667	45270.52
557.866	45243.9
558.065	45712.88
558.265	45291
558.464	44889.6
558.663	45696.5
558.863	45024.76
559.062	45540.85
559.261	44582.4
559.461	45745.65
559.66	44832.25
559.859	44828.16
560.058	44471.81
560.258	44838.4
560.457	44545.54
560.656	45301.24
560.855	44574.21
561.054	44752.38
561.253	44389.89
561.453	44824.06
561.652	44500.48
561.851	45053.44
562.05	44561.92
562.249	44465.67
562.448	44766.72
562.647	44183.05
562.846	43533.84
563.045	44144.14
563.244	43671.06
563.443	44146.19
563.642	43023.9
563.841	43828.75
564.04	43263.51
564.239	43982.35
564.438	43058.71
564.637	43623.95
564.836	43447.83
565.035	42931.74
565.234	43357.72
565.432	43021.85
565.631	42663.46
565.83	42683.94
566.029	42825.25
566.228	42378.79
566.427	42458.66
566.625	42675.74
566.824	42075.69
567.023	42245.67
567.222	41940.52
567.42	42231.33
567.619	41856.56
567.818	41774.64
568.016	41801.26
568.215	42016.3
568.414	41451.06
568.612	41764.4
568.811	41334.32
569.01	41260.6
569.208	40812.09
569.407	41186.87
569.605	40531.52
569.804	40982.07
570.002	40629.82
570.201	41006.65
570.4	40142.41
570.598	40191.56
570.797	40195.65
570.995	40222.28
571.193	39698
571.392	40314.44
571.59	39810.64
571.789	39562.83
571.987	39562.83
572.186	39278.16
572.384	39419.47
572.582	39630.41
572.781	39564.88
572.979	39145.05
573.177	39016.02
573.376	39093.85
573.574	38884.95
573.772	38919.77
573.971	38565.47
574.169	38557.28
574.367	38286.95
574.565	38811.23
574.763	38649.44
574.962	38080.1
575.16	37686.89
575.358	38366.82
575.556	37537.39
575.754	38022.76
575.952	37754.47
576.151	38039.14
576.349	37658.22
576.547	37715.56
576.745	37744.23
576.943	37418.61
577.141	37310.07
577.339	37209.71
577.537	36966.01
577.735	36863.61
577.933	36671.1
578.131	37193.33
578.329	36634.24
578.527	36206.21
578.725	36664.96
578.923	36984.44
579.121	36216.45
579.319	36310.66
579.516	36433.53
579.714	36198.02
579.912	36025.99
580.11	36023.94
580.308	35788.42
580.506	35913.35
580.704	35190.42
580.901	35864.2
581.099	35520.14
581.297	35425.93
581.495	35237.52
581.692	35305.1
581.89	34899.61
582.088	34963.09
582.285	35169.94
582.483	34696.86
582.681	34606.75
582.878	34547.36
583.076	34522.78
583.274	34649.75
583.471	33771.18
583.669	34158.24
583.866	33922.73
584.064	33861.29
584.262	33689.26
584.459	34266.78
584.657	33824.42
584.854	34098.85
585.052	33390.25
585.249	33552.04
585.447	33541.8
585.644	33334.96
585.841	33300.14
586.039	33515.18
586.236	32857.78
586.434	32693.94
586.631	32876.21
586.828	32853.69
587.026	32652.98
587.223	32695.99
587.42	32272.06
587.618	32343.74
587.815	32609.98
588.012	31874.76
588.21	31766.21
588.407	32329.41
588.604	32216.77
588.801	31575.75
588.999	32020.16
589.196	31864.52
589.393	31387.34
589.59	31633.1
589.787	31219.41
589.984	31315.66
590.182	30858.96
590.379	31309.52
590.576	30901.97
590.773	31250.13
590.97	30727.89
591.167	31090.38
591.364	30441.18
591.561	30512.86
591.758	30131.93
591.955	30129.89
592.152	30516.95
592.349	30228.19
592.546	30240.48
592.743	30041.82
592.94	29531.88
593.137	29949.67
593.334	30074.59
593.531	29855.46
593.727	29798.12
593.924	29777.64
594.121	29509.35
594.318	29468.39
594.515	29019.89
594.712	29460.2
594.908	28829.43
595.105	29282.03
595.302	29021.94
595.499	28798.71
595.696	28964.59
595.892	28362.49
596.089	28714.74
596.286	28499.7
596.482	28092.16
596.679	28425.98
596.876	28032.77
597.072	27918.08
597.269	28362.49
597.466	27842.31
597.662	27899.65
597.859	27952.9
598.055	28067.58
598.252	27608.84
598.448	27553.54
598.645	27625.22
598.841	27397.9
599.038	27387.66
599.234	27354.89
599.431	27186.96
599.627	26898.19
599.824	27207.44
600.02	26576.66
600.217	26896.14
600.413	26851.09
600.609	26572.57
600.806	26625.81
601.002	26586.9
601.198	26355.48
601.395	26287.9
601.591	26046.24
601.787	26355.48
601.984	25812.77
602.18	26240.79
602.376	25935.65
602.572	25720.61
602.769	25810.72
602.965	25632.55
603.161	25179.95
603.357	25493.29
603.553	25560.87
603.75	25542.44
603.946	25349.93
604.142	25394.98
604.338	25075.5
604.534	25286.44
604.73	25153.32
604.926	24831.79
605.122	24821.55
605.318	24729.39
605.514	24520.5
605.71	24563.51
605.906	24325.94
606.102	24235.83
606.298	24246.07
606.494	24182.59
606.69	24553.27
606.886	24100.67
607.082	23998.27
607.278	24125.24
607.474	23699.27
607.67	23957.31
607.866	23613.25
608.062	24055.61
608.257	23914.3
608.453	23846.72
608.649	24057.66
608.845	23666.5
609.041	23672.64
609.236	23674.69
609.432	23471.94
609.628	23224.14
609.824	23418.69
610.019	23361.35
610.215	23304.01
610.411	23189.32
610.606	22994.76
610.802	23172.94
610.998	22824.78
611.193	23111.5
611.389	22531.92
611.584	22867.79
611.78	22763.34
611.976	23064.39
612.171	22898.51
612.367	22749.01
612.562	22392.66
612.758	22464.34
612.953	22257.5
613.149	22445.91
613.344	22490.96
613.539	22794.06
613.735	22206.3
613.93	22470.48
614.126	22218.58
614.321	22335.32
614.517	22234.97
614.712	22089.56
614.907	21919.58
615.103	22103.9
615.298	22069.08
615.493	22132.57
615.688	21696.35
615.884	22138.71
616.079	21739.36
616.274	22110.04
616.47	21456.74
616.665	21622.62
616.86	21534.56
617.055	21522.27
617.25	21458.79
617.445	21970.78
617.641	21184.36
617.836	21274.47
618.031	21016.43
618.226	21413.73
618.421	21438.31
618.616	21204.84
618.811	20694.89
619.006	21059.43
619.201	20598.64
619.396	20701.04
619.591	20506.48
619.786	20830.06
619.981	20381.56
620.176	20445.04
620.371	20197.24
620.566	20187
620.761	20244.34
620.956	20105.08
621.151	20008.83
621.346	20055.93
621.541	19588.99
621.735	19842.94
621.93	19500.93
622.125	19552.13
622.32	19457.92
622.515	19279.75
622.709	19423.11
622.904	19109.77
623.099	19128.2
623.294	19089.29
623.488	18751.37
623.683	18923.4
623.878	18476.94
624.072	18743.18
624.267	18902.92
624.462	18405.27
624.656	18065.3
624.851	18349.97
625.046	18110.36
625.24	17971.1
625.435	18182.04
625.629	17856.41
625.824	17721.24
626.018	17766.3
626.213	17358.75
626.407	17207.2
626.602	17246.12
626.796	17430.43
626.991	17196.96
627.185	16873.39
627.38	16949.16
627.574	16889.77
627.768	16627.63
627.963	16654.25
628.157	16480.18
628.352	16627.63
628.546	16101.3
628.74	16701.36
628.935	16183.22
629.129	16201.65
629.323	16011.19
629.517	16168.88
629.712	15708.09
629.906	15824.83
630.1	15605.69
630.294	15660.99
630.489	15611.84
630.683	15493.05
630.877	15343.55
631.071	15009.73
631.265	15273.92
631.459	15222.72
631.653	15042.5
631.848	14950.34
632.042	15005.64
632.236	15050.69
632.43	14694.35
632.624	14825.42
632.818	14669.77
633.012	14698.44
633.206	14434.25
633.4	14495.69
633.594	14340.05
633.788	14262.23
633.982	14477.26
634.176	14307.28
634.369	13955.03
634.563	13963.22
634.757	13660.12
634.951	14059.48
635.145	13834.2
635.339	13778.9
635.533	13408.22
635.726	13424.61
635.92	13191.14
636.114	13348.83
636.308	13438.94
636.501	13033.44
636.695	13158.37
636.889	13094.88
637.083	13002.72
637.276	12978.15
637.47	12810.22
637.664	12818.41
637.857	12468.2
638.051	12705.77
638.244	12556.27
638.438	12771.3
638.632	12576.75
638.825	12138.48
639.019	12290.03
639.212	12177.39
639.406	12294.13
639.599	11896.82
639.793	12376.05
639.986	11933.68
640.18	11958.26
640.373	11866.1
640.567	11790.33
640.76	11763.7
640.954	11747.32
641.147	11560.95
641.34	11337.73
641.534	11563
641.727	11403.26
641.92	11120.64
642.114	11257.85
642.307	11366.4
642.5	11190.27
642.694	10735.62
642.887	10999.81
643.08	11055.11
643.273	10885.12
643.467	10819.59
643.66	10713.1
643.853	10600.46
644.046	10688.52
644.239	10727.43
644.432	10590.22
644.626	10272.78
644.819	10414.09
645.012	10366.99
645.205	10154
645.398	10381.32
645.591	10108.94
645.784	10094.61
645.977	10049.55
646.17	10065.94
646.363	10020.88
646.556	9715.73
646.749	9900.05
646.942	9877.52
647.135	9629.72
647.328	9752.6
647.521	9615.38
647.714	9586.71
647.907	9422.87
648.099	9461.79
648.292	9371.68
648.485	9476.12
648.678	9089.06
648.871	9275.42
649.064	9312.28
649.256	9357.34
649.449	9285.66
649.642	9152.54
649.835	9076.77
650.027	8747.05
650.22	8931.36
650.413	8775.72
650.605	8931.36
650.798	8693.8
650.991	8712.23
651.183	8835.11
651.376	8747.05
651.568	8861.73
651.761	8538.15
651.954	8503.34
652.146	8384.55
652.339	8661.03
652.531	8331.31
652.724	8204.33
652.916	8114.22
653.109	8208.43
653.301	8167.47
653.494	8245.29
653.686	8087.6
653.879	8376.36
654.071	8316.97
654.263	8181.81
654.456	7974.96
654.648	8153.13
654.84	7733.3
655.033	7651.38
655.225	7761.97
655.417	7833.65
655.61	7622.71
655.802	7813.17
655.994	7516.22
656.186	7690.29
656.379	7456.82
656.571	7761.97
656.763	7557.18
656.955	7364.67
657.148	7360.57
657.34	7452.73
657.532	7338.04
657.724	7186.49
657.916	7346.23
658.108	7356.47
658.3	7153.73
658.492	7049.28
658.684	7022.66
658.876	7206.97
659.068	7028.8
659.26	6975.55
659.452	7055.42
659.644	6946.88
659.836	6809.67
660.028	6795.33
660.22	6727.75
660.412	6762.56
660.604	6932.54
660.796	6785.09
660.988	6748.23
661.18	6686.79
661.372	6684.74
661.563	6553.67
661.755	6426.7
661.947	6449.22
662.139	6449.22
662.331	6416.46
662.522	6549.57
662.714	6428.74
662.906	6424.65
663.097	6383.69
663.289	6375.5
663.481	6324.3
663.673	6219.85
663.864	6250.57
664.056	6058.06
664.247	6301.77
664.439	6174.8
664.631	6070.35
664.822	6107.21
665.014	5955.66
665.205	5924.94
665.397	5920.85
665.588	6146.12
665.78	5894.22
665.971	5963.86
666.163	5959.76
666.354	5675.09
666.546	5804.11
666.737	5783.63
666.929	5806.16
667.12	5705.81
667.311	5812.31
667.503	5695.57
667.694	5677.14
667.885	5603.41
668.077	5568.6
668.268	5640.28
668.459	5507.16
668.651	5474.39
668.842	5529.69
669.033	5595.22
669.224	5359.7
669.416	5410.9
669.607	5548.12
669.798	5242.97
669.989	5367.9
670.18	5224.54
670.371	5404.76
670.563	5273.69
670.754	5335.13
670.945	5173.34
671.136	5310.55
671.327	5240.92
671.518	5095.52
671.709	5085.28
671.9	5072.99
672.091	5230.68
672.282	5109.85
672.473	5120.09
672.664	5050.46
672.855	5226.59
673.046	5034.08
673.237	5107.8
673.428	5015.65
673.619	5062.75
673.809	5040.22
674	5003.36
674.191	4968.54
674.382	5103.71
674.573	5001.31
674.764	4984.93
674.954	4931.68
675.145	4970.59
675.336	4690.02
675.527	4909.15
675.717	4771.94
675.908	4857.95
676.099	4624.48
676.289	4816.99
676.48	4759.65
676.671	4773.99
676.861	4710.5
677.052	4591.72
677.243	4726.88
677.433	4687.97
677.624	4788.32
677.814	4587.62
678.005	4698.21
678.195	4606.05
678.386	4665.44
678.576	4642.92
678.767	4517.99
678.957	4620.39
679.148	4796.51
679.338	4644.96
679.529	4563.05
679.719	4667.49
679.909	4571.24
680.1	4517.99
680.29	4720.74
680.481	4698.21
680.671	4657.25
680.861	4538.47
681.052	4462.69
681.242	4524.13
681.432	4468.84
681.622	4456.55
681.813	4524.13
682.003	4360.3
682.193	4456.55
682.383	4401.26
682.573	4575.33
682.764	4323.43
682.954	4468.84
683.144	4302.95
683.334	4501.61
683.524	4565.09
683.714	4329.58
683.904	4309.1
684.094	4614.24
684.284	4337.77
684.474	4483.17
684.664	4403.3
684.854	4313.19
685.044	4423.78
685.234	4393.06
685.424	4276.33
685.614	4364.39
685.804	4339.82
685.994	4216.94
686.184	4343.91
686.374	4266.09
686.564	4223.08
686.753	4214.89
686.943	4079.72
687.133	4231.27
687.323	4071.53
687.513	4028.53
687.702	4149.36
687.892	4026.48
688.082	4071.53
688.272	4087.92
688.461	3948.65
688.651	4055.15
688.841	3995.76
689.03	4110.44
689.22	3936.37
689.41	3952.75
689.599	3903.6
689.789	4042.86
689.979	3891.31
690.168	3909.74
690.358	3909.74
690.547	3836.02
690.737	3901.55
690.926	3831.92
691.116	3750
691.305	3870.83
691.495	3846.26
691.684	3883.12
691.874	3764.34
692.063	3717.23
692.252	3829.87
692.442	3842.16
692.631	3711.09
692.82	3739.76
693.01	3784.82
693.199	3641.46
693.388	3670.13
693.578	3713.14
693.767	3600.5
693.956	3735.67
694.146	3657.84
694.335	3721.33
694.524	3670.13
694.713	3647.6
694.902	3620.98
695.092	3772.53
695.281	3438.71
695.47	3629.17
695.659	3545.2
695.848	3580.02
696.037	3504.25
696.226	3534.96
696.415	3518.58
696.604	3573.88
696.793	3430.52
696.982	3412.09
697.171	3637.36
697.36	3498.1
697.549	3553.4
697.738	3491.96
697.927	3434.61
698.116	3403.89
698.305	3459.19
698.494	3584.12
698.683	3580.02
698.872	3412.09
699.061	3475.57
699.25	3432.57
699.438	3393.65
699.627	3410.04
699.816	3448.95
700.005	3475.57
700.193	3479.67
700.382	3500.15
700.571	3367.03
700.76	3430.52
700.948	3385.46
701.137	3461.24
701.326	3584.12
701.514	3373.18
701.703	3516.53
701.892	3420.28
702.08	3633.27
702.269	3358.84
702.457	3457.14
702.646	3358.84
702.834	3278.97
703.023	3440.76
703.212	3422.33
703.4	3336.31
703.589	3412.09
703.777	3528.82
703.965	3457.14
704.154	3520.63
704.342	3350.65
704.531	3436.66
704.719	3330.17
704.907	3563.64
705.096	3580.02
705.284	3414.13
705.472	3539.06
705.661	3453.05
705.849	3563.64
706.037	3418.23
706.226	3281.02
706.414	3395.7
706.602	3440.76
706.79	3518.58
706.979	3356.79
707.167	3385.46
707.355	3444.85
707.543	3461.24
707.731	3596.4
707.919	3422.33
708.107	3385.46
708.296	3326.07
708.484	3289.21
708.672	3420.28
708.86	3399.8
709.048	3336.31
709.236	3344.5
709.424	3446.9
709.612	3465.33
709.8	3459.19
709.988	3371.13
710.176	3520.63
710.364	3356.79
710.551	3467.38
710.739	3387.51
710.927	3424.37
711.115	3348.6
711.303	3412.09
711.491	3317.88
711.679	3401.85
711.866	3483.77
712.054	3401.85
712.242	3369.08
712.43	3389.56
712.617	3518.58
712.805	3399.8
712.993	3227.77
713.181	3233.91
713.368	3342.46
713.556	3350.65
713.744	3430.52
713.931	3506.29
714.119	3373.18
714.306	3534.96
714.494	3309.69
714.682	3276.92
714.869	3377.27
715.057	3321.98
715.244	3481.72
715.432	3379.32
715.619	3281.02
715.807	3340.41
715.994	3387.51
716.182	3428.47
716.369	3512.44
716.556	3473.53
716.744	3332.22
716.931	3311.74
717.119	3436.66
717.306	3418.23
717.493	3334.26
717.681	3387.51
717.868	3432.57
718.055	3532.92
718.242	3217.53
718.43	3412.09
718.617	3321.98
718.804	3338.36
718.991	3256.44
719.179	3405.94
719.366	3321.98
719.553	3334.26
719.74	3197.05
719.927	3352.7
720.114	3262.58
720.301	3410.04
720.488	3299.45
720.676	3295.35
720.863	3338.36
721.05	3375.22
721.237	3207.29
721.424	3371.13
721.611	3221.63
721.798	3197.05
721.985	3260.54
722.172	3379.32
722.358	3264.63
722.545	3213.43
722.732	3297.4
722.919	3354.74
723.106	3272.82
723.293	3262.58
723.48	3358.84
723.667	3248.25
723.853	3260.54
724.04	3276.92
724.227	3264.63
724.414	3242.11
724.6	3317.88
724.787	3264.63
724.974	3328.12
725.161	3151.99
725.347	3147.9
725.534	3235.96
725.72	3276.92
725.907	3205.24
726.094	3301.5
726.28	3209.34
726.467	3065.98
726.653	3348.6
726.84	3240.06
727.027	3231.87
727.213	3192.95
727.4	3195
727.586	3199.1
727.773	3156.09
727.959	3137.66
728.145	3133.56
728.332	3215.48
728.518	3018.88
728.705	3227.77
728.891	3104.89
729.077	3295.35
729.264	3133.56
729.45	3106.94
729.636	3256.44
729.823	3078.27
730.009	3084.41
730.195	3213.43
730.382	3022.97
730.568	3072.12
730.754	3113.08
730.94	3098.75
731.126	3096.7
731.313	3047.55
731.499	3106.94
731.685	3080.32
731.871	3004.54
732.057	3027.07
732.243	3127.42
732.429	3068.03
732.615	3188.86
732.801	3068.03
732.987	2926.72
733.173	2996.35
733.359	3145.85
733.545	3096.7
733.731	3035.26
733.917	3025.02
734.103	2994.3
734.289	3068.03
734.475	3108.99
734.661	3070.08
734.847	2949.25
735.033	2961.53
735.219	2965.63
735.404	3025.02
735.59	3010.68
735.776	3074.17
735.962	3006.59
736.148	2883.71
736.333	3018.88
736.519	2947.2
736.705	2926.72
736.89	2971.77
737.076	2936.96
737.262	2896
737.447	2898.05
737.633	2846.85
737.819	2838.66
738.004	2826.37
738.19	2799.74
738.375	2826.37
738.561	2936.96
738.747	2959.49
738.932	2803.84
739.118	2910.33
739.303	2842.75
739.489	2840.7
739.674	2848.9
739.859	2818.18
740.045	2926.72
740.23	2834.56
740.416	2769.02
740.601	2822.27
740.786	2830.46
740.972	2748.54
741.157	2728.07
741.342	2560.13
741.528	2691.2
741.713	2699.39
741.898	2771.07
742.084	2693.25
742.269	2668.67
742.454	2603.14
742.639	2674.82
742.824	2617.47
743.01	2617.47
743.195	2529.41
743.38	2566.28
743.565	2549.89
743.75	2705.54
743.935	2601.09
744.12	2633.86
744.305	2506.88
744.49	2416.77
744.675	2574.47
744.86	2496.64
745.045	2408.58
745.23	2474.12
745.415	2523.27
745.6	2476.16
745.785	2351.24
745.97	2535.56
746.155	2379.91
746.34	2451.59
746.525	2306.18
746.71	2386.05
746.895	2379.91
747.079	2275.46
747.264	2279.56
747.449	2285.7
747.634	2289.8
747.819	2351.24
748.003	2162.83
748.188	2175.11
748.373	2142.35
748.557	2246.79
748.742	2263.18
748.927	2295.94
749.111	2183.31
749.296	2205.83
749.481	2148.49
749.665	2166.92
749.85	2150.54
750.034	2277.51
750.219	2119.82
750.404	2046.09
750.588	1988.75
750.773	2056.33
750.957	1962.12
751.141	2099.34
751.326	1876.11
751.51	1976.46
751.695	1982.6
751.879	2048.14
752.064	2097.29
752.248	2009.23
752.432	2074.76
752.617	1902.73
752.801	1939.6
752.985	1966.22
753.17	1863.82
753.354	1898.64
753.538	1859.73
753.722	1773.71
753.907	1902.73
754.091	1745.04
754.275	1808.53
754.459	1726.61
754.643	1814.67
754.828	1820.81
755.012	1697.94
755.196	1837.2
755.38	1712.27
755.564	1804.43
755.748	1577.11
755.932	1640.59
756.116	1718.42
756.3	1632.4
756.484	1691.79
756.668	1611.92
756.852	1765.52
757.036	1656.98
757.22	1525.91
757.404	1609.87
757.588	1523.86
757.772	1693.84
757.956	1542.29
758.14	1575.06
758.323	1503.38
758.507	1454.23
758.691	1378.45
758.875	1446.04
759.059	1589.39
759.242	1378.45
759.426	1507.48
759.61	1505.43
759.794	1374.36
759.977	1476.76
760.161	1497.24
760.345	1450.13
760.528	1519.76
760.712	1304.73
760.895	1364.12
761.079	1497.24
761.263	1441.94
761.446	1319.06
761.63	1323.16
761.813	1360.02
761.997	1302.68
762.18	1310.87
762.364	1296.53
762.547	1388.69
762.731	1368.21
762.914	1343.64
763.098	1183.9
763.281	1349.78
763.464	1274.01
763.648	1353.88
763.831	1335.45
764.015	1157.27
764.198	1163.42
764.381	1241.24
764.564	1181.85
764.748	1233.05
764.931	1251.48
765.114	1233.05
765.297	1331.35
765.481	1247.38
765.664	1214.62
765.847	1261.72
766.03	1241.24
766.213	1163.42
766.397	1196.18
766.58	1239.19
766.763	1177.75
766.946	1257.62
767.129	1192.09
767.312	1175.7
767.495	1134.75
767.678	1241.24
767.861	1179.8
768.044	1101.98
768.227	1116.31
768.41	1153.18
768.593	1099.93
768.776	1085.59
768.959	1069.21
769.142	1093.79
769.324	1130.65
769.507	1134.75
769.69	1040.54
769.873	1122.46
770.056	1130.65
770.239	1056.92
770.421	1085.59
770.604	1140.89
770.787	1081.5
770.97	1073.31
771.152	1005.72
771.335	1128.6
771.518	1069.21
771.7	1063.07
771.883	1042.59
772.066	1028.25
772.248	1001.63
772.431	1091.74
772.613	1040.54
772.796	925.85
772.978	1061.02
773.161	1044.63
773.343	1005.72
773.526	999.58
773.708	909.47
773.891	921.76
774.073	975
774.256	942.24
774.438	989.34
774.621	1005.72
774.803	940.19
774.985	1007.77
775.168	997.53
775.35	929.95
775.532	911.52
775.715	936.09
775.897	870.56
776.079	874.65
776.261	886.94
776.444	843.93
776.626	983.2
776.808	757.92
776.99	866.46
777.173	833.69
777.355	901.28
777.537	839.84
777.719	833.69
777.901	739.49
778.083	792.73
778.265	747.68
778.447	807.07
778.629	802.97
778.811	798.88
778.993	888.99
779.175	776.35
779.357	794.78
779.539	667.81
779.721	657.57
779.903	721.06
780.085	716.96
780.267	759.97
780.449	700.58
780.631	719.01
780.812	751.78
780.994	708.77
781.176	676
781.358	676
781.54	702.62
781.721	762.02
781.903	729.25
782.085	676
782.267	678.05
782.448	673.95
782.63	526.5
782.812	747.68
782.993	641.18
783.175	618.66
783.357	606.37
783.538	663.71
783.72	538.79
783.901	616.61
784.083	602.27
784.264	565.41
784.446	553.12
784.627	596.13
784.809	645.28
784.99	520.35
785.172	602.27
785.353	626.85
785.535	598.18
785.716	569.51
785.897	569.51
786.079	520.35
786.26	602.27
786.441	563.36
786.623	479.4
786.804	522.4
786.985	463.01
787.167	553.12
787.348	413.86
787.529	577.7
787.71	589.99
787.891	510.11
788.073	477.35
788.254	506.02
788.435	524.45
788.616	542.88
788.797	481.44
788.978	479.4
789.159	405.67
789.34	495.78
789.522	401.57
789.703	438.44
789.884	428.2
790.065	450.72
790.246	503.97
790.427	397.48
790.607	438.44
790.788	426.15
790.969	452.77
791.15	422.05
791.331	501.92
791.512	518.31
791.693	420
791.874	387.24
792.054	487.59
792.235	471.2
792.416	485.54
792.597	428.2
792.778	352.42
792.958	399.52
793.139	354.47
793.32	401.57
793.5	360.61
793.681	342.18
793.862	364.71
794.042	397.48
794.223	340.13
794.404	336.04
794.584	311.46
794.765	290.98
794.945	397.48
795.126	452.77
795.306	374.95
795.487	278.69
795.667	288.93
795.848	407.72
796.028	379.04
796.209	354.47
796.389	370.85
796.57	311.46
796.75	266.41
796.93	401.57
797.111	307.37
797.291	372.9
797.471	297.13
797.652	344.23
797.832	354.47
798.012	313.51
798.192	313.51
798.373	350.37
798.553	305.32
798.733	268.45
798.913	258.21
799.093	305.32
799.274	266.41
799.454	399.52
799.634	315.56
799.814	325.8
799.994	299.17
800.174	333.99
800.354	266.41
800.534	301.22
800.714	321.7
800.894	229.54
801.074	278.69
801.254	252.07
801.434	356.52
801.614	260.26
801.794	333.99
801.974	835.74
802.154	213.16
802.334	270.5
802.514	209.06
802.693	270.5
802.873	196.78
803.053	362.66
803.233	286.89
803.413	223.4
803.592	264.36
803.772	254.12
803.952	217.26
804.131	250.02
804.311	274.6
804.491	336.04
804.67	266.41
804.85	211.11
805.03	301.22
805.209	241.83
805.389	264.36
805.568	237.74
805.748	233.64
805.928	329.89
806.107	225.45
806.287	223.4
806.466	217.26
806.646	241.83
806.825	182.44
807.004	196.78
807.184	174.25
807.363	317.61
807.543	209.06
807.722	227.5
807.901	211.11
808.081	268.45
808.26	229.54
808.439	207.02
808.619	297.13
808.798	157.86
808.977	233.64
809.156	262.31
809.336	166.06
809.515	168.1
809.694	145.58
809.873	180.39
810.052	262.31
810.231	229.54
810.411	161.96
810.59	225.45
810.769	184.49
810.948	233.64
811.127	129.19
811.306	190.63
811.485	131.24
811.664	182.44
811.843	190.63
812.022	180.39
812.201	260.26
812.38	108.71
812.559	125.1
812.737	184.49
812.916	184.49
813.095	196.78
813.274	174.25
813.453	266.41
813.632	237.74
813.811	293.03
813.989	176.3
814.168	233.64
814.347	159.91
814.526	135.34
814.704	184.49
814.883	182.44
815.062	168.1
815.24	239.78
815.419	164.01
815.598	215.21
815.776	125.1
815.955	188.58
816.133	161.96
816.312	178.34
816.49	200.87
816.669	133.29
816.847	157.86
817.026	157.86
817.204	133.29
817.383	149.67
817.561	149.67
817.74	151.72
817.918	192.68
818.097	127.14
818.275	114.86
818.453	211.11
818.632	174.25
818.81	112.81
818.988	149.67
819.167	143.53
819.345	114.86
819.523	108.71
819.701	145.58
819.879	118.95
820.058	147.62
820.236	141.48
820.414	194.73
820.592	157.86
820.77	159.91
820.948	98.47
821.127	137.38
821.305	90.28
821.483	90.28
821.661	215.21
821.839	153.77
822.017	121
822.195	168.1
822.373	151.72
822.551	139.43
822.729	143.53
822.907	86.19
823.085	143.53
823.262	116.9
823.44	192.68
823.618	190.63
823.796	123.05
823.974	77.99
824.152	135.34
824.329	61.61
824.507	192.68
824.685	123.05
824.863	34.99
825.04	104.62
825.218	65.71
825.396	45.23
825.574	77.99
825.751	139.43
825.929	94.38
826.107	28.84
826.284	118.95
826.462	110.76
826.639	51.37
826.817	34.99
826.994	168.1
827.172	45.23
827.349	125.1
827.527	94.38
827.704	127.14
827.882	172.2
828.059	112.81
828.237	114.86
828.414	127.14
828.591	24.75
828.769	157.86
828.946	69.8
829.124	112.81
829.301	131.24
829.478	57.51
829.655	102.57
829.833	94.38
830.01	73.9
830.187	153.77
830.364	98.47
830.542	151.72
830.719	53.42
830.896	149.67
831.073	116.9
831.25	121
831.427	82.09
831.604	94.38
831.782	116.9
831.959	108.71
832.136	129.19
832.313	71.85
832.49	118.95
832.667	118.95
832.844	51.37
833.021	121
833.198	139.43
833.374	153.77
833.551	67.75
833.728	59.56
833.905	98.47
834.082	98.47
834.259	77.99
834.436	155.82
834.612	90.28
834.789	75.95
834.966	104.62
835.143	133.29
835.319	73.9
835.496	102.57
835.673	118.95
835.85	94.38
836.026	108.71
836.203	90.28
836.38	98.47
836.556	75.95
836.733	22.7
836.909	118.95
837.086	57.51
837.262	47.27
837.439	88.23
837.616	45.23
837.792	43.18
837.968	135.34
838.145	20.65
838.321	108.71
838.498	-10.07
838.674	102.57
838.851	61.61
839.027	86.19
839.203	41.13
839.38	88.23
839.556	65.71
839.732	59.56
839.909	77.99
840.085	102.57
840.261	82.09
840.437	108.71
840.614	71.85
840.79	45.23
840.966	14.51
841.142	125.1
841.318	137.38
841.494	69.8
841.671	16.55
841.847	18.6
842.023	10.41
842.199	28.84
842.375	168.1
842.551	16.55
842.727	77.99
842.903	77.99
843.079	-22.36
843.255	143.53
843.431	-53.08
843.607	28.84
843.783	-69.46
843.959	69.8
844.134	12.46
844.31	51.37
844.486	90.28
844.662	84.14
844.838	110.76
845.013	-40.79
845.189	77.99
845.365	90.28
845.541	4.27
845.716	20.65
845.892	90.28
846.068	28.84
846.244	61.61
846.419	20.65
846.595	20.65
846.77	14.51
846.946	34.99
847.122	37.03
847.297	-38.74
847.473	84.14
847.648	45.23
847.824	24.75
847.999	32.94
848.175	-3.93
848.35	106.67
848.526	110.76
848.701	71.85
848.876	61.61
849.052	34.99
849.227	49.32
849.403	37.03
849.578	67.75
849.753	45.23
849.929	73.9
850.104	49.32
850.279	24.75
850.454	88.23
850.63	32.94
850.805	73.9
850.98	45.23
851.155	80.04
851.33	61.61
851.505	0.17
851.681	39.08
851.856	8.36
852.031	8.36
852.206	34.99
852.381	-12.12
852.556	43.18
852.731	47.27
852.906	80.04
853.081	2.22
853.256	92.33
853.431	28.84
853.606	20.65
853.781	4.27
853.956	-16.21
854.131	24.75
854.305	37.03
854.48	-57.17
854.655	-40.79
854.83	84.14
855.005	41.13
855.18	14.51
855.354	-8.02
855.529	65.71
855.704	80.04
855.879	37.03
856.053	-1.88
856.228	37.03
856.403	30.89
856.577	37.03
856.752	32.94
856.926	24.75
857.101	-46.93
857.276	-12.12
857.45	-5.97
857.625	-14.17
857.799	77.99
857.974	34.99
858.148	-48.98
858.323	65.71
858.497	51.37
858.672	2.22
858.846	37.03
859.02	2.22
859.195	30.89
859.369	10.41
859.543	24.75
859.718	59.56
859.892	12.46
860.066	37.03
860.241	2.22
860.415	-8.02
860.589	20.65
860.763	-36.69
860.938	-20.31
861.112	41.13
861.286	-38.74
861.46	30.89
861.634	16.55
861.808	32.94
861.982	-28.5
862.157	45.23
862.331	16.55
862.505	-12.12
862.679	16.55
862.853	28.84
863.027	67.75
863.201	157.86
863.375	-32.6
863.549	-24.4
863.722	57.51
863.896	96.43
864.07	12.46
864.244	34.99
864.418	59.56
864.592	10.41
864.766	39.08
864.939	20.65
865.113	-38.74
865.287	41.13
865.461	77.99
865.634	65.71
865.808	2.22
865.982	43.18
866.156	-73.56
866.329	37.03
866.503	-12.12
866.676	80.04
866.85	43.18
867.024	-32.6
867.197	57.51
867.371	53.42
867.544	77.99
867.718	-22.36
867.891	73.9
868.065	51.37
868.238	-26.45
868.412	37.03
868.585	-32.6
868.759	18.6
868.932	-65.36
869.105	0.17
869.279	49.32
869.452	-32.6
869.625	8.36
869.799	-69.46
869.972	28.84
870.145	-16.21
870.319	18.6
870.492	65.71
870.665	0.17
870.838	-8.02
871.011	-46.93
871.185	24.75
871.358	-3.93
871.531	41.13
871.704	16.55
871.877	-5.97
872.05	4.27
872.223	51.37
872.396	-36.69
872.569	28.84
872.742	-61.27
872.915	26.79
873.088	20.65
873.261	-10.07
873.434	41.13
873.607	12.46
873.78	-22.36
873.953	63.66
874.126	-8.02
874.299	28.84
874.471	47.27
874.644	47.27
874.817	8.36
874.99	12.46
875.163	8.36
875.335	30.89
875.508	32.94
875.681	8.36
875.853	-20.31
876.026	4.27
876.199	10.41
876.371	34.99
876.544	-30.55
876.717	-14.17
876.889	-16.21
877.062	80.04
877.234	26.79
877.407	-36.69
877.579	-30.55
877.752	102.57
877.924	-38.74
878.097	24.75
878.269	-16.21
878.442	-51.03
878.614	77.99
878.786	20.65
878.959	-28.5
879.131	0.17
879.303	-48.98
879.476	37.03
879.648	-24.4
879.82	-53.08
879.993	77.99
880.165	-14.17
880.337	-48.98
880.509	-42.84
880.681	-28.5
880.854	-14.17
881.026	8.36
881.198	20.65
881.37	-44.88
881.542	10.41
881.714	53.42
881.886	-22.36
882.058	26.79
882.23	-51.03
882.402	34.99
882.574	-42.84
882.746	10.41
882.918	110.76
883.09	-12.12
883.262	57.51
883.434	-5.97
883.606	-18.26
883.778	0.17
883.95	34.99
884.122	34.99
884.293	6.31
884.465	-51.03
884.637	-44.88
884.809	0.17
884.98	41.13
885.152	-24.4
885.324	-42.84
885.496	-30.55
885.667	0.17
885.839	-10.07
886.011	51.37
886.182	-65.36
886.354	94.38
886.525	32.94
886.697	16.55
886.869	-14.17
887.04	-5.97
887.212	51.37
887.383	32.94
887.555	-26.45
887.726	-55.12
887.897	-32.6
888.069	-3.93
888.24	-20.31
888.412	-14.17
888.583	43.18
888.754	-20.31
888.926	-44.88
889.097	-65.36
889.268	20.65
889.44	51.37
889.611	8.36
889.782	30.89
889.953	4.27
890.125	57.51
890.296	8.36
890.467	2.22
890.638	61.61
890.809	16.55
890.98	-26.45
891.151	73.9
891.323	55.47
891.494	51.37
891.665	12.46
891.836	12.46
892.007	123.05
892.178	-32.6
892.349	37.03
892.52	0.17
892.691	-5.97
892.862	-67.41
893.032	-71.51
893.203	16.55
893.374	-28.5
893.545	-12.12
893.716	51.37
893.887	-24.4
894.057	-3.93
894.228	-65.36
894.399	39.08
894.57	102.57
894.74	-3.93
894.911	100.52
895.082	12.46
895.253	-30.55
895.423	51.37
895.594	-73.56
895.764	-24.4
895.935	-18.26
896.106	-28.5
896.276	-34.64
896.447	63.66
896.617	-3.93
896.788	51.37
896.958	-40.79
897.129	-14.17
897.299	51.37
897.47	-5.97
897.64	65.71
897.81	84.14
897.981	106.67
898.151	-53.08
898.322	26.79
898.492	43.18
898.662	16.55
898.832	-16.21
899.003	55.47
899.173	-44.88
899.343	-85.84
899.513	20.65
