Data from USB4F104151__11__10-20-38-225.txt Node

Date: Wed Mar 12 10:20:38 EDT 2025
User: louis
Spectrometer: USB4F10415
Trigger mode: 4
Integration Time (sec): 3.000000E-2
Scans to average: 1
Electric dark correction enabled: true
Nonlinearity correction enabled: false
Boxcar width: 0
XAxis mode: Wavelengths
Number of Pixels in Spectrum: 3648
>>>>>Begin Spectral Data<<<<<
178.204	-146.26
178.424	-146.26
178.644	-146.26
178.864	-140.12
179.084	-84.82
179.304	19.63
179.524	-29.52
179.744	-4.95
179.964	-4.95
180.184	-13.14
180.404	44.2
180.624	-4.95
180.844	-39.76
181.064	17.58
181.283	17.58
181.503	19.63
181.723	-21.33
181.943	-50
182.163	91.31
182.383	-45.91
182.602	56.49
182.822	74.92
183.042	-25.43
183.262	-43.86
183.482	13.48
183.701	-74.58
183.921	-72.53
184.141	29.87
184.361	5.29
184.58	-19.29
184.8	29.87
185.02	-9.05
185.239	-4.95
185.459	7.34
185.679	5.29
185.898	27.82
186.118	68.78
186.338	-2.9
186.557	21.67
186.777	-35.67
186.997	42.15
187.216	36.01
187.436	21.67
187.655	40.11
187.875	-23.38
188.095	40.11
188.314	60.59
188.534	40.11
188.753	19.63
188.973	-33.62
189.192	56.49
189.412	-9.05
189.631	5.29
189.851	85.16
190.07	19.63
190.29	-0.85
190.509	-9.05
190.729	-43.86
190.948	21.67
191.168	89.26
191.387	64.68
191.607	11.43
191.826	11.43
192.045	-33.62
192.265	-25.43
192.484	9.39
192.704	-50
192.923	-13.14
193.142	48.3
193.362	3.24
193.581	81.07
193.8	64.68
194.02	46.25
194.239	27.82
194.458	21.67
194.678	-21.33
194.897	-13.14
195.116	19.63
195.335	11.43
195.555	48.3
195.774	11.43
195.993	9.39
196.212	62.63
196.432	40.11
196.651	64.68
196.87	-15.19
197.089	-17.24
197.308	46.25
197.528	72.87
197.747	29.87
197.966	13.48
198.185	-23.38
198.404	52.39
198.623	31.91
198.842	-37.72
199.062	25.77
199.281	11.43
199.5	-25.43
199.719	-9.05
199.938	54.44
200.157	95.4
200.376	40.11
200.595	83.11
200.814	-52.05
201.033	-29.52
201.252	31.91
201.471	-62.29
201.69	11.43
201.909	42.15
202.128	33.96
202.347	76.97
202.566	-9.05
202.785	3.24
203.004	-54.1
203.223	62.63
203.442	-29.52
203.661	-70.48
203.879	31.91
204.098	-41.81
204.317	-52.05
204.536	-7
204.755	38.06
204.974	25.77
205.193	-50
205.411	19.63
205.63	-4.95
205.849	-41.81
206.068	13.48
206.287	64.68
206.505	50.35
206.724	27.82
206.943	-2.9
207.162	81.07
207.381	31.91
207.599	13.48
207.818	17.58
208.037	-41.81
208.255	31.91
208.474	7.34
208.693	11.43
208.911	9.39
209.13	11.43
209.349	23.72
209.567	40.11
209.786	48.3
210.005	54.44
210.223	-60.24
210.442	-37.72
210.661	40.11
210.879	-2.9
211.098	54.44
211.316	-9.05
211.535	-9.05
211.753	-2.9
211.972	-17.24
212.191	-17.24
212.409	40.11
212.628	68.78
212.846	25.77
213.065	-56.15
213.283	107.69
213.502	89.26
213.72	27.82
213.938	-74.58
214.157	19.63
214.375	-35.67
214.594	-9.05
214.812	15.53
215.031	-13.14
215.249	15.53
215.467	36.01
215.686	7.34
215.904	56.49
216.122	89.26
216.341	87.21
216.559	1.19
216.778	31.91
216.996	-25.43
217.214	54.44
217.432	29.87
217.651	-37.72
217.869	23.72
218.087	81.07
218.306	5.29
218.524	-9.05
218.742	15.53
218.96	1.19
219.179	36.01
219.397	3.24
219.615	56.49
219.833	31.91
220.051	81.07
220.27	27.82
220.488	-33.62
220.706	15.53
220.924	-19.29
221.142	31.91
221.36	21.67
221.578	42.15
221.796	7.34
222.015	23.72
222.233	-2.9
222.451	7.34
222.669	-25.43
222.887	3.24
223.105	19.63
223.323	11.43
223.541	-45.91
223.759	76.97
223.977	21.67
224.195	40.11
224.413	11.43
224.631	40.11
224.849	23.72
225.067	62.63
225.285	-35.67
225.503	-17.24
225.721	-41.81
225.939	27.82
226.157	11.43
226.375	144.55
226.592	13.48
226.81	-25.43
227.028	54.44
227.246	27.82
227.464	31.91
227.682	62.63
227.9	115.88
228.117	-4.95
228.335	25.77
228.553	15.53
228.771	23.72
228.989	-9.05
229.206	107.69
229.424	38.06
229.642	-93.01
229.86	50.35
230.077	-2.9
230.295	81.07
230.513	42.15
230.731	83.11
230.948	3.24
231.166	62.63
231.384	-9.05
231.601	5.29
231.819	-21.33
232.037	5.29
232.254	-9.05
232.472	15.53
232.689	60.59
232.907	-33.62
233.125	38.06
233.342	-17.24
233.56	1.19
233.777	17.58
233.995	-21.33
234.213	42.15
234.43	-70.48
234.648	15.53
234.865	42.15
235.083	105.64
235.3	27.82
235.518	33.96
235.735	23.72
235.953	58.54
236.17	-29.52
236.388	-95.06
236.605	72.87
236.822	13.48
237.04	101.55
237.257	33.96
237.475	-33.62
237.692	-17.24
237.909	83.11
238.127	25.77
238.344	101.55
238.562	7.34
238.779	38.06
238.996	-33.62
239.214	46.25
239.431	-11.09
239.648	25.77
239.865	19.63
240.083	76.97
240.3	68.78
240.517	11.43
240.735	58.54
240.952	70.83
241.169	60.59
241.386	3.24
241.603	-37.72
241.821	15.53
242.038	64.68
242.255	11.43
242.472	62.63
242.689	42.15
242.907	74.92
243.124	17.58
243.341	11.43
243.558	15.53
243.775	-2.9
243.992	-0.85
244.209	72.87
244.426	-13.14
244.643	97.45
244.86	29.87
245.078	27.82
245.295	13.48
245.512	25.77
245.729	91.31
245.946	-2.9
246.163	58.54
246.38	5.29
246.597	29.87
246.814	-4.95
247.031	48.3
247.248	19.63
247.464	60.59
247.681	1.19
247.898	48.3
248.115	89.26
248.332	-7
248.549	62.63
248.766	19.63
248.983	-2.9
249.2	-37.72
249.417	21.67
249.633	-15.19
249.85	52.39
250.067	15.53
250.284	46.25
250.501	33.96
250.717	27.82
250.934	-11.09
251.151	-33.62
251.368	13.48
251.585	81.07
251.801	-17.24
252.018	81.07
252.235	7.34
252.451	60.59
252.668	62.63
252.885	72.87
253.102	-82.77
253.318	44.2
253.535	21.67
253.752	-21.33
253.968	40.11
254.185	-37.72
254.401	48.3
254.618	-13.14
254.835	23.72
255.051	-17.24
255.268	19.63
255.484	9.39
255.701	-15.19
255.917	-15.19
256.134	-29.52
256.351	15.53
256.567	-2.9
256.784	25.77
257	-11.09
257.217	-27.48
257.433	-9.05
257.65	-13.14
257.866	50.35
258.082	130.22
258.299	-27.48
258.515	91.31
258.732	-25.43
258.948	27.82
259.165	50.35
259.381	74.92
259.597	64.68
259.814	19.63
260.03	42.15
260.246	36.01
260.463	-25.43
260.679	68.78
260.895	-2.9
261.112	40.11
261.328	-13.14
261.544	-19.29
261.761	89.26
261.977	-15.19
262.193	31.91
262.409	54.44
262.626	-29.52
262.842	44.2
263.058	-50
263.274	-23.38
263.49	-0.85
263.707	15.53
263.923	-0.85
264.139	15.53
264.355	31.91
264.571	111.78
264.787	-19.29
265.004	-33.62
265.22	54.44
265.436	-0.85
265.652	15.53
265.868	38.06
266.084	-17.24
266.3	52.39
266.516	5.29
266.732	3.24
266.948	-29.52
267.164	31.91
267.38	-21.33
267.596	31.91
267.812	97.45
268.028	-25.43
268.244	-33.62
268.46	54.44
268.676	81.07
268.892	31.91
269.108	29.87
269.324	1.19
269.54	-11.09
269.756	50.35
269.972	-0.85
270.188	-23.38
270.403	5.29
270.619	50.35
270.835	19.63
271.051	29.87
271.267	-33.62
271.483	-43.86
271.698	11.43
271.914	42.15
272.13	15.53
272.346	-0.85
272.562	74.92
272.777	25.77
272.993	-13.14
273.209	54.44
273.425	-33.62
273.64	-17.24
273.856	-7
274.072	25.77
274.287	50.35
274.503	27.82
274.719	29.87
274.934	9.39
275.15	44.2
275.366	-7
275.581	31.91
275.797	40.11
276.012	-0.85
276.228	29.87
276.444	3.24
276.659	107.69
276.875	5.29
277.09	25.77
277.306	17.58
277.521	-23.38
277.737	-66.39
277.952	44.2
278.168	-11.09
278.383	38.06
278.599	87.21
278.814	-2.9
279.03	-0.85
279.245	36.01
279.461	52.39
279.676	36.01
279.892	9.39
280.107	9.39
280.322	-64.34
280.538	9.39
280.753	-47.96
280.969	7.34
281.184	9.39
281.399	-0.85
281.615	17.58
281.83	1.19
282.045	3.24
282.26	23.72
282.476	52.39
282.691	54.44
282.906	85.16
283.122	33.96
283.337	38.06
283.552	-2.9
283.767	-41.81
283.983	72.87
284.198	-17.24
284.413	89.26
284.628	46.25
284.843	64.68
285.058	33.96
285.274	5.29
285.489	36.01
285.704	38.06
285.919	42.15
286.134	85.16
286.349	-17.24
286.564	-0.85
286.779	38.06
286.995	31.91
287.21	-72.53
287.425	85.16
287.64	3.24
287.855	50.35
288.07	19.63
288.285	3.24
288.5	85.16
288.715	5.29
288.93	-17.24
289.145	15.53
289.36	-7
289.575	7.34
289.79	29.87
290.004	-13.14
290.219	58.54
290.434	-23.38
290.649	5.29
290.864	-21.33
291.079	25.77
291.294	13.48
291.509	66.73
291.724	-31.57
291.938	-4.95
292.153	1.19
292.368	-11.09
292.583	50.35
292.798	31.91
293.012	68.78
293.227	-15.19
293.442	-21.33
293.657	85.16
293.871	-0.85
294.086	81.07
294.301	52.39
294.516	156.84
294.73	-0.85
294.945	-29.52
295.16	-15.19
295.374	68.78
295.589	81.07
295.804	-33.62
296.018	68.78
296.233	46.25
296.447	95.4
296.662	21.67
296.877	60.59
297.091	21.67
297.306	72.87
297.52	1.19
297.735	97.45
297.949	66.73
298.164	56.49
298.378	54.44
298.593	52.39
298.807	66.73
299.022	11.43
299.236	97.45
299.451	138.41
299.665	-0.85
299.88	60.59
300.094	68.78
300.309	7.34
300.523	23.72
300.737	17.58
300.952	11.43
301.166	60.59
301.381	-9.05
301.595	7.34
301.809	-0.85
302.024	-21.33
302.238	-23.38
302.452	50.35
302.667	1.19
302.881	-15.19
303.095	-35.67
303.309	-27.48
303.524	21.67
303.738	5.29
303.952	76.97
304.166	38.06
304.381	11.43
304.595	36.01
304.809	56.49
305.023	-13.14
305.237	31.91
305.452	40.11
305.666	76.97
305.88	-47.96
306.094	-7
306.308	21.67
306.522	64.68
306.736	25.77
306.95	68.78
307.164	15.53
307.379	-25.43
307.593	62.63
307.807	89.26
308.021	97.45
308.235	105.64
308.449	3.24
308.663	38.06
308.877	54.44
309.091	-29.52
309.305	60.59
309.519	-39.76
309.733	58.54
309.947	-13.14
310.161	-58.2
310.374	-29.52
310.588	60.59
310.802	3.24
311.016	25.77
311.23	5.29
311.444	31.91
311.658	15.53
311.872	1.19
312.085	44.2
312.299	-33.62
312.513	74.92
312.727	79.02
312.941	-43.86
313.154	-35.67
313.368	97.45
313.582	-0.85
313.796	31.91
314.009	50.35
314.223	60.59
314.437	7.34
314.651	13.48
314.864	-66.39
315.078	31.91
315.292	64.68
315.505	13.48
315.719	79.02
315.933	42.15
316.146	56.49
316.36	-25.43
316.573	115.88
316.787	-45.91
317.001	36.01
317.214	-35.67
317.428	23.72
317.641	36.01
317.855	5.29
318.068	23.72
318.282	72.87
318.495	3.24
318.709	85.16
318.922	-29.52
319.136	52.39
319.349	68.78
319.563	31.91
319.776	50.35
319.99	11.43
320.203	15.53
320.417	-19.29
320.63	21.67
320.843	76.97
321.057	13.48
321.27	40.11
321.483	5.29
321.697	38.06
321.91	15.53
322.124	7.34
322.337	11.43
322.55	-33.62
322.763	7.34
322.977	74.92
323.19	9.39
323.403	40.11
323.617	-35.67
323.83	19.63
324.043	25.77
324.256	23.72
324.469	15.53
324.683	25.77
324.896	-43.86
325.109	54.44
325.322	29.87
325.535	83.11
325.748	19.63
325.962	-54.1
326.175	42.15
326.388	48.3
326.601	-27.48
326.814	44.2
327.027	23.72
327.24	103.59
327.453	-41.81
327.666	52.39
327.879	52.39
328.092	9.39
328.305	101.55
328.518	15.53
328.731	74.92
328.944	-15.19
329.157	-80.72
329.37	23.72
329.583	66.73
329.796	68.78
330.009	-74.58
330.222	23.72
330.435	76.97
330.648	-43.86
330.861	56.49
331.073	27.82
331.286	13.48
331.499	31.91
331.712	-0.85
331.925	11.43
332.138	-25.43
332.35	52.39
332.563	-17.24
332.776	36.01
332.989	-9.05
333.202	-41.81
333.414	38.06
333.627	56.49
333.84	21.67
334.053	-62.29
334.265	-7
334.478	64.68
334.691	60.59
334.903	5.29
335.116	40.11
335.329	5.29
335.541	31.91
335.754	-11.09
335.966	-33.62
336.179	17.58
336.392	25.77
336.604	101.55
336.817	52.39
337.029	7.34
337.242	29.87
337.454	23.72
337.667	44.2
337.88	113.83
338.092	85.16
338.305	64.68
338.517	38.06
338.729	79.02
338.942	72.87
339.154	-9.05
339.367	-37.72
339.579	-2.9
339.792	36.01
340.004	87.21
340.217	44.2
340.429	27.82
340.641	19.63
340.854	23.72
341.066	7.34
341.278	99.5
341.491	60.59
341.703	-0.85
341.915	79.02
342.128	40.11
342.34	1.19
342.552	-9.05
342.764	-25.43
342.977	-0.85
343.189	31.91
343.401	36.01
343.613	-33.62
343.826	52.39
344.038	13.48
344.25	-25.43
344.462	-11.09
344.674	5.29
344.886	76.97
345.099	-0.85
345.311	-19.29
345.523	38.06
345.735	19.63
345.947	11.43
346.159	-9.05
346.371	64.68
346.583	-2.9
346.795	64.68
347.007	-9.05
347.219	48.3
347.431	48.3
347.643	91.31
347.855	9.39
348.067	29.87
348.279	27.82
348.491	111.78
348.703	21.67
348.915	5.29
349.127	-11.09
349.339	89.26
349.551	15.53
349.763	52.39
349.975	29.87
350.187	44.2
350.399	52.39
350.61	31.91
350.822	-25.43
351.034	81.07
351.246	-17.24
351.458	23.72
351.669	1.19
351.881	66.73
352.093	15.53
352.305	-7
352.517	70.83
352.728	113.83
352.94	72.87
353.152	-17.24
353.363	3.24
353.575	46.25
353.787	64.68
353.999	40.11
354.21	52.39
354.422	64.68
354.633	36.01
354.845	-29.52
355.057	62.63
355.268	-45.91
355.48	50.35
355.692	52.39
355.903	68.78
356.115	-9.05
356.326	-17.24
356.538	89.26
356.749	48.3
356.961	50.35
357.172	-29.52
357.384	23.72
357.595	79.02
357.807	-9.05
358.018	-9.05
358.23	40.11
358.441	99.5
358.653	89.26
358.864	1.19
359.075	-9.05
359.287	29.87
359.498	124.07
359.709	38.06
359.921	-66.39
360.132	60.59
360.344	64.68
360.555	-29.52
360.766	38.06
360.977	54.44
361.189	19.63
361.4	105.64
361.611	50.35
361.823	144.55
362.034	7.34
362.245	40.11
362.456	-0.85
362.667	27.82
362.879	7.34
363.09	72.87
363.301	33.96
363.512	21.67
363.723	44.2
363.935	60.59
364.146	117.93
364.357	-58.2
364.568	103.59
364.779	-27.48
364.99	144.55
365.201	23.72
365.412	62.63
365.623	36.01
365.834	38.06
366.045	29.87
366.256	52.39
366.467	33.96
366.678	79.02
366.889	107.69
367.1	46.25
367.311	62.63
367.522	-25.43
367.733	46.25
367.944	42.15
368.155	81.07
368.366	66.73
368.577	60.59
368.788	136.36
368.999	44.2
369.209	64.68
369.42	81.07
369.631	36.01
369.842	62.63
370.053	101.55
370.264	-2.9
370.474	-19.29
370.685	72.87
370.896	-25.43
371.107	21.67
371.317	60.59
371.528	15.53
371.739	83.11
371.95	13.48
372.16	50.35
372.371	-0.85
372.582	38.06
372.792	70.83
373.003	19.63
373.214	56.49
373.424	72.87
373.635	48.3
373.846	-13.14
374.056	72.87
374.267	126.12
374.477	27.82
374.688	48.3
374.898	36.01
375.109	-19.29
375.319	-33.62
375.53	70.83
375.74	5.29
375.951	-33.62
376.161	-0.85
376.372	97.45
376.582	76.97
376.793	-17.24
377.003	17.58
377.214	-27.48
377.424	46.25
377.635	119.98
377.845	72.87
378.055	9.39
378.266	19.63
378.476	21.67
378.686	27.82
378.897	93.35
379.107	46.25
379.317	58.54
379.528	36.01
379.738	-0.85
379.948	-25.43
380.158	101.55
380.369	38.06
380.579	-2.9
380.789	17.58
380.999	23.72
381.21	87.21
381.42	107.69
381.63	-7
381.84	89.26
382.05	128.17
382.261	38.06
382.471	68.78
382.681	81.07
382.891	50.35
383.101	19.63
383.311	46.25
383.521	-0.85
383.731	85.16
383.941	44.2
384.151	50.35
384.361	-37.72
384.571	-31.57
384.781	122.02
384.991	5.29
385.201	58.54
385.411	19.63
385.621	36.01
385.831	21.67
386.041	60.59
386.251	74.92
386.461	93.35
386.671	76.97
386.881	19.63
387.091	64.68
387.301	19.63
387.511	27.82
387.72	29.87
387.93	52.39
388.14	17.58
388.35	52.39
388.56	40.11
388.769	144.55
388.979	81.07
389.189	5.29
389.399	85.16
389.609	64.68
389.818	62.63
390.028	-0.85
390.238	160.94
390.447	52.39
390.657	58.54
390.867	62.63
391.076	72.87
391.286	29.87
391.496	1.19
391.705	50.35
391.915	115.88
392.125	72.87
392.334	54.44
392.544	62.63
392.753	46.25
392.963	7.34
393.172	3.24
393.382	56.49
393.591	103.59
393.801	17.58
394.01	95.4
394.22	-41.81
394.429	122.02
394.639	64.68
394.848	87.21
395.058	74.92
395.267	136.36
395.477	76.97
395.686	79.02
395.895	99.5
396.105	40.11
396.314	91.31
396.524	122.02
396.733	38.06
396.942	103.59
397.152	60.59
397.361	64.68
397.57	179.37
397.78	64.68
397.989	95.4
398.198	154.79
398.407	74.92
398.617	76.97
398.826	87.21
399.035	81.07
399.244	91.31
399.453	89.26
399.663	136.36
399.872	134.31
400.081	48.3
400.29	44.2
400.499	52.39
400.708	142.5
400.917	177.32
401.127	85.16
401.336	154.79
401.545	119.98
401.754	187.56
401.963	111.78
402.172	105.64
402.381	95.4
402.59	7.34
402.799	81.07
403.008	130.22
403.217	81.07
403.426	138.41
403.635	122.02
403.844	128.17
404.053	109.74
404.262	119.98
404.471	173.22
404.68	203.94
404.888	122.02
405.097	76.97
405.306	95.4
405.515	177.32
405.724	134.31
405.933	208.04
406.142	154.79
406.35	197.8
406.559	175.27
406.768	212.14
406.977	273.57
407.185	208.04
407.394	183.46
407.603	263.33
407.812	261.29
408.02	249
408.229	197.8
408.438	212.14
408.646	169.13
408.855	232.62
409.064	277.67
409.272	267.43
409.481	287.91
409.69	261.29
409.898	253.09
410.107	261.29
410.315	339.11
410.524	365.73
410.733	337.06
410.941	400.55
411.15	412.84
411.358	392.36
411.567	484.52
411.775	470.18
411.984	398.5
412.192	472.23
412.401	447.65
412.609	527.52
412.818	525.47
413.026	498.85
413.234	582.82
413.443	562.34
413.651	574.63
413.86	545.95
414.068	687.26
414.276	697.5
414.485	609.44
414.693	695.46
414.901	765.09
415.11	728.22
415.318	744.61
415.526	828.57
415.734	767.13
415.943	844.96
416.151	904.35
416.359	847.01
416.567	953.5
416.776	1019.04
416.984	1055.9
417.192	1117.34
417.4	1012.89
417.608	1129.63
417.817	1141.91
418.025	1129.63
418.233	1258.65
418.441	1191.06
418.649	1289.37
418.857	1342.61
419.065	1408.15
419.273	1408.15
419.481	1373.33
419.689	1416.34
419.897	1600.66
420.105	1612.95
420.313	1598.61
420.521	1776.78
420.729	1750.16
420.937	1758.35
421.145	1899.66
421.353	2067.6
421.561	2020.49
421.769	2194.57
421.977	2157.71
422.185	2159.75
422.393	2258.06
422.601	2501.76
422.809	2452.61
423.017	2489.48
423.224	2548.87
423.432	2677.89
423.64	2747.52
423.848	2894.97
424.056	2899.07
424.263	2968.7
424.471	2989.18
424.679	3243.13
424.887	3341.43
425.094	3476.6
425.302	3456.12
425.51	3630.2
425.718	3701.87
425.925	3714.16
426.133	3814.51
426.341	4009.07
426.548	4179.05
426.756	4211.82
426.964	4174.95
427.171	4418.66
427.379	4656.23
427.586	4742.24
427.794	4770.91
428.001	4955.23
428.209	5323.87
428.417	5323.87
428.624	5618.77
428.832	5592.15
429.039	5520.47
429.247	5549.14
429.454	6081.61
429.662	6417.48
429.869	6141
430.076	6562.89
430.284	6462.54
430.491	6609.99
430.699	6884.42
430.906	7011.39
431.114	7124.03
431.321	7208
431.528	7445.56
431.736	8031.28
431.943	8250.41
432.15	8129.58
432.358	8227.89
432.565	8514.6
432.772	8432.68
432.979	8961.06
433.187	9094.18
433.394	9114.66
433.601	9839.64
433.808	9749.53
434.016	9837.59
434.223	10146.83
434.43	10873.86
434.637	10654.73
434.844	11211.78
435.052	11576.31
435.259	11389.95
435.466	11418.62
435.673	11432.96
435.88	12112.88
436.087	12774.38
436.294	12952.55
436.501	12479.47
436.708	12729.32
436.915	13059.04
437.122	13624.28
437.329	13743.06
437.537	14054.36
437.743	14408.65
437.95	14318.54
438.157	15053.76
438.364	15768.51
438.571	15559.61
438.778	15616.96
438.985	16946.09
439.192	16550.83
439.399	16812.97
439.606	16513.97
439.813	17382.31
440.02	18543.5
440.227	18060.18
440.433	18051.99
440.64	18629.52
440.847	18295.7
441.054	19053.45
441.261	20398.96
441.467	19805.05
441.674	20122.49
441.881	20724.59
442.088	20874.09
442.294	20958.06
442.501	21275.49
442.708	21810.01
442.914	22555.47
443.121	23536.45
443.328	22883.15
443.534	24580.92
443.741	23751.49
443.948	23499.59
444.154	25248.55
444.361	24781.62
444.568	25215.79
444.774	25455.4
444.981	25441.06
445.187	26374.94
445.394	27247.37
445.6	26825.49
445.807	29489.9
446.013	28175.1
446.22	28644.09
446.426	29919.97
446.633	29864.67
446.839	31003.35
447.046	29704.93
447.252	31314.64
447.459	31361.74
447.665	31425.23
447.871	32885.43
448.078	34038.44
448.284	31949.51
448.491	33311.41
448.697	34402.97
448.903	35254.93
449.11	34851.48
449.316	34325.15
449.522	35386
449.728	35828.36
449.935	36424.32
450.141	36039.3
450.347	37085.81
450.553	35680.91
450.76	35914.37
450.966	37192.31
451.172	36932.22
451.378	37587.57
451.584	37225.07
451.791	37794.41
451.997	37489.26
452.203	37780.07
452.409	38187.62
452.615	38060.65
452.821	36614.78
453.027	36045.44
453.233	38031.97
453.44	36663.93
453.646	36758.14
453.852	37083.76
454.058	37546.61
454.264	36252.29
454.47	37479.02
454.676	36135.56
454.882	37298.8
455.088	34153.12
455.294	34691.74
455.5	34869.91
455.705	35435.15
455.911	33708.71
456.117	33329.84
456.323	32617.14
456.529	30712.53
456.735	32150.21
456.941	31439.56
457.147	30872.28
457.352	30307.04
457.558	29649.64
457.764	29485.8
457.97	28967.66
458.176	28629.75
458.381	28238.59
458.587	27063.05
458.793	27108.11
458.999	25578.28
459.204	27603.72
459.41	26737.43
459.616	25160.49
459.821	24982.32
460.027	24965.93
460.233	24306.49
460.438	23300.94
460.644	23391.05
460.85	22616.91
461.055	21910.36
461.261	21971.8
461.466	20200.31
461.672	19657.6
461.878	21246.82
462.083	19846.01
462.289	19667.84
462.494	19176.33
462.7	18221.97
462.905	17785.76
463.111	18416.53
463.316	18502.54
463.522	18015.13
463.727	18297.75
463.932	18176.92
464.138	17984.41
464.343	17847.19
464.549	17546.14
464.754	17980.31
464.959	17959.83
465.165	17822.62
465.37	17177.51
465.575	16661.42
465.781	17279.91
465.986	17568.67
466.191	16653.23
466.397	16520.11
466.602	15694.78
466.807	16315.31
467.012	16157.62
467.218	16157.62
467.423	16096.18
467.628	16368.56
467.833	16950.18
468.038	16100.28
468.244	15576
468.449	16235.44
468.654	15766.46
468.859	15459.26
469.064	15522.75
469.269	14846.92
469.474	14873.54
469.679	15162.31
469.885	14699.47
470.09	14779.34
470.295	15100.87
470.5	14607.31
470.705	14656.46
470.91	14375.89
471.115	14199.76
471.32	14326.74
471.525	14375.89
471.73	14177.23
471.935	13665.24
472.139	13523.93
472.344	13534.17
472.549	13620.19
472.754	13405.15
472.959	12985.32
473.164	12827.62
473.369	12676.07
473.574	13106.15
473.778	12956.64
473.983	13009.89
474.188	12778.47
474.393	12352.49
474.598	12352.49
474.802	12030.96
475.007	12133.36
475.212	11910.13
475.417	11598.84
475.621	11658.23
475.826	11596.79
476.031	11496.44
476.235	11582.46
476.44	11228.16
476.645	11273.21
476.849	11119.62
477.054	11146.24
477.259	11002.88
477.463	10951.68
477.668	10716.17
477.872	10890.24
478.077	10503.18
478.282	10669.06
478.486	10451.98
478.691	10472.46
478.895	10234.89
479.1	10333.2
479.304	10142.74
479.509	9823.25
479.713	10142.74
479.918	9737.24
480.122	9810.96
480.326	9872.4
480.531	9792.53
480.735	9763.86
480.94	9755.67
481.144	9757.72
481.348	9483.29
481.553	9767.96
481.757	9567.26
481.961	9690.13
482.166	9751.57
482.37	9626.65
482.574	9456.67
482.778	9475.1
482.983	9548.82
483.187	9483.29
483.391	9622.55
483.595	9532.44
483.8	9223.2
484.004	9483.29
484.208	9669.66
484.412	9518.11
484.616	9671.7
484.821	9534.49
485.025	9358.36
485.229	9468.95
485.433	9427.99
485.637	9540.63
485.841	9329.69
486.045	9399.32
486.249	9360.41
486.453	9362.46
486.657	9571.35
486.861	9546.78
487.065	9243.68
487.269	9542.68
487.473	9133.09
487.677	9284.64
487.881	9446.43
488.085	9499.67
488.289	9485.34
488.493	9436.19
488.697	9497.63
488.901	9348.12
489.105	9616.41
489.309	9557.02
489.512	9608.22
489.716	9663.51
489.92	9683.99
490.124	9503.77
490.328	9843.73
490.531	9571.35
490.735	9710.61
490.939	9862.16
491.143	9640.98
491.346	9604.12
491.55	9780.25
491.754	9894.93
491.958	9946.13
492.161	10005.52
492.365	9866.26
492.569	9901.08
492.772	10026
492.976	10179.6
493.18	10282
493.383	10327.05
493.587	10451.98
493.79	10570.76
493.994	10273.81
494.197	10394.64
494.401	10451.98
494.605	10648.58
494.808	10853.38
495.012	10591.24
495.215	10875.91
495.419	11099.14
495.622	11054.08
495.825	11058.18
496.029	11076.61
496.232	11308.03
496.436	11451.39
496.639	11740.15
496.843	11543.55
497.046	11709.43
497.249	11768.82
497.453	11985.91
497.656	12026.87
497.859	11967.48
498.063	12237.81
498.266	12450.8
498.469	12485.61
498.673	12559.34
498.876	12631.02
499.079	12856.29
499.282	13032.42
499.485	13173.73
499.689	13239.26
499.892	13487.07
500.095	13503.45
500.298	13876.18
500.501	13779.93
500.705	14203.86
500.908	14119.89
501.111	14406.61
501.314	14486.48
501.517	14472.14
501.72	14793.67
501.923	14855.11
502.126	15184.83
502.329	15315.9
502.532	15356.86
502.735	15436.74
502.938	15776.7
503.141	15870.9
503.344	16413.62
503.547	16163.76
503.75	16511.92
503.953	16360.37
504.156	16876.46
504.359	16941.99
504.562	17093.54
504.765	17509.28
504.968	17642.4
505.17	17863.58
505.373	18031.51
505.576	18127.77
505.779	18269.08
505.982	18414.48
506.185	18668.43
506.387	18920.33
506.59	19139.46
506.793	19387.27
506.996	19448.71
507.198	19878.78
507.401	19991.42
507.604	20132.73
507.807	20276.09
508.009	20478.83
508.212	20820.84
508.415	20964.2
508.617	21232.49
508.82	21078.89
509.022	21070.7
509.225	22121.31
509.428	21963.61
509.63	22414.16
509.833	22352.73
510.035	22700.88
510.238	22602.58
510.44	22895.44
510.643	23444.29
510.845	23376.71
511.048	23628.61
511.25	23841.6
511.453	24062.78
511.655	25010.99
511.858	24800.05
512.06	24857.39
512.262	25316.14
512.465	25258.79
512.667	25918.24
512.87	26065.69
513.072	25873.18
513.274	26317.59
513.477	26839.83
513.679	27087.63
513.881	27269.9
514.084	27370.25
514.286	27540.23
514.488	27808.51
514.69	28492.54
514.893	28474.1
515.095	28639.99
515.297	28893.94
515.499	28883.7
515.701	29285.1
515.904	29768.42
516.106	30223.07
516.308	30335.71
516.51	30700.25
516.712	30810.84
516.914	31101.65
517.116	31627.98
517.318	31505.1
517.52	31683.27
517.722	31838.92
517.925	32221.89
518.127	32869.05
518.329	33047.22
518.531	32766.65
518.733	33614.51
518.935	33911.46
519.136	34136.74
519.338	34466.46
519.54	34564.76
519.742	34978.45
519.944	34898.58
520.146	35687.05
520.348	35725.96
520.55	35945.09
520.752	36307.58
520.954	36496
521.155	36471.42
521.357	36915.83
521.559	37554.8
521.761	38136.42
521.963	37603.95
522.164	38126.18
522.366	38072.93
522.568	38546.01
522.77	38888.03
522.971	39062.1
523.173	39101.01
523.375	39553.62
523.576	39871.05
523.778	39723.6
523.98	40612.41
524.181	40823.36
524.383	40776.25
524.584	41349.68
524.786	41112.12
524.988	41198.13
525.189	41384.5
525.391	41714.22
525.592	42103.34
525.794	42287.65
525.995	42596.9
526.197	42433.06
526.398	42539.55
526.6	42861.08
526.801	43278.87
527.003	43649.55
527.204	43514.39
527.406	44044.81
527.607	43520.53
527.808	44356.1
528.01	43557.39
528.211	43803.15
528.412	44683.78
528.614	44581.38
528.815	44671.49
529.016	45343.22
529.218	44362.25
529.419	45093.37
529.62	45277.69
529.822	44792.32
530.023	45378.04
530.224	45685.23
530.425	45185.53
530.626	45445.62
530.828	45185.53
531.029	46365.16
531.23	45804.02
531.431	45824.5
531.632	45937.13
531.833	46211.56
532.035	46105.07
532.236	46330.34
532.437	46627.3
532.638	46146.03
532.839	46774.75
533.04	46467.56
533.241	45791.73
533.442	46934.49
533.643	46543.33
533.844	46547.43
534.045	46653.92
534.246	46025.2
534.447	46895.58
534.648	46836.19
534.849	46672.35
535.05	46600.68
535.251	47057.37
535.451	46793.18
535.652	47030.75
535.853	47065.56
536.054	47104.48
536.255	47075.8
536.456	46485.99
536.657	47563.22
536.857	46739.94
537.058	46770.66
537.259	47049.18
537.46	46811.62
537.66	46655.97
537.861	47202.78
538.062	47120.86
538.263	46774.75
538.463	46834.14
538.664	47090.14
538.865	46535.14
539.065	47505.88
539.266	46598.63
539.466	47952.33
539.667	46498.28
539.868	47466.97
540.068	46778.85
540.269	46981.6
540.469	46979.55
540.67	46698.98
540.87	47366.62
541.071	47045.08
541.271	46860.77
541.472	47260.12
541.672	46664.16
541.873	47104.48
542.073	46445.03
542.274	47348.18
542.474	47192.54
542.675	46555.62
542.875	47147.48
543.075	46688.74
543.276	46199.27
543.476	47182.3
543.676	46121.45
543.877	47272.41
544.077	47417.82
544.277	46547.43
544.478	46957.02
544.678	47108.57
544.878	47124.96
545.078	46924.25
545.279	46645.73
545.479	46434.79
545.679	46819.81
545.879	46819.81
546.079	46744.03
546.28	46539.24
546.48	46416.36
546.68	46975.45
546.88	47032.8
547.08	46692.83
547.28	46916.06
547.48	46391.78
547.68	46555.62
547.88	46406.12
548.081	47272.41
548.281	46485.99
548.481	46649.83
548.681	46877.15
548.881	46817.76
549.081	46510.56
549.28	46600.68
549.48	46957.02
549.68	46080.49
549.88	47116.76
550.08	46588.39
550.28	46866.91
550.48	46440.93
550.68	47067.61
550.88	46418.41
551.08	46707.17
551.279	46594.53
551.479	46502.37
551.679	46471.65
551.879	46547.43
552.079	46363.11
552.278	46199.27
552.478	46557.67
552.678	46428.65
552.878	46891.49
553.077	46006.76
553.277	46041.58
553.477	46830.05
553.676	46326.25
553.876	46580.2
554.076	45873.65
554.275	46033.39
554.475	45486.58
554.674	46172.65
554.874	46440.93
555.074	46006.76
555.273	46158.31
555.473	46236.14
555.672	45638.13
555.872	45885.93
556.071	46141.93
556.271	45986.28
556.47	45808.11
556.67	45607.41
556.869	45646.32
557.068	45578.74
557.268	45355.51
557.467	45089.27
557.667	45539.83
557.866	45330.93
558.065	45478.39
558.265	44909.05
558.464	45228.54
558.663	45402.61
558.863	44593.67
559.062	45693.43
559.261	44921.34
559.461	45570.55
559.66	44724.74
559.859	44786.18
560.058	44372.49
560.258	44966.4
560.457	44347.91
560.656	44833.28
560.855	44667.39
561.054	44575.23
561.253	44188.17
561.453	44737.02
561.652	44593.67
561.851	44532.23
562.05	43928.08
562.249	44241.42
562.448	43995.66
562.647	44114.44
562.846	43803.15
563.045	43749.9
563.244	43153.94
563.443	44200.46
563.642	43069.98
563.841	43160.09
564.04	43422.23
564.239	43510.29
564.438	43069.98
564.637	43149.85
564.836	43196.95
565.035	42689.06
565.234	42797.6
565.432	42226.21
565.631	42562.08
565.83	42553.89
566.029	42590.75
566.228	41873.96
566.427	42228.26
566.625	41742.89
566.824	41271.86
567.023	41853.48
567.222	41167.41
567.42	42027.56
567.619	41726.51
567.818	41423.41
568.016	40950.33
568.215	41861.68
568.414	41228.85
568.612	41744.94
568.811	41345.59
569.01	41323.06
569.208	40737.34
569.407	41112.12
569.605	40526.4
569.804	40661.57
570.002	40079.94
570.201	40688.19
570.4	40227.4
570.598	39811.66
570.797	39881.29
570.995	40243.78
571.193	39285.33
571.392	40092.23
571.59	39213.65
571.789	39574.09
571.987	39547.47
572.186	39477.84
572.384	39424.59
572.582	39402.07
572.781	39352.91
572.979	38634.08
573.177	38842.97
573.376	38879.83
573.574	38730.33
573.772	38849.11
573.971	38247.01
574.169	38351.46
574.367	38113.89
574.565	38664.8
574.763	38525.53
574.962	38064.74
575.16	37884.52
575.358	38210.15
575.556	37681.77
575.754	37966.44
575.952	37503.6
576.151	37692.01
576.349	37259.89
576.547	37306.99
576.745	36983.41
576.943	37405.3
577.141	37139.06
577.339	36899.45
577.537	36541.05
577.735	36672.12
577.933	36424.32
578.131	36668.03
578.329	36346.5
578.527	35857.03
578.725	36125.32
578.923	36399.74
579.121	35795.59
579.319	35848.84
579.516	36340.35
579.714	35957.38
579.912	35678.86
580.11	35863.18
580.308	35445.39
580.506	35377.81
580.704	35295.89
580.901	35488.4
581.099	35334.8
581.297	34888.34
581.495	35138.19
581.692	34904.73
581.89	34661.02
582.088	34804.38
582.285	34581.15
582.483	34880.15
582.681	34409.12
582.878	34298.53
583.076	34097.83
583.274	34239.14
583.471	33858.21
583.669	34376.35
583.866	34009.76
584.064	34048.68
584.262	33309.36
584.459	33505.96
584.657	33657.51
584.854	33964.71
585.052	32723.64
585.249	33518.25
585.447	33477.29
585.644	32987.83
585.841	33022.64
586.039	33075.89
586.236	32666.3
586.434	32737.98
586.631	32656.06
586.828	32434.88
587.026	32631.48
587.223	32461.5
587.42	32428.73
587.618	32496.31
587.815	32012.99
588.012	31754.95
588.21	31908.55
588.407	31900.36
588.604	31969.99
588.801	31382.22
588.999	31666.89
589.196	31281.87
589.393	31384.27
589.59	31505.1
589.787	30964.43
589.984	30939.86
590.182	30894.8
590.379	31158.99
590.576	31011.54
590.773	30931.67
590.97	30706.39
591.167	30798.55
591.364	30231.26
591.561	30452.44
591.758	30464.73
591.955	30354.14
592.152	30345.95
592.349	29993.7
592.546	30001.89
592.743	30034.66
592.94	29405.93
593.137	29870.82
593.334	29995.74
593.531	29270.76
593.727	29428.46
593.924	29403.88
594.121	29297.39
594.318	29543.14
594.515	28836.59
594.712	29383.4
594.908	29010.67
595.105	29262.57
595.302	28656.37
595.499	28635.89
595.696	28719.86
595.892	28545.78
596.089	28865.27
596.286	28623.61
596.482	28281.6
596.679	27814.66
596.876	28480.25
597.072	28050.17
597.269	28082.94
597.466	28136.19
597.662	27925.25
597.859	27990.78
598.055	27960.06
598.252	27603.72
598.448	27734.79
598.645	27310.86
598.841	27050.77
599.038	27181.84
599.234	27085.58
599.431	26790.67
599.627	26884.88
599.824	26979.09
600.02	26819.35
600.217	27054.86
600.413	27120.4
600.609	26712.85
600.806	26649.36
601.002	26463
601.198	26516.25
601.395	26592.02
601.591	25969.44
601.787	26520.34
601.984	25830.18
602.18	26264.35
602.376	26096.41
602.572	26077.98
602.769	25645.86
602.965	25551.65
603.161	25918.24
603.357	25469.73
603.553	25477.93
603.75	25717.54
603.946	25467.69
604.142	25504.55
604.338	25013.04
604.534	25097
604.73	24666.93
604.926	25166.63
605.122	24965.93
605.318	24621.87
605.514	24599.35
605.71	24537.91
605.906	24673.07
606.102	24687.41
606.298	24431.41
606.494	24394.55
606.69	24101.69
606.886	24390.45
607.082	23982.91
607.278	24171.32
607.474	23606.08
607.67	24156.99
607.866	23837.5
608.062	24224.57
608.257	24075.07
608.453	23589.7
608.649	23665.47
608.845	23604.03
609.041	23647.04
609.236	24013.63
609.432	23470.92
609.628	23264.07
609.824	23550.79
610.019	22917.96
610.215	23440.2
610.411	23380.81
610.606	23057.23
610.802	23141.19
610.998	23102.28
611.193	23333.7
611.389	23049.03
611.584	22926.16
611.78	22741.84
611.976	22928.2
612.171	22811.47
612.367	22729.55
612.562	22547.28
612.758	22379.35
612.953	22451.03
613.149	22561.62
613.344	22475.6
613.539	22774.61
613.735	22481.75
613.93	22455.12
614.126	22139.74
614.321	22518.61
614.517	22004.57
614.712	22119.26
614.907	22203.22
615.103	22012.76
615.298	21865.31
615.493	22410.07
615.688	21855.07
615.884	22311.77
616.079	21859.17
616.274	21853.02
616.47	21656.42
616.665	21439.33
616.86	21750.62
617.055	21597.03
617.25	21517.15
617.445	21547.87
617.641	21214.05
617.836	21551.97
618.031	21021.55
618.226	21144.42
618.421	20777.84
618.616	21148.52
618.811	20943.72
619.006	21281.64
619.201	20546.42
619.396	20833.13
619.591	20294.52
619.786	20720.49
619.981	20378.48
620.176	20554.61
620.371	20278.13
620.566	20616.05
620.761	20460.4
620.956	20380.53
621.151	19745.66
621.346	19940.22
621.541	19647.36
621.735	19966.84
621.93	19458.95
622.125	19456.9
622.32	19198.85
622.515	19532.67
622.709	19264.39
622.904	19329.92
623.099	19055.5
623.294	19055.5
623.488	18858.89
623.683	18637.71
623.878	18394
624.072	18496.4
624.267	18451.35
624.462	18385.81
624.656	18117.53
624.851	18240.4
625.046	18164.63
625.24	18082.71
625.435	17558.43
625.629	17836.95
625.824	17714.08
626.018	17587.1
626.213	17384.35
626.407	17365.92
626.602	17148.84
626.796	17468.32
626.991	17087.4
627.185	17132.45
627.38	16882.6
627.574	16948.14
627.768	16966.57
627.963	16841.64
628.157	16393.14
628.352	16552.88
628.546	16421.81
628.74	16311.22
628.935	16399.28
629.129	16528.3
629.323	16008.12
629.517	15922.1
629.712	15936.44
629.906	15973.3
630.1	15522.75
630.294	15727.55
630.489	15600.57
630.683	15629.24
630.877	15266.75
631.071	15289.28
631.265	15399.87
631.459	15113.16
631.653	15088.58
631.848	15193.03
632.042	15133.64
632.236	14836.68
632.43	14803.91
632.624	14896.07
632.818	14781.39
633.012	14339.02
633.206	14369.74
633.4	14453.71
633.594	14306.26
633.788	14334.93
633.982	14334.93
634.176	14105.56
634.369	13986.77
634.563	13886.42
634.757	14031.83
634.951	13962.2
635.145	13843.42
635.339	13784.02
635.533	13435.87
635.726	13439.97
635.92	13460.45
636.114	13577.18
636.308	13454.3
636.501	13333.47
636.695	13087.71
636.889	13108.19
637.083	13136.87
637.276	12907.49
637.47	12780.52
637.664	12770.28
637.857	12725.22
638.051	12741.61
638.244	12499.95
638.438	12487.66
638.632	12354.54
638.825	12311.53
639.019	12358.64
639.212	12119.03
639.406	12246
639.599	12141.55
639.793	12129.27
639.986	11928.56
640.18	12055.54
640.373	11951.09
640.567	11654.14
640.76	11807.73
640.954	11738.1
641.147	11742.2
641.34	11582.46
641.534	11723.77
641.727	11299.84
641.92	11287.55
642.114	11080.71
642.307	11422.72
642.5	11185.15
642.694	10976.26
642.887	11136
643.08	11295.74
643.273	10843.14
643.467	10685.45
643.66	10707.98
643.853	10771.46
644.046	10759.17
644.239	10621.96
644.432	10501.13
644.626	10437.64
644.819	10245.13
645.012	10591.24
645.205	10390.54
645.398	10255.37
645.591	10243.09
645.784	10314.77
645.977	10220.56
646.17	10105.87
646.363	9872.4
646.556	9821.2
646.749	9909.27
646.942	9776.15
647.135	9694.23
647.328	9714.71
647.521	9626.65
647.714	9651.22
647.907	9770.01
648.099	9579.54
648.292	9720.85
648.485	9432.09
648.678	9266.21
648.871	9262.11
649.064	9174.05
649.256	9319.45
649.449	9108.51
649.642	9190.43
649.835	8985.63
650.027	8997.92
650.22	9036.83
650.413	9212.96
650.605	8903.71
650.798	8834.08
650.991	8664.1
651.183	8993.83
651.376	8498.22
651.568	8651.81
651.761	8614.95
651.954	8518.7
652.146	8500.26
652.339	8361
652.531	8420.39
652.724	8272.94
652.916	8113.2
653.109	8502.31
653.301	8170.54
653.494	8399.91
653.686	7926.83
653.879	8082.48
654.071	7998.51
654.263	8004.66
654.456	7945.27
654.648	8000.56
654.84	7701.56
655.033	7869.49
655.225	7844.91
655.417	7728.18
655.61	7646.26
655.802	7795.76
655.994	7580.73
656.186	7472.18
656.379	7638.07
656.571	7740.47
656.763	7552.06
656.955	7357.5
657.148	7455.8
657.34	7314.49
657.532	7093.31
657.724	7400.51
657.916	7400.51
658.108	7033.92
658.3	7097.41
658.492	7187.52
658.684	7177.28
658.876	6976.58
659.068	6995.01
659.26	6945.86
659.452	7195.71
659.644	6911.04
659.836	6771.78
660.028	6974.53
660.22	6890.56
660.412	6794.31
660.604	6763.59
660.796	6632.52
660.988	6661.19
661.18	6593.61
661.372	6382.67
661.563	6569.03
661.755	6394.95
661.947	6653
662.139	6536.26
662.331	6319.18
662.522	6472.78
662.714	6429.77
662.906	6370.38
663.097	6267.98
663.289	6317.13
663.481	6261.84
663.673	6247.5
663.864	6259.79
664.056	6124.62
664.247	6184.01
664.439	5979.22
664.631	6282.31
664.822	6044.75
665.014	6112.33
665.205	6124.62
665.397	5915.73
665.588	5968.98
665.78	6071.37
665.971	5813.33
666.163	5938.26
666.354	5786.71
666.546	5807.19
666.737	5739.6
666.929	5729.36
667.12	5745.75
667.311	5637.2
667.503	5665.88
667.694	5803.09
667.885	5700.69
668.077	5600.34
668.268	5553.24
668.459	5592.15
668.651	5407.83
668.842	5549.14
669.033	5651.54
669.224	5418.07
669.416	5373.02
669.607	5377.11
669.798	5125.21
669.989	5514.33
670.18	5295.19
670.371	5274.71
670.563	5289.05
670.754	5203.04
670.945	5160.03
671.136	5178.46
671.327	5155.93
671.518	5227.61
671.709	5166.17
671.9	5241.95
672.091	5157.98
672.282	5080.16
672.473	5258.33
672.664	5149.79
672.855	5018.72
673.046	5061.73
673.237	5157.98
673.428	5045.34
673.619	5086.3
673.809	5098.59
674	4895.84
674.191	4957.28
674.382	4918.37
674.573	4885.6
674.764	4885.6
674.954	4906.08
675.145	4904.03
675.336	4877.41
675.527	4858.98
675.717	4811.87
675.908	4838.5
676.099	4865.12
676.289	4828.26
676.48	4828.26
676.671	4803.68
676.861	4834.4
677.052	4662.37
677.243	4807.78
677.433	4789.35
677.624	4709.47
677.814	4822.11
678.005	4777.06
678.195	4676.71
678.386	4682.85
678.576	4666.47
678.767	4674.66
678.957	4488.29
679.148	4668.52
679.338	4693.09
679.529	4510.82
679.719	4650.08
679.909	4680.8
680.1	4555.88
680.29	4635.75
680.481	4578.4
680.671	4582.5
680.861	4564.07
681.052	4455.53
681.242	4510.82
681.432	4568.16
681.622	4439.14
681.813	4500.58
682.003	4615.27
682.193	4543.59
682.383	4627.56
682.573	4459.62
682.764	4496.49
682.954	4594.79
683.144	4525.16
683.334	4484.2
683.524	4420.71
683.714	4516.97
683.904	4449.38
684.094	4377.7
684.284	4340.84
684.474	4428.9
684.664	4449.38
684.854	4277.35
685.044	4332.65
685.234	4357.22
685.424	4387.94
685.614	4361.32
685.804	4430.95
685.994	4371.56
686.184	4181.1
686.374	4269.16
686.564	4230.25
686.753	4256.87
686.943	4332.65
687.133	4232.3
687.323	4158.57
687.513	4351.08
687.702	4158.57
687.892	4140.14
688.082	4197.48
688.272	4027.5
688.461	4154.48
688.651	4117.61
688.841	4074.6
689.03	4060.27
689.22	4031.6
689.41	4078.7
689.599	3933.29
689.789	3927.15
689.979	4035.69
690.168	3972.21
690.358	3884.14
690.547	3857.52
690.737	3980.4
690.926	3914.86
691.116	3775.6
691.305	4021.36
691.495	3937.39
691.684	3947.63
691.874	3976.3
692.063	3787.89
692.252	3914.86
692.442	3798.13
692.631	3763.31
692.82	3896.43
693.01	3886.19
693.199	3693.68
693.388	3574.9
693.578	4019.31
693.767	3697.78
693.956	3605.62
694.146	3585.14
694.335	3632.24
694.524	3587.19
694.713	3748.98
694.902	3640.44
695.092	3675.25
695.281	3708.02
695.47	3726.45
695.659	3585.14
695.848	3714.16
696.037	3667.06
696.226	3591.28
696.415	3632.24
696.604	3685.49
696.793	3564.66
696.982	3589.24
697.171	3722.35
697.36	3603.57
697.549	3595.38
697.738	3546.23
697.927	3529.84
698.116	3558.52
698.305	3585.14
698.494	3513.46
698.683	3597.43
698.872	3576.95
699.061	3488.89
699.25	3572.85
699.438	3390.58
699.627	3486.84
699.816	3472.5
700.005	3630.2
700.193	3517.56
700.382	3492.98
700.571	3533.94
700.76	3505.27
700.948	3607.67
701.137	3533.94
701.326	3574.9
701.514	3449.97
701.703	3583.09
701.892	3439.73
702.08	3566.71
702.269	3525.75
702.457	3488.89
702.646	3478.65
702.834	3464.31
703.023	3519.6
703.212	3581.04
703.4	3505.27
703.589	3464.31
703.777	3603.57
703.965	3357.82
704.154	3433.59
704.342	3415.16
704.531	3599.48
704.719	3374.2
704.907	3495.03
705.096	3425.4
705.284	3552.37
705.472	3454.07
705.661	3302.52
705.849	3507.32
706.037	3572.85
706.226	3349.62
706.414	3486.84
706.602	3425.4
706.79	3554.42
706.979	3447.93
707.167	3466.36
707.355	3531.89
707.543	3413.11
707.731	3402.87
707.919	3603.57
708.107	3460.21
708.296	3419.25
708.484	3427.45
708.672	3411.06
708.86	3523.7
709.048	3400.82
709.236	3515.51
709.424	3443.83
709.612	3394.68
709.8	3470.45
709.988	3427.45
710.176	3558.52
710.364	3607.67
710.551	3374.2
710.739	3609.72
710.927	3507.32
711.115	3345.53
711.303	3480.69
711.491	3443.83
711.679	3521.65
711.866	3425.4
712.054	3497.08
712.242	3382.39
712.43	3460.21
712.617	3495.03
712.805	3415.16
712.993	3488.89
713.181	3398.77
713.368	3509.37
713.556	3529.84
713.744	3439.73
713.931	3538.04
714.119	3464.31
714.306	3468.41
714.494	3511.41
714.682	3429.49
714.869	3454.07
715.057	3468.41
715.244	3374.2
715.432	3513.46
715.619	3521.65
715.807	3406.97
715.994	3443.83
716.182	3507.32
716.369	3435.64
716.556	3601.52
716.744	3474.55
716.931	3396.73
717.119	3323
717.306	3558.52
717.493	3380.34
717.681	3433.59
717.868	3593.33
718.055	3316.86
718.242	3368.06
718.43	3468.41
718.617	3411.06
718.804	3443.83
718.991	3394.68
719.179	3529.84
719.366	3398.77
719.553	3464.31
719.74	3474.55
719.927	3374.2
720.114	3433.59
720.301	3507.32
720.488	3404.92
720.676	3558.52
720.863	3355.77
721.05	3421.3
721.237	3452.02
721.424	3505.27
721.611	3421.3
721.798	3431.54
721.985	3329.14
722.172	3513.46
722.358	3492.98
722.545	3478.65
722.732	3452.02
722.919	3431.54
723.106	3415.16
723.293	3421.3
723.48	3355.77
723.667	3415.16
723.853	3300.47
724.04	3423.35
724.227	3488.89
724.414	3439.73
724.6	3441.78
724.787	3490.93
724.974	3370.1
725.161	3216.51
725.347	3323
725.534	3415.16
725.72	3413.11
725.907	3341.43
726.094	3279.99
726.28	3310.71
726.467	3275.9
726.653	3335.29
726.84	3411.06
727.027	3400.82
727.213	3275.9
727.4	3431.54
727.586	3398.77
727.773	3429.49
727.959	3447.93
728.145	3325.05
728.332	3378.3
728.518	3306.62
728.705	3374.2
728.891	3400.82
729.077	3284.09
729.264	3298.42
729.45	3406.97
729.636	3372.15
729.823	3445.88
730.009	3304.57
730.195	3341.43
730.382	3331.19
730.568	3275.9
730.754	3259.51
730.94	3351.67
731.126	3427.45
731.313	3372.15
731.499	3193.98
731.685	3357.82
731.871	3187.83
732.057	3243.13
732.243	3382.39
732.429	3312.76
732.615	3259.51
732.801	3263.61
732.987	3214.46
733.173	3357.82
733.359	3175.55
733.545	3077.24
733.731	3189.88
733.917	3388.53
734.103	3191.93
734.289	3284.09
734.475	3056.76
734.661	3230.84
734.847	3318.9
735.033	3196.03
735.219	3185.79
735.404	3107.96
735.59	3128.44
735.776	3087.48
735.962	3189.88
736.148	3163.26
736.333	3085.44
736.519	3144.83
736.705	3067
736.89	3210.36
737.076	3185.79
737.262	3107.96
737.447	3085.44
737.633	2993.28
737.819	3241.08
738.004	3007.61
738.19	3112.06
738.375	3124.35
738.561	3255.42
738.747	3142.78
738.932	3089.53
739.118	3058.81
739.303	3083.39
739.489	3077.24
739.674	2991.23
739.859	3085.44
740.045	2985.09
740.23	3101.82
740.416	3054.72
740.601	2985.09
740.786	2833.54
740.972	2905.21
741.157	2921.6
741.342	2923.65
741.528	2935.93
741.713	2952.32
741.898	2962.56
742.084	2874.49
742.269	2964.61
742.454	2835.58
742.639	2864.25
742.824	2905.21
743.01	2716.8
743.195	2995.32
743.38	2778.24
743.565	2747.52
743.75	2860.16
743.935	2712.71
744.12	2772.1
744.305	2849.92
744.49	2643.07
744.675	2802.82
744.86	2737.28
745.045	2733.18
745.23	2688.13
745.415	2651.27
745.6	2589.83
745.785	2657.41
745.97	2716.8
746.155	2645.12
746.34	2706.56
746.525	2575.49
746.71	2563.2
746.895	2618.5
747.079	2432.13
747.264	2516.1
747.449	2581.64
747.634	2550.92
747.819	2493.57
748.003	2477.19
748.188	2542.72
748.373	2485.38
748.557	2411.65
748.742	2313.35
748.927	2421.89
749.111	2258.06
749.296	2325.64
749.481	2352.26
749.665	2421.89
749.85	2391.17
750.034	2352.26
750.219	2370.69
750.404	2272.39
750.588	2284.68
750.773	2180.23
750.957	2284.68
751.141	2151.56
751.326	2231.43
751.51	2178.19
751.695	2124.94
751.879	2118.79
752.064	2110.6
752.248	2120.84
752.432	2266.25
752.617	2182.28
752.801	2067.6
752.985	1946.76
753.17	2057.36
753.354	2030.73
753.538	1942.67
753.722	1942.67
753.907	1928.33
754.091	1885.33
754.275	2010.25
754.459	1893.52
754.643	2059.4
754.828	1827.98
755.012	1832.08
755.196	1823.89
755.38	1848.46
755.564	1739.92
755.748	1881.23
755.932	1846.41
756.116	1754.26
756.3	1795.22
756.484	1678.48
756.668	1707.15
756.852	1752.21
757.036	1674.39
757.22	1719.44
757.404	1768.59
757.588	1715.34
757.772	1760.4
757.956	1694.86
758.14	1666.19
758.323	1694.86
758.507	1604.75
758.691	1658
758.875	1619.09
759.059	1553.55
759.242	1664.15
759.426	1496.21
759.61	1555.6
759.794	1567.89
759.977	1621.14
760.161	1637.52
760.345	1643.67
760.528	1510.55
760.712	1547.41
760.895	1604.75
761.079	1488.02
761.263	1438.87
761.446	1504.4
761.63	1449.11
761.813	1535.12
761.997	1412.25
762.18	1500.31
762.364	1522.84
762.547	1424.53
762.731	1481.88
762.914	1447.06
763.098	1379.48
763.281	1440.92
763.464	1422.48
763.648	1363.09
763.831	1367.19
764.015	1320.09
764.198	1350.81
764.381	1369.24
764.564	1391.77
764.748	1395.86
764.931	1266.84
765.114	1279.13
765.297	1344.66
765.481	1367.19
765.664	1256.6
765.847	1381.53
766.03	1299.61
766.213	1277.08
766.397	1225.88
766.58	1252.5
766.763	1254.55
766.946	1277.08
767.129	1209.5
767.312	1272.98
767.495	1211.54
767.678	1301.65
767.861	1266.84
768.044	1178.78
768.227	1178.78
768.41	1197.21
768.593	1127.58
768.776	1236.12
768.959	1246.36
769.142	1193.11
769.324	1176.73
769.507	1127.58
769.69	1244.31
769.873	1229.98
770.056	1186.97
770.239	1209.5
770.421	1219.74
770.604	1139.87
770.787	1139.87
770.97	1248.41
771.152	986.27
771.335	1047.71
771.518	1121.43
771.7	1113.24
771.883	1103
772.066	1082.52
772.248	1113.24
772.431	1148.06
772.613	1059.99
772.796	982.17
772.978	969.88
773.161	1012.89
773.343	957.6
773.526	1105.05
773.708	973.98
773.891	971.93
774.073	998.56
774.256	912.54
774.438	1051.8
774.621	1035.42
774.803	1057.95
774.985	926.88
775.168	969.88
775.35	887.97
775.532	978.08
775.715	961.69
775.897	969.88
776.079	863.39
776.261	767.13
776.444	855.2
776.626	924.83
776.808	883.87
776.99	1006.75
777.173	922.78
777.355	924.83
777.537	945.31
777.719	816.29
777.901	830.62
778.083	896.16
778.265	892.06
778.447	828.57
778.629	822.43
778.811	752.8
778.993	797.85
779.175	822.43
779.357	769.18
779.539	789.66
779.721	783.52
779.903	752.8
780.085	728.22
780.267	724.13
780.449	746.66
780.631	715.94
780.812	730.27
780.994	732.32
781.176	679.07
781.358	781.47
781.54	693.41
781.721	806.05
781.903	765.09
782.085	726.18
782.267	652.45
782.448	707.74
782.63	732.32
782.812	640.16
782.993	728.22
783.175	677.02
783.357	621.73
783.538	687.26
783.72	681.12
783.901	705.7
784.083	674.98
784.264	685.22
784.446	541.86
784.627	584.87
784.809	597.15
784.99	478.37
785.172	621.73
785.353	562.34
785.535	609.44
785.716	566.43
785.897	586.91
786.079	562.34
786.26	597.15
786.441	623.78
786.623	578.72
786.804	519.33
786.985	488.61
787.167	568.48
787.348	484.52
787.529	539.81
787.71	584.87
787.891	533.67
788.073	586.91
788.254	482.47
788.435	556.19
788.616	523.43
788.797	498.85
788.978	511.14
789.159	470.18
789.34	474.28
789.522	539.81
789.703	408.74
789.884	531.62
790.065	496.8
790.246	519.33
790.427	533.67
790.607	511.14
790.788	478.37
790.969	412.84
791.15	410.79
791.331	525.47
791.512	539.81
791.693	445.6
791.874	455.84
792.054	498.85
792.235	427.17
792.416	464.04
792.597	351.4
792.778	412.84
792.958	425.12
793.139	412.84
793.32	504.99
793.5	375.97
793.681	429.22
793.862	392.36
794.042	373.92
794.223	404.64
794.404	406.69
794.584	390.31
794.765	332.97
794.945	439.46
795.126	384.16
795.306	433.32
795.487	326.82
795.667	425.12
795.848	392.36
796.028	363.69
796.209	351.4
796.389	375.97
796.57	332.97
796.75	408.74
796.93	367.78
797.111	316.58
797.291	416.93
797.471	357.54
797.652	363.69
797.832	316.58
798.012	441.51
798.192	363.69
798.373	324.77
798.553	326.82
798.733	339.11
798.913	341.16
799.093	353.45
799.274	320.68
799.454	326.82
799.634	357.54
799.814	281.77
799.994	414.88
800.174	375.97
800.354	292.01
800.534	294.05
800.714	359.59
800.894	226.47
801.074	306.34
801.254	216.23
801.434	318.63
801.614	316.58
801.794	308.39
801.974	771.23
802.154	330.92
802.334	396.45
802.514	259.24
802.693	326.82
802.873	316.58
803.053	234.66
803.233	261.29
803.413	249
803.592	283.81
803.772	289.96
803.952	287.91
804.131	242.85
804.311	292.01
804.491	249
804.67	189.61
804.85	208.04
805.03	267.43
805.209	306.34
805.389	216.23
805.568	308.39
805.748	265.38
805.928	205.99
806.107	244.9
806.287	285.86
806.466	193.7
806.646	240.81
806.825	294.05
807.004	253.09
807.184	259.24
807.363	244.9
807.543	228.52
807.722	195.75
807.901	277.67
808.081	214.18
808.26	183.46
808.439	298.15
808.619	179.37
808.798	177.32
808.977	294.05
809.156	285.86
809.336	302.25
809.515	216.23
809.694	203.94
809.873	242.85
810.052	212.14
810.231	203.94
810.411	160.94
810.59	269.48
810.769	183.46
810.948	126.12
811.127	203.94
811.306	185.51
811.485	273.57
811.664	226.47
811.843	68.78
812.022	115.88
812.201	212.14
812.38	228.52
812.559	203.94
812.737	222.38
812.916	242.85
813.095	171.18
813.274	189.61
813.453	210.09
813.632	240.81
813.811	236.71
813.989	236.71
814.168	236.71
814.347	158.89
814.526	165.03
814.704	152.74
814.883	203.94
815.062	242.85
815.24	216.23
815.419	68.78
815.598	228.52
815.776	156.84
815.955	148.65
816.133	228.52
816.312	171.18
816.49	189.61
816.669	136.36
816.847	167.08
817.026	134.31
817.204	105.64
817.383	183.46
817.561	165.03
817.74	150.7
817.918	175.27
818.097	146.6
818.275	68.78
818.453	160.94
818.632	208.04
818.81	185.51
818.988	126.12
819.167	191.66
819.345	152.74
819.523	156.84
819.701	130.22
819.879	150.7
820.058	160.94
820.236	93.35
820.414	193.7
820.592	117.93
820.77	177.32
820.948	173.22
821.127	132.26
821.305	203.94
821.483	150.7
821.661	148.65
821.839	177.32
822.017	105.64
822.195	203.94
822.373	171.18
822.551	128.17
822.729	154.79
822.907	150.7
823.085	193.7
823.262	210.09
823.44	76.97
823.618	83.11
823.796	150.7
823.974	36.01
824.152	122.02
824.329	109.74
824.507	154.79
824.685	210.09
824.863	146.6
825.04	119.98
825.218	150.7
825.396	144.55
825.574	134.31
825.751	142.5
825.929	154.79
826.107	72.87
826.284	99.5
826.462	185.51
826.639	89.26
826.817	36.01
826.994	136.36
827.172	42.15
827.349	146.6
827.527	87.21
827.704	64.68
827.882	126.12
828.059	76.97
828.237	101.55
828.414	154.79
828.591	101.55
828.769	111.78
828.946	58.54
829.124	15.53
829.301	144.55
829.478	60.59
829.655	87.21
829.833	83.11
830.01	64.68
830.187	111.78
830.364	36.01
830.542	95.4
830.719	62.63
830.896	142.5
831.073	85.16
831.25	158.89
831.427	148.65
831.604	144.55
831.782	44.2
831.959	175.27
832.136	138.41
832.313	167.08
832.49	36.01
832.667	130.22
832.844	36.01
833.021	101.55
833.198	128.17
833.374	44.2
833.551	113.83
833.728	56.49
833.905	111.78
834.082	31.91
834.259	89.26
834.436	97.45
834.612	36.01
834.789	103.59
834.966	95.4
835.143	103.59
835.319	40.11
835.496	56.49
835.673	126.12
835.85	117.93
836.026	85.16
836.203	89.26
836.38	7.34
836.556	72.87
836.733	126.12
836.909	52.39
837.086	56.49
837.262	44.2
837.439	79.02
837.616	87.21
837.792	19.63
837.968	124.07
838.145	83.11
838.321	60.59
838.498	44.2
838.674	130.22
838.851	48.3
839.027	9.39
839.203	46.25
839.38	111.78
839.556	87.21
839.732	87.21
839.909	64.68
840.085	81.07
840.261	58.54
840.437	46.25
840.614	175.27
840.79	72.87
840.966	76.97
841.142	48.3
841.318	72.87
841.494	38.06
841.671	56.49
841.847	89.26
842.023	87.21
842.199	1.19
842.375	83.11
842.551	21.67
842.727	-7
842.903	68.78
843.079	44.2
843.255	101.55
843.431	89.26
843.607	42.15
843.783	-23.38
843.959	62.63
844.134	36.01
844.31	111.78
844.486	44.2
844.662	25.77
844.838	56.49
845.013	93.35
845.189	52.39
845.365	50.35
845.541	60.59
845.716	95.4
845.892	64.68
846.068	38.06
846.244	40.11
846.419	62.63
846.595	13.48
846.77	48.3
846.946	146.6
847.122	-37.72
847.297	7.34
847.473	48.3
847.648	-21.33
847.824	91.31
847.999	40.11
848.175	23.72
848.35	42.15
848.526	115.88
848.701	-35.67
848.876	62.63
849.052	81.07
849.227	29.87
849.403	9.39
849.578	93.35
849.753	60.59
849.929	27.82
850.104	19.63
850.279	-15.19
850.454	89.26
850.63	111.78
850.805	44.2
850.98	83.11
851.155	15.53
851.33	56.49
851.505	21.67
851.681	89.26
851.856	31.91
852.031	97.45
852.206	44.2
852.381	64.68
852.556	-52.05
852.731	33.96
852.906	70.83
853.081	19.63
853.256	66.73
853.431	46.25
853.606	-27.48
853.781	11.43
853.956	-29.52
854.131	-15.19
854.305	9.39
854.48	-0.85
854.655	3.24
854.83	7.34
855.005	29.87
855.18	70.83
855.354	42.15
855.529	68.78
855.704	27.82
855.879	54.44
856.053	7.34
856.228	7.34
856.403	5.29
856.577	5.29
856.752	-39.76
856.926	19.63
857.101	-13.14
857.276	46.25
857.45	25.77
857.625	48.3
857.799	-4.95
857.974	46.25
858.148	7.34
858.323	-45.91
858.497	-0.85
858.672	33.96
858.846	-25.43
859.02	44.2
859.195	-29.52
859.369	-17.24
859.543	40.11
859.718	62.63
859.892	3.24
860.066	72.87
860.241	54.44
860.415	58.54
860.589	17.58
860.763	21.67
860.938	33.96
861.112	19.63
861.286	29.87
861.46	-0.85
861.634	-33.62
861.808	40.11
861.982	-13.14
862.157	-31.57
862.331	-15.19
862.505	5.29
862.679	7.34
862.853	-35.67
863.027	85.16
863.201	-11.09
863.375	-43.86
863.549	29.87
863.722	31.91
863.896	23.72
864.07	-72.53
864.244	56.49
864.418	38.06
864.592	58.54
864.766	-11.09
864.939	-11.09
865.113	-0.85
865.287	72.87
865.461	-43.86
865.634	-17.24
865.808	15.53
865.982	38.06
866.156	-11.09
866.329	19.63
866.503	13.48
866.676	27.82
866.85	36.01
867.024	-9.05
867.197	81.07
867.371	40.11
867.544	46.25
867.718	-33.62
867.891	-0.85
868.065	-0.85
868.238	9.39
868.412	76.97
868.585	-23.38
868.759	15.53
868.932	11.43
869.105	3.24
869.279	-68.44
869.452	-45.91
869.625	95.4
869.799	-13.14
869.972	-45.91
870.145	9.39
870.319	54.44
870.492	-13.14
870.665	-27.48
870.838	-11.09
871.011	-70.48
871.185	83.11
871.358	-21.33
871.531	31.91
871.704	29.87
871.877	48.3
872.05	31.91
872.223	-9.05
872.396	-17.24
872.569	29.87
872.742	50.35
872.915	15.53
873.088	-60.24
873.261	-99.16
873.434	-9.05
873.607	-35.67
873.78	7.34
873.953	-66.39
874.126	11.43
874.299	60.59
874.471	50.35
874.644	-45.91
874.817	21.67
874.99	70.83
875.163	-35.67
875.335	52.39
875.508	-43.86
875.681	9.39
875.853	19.63
876.026	54.44
876.199	48.3
876.371	68.78
876.544	23.72
876.717	-9.05
876.889	-45.91
877.062	15.53
877.234	-43.86
877.407	-50
877.579	-43.86
877.752	-0.85
877.924	-13.14
878.097	33.96
878.269	-35.67
878.442	36.01
878.614	-25.43
878.786	-52.05
878.959	42.15
879.131	60.59
879.303	-41.81
879.476	-4.95
879.648	-25.43
879.82	3.24
879.993	-19.29
880.165	-11.09
880.337	-35.67
880.509	97.45
880.681	-33.62
880.854	-68.44
881.026	11.43
881.198	62.63
881.37	-15.19
881.542	60.59
881.714	56.49
881.886	-9.05
882.058	15.53
882.23	-4.95
882.402	-27.48
882.574	21.67
882.746	3.24
882.918	-41.81
883.09	-17.24
883.262	-17.24
883.434	-41.81
883.606	-56.15
883.778	40.11
883.95	87.21
884.122	23.72
884.293	42.15
884.465	60.59
884.637	48.3
884.809	-86.87
884.98	-58.2
885.152	40.11
885.324	21.67
885.496	-56.15
885.667	33.96
885.839	-13.14
886.011	85.16
886.182	56.49
886.354	58.54
886.525	-4.95
886.697	3.24
886.869	31.91
887.04	15.53
887.212	95.4
887.383	-19.29
887.555	27.82
887.726	13.48
887.897	-35.67
888.069	36.01
888.24	23.72
888.412	-13.14
888.583	-0.85
888.754	-2.9
888.926	-21.33
889.097	-56.15
889.268	-58.2
889.44	-2.9
889.611	-11.09
889.782	83.11
889.953	-17.24
890.125	-2.9
890.296	-74.58
890.467	27.82
890.638	-17.24
890.809	23.72
890.98	-62.29
891.151	-9.05
891.323	-27.48
891.494	-9.05
891.665	-60.24
891.836	-35.67
892.007	29.87
892.178	-54.1
892.349	-39.76
892.52	-50
892.691	1.19
892.862	-2.9
893.032	-66.39
893.203	1.19
893.374	66.73
893.545	13.48
893.716	13.48
893.887	62.63
894.057	-4.95
894.228	-9.05
894.399	-43.86
894.57	21.67
894.74	-9.05
894.911	64.68
895.082	-17.24
895.253	-52.05
895.423	13.48
895.594	-31.57
895.764	60.59
895.935	-19.29
896.106	-62.29
896.276	-45.91
896.447	-2.9
896.617	-25.43
896.788	-29.52
896.958	23.72
897.129	-9.05
897.299	-41.81
897.47	72.87
897.64	-33.62
897.81	-45.91
897.981	21.67
898.151	-56.15
898.322	-7
898.492	29.87
898.662	-0.85
898.832	-88.92
899.003	5.29
899.173	9.39
899.343	-33.62
899.513	-47.96
