Data from USB4F104151__181__10-27-51-887.txt Node

Date: Wed Mar 12 10:27:51 EDT 2025
User: louis
Spectrometer: USB4F10415
Trigger mode: 4
Integration Time (sec): 3.000000E-2
Scans to average: 1
Electric dark correction enabled: true
Nonlinearity correction enabled: false
Boxcar width: 0
XAxis mode: Wavelengths
Number of Pixels in Spectrum: 3648
>>>>>Begin Spectral Data<<<<<
178.204	-140.46
178.424	-140.46
178.644	-140.46
178.864	-117.93
179.084	-181.42
179.304	80.72
179.524	-13.48
179.744	9.05
179.964	-5.29
180.184	80.72
180.404	17.24
180.624	-1.19
180.844	-11.43
181.064	-91.31
181.283	13.14
181.503	4.95
181.723	-83.11
181.943	-33.96
182.163	52.05
182.383	-27.82
182.602	-40.11
182.822	21.33
183.042	35.67
183.262	-38.06
183.482	4.95
183.701	-83.11
183.921	-1.19
184.141	21.33
184.361	-1.19
184.58	47.96
184.8	23.38
185.02	-62.63
185.239	27.48
185.459	35.67
185.679	0.85
185.898	-46.25
186.118	66.39
186.338	37.72
186.557	43.86
186.777	-27.82
186.997	-40.11
187.216	9.05
187.436	150.36
187.655	27.48
187.875	45.91
188.095	-15.53
188.314	88.92
188.534	-1.19
188.753	-38.06
188.973	-19.63
189.192	35.67
189.412	31.57
189.631	4.95
189.851	39.76
190.07	41.81
190.29	93.01
190.509	-38.06
190.729	-46.25
190.948	21.33
191.168	179.03
191.387	39.76
191.607	-9.39
191.826	-27.82
192.045	-33.96
192.265	-62.63
192.484	52.05
192.704	-9.39
192.923	7
193.142	35.67
193.362	60.24
193.581	76.63
193.8	-68.78
194.02	107.35
194.239	-5.29
194.458	33.62
194.678	13.14
194.897	54.1
195.116	13.14
195.335	13.14
195.555	39.76
195.774	82.77
195.993	2.9
196.212	52.05
196.432	15.19
196.651	72.53
196.87	7
197.089	41.81
197.308	88.92
197.528	-5.29
197.747	-23.72
197.966	9.05
198.185	78.68
198.404	-5.29
198.623	43.86
198.842	45.91
199.062	25.43
199.281	47.96
199.5	33.62
199.719	52.05
199.938	27.48
200.157	15.19
200.376	64.34
200.595	56.15
200.814	-36.01
201.033	7
201.252	86.87
201.471	60.24
201.69	50
201.909	101.2
202.128	4.95
202.347	52.05
202.566	0.85
202.785	11.09
203.004	41.81
203.223	107.35
203.442	56.15
203.661	15.19
203.879	13.14
204.098	11.09
204.317	-21.67
204.536	37.72
204.755	43.86
204.974	45.91
205.193	-40.11
205.411	64.34
205.63	-23.72
205.849	-64.68
206.068	76.63
206.287	23.38
206.505	-72.87
206.724	15.19
206.943	11.09
207.162	-7.34
207.381	19.29
207.599	41.81
207.818	35.67
208.037	39.76
208.255	4.95
208.474	52.05
208.693	7
208.911	15.19
209.13	19.29
209.349	19.29
209.567	35.67
209.786	76.63
210.005	47.96
210.223	27.48
210.442	-33.96
210.661	50
210.879	-42.15
211.098	29.52
211.316	-13.48
211.535	121.68
211.753	23.38
211.972	25.43
212.191	50
212.409	4.95
212.628	25.43
212.846	7
213.065	60.24
213.283	25.43
213.502	-13.48
213.72	23.38
213.938	-38.06
214.157	17.24
214.375	76.63
214.594	-13.48
214.812	-29.87
215.031	15.19
215.249	47.96
215.467	2.9
215.686	27.48
215.904	70.48
216.122	60.24
216.341	9.05
216.559	-50.35
216.778	60.24
216.996	82.77
217.214	-11.43
217.432	11.09
217.651	-9.39
217.869	31.57
218.087	84.82
218.306	-23.72
218.524	47.96
218.742	47.96
218.96	54.1
219.179	-29.87
219.397	17.24
219.615	19.29
219.833	60.24
220.051	31.57
220.27	17.24
220.488	52.05
220.706	74.58
220.924	-50.35
221.142	11.09
221.36	-15.53
221.578	50
221.796	60.24
222.015	103.25
222.233	-36.01
222.451	58.2
222.669	11.09
222.887	37.72
223.105	21.33
223.323	15.19
223.541	-48.3
223.759	9.05
223.977	68.44
224.195	43.86
224.413	23.38
224.631	23.38
224.849	35.67
225.067	52.05
225.285	17.24
225.503	-15.53
225.721	-50.35
225.939	2.9
226.157	7
226.375	64.34
226.592	11.09
226.81	-13.48
227.028	41.81
227.246	103.25
227.464	37.72
227.682	41.81
227.9	60.24
228.117	2.9
228.335	90.96
228.553	-50.35
228.771	41.81
228.989	15.19
229.206	-1.19
229.424	-11.43
229.642	82.77
229.86	11.09
230.077	56.15
230.295	29.52
230.513	11.09
230.731	35.67
230.948	27.48
231.166	52.05
231.384	41.81
231.601	-44.2
231.819	64.34
232.037	-58.54
232.254	-31.91
232.472	-5.29
232.689	13.14
232.907	2.9
233.125	7
233.342	21.33
233.56	13.14
233.777	60.24
233.995	64.34
234.213	131.92
234.43	-29.87
234.648	-40.11
234.865	27.48
235.083	2.9
235.3	33.62
235.518	31.57
235.735	-15.53
235.953	90.96
236.17	-70.83
236.388	41.81
236.605	-33.96
236.822	17.24
237.04	19.29
237.257	19.29
237.475	-33.96
237.692	64.34
237.909	39.76
238.127	-68.78
238.344	64.34
238.562	-1.19
238.779	-17.58
238.996	-19.63
239.214	31.57
239.431	101.2
239.648	-66.73
239.865	-52.39
240.083	-5.29
240.3	31.57
240.517	-29.87
240.735	19.29
240.952	31.57
241.169	11.09
241.386	9.05
241.603	-17.58
241.821	-21.67
242.038	56.15
242.255	-3.24
242.472	-87.21
242.689	4.95
242.907	19.29
243.124	-48.3
243.341	-56.49
243.558	-31.91
243.775	-46.25
243.992	-13.48
244.209	-5.29
244.426	-1.19
244.643	41.81
244.86	-5.29
245.078	19.29
245.295	45.91
245.512	78.68
245.729	21.33
245.946	76.63
246.163	-9.39
246.38	-7.34
246.597	50
246.814	56.15
247.031	-29.87
247.248	31.57
247.464	27.48
247.681	60.24
247.898	-7.34
248.115	52.05
248.332	0.85
248.549	7
248.766	111.44
248.983	58.2
249.2	74.58
249.417	21.33
249.633	19.29
249.85	29.52
250.067	52.05
250.284	25.43
250.501	17.24
250.717	-25.77
250.934	-15.53
251.151	-19.63
251.368	-1.19
251.585	68.44
251.801	17.24
252.018	-29.87
252.235	27.48
252.451	50
252.668	64.34
252.885	-54.44
253.102	21.33
253.318	58.2
253.535	-72.87
253.752	25.43
253.968	29.52
254.185	84.82
254.401	-5.29
254.618	-54.44
254.835	15.19
255.051	127.83
255.268	-11.43
255.484	33.62
255.701	-19.63
255.917	68.44
256.134	4.95
256.351	-17.58
256.567	56.15
256.784	-1.19
257	-7.34
257.217	27.48
257.433	93.01
257.65	72.53
257.866	56.15
258.082	-38.06
258.299	25.43
258.515	43.86
258.732	29.52
258.948	64.34
259.165	21.33
259.381	-42.15
259.597	-19.63
259.814	66.39
260.03	-3.24
260.246	27.48
260.463	-9.39
260.679	35.67
260.895	0.85
261.112	62.29
261.328	-21.67
261.544	-29.87
261.761	109.4
261.977	-9.39
262.193	56.15
262.409	39.76
262.626	27.48
262.842	60.24
263.058	50
263.274	95.06
263.49	47.96
263.707	2.9
263.923	23.38
264.139	23.38
264.355	35.67
264.571	80.72
264.787	47.96
265.004	82.77
265.22	-33.96
265.436	76.63
265.652	0.85
265.868	-9.39
266.084	-21.67
266.3	29.52
266.516	-11.43
266.732	90.96
266.948	50
267.164	39.76
267.38	27.48
267.596	41.81
267.812	60.24
268.028	31.57
268.244	-1.19
268.46	23.38
268.676	25.43
268.892	95.06
269.108	-3.24
269.324	19.29
269.54	-50.35
269.756	60.24
269.972	-25.77
270.188	-17.58
270.403	-29.87
270.619	15.19
270.835	90.96
271.051	-9.39
271.267	58.2
271.483	23.38
271.698	58.2
271.914	21.33
272.13	7
272.346	-3.24
272.562	33.62
272.777	52.05
272.993	-29.87
273.209	-11.43
273.425	25.43
273.64	-11.43
273.856	-13.48
274.072	7
274.287	-50.35
274.503	-29.87
274.719	15.19
274.934	-27.82
275.15	-113.83
275.366	-13.48
275.581	37.72
275.797	52.05
276.012	21.33
276.228	11.09
276.444	4.95
276.659	25.43
276.875	-11.43
277.09	-42.15
277.306	-81.07
277.521	-25.77
277.737	-19.63
277.952	-5.29
278.168	109.4
278.383	64.34
278.599	-23.72
278.814	13.14
279.03	-31.91
279.245	27.48
279.461	47.96
279.676	13.14
279.892	19.29
280.107	17.24
280.322	-11.43
280.538	39.76
280.753	-46.25
280.969	72.53
281.184	11.09
281.399	56.15
281.615	-9.39
281.83	113.49
282.045	-79.02
282.26	19.29
282.476	62.29
282.691	17.24
282.906	50
283.122	-29.87
283.337	4.95
283.552	4.95
283.767	-7.34
283.983	47.96
284.198	23.38
284.413	37.72
284.628	-5.29
284.843	50
285.058	35.67
285.274	4.95
285.489	31.57
285.704	35.67
285.919	-11.43
286.134	27.48
286.349	19.29
286.564	-17.58
286.779	27.48
286.995	27.48
287.21	23.38
287.425	66.39
287.64	-19.63
287.855	52.05
288.07	11.09
288.285	31.57
288.5	-66.73
288.715	11.09
288.93	-29.87
289.145	17.24
289.36	39.76
289.575	7
289.79	39.76
290.004	27.48
290.219	54.1
290.434	39.76
290.649	60.24
290.864	-50.35
291.079	4.95
291.294	9.05
291.509	93.01
291.724	-29.87
291.938	-25.77
292.153	41.81
292.368	35.67
292.583	25.43
292.798	27.48
293.012	60.24
293.227	52.05
293.442	19.29
293.657	4.95
293.871	105.3
294.086	-17.58
294.301	93.01
294.516	117.59
294.73	60.24
294.945	9.05
295.16	58.2
295.374	9.05
295.589	74.58
295.804	72.53
296.018	56.15
296.233	80.72
296.447	17.24
296.662	15.19
296.877	33.62
297.091	37.72
297.306	62.29
297.52	9.05
297.735	25.43
297.949	9.05
298.164	115.54
298.378	72.53
298.593	-60.59
298.807	-23.72
299.022	86.87
299.236	47.96
299.451	-23.72
299.665	-3.24
299.88	-36.01
300.094	2.9
300.309	15.19
300.523	-13.48
300.737	2.9
300.952	41.81
301.166	19.29
301.381	54.1
301.595	60.24
301.809	15.19
302.024	27.48
302.238	0.85
302.452	47.96
302.667	-19.63
302.881	39.76
303.095	125.78
303.309	52.05
303.524	-44.2
303.738	0.85
303.952	-27.82
304.166	37.72
304.381	-5.29
304.595	43.86
304.809	-46.25
305.023	-13.48
305.237	62.29
305.452	62.29
305.666	76.63
305.88	45.91
306.094	54.1
306.308	70.48
306.522	-9.39
306.736	35.67
306.95	-13.48
307.164	-11.43
307.379	-42.15
307.593	95.06
307.807	47.96
308.021	60.24
308.235	74.58
308.449	19.29
308.663	-13.48
308.877	111.44
309.091	41.81
309.305	47.96
309.519	-29.87
309.733	35.67
309.947	11.09
310.161	64.34
310.374	99.16
310.588	29.52
310.802	-31.91
311.016	35.67
311.23	39.76
311.444	4.95
311.658	74.58
311.872	31.57
312.085	33.62
312.299	37.72
312.513	50
312.727	52.05
312.941	-17.58
313.154	41.81
313.368	17.24
313.582	62.29
313.796	-9.39
314.009	-66.73
314.223	82.77
314.437	23.38
314.651	60.24
314.864	43.86
315.078	17.24
315.292	-70.83
315.505	50
315.719	70.48
315.933	2.9
316.146	-42.15
316.36	27.48
316.573	47.96
316.787	-5.29
317.001	88.92
317.214	-9.39
317.428	-5.29
317.641	47.96
317.855	56.15
318.068	31.57
318.282	9.05
318.495	58.2
318.709	58.2
318.922	-9.39
319.136	43.86
319.349	80.72
319.563	50
319.776	2.9
319.99	15.19
320.203	97.11
320.417	0.85
320.63	70.48
320.843	70.48
321.057	27.48
321.27	54.1
321.483	7
321.697	27.48
321.91	41.81
322.124	86.87
322.337	35.67
322.55	35.67
322.763	72.53
322.977	-31.91
323.19	-36.01
323.403	103.25
323.617	-60.59
323.83	-25.77
324.043	-91.31
324.256	82.77
324.469	64.34
324.683	64.34
324.896	-5.29
325.109	58.2
325.322	-56.49
325.535	54.1
325.748	-21.67
325.962	4.95
326.175	-13.48
326.388	66.39
326.601	66.39
326.814	97.11
327.027	-7.34
327.24	50
327.453	19.29
327.666	2.9
327.879	41.81
328.092	47.96
328.305	-3.24
328.518	47.96
328.731	21.33
328.944	4.95
329.157	-3.24
329.37	31.57
329.583	47.96
329.796	15.19
330.009	-54.44
330.222	93.01
330.435	-54.44
330.648	-7.34
330.861	7
331.073	23.38
331.286	131.92
331.499	86.87
331.712	-3.24
331.925	27.48
332.138	60.24
332.35	74.58
332.563	25.43
332.776	84.82
332.989	-3.24
333.202	-13.48
333.414	56.15
333.627	-23.72
333.84	66.39
334.053	-38.06
334.265	-29.87
334.478	-11.43
334.691	-19.63
334.903	52.05
335.116	-23.72
335.329	11.09
335.541	25.43
335.754	95.06
335.966	29.52
336.179	27.48
336.392	-11.43
336.604	50
336.817	13.14
337.029	35.67
337.242	56.15
337.454	4.95
337.667	-31.91
337.88	95.06
338.092	72.53
338.305	-54.44
338.517	52.05
338.729	35.67
338.942	50
339.154	27.48
339.367	60.24
339.579	-33.96
339.792	15.19
340.004	21.33
340.217	-5.29
340.429	25.43
340.641	-25.77
340.854	39.76
341.066	13.14
341.278	41.81
341.491	45.91
341.703	76.63
341.915	41.81
342.128	115.54
342.34	2.9
342.552	0.85
342.764	23.38
342.977	-23.72
343.189	95.06
343.401	84.82
343.613	-19.63
343.826	-13.48
344.038	93.01
344.25	50
344.462	-54.44
344.674	-25.77
344.886	15.19
345.099	103.25
345.311	7
345.523	-21.67
345.735	-64.68
345.947	60.24
346.159	13.14
346.371	47.96
346.583	-1.19
346.795	115.54
347.007	25.43
347.219	25.43
347.431	13.14
347.643	35.67
347.855	-70.83
348.067	-9.39
348.279	35.67
348.491	58.2
348.703	19.29
348.915	43.86
349.127	15.19
349.339	9.05
349.551	76.63
349.763	97.11
349.975	11.09
350.187	88.92
350.399	58.2
350.61	23.38
350.822	-11.43
351.034	56.15
351.246	-38.06
351.458	64.34
351.669	107.35
351.881	43.86
352.093	17.24
352.305	31.57
352.517	27.48
352.728	37.72
352.94	72.53
353.152	39.76
353.363	9.05
353.575	-50.35
353.787	60.24
353.999	27.48
354.21	97.11
354.422	4.95
354.633	9.05
354.845	78.68
355.057	-46.25
355.268	-40.11
355.48	11.09
355.692	27.48
355.903	56.15
356.115	-9.39
356.326	-25.77
356.538	11.09
356.749	-5.29
356.961	84.82
357.172	45.91
357.384	-52.39
357.595	64.34
357.807	15.19
358.018	27.48
358.23	-36.01
358.441	0.85
358.653	50
358.864	25.43
359.075	-9.39
359.287	-38.06
359.498	90.96
359.709	9.05
359.921	27.48
360.132	-5.29
360.344	80.72
360.555	-38.06
360.766	37.72
360.977	-23.72
361.189	74.58
361.4	-81.07
361.611	31.57
361.823	109.4
362.034	4.95
362.245	-15.53
362.456	60.24
362.667	11.09
362.879	-3.24
363.09	76.63
363.301	56.15
363.512	80.72
363.723	54.1
363.935	-9.39
364.146	84.82
364.357	56.15
364.568	76.63
364.779	13.14
364.99	35.67
365.201	35.67
365.412	35.67
365.623	-21.67
365.834	62.29
366.045	-15.53
366.256	21.33
366.467	27.48
366.678	52.05
366.889	11.09
367.1	-23.72
367.311	-25.77
367.522	17.24
367.733	-19.63
367.944	68.44
368.155	-33.96
368.366	2.9
368.577	-13.48
368.788	13.14
368.999	17.24
369.209	54.1
369.42	72.53
369.631	11.09
369.842	47.96
370.053	76.63
370.264	76.63
370.474	-7.34
370.685	-11.43
370.896	-11.43
371.107	27.48
371.317	50
371.528	23.38
371.739	95.06
371.95	-5.29
372.16	11.09
372.371	-46.25
372.582	-5.29
372.792	113.49
373.003	2.9
373.214	50
373.424	78.68
373.635	-56.49
373.846	58.2
374.056	-7.34
374.267	-40.11
374.477	74.58
374.688	-38.06
374.898	21.33
375.109	-11.43
375.319	0.85
375.53	90.96
375.74	64.34
375.951	72.53
376.161	70.48
376.372	17.24
376.582	-1.19
376.793	17.24
377.003	2.9
377.214	80.72
377.424	84.82
377.635	33.62
377.845	17.24
378.055	33.62
378.266	-17.58
378.476	-9.39
378.686	107.35
378.897	23.38
379.107	115.54
379.317	72.53
379.528	15.19
379.738	13.14
379.948	-21.67
380.158	74.58
380.369	-13.48
380.579	138.07
380.789	101.2
380.999	50
381.21	31.57
381.42	101.2
381.63	52.05
381.84	93.01
382.05	84.82
382.261	41.81
382.471	47.96
382.681	-56.49
382.891	62.29
383.101	64.34
383.311	-31.91
383.521	43.86
383.731	15.19
383.941	68.44
384.151	136.02
384.361	25.43
384.571	-5.29
384.781	97.11
384.991	54.1
385.201	78.68
385.411	-83.11
385.621	41.81
385.831	21.33
386.041	-50.35
386.251	15.19
386.461	13.14
386.671	-25.77
386.881	66.39
387.091	0.85
387.301	50
387.511	68.44
387.72	64.34
387.93	35.67
388.14	47.96
388.35	33.62
388.56	74.58
388.769	35.67
388.979	19.29
389.189	17.24
389.399	41.81
389.609	27.48
389.818	60.24
390.028	90.96
390.238	35.67
390.447	15.19
390.657	97.11
390.867	52.05
391.076	-25.77
391.286	54.1
391.496	29.52
391.705	58.2
391.915	54.1
392.125	37.72
392.334	35.67
392.544	84.82
392.753	-19.63
392.963	56.15
393.172	54.1
393.382	11.09
393.591	136.02
393.801	68.44
394.01	76.63
394.22	56.15
394.429	41.81
394.639	45.91
394.848	21.33
395.058	52.05
395.267	86.87
395.477	97.11
395.686	117.59
395.895	84.82
396.105	142.16
396.314	21.33
396.524	33.62
396.733	78.68
396.942	101.2
397.152	25.43
397.361	148.31
397.57	54.1
397.78	82.77
397.989	90.96
398.198	111.44
398.407	97.11
398.617	64.34
398.826	86.87
399.035	154.45
399.244	-5.29
399.453	13.14
399.663	84.82
399.872	72.53
400.081	9.05
400.29	113.49
400.499	68.44
400.708	133.97
400.917	39.76
401.127	74.58
401.336	131.92
401.545	99.16
401.754	84.82
401.963	142.16
402.172	50
402.381	113.49
402.59	52.05
402.799	119.64
403.008	189.27
403.217	129.88
403.426	164.69
403.635	76.63
403.844	72.53
404.053	113.49
404.262	115.54
404.471	142.16
404.68	142.16
404.888	52.05
405.097	113.49
405.306	138.07
405.515	97.11
405.724	129.88
405.933	158.55
406.142	181.07
406.35	168.79
406.559	234.32
406.768	123.73
406.977	205.65
407.185	195.41
407.394	209.75
407.603	162.64
407.812	140.12
408.02	172.88
408.229	140.12
408.438	262.99
408.646	187.22
408.855	187.22
409.064	226.13
409.272	181.07
409.481	289.62
409.69	197.46
409.898	256.85
410.107	203.6
410.315	224.08
410.524	240.47
410.733	297.81
410.941	254.8
411.15	310.1
411.358	256.85
411.567	316.24
411.775	262.99
411.984	269.14
412.192	234.32
412.401	353.1
412.609	359.25
412.818	416.59
413.026	404.3
413.234	437.07
413.443	355.15
413.651	357.2
413.86	424.78
414.068	500.56
414.276	543.57
414.485	465.74
414.693	559.95
414.901	547.66
415.11	465.74
415.318	566.09
415.526	539.47
415.734	557.9
415.943	574.28
416.151	656.2
416.359	658.25
416.567	750.41
416.776	668.49
416.984	736.07
417.192	822.09
417.4	787.27
417.608	768.84
417.817	740.17
418.025	842.57
418.233	863.05
418.441	789.32
418.649	947.01
418.857	846.66
419.065	979.78
419.273	1030.98
419.481	1043.27
419.689	1274.69
419.897	1207.11
420.105	1069.89
420.313	1221.44
420.521	1174.34
420.729	1317.7
420.937	1409.86
421.145	1364.8
421.353	1366.85
421.561	1487.68
421.769	1602.36
421.977	1563.45
422.185	1669.95
422.393	1661.76
422.601	1821.5
422.809	1807.16
423.017	1897.27
423.224	1866.55
423.432	1954.62
423.64	2048.82
423.848	2026.29
424.056	2059.06
424.263	2210.61
424.471	2126.64
424.679	2218.8
424.887	2327.35
425.094	2431.79
425.302	2415.41
425.51	2495.28
425.718	2575.15
425.925	2728.75
426.133	2687.79
426.341	2876.2
426.548	2882.35
426.756	3148.58
426.964	3042.09
427.171	3124.01
427.379	3255.08
427.586	3482.4
427.794	3314.47
428.001	3558.18
428.209	3900.19
428.417	3762.97
428.624	4143.89
428.832	3922.71
429.039	4027.16
429.247	4039.45
429.454	4365.07
429.662	4635.41
429.869	4557.58
430.076	4549.39
430.284	4551.44
430.491	4715.28
430.699	5028.62
430.906	4967.18
431.114	5042.95
431.321	5139.21
431.528	5272.32
431.736	5556.99
431.943	5925.63
432.15	5851.9
432.358	5929.72
432.565	6284.02
432.772	6036.22
432.979	6460.15
433.187	6619.89
433.394	6515.44
433.601	6978.28
433.808	7074.54
434.016	7213.8
434.223	7322.34
434.43	7715.55
434.637	7533.28
434.844	7967.45
435.052	8252.12
435.259	8235.74
435.466	8364.76
435.673	8106.71
435.88	8717.01
436.087	9167.56
436.294	9231.05
436.501	9091.79
436.708	9255.62
436.915	9370.31
437.122	9769.66
437.329	9933.5
437.537	10013.37
437.743	10318.52
437.95	10400.44
438.157	10597.04
438.364	11291.31
438.571	11080.36
438.778	11072.17
438.985	12364.44
439.192	11752.1
439.399	12010.14
439.606	11696.8
439.813	12462.74
440.02	12993.17
440.227	13040.27
440.433	12858
440.64	13195.92
440.847	13279.88
441.054	13435.53
441.261	14490.23
441.467	14283.39
441.674	14539.38
441.881	14897.78
442.088	14936.69
442.294	15135.34
442.501	15413.87
442.708	15501.93
442.914	16263.77
443.121	16888.4
443.328	16437.85
443.534	17836.61
443.741	17087.06
443.948	16704.09
444.154	18133.57
444.361	17781.32
444.568	17830.47
444.774	18094.66
444.981	18221.63
445.187	18856.5
445.394	19780.14
445.6	19358.25
445.807	21209.62
446.013	20177.44
446.22	20539.93
446.426	21187.09
446.633	21858.82
446.839	22354.43
447.046	21320.21
447.252	22399.49
447.459	22530.56
447.665	22286.85
447.871	23349.75
448.078	24345.06
448.284	23235.06
448.491	23781.87
448.697	24703.45
448.903	25037.27
449.11	25033.18
449.316	24529.38
449.522	24922.59
449.728	25672.14
449.935	26235.33
450.141	26194.37
450.347	26859.96
450.553	25682.38
450.76	26104.26
450.966	26708.41
451.172	26442.18
451.378	27011.51
451.584	27056.57
451.791	27500.98
451.997	27015.61
452.203	27597.23
452.409	27457.97
452.615	27304.37
452.821	26427.84
453.027	25799.12
453.233	27234.74
453.44	26456.51
453.646	26614.21
453.852	26911.16
454.058	27187.64
454.264	26094.02
454.47	26704.32
454.676	26055.11
454.882	26986.94
455.088	24793.56
455.294	25067.99
455.5	25348.56
455.705	25483.73
455.911	24533.47
456.117	23824.87
456.323	23597.55
456.529	22311.42
456.735	23165.43
456.941	22639.1
457.147	22184.45
457.352	21563.92
457.558	21443.09
457.764	21543.44
457.97	20992.53
458.176	20595.23
458.381	20531.74
458.587	19571.24
458.793	19370.54
458.999	18438.72
459.204	19778.09
459.41	19401.26
459.616	18065.99
459.821	17832.52
460.027	18006.59
460.233	17341
460.438	16634.46
460.644	16839.25
460.85	16011.87
461.055	15977.06
461.261	15960.67
461.466	14785.14
461.672	14326.39
461.878	15071.86
462.083	14244.48
462.289	13937.28
462.494	13869.7
462.7	13458.06
462.905	12935.82
463.111	13421.19
463.316	13529.73
463.522	13197.96
463.727	13214.35
463.932	12931.73
464.138	13173.39
464.343	13136.52
464.549	12704.4
464.754	13087.37
464.959	12989.07
465.165	12872.34
465.37	12366.49
465.575	12102.3
465.781	12524.18
465.986	12315.29
466.191	12356.25
466.397	11838.11
466.602	11539.11
466.807	11782.82
467.012	11688.61
467.218	11571.88
467.423	11438.76
467.628	11868.83
467.833	11963.04
468.038	11688.61
468.244	11514.53
468.449	11827.87
468.654	11319.98
468.859	11250.35
469.064	11102.89
469.269	10869.42
469.474	10904.24
469.679	11117.23
469.885	10627.76
470.09	11037.36
470.295	10635.96
470.5	10556.08
470.705	10709.68
470.91	10341.05
471.115	10298.04
471.32	10402.49
471.525	10289.85
471.73	10121.91
471.935	10050.24
472.139	9773.76
472.344	9827.01
472.549	9843.39
472.754	9786.05
472.959	9654.98
473.164	9233.1
473.369	9185.99
473.574	9429.7
473.778	9454.28
473.983	9382.6
474.188	9304.78
474.393	8932.05
474.598	8893.13
474.802	8788.69
475.007	8669.91
475.212	8708.82
475.417	8450.77
475.621	8606.42
475.826	8549.07
476.031	8313.56
476.235	8309.46
476.44	8295.13
476.645	8039.13
476.849	8186.58
477.054	8051.42
477.259	7967.45
477.463	7885.53
477.668	7738.08
477.872	7975.64
478.077	7670.5
478.282	7529.19
478.486	7584.48
478.691	7494.37
478.895	7387.88
479.1	7391.97
479.304	7576.29
479.509	7178.98
479.713	7273.19
479.918	7254.76
480.122	7131.88
480.326	7135.98
480.531	7234.28
480.735	6951.66
480.94	7015.15
481.144	7209.7
481.348	6890.22
481.553	6920.94
481.757	6812.4
481.961	6945.52
482.166	7115.5
482.37	7029.48
482.574	6675.18
482.778	6906.6
482.983	6970.09
483.187	6900.46
483.391	6871.79
483.595	6976.23
483.8	6877.93
484.004	6925.04
484.208	7078.63
484.412	6871.79
484.616	7076.59
484.821	7064.3
485.025	6787.82
485.229	7045.87
485.433	6843.12
485.637	6912.75
485.841	6562.55
486.045	6779.63
486.249	6812.4
486.453	6718.19
486.657	6953.71
486.861	6914.8
487.065	6820.59
487.269	6761.2
487.473	6726.38
487.677	6939.37
487.881	6990.57
488.085	6884.08
488.289	6828.78
488.493	7013.1
488.697	6978.28
488.901	6912.75
489.105	7045.87
489.309	7097.07
489.512	6968.04
489.716	6916.84
489.92	6945.52
490.124	6896.36
490.328	7160.55
490.531	6916.84
490.735	7086.83
490.939	7252.71
491.143	7154.41
491.346	7232.23
491.55	7213.8
491.754	7148.26
491.958	7207.66
492.161	7310.05
492.365	7166.7
492.569	7301.86
492.772	7310.05
492.976	7353.06
493.18	7523.04
493.383	7410.4
493.587	7666.4
493.79	7764.7
493.994	7416.55
494.197	7803.61
494.401	7680.74
494.605	7707.36
494.808	7650.02
495.012	7961.31
495.215	7805.66
495.419	8010.46
495.622	7981.79
495.825	8147.67
496.029	8116.95
496.232	8153.82
496.436	8288.98
496.639	8491.73
496.843	8305.37
497.046	8669.91
497.249	8442.58
497.453	8745.68
497.656	8835.79
497.859	8712.91
498.063	8956.62
498.266	9095.88
498.469	9153.23
498.673	9163.47
498.876	9378.5
499.079	9433.8
499.282	9370.31
499.485	9700.03
499.689	9816.77
499.892	9870.01
500.095	9804.48
500.298	10042.04
500.501	10111.68
500.705	10181.31
500.908	10250.94
501.111	10533.56
501.314	10635.96
501.517	10543.8
501.72	10642.1
501.923	10834.61
502.126	11041.45
502.329	11205.29
502.532	11285.16
502.735	11262.63
502.938	11561.64
503.141	11520.68
503.344	11752.1
503.547	11815.59
503.75	11946.66
503.953	12102.3
504.156	12421.78
504.359	12421.78
504.562	12425.88
504.765	12755.6
504.968	12679.83
505.17	13056.65
505.373	12810.9
505.576	13345.42
505.779	13271.69
505.982	13517.45
506.185	13660.8
506.387	13576.84
506.59	13808.26
506.793	14119.55
506.996	14310.01
507.198	14617.21
507.401	14297.72
507.604	14371.45
507.807	14912.11
508.009	15047.28
508.212	15157.87
508.415	15604.33
508.617	15495.78
508.82	15759.97
509.022	15374.95
509.225	15950.43
509.428	16257.63
509.63	16267.87
509.833	15977.06
510.035	16847.44
510.238	16286.3
510.44	16915.03
510.643	17033.81
510.845	17209.93
511.048	17193.55
511.25	17523.27
511.453	17672.78
511.655	18147.9
511.858	18108.99
512.06	18106.95
512.262	18475.58
512.465	18268.73
512.667	18602.55
512.87	19036.72
513.072	18895.41
513.274	19554.86
513.477	19798.57
513.679	19681.83
513.881	20062.76
514.084	19948.07
514.286	20154.91
514.488	20320.8
514.69	20767.26
514.893	21094.93
515.095	20761.11
515.297	21115.41
515.499	21039.64
515.701	21549.58
515.904	21973.51
516.106	22045.19
516.308	22129.16
516.51	22407.68
516.712	22501.89
516.914	22438.4
517.116	23276.02
517.318	22901.24
517.52	23398.9
517.722	23413.23
517.925	23495.15
518.127	24031.72
518.329	24041.96
518.531	24177.12
518.733	24420.83
518.935	24539.61
519.136	24695.26
519.338	24932.82
519.54	25371.09
519.742	25375.19
519.944	25455.06
520.146	26141.13
520.348	25973.19
520.55	25991.62
520.752	26399.17
520.954	27161.01
521.155	26358.21
521.357	27341.24
521.559	27103.67
521.761	27716.01
521.963	27644.34
522.164	27920.81
522.366	27871.66
522.568	28391.84
522.77	28180.9
522.971	28694.94
523.173	28541.35
523.375	29118.87
523.576	28889.5
523.778	29264.28
523.98	29696.4
524.181	29626.77
524.383	29528.47
524.584	29798.8
524.786	30019.98
524.988	29985.16
525.189	30308.74
525.391	30656.9
525.592	30601.6
525.794	31031.68
525.995	30540.16
526.197	30847.36
526.398	30826.88
526.6	31449.46
526.801	30988.67
527.003	31652.21
527.204	31306.1
527.406	32043.37
527.607	31668.59
527.808	32414.05
528.01	31869.3
528.211	32237.93
528.412	32491.88
528.614	32577.89
528.815	32633.19
529.016	32921.95
529.218	32504.17
529.419	32848.22
529.62	32944.48
529.822	32921.95
530.023	33030.49
530.224	33409.37
530.425	32835.94
530.626	32878.94
530.828	32870.75
531.029	33841.49
531.23	33319.26
531.431	33229.15
531.632	33489.24
531.833	33288.54
532.035	33421.66
532.236	33718.61
532.437	33773.91
532.638	33675.6
532.839	33704.28
533.04	33821.01
533.241	33737.04
533.442	34517.32
533.643	34101.58
533.844	33894.74
534.045	34224.46
534.246	33685.84
534.447	33962.32
534.648	34017.61
534.849	33939.79
535.05	33864.02
535.251	34259.27
535.451	33685.84
535.652	34136.4
535.853	34300.23
536.054	34308.43
536.255	34261.32
536.456	33710.42
536.657	34789.7
536.857	34333
537.058	34328.91
537.259	34244.94
537.46	34314.57
537.66	34265.42
537.861	34445.64
538.062	34255.18
538.263	34318.67
538.463	34443.59
538.664	34271.56
538.865	34120.01
539.065	34333
539.266	34001.23
539.466	34122.06
539.667	34158.92
539.868	34322.76
540.068	34171.21
540.269	34023.76
540.469	34513.22
540.67	34171.21
540.87	34345.29
541.071	34099.53
541.271	34517.32
541.472	34406.73
541.672	34197.84
541.873	34230.6
542.073	33712.47
542.274	34431.3
542.474	34222.41
542.675	33698.13
542.875	34005.33
543.075	33771.86
543.276	33589.59
543.476	34543.94
543.676	33780.05
543.877	34244.94
544.077	34152.78
544.277	34302.28
544.478	34181.45
544.678	34449.74
544.878	34193.74
545.078	34156.88
545.279	33743.19
545.479	34013.52
545.679	34324.81
545.879	33945.94
546.079	33655.12
546.28	33933.65
546.48	33612.12
546.68	34111.82
546.88	34324.81
547.08	33947.98
547.28	33894.74
547.48	33849.68
547.68	34191.69
547.88	33808.72
548.081	33761.62
548.281	33552.73
548.481	33872.21
548.681	34257.23
548.881	34117.96
549.081	33663.32
549.28	33868.11
549.48	33853.78
549.68	33941.84
549.88	34019.66
550.08	33403.22
550.28	33775.95
550.48	33552.73
550.68	34113.87
550.88	33218.91
551.08	34060.62
551.279	33927.5
551.479	33743.19
551.679	33771.86
551.879	33767.76
552.079	33657.17
552.278	33657.17
552.478	33712.47
552.678	33585.49
552.878	34025.81
553.077	33581.4
553.277	33315.16
553.477	33884.5
553.676	34074.96
553.876	33466.71
554.076	33565.01
554.275	32969.05
554.475	32969.05
554.674	33685.84
554.874	33763.67
555.074	33573.21
555.273	33485.14
555.473	33632.6
555.672	33255.77
555.872	33655.12
556.071	33139.04
556.271	33263.96
556.47	32987.49
556.67	32768.35
556.869	33096.03
557.068	33182.04
557.268	32954.72
557.467	33075.55
557.667	32977.25
557.866	33073.5
558.065	32729.44
558.265	32850.27
558.464	32467.3
558.663	32977.25
558.863	32473.45
559.062	33065.31
559.261	32479.59
559.461	32872.8
559.66	32020.84
559.859	32313.7
560.058	32059.76
560.258	32461.16
560.457	32086.38
560.656	32434.53
560.855	32364.9
561.054	32207.21
561.253	31791.47
561.453	32221.55
561.652	32524.65
561.851	32276.84
562.05	31758.7
562.249	31601.01
562.448	32108.91
562.647	31912.3
562.846	31678.83
563.045	31842.67
563.244	31584.63
563.443	31570.29
563.642	31310.2
563.841	31785.33
564.04	31125.88
564.239	31621.49
564.438	31011.2
564.637	30970.24
564.836	30953.85
565.035	30892.41
565.234	31398.26
565.432	31086.97
565.631	31181.18
565.83	31062.4
566.029	30529.92
566.228	30765.44
566.427	30450.05
566.625	30730.62
566.824	29966.73
567.023	30828.93
567.222	29589.91
567.42	30828.93
567.619	30175.62
567.818	30331.27
568.016	30370.18
568.215	30005.64
568.414	29684.11
568.612	30101.9
568.811	29909.39
569.01	30093.71
569.208	29643.15
569.407	29755.79
569.605	29501.84
569.804	29688.21
570.002	29278.61
570.201	29395.35
570.4	28905.88
570.598	29041.05
570.797	28971.42
570.995	28877.21
571.193	28596.64
571.392	29239.7
571.59	28807.58
571.789	28901.79
571.987	28670.37
572.186	28826.01
572.384	28363.17
572.582	28531.11
572.781	28504.48
572.979	28086.7
573.177	28271.01
573.376	28051.88
573.574	28008.87
573.772	28174.76
573.971	27746.73
574.169	27871.66
574.367	27763.12
574.565	27818.41
574.763	27568.56
574.962	27720.11
575.16	27066.81
575.358	27394.48
575.556	26659.26
575.754	27269.56
575.952	27406.77
576.151	27740.59
576.349	27003.32
576.547	27046.33
576.745	26960.31
576.943	26995.13
577.141	26878.4
577.339	26841.53
577.537	26827.2
577.735	26819
577.933	26530.24
578.131	26780.09
578.329	26274.24
578.527	26390.98
578.725	26548.67
578.923	26290.63
579.121	26204.61
579.319	26225.09
579.516	26284.48
579.714	26157.51
579.912	25905.61
580.11	25983.43
580.308	25981.38
580.506	25680.33
580.704	25299.41
580.901	25567.7
581.099	25719.24
581.297	25289.17
581.495	25584.08
581.692	25412.05
581.89	25280.98
582.088	25362.9
582.285	25076.18
582.483	25475.54
582.681	24859.1
582.878	25053.66
583.076	25072.09
583.274	25070.04
583.471	24742.36
583.669	24822.23
583.866	24551.9
584.064	24969.69
584.262	24666.59
584.459	24379.87
584.657	24420.83
584.854	24652.25
585.052	24115.69
585.249	24084.97
585.447	24252.9
585.644	24005.1
585.841	24351.2
586.039	24070.63
586.236	23753.19
586.434	23833.07
586.631	23972.33
586.828	23837.16
587.026	23648.75
587.223	23452.14
587.42	23241.2
587.618	23364.08
587.815	23175.67
588.012	23513.58
588.21	23353.84
588.407	23519.73
588.604	23183.86
588.801	23083.51
588.999	23052.79
589.196	22927.86
589.393	22874.62
589.59	22661.63
589.787	22714.87
589.984	22790.65
590.182	22401.54
590.379	22516.22
590.576	22376.96
590.773	22663.68
590.97	22442.49
591.167	22438.4
591.364	22192.64
591.561	22366.72
591.758	22209.03
591.955	22256.13
592.152	22178.31
592.349	21766.67
592.546	22037
592.743	21842.44
592.94	21525
593.137	21848.58
593.334	22073.86
593.531	21182.99
593.727	21670.41
593.924	21514.77
594.121	21117.46
594.318	21346.83
594.515	21256.72
594.712	21760.52
594.908	20947.48
595.105	21246.48
595.302	20970.01
595.499	20982.29
595.696	20963.86
595.892	20777.5
596.089	21049.88
596.286	21019.16
596.482	20734.49
596.679	20750.87
596.876	20714.01
597.072	20437.53
597.269	20660.76
597.466	20412.96
597.662	20159.01
597.859	20128.29
598.055	20349.47
598.252	20001.32
598.448	20230.69
598.645	20046.37
598.841	19933.73
599.038	19982.88
599.234	20064.8
599.431	19681.83
599.627	19696.17
599.824	19870.25
600.02	19491.37
600.217	19788.33
600.413	19538.48
600.609	19409.45
600.806	19331.63
601.002	19292.72
601.198	19108.4
601.395	19175.98
601.591	19337.77
601.787	19237.42
601.984	18919.99
602.18	19218.99
602.376	18876.98
602.572	18850.36
602.769	19059.25
602.965	18797.11
603.161	18780.73
603.357	18672.18
603.553	18522.68
603.75	18606.65
603.946	18227.78
604.142	18623.03
604.338	18328.13
604.534	18498.11
604.73	18336.32
604.926	18584.12
605.122	18117.18
605.318	18133.57
605.514	18094.66
605.71	17914.44
605.906	18152
606.102	18160.19
606.298	17984.07
606.494	17965.64
606.69	17953.35
606.886	17861.19
607.082	17525.32
607.278	17783.37
607.474	17873.48
607.67	18063.94
607.866	17324.62
608.062	17687.11
608.257	17635.91
608.453	17504.84
608.649	17601.1
608.845	17201.74
609.041	17367.63
609.236	17644.1
609.432	17183.31
609.628	17402.44
609.824	17128.02
610.019	17181.26
610.215	17142.35
610.411	17283.66
610.606	17082.96
610.802	16964.18
610.998	16962.13
611.193	17046.1
611.389	16810.58
611.584	16929.36
611.78	16775.77
611.976	16906.84
612.171	16910.93
612.367	16818.77
612.562	16642.65
612.758	16429.66
612.953	16507.48
613.149	16519.77
613.344	16347.74
613.539	16777.81
613.735	16552.54
613.93	16456.28
614.126	16362.08
614.321	16575.06
614.517	16466.52
614.712	16368.22
614.907	16128.61
615.103	16552.54
615.298	16384.6
615.493	16425.56
615.688	15972.96
615.884	16304.73
616.079	15968.87
616.274	15821.41
616.47	16087.65
616.665	16337.5
616.86	16028.26
617.055	16065.12
617.25	15897.19
617.445	16087.65
617.641	15708.77
617.836	15944.29
618.031	15592.04
618.226	15714.92
618.421	15579.75
618.616	15749.73
618.811	15372.91
619.006	15706.73
619.201	15190.64
619.396	15604.33
619.591	14977.65
619.786	15716.97
619.981	15131.25
620.176	15454.83
620.371	14989.94
620.566	14920.31
620.761	14940.79
620.956	15065.71
621.151	14977.65
621.346	14809.72
621.541	14652.02
621.735	14920.31
621.93	14412.41
622.125	14400.12
622.32	14346.87
622.515	14527.1
622.709	14248.57
622.904	14297.72
623.099	14092.93
623.294	13996.67
623.488	13996.67
623.683	14031.49
623.878	13640.33
624.072	13738.63
624.267	13814.4
624.462	13628.04
624.656	13625.99
624.851	13382.28
625.046	13523.59
625.24	13351.56
625.435	13347.47
625.629	13363.85
625.824	13392.52
626.018	12970.64
626.213	12989.07
626.407	12894.86
626.602	12876.43
626.796	12888.72
626.991	13122.19
627.185	12638.87
627.38	12991.12
627.574	12425.88
627.768	12268.19
627.963	12391.06
628.157	12397.21
628.352	12339.87
628.546	11940.51
628.74	12137.12
628.935	12040.86
629.129	12194.46
629.323	11997.85
629.517	12049.05
629.712	11776.67
629.906	12047.01
630.1	11559.59
630.294	11608.74
630.489	11520.68
630.683	11907.74
630.877	11436.71
631.071	11360.94
631.265	11315.88
631.459	11508.39
631.653	11031.21
631.848	11250.35
632.042	10955.44
632.236	11289.26
632.43	10939.05
632.624	11137.71
632.818	10830.51
633.012	10709.68
633.206	10867.38
633.4	11008.69
633.594	10513.08
633.788	10756.79
633.982	10709.68
634.176	10545.84
634.369	10418.87
634.563	10420.92
634.757	10175.16
634.951	10463.93
635.145	10205.88
635.339	10316.47
635.533	10203.83
635.726	10093.24
635.92	10013.37
636.114	9730.75
636.308	9941.69
636.501	9945.79
636.695	9863.87
636.889	9755.33
637.083	9755.33
637.276	9616.07
637.47	9505.48
637.664	9781.95
637.857	9648.83
638.051	9652.93
638.244	9329.35
638.438	9577.16
638.632	9300.68
638.825	9251.53
639.019	9183.95
639.212	9233.1
639.406	9315.02
639.599	9026.25
639.793	8948.43
639.986	8903.37
640.18	8921.81
640.373	8962.76
640.567	8741.58
640.76	8766.16
640.954	8653.52
641.147	8610.51
641.34	8532.69
641.534	8590.03
641.727	8667.86
641.92	8356.57
642.114	8291.03
642.307	8352.47
642.5	8258.26
642.694	8207.06
642.887	8215.26
643.08	8227.54
643.273	8401.62
643.467	8078.04
643.66	8231.64
643.853	8075.99
644.046	7897.82
644.239	7949.02
644.432	7834.33
644.626	7664.35
644.819	7656.16
645.012	7805.66
645.205	7738.08
645.398	7797.47
645.591	7695.07
645.784	7627.49
645.977	7707.36
646.17	7500.51
646.363	7625.44
646.556	7502.56
646.749	7363.3
646.942	7287.53
647.135	7416.55
647.328	7338.73
647.521	7365.35
647.714	7109.35
647.907	7246.57
648.099	7088.87
648.292	7082.73
648.485	7088.87
648.678	7029.48
648.871	7025.39
649.064	6953.71
649.256	6963.95
649.449	6843.12
649.642	6800.11
649.835	6853.36
650.027	6787.82
650.22	6886.12
650.413	6802.16
650.605	6755.05
650.798	6611.7
650.991	6699.76
651.183	6589.17
651.376	6560.5
651.568	6597.36
651.761	6458.1
651.954	6341.36
652.146	6318.84
652.339	6306.55
652.531	6353.65
652.724	6267.64
652.916	6228.73
653.109	6214.39
653.301	6183.67
653.494	6101.75
653.686	6167.29
653.879	6306.55
654.071	6009.59
654.263	6007.55
654.456	6013.69
654.648	5909.24
654.84	5817.08
655.033	5798.65
655.225	5839.61
655.417	5839.61
655.61	5843.71
655.802	5874.43
655.994	5720.83
656.186	5651.2
656.379	5671.68
656.571	5858.04
656.763	5616.38
656.955	5610.24
657.148	5630.72
657.34	5534.46
657.532	5552.9
657.724	5606.14
657.916	5538.56
658.108	5407.49
658.3	5348.1
658.492	5301
658.684	5182.21
658.876	5317.38
659.068	5243.65
659.26	5200.65
659.452	5206.79
659.644	5294.85
659.836	5102.34
660.028	5149.45
660.22	5061.38
660.412	5065.48
660.604	5028.62
660.796	4987.66
660.988	5059.34
661.18	5008.14
661.372	4956.94
661.563	5040.9
661.755	5036.81
661.947	4844.3
662.139	4762.38
662.331	4821.77
662.522	4786.96
662.714	4731.66
662.906	4791.05
663.097	4731.66
663.289	4719.37
663.481	4629.26
663.673	4635.41
663.864	4793.1
664.056	4545.3
664.247	4528.91
664.439	4563.73
664.631	4479.76
664.822	4463.38
665.014	4563.73
665.205	4393.75
665.397	4496.14
665.588	4403.99
665.78	4432.66
665.971	4381.46
666.163	4344.6
666.354	4408.08
666.546	4350.74
666.737	4334.36
666.929	4332.31
667.12	4215.57
667.311	4252.44
667.503	4317.97
667.694	4287.25
667.885	4041.5
668.077	4268.82
668.268	4076.31
668.459	4094.74
668.651	4002.58
668.842	4061.98
669.033	4047.64
669.224	4129.56
669.416	3984.15
669.607	4158.23
669.798	4057.88
669.989	3986.2
670.18	3869.47
670.371	3973.91
670.563	3894.04
670.754	3996.44
670.945	3930.91
671.136	4090.65
671.327	3894.04
671.518	3793.69
671.709	3820.32
671.9	3869.47
672.091	3787.55
672.282	3732.25
672.473	3891.99
672.664	3871.51
672.855	3722.01
673.046	3707.68
673.237	3787.55
673.428	3746.59
673.619	3685.15
673.809	3783.45
674	3734.3
674.191	3687.2
674.382	3744.54
674.573	3611.42
674.764	3670.81
674.954	3719.96
675.145	3654.43
675.336	3654.43
675.527	3543.84
675.717	3566.37
675.908	3627.81
676.099	3435.3
676.289	3445.54
676.48	3566.37
676.671	3468.06
676.861	3552.03
677.052	3513.12
677.243	3490.59
677.433	3445.54
677.624	3509.02
677.814	3408.67
678.005	3418.91
678.195	3539.74
678.386	3463.97
678.576	3359.52
678.767	3531.55
678.957	3367.71
679.148	3429.15
679.338	3373.86
679.529	3394.34
679.719	3244.84
679.909	3298.08
680.1	3414.82
680.29	3324.71
680.481	3418.91
680.671	3355.43
680.861	3449.63
681.052	3343.14
681.242	3345.19
681.432	3443.49
681.622	3367.71
681.813	3314.47
682.003	3242.79
682.193	3277.6
682.383	3283.75
682.573	3363.62
682.764	3255.08
682.954	3121.96
683.144	3263.27
683.334	3289.89
683.524	3226.4
683.714	3148.58
683.904	3160.87
684.094	3359.52
684.284	3144.49
684.474	3175.2
684.664	3253.03
684.854	3205.92
685.044	3203.88
685.234	3138.34
685.424	3124.01
685.614	3164.97
685.804	3140.39
685.994	3154.73
686.184	3226.4
686.374	3011.37
686.564	2954.02
686.753	3128.1
686.943	3048.23
687.133	2986.79
687.323	3066.66
687.513	3009.32
687.702	3081
687.892	2941.74
688.082	2972.46
688.272	2988.84
688.461	2904.87
688.651	3136.29
688.841	3015.46
689.03	2870.06
689.22	2837.29
689.41	2898.73
689.599	2919.21
689.789	2872.11
689.979	2841.39
690.168	2906.92
690.358	2790.19
690.547	2802.47
690.737	2845.48
690.926	2874.15
691.116	2755.37
691.305	2829.1
691.495	2710.32
691.684	2712.36
691.874	2804.52
692.063	2681.64
692.252	2747.18
692.442	2716.46
692.631	2638.64
692.82	2601.77
693.01	2757.42
693.199	2667.31
693.388	2644.78
693.578	2671.4
693.767	2624.3
693.956	2667.31
694.146	2585.39
694.335	2673.45
694.524	2741.04
694.713	2640.69
694.902	2569.01
695.092	2593.58
695.281	2540.33
695.47	2530.09
695.659	2530.09
695.848	2730.8
696.037	2548.53
696.226	2571.05
696.415	2597.68
696.604	2644.78
696.793	2489.14
696.982	2493.23
697.171	2528.05
697.36	2677.55
697.549	2589.49
697.738	2476.85
697.927	2478.9
698.116	2339.63
698.305	2583.34
698.494	2505.52
698.683	2519.85
698.872	2521.9
699.061	2399.02
699.25	2511.66
699.438	2439.98
699.627	2601.77
699.816	2509.62
700.005	2532.14
700.193	2634.54
700.382	2542.38
700.571	2460.46
700.76	2530.09
700.948	2546.48
701.137	2462.51
701.326	2374.45
701.514	2419.5
701.703	2517.81
701.892	2499.38
702.08	2564.91
702.269	2493.23
702.457	2399.02
702.646	2575.15
702.834	2413.36
703.023	2386.74
703.212	2470.7
703.4	2399.02
703.589	2388.78
703.777	2501.42
703.965	2523.95
704.154	2493.23
704.342	2454.32
704.531	2421.55
704.719	2317.11
704.907	2511.66
705.096	2329.39
705.284	2528.05
705.472	2550.57
705.661	2392.88
705.849	2394.93
706.037	2444.08
706.226	2374.45
706.414	2552.62
706.602	2380.59
706.79	2489.14
706.979	2386.74
707.167	2388.78
707.355	2349.87
707.543	2392.88
707.731	2474.8
707.919	2515.76
708.107	2394.93
708.296	2370.35
708.484	2489.14
708.672	2351.92
708.86	2544.43
709.048	2431.79
709.236	2435.89
709.424	2386.74
709.612	2407.22
709.8	2523.95
709.988	2519.85
710.176	2470.7
710.364	2345.78
710.551	2370.35
710.739	2464.56
710.927	2417.46
711.115	2427.7
711.303	2548.53
711.491	2501.42
711.679	2372.4
711.866	2470.7
712.054	2388.78
712.242	2407.22
712.43	2419.5
712.617	2509.62
712.805	2427.7
712.993	2272.05
713.181	2372.4
713.368	2227
713.556	2333.49
713.744	2349.87
713.931	2507.57
714.119	2360.11
714.306	2396.98
714.494	2308.91
714.682	2474.8
714.869	2343.73
715.057	2394.93
715.244	2386.74
715.432	2472.75
715.619	2427.7
715.807	2433.84
715.994	2452.27
716.182	2345.78
716.369	2431.79
716.556	2390.83
716.744	2417.46
716.931	2349.87
717.119	2452.27
717.306	2478.9
717.493	2392.88
717.681	2401.07
717.868	2419.5
718.055	2431.79
718.242	2435.89
718.43	2394.93
718.617	2249.52
718.804	2421.55
718.991	2401.07
719.179	2368.31
719.366	2380.59
719.553	2364.21
719.74	2452.27
719.927	2362.16
720.114	2292.53
720.301	2302.77
720.488	2310.96
720.676	2384.69
720.863	2302.77
721.05	2376.5
721.237	2446.13
721.424	2288.43
721.611	2274.1
721.798	2392.88
721.985	2308.91
722.172	2321.2
722.358	2323.25
722.545	2272.05
722.732	2321.2
722.919	2308.91
723.106	2339.63
723.293	2386.74
723.48	2360.11
723.667	2290.48
723.853	2417.46
724.04	2394.93
724.227	2360.11
724.414	2335.54
724.6	2382.64
724.787	2427.7
724.974	2417.46
725.161	2388.78
725.347	2231.09
725.534	2351.92
725.72	2333.49
725.907	2298.67
726.094	2358.07
726.28	2333.49
726.467	2237.24
726.653	2468.66
726.84	2288.43
727.027	2358.07
727.213	2310.96
727.4	2380.59
727.586	2267.95
727.773	2267.95
727.959	2276.15
728.145	2247.48
728.332	2319.15
728.518	2208.56
728.705	2169.65
728.891	2374.45
729.077	2274.1
729.264	2374.45
729.45	2143.03
729.636	2356.02
729.823	2206.52
730.009	2231.09
730.195	2181.94
730.382	2263.86
730.568	2294.58
730.754	2282.29
730.94	2120.5
731.126	2214.71
731.313	2194.23
731.499	2263.86
731.685	2392.88
731.871	2317.11
732.057	2296.63
732.243	2313.01
732.429	2247.48
732.615	2280.24
732.801	2192.18
732.987	2241.33
733.173	2171.7
733.359	2183.99
733.545	2138.93
733.731	2196.28
733.917	2210.61
734.103	2231.09
734.289	2237.24
734.475	2173.75
734.661	2294.58
734.847	2165.56
735.033	2175.8
735.219	2122.55
735.404	2151.22
735.59	2181.94
735.776	2104.12
735.962	2114.36
736.148	2181.94
736.333	2190.13
736.519	2061.11
736.705	2181.94
736.89	2063.16
737.076	2120.5
737.262	2097.97
737.447	2143.03
737.633	2089.78
737.819	2202.42
738.004	2057.01
738.19	2104.12
738.375	2024.25
738.561	1991.48
738.747	2173.75
738.932	2030.39
739.118	2102.07
739.303	2059.06
739.489	2114.36
739.674	1995.57
739.859	2020.15
740.045	2097.97
740.23	1960.76
740.416	1977.14
740.601	2042.68
740.786	2024.25
740.972	1956.66
741.157	2005.81
741.342	2009.91
741.528	1927.99
741.713	2001.72
741.898	1944.38
742.084	2005.81
742.269	1942.33
742.454	1940.28
742.639	1876.79
742.824	1911.61
743.01	1958.71
743.195	1889.08
743.38	1872.7
743.565	1919.8
743.75	1856.31
743.935	1706.81
744.12	1856.31
744.305	1745.72
744.49	1829.69
744.675	1805.11
744.86	1848.12
745.045	1874.74
745.23	1833.79
745.415	1868.6
745.6	1805.11
745.785	1872.7
745.97	1870.65
746.155	1786.68
746.34	1780.54
746.525	1682.24
746.71	1768.25
746.895	1633.08
747.079	1755.96
747.264	1688.38
747.449	1643.32
747.634	1688.38
747.819	1811.26
748.003	1620.8
748.188	1608.51
748.373	1585.98
748.557	1618.75
748.742	1657.66
748.927	1639.23
749.111	1567.55
749.296	1532.73
749.481	1547.07
749.665	1569.6
749.85	1536.83
750.034	1534.78
750.219	1532.73
750.404	1409.86
750.588	1598.27
750.773	1450.82
750.957	1420.1
751.141	1499.97
751.326	1430.34
751.51	1512.25
751.695	1399.62
751.879	1469.25
752.064	1364.8
752.248	1395.52
752.432	1362.75
752.617	1317.7
752.801	1444.67
752.985	1260.35
753.17	1416
753.354	1450.82
753.538	1356.61
753.722	1215.3
753.907	1252.16
754.091	1256.26
754.275	1350.46
754.459	1313.6
754.643	1334.08
754.828	1264.45
755.012	1239.87
755.196	1274.69
755.38	1225.54
755.564	1194.82
755.748	1239.87
755.932	1178.44
756.116	1291.07
756.3	1162.05
756.484	1170.24
756.668	1121.09
756.852	1086.28
757.036	1229.63
757.22	1145.67
757.404	1094.47
757.588	1143.62
757.772	1192.77
757.956	1139.52
758.14	1166.15
758.323	1065.8
758.507	1110.85
758.691	1129.28
758.875	1151.81
759.059	1092.42
759.242	1063.75
759.426	1063.75
759.61	1057.61
759.794	1049.41
759.977	1016.65
760.161	1051.46
760.345	1084.23
760.528	994.12
760.712	1043.27
760.895	1102.66
761.079	973.64
761.263	885.58
761.446	938.82
761.63	1061.7
761.813	1006.41
761.997	1006.41
762.18	1039.17
762.364	1104.71
762.547	965.45
762.731	912.2
762.914	858.95
763.098	977.73
763.281	936.78
763.464	895.82
763.648	969.54
763.831	949.06
764.015	914.25
764.198	910.15
764.381	842.57
764.564	953.16
764.748	899.91
764.931	953.16
765.114	893.77
765.297	863.05
765.481	867.14
765.664	846.66
765.847	904.01
766.03	899.91
766.213	871.24
766.397	981.83
766.58	832.33
766.763	846.66
766.946	834.38
767.129	871.24
767.312	895.82
767.495	861
767.678	795.47
767.861	904.01
768.044	811.85
768.227	836.42
768.41	910.15
768.593	889.67
768.776	924.49
768.959	824.14
769.142	799.56
769.324	834.38
769.507	768.84
769.69	787.27
769.873	797.51
770.056	734.03
770.239	805.71
770.421	766.79
770.604	779.08
770.787	715.59
770.97	768.84
771.152	703.31
771.335	738.12
771.518	699.21
771.7	811.85
771.883	748.36
772.066	781.13
772.248	703.31
772.431	666.44
772.613	729.93
772.796	672.59
772.978	672.59
773.161	772.94
773.343	869.19
773.526	629.58
773.708	703.31
773.891	682.83
774.073	750.41
774.256	691.02
774.438	699.21
774.621	559.95
774.803	674.64
774.985	695.11
775.168	703.31
775.35	617.29
775.532	656.2
775.715	662.35
775.897	666.44
776.079	631.63
776.261	617.29
776.444	635.72
776.626	631.63
776.808	623.44
776.99	598.86
777.173	625.48
777.355	627.53
777.537	525.13
777.719	596.81
777.901	553.8
778.083	641.87
778.265	568.14
778.447	533.33
778.629	533.33
778.811	650.06
778.993	609.1
779.175	518.99
779.357	611.15
779.539	453.45
779.721	586.57
779.903	529.23
780.085	543.57
780.267	578.38
780.449	504.65
780.631	566.09
780.812	621.39
780.994	508.75
781.176	582.48
781.358	389.97
781.54	471.89
781.721	543.57
781.903	469.84
782.085	473.93
782.267	432.97
782.448	412.5
782.63	514.89
782.812	500.56
782.993	535.37
783.175	404.3
783.357	416.59
783.538	439.12
783.72	461.65
783.901	392.02
784.083	430.93
784.264	443.21
784.446	385.87
784.627	412.5
784.809	379.73
784.99	492.37
785.172	480.08
785.353	428.88
785.535	418.64
785.716	400.21
785.897	373.58
786.079	441.17
786.26	437.07
786.441	420.69
786.623	349.01
786.804	308.05
786.985	363.34
787.167	451.41
787.348	355.15
787.529	410.45
787.71	359.25
787.891	381.78
788.073	353.1
788.254	342.86
788.435	389.97
788.616	379.73
788.797	326.48
788.978	256.85
789.159	283.47
789.34	344.91
789.522	310.1
789.703	285.52
789.884	396.11
790.065	295.76
790.246	338.77
790.427	375.63
790.607	334.67
790.788	441.17
790.969	342.86
791.15	342.86
791.331	306
791.512	392.02
791.693	246.61
791.874	308.05
792.054	340.82
792.235	334.67
792.416	295.76
792.597	334.67
792.778	279.38
792.958	328.53
793.139	330.58
793.32	271.19
793.5	260.95
793.681	314.19
793.862	326.48
794.042	179.03
794.223	248.66
794.404	252.75
794.584	146.26
794.765	308.05
794.945	293.71
795.126	324.43
795.306	277.33
795.487	289.62
795.667	265.04
795.848	232.27
796.028	258.9
796.209	297.81
796.389	252.75
796.57	289.62
796.75	353.1
796.93	244.56
797.111	203.6
797.291	207.7
797.471	197.46
797.652	201.55
797.832	189.27
798.012	230.23
798.192	179.03
798.373	222.03
798.553	211.79
798.733	289.62
798.913	242.51
799.093	295.76
799.274	260.95
799.454	252.75
799.634	265.04
799.814	289.62
799.994	185.17
800.174	199.51
800.354	201.55
800.534	105.3
800.714	281.43
800.894	168.79
801.074	138.07
801.254	174.93
801.434	250.71
801.614	248.66
801.794	142.16
801.974	836.42
802.154	303.95
802.334	242.51
802.514	199.51
802.693	187.22
802.873	154.45
803.053	230.23
803.233	176.98
803.413	195.41
803.592	219.99
803.772	176.98
803.952	283.47
804.131	213.84
804.311	240.47
804.491	150.36
804.67	191.31
804.85	123.73
805.03	170.83
805.209	295.76
805.389	181.07
805.568	162.64
805.748	146.26
805.928	193.36
806.107	179.03
806.287	172.88
806.466	222.03
806.646	156.5
806.825	203.6
807.004	117.59
807.184	117.59
807.363	203.6
807.543	199.51
807.722	142.16
807.901	228.18
808.081	224.08
808.26	90.96
808.439	174.93
808.619	197.46
808.798	201.55
808.977	156.5
809.156	150.36
809.336	150.36
809.515	138.07
809.694	181.07
809.873	99.16
810.052	133.97
810.231	289.62
810.411	179.03
810.59	195.41
810.769	138.07
810.948	140.12
811.127	131.92
811.306	115.54
811.485	113.49
811.664	129.88
811.843	164.69
812.022	109.4
812.201	142.16
812.38	168.79
812.559	185.17
812.737	232.27
812.916	117.59
813.095	88.92
813.274	129.88
813.453	103.25
813.632	148.31
813.811	142.16
813.989	138.07
814.168	160.59
814.347	179.03
814.526	181.07
814.704	133.97
814.883	146.26
815.062	80.72
815.24	129.88
815.419	125.78
815.598	138.07
815.776	144.21
815.955	117.59
816.133	136.02
816.312	140.12
816.49	62.29
816.669	105.3
816.847	88.92
817.026	123.73
817.204	117.59
817.383	60.24
817.561	142.16
817.74	146.26
817.918	60.24
818.097	119.64
818.275	136.02
818.453	62.29
818.632	150.36
818.81	68.44
818.988	123.73
819.167	101.2
819.345	154.45
819.523	66.39
819.701	142.16
819.879	144.21
820.058	133.97
820.236	140.12
820.414	117.59
820.592	45.91
820.77	60.24
820.948	80.72
821.127	68.44
821.305	166.74
821.483	136.02
821.661	78.68
821.839	121.68
822.017	74.58
822.195	95.06
822.373	152.4
822.551	60.24
822.729	88.92
822.907	27.48
823.085	62.29
823.262	150.36
823.44	56.15
823.618	84.82
823.796	99.16
823.974	133.97
824.152	90.96
824.329	64.34
824.507	47.96
824.685	113.49
824.863	111.44
825.04	115.54
825.218	125.78
825.396	170.83
825.574	66.39
825.751	117.59
825.929	131.92
826.107	23.38
826.284	39.76
826.462	142.16
826.639	70.48
826.817	93.01
826.994	88.92
827.172	29.52
827.349	80.72
827.527	33.62
827.704	50
827.882	84.82
828.059	148.31
828.237	66.39
828.414	80.72
828.591	82.77
828.769	0.85
828.946	43.86
829.124	142.16
829.301	105.3
829.478	21.33
829.655	23.38
829.833	25.43
830.01	84.82
830.187	101.2
830.364	45.91
830.542	109.4
830.719	41.81
830.896	2.9
831.073	123.73
831.25	70.48
831.427	70.48
831.604	101.2
831.782	45.91
831.959	60.24
832.136	123.73
832.313	27.48
832.49	101.2
832.667	27.48
832.844	60.24
833.021	84.82
833.198	142.16
833.374	54.1
833.551	45.91
833.728	-9.39
833.905	29.52
834.082	31.57
834.259	37.72
834.436	74.58
834.612	43.86
834.789	95.06
834.966	62.29
835.143	66.39
835.319	45.91
835.496	88.92
835.673	37.72
835.85	121.68
836.026	90.96
836.203	86.87
836.38	-7.34
836.556	58.2
836.733	-13.48
836.909	72.53
837.086	107.35
837.262	9.05
837.439	27.48
837.616	0.85
837.792	76.63
837.968	29.52
838.145	25.43
838.321	64.34
838.498	82.77
838.674	21.33
838.851	78.68
839.027	109.4
839.203	41.81
839.38	76.63
839.556	66.39
839.732	17.24
839.909	15.19
840.085	80.72
840.261	9.05
840.437	41.81
840.614	2.9
840.79	90.96
840.966	0.85
841.142	76.63
841.318	25.43
841.494	35.67
841.671	54.1
841.847	45.91
842.023	-21.67
842.199	60.24
842.375	74.58
842.551	-17.58
842.727	2.9
842.903	93.01
843.079	-1.19
843.255	58.2
843.431	27.48
843.607	41.81
843.783	-5.29
843.959	43.86
844.134	90.96
844.31	115.54
844.486	27.48
844.662	4.95
844.838	88.92
845.013	-17.58
845.189	52.05
845.365	47.96
845.541	-15.53
845.716	62.29
845.892	17.24
846.068	-36.01
846.244	2.9
846.419	119.64
846.595	-7.34
846.77	33.62
846.946	27.48
847.122	-17.58
847.297	-9.39
847.473	31.57
847.648	9.05
847.824	41.81
847.999	76.63
848.175	43.86
848.35	-21.67
848.526	107.35
848.701	33.62
848.876	58.2
849.052	19.29
849.227	54.1
849.403	50
849.578	2.9
849.753	66.39
849.929	27.48
850.104	88.92
850.279	-15.53
850.454	-1.19
850.63	15.19
850.805	4.95
850.98	39.76
851.155	2.9
851.33	74.58
851.505	7
851.681	109.4
851.856	15.19
852.031	41.81
852.206	41.81
852.381	2.9
852.556	-3.24
852.731	19.29
852.906	35.67
853.081	45.91
853.256	97.11
853.431	-3.24
853.606	2.9
853.781	-17.58
853.956	-13.48
854.131	-1.19
854.305	23.38
854.48	52.05
854.655	35.67
854.83	80.72
855.005	43.86
855.18	37.72
855.354	76.63
855.529	-3.24
855.704	37.72
855.879	72.53
856.053	-21.67
856.228	35.67
856.403	-128.17
856.577	33.62
856.752	70.48
856.926	60.24
857.101	52.05
857.276	72.53
857.45	7
857.625	60.24
857.799	17.24
857.974	41.81
858.148	-13.48
858.323	52.05
858.497	-7.34
858.672	58.2
858.846	11.09
859.02	60.24
859.195	0.85
859.369	39.76
859.543	9.05
859.718	82.77
859.892	45.91
860.066	33.62
860.241	41.81
860.415	80.72
860.589	-36.01
860.763	43.86
860.938	-38.06
861.112	27.48
861.286	-15.53
861.46	23.38
861.634	31.57
861.808	97.11
861.982	-44.2
862.157	-76.97
862.331	50
862.505	19.29
862.679	-25.77
862.853	2.9
863.027	-48.3
863.201	37.72
863.375	-107.69
863.549	-3.24
863.722	-3.24
863.896	29.52
864.07	25.43
864.244	9.05
864.418	-17.58
864.592	52.05
864.766	35.67
864.939	-33.96
865.113	-33.96
865.287	15.19
865.461	-17.58
865.634	-13.48
865.808	-21.67
865.982	41.81
866.156	60.24
866.329	15.19
866.503	-7.34
866.676	-13.48
866.85	11.09
867.024	31.57
867.197	-29.87
867.371	-29.87
867.544	84.82
867.718	21.33
867.891	39.76
868.065	4.95
868.238	72.53
868.412	27.48
868.585	-5.29
868.759	-48.3
868.932	101.2
869.105	-50.35
869.279	-5.29
869.452	-11.43
869.625	-50.35
869.799	-50.35
869.972	43.86
870.145	-15.53
870.319	35.67
870.492	15.19
870.665	17.24
870.838	-56.49
871.011	-93.35
871.185	-3.24
871.358	-5.29
871.531	50
871.704	9.05
871.877	-9.39
872.05	19.29
872.223	15.19
872.396	23.38
872.569	-50.35
872.742	-42.15
872.915	33.62
873.088	50
873.261	-11.43
873.434	50
873.607	-46.25
873.78	-52.39
873.953	-31.91
874.126	52.05
874.299	37.72
874.471	-5.29
874.644	-72.87
874.817	11.09
874.99	99.16
875.163	-21.67
875.335	47.96
875.508	-60.59
875.681	27.48
875.853	-62.63
876.026	41.81
876.199	-17.58
876.371	-5.29
876.544	-7.34
876.717	-40.11
876.889	50
877.062	-31.91
877.234	-62.63
877.407	-19.63
877.579	43.86
877.752	62.29
877.924	45.91
878.097	-15.53
878.269	45.91
878.442	27.48
878.614	66.39
878.786	76.63
878.959	17.24
879.131	-3.24
879.303	-31.91
879.476	17.24
879.648	7
879.82	23.38
879.993	-21.67
880.165	-23.72
880.337	7
880.509	-1.19
880.681	33.62
880.854	56.15
881.026	25.43
881.198	37.72
881.37	-5.29
881.542	35.67
881.714	-52.39
881.886	19.29
882.058	54.1
882.23	31.57
882.402	29.52
882.574	60.24
882.746	9.05
882.918	37.72
883.09	-23.72
883.262	-11.43
883.434	-33.96
883.606	2.9
883.778	-58.54
883.95	11.09
884.122	0.85
884.293	27.48
884.465	80.72
884.637	-11.43
884.809	-38.06
884.98	0.85
885.152	13.14
885.324	2.9
885.496	11.09
885.667	11.09
885.839	35.67
886.011	21.33
886.182	-29.87
886.354	2.9
886.525	11.09
886.697	17.24
886.869	-7.34
887.04	-50.35
887.212	23.38
887.383	35.67
887.555	50
887.726	43.86
887.897	-58.54
888.069	7
888.24	-5.29
888.412	17.24
888.583	-52.39
888.754	11.09
888.926	-62.63
889.097	11.09
889.268	-48.3
889.44	7
889.611	-54.44
889.782	0.85
889.953	-11.43
890.125	-3.24
890.296	35.67
890.467	-11.43
890.638	-56.49
890.809	-74.92
890.98	-21.67
891.151	-56.49
891.323	54.1
891.494	-21.67
891.665	47.96
891.836	15.19
892.007	-29.87
892.178	-36.01
892.349	-15.53
892.52	-29.87
892.691	17.24
892.862	-29.87
893.032	-13.48
893.203	43.86
893.374	-3.24
893.545	-7.34
893.716	-17.58
893.887	17.24
894.057	47.96
894.228	39.76
894.399	4.95
894.57	-33.96
894.74	9.05
894.911	-5.29
895.082	-21.67
895.253	29.52
895.423	-7.34
895.594	0.85
895.764	2.9
895.935	-48.3
896.106	-1.19
896.276	-91.31
896.447	29.52
896.617	33.62
896.788	-95.4
896.958	-29.87
897.129	35.67
897.299	-38.06
897.47	19.29
897.64	27.48
897.81	-46.25
897.981	41.81
898.151	-5.29
898.322	15.19
898.492	-5.29
898.662	27.48
898.832	-3.24
899.003	-25.77
899.173	76.63
899.343	-19.63
899.513	-21.67
