Data from USB4F104151__296__10-43-21-695.txt Node

Date: Wed Mar 12 10:43:21 EDT 2025
User: louis
Spectrometer: USB4F10415
Trigger mode: 4
Integration Time (sec): 3.000000E-2
Scans to average: 1
Electric dark correction enabled: true
Nonlinearity correction enabled: false
Boxcar width: 0
XAxis mode: Wavelengths
Number of Pixels in Spectrum: 3648
>>>>>Begin Spectral Data<<<<<
178.204	-90.62
178.424	-90.62
178.644	-90.62
178.864	-117.25
179.084	-76.29
179.304	44.54
179.524	-37.38
179.744	1.54
179.964	30.21
180.184	-43.52
180.404	30.21
180.624	50.69
180.844	3.58
181.064	-47.62
181.283	-37.38
181.503	-2.56
181.723	7.68
181.943	-53.76
182.163	48.64
182.383	62.98
182.602	93.69
182.822	67.07
183.042	-20.99
183.262	15.87
183.482	48.64
183.701	65.02
183.921	-10.75
184.141	-72.19
184.361	108.03
184.58	65.02
184.8	89.6
185.02	46.59
185.239	56.83
185.459	62.98
185.679	91.65
185.898	-20.99
186.118	44.54
186.338	65.02
186.557	50.69
186.777	17.92
186.997	-12.8
187.216	-31.23
187.436	36.35
187.655	46.59
187.875	62.98
188.095	28.16
188.314	103.93
188.534	112.13
188.753	17.92
188.973	36.35
189.192	95.74
189.412	46.59
189.631	13.82
189.851	-12.8
190.07	73.21
190.29	-55.81
190.509	-4.61
190.729	1.54
190.948	65.02
191.168	128.51
191.387	46.59
191.607	-25.09
191.826	50.69
192.045	38.4
192.265	-70.14
192.484	99.84
192.704	-31.23
192.923	-20.99
193.142	11.78
193.362	89.6
193.581	17.92
193.8	17.92
194.02	67.07
194.239	91.65
194.458	24.06
194.678	48.64
194.897	87.55
195.116	36.35
195.335	-0.51
195.555	71.17
195.774	5.63
195.993	36.35
196.212	38.4
196.432	28.16
196.651	24.06
196.87	73.21
197.089	13.82
197.308	83.45
197.528	87.55
197.747	17.92
197.966	13.82
198.185	138.75
198.404	60.93
198.623	34.3
198.842	75.26
199.062	65.02
199.281	99.84
199.5	46.59
199.719	24.06
199.938	56.83
200.157	91.65
200.376	77.31
200.595	7.68
200.814	89.6
201.033	-74.24
201.252	77.31
201.471	97.79
201.69	89.6
201.909	54.78
202.128	11.78
202.347	9.73
202.566	22.02
202.785	5.63
203.004	50.69
203.223	132.61
203.442	5.63
203.661	40.45
203.879	36.35
204.098	91.65
204.317	5.63
204.536	52.74
204.755	77.31
204.974	103.93
205.193	75.26
205.411	91.65
205.63	-49.66
205.849	52.74
206.068	7.68
206.287	9.73
206.505	81.41
206.724	79.36
206.943	3.58
207.162	22.02
207.381	19.97
207.599	1.54
207.818	77.31
208.037	15.87
208.255	38.4
208.474	22.02
208.693	67.07
208.911	71.17
209.13	-16.9
209.349	5.63
209.567	56.83
209.786	67.07
210.005	5.63
210.223	3.58
210.442	-37.38
210.661	65.02
210.879	-2.56
211.098	46.59
211.316	85.5
211.535	40.45
211.753	-16.9
211.972	32.26
212.191	-84.48
212.409	60.93
212.628	-29.18
212.846	19.97
213.065	126.46
213.283	26.11
213.502	22.02
213.72	26.11
213.938	73.21
214.157	62.98
214.375	-2.56
214.594	46.59
214.812	73.21
215.031	81.41
215.249	17.92
215.467	91.65
215.686	58.88
215.904	32.26
216.122	36.35
216.341	36.35
216.559	22.02
216.778	58.88
216.996	93.69
217.214	-4.61
217.432	52.74
217.651	-37.38
217.869	-27.14
218.087	11.78
218.306	48.64
218.524	15.87
218.742	1.54
218.96	7.68
219.179	26.11
219.397	1.54
219.615	77.31
219.833	124.41
220.051	65.02
220.27	62.98
220.488	-23.04
220.706	44.54
220.924	83.45
221.142	5.63
221.36	1.54
221.578	124.41
221.796	-0.51
222.015	30.21
222.233	30.21
222.451	36.35
222.669	26.11
222.887	67.07
223.105	101.89
223.323	97.79
223.541	28.16
223.759	13.82
223.977	83.45
224.195	52.74
224.413	99.84
224.631	65.02
224.849	75.26
225.067	87.55
225.285	36.35
225.503	30.21
225.721	19.97
225.939	97.79
226.157	30.21
226.375	144.89
226.592	22.02
226.81	34.3
227.028	40.45
227.246	132.61
227.464	22.02
227.682	79.36
227.9	69.12
228.117	69.12
228.335	34.3
228.553	58.88
228.771	67.07
228.989	65.02
229.206	9.73
229.424	26.11
229.642	1.54
229.86	140.8
230.077	38.4
230.295	13.82
230.513	-6.66
230.731	128.51
230.948	38.4
231.166	50.69
231.384	83.45
231.601	-23.04
231.819	110.08
232.037	-37.38
232.254	79.36
232.472	22.02
232.689	-27.14
232.907	132.61
233.125	40.45
233.342	-25.09
233.56	65.02
233.777	116.22
233.995	79.36
234.213	36.35
234.43	24.06
234.648	38.4
234.865	-35.33
235.083	124.41
235.3	19.97
235.518	-33.28
235.735	101.89
235.953	56.83
236.17	44.54
236.388	15.87
236.605	22.02
236.822	83.45
237.04	65.02
237.257	91.65
237.475	-0.51
237.692	15.87
237.909	28.16
238.127	11.78
238.344	5.63
238.562	93.69
238.779	122.37
238.996	5.63
239.214	89.6
239.431	73.21
239.648	38.4
239.865	52.74
240.083	-0.51
240.3	34.3
240.517	15.87
240.735	67.07
240.952	42.5
241.169	99.84
241.386	-35.33
241.603	60.93
241.821	79.36
242.038	103.93
242.255	89.6
242.472	60.93
242.689	-12.8
242.907	-14.85
243.124	42.5
243.341	-31.23
243.558	28.16
243.775	42.5
243.992	-31.23
244.209	42.5
244.426	77.31
244.643	101.89
244.86	34.3
245.078	69.12
245.295	34.3
245.512	79.36
245.729	36.35
245.946	83.45
246.163	46.59
246.38	62.98
246.597	67.07
246.814	-2.56
247.031	91.65
247.248	40.45
247.464	71.17
247.681	-45.57
247.898	40.45
248.115	118.27
248.332	36.35
248.549	69.12
248.766	30.21
248.983	11.78
249.2	75.26
249.417	73.21
249.633	26.11
249.85	52.74
250.067	83.45
250.284	118.27
250.501	65.02
250.717	46.59
250.934	-10.75
251.151	48.64
251.368	38.4
251.585	52.74
251.801	93.69
252.018	69.12
252.235	44.54
252.451	22.02
252.668	-6.66
252.885	91.65
253.102	73.21
253.318	118.27
253.535	128.51
253.752	56.83
253.968	30.21
254.185	89.6
254.401	83.45
254.618	89.6
254.835	-14.85
255.051	67.07
255.268	34.3
255.484	165.37
255.701	19.97
255.917	54.78
256.134	62.98
256.351	-8.7
256.567	36.35
256.784	7.68
257	-39.42
257.217	65.02
257.433	67.07
257.65	118.27
257.866	136.7
258.082	3.58
258.299	81.41
258.515	52.74
258.732	38.4
258.948	65.02
259.165	87.55
259.381	91.65
259.597	36.35
259.814	42.5
260.03	15.87
260.246	71.17
260.463	75.26
260.679	-14.85
260.895	28.16
261.112	99.84
261.328	26.11
261.544	50.69
261.761	91.65
261.977	1.54
262.193	112.13
262.409	58.88
262.626	95.74
262.842	108.03
263.058	7.68
263.274	52.74
263.49	46.59
263.707	58.88
263.923	28.16
264.139	44.54
264.355	75.26
264.571	97.79
264.787	67.07
265.004	69.12
265.22	26.11
265.436	54.78
265.652	22.02
265.868	120.32
266.084	54.78
266.3	30.21
266.516	15.87
266.732	73.21
266.948	46.59
267.164	108.03
267.38	-10.75
267.596	44.54
267.812	116.22
268.028	112.13
268.244	91.65
268.46	26.11
268.676	15.87
268.892	67.07
269.108	69.12
269.324	50.69
269.54	13.82
269.756	54.78
269.972	5.63
270.188	87.55
270.403	65.02
270.619	105.98
270.835	-10.75
271.051	122.37
271.267	75.26
271.483	71.17
271.698	15.87
271.914	-23.04
272.13	-0.51
272.346	67.07
272.562	48.64
272.777	-29.18
272.993	-14.85
273.209	32.26
273.425	-10.75
273.64	5.63
273.856	116.22
274.072	50.69
274.287	-35.33
274.503	83.45
274.719	-8.7
274.934	17.92
275.15	50.69
275.366	69.12
275.581	99.84
275.797	22.02
276.012	71.17
276.228	40.45
276.444	58.88
276.659	130.56
276.875	50.69
277.09	95.74
277.306	56.83
277.521	3.58
277.737	44.54
277.952	-0.51
278.168	15.87
278.383	79.36
278.599	60.93
278.814	30.21
279.03	36.35
279.245	120.32
279.461	50.69
279.676	124.41
279.892	26.11
280.107	5.63
280.322	116.22
280.538	58.88
280.753	73.21
280.969	69.12
281.184	65.02
281.399	7.68
281.615	13.82
281.83	85.5
282.045	42.5
282.26	79.36
282.476	81.41
282.691	54.78
282.906	17.92
283.122	42.5
283.337	110.08
283.552	34.3
283.767	103.93
283.983	44.54
284.198	22.02
284.413	144.89
284.628	-8.7
284.843	24.06
285.058	-55.81
285.274	17.92
285.489	65.02
285.704	116.22
285.919	42.5
286.134	89.6
286.349	99.84
286.564	73.21
286.779	99.84
286.995	71.17
287.21	28.16
287.425	40.45
287.64	40.45
287.855	58.88
288.07	-4.61
288.285	95.74
288.5	112.13
288.715	103.93
288.93	89.6
289.145	48.64
289.36	22.02
289.575	11.78
289.79	40.45
290.004	62.98
290.219	95.74
290.434	1.54
290.649	71.17
290.864	91.65
291.079	44.54
291.294	58.88
291.509	95.74
291.724	44.54
291.938	-23.04
292.153	44.54
292.368	75.26
292.583	112.13
292.798	34.3
293.012	142.85
293.227	60.93
293.442	34.3
293.657	91.65
293.871	-14.85
294.086	91.65
294.301	91.65
294.516	65.02
294.73	-29.18
294.945	-27.14
295.16	30.21
295.374	32.26
295.589	58.88
295.804	50.69
296.018	34.3
296.233	79.36
296.447	58.88
296.662	38.4
296.877	99.84
297.091	22.02
297.306	32.26
297.52	26.11
297.735	69.12
297.949	95.74
298.164	112.13
298.378	-39.42
298.593	83.45
298.807	7.68
299.022	62.98
299.236	128.51
299.451	75.26
299.665	50.69
299.88	71.17
300.094	58.88
300.309	7.68
300.523	87.55
300.737	38.4
300.952	75.26
301.166	54.78
301.381	15.87
301.595	71.17
301.809	99.84
302.024	54.78
302.238	46.59
302.452	134.65
302.667	50.69
302.881	136.7
303.095	28.16
303.309	114.17
303.524	28.16
303.738	93.69
303.952	54.78
304.166	130.56
304.381	36.35
304.595	91.65
304.809	58.88
305.023	11.78
305.237	9.73
305.452	-16.9
305.666	34.3
305.88	126.46
306.094	34.3
306.308	128.51
306.522	3.58
306.736	48.64
306.95	128.51
307.164	34.3
307.379	-16.9
307.593	75.26
307.807	50.69
308.021	81.41
308.235	73.21
308.449	42.5
308.663	65.02
308.877	42.5
309.091	58.88
309.305	-4.61
309.519	26.11
309.733	71.17
309.947	3.58
310.161	71.17
310.374	54.78
310.588	83.45
310.802	81.41
311.016	77.31
311.23	71.17
311.444	42.5
311.658	69.12
311.872	65.02
312.085	83.45
312.299	73.21
312.513	48.64
312.727	73.21
312.941	-8.7
313.154	26.11
313.368	58.88
313.582	75.26
313.796	-49.66
314.009	42.5
314.223	148.99
314.437	85.5
314.651	50.69
314.864	24.06
315.078	69.12
315.292	-25.09
315.505	19.97
315.719	26.11
315.933	40.45
316.146	85.5
316.36	11.78
316.573	83.45
316.787	13.82
317.001	91.65
317.214	38.4
317.428	48.64
317.641	19.97
317.855	42.5
318.068	118.27
318.282	97.79
318.495	99.84
318.709	73.21
318.922	-10.75
319.136	93.69
319.349	36.35
319.563	75.26
319.776	69.12
319.99	40.45
320.203	83.45
320.417	50.69
320.63	97.79
320.843	124.41
321.057	105.98
321.27	65.02
321.483	75.26
321.697	52.74
321.91	79.36
322.124	-53.76
322.337	40.45
322.55	52.74
322.763	93.69
322.977	65.02
323.19	15.87
323.403	60.93
323.617	97.79
323.83	40.45
324.043	13.82
324.256	87.55
324.469	58.88
324.683	79.36
324.896	-18.94
325.109	30.21
325.322	34.3
325.535	114.17
325.748	105.98
325.962	58.88
326.175	79.36
326.388	-6.66
326.601	65.02
326.814	69.12
327.027	75.26
327.24	114.17
327.453	15.87
327.666	42.5
327.879	28.16
328.092	75.26
328.305	103.93
328.518	148.99
328.731	19.97
328.944	60.93
329.157	91.65
329.37	26.11
329.583	91.65
329.796	89.6
330.009	-37.38
330.222	97.79
330.435	46.59
330.648	87.55
330.861	60.93
331.073	69.12
331.286	58.88
331.499	118.27
331.712	26.11
331.925	38.4
332.138	65.02
332.35	17.92
332.563	73.21
332.776	60.93
332.989	1.54
333.202	54.78
333.414	89.6
333.627	22.02
333.84	50.69
334.053	91.65
334.265	75.26
334.478	-10.75
334.691	79.36
334.903	58.88
335.116	50.69
335.329	71.17
335.541	32.26
335.754	146.94
335.966	118.27
336.179	50.69
336.392	67.07
336.604	85.5
336.817	75.26
337.029	101.89
337.242	67.07
337.454	95.74
337.667	22.02
337.88	132.61
338.092	69.12
338.305	120.32
338.517	32.26
338.729	26.11
338.942	118.27
339.154	46.59
339.367	-0.51
339.579	99.84
339.792	3.58
340.004	85.5
340.217	114.17
340.429	120.32
340.641	54.78
340.854	58.88
341.066	69.12
341.278	144.89
341.491	71.17
341.703	134.65
341.915	28.16
342.128	126.46
342.34	116.22
342.552	116.22
342.764	28.16
342.977	85.5
343.189	54.78
343.401	67.07
343.613	5.63
343.826	44.54
344.038	60.93
344.25	114.17
344.462	11.78
344.674	105.98
344.886	95.74
345.099	95.74
345.311	19.97
345.523	-14.85
345.735	7.68
345.947	110.08
346.159	77.31
346.371	101.89
346.583	40.45
346.795	114.17
347.007	67.07
347.219	120.32
347.431	85.5
347.643	134.65
347.855	67.07
348.067	93.69
348.279	65.02
348.491	34.3
348.703	112.13
348.915	38.4
349.127	67.07
349.339	114.17
349.551	5.63
349.763	130.56
349.975	91.65
350.187	116.22
350.399	163.33
350.61	26.11
350.822	17.92
351.034	58.88
351.246	26.11
351.458	114.17
351.669	83.45
351.881	122.37
352.093	124.41
352.305	60.93
352.517	19.97
352.728	99.84
352.94	89.6
353.152	38.4
353.363	17.92
353.575	67.07
353.787	118.27
353.999	-2.56
354.21	58.88
354.422	105.98
354.633	-12.8
354.845	60.93
355.057	15.87
355.268	95.74
355.48	101.89
355.692	38.4
355.903	77.31
356.115	42.5
356.326	56.83
356.538	83.45
356.749	58.88
356.961	77.31
357.172	83.45
357.384	73.21
357.595	93.69
357.807	112.13
358.018	40.45
358.23	7.68
358.441	132.61
358.653	62.98
358.864	1.54
359.075	-0.51
359.287	42.5
359.498	89.6
359.709	73.21
359.921	75.26
360.132	34.3
360.344	99.84
360.555	-72.19
360.766	112.13
360.977	44.54
361.189	81.41
361.4	56.83
361.611	67.07
361.823	108.03
362.034	81.41
362.245	-0.51
362.456	17.92
362.667	108.03
362.879	-41.47
363.09	34.3
363.301	52.74
363.512	-8.7
363.723	77.31
363.935	48.64
364.146	128.51
364.357	15.87
364.568	120.32
364.779	42.5
364.99	67.07
365.201	-35.33
365.412	124.41
365.623	3.58
365.834	85.5
366.045	50.69
366.256	85.5
366.467	-0.51
366.678	9.73
366.889	46.59
367.1	48.64
367.311	36.35
367.522	-6.66
367.733	69.12
367.944	112.13
368.155	19.97
368.366	120.32
368.577	38.4
368.788	97.79
368.999	34.3
369.209	75.26
369.42	50.69
369.631	128.51
369.842	62.98
370.053	48.64
370.264	97.79
370.474	91.65
370.685	50.69
370.896	75.26
371.107	67.07
371.317	62.98
371.528	83.45
371.739	144.89
371.95	28.16
372.16	118.27
372.371	-2.56
372.582	50.69
372.792	97.79
373.003	91.65
373.214	67.07
373.424	134.65
373.635	73.21
373.846	71.17
374.056	95.74
374.267	148.99
374.477	87.55
374.688	50.69
374.898	22.02
375.109	116.22
375.319	40.45
375.53	110.08
375.74	62.98
375.951	89.6
376.161	69.12
376.372	101.89
376.582	11.78
376.793	130.56
377.003	85.5
377.214	69.12
377.424	73.21
377.635	85.5
377.845	95.74
378.055	163.33
378.266	163.33
378.476	83.45
378.686	26.11
378.897	67.07
379.107	93.69
379.317	30.21
379.528	79.36
379.738	69.12
379.948	40.45
380.158	85.5
380.369	126.46
380.579	95.74
380.789	40.45
380.999	118.27
381.21	95.74
381.42	108.03
381.63	52.74
381.84	108.03
382.05	77.31
382.261	108.03
382.471	69.12
382.681	65.02
382.891	75.26
383.101	46.59
383.311	60.93
383.521	132.61
383.731	159.23
383.941	118.27
384.151	42.5
384.361	85.5
384.571	95.74
384.781	24.06
384.991	54.78
385.201	114.17
385.411	108.03
385.621	67.07
385.831	69.12
386.041	110.08
386.251	-18.94
386.461	38.4
386.671	140.8
386.881	114.17
387.091	44.54
387.301	165.37
387.511	46.59
387.72	83.45
387.93	112.13
388.14	75.26
388.35	83.45
388.56	175.61
388.769	85.5
388.979	110.08
389.189	17.92
389.399	40.45
389.609	87.55
389.818	148.99
390.028	32.26
390.238	99.84
390.447	28.16
390.657	114.17
390.867	42.5
391.076	101.89
391.286	153.09
391.496	79.36
391.705	65.02
391.915	99.84
392.125	87.55
392.334	28.16
392.544	79.36
392.753	118.27
392.963	75.26
393.172	189.95
393.382	67.07
393.591	155.13
393.801	34.3
394.01	130.56
394.22	87.55
394.429	153.09
394.639	128.51
394.848	179.71
395.058	148.99
395.267	73.21
395.477	144.89
395.686	108.03
395.895	185.85
396.105	165.37
396.314	128.51
396.524	79.36
396.733	36.35
396.942	101.89
397.152	40.45
397.361	142.85
397.57	126.46
397.78	153.09
397.989	136.7
398.198	177.66
398.407	140.8
398.617	132.61
398.826	91.65
399.035	95.74
399.244	144.89
399.453	192
399.663	167.42
399.872	235
400.081	124.41
400.29	159.23
400.499	140.8
400.708	79.36
400.917	30.21
401.127	83.45
401.336	97.79
401.545	167.42
401.754	175.61
401.963	183.81
402.172	224.76
402.381	85.5
402.59	99.84
402.799	177.66
403.008	198.14
403.217	218.62
403.426	185.85
403.635	101.89
403.844	171.52
404.053	140.8
404.262	196.09
404.471	239.1
404.68	91.65
404.888	144.89
405.097	175.61
405.306	308.73
405.515	208.38
405.724	116.22
405.933	206.33
406.142	230.91
406.35	251.39
406.559	208.38
406.768	181.76
406.977	210.43
407.185	226.81
407.394	226.81
407.603	237.05
407.812	331.26
408.02	306.68
408.229	255.48
408.438	329.21
408.646	224.76
408.855	316.92
409.064	302.59
409.272	247.29
409.481	357.88
409.69	273.92
409.898	278.01
410.107	374.27
410.315	388.6
410.524	308.73
410.733	486.9
410.941	396.79
411.15	452.09
411.358	435.71
411.567	503.29
411.775	458.23
411.984	480.76
412.192	466.42
412.401	429.56
412.609	579.06
412.818	656.89
413.026	591.35
413.234	591.35
413.443	550.39
413.651	589.3
413.86	611.83
414.068	677.37
414.276	751.09
414.485	703.99
414.693	783.86
414.901	828.92
415.11	771.57
415.318	820.72
415.526	892.4
415.734	843.25
415.943	896.5
416.151	914.93
416.359	957.94
416.567	996.85
416.776	921.07
416.984	1021.42
417.192	1056.24
417.4	1082.86
417.608	1093.1
417.817	1121.77
418.025	1230.32
418.233	1340.91
418.441	1289.71
418.649	1381.87
418.857	1383.91
419.065	1521.13
419.273	1357.29
419.481	1465.83
419.689	1562.09
419.897	1684.97
420.105	1680.87
420.313	1668.58
420.521	1781.22
420.729	1852.9
420.937	1893.86
421.145	1906.15
421.353	2078.18
421.561	2133.47
421.769	2297.31
421.977	2229.73
422.185	2313.69
422.393	2467.29
422.601	2559.45
422.809	2491.87
423.017	2577.88
423.224	2727.38
423.432	2809.3
423.64	2790.87
423.848	3050.96
424.056	2985.43
424.263	3284.43
424.471	3190.22
424.679	3294.67
424.887	3395.02
425.094	3589.58
425.302	3603.91
425.51	3634.63
425.718	3694.02
425.925	3798.47
426.133	4017.6
426.341	4197.82
426.548	4347.33
426.756	4369.85
426.964	4416.96
427.171	4627.9
427.379	4767.16
427.586	4820.41
427.794	4974
428.001	5225.9
428.209	5612.97
428.417	5244.34
428.624	5911.97
428.832	5764.52
429.039	5719.46
429.247	5561.77
429.454	6198.69
429.662	6757.78
429.869	6299.04
430.076	6641.05
430.284	6557.08
430.491	6849.94
430.699	7218.58
430.906	7165.33
431.114	7056.79
431.321	7677.32
431.528	7589.26
431.736	8101.25
431.943	8689.02
432.15	8334.72
432.358	8312.19
432.565	8873.34
432.772	8766.84
432.979	9272.69
433.187	9352.56
433.394	9526.64
433.601	10290.53
433.808	10200.42
434.016	10143.08
434.223	10521.95
434.43	10982.74
434.637	10900.83
434.844	11437.39
435.052	11961.67
435.259	11808.08
435.466	11945.29
435.673	11525.46
435.88	12574.02
436.087	13239.61
436.294	13315.38
436.501	12830.01
436.708	13372.72
436.915	13733.17
437.122	14208.3
437.329	14124.33
437.537	14497.06
437.743	14845.21
437.95	14781.73
438.157	15531.28
438.364	16119.05
438.571	16028.94
438.778	15985.93
438.985	17706.23
439.192	17034.49
439.399	17505.52
439.606	17036.54
439.813	18097.39
440.02	19168.48
440.227	18765.03
440.433	18566.37
440.64	19547.35
440.847	19016.93
441.054	19643.6
441.261	20847.81
441.467	20532.42
441.674	21499.06
441.881	21871.79
442.088	21943.47
442.294	21638.33
442.501	22244.52
442.708	22641.83
442.914	23456.92
443.121	24448.14
443.328	24097.94
443.534	25726.07
443.741	24673.42
443.948	24593.54
444.154	26391.66
444.361	26276.98
444.568	26393.71
444.774	26248.3
444.981	26700.9
445.187	27192.42
445.394	28632.14
445.6	28240.98
445.807	30788.65
446.013	29467.71
446.22	30112.82
446.426	31329.31
446.633	31493.15
446.839	32431.12
447.046	31183.91
447.252	33090.57
447.459	32695.31
447.665	32666.64
447.871	34573.3
448.078	35791.84
448.284	33924.09
448.491	35111.91
448.697	36008.92
448.903	36649.94
449.11	37073.87
449.316	35931.1
449.522	37143.5
449.728	37891.01
449.935	38351.8
450.141	38048.7
450.347	39127.98
450.553	37682.11
450.76	38216.63
450.966	39377.83
451.172	38939.57
451.378	39599.01
451.584	38892.46
451.791	40059.8
451.997	40043.42
452.203	40160.16
452.409	40242.07
452.615	40539.03
452.821	38853.55
453.027	38114.23
453.233	40543.13
453.44	38644.66
453.646	38910.89
453.852	39103.4
454.058	39785.38
454.264	38446.01
454.47	39226.28
454.676	38069.18
454.882	39556
455.088	36254.68
455.294	36508.63
455.5	37198.79
455.705	37589.95
455.911	36096.99
456.117	35453.92
456.323	35025.9
456.529	32875.53
456.735	34116.6
456.941	33463.3
457.147	33184.77
457.352	32144.41
457.558	31867.93
457.764	31663.13
457.97	31009.83
458.176	30385.2
458.381	30385.2
458.587	28853.32
458.793	28576.84
458.999	27460.7
459.204	29107.27
459.41	28544.08
459.616	26471.53
459.821	26874.98
460.027	26436.72
460.233	25945.2
460.438	24513.67
460.644	25042.05
460.85	23710.87
461.055	23813.27
461.261	23489.69
461.466	21816.5
461.672	20708.55
461.878	22545.58
462.083	21007.55
462.289	20466.89
462.494	20606.15
462.7	19428.57
462.905	19148
463.111	19567.83
463.316	19811.54
463.522	19137.76
463.727	19293.4
463.932	19234.01
464.138	19250.39
464.343	19145.95
464.549	18607.33
464.754	19541.21
464.959	18994.4
465.165	19029.21
465.37	18255.08
465.575	17837.3
465.781	18334.95
465.986	18717.92
466.191	17958.13
466.397	17702.13
466.602	16702.72
466.807	17372.41
467.012	17476.85
467.218	17528.05
467.423	17167.61
467.628	17605.88
467.833	17863.92
468.038	17188.09
468.244	16612.61
468.449	17419.51
468.654	16751.87
468.859	16733.44
469.064	16514.31
469.269	16149.77
469.474	16180.49
469.679	16616.71
469.885	15672.59
470.09	16160.01
470.295	15846.67
470.5	15662.35
470.705	15693.07
470.91	15492.37
471.115	15232.28
471.32	15398.17
471.525	15185.18
471.73	15160.6
471.935	14759.2
472.139	14415.14
472.344	14542.11
472.549	14538.02
472.754	14300.45
472.959	13983.02
473.164	13466.93
473.369	13587.76
473.574	14153
473.778	13878.57
473.983	13753.65
474.188	13792.56
474.393	13047.1
474.598	13301.05
474.802	13100.34
475.007	13092.15
475.212	13104.44
475.417	12621.12
475.621	12481.86
475.826	12535.1
476.031	12295.49
476.235	12109.13
476.44	12533.06
476.645	11973.96
476.849	12131.65
477.054	11953.48
477.259	11887.95
477.463	11687.25
477.668	11623.76
477.872	11629.9
478.077	11502.93
478.282	11242.84
478.486	11132.25
478.691	10904.92
478.895	10960.22
479.1	10857.82
479.304	10923.35
479.509	10567.01
479.713	10904.92
479.918	10421.6
480.122	10550.62
480.326	10626.4
480.531	10530.14
480.735	10534.24
480.94	10519.9
481.144	10644.83
481.348	10143.08
481.553	10413.41
481.757	10114.41
481.961	10173.8
482.166	10313.06
482.37	10247.52
482.574	9928.04
482.778	10036.58
482.983	10261.86
483.187	10063.21
483.391	10134.89
483.595	10235.24
483.8	10077.54
484.004	10308.96
484.208	10374.5
484.412	9909.61
484.616	10337.63
484.821	10192.23
485.025	9960.81
485.229	10306.91
485.433	10098.02
485.637	10130.79
485.841	10208.61
486.045	10016.1
486.249	10130.79
486.453	10044.77
486.657	10233.19
486.861	10435.94
487.065	10161.51
487.269	10032.49
487.473	9960.81
487.677	10044.77
487.881	10122.6
488.085	10079.59
488.289	10218.85
488.493	10167.65
488.697	10112.36
488.901	10143.08
489.105	10179.94
489.309	10124.65
489.512	10220.9
489.716	10321.25
489.92	10175.84
490.124	10347.87
490.328	10497.38
490.531	10315.11
490.735	10364.26
490.939	10616.16
491.143	10431.84
491.346	10579.29
491.55	10483.04
491.754	10425.7
491.958	10558.81
492.161	10569.05
492.365	10884.44
492.569	10866.01
492.772	10722.65
492.976	10771.8
493.18	11056.47
493.383	11173.21
493.587	11066.71
493.79	11058.52
493.994	11201.88
494.197	11162.97
494.401	11298.13
494.605	11378
494.808	11412.82
495.012	11535.7
495.215	11525.46
495.419	11773.26
495.622	11609.42
495.825	11935.05
496.029	11994.44
496.232	12232.01
496.436	12166.47
496.639	12662.08
496.843	12162.37
497.046	12639.55
497.249	12698.94
497.453	12807.48
497.656	12846.4
497.859	13098.3
498.063	13049.14
498.266	13536.56
498.469	13677.87
498.673	13552.95
498.876	13776.17
499.079	13743.41
499.282	13794.61
499.485	14228.77
499.689	14292.26
499.892	14478.63
500.095	14431.52
500.298	14843.17
500.501	14435.62
500.705	15242.52
500.908	15512.85
501.111	15426.84
501.314	15547.67
501.517	15873.29
501.72	15922.45
501.923	16180.49
502.126	16420.1
502.329	16622.85
502.532	16782.59
502.735	16856.32
502.938	17079.55
503.141	17126.65
503.344	17337.59
503.547	17358.07
503.75	17685.75
503.953	17831.15
504.156	18038
504.359	18173.16
504.562	18308.33
504.765	18887.9
504.968	18715.87
505.17	18992.35
505.373	19234.01
505.576	19680.47
505.779	19758.29
505.982	19922.13
506.185	20198.6
506.387	20346.06
506.59	20350.15
506.793	21042.37
506.996	20886.72
507.198	21382.33
507.401	21320.89
507.604	21976.24
507.807	22181.04
508.009	22267.05
508.212	22426.79
508.415	22662.31
508.617	23067.81
508.82	23090.34
509.022	23200.93
509.225	23760.02
509.428	23821.46
509.63	23932.05
509.833	24161.42
510.035	24630.41
510.238	24515.72
510.44	24996.99
510.643	25365.63
510.845	25603.19
511.048	25504.89
511.25	25846.9
511.453	26266.74
511.655	27104.35
511.858	26698.86
512.06	27090.02
512.262	27532.38
512.465	27468.89
512.667	28056.66
512.87	27790.42
513.072	28032.08
513.274	28884.04
513.477	29107.27
513.679	29361.22
513.881	29660.22
514.084	29817.91
514.286	30174.26
514.488	30055.48
514.69	31050.79
514.893	30886.95
515.095	30960.68
515.297	31362.08
515.499	31554.59
515.701	32171.03
515.904	32369.68
516.106	32162.84
516.308	32906.25
516.51	32916.49
516.712	33350.66
516.914	33639.42
517.116	34401.27
517.318	34327.54
517.52	34597.87
517.722	34790.38
517.925	35077.1
518.127	35625.95
518.329	35544.03
518.531	35908.57
518.733	35957.72
518.935	36776.91
519.136	36703.18
519.338	37555.14
519.54	37276.62
519.742	37727.17
519.944	37866.43
520.146	38644.66
520.348	38931.37
520.55	38722.48
520.752	39500.71
520.954	39740.32
521.155	39205.8
521.357	40326.04
521.559	40674.2
521.761	41003.92
521.963	40641.43
522.164	41167.76
522.366	41513.86
522.568	42040.19
522.77	42040.19
522.971	42543.99
523.173	42437.5
523.375	42595.19
523.576	42763.12
523.778	42826.61
523.98	43520.87
524.181	43772.77
524.383	43717.48
524.584	44475.23
524.786	44276.57
524.988	44796.76
525.189	44227.42
525.391	45378.38
525.592	45472.59
525.794	45122.38
525.995	45312.84
526.197	45853.51
526.398	45783.88
526.6	46086.98
526.801	46564.15
527.003	46717.75
527.204	46082.88
527.406	46848.82
527.607	46721.85
527.808	47196.98
528.01	46797.62
528.211	46938.93
528.412	47991.59
528.614	48048.93
528.815	47825.7
529.016	48749.34
529.218	47803.17
529.419	48163.62
529.62	47790.89
529.822	48405.28
530.023	47999.78
530.224	47928.1
530.425	48634.65
530.626	48180
530.828	47745.83
531.029	49433.36
531.23	48773.91
531.431	48458.52
531.632	48679.71
531.833	49599.24
532.035	49046.29
532.236	49105.68
532.437	49242.9
532.638	49343.25
532.839	49595.15
533.04	49474.32
533.241	49070.87
533.442	50207.49
533.643	49406.73
533.844	49226.51
534.045	49851.14
534.246	49279.76
534.447	49441.55
534.648	49310.48
534.849	49574.67
535.05	49437.45
535.251	49787.66
535.451	49890.05
535.652	49971.97
535.853	49480.46
536.054	49949.45
536.255	49726.22
536.456	49146.64
536.657	50101
536.857	49830.66
537.058	49709.83
537.259	50236.16
537.46	49740.55
537.66	49736.46
537.861	49638.15
538.062	49615.63
538.263	49761.03
538.463	50064.13
538.664	49744.65
538.865	50375.42
539.065	50012.93
539.266	49476.37
539.466	49986.31
539.667	49752.84
539.868	50234.11
540.068	49550.09
540.269	49900.29
540.469	49951.49
540.67	49775.37
540.87	49490.7
541.071	49412.88
541.271	49963.78
541.472	49560.33
541.672	49296.14
541.873	49425.17
542.073	49042.2
542.274	50410.24
542.474	49836.81
542.675	49425.17
542.875	49611.53
543.075	49457.93
543.276	48984.85
543.476	50086.66
543.676	49232.66
543.877	49720.07
544.077	49670.92
544.277	49619.72
544.478	49416.97
544.678	49738.51
544.878	49732.36
545.078	49697.55
545.279	49302.29
545.479	49181.46
545.679	49556.24
545.879	49648.39
546.079	49484.56
546.28	49591.05
546.48	49181.46
546.68	49781.51
546.88	49095.44
547.08	49578.76
547.28	49056.53
547.48	49077.01
547.68	49351.44
547.88	48632.6
548.081	49447.69
548.281	49236.75
548.481	48884.5
548.681	49298.19
548.881	49396.49
549.081	49031.96
549.28	49025.81
549.48	49154.83
549.68	49052.44
549.88	49842.95
550.08	48728.86
550.28	49531.66
550.48	49013.52
550.68	49445.65
550.88	48624.41
551.08	49279.76
551.279	48886.55
551.479	48661.27
551.679	49072.92
551.879	48937.75
552.079	48755.48
552.278	48519.96
552.478	48874.26
552.678	48958.23
552.878	49038.1
553.077	48626.46
553.277	48331.55
553.477	49236.75
553.676	48683.8
553.876	48741.14
554.076	48374.56
554.275	48577.31
554.475	47721.26
554.674	48657.18
554.874	48315.17
555.074	48278.3
555.273	48651.03
555.473	48438.04
555.672	48335.65
555.872	48577.31
556.071	48376.61
556.271	48380.7
556.47	47790.89
556.67	47901.48
556.869	48227.1
557.068	48157.47
557.268	47805.22
557.467	47749.93
557.667	47614.76
557.866	47823.65
558.065	47479.6
558.265	47805.22
558.464	47528.75
558.663	47852.33
558.863	46863.16
559.062	48003.88
559.261	46805.81
559.461	47944.48
559.66	47174.45
559.859	47082.29
560.058	46766.9
560.258	47170.35
560.457	46820.15
560.656	47158.06
560.855	46529.34
561.054	47029.04
561.253	46521.15
561.453	46680.89
561.652	46625.59
561.851	47153.97
562.05	46459.71
562.249	45943.62
562.448	46680.89
562.647	46388.03
562.846	46213.95
563.045	46201.66
563.244	45505.35
563.443	46254.91
563.642	45462.35
563.841	46279.49
564.04	45534.03
564.239	45568.84
564.438	45466.44
564.637	45413.2
564.836	45552.46
565.035	45230.93
565.234	45527.88
565.432	44680.02
565.631	44479.32
565.83	45538.12
566.029	44665.69
566.228	44763.99
566.427	44958.55
566.625	44354.4
566.824	44059.49
567.023	44733.27
567.222	43494.25
567.42	44469.08
567.619	44032.86
567.818	44467.03
568.016	43406.19
568.215	44194.65
568.414	43740
568.612	43873.12
568.811	43465.58
569.01	43594.6
569.208	42748.79
569.407	43584.36
569.605	42638.2
569.804	43484.01
570.002	42720.12
570.201	42935.15
570.4	42441.59
570.598	42333.05
570.797	42322.81
570.995	42601.33
571.193	42007.42
571.392	42044.29
571.59	41642.88
571.789	42003.33
571.987	41892.74
572.186	41724.8
572.384	41610.12
572.582	42210.17
572.781	41577.35
572.979	40795.03
573.177	41237.39
573.376	41350.03
573.574	41081.74
573.772	41565.06
573.971	40821.65
574.169	40659.86
574.367	40258.46
574.565	40938.38
574.763	40862.61
574.962	40127.39
575.16	39898.02
575.358	40192.92
575.556	39637.92
575.754	40323.99
575.952	39562.15
576.151	40285.08
576.349	39467.94
576.547	39424.93
576.745	39490.47
576.943	39887.78
577.141	39394.21
577.339	39478.18
577.537	38710.19
577.735	38826.93
577.933	38636.47
578.131	38884.27
578.329	38626.23
578.527	38245.3
578.725	38847.41
578.923	38849.46
579.121	38220.73
579.319	38427.57
579.516	38437.81
579.714	38181.82
579.912	37422.02
580.11	37788.61
580.308	38140.86
580.506	37729.22
580.704	36926.41
580.901	37604.29
581.099	37610.43
581.297	37282.76
581.495	37256.14
581.692	37106.63
581.89	37020.62
582.088	36871.12
582.285	36608.98
582.483	36926.41
582.681	36942.8
582.878	36899.79
583.076	36244.44
583.274	36801.49
583.471	35922.91
583.669	36156.38
583.866	35867.61
584.064	36318.17
584.262	35171.3
584.459	35939.29
584.657	35355.62
584.854	35892.19
585.052	35015.66
585.249	35544.03
585.447	35451.88
585.644	35052.52
585.841	35185.64
586.039	35091.43
586.236	34526.19
586.434	34845.68
586.631	34286.58
586.828	34558.96
587.026	34466.8
587.223	34397.17
587.42	34358.26
587.618	34247.67
587.815	33915.9
588.012	33850.36
588.21	33733.63
588.407	34116.6
588.604	33932.28
588.801	33518.59
588.999	33354.76
589.196	33268.74
589.393	33182.73
589.59	33076.23
589.787	33369.09
589.984	33135.62
590.182	32588.81
590.379	33106.95
590.576	32295.96
590.773	32848.91
590.97	32234.52
591.167	32627.73
591.364	31955.99
591.561	32412.69
591.758	31849.5
591.955	31996.95
592.152	31929.37
592.349	31740.96
592.546	31867.93
592.743	31587.36
592.94	31188
593.137	31654.94
593.334	31722.52
593.531	30940.2
593.727	31415.33
593.924	31329.31
594.121	31007.78
594.318	31099.94
594.515	30581.81
594.712	30692.4
594.908	30667.82
595.105	30759.98
595.302	30393.39
595.499	30209.08
595.696	30319.67
595.892	30221.36
596.089	30463.02
596.286	30028.85
596.482	30051.38
596.679	29887.54
596.876	30094.39
597.072	29551.68
597.269	29598.78
597.466	29703.23
597.662	29342.78
597.859	29631.55
598.055	29197.38
598.252	29156.42
598.448	29256.77
598.645	28951.62
598.841	28687.43
599.038	28910.66
599.234	28812.36
599.431	28611.66
599.627	28589.13
599.824	28724.3
600.02	28636.24
600.217	28472.4
600.413	28580.94
600.609	27937.88
600.806	28013.65
601.002	28230.74
601.198	27995.22
601.395	27280.48
601.591	27681.88
601.787	27984.98
601.984	27438.17
602.18	27907.16
602.376	27466.84
602.572	27114.59
602.769	27245.66
602.965	27135.07
603.161	27364.45
603.357	26817.64
603.553	26971.24
603.75	26788.97
603.946	26692.71
604.142	27053.16
604.338	26365.04
604.534	26494.06
604.73	26127.47
604.926	26301.55
605.122	26520.68
605.318	26072.18
605.514	26147.95
605.71	25810.04
605.906	26229.87
606.102	25683.06
606.298	25957.49
606.494	25801.85
606.69	25656.44
606.886	25838.71
607.082	25187.46
607.278	25654.39
607.474	25214.08
607.67	25572.47
607.866	24968.32
608.062	25289.85
608.257	25166.98
608.453	24992.9
608.649	24982.66
608.845	24784.01
609.041	24970.37
609.236	25058.43
609.432	24904.84
609.628	24786.05
609.824	24638.6
610.019	24646.79
610.215	24554.63
610.411	24605.83
610.606	24349.84
610.802	24652.94
610.998	24241.29
611.193	24437.9
611.389	24183.95
611.584	24151.18
611.78	24022.16
611.976	24212.62
612.171	24106.13
612.367	24280.21
612.562	24120.46
612.758	23723.16
612.953	23809.17
613.149	24065.17
613.344	23278.75
613.539	23893.14
613.735	23631
613.93	23608.47
614.126	23231.65
614.321	23901.33
614.517	23674.01
614.712	22977.7
614.907	23336.09
615.103	23309.47
615.298	23184.54
615.493	23524.51
615.688	22953.12
615.884	23612.57
616.079	22744.23
616.274	23106.72
616.47	22824.1
616.665	23096.48
616.86	22781.09
617.055	22572.2
617.25	22633.64
617.445	22699.17
617.641	22445.23
617.836	22799.52
618.031	22199.47
618.226	22619.3
618.421	22238.38
618.616	22690.98
618.811	22133.93
619.006	22351.02
619.201	22017.2
619.396	21994.67
619.591	21632.18
619.786	21834.93
619.981	21660.85
620.176	22006.96
620.371	21654.71
620.566	21630.13
620.761	21394.62
620.956	21609.65
621.151	21267.64
621.346	21050.56
621.541	20587.72
621.735	20958.4
621.93	20735.17
622.125	20817.09
622.32	20620.49
622.515	20579.53
622.709	20600.01
622.904	20382.92
623.099	20128.97
623.294	20276.43
623.488	19815.63
623.683	20169.93
623.878	19879.12
624.072	20051.15
624.267	19584.21
624.462	19375.32
624.656	19576.02
624.851	19340.5
625.046	19113.18
625.24	19135.71
625.435	19037.41
625.629	18838.75
625.824	18945.25
626.018	18961.63
626.213	18289.9
626.407	18545.89
626.602	18418.92
626.796	18572.52
626.991	18250.99
627.185	18416.87
627.38	18044.14
627.574	17951.98
627.768	18101.48
627.963	17597.68
628.157	17517.81
628.352	17851.63
628.546	17446.13
628.74	17474.81
628.935	17265.91
629.129	17368.31
629.323	17067.26
629.517	17118.46
629.712	17212.67
629.906	17190.14
630.1	16708.87
630.294	16782.59
630.489	16700.67
630.683	16585.99
630.877	16383.24
631.071	16024.84
631.265	16506.12
631.459	16375.05
631.653	16256.26
631.848	15908.11
632.042	15822.09
632.236	16258.31
632.43	15828.24
632.624	16037.13
632.818	15633.68
633.012	15412.5
633.206	15705.36
633.4	15455.51
633.594	15000.86
633.788	15080.73
633.982	15209.75
634.176	15152.41
634.369	15129.88
634.563	15226.14
634.757	15109.4
634.951	14935.32
635.145	14900.51
635.339	14927.13
635.533	14259.49
635.726	14527.78
635.92	14574.88
636.114	14472.48
636.308	14236.97
636.501	14290.21
636.695	14226.73
636.889	13923.63
637.083	13765.93
637.276	13806.89
637.47	13874.48
637.664	13657.39
637.857	13630.77
638.051	13577.52
638.244	13557.04
638.438	13616.43
638.632	13546.8
638.825	13428.02
639.019	13145.4
639.212	13253.94
639.406	13305.14
639.599	12916.03
639.793	12879.16
639.986	12739.9
640.18	12897.6
640.373	13010.23
640.567	12571.97
640.76	12815.68
640.954	12721.47
641.147	12528.96
641.34	12459.33
641.534	12582.21
641.727	12320.07
641.92	12412.23
642.114	12019.02
642.307	11980.11
642.5	12049.74
642.694	11619.66
642.887	11883.85
643.08	11955.53
643.273	11855.18
643.467	11818.32
643.66	11433.3
643.853	11699.53
644.046	11461.97
644.239	11500.88
644.432	11386.19
644.626	11382.1
644.819	11117.91
645.012	11126.1
645.205	11322.71
645.398	11015.51
645.591	10941.79
645.784	10900.83
645.977	11007.32
646.17	10759.52
646.363	10732.89
646.556	10780
646.749	10585.44
646.942	10859.87
647.135	10581.34
647.328	10835.29
647.521	10513.76
647.714	10364.26
647.907	10364.26
648.099	10302.82
648.292	10272.1
648.485	10069.35
648.678	10177.89
648.871	10089.83
649.064	9909.61
649.256	10163.56
649.449	9938.28
649.642	9758.06
649.835	9762.16
650.027	9807.21
650.22	9710.96
650.413	9530.73
650.605	9624.94
650.798	9657.71
650.991	9528.69
651.183	9543.02
651.376	9336.18
651.568	9201.01
651.761	9370.99
651.954	9364.85
652.146	9289.07
652.339	9190.77
652.531	8965.5
652.724	9065.85
652.916	8873.34
653.109	8975.74
653.301	8924.54
653.494	8990.07
653.686	8947.06
653.879	8793.47
654.071	8666.49
654.263	8703.36
654.456	8551.81
654.648	8666.49
654.84	8590.72
655.033	8490.37
655.225	8557.95
655.417	8258.95
655.61	8297.86
655.802	8592.76
655.994	8254.85
656.186	8295.81
656.379	8181.12
656.571	8287.62
656.763	7972.23
656.955	8076.68
657.148	8062.34
657.34	8062.34
657.532	7953.8
657.724	7826.82
657.916	7701.9
658.108	7865.74
658.3	7785.87
658.492	7914.89
658.684	7576.97
658.876	7931.27
659.068	7595.4
659.26	7540.11
659.452	7622.03
659.644	7593.36
659.836	7400.85
660.028	7529.87
660.22	7316.88
660.412	7308.69
660.604	7251.35
660.796	7288.21
660.988	7445.9
661.18	7220.63
661.372	7081.36
661.563	7148.95
661.755	7099.8
661.947	7015.83
662.139	6929.81
662.331	6989.21
662.522	6948.25
662.714	7044.5
662.906	6860.18
663.097	6794.65
663.289	6827.42
663.481	6733.21
663.673	6671.77
663.864	6565.28
664.056	6704.54
664.247	6655.39
664.439	6571.42
664.631	6499.74
664.822	6706.59
665.014	6448.54
665.205	6501.79
665.397	6387.1
665.588	6528.41
665.78	6333.86
665.971	6383.01
666.163	6313.38
666.354	6325.66
666.546	6288.8
666.737	6129.06
666.929	6219.17
667.12	6188.45
667.311	6137.25
667.503	6081.96
667.694	6084
667.885	5973.41
668.077	5932.45
668.268	5973.41
668.459	6038.95
668.651	5764.52
668.842	5815.72
669.033	5858.73
669.224	5858.73
669.416	5916.07
669.607	5764.52
669.798	5506.48
669.989	5785
670.18	5744.04
670.371	5678.51
670.563	5670.31
670.754	5621.16
670.945	5543.34
671.136	5834.15
671.327	5682.6
671.518	5580.2
671.709	5522.86
671.9	5379.5
672.091	5514.67
672.282	5486
672.473	5334.45
672.664	5488.04
672.855	5440.94
673.046	5375.41
673.237	5467.56
673.428	5338.54
673.619	5438.89
673.809	5316.01
674	5168.56
674.191	5424.56
674.382	5334.45
674.573	5230
674.764	5273.01
674.954	5148.08
675.145	5324.21
675.336	5113.27
675.527	4998.58
675.717	5105.07
675.908	5189.04
676.099	5070.26
676.289	5062.07
676.48	5107.12
676.671	5113.27
676.861	5146.03
677.052	4978.1
677.243	5066.16
677.433	5119.41
677.624	5006.77
677.814	4955.57
678.005	4890.04
678.195	4894.13
678.386	4928.95
678.576	4912.57
678.767	4969.91
678.957	4898.23
679.148	4826.55
679.338	4951.48
679.529	4883.89
679.719	4949.43
679.909	4836.79
680.1	4974
680.29	4783.54
680.481	4818.36
680.671	4916.66
680.861	4924.85
681.052	4822.45
681.242	4896.18
681.432	4863.41
681.622	4887.99
681.813	4795.83
682.003	4695.48
682.193	4814.26
682.383	4761.02
682.573	4648.38
682.764	4670.9
682.954	4791.73
683.144	4691.38
683.334	4769.21
683.524	4666.81
683.714	4742.58
683.904	4564.41
684.094	4695.48
684.284	4613.56
684.474	4672.95
684.664	4732.34
684.854	4709.82
685.044	4423.1
685.234	4552.12
685.424	4525.5
685.614	4578.75
685.804	4625.85
685.994	4447.68
686.184	4496.83
686.374	4568.51
686.564	4388.29
686.753	4447.68
686.943	4419
687.133	4406.72
687.323	4341.18
687.513	4378.05
687.702	4328.89
687.892	4277.69
688.082	4308.41
688.272	4261.31
688.461	4400.57
688.651	4349.37
688.841	4183.49
689.03	4265.41
689.22	4056.51
689.41	4158.91
689.599	4208.06
689.789	4191.68
689.979	4079.04
690.168	4044.23
690.358	4036.03
690.547	4023.75
690.737	4001.22
690.926	4226.5
691.116	3884.48
691.305	3993.03
691.495	4052.42
691.684	3993.03
691.874	3980.74
692.063	3968.45
692.252	3937.73
692.442	3839.43
692.631	3741.13
692.82	3968.45
693.01	3864.01
693.199	3900.87
693.388	3917.25
693.578	3812.81
693.767	3853.77
693.956	3845.57
694.146	3751.37
694.335	3765.7
694.524	3741.13
694.713	3712.46
694.902	3784.13
695.092	3675.59
695.281	3782.09
695.47	3761.61
695.659	3622.34
695.848	3702.22
696.037	3687.88
696.226	3716.55
696.415	3726.79
696.604	3683.78
696.793	3489.23
696.982	3587.53
697.171	3610.06
697.36	3618.25
697.549	3521.99
697.738	3546.57
697.927	3567.05
698.116	3618.25
698.305	3528.14
698.494	3515.85
698.683	3491.27
698.872	3644.87
699.061	3478.99
699.25	3423.69
699.438	3358.16
699.627	3401.16
699.816	3495.37
700.005	3546.57
700.193	3450.32
700.382	3460.56
700.571	3444.17
700.76	3392.97
700.948	3421.64
701.137	3349.96
701.326	3411.4
701.514	3515.85
701.703	3478.99
701.892	3380.68
702.08	3472.84
702.269	3290.57
702.457	3507.66
702.646	3325.39
702.834	3345.87
703.023	3298.77
703.212	3390.92
703.4	3294.67
703.589	3397.07
703.777	3384.78
703.965	3261.9
704.154	3446.22
704.342	3313.1
704.531	3276.24
704.719	3243.47
704.907	3349.96
705.096	3311.05
705.284	3417.55
705.472	3397.07
705.661	3284.43
705.849	3304.91
706.037	3395.02
706.226	3280.33
706.414	3298.77
706.602	3231.18
706.79	3255.76
706.979	3311.05
707.167	3282.38
707.355	3151.31
707.543	3358.16
707.731	3327.44
707.919	3153.36
708.107	3302.86
708.296	3149.26
708.484	3280.33
708.672	3313.1
708.86	3194.32
709.048	3253.71
709.236	3134.93
709.424	3290.57
709.612	3196.37
709.8	3173.84
709.988	3165.65
710.176	3089.87
710.364	3194.32
710.551	3229.13
710.739	3151.31
710.927	3282.38
711.115	3276.24
711.303	3069.39
711.491	3130.83
711.679	3171.79
711.866	3188.18
712.054	3124.69
712.242	2923.99
712.43	3134.93
712.617	3259.85
712.805	3055.06
712.993	3143.12
713.181	3102.16
713.368	3132.88
713.556	3048.91
713.744	3122.64
713.931	3362.25
714.119	3253.71
714.306	3167.7
714.494	3198.42
714.682	3087.82
714.869	3218.89
715.057	3151.31
715.244	3122.64
715.432	3210.7
715.619	3198.42
715.807	3186.13
715.994	3087.82
716.182	3053.01
716.369	3182.03
716.556	2934.23
716.744	3055.06
716.931	3188.18
717.119	3157.46
717.306	3030.48
717.493	3108.3
717.681	3149.26
717.868	3053.01
718.055	3100.11
718.242	2940.37
718.43	3126.74
718.617	3075.54
718.804	3112.4
718.991	2958.8
719.179	3122.64
719.366	3050.96
719.553	3003.86
719.74	3057.11
719.927	3007.95
720.114	3018.19
720.301	3046.87
720.488	3032.53
720.676	3038.67
720.863	3036.63
721.05	3081.68
721.237	2909.65
721.424	3061.2
721.611	2907.6
721.798	3093.97
721.985	2840.02
722.172	2934.23
722.358	2905.56
722.545	2911.7
722.732	2923.99
722.919	2973.14
723.106	3040.72
723.293	3032.53
723.48	3005.91
723.667	2958.8
723.853	2952.66
724.04	2905.56
724.227	2952.66
724.414	2883.03
724.6	2966.99
724.787	2952.66
724.974	2944.47
725.161	2893.27
725.347	2913.75
725.534	2901.46
725.72	2909.65
725.907	2962.9
726.094	2966.99
726.28	2821.59
726.467	2885.08
726.653	2909.65
726.84	2969.04
727.027	2934.23
727.213	2786.77
727.4	2844.12
727.586	2788.82
727.773	2915.8
727.959	2844.12
728.145	2680.28
728.332	2799.06
728.518	2764.25
728.705	2858.45
728.891	2749.91
729.077	2872.79
729.264	2856.4
729.45	2758.1
729.636	2827.73
729.823	2782.68
730.009	2754.01
730.195	2786.77
730.382	2840.02
730.568	2811.35
730.754	2790.87
730.94	2717.14
731.126	2749.91
731.313	2848.21
731.499	2932.18
731.685	2772.44
731.871	2778.58
732.057	2778.58
732.243	2786.77
732.429	2725.33
732.615	2776.53
732.801	2776.53
732.987	2719.19
733.173	2758.1
733.359	2588.12
733.545	2751.96
733.731	2696.66
733.917	2639.32
734.103	2686.42
734.289	2743.77
734.475	2659.8
734.661	2819.54
734.847	2620.89
735.033	2659.8
735.219	2725.33
735.404	2704.85
735.59	2713.05
735.776	2680.28
735.962	2663.9
736.148	2627.03
736.333	2575.83
736.519	2596.31
736.705	2639.32
736.89	2520.54
737.076	2459.1
737.262	2614.74
737.447	2500.06
737.633	2588.12
737.819	2653.66
738.004	2571.74
738.19	2508.25
738.375	2506.2
738.561	2553.31
738.747	2524.63
738.932	2547.16
739.118	2602.46
739.303	2530.78
739.489	2596.31
739.674	2475.48
739.859	2475.48
740.045	2395.61
740.23	2541.02
740.416	2373.08
740.601	2442.71
740.786	2379.23
740.972	2348.51
741.157	2471.39
741.342	2344.41
741.528	2336.22
741.713	2401.76
741.898	2422.24
742.084	2498.01
742.269	2416.09
742.454	2385.37
742.639	2364.89
742.824	2295.26
743.01	2266.59
743.195	2340.32
743.38	2282.97
743.565	2381.28
743.75	2321.88
743.935	2264.54
744.12	2340.32
744.305	2233.82
744.49	2258.4
744.675	2291.17
744.86	2188.77
745.045	2252.25
745.23	2225.63
745.415	2180.57
745.6	2188.77
745.785	2215.39
745.97	2119.14
746.155	2059.74
746.34	2194.91
746.525	2186.72
746.71	2115.04
746.895	2141.66
747.079	2057.7
747.264	2106.85
747.449	2063.84
747.634	2018.79
747.819	2000.35
748.003	1971.68
748.188	1953.25
748.373	1965.54
748.557	2024.93
748.742	1938.91
748.927	1920.48
749.111	1916.39
749.296	1826.28
749.481	1801.7
749.665	1875.43
749.85	2043.36
750.034	1818.08
750.219	1744.36
750.404	1826.28
750.588	1785.32
750.773	1854.95
750.957	1805.8
751.141	1836.52
751.326	1879.52
751.51	1809.89
751.695	1811.94
751.879	1783.27
752.064	1760.74
752.248	1689.06
752.432	1760.74
752.617	1748.45
752.801	1725.93
752.985	1656.29
753.17	1666.53
753.354	1779.17
753.538	1687.01
753.722	1639.91
753.907	1566.18
754.091	1644.01
754.275	1613.29
754.459	1607.14
754.643	1605.1
754.828	1537.51
755.012	1527.27
755.196	1508.84
755.38	1568.23
755.564	1484.27
755.748	1529.32
755.932	1553.9
756.116	1517.03
756.3	1457.64
756.484	1369.58
756.668	1410.54
756.852	1467.88
757.036	1441.26
757.22	1463.79
757.404	1431.02
757.588	1349.1
757.772	1383.91
757.956	1365.48
758.14	1445.35
758.323	1312.24
758.507	1349.1
758.691	1328.62
758.875	1314.28
759.059	1422.83
759.242	1277.42
759.426	1314.28
759.61	1234.41
759.794	1390.06
759.977	1349.1
760.161	1299.95
760.345	1267.18
760.528	1326.57
760.712	1342.96
760.895	1181.17
761.079	1322.48
761.263	1158.64
761.446	1183.21
761.63	1170.93
761.813	1273.32
761.997	1226.22
762.18	1213.93
762.364	1138.16
762.547	1181.17
762.731	1203.69
762.914	1162.73
763.098	1244.65
763.281	1086.96
763.464	1222.13
763.648	1117.68
763.831	1136.11
764.015	1170.93
764.198	1177.07
764.381	1232.37
764.564	1121.77
764.748	1144.3
764.931	1074.67
765.114	1148.4
765.297	1164.78
765.481	1127.92
765.664	1050.1
765.847	1033.71
766.03	1193.45
766.213	1050.1
766.397	1086.96
766.58	984.56
766.763	1031.66
766.946	1060.34
767.129	1050.1
767.312	1068.53
767.495	980.47
767.678	1072.62
767.861	1031.66
768.044	1019.38
768.227	970.23
768.41	949.75
768.593	1093.1
768.776	1041.9
768.959	943.6
769.142	1025.52
769.324	966.13
769.507	1033.71
769.69	1023.47
769.873	1013.23
770.056	892.4
770.239	916.98
770.421	1023.47
770.604	912.88
770.787	974.32
770.97	929.27
771.152	937.46
771.335	1005.04
771.518	964.08
771.7	962.03
771.883	931.31
772.066	951.79
772.248	857.59
772.431	1005.04
772.613	849.4
772.796	906.74
772.978	884.21
773.161	1007.09
773.343	792.05
773.526	755.19
773.708	859.63
773.891	837.11
774.073	861.68
774.256	876.02
774.438	871.92
774.621	851.44
774.803	878.07
774.985	755.19
775.168	808.44
775.35	839.16
775.532	892.4
775.715	812.53
775.897	837.11
776.079	785.91
776.261	703.99
776.444	763.38
776.626	787.96
776.808	785.91
776.99	777.72
777.173	843.25
777.355	798.2
777.537	796.15
777.719	798.2
777.901	730.61
778.083	718.33
778.265	691.7
778.447	751.09
778.629	667.13
778.811	718.33
778.993	714.23
779.175	691.7
779.357	710.13
779.539	751.09
779.721	712.18
779.903	714.23
780.085	699.89
780.267	617.97
780.449	753.14
780.631	677.37
780.812	658.93
780.994	632.31
781.176	597.49
781.358	697.85
781.54	583.16
781.721	574.97
781.903	642.55
782.085	562.68
782.267	597.49
782.448	570.87
782.63	591.35
782.812	587.26
782.993	568.82
783.175	640.5
783.357	546.3
783.538	615.93
783.72	556.54
783.901	622.07
784.083	501.24
784.264	529.91
784.446	486.9
784.627	536.06
784.809	550.39
784.99	579.06
785.172	484.86
785.353	511.48
785.535	505.34
785.716	529.91
785.897	527.86
786.079	574.97
786.26	515.58
786.441	513.53
786.623	441.85
786.804	447.99
786.985	445.95
787.167	558.58
787.348	450.04
787.529	439.8
787.71	482.81
787.891	468.47
788.073	480.76
788.254	396.79
788.435	486.9
788.616	464.38
788.797	310.78
788.978	419.32
789.159	464.38
789.34	491
789.522	347.64
789.703	441.85
789.884	454.14
790.065	415.23
790.246	427.51
790.427	454.14
790.607	507.38
790.788	433.66
790.969	312.83
791.15	394.75
791.331	404.99
791.512	359.93
791.693	380.41
791.874	368.12
792.054	462.33
792.235	407.03
792.416	361.98
792.597	386.55
792.778	415.23
792.958	355.83
793.139	323.07
793.32	388.6
793.5	341.5
793.681	425.47
793.862	394.75
794.042	351.74
794.223	327.16
794.404	302.59
794.584	372.22
794.765	337.4
794.945	339.45
795.126	376.31
795.306	351.74
795.487	294.4
795.667	312.83
795.848	345.59
796.028	345.59
796.209	380.41
796.389	333.31
796.57	273.92
796.75	321.02
796.93	331.26
797.111	368.12
797.291	321.02
797.471	347.64
797.652	280.06
797.832	269.82
798.012	376.31
798.192	269.82
798.373	292.35
798.553	273.92
798.733	323.07
798.913	228.86
799.093	280.06
799.274	316.92
799.454	327.16
799.634	394.75
799.814	292.35
799.994	306.68
800.174	253.44
800.354	310.78
800.534	259.58
800.714	267.77
800.894	177.66
801.074	202.24
801.254	300.54
801.434	353.79
801.614	245.24
801.794	245.24
801.974	859.63
802.154	251.39
802.334	286.2
802.514	259.58
802.693	267.77
802.873	247.29
803.053	310.78
803.233	259.58
803.413	261.63
803.592	280.06
803.772	269.82
803.952	300.54
804.131	300.54
804.311	300.54
804.491	212.48
804.67	189.95
804.85	300.54
805.03	300.54
805.209	218.62
805.389	286.2
805.568	148.99
805.748	163.33
805.928	216.57
806.107	314.88
806.287	282.11
806.466	189.95
806.646	286.2
806.825	280.06
807.004	284.16
807.184	214.52
807.363	185.85
807.543	210.43
807.722	204.28
807.901	286.2
808.081	196.09
808.26	189.95
808.439	185.85
808.619	253.44
808.798	179.71
808.977	235
809.156	163.33
809.336	271.87
809.515	249.34
809.694	187.9
809.873	200.19
810.052	208.38
810.231	202.24
810.411	202.24
810.59	263.68
810.769	280.06
810.948	228.86
811.127	177.66
811.306	192
811.485	253.44
811.664	286.2
811.843	237.05
812.022	134.65
812.201	208.38
812.38	224.76
812.559	122.37
812.737	181.76
812.916	155.13
813.095	165.37
813.274	179.71
813.453	255.48
813.632	173.57
813.811	181.76
813.989	134.65
814.168	208.38
814.347	214.52
814.526	208.38
814.704	239.1
814.883	194.05
815.062	222.72
815.24	189.95
815.419	163.33
815.598	196.09
815.776	128.51
815.955	140.8
816.133	85.5
816.312	126.46
816.49	138.75
816.669	118.27
816.847	189.95
817.026	212.48
817.204	185.85
817.383	222.72
817.561	97.79
817.74	267.77
817.918	183.81
818.097	132.61
818.275	177.66
818.453	120.32
818.632	153.09
818.81	157.18
818.988	116.22
819.167	179.71
819.345	216.57
819.523	101.89
819.701	120.32
819.879	165.37
820.058	185.85
820.236	161.28
820.414	118.27
820.592	138.75
820.77	175.61
820.948	103.93
821.127	122.37
821.305	126.46
821.483	112.13
821.661	175.61
821.839	122.37
822.017	69.12
822.195	155.13
822.373	122.37
822.551	138.75
822.729	134.65
822.907	177.66
823.085	138.75
823.262	114.17
823.44	118.27
823.618	153.09
823.796	138.75
823.974	120.32
824.152	138.75
824.329	126.46
824.507	157.18
824.685	136.7
824.863	144.89
825.04	130.56
825.218	132.61
825.396	194.05
825.574	146.94
825.751	73.21
825.929	181.76
826.107	97.79
826.284	157.18
826.462	128.51
826.639	108.03
826.817	67.07
826.994	79.36
827.172	140.8
827.349	148.99
827.527	124.41
827.704	175.61
827.882	165.37
828.059	110.08
828.237	110.08
828.414	148.99
828.591	32.26
828.769	110.08
828.946	128.51
829.124	67.07
829.301	144.89
829.478	142.85
829.655	112.13
829.833	52.74
830.01	38.4
830.187	151.04
830.364	132.61
830.542	218.62
830.719	175.61
830.896	163.33
831.073	99.84
831.25	136.7
831.427	99.84
831.604	97.79
831.782	148.99
831.959	83.45
832.136	112.13
832.313	83.45
832.49	83.45
832.667	140.8
832.844	112.13
833.021	173.57
833.198	30.21
833.374	91.65
833.551	91.65
833.728	132.61
833.905	67.07
834.082	50.69
834.259	34.3
834.436	103.93
834.612	130.56
834.789	169.47
834.966	83.45
835.143	112.13
835.319	108.03
835.496	105.98
835.673	155.13
835.85	148.99
836.026	50.69
836.203	144.89
836.38	50.69
836.556	42.5
836.733	58.88
836.909	200.19
837.086	97.79
837.262	85.5
837.439	112.13
837.616	52.74
837.792	91.65
837.968	140.8
838.145	65.02
838.321	105.98
838.498	32.26
838.674	163.33
838.851	108.03
839.027	44.54
839.203	97.79
839.38	19.97
839.556	52.74
839.732	91.65
839.909	48.64
840.085	132.61
840.261	89.6
840.437	103.93
840.614	67.07
840.79	77.31
840.966	65.02
841.142	101.89
841.318	38.4
841.494	120.32
841.671	112.13
841.847	42.5
842.023	34.3
842.199	67.07
842.375	144.89
842.551	42.5
842.727	97.79
842.903	91.65
843.079	87.55
843.255	132.61
843.431	11.78
843.607	97.79
843.783	-29.18
843.959	87.55
844.134	83.45
844.31	108.03
844.486	36.35
844.662	42.5
844.838	114.17
845.013	144.89
845.189	19.97
845.365	85.5
845.541	67.07
845.716	89.6
845.892	52.74
846.068	83.45
846.244	-2.56
846.419	54.78
846.595	-10.75
846.77	99.84
846.946	91.65
847.122	110.08
847.297	77.31
847.473	161.28
847.648	17.92
847.824	71.17
847.999	38.4
848.175	73.21
848.35	101.89
848.526	54.78
848.701	136.7
848.876	77.31
849.052	62.98
849.227	95.74
849.403	67.07
849.578	62.98
849.753	19.97
849.929	103.93
850.104	28.16
850.279	122.37
850.454	89.6
850.63	15.87
850.805	42.5
850.98	50.69
851.155	50.69
851.33	105.98
851.505	-31.23
851.681	46.59
851.856	7.68
852.031	60.93
852.206	65.02
852.381	5.63
852.556	40.45
852.731	24.06
852.906	36.35
853.081	79.36
853.256	77.31
853.431	28.16
853.606	58.88
853.781	75.26
853.956	62.98
854.131	95.74
854.305	50.69
854.48	3.58
854.655	22.02
854.83	52.74
855.005	24.06
855.18	50.69
855.354	9.73
855.529	58.88
855.704	13.82
855.879	73.21
856.053	22.02
856.228	75.26
856.403	36.35
856.577	116.22
856.752	-12.8
856.926	99.84
857.101	69.12
857.276	9.73
857.45	110.08
857.625	30.21
857.799	17.92
857.974	97.79
858.148	13.82
858.323	62.98
858.497	17.92
858.672	50.69
858.846	101.89
859.02	50.69
859.195	38.4
859.369	103.93
859.543	7.68
859.718	24.06
859.892	3.58
860.066	89.6
860.241	50.69
860.415	83.45
860.589	-14.85
860.763	71.17
860.938	58.88
861.112	5.63
861.286	58.88
861.46	34.3
861.634	30.21
861.808	-0.51
861.982	26.11
862.157	58.88
862.331	40.45
862.505	22.02
862.679	28.16
862.853	11.78
863.027	24.06
863.201	38.4
863.375	5.63
863.549	22.02
863.722	19.97
863.896	77.31
864.07	58.88
864.244	110.08
864.418	42.5
864.592	56.83
864.766	56.83
864.939	62.98
865.113	38.4
865.287	83.45
865.461	13.82
865.634	9.73
865.808	1.54
865.982	46.59
866.156	65.02
866.329	44.54
866.503	42.5
866.676	95.74
866.85	-29.18
867.024	34.3
867.197	58.88
867.371	97.79
867.544	54.78
867.718	7.68
867.891	11.78
868.065	36.35
868.238	77.31
868.412	44.54
868.585	1.54
868.759	62.98
868.932	56.83
869.105	11.78
869.279	9.73
869.452	15.87
869.625	28.16
869.799	73.21
869.972	-10.75
870.145	-0.51
870.319	58.88
870.492	120.32
870.665	48.64
870.838	32.26
871.011	-41.47
871.185	-10.75
871.358	40.45
871.531	5.63
871.704	1.54
871.877	26.11
872.05	36.35
872.223	15.87
872.396	46.59
872.569	19.97
872.742	13.82
872.915	42.5
873.088	-18.94
873.261	34.3
873.434	34.3
873.607	26.11
873.78	65.02
873.953	-27.14
874.126	32.26
874.299	-43.52
874.471	22.02
874.644	34.3
874.817	48.64
874.99	65.02
875.163	22.02
875.335	58.88
875.508	67.07
875.681	97.79
875.853	65.02
876.026	54.78
876.199	136.7
876.371	52.74
876.544	44.54
876.717	-8.7
876.889	5.63
877.062	50.69
877.234	-45.57
877.407	50.69
877.579	-2.56
877.752	-18.94
877.924	50.69
878.097	30.21
878.269	79.36
878.442	42.5
878.614	71.17
878.786	69.12
878.959	44.54
879.131	-31.23
879.303	-27.14
879.476	15.87
879.648	34.3
879.82	15.87
879.993	67.07
880.165	52.74
880.337	-12.8
880.509	69.12
880.681	-37.38
880.854	9.73
881.026	17.92
881.198	69.12
881.37	7.68
881.542	-12.8
881.714	-2.56
881.886	73.21
882.058	-6.66
882.23	28.16
882.402	-41.47
882.574	-25.09
882.746	-14.85
882.918	-86.53
883.09	71.17
883.262	15.87
883.434	7.68
883.606	-70.14
883.778	5.63
883.95	91.65
884.122	1.54
884.293	97.79
884.465	9.73
884.637	103.93
884.809	-2.56
884.98	17.92
885.152	112.13
885.324	95.74
885.496	-18.94
885.667	34.3
885.839	52.74
886.011	46.59
886.182	60.93
886.354	95.74
886.525	73.21
886.697	22.02
886.869	40.45
887.04	34.3
887.212	42.5
887.383	108.03
887.555	44.54
887.726	9.73
887.897	-23.04
888.069	46.59
888.24	-0.51
888.412	101.89
888.583	13.82
888.754	17.92
888.926	-57.86
889.097	60.93
889.268	30.21
889.44	17.92
889.611	-72.19
889.782	7.68
889.953	-20.99
890.125	71.17
890.296	7.68
890.467	71.17
890.638	1.54
890.809	-12.8
890.98	34.3
891.151	-8.7
891.323	26.11
891.494	56.83
891.665	30.21
891.836	65.02
892.007	24.06
892.178	56.83
892.349	-20.99
892.52	73.21
892.691	-6.66
892.862	-27.14
893.032	1.54
893.203	-57.86
893.374	-10.75
893.545	108.03
893.716	-35.33
893.887	11.78
894.057	-25.09
894.228	-37.38
894.399	30.21
894.57	44.54
894.74	3.58
894.911	126.46
895.082	-6.66
895.253	-6.66
895.423	65.02
895.594	95.74
895.764	15.87
895.935	11.78
896.106	40.45
896.276	99.84
896.447	-18.94
896.617	38.4
896.788	87.55
896.958	17.92
897.129	5.63
897.299	-23.04
897.47	91.65
897.64	32.26
897.81	-33.28
897.981	26.11
898.151	67.07
898.322	67.07
898.492	11.78
898.662	13.82
898.832	-27.14
899.003	42.5
899.173	118.27
899.343	-18.94
899.513	-12.8
