Data from USB4F104151__93__10-24-30-249.txt Node

Date: Wed Mar 12 10:24:30 EDT 2025
User: louis
Spectrometer: USB4F10415
Trigger mode: 4
Integration Time (sec): 3.000000E-2
Scans to average: 1
Electric dark correction enabled: true
Nonlinearity correction enabled: false
Boxcar width: 0
XAxis mode: Wavelengths
Number of Pixels in Spectrum: 3648
>>>>>Begin Spectral Data<<<<<
178.204	-78.85
178.424	-78.85
178.644	-78.85
178.864	-115.71
179.084	-25.6
179.304	-25.6
179.524	-15.36
179.744	-7.17
179.964	21.5
180.184	25.6
180.404	9.22
180.624	50.18
180.844	-23.55
181.064	-7.17
181.283	-33.79
181.503	-1.02
181.723	7.17
181.943	31.74
182.163	48.13
182.383	17.41
182.602	41.98
182.822	72.7
183.042	3.07
183.262	-15.36
183.482	-15.36
183.701	54.27
183.921	44.03
184.141	48.13
184.361	-19.46
184.58	1.02
184.8	5.12
185.02	29.7
185.239	29.7
185.459	41.98
185.679	21.5
185.898	-64.51
186.118	56.32
186.338	74.75
186.557	99.33
186.777	-44.03
186.997	-9.22
187.216	1.02
187.436	82.94
187.655	58.37
187.875	25.6
188.095	41.98
188.314	89.09
188.534	-25.6
188.753	-35.84
188.973	74.75
189.192	93.18
189.412	21.5
189.631	52.22
189.851	58.37
190.07	84.99
190.29	15.36
190.509	19.46
190.729	-19.46
190.948	19.46
191.168	132.09
191.387	82.94
191.607	33.79
191.826	91.13
192.045	31.74
192.265	74.75
192.484	97.28
192.704	39.94
192.923	-31.74
193.142	164.86
193.362	66.56
193.581	125.95
193.8	74.75
194.02	13.31
194.239	21.5
194.458	68.61
194.678	15.36
194.897	52.22
195.116	48.13
195.335	-9.22
195.555	76.8
195.774	1.02
195.993	56.32
196.212	-50.18
196.432	29.7
196.651	33.79
196.87	-7.17
197.089	78.85
197.308	-11.26
197.528	27.65
197.747	25.6
197.966	11.26
198.185	82.94
198.404	-7.17
198.623	7.17
198.842	-23.55
199.062	7.17
199.281	64.51
199.5	46.08
199.719	1.02
199.938	64.51
200.157	-29.7
200.376	-29.7
200.595	128
200.814	15.36
201.033	29.7
201.252	-1.02
201.471	-1.02
201.69	58.37
201.909	-9.22
202.128	64.51
202.347	78.85
202.566	52.22
202.785	29.7
203.004	9.22
203.223	54.27
203.442	41.98
203.661	17.41
203.879	91.13
204.098	113.66
204.317	31.74
204.536	44.03
204.755	66.56
204.974	25.6
205.193	64.51
205.411	82.94
205.63	74.75
205.849	54.27
206.068	3.07
206.287	11.26
206.505	41.98
206.724	-23.55
206.943	95.23
207.162	64.51
207.381	89.09
207.599	1.02
207.818	50.18
208.037	-31.74
208.255	5.12
208.474	80.89
208.693	-27.65
208.911	80.89
209.13	19.46
209.349	17.41
209.567	62.46
209.786	48.13
210.005	103.42
210.223	37.89
210.442	39.94
210.661	3.07
210.879	80.89
211.098	72.7
211.316	111.61
211.535	58.37
211.753	-31.74
211.972	56.32
212.191	37.89
212.409	50.18
212.628	54.27
212.846	19.46
213.065	17.41
213.283	80.89
213.502	-25.6
213.72	-5.12
213.938	25.6
214.157	37.89
214.375	9.22
214.594	23.55
214.812	5.12
215.031	74.75
215.249	7.17
215.467	-15.36
215.686	-9.22
215.904	50.18
216.122	17.41
216.341	156.67
216.559	7.17
216.778	25.6
216.996	27.65
217.214	48.13
217.432	50.18
217.651	-1.02
217.869	89.09
218.087	134.14
218.306	29.7
218.524	68.61
218.742	27.65
218.96	115.71
219.179	66.56
219.397	31.74
219.615	111.61
219.833	25.6
220.051	-11.26
220.27	31.74
220.488	-17.41
220.706	19.46
220.924	-33.79
221.142	5.12
221.36	58.37
221.578	113.66
221.796	58.37
222.015	23.55
222.233	50.18
222.451	87.04
222.669	25.6
222.887	56.32
223.105	9.22
223.323	17.41
223.541	-19.46
223.759	60.42
223.977	46.08
224.195	7.17
224.413	136.19
224.631	46.08
224.849	17.41
225.067	125.95
225.285	41.98
225.503	-17.41
225.721	-19.46
225.939	97.28
226.157	62.46
226.375	78.85
226.592	-19.46
226.81	46.08
227.028	89.09
227.246	123.9
227.464	111.61
227.682	58.37
227.9	109.57
228.117	39.94
228.335	44.03
228.553	13.31
228.771	132.09
228.989	58.37
229.206	27.65
229.424	17.41
229.642	-31.74
229.86	58.37
230.077	87.04
230.295	64.51
230.513	41.98
230.731	70.65
230.948	66.56
231.166	9.22
231.384	-7.17
231.601	70.65
231.819	64.51
232.037	23.55
232.254	11.26
232.472	74.75
232.689	25.6
232.907	-7.17
233.125	9.22
233.342	-46.08
233.56	97.28
233.777	-64.51
233.995	60.42
234.213	56.32
234.43	46.08
234.648	-7.17
234.865	82.94
235.083	58.37
235.3	-3.07
235.518	68.61
235.735	78.85
235.953	58.37
236.17	25.6
236.388	136.19
236.605	13.31
236.822	87.04
237.04	64.51
237.257	3.07
237.475	31.74
237.692	56.32
237.909	66.56
238.127	-9.22
238.344	72.7
238.562	-29.7
238.779	-109.57
238.996	-3.07
239.214	35.84
239.431	82.94
239.648	11.26
239.865	25.6
240.083	89.09
240.3	64.51
240.517	46.08
240.735	58.37
240.952	72.7
241.169	91.13
241.386	44.03
241.603	5.12
241.821	50.18
242.038	78.85
242.255	56.32
242.472	41.98
242.689	91.13
242.907	74.75
243.124	13.31
243.341	39.94
243.558	41.98
243.775	25.6
243.992	19.46
244.209	35.84
244.426	74.75
244.643	46.08
244.86	46.08
245.078	95.23
245.295	11.26
245.512	17.41
245.729	46.08
245.946	48.13
246.163	39.94
246.38	27.65
246.597	27.65
246.814	82.94
247.031	64.51
247.248	19.46
247.464	50.18
247.681	39.94
247.898	-1.02
248.115	15.36
248.332	7.17
248.549	-25.6
248.766	62.46
248.983	-3.07
249.2	-25.6
249.417	103.42
249.633	62.46
249.85	66.56
250.067	21.5
250.284	50.18
250.501	91.13
250.717	37.89
250.934	72.7
251.151	23.55
251.368	74.75
251.585	11.26
251.801	-48.13
252.018	19.46
252.235	50.18
252.451	72.7
252.668	35.84
252.885	56.32
253.102	99.33
253.318	7.17
253.535	50.18
253.752	41.98
253.968	15.36
254.185	74.75
254.401	-7.17
254.618	68.61
254.835	68.61
255.051	107.52
255.268	17.41
255.484	25.6
255.701	-7.17
255.917	17.41
256.134	13.31
256.351	29.7
256.567	13.31
256.784	5.12
257	33.79
257.217	72.7
257.433	119.81
257.65	-1.02
257.866	7.17
258.082	9.22
258.299	37.89
258.515	107.52
258.732	41.98
258.948	64.51
259.165	84.99
259.381	13.31
259.597	1.02
259.814	25.6
260.03	50.18
260.246	-11.26
260.463	52.22
260.679	109.57
260.895	58.37
261.112	52.22
261.328	-7.17
261.544	13.31
261.761	99.33
261.977	80.89
262.193	-33.79
262.409	70.65
262.626	-19.46
262.842	56.32
263.058	-46.08
263.274	54.27
263.49	37.89
263.707	74.75
263.923	78.85
264.139	-27.65
264.355	68.61
264.571	66.56
264.787	33.79
265.004	29.7
265.22	1.02
265.436	60.42
265.652	27.65
265.868	46.08
266.084	-21.5
266.3	91.13
266.516	5.12
266.732	-11.26
266.948	44.03
267.164	9.22
267.38	17.41
267.596	1.02
267.812	115.71
268.028	82.94
268.244	1.02
268.46	44.03
268.676	-15.36
268.892	62.46
269.108	7.17
269.324	66.56
269.54	-29.7
269.756	125.95
269.972	9.22
270.188	33.79
270.403	25.6
270.619	27.65
270.835	46.08
271.051	46.08
271.267	19.46
271.483	-7.17
271.698	33.79
271.914	72.7
272.13	-5.12
272.346	82.94
272.562	7.17
272.777	132.09
272.993	58.37
273.209	5.12
273.425	-9.22
273.64	-7.17
273.856	91.13
274.072	27.65
274.287	23.55
274.503	58.37
274.719	41.98
274.934	9.22
275.15	74.75
275.366	23.55
275.581	52.22
275.797	25.6
276.012	-17.41
276.228	19.46
276.444	58.37
276.659	84.99
276.875	-5.12
277.09	19.46
277.306	68.61
277.521	50.18
277.737	95.23
277.952	11.26
278.168	33.79
278.383	78.85
278.599	52.22
278.814	82.94
279.03	-23.55
279.245	33.79
279.461	66.56
279.676	105.47
279.892	-1.02
280.107	-7.17
280.322	25.6
280.538	70.65
280.753	46.08
280.969	41.98
281.184	62.46
281.399	115.71
281.615	-3.07
281.83	29.7
282.045	-9.22
282.26	-9.22
282.476	68.61
282.691	9.22
282.906	21.5
283.122	46.08
283.337	107.52
283.552	23.55
283.767	31.74
283.983	25.6
284.198	-17.41
284.413	56.32
284.628	17.41
284.843	58.37
285.058	97.28
285.274	23.55
285.489	1.02
285.704	46.08
285.919	56.32
286.134	1.02
286.349	56.32
286.564	31.74
286.779	91.13
286.995	37.89
287.21	33.79
287.425	95.23
287.64	-19.46
287.855	33.79
288.07	58.37
288.285	82.94
288.5	44.03
288.715	93.18
288.93	9.22
289.145	39.94
289.36	25.6
289.575	66.56
289.79	70.65
290.004	29.7
290.219	74.75
290.434	7.17
290.649	-1.02
290.864	15.36
291.079	62.46
291.294	113.66
291.509	17.41
291.724	58.37
291.938	23.55
292.153	87.04
292.368	68.61
292.583	148.48
292.798	25.6
293.012	76.8
293.227	136.19
293.442	70.65
293.657	56.32
293.871	23.55
294.086	15.36
294.301	115.71
294.516	103.42
294.73	125.95
294.945	3.07
295.16	27.65
295.374	111.61
295.589	9.22
295.804	1.02
296.018	64.51
296.233	76.8
296.447	23.55
296.662	48.13
296.877	82.94
297.091	29.7
297.306	82.94
297.52	39.94
297.735	21.5
297.949	21.5
298.164	17.41
298.378	78.85
298.593	23.55
298.807	-25.6
299.022	-3.07
299.236	125.95
299.451	-29.7
299.665	-7.17
299.88	50.18
300.094	-17.41
300.309	62.46
300.523	21.5
300.737	1.02
300.952	109.57
301.166	-9.22
301.381	-13.31
301.595	93.18
301.809	13.31
302.024	39.94
302.238	39.94
302.452	82.94
302.667	64.51
302.881	44.03
303.095	52.22
303.309	46.08
303.524	29.7
303.738	50.18
303.952	93.18
304.166	54.27
304.381	-9.22
304.595	95.23
304.809	-3.07
305.023	35.84
305.237	13.31
305.452	-19.46
305.666	13.31
305.88	27.65
306.094	17.41
306.308	62.46
306.522	68.61
306.736	72.7
306.95	99.33
307.164	5.12
307.379	115.71
307.593	62.46
307.807	33.79
308.021	39.94
308.235	62.46
308.449	35.84
308.663	115.71
308.877	140.29
309.091	25.6
309.305	70.65
309.519	23.55
309.733	74.75
309.947	-37.89
310.161	109.57
310.374	117.76
310.588	66.56
310.802	95.23
311.016	33.79
311.23	15.36
311.444	25.6
311.658	31.74
311.872	66.56
312.085	-25.6
312.299	56.32
312.513	37.89
312.727	46.08
312.941	58.37
313.154	39.94
313.368	78.85
313.582	105.47
313.796	72.7
314.009	68.61
314.223	91.13
314.437	78.85
314.651	-19.46
314.864	23.55
315.078	56.32
315.292	35.84
315.505	37.89
315.719	113.66
315.933	146.43
316.146	39.94
316.36	-78.85
316.573	25.6
316.787	35.84
317.001	44.03
317.214	21.5
317.428	103.42
317.641	27.65
317.855	-13.31
318.068	17.41
318.282	29.7
318.495	23.55
318.709	-3.07
318.922	-7.17
319.136	70.65
319.349	33.79
319.563	56.32
319.776	29.7
319.99	33.79
320.203	68.61
320.417	70.65
320.63	58.37
320.843	44.03
321.057	103.42
321.27	54.27
321.483	27.65
321.697	166.91
321.91	5.12
322.124	70.65
322.337	74.75
322.55	-15.36
322.763	35.84
322.977	11.26
323.19	46.08
323.403	39.94
323.617	39.94
323.83	93.18
324.043	17.41
324.256	29.7
324.469	-33.79
324.683	76.8
324.896	9.22
325.109	25.6
325.322	29.7
325.535	91.13
325.748	56.32
325.962	39.94
326.175	72.7
326.388	78.85
326.601	27.65
326.814	25.6
327.027	82.94
327.24	78.85
327.453	54.27
327.666	70.65
327.879	66.56
328.092	58.37
328.305	72.7
328.518	1.02
328.731	33.79
328.944	13.31
329.157	27.65
329.37	-56.32
329.583	66.56
329.796	58.37
330.009	-5.12
330.222	27.65
330.435	58.37
330.648	52.22
330.861	76.8
331.073	17.41
331.286	41.98
331.499	-7.17
331.712	7.17
331.925	23.55
332.138	111.61
332.35	146.43
332.563	-17.41
332.776	52.22
332.989	58.37
333.202	35.84
333.414	21.5
333.627	48.13
333.84	66.56
334.053	156.67
334.265	105.47
334.478	44.03
334.691	91.13
334.903	37.89
335.116	50.18
335.329	-39.94
335.541	41.98
335.754	46.08
335.966	58.37
336.179	23.55
336.392	95.23
336.604	25.6
336.817	89.09
337.029	17.41
337.242	70.65
337.454	62.46
337.667	13.31
337.88	142.33
338.092	72.7
338.305	11.26
338.517	60.42
338.729	50.18
338.942	17.41
339.154	62.46
339.367	31.74
339.579	93.18
339.792	17.41
340.004	113.66
340.217	52.22
340.429	72.7
340.641	66.56
340.854	7.17
341.066	74.75
341.278	91.13
341.491	103.42
341.703	48.13
341.915	17.41
342.128	58.37
342.34	95.23
342.552	21.5
342.764	31.74
342.977	35.84
343.189	-5.12
343.401	74.75
343.613	-68.61
343.826	119.81
344.038	58.37
344.25	44.03
344.462	-33.79
344.674	70.65
344.886	74.75
345.099	70.65
345.311	105.47
345.523	41.98
345.735	93.18
345.947	7.17
346.159	70.65
346.371	115.71
346.583	54.27
346.795	154.62
347.007	46.08
347.219	80.89
347.431	31.74
347.643	156.67
347.855	25.6
348.067	134.14
348.279	-19.46
348.491	72.7
348.703	62.46
348.915	76.8
349.127	3.07
349.339	25.6
349.551	132.09
349.763	84.99
349.975	62.46
350.187	52.22
350.399	89.09
350.61	109.57
350.822	76.8
351.034	113.66
351.246	33.79
351.458	23.55
351.669	70.65
351.881	113.66
352.093	115.71
352.305	95.23
352.517	58.37
352.728	128
352.94	41.98
353.152	68.61
353.363	13.31
353.575	39.94
353.787	62.46
353.999	35.84
354.21	17.41
354.422	44.03
354.633	50.18
354.845	7.17
355.057	3.07
355.268	17.41
355.48	87.04
355.692	48.13
355.903	3.07
356.115	80.89
356.326	19.46
356.538	37.89
356.749	68.61
356.961	39.94
357.172	68.61
357.384	25.6
357.595	111.61
357.807	144.38
358.018	35.84
358.23	7.17
358.441	107.52
358.653	84.99
358.864	50.18
359.075	101.37
359.287	105.47
359.498	64.51
359.709	117.76
359.921	25.6
360.132	48.13
360.344	111.61
360.555	41.98
360.766	68.61
360.977	21.5
361.189	113.66
361.4	62.46
361.611	70.65
361.823	39.94
362.034	48.13
362.245	46.08
362.456	48.13
362.667	60.42
362.879	46.08
363.09	58.37
363.301	91.13
363.512	70.65
363.723	35.84
363.935	87.04
364.146	37.89
364.357	101.37
364.568	80.89
364.779	41.98
364.99	7.17
365.201	9.22
365.412	80.89
365.623	-11.26
365.834	117.76
366.045	33.79
366.256	7.17
366.467	87.04
366.678	25.6
366.889	-19.46
367.1	70.65
367.311	70.65
367.522	39.94
367.733	9.22
367.944	82.94
368.155	-1.02
368.366	121.85
368.577	56.32
368.788	76.8
368.999	19.46
369.209	64.51
369.42	80.89
369.631	91.13
369.842	37.89
370.053	91.13
370.264	103.42
370.474	76.8
370.685	23.55
370.896	82.94
371.107	82.94
371.317	64.51
371.528	121.85
371.739	128
371.95	99.33
372.16	82.94
372.371	46.08
372.582	11.26
372.792	107.52
373.003	99.33
373.214	19.46
373.424	13.31
373.635	35.84
373.846	95.23
374.056	7.17
374.267	89.09
374.477	82.94
374.688	68.61
374.898	-25.6
375.109	101.37
375.319	128
375.53	156.67
375.74	128
375.951	64.51
376.161	29.7
376.372	56.32
376.582	15.36
376.793	80.89
377.003	84.99
377.214	62.46
377.424	15.36
377.635	101.37
377.845	99.33
378.055	107.52
378.266	82.94
378.476	70.65
378.686	54.27
378.897	91.13
379.107	111.61
379.317	158.72
379.528	9.22
379.738	74.75
379.948	33.79
380.158	193.53
380.369	62.46
380.579	72.7
380.789	29.7
380.999	115.71
381.21	91.13
381.42	66.56
381.63	78.85
381.84	132.09
382.05	46.08
382.261	107.52
382.471	123.9
382.681	80.89
382.891	128
383.101	56.32
383.311	125.95
383.521	56.32
383.731	80.89
383.941	78.85
384.151	109.57
384.361	76.8
384.571	15.36
384.781	7.17
384.991	13.31
385.201	128
385.411	50.18
385.621	46.08
385.831	97.28
386.041	44.03
386.251	125.95
386.461	78.85
386.671	56.32
386.881	205.82
387.091	19.46
387.301	132.09
387.511	62.46
387.72	58.37
387.93	78.85
388.14	68.61
388.35	56.32
388.56	109.57
388.769	58.37
388.979	97.28
389.189	29.7
389.399	50.18
389.609	64.51
389.818	44.03
390.028	35.84
390.238	82.94
390.447	72.7
390.657	50.18
390.867	70.65
391.076	74.75
391.286	89.09
391.496	70.65
391.705	58.37
391.915	103.42
392.125	175.1
392.334	31.74
392.544	144.38
392.753	62.46
392.963	70.65
393.172	97.28
393.382	39.94
393.591	187.39
393.801	97.28
394.01	78.85
394.22	162.81
394.429	78.85
394.639	46.08
394.848	130.05
395.058	58.37
395.267	99.33
395.477	95.23
395.686	115.71
395.895	193.53
396.105	138.24
396.314	152.57
396.524	78.85
396.733	99.33
396.942	183.29
397.152	87.04
397.361	136.19
397.57	66.56
397.78	130.05
397.989	89.09
398.198	185.34
398.407	99.33
398.617	13.31
398.826	115.71
399.035	103.42
399.244	117.76
399.453	134.14
399.663	125.95
399.872	72.7
400.081	115.71
400.29	160.77
400.499	70.65
400.708	148.48
400.917	46.08
401.127	148.48
401.336	123.9
401.545	103.42
401.754	146.43
401.963	107.52
402.172	107.52
402.381	80.89
402.59	173.05
402.799	187.39
403.008	187.39
403.217	130.05
403.426	197.63
403.635	144.38
403.844	117.76
404.053	171.01
404.262	134.14
404.471	232.44
404.68	238.59
404.888	205.82
405.097	230.4
405.306	177.15
405.515	252.92
405.724	283.64
405.933	193.53
406.142	156.67
406.35	187.39
406.559	252.92
406.768	230.4
406.977	332.79
407.185	242.68
407.394	195.58
407.603	205.82
407.812	351.23
408.02	345.08
408.229	277.5
408.438	242.68
408.646	273.4
408.855	300.03
409.064	353.27
409.272	361.47
409.481	355.32
409.69	308.22
409.898	402.43
410.107	410.62
410.315	496.63
410.524	488.44
410.733	474.1
410.941	398.33
411.15	463.86
411.358	533.5
411.567	427
411.775	390.14
411.984	484.34
412.192	537.59
412.401	508.92
412.609	613.37
412.818	568.31
413.026	584.7
413.234	545.78
413.443	576.5
413.651	691.19
413.86	631.8
414.068	746.48
414.276	752.63
414.485	750.58
414.693	756.72
414.901	848.88
415.11	871.41
415.318	875.51
415.526	805.88
415.734	963.57
415.943	852.98
416.151	971.76
416.359	1004.53
416.567	1045.49
416.776	1121.26
416.984	1180.65
417.192	1188.85
417.4	1186.8
417.608	1129.45
417.817	1188.85
418.025	1242.09
418.233	1465.32
418.441	1379.31
418.649	1424.36
418.857	1518.57
419.065	1641.45
419.273	1539.05
419.481	1631.21
419.689	1680.36
419.897	1768.42
420.105	1819.62
420.313	1852.39
420.521	1938.4
420.729	1960.93
420.937	1989.6
421.145	2132.96
421.353	2116.58
421.561	2440.15
421.769	2280.41
421.977	2415.58
422.185	2425.82
422.393	2579.42
422.601	2882.52
422.809	2694.1
423.017	2767.83
423.224	2841.56
423.432	3044.31
423.64	3052.5
423.848	3191.76
424.056	3124.18
424.263	3367.88
424.471	3378.12
424.679	3490.76
424.887	3677.13
425.094	3771.33
425.302	3793.86
425.51	3986.37
425.718	4160.45
425.925	3974.08
426.133	4266.94
426.341	4522.94
426.548	4656.06
426.756	4754.36
426.964	4565.95
427.171	5094.32
427.379	5217.2
427.586	5305.26
427.794	5381.04
428.001	5567.4
428.209	5917.61
428.417	5690.28
428.624	6319.01
428.832	6249.38
429.039	6273.95
429.247	6194.08
429.454	6818.71
429.662	7261.07
429.869	6785.94
430.076	7148.43
430.284	7154.58
430.491	7312.27
430.699	7852.94
430.906	7654.28
431.114	7857.03
431.321	8119.17
431.528	8532.86
431.736	8596.35
431.943	9327.47
432.15	8862.58
432.358	8897.4
432.565	9618.29
432.772	9372.53
432.979	10150.76
433.187	10179.43
433.394	10199.91
433.601	10765.15
433.808	10793.82
434.016	10765.15
434.223	11232.08
434.43	11850.57
434.637	11688.78
434.844	12450.63
435.052	12866.36
435.259	12553.02
435.466	12667.71
435.673	12643.14
435.88	13513.52
436.087	14054.19
436.294	13935.4
436.501	13656.88
436.708	14238.5
436.915	14609.19
437.122	15313.69
437.329	15172.38
437.537	15325.97
437.743	15747.86
437.95	15844.11
438.157	16677.63
438.364	17210.11
438.571	17228.54
438.778	17169.15
438.985	18985.69
439.192	18148.08
439.399	18428.65
439.606	18215.66
439.813	19301.08
440.02	20112.08
440.227	20167.37
440.433	19849.94
440.64	20703.94
440.847	20404.94
441.054	20937.41
441.261	22168.24
441.467	21992.11
441.674	22438.57
441.881	23110.3
442.088	23009.95
442.294	22954.66
442.501	23909.01
442.708	23878.29
442.914	24879.75
443.121	25864.82
443.328	25125.5
443.534	27497.05
443.741	26221.17
443.948	25999.99
444.154	27953.75
444.361	27288.16
444.568	27652.7
444.774	27894.36
444.981	27923.03
445.187	28842.57
445.394	30014.01
445.6	29665.85
445.807	32326.16
446.013	31310.37
446.22	31613.47
446.426	33051.14
446.633	33124.87
446.839	34126.33
447.046	32492.05
447.252	34470.39
447.459	34691.57
447.665	34589.17
447.871	36157.91
448.078	37372.36
448.284	35430.88
448.491	36573.65
448.697	37784
448.903	38652.34
449.11	38615.47
449.316	38150.59
449.522	38582.71
449.728	39799.2
449.935	40012.19
450.141	39897.5
450.347	40620.44
450.553	39385.51
450.76	40038.81
450.966	41310.6
451.172	40716.69
451.378	41466.25
451.584	40827.28
451.791	41630.08
451.997	41554.31
452.203	42353.02
452.409	42297.72
452.615	41836.93
452.821	40475.03
453.027	39983.52
453.233	41996.67
453.44	40110.49
453.646	40864.14
453.852	40685.97
454.058	41415.05
454.264	40307.1
454.47	40843.66
454.676	39594.4
454.882	40956.3
455.088	37812.67
455.294	38197.69
455.5	38490.55
455.705	38971.82
455.911	37462.47
456.117	36727.25
456.323	36276.69
456.529	34435.57
456.735	35715.55
456.941	35019.24
457.147	34191.86
457.352	33012.23
457.558	32721.42
457.764	32721.42
457.97	32328.21
458.176	31529.5
458.381	31306.27
458.587	30032.44
458.793	29715
458.999	28490.32
459.204	30444.08
459.41	29887.03
459.616	27697.75
459.821	27548.25
460.027	27404.89
460.233	26761.83
460.438	25678.46
460.644	26247.79
460.85	24642.18
461.055	24414.86
461.261	24175.25
461.466	22487.72
461.672	22018.74
461.878	23476.89
462.083	21684.92
462.289	21484.22
462.494	21533.37
462.7	20581.06
462.905	19673.81
463.111	20234.96
463.316	20445.9
463.522	20253.39
463.727	20357.83
463.932	20228.81
464.138	19890.9
464.343	20122.32
464.549	19317.47
464.754	20292.3
464.959	20001.49
465.165	19733.2
465.37	18961.12
465.575	18516.71
465.781	19264.22
465.986	19337.94
466.191	18361.06
466.397	18270.95
466.602	17187.58
466.807	18092.78
467.012	18201.32
467.218	17736.43
467.423	17750.77
467.628	17744.63
467.833	18572
468.038	17947.37
468.244	17498.87
468.449	18295.53
468.654	17451.77
468.859	17357.56
469.064	17271.54
469.269	16483.08
469.474	16751.36
469.679	17007.36
469.885	16468.74
470.09	16755.46
470.295	16556.8
470.5	16165.64
470.705	16229.13
470.91	15835.92
471.115	15868.69
471.32	15856.4
471.525	15995.66
471.73	15409.94
471.935	15422.23
472.139	15129.37
472.344	15000.35
472.549	14900
472.754	14838.56
472.959	14510.88
473.164	14172.97
473.369	14138.15
473.574	14502.69
473.778	14474.02
473.983	14267.17
474.188	14136.1
474.393	13529.91
474.598	13753.13
474.802	13396.79
475.007	13513.52
475.212	13456.18
475.417	12821.31
475.621	12759.87
475.826	12870.46
476.031	12616.51
476.235	12559.17
476.44	12694.33
476.645	12354.37
476.849	12225.35
477.054	12251.97
477.259	12032.84
477.463	12108.62
477.668	11739.98
477.872	11897.67
478.077	11852.62
478.282	11496.27
478.486	11111.25
478.691	11223.89
478.895	11318.1
479.1	11215.7
479.304	11271
479.509	10928.99
479.713	11197.27
479.918	10943.32
480.122	10584.93
480.326	10777.44
480.531	10976.09
480.735	10904.41
480.94	10550.11
481.144	10859.35
481.348	10373.99
481.553	10685.28
481.757	10181.48
481.961	10584.93
482.166	10638.17
482.37	10646.37
482.574	10333.03
482.778	10384.23
482.983	10664.8
483.187	10550.11
483.391	10529.63
483.595	10435.42
483.8	10183.52
484.004	10423.14
484.208	10636.13
484.412	10472.29
484.616	10445.66
484.821	10408.8
485.025	10369.89
485.229	10433.38
485.433	10312.55
485.637	10640.22
485.841	10333.03
486.045	10427.23
486.249	10423.14
486.453	10253.16
486.657	10470.24
486.861	10546.02
487.065	10017.64
487.269	10365.79
487.473	10244.96
487.677	10503.01
487.881	10515.3
488.085	10396.51
488.289	10351.46
488.493	10513.25
488.697	10478.43
488.901	10466.14
489.105	10490.72
489.309	10423.14
489.512	10533.73
489.716	10492.77
489.92	10363.75
490.124	10281.83
490.328	10595.17
490.531	10763.1
490.735	10632.03
490.939	10648.41
491.143	10724.19
491.346	10638.17
491.55	10802.01
491.754	10783.58
491.958	10918.75
492.161	10808.16
492.365	10947.42
492.569	10974.04
492.772	10941.27
492.976	11092.82
493.18	11096.92
493.383	11141.97
493.587	11318.1
493.79	11461.46
493.994	11178.84
494.197	11387.73
494.401	11547.47
494.605	11535.18
494.808	11848.52
495.012	11760.46
495.215	11772.75
495.419	12032.84
495.622	12043.08
495.825	11889.48
496.029	11907.91
496.232	12571.46
496.436	12215.11
496.639	12653.37
496.843	12383.04
497.046	12804.92
497.249	12901.18
497.453	13050.68
497.656	13179.7
497.859	13075.26
498.063	13390.64
498.266	13493.04
498.469	13601.58
498.673	13873.96
498.876	13900.59
499.079	13937.45
499.282	13943.6
499.485	14553.89
499.689	14590.75
499.892	14687.01
500.095	14873.37
500.298	15125.27
500.501	14838.56
500.705	15483.67
500.908	15471.38
501.111	15538.96
501.314	15667.98
501.517	15966.99
501.72	16311.05
501.923	16210.7
502.126	16368.39
502.329	16687.87
502.532	16806.66
502.735	17140.47
502.938	17408.76
503.141	17277.69
503.344	17429.24
503.547	17488.63
503.75	17775.34
503.953	18518.76
504.156	18191.08
504.359	18526.95
504.562	18752.23
504.765	19096.28
504.968	18914.02
505.17	19618.52
505.373	19544.79
505.576	19692.24
505.779	20069.07
505.982	20187.85
506.185	20493
506.387	20329.16
506.59	20617.93
506.793	21220.03
506.996	21021.38
507.198	21598.9
507.401	21484.22
507.604	21856.95
507.807	22332.08
508.009	22575.78
508.212	22561.45
508.415	22586.02
508.617	23075.49
508.82	23364.25
509.022	23528.09
509.225	24001.17
509.428	23726.74
509.63	24193.68
509.833	24248.97
510.035	24824.45
510.238	24773.25
510.44	25111.17
510.643	25350.78
510.845	25789.05
511.048	25743.99
511.25	26233.46
511.453	25999.99
511.655	26933.86
511.858	26958.44
512.06	26991.2
512.262	27394.65
512.465	27597.4
512.667	27816.54
512.87	28201.55
513.072	28164.69
513.274	28691.02
513.477	28942.92
513.679	29327.94
513.881	29350.46
514.084	29946.42
514.286	30005.81
514.488	30136.88
514.69	30673.45
514.893	31158.82
515.095	30997.03
515.297	31558.17
515.499	31599.13
515.701	32029.21
515.904	32180.76
516.106	32426.51
516.308	33016.33
516.51	33309.19
516.712	33266.18
516.914	33769.98
517.116	34410.99
517.318	33976.83
517.52	34388.47
517.722	34804.2
517.925	35424.74
518.127	35549.67
518.329	35731.93
518.531	35795.42
518.733	36319.7
518.935	36829.65
519.136	36540.88
519.338	37300.68
519.54	37384.65
519.742	37669.31
519.944	37771.71
520.146	38564.28
520.348	38777.26
520.55	38724.02
520.752	39229.87
520.954	39838.11
521.155	39549.35
521.357	40124.83
521.559	40733.07
521.761	41400.71
521.963	40667.54
522.164	41234.83
522.366	41478.54
522.568	41773.44
522.77	42115.45
522.971	42664.31
523.173	42260.86
523.375	42705.27
523.576	42748.28
523.778	43096.43
523.98	43698.53
524.181	43833.7
524.383	43714.92
524.584	44390.75
524.786	44384.6
524.988	44253.53
525.189	44779.86
525.391	45031.76
525.592	45207.89
525.794	45521.23
525.995	45627.72
526.197	45959.49
526.398	46010.69
526.6	46352.7
526.801	46821.69
527.003	46637.37
527.204	46481.72
527.406	46917.94
527.607	46967.09
527.808	47182.13
528.01	46909.75
528.211	47280.43
528.412	47802.66
528.614	48083.23
528.815	48105.76
529.016	48566.55
529.218	48132.39
529.419	48075.04
529.62	48351.52
529.822	48638.23
530.023	48369.95
530.224	48515.36
530.425	48879.89
530.626	48539.93
530.828	48425.25
531.029	49670.41
531.23	49213.71
531.431	49801.48
531.632	49344.78
531.833	49703.18
532.035	49084.69
532.236	49506.57
532.437	49793.29
532.638	49146.13
532.839	49928.45
533.04	49940.74
533.241	49412.37
533.442	50407.68
533.643	49971.46
533.844	50104.58
534.045	50030.85
534.246	50133.25
534.447	50022.66
534.648	50012.42
534.849	50133.25
535.05	49758.47
535.251	49946.89
535.451	49953.03
535.652	50309.38
535.853	50096.39
536.054	49985.8
536.255	50346.24
536.456	50059.52
536.657	51063.03
536.857	50321.66
537.058	49678.6
537.259	50270.46
537.46	50110.72
537.66	50229.51
537.861	50487.55
538.062	49809.67
538.263	50415.87
538.463	50237.7
538.664	49785.1
538.865	50254.08
539.065	50620.67
539.266	49539.34
539.466	50172.16
539.667	50217.22
539.868	50628.86
540.068	50243.84
540.269	50157.83
540.469	50589.95
540.67	49510.67
540.87	50428.16
541.071	50049.28
541.271	50456.83
541.472	50170.11
541.672	49735.95
541.873	50350.34
542.073	49285.39
542.274	50303.23
542.474	50094.34
542.675	49641.74
542.875	49916.17
543.075	49996.04
543.276	49588.49
543.476	50428.16
543.676	49768.71
543.877	50034.95
544.077	49936.65
544.277	49694.99
544.478	49932.55
544.678	50575.61
544.878	49916.17
545.078	49826.06
545.279	49621.26
545.479	49678.6
545.679	49885.45
545.879	49678.6
546.079	49879.3
546.28	50002.18
546.48	49717.51
546.68	49555.72
546.88	49879.3
547.08	49817.86
547.28	49531.15
547.48	49084.69
547.68	49621.26
547.88	49805.58
548.081	49791.24
548.281	49475.85
548.481	49703.18
548.681	49654.03
548.881	49473.81
549.081	49621.26
549.28	49301.78
549.48	49781
549.68	49400.08
549.88	49899.78
550.08	49555.72
550.28	49516.81
550.48	49178.9
550.68	49856.78
550.88	49248.53
551.08	49379.6
551.279	49584.4
551.479	49015.06
551.679	49350.93
551.879	49084.69
552.079	49813.77
552.278	49465.61
552.478	49064.21
552.678	48634.14
552.878	49561.87
553.077	49101.07
553.277	48687.39
553.477	49412.37
553.676	48935.19
553.876	49080.6
554.076	49160.47
554.275	48949.53
554.475	48478.49
554.674	49066.26
554.874	48965.91
555.074	48707.86
555.273	49205.52
555.473	48675.1
555.672	48544.03
555.872	48310.56
556.071	48632.09
556.271	48716.06
556.47	48423.2
556.67	48097.57
556.869	48261.41
557.068	48234.78
557.268	48126.24
557.467	48150.82
557.667	48259.36
557.866	48580.89
558.065	47778.09
558.265	47790.37
558.464	47290.67
558.663	47851.81
558.863	47450.41
559.062	48240.93
559.261	47110.45
559.461	48118.05
559.66	46967.09
559.859	47773.99
560.058	46795.06
560.258	47669.54
560.457	46815.54
560.656	47247.66
560.855	46788.92
561.054	47202.61
561.253	46360.89
561.453	46946.61
561.652	46707
561.851	46782.77
562.05	46620.98
562.249	46176.58
562.448	46541.11
562.647	46410.04
562.846	46102.85
563.045	46569.79
563.244	46045.51
563.443	46156.1
563.642	45678.92
563.841	45877.57
564.04	45336.91
564.239	45766.98
564.438	45359.44
564.637	45893.96
564.836	45631.82
565.035	45046.1
565.234	45379.92
565.432	45259.09
565.631	44863.83
565.83	45361.48
566.029	44460.38
566.228	44814.68
566.427	44601.69
566.625	44274.01
566.824	43948.39
567.023	44206.43
567.222	43475.3
567.42	44468.57
567.619	44263.77
567.818	43690.34
568.016	43886.95
568.215	44018.02
568.414	43663.72
568.612	44069.22
568.811	43270.51
569.01	43422.06
569.208	42563.96
569.407	43465.06
569.605	42758.52
569.804	43088.24
570.002	42727.8
570.201	42998.13
570.4	42387.83
570.598	42619.25
570.797	42082.69
570.995	42137.98
571.193	41980.29
571.392	42262.91
571.59	42031.49
571.789	41875.84
571.987	41781.63
572.186	41699.72
572.384	41126.28
572.582	41931.14
572.781	41816.45
572.979	41165.2
573.177	41150.86
573.376	41200.01
573.574	40747.41
573.772	41179.53
573.971	40774.03
574.169	40765.84
574.367	40356.25
574.565	40591.76
574.763	40348.06
574.962	39942.56
575.16	39911.84
575.358	39807.39
575.556	39561.64
575.754	40581.52
575.952	39373.22
576.151	39635.36
576.349	39215.53
576.547	39301.54
576.745	39074.22
576.943	39315.88
577.141	39090.6
577.339	39258.54
577.537	38496.69
577.735	38818.22
577.933	38422.97
578.131	38560.18
578.329	38379.96
578.527	38214.07
578.725	38062.52
578.923	38488.5
579.121	38062.52
579.319	38035.9
579.516	38201.79
579.714	38013.37
579.912	37575.11
580.11	37661.12
580.308	37804.48
580.506	37534.15
580.704	36813.26
580.901	37104.07
581.099	37341.64
581.297	36897.23
581.495	36770.25
581.692	37036.49
581.89	36780.49
582.088	37126.6
582.285	36620.75
582.483	36366.81
582.681	36278.74
582.878	36100.57
583.076	35633.63
583.274	36114.9
583.471	35574.24
583.669	35701.22
583.866	35162.6
584.064	36059.61
584.262	34925.04
584.459	35887.58
584.657	35408.36
584.854	35375.59
585.052	34916.84
585.249	35121.64
585.447	34953.71
585.644	34505.2
585.841	34525.68
586.039	35017.19
586.236	34572.78
586.434	34566.64
586.631	34165.24
586.828	34445.81
587.026	34083.32
587.223	34179.57
587.42	33761.79
587.618	33645.05
587.815	33239.56
588.012	33559.04
588.21	33436.16
588.407	33544.7
588.604	33212.93
588.801	32877.07
588.999	33255.94
589.196	33176.07
589.393	33004.04
589.59	32399.89
589.787	32901.64
589.984	32801.29
590.182	32342.55
590.379	32909.83
590.576	31814.17
590.773	32434.71
590.97	31947.29
591.167	32397.84
591.364	31855.13
591.561	32209.43
591.758	31509.02
591.955	31982.1
592.152	31902.23
592.349	31484.45
592.546	31617.57
592.743	31734.3
592.94	31070.76
593.137	31140.39
593.334	31300.13
593.531	30722.6
593.727	31037.99
593.924	31027.75
594.121	30411.31
594.318	30951.98
594.515	30200.37
594.712	30607.92
594.908	30231.09
595.105	30366.26
595.302	30222.9
595.499	30435.89
595.696	30599.73
595.892	29987.38
596.089	30071.35
596.286	29823.54
596.482	29921.85
596.679	29676.09
596.876	29456.96
597.072	29809.21
597.269	29268.55
597.466	29362.75
597.662	28766.79
597.859	29057.6
598.055	28904.01
598.252	28719.69
598.448	28803.66
598.645	28967.49
598.841	28609.1
599.038	28463.69
599.234	28527.18
599.431	28387.92
599.627	28404.3
599.824	28592.72
600.02	28160.59
600.217	28236.37
600.413	27841.11
600.609	27955.8
600.806	27718.23
601.002	27898.45
601.198	27601.5
601.395	27603.55
601.591	27486.81
601.787	27523.68
601.984	27216.48
602.18	27181.67
602.376	27191.91
602.572	26806.89
602.769	26966.63
602.965	26718.82
603.161	26987.11
603.357	26749.54
603.553	26280.56
603.75	26509.93
603.946	26307.18
604.142	26571.37
604.338	25815.67
604.534	26301.04
604.73	25795.19
604.926	26036.85
605.122	26178.16
605.318	25823.86
605.514	25875.06
605.71	25660.02
605.906	25750.14
606.102	25686.65
606.298	25543.29
606.494	25373.31
606.69	25483.9
606.886	25553.53
607.082	25102.98
607.278	25512.57
607.474	25203.33
607.67	25393.79
607.866	24760.97
608.062	25406.08
608.257	24978.05
608.453	25170.56
608.649	25117.31
608.845	24689.29
609.041	24705.67
609.236	24777.35
609.432	24388.24
609.628	24531.59
609.824	24418.96
610.019	24560.27
610.215	24406.67
610.411	24494.73
610.606	24113.81
610.802	24232.59
610.998	24222.35
611.193	24271.5
611.389	23984.79
611.584	23896.72
611.78	23786.13
611.976	24027.79
612.171	23599.77
612.367	23888.53
612.562	23503.51
612.758	23521.95
612.953	23448.22
613.149	23804.56
613.344	23337.63
613.539	23392.92
613.735	23687.83
613.93	23595.67
614.126	23224.99
614.321	23536.28
614.517	23128.74
614.712	23138.97
614.907	22940.32
615.103	23247.52
615.298	22799.01
615.493	23294.62
615.688	22639.27
615.884	23282.33
616.079	22700.71
616.274	22821.54
616.47	22696.61
616.665	23052.96
616.86	22483.62
617.055	22491.82
617.25	22850.21
617.445	22540.97
617.641	22164.14
617.836	22389.42
618.031	22387.37
618.226	22450.86
618.421	22063.79
618.616	22282.92
618.811	21674.68
619.006	22166.19
619.201	21793.46
619.396	22131.37
619.591	21412.54
619.786	21570.23
619.981	21322.43
620.176	21541.56
620.371	21342.91
620.566	21394.11
620.761	21299.9
620.956	21103.29
621.151	20890.31
621.346	20894.4
621.541	20585.16
621.735	20859.59
621.93	20366.03
622.125	20316.87
622.32	20155.08
622.515	20353.74
622.709	20271.82
622.904	20105.93
623.099	19913.42
623.294	19808.98
623.488	19612.37
623.683	19774.16
623.878	19555.03
624.072	19448.54
624.267	19296.99
624.462	19172.06
624.656	19077.85
624.851	19149.53
625.046	19014.37
625.24	18997.98
625.435	18793.19
625.629	18520.81
625.824	18502.37
626.018	18830.05
626.213	18193.13
626.407	18060.01
626.602	17996.53
626.796	18137.84
626.991	17951.47
627.185	18213.61
627.38	17838.83
627.574	17640.18
627.768	17484.53
627.963	17531.64
628.157	17545.97
628.352	17281.78
628.546	17058.56
628.74	17556.21
628.935	17148.67
629.129	17048.32
629.323	16747.26
629.517	16687.87
629.712	16677.63
629.906	16743.17
630.1	16192.26
630.294	16585.47
630.489	16259.85
630.683	16511.75
630.877	16044.81
631.071	15948.56
631.265	15915.79
631.459	15868.69
631.653	15954.7
631.848	15807.25
632.042	15661.84
632.236	15694.61
632.43	15280.92
632.624	15545.11
632.818	15303.45
633.012	15135.51
633.206	15328.02
633.4	15276.82
633.594	14844.7
633.788	14983.96
633.982	14881.56
634.176	14959.39
634.369	14738.21
634.563	14633.76
634.757	14527.27
634.951	14459.68
635.145	14455.59
635.339	14512.93
635.533	14320.42
635.726	14209.83
635.92	14011.18
636.114	14111.53
636.308	13931.31
636.501	14058.28
636.695	13869.87
636.889	14066.47
637.083	13810.48
637.276	13624.11
637.47	13407.03
637.664	13380.4
637.857	13364.02
638.051	13329.2
638.244	13151.03
638.438	13189.94
638.632	12895.04
638.825	12892.99
639.019	12804.92
639.212	12899.13
639.406	12888.89
639.599	12524.35
639.793	12518.21
639.986	12643.14
640.18	12632.9
640.373	12524.35
640.567	12413.76
640.76	12292.93
640.954	12358.47
641.147	12239.69
641.34	12067.66
641.534	12276.55
641.727	12178.25
641.92	12125
642.114	11893.58
642.307	11813.71
642.5	11486.03
642.694	11600.72
642.887	11469.65
643.08	11553.62
643.273	11291.48
643.467	11483.98
643.66	11391.83
643.853	11285.33
644.046	11232.08
644.239	11197.27
644.432	10982.23
644.626	10926.94
644.819	10883.93
645.012	10916.7
645.205	10730.33
645.398	10937.18
645.591	10605.41
645.784	10730.33
645.977	10488.67
646.17	10619.74
646.363	10414.95
646.556	10666.85
646.749	10652.51
646.942	10322.79
647.135	10322.79
647.328	10259.3
647.521	10322.79
647.714	10183.52
647.907	10175.33
648.099	10128.23
648.292	9937.77
648.485	9849.71
648.678	9507.69
648.871	9595.76
649.064	9646.96
649.256	9780.07
649.449	9616.24
649.642	9528.17
649.835	9519.98
650.027	9536.37
650.22	9403.25
650.413	9546.61
650.605	9450.35
650.798	9335.67
650.991	8989.56
651.183	9466.74
651.376	9094.01
651.568	9270.13
651.761	8917.88
651.954	9110.39
652.146	8876.92
652.339	8913.78
652.531	8932.22
652.724	8741.75
652.916	8768.38
653.109	8803.19
653.301	8471.42
653.494	8692.6
653.686	8510.33
653.879	8739.71
654.071	8506.24
654.263	8592.25
654.456	8622.97
654.648	8477.57
654.84	8256.39
655.033	8340.35
655.225	8266.63
655.417	8248.19
655.61	8285.06
655.802	8061.83
655.994	8194.95
656.186	8088.45
656.379	7945.09
656.571	7914.38
656.763	7830.41
656.955	7863.18
657.148	7736.2
657.34	8014.73
657.532	7547.79
657.724	7525.26
657.916	7828.36
658.108	7611.28
658.3	7441.29
658.492	7426.96
658.684	7560.08
658.876	7437.2
659.068	7484.3
659.26	7318.42
659.452	7273.36
659.644	7404.43
659.836	7271.31
660.028	7187.35
660.22	7050.13
660.412	7064.47
660.604	7095.19
660.796	7062.42
660.988	7164.82
661.18	6890.39
661.372	6734.75
661.563	7029.65
661.755	6853.53
661.947	6878.1
662.139	7025.56
662.331	6802.33
662.522	6728.6
662.714	6726.55
662.906	6787.99
663.097	6618.01
663.289	6523.8
663.481	6699.93
663.673	6517.66
663.864	6570.91
664.056	6405.02
664.247	6640.54
664.439	6460.32
664.631	6405.02
664.822	6425.5
665.014	6290.34
665.205	6433.69
665.397	6316.96
665.588	6290.34
665.78	6314.91
665.971	6194.08
666.163	6146.98
666.354	6200.23
666.546	6292.38
666.737	6032.29
666.929	6054.82
667.12	6079.4
667.311	6011.81
667.503	5933.99
667.694	5876.65
667.885	5938.09
668.077	5936.04
668.268	5897.13
668.459	5921.7
668.651	5811.11
668.842	5741.48
669.033	5831.59
669.224	5768.1
669.416	5907.37
669.607	5706.66
669.798	5731.24
669.989	5800.87
670.18	5643.18
670.371	5645.23
670.563	5510.06
670.754	5600.17
670.945	5397.42
671.136	5571.5
671.327	5585.83
671.518	5602.22
671.709	5399.47
671.9	5600.17
672.091	5325.74
672.282	5415.85
672.473	5501.87
672.664	5456.81
672.855	5358.51
673.046	5321.65
673.237	5393.33
673.428	5335.98
673.619	5389.23
673.809	5268.4
674	5331.89
674.191	5252.02
674.382	5213.1
674.573	5329.84
674.764	5096.37
674.954	5268.4
675.145	5096.37
675.336	5170.1
675.527	5059.51
675.717	5163.95
675.908	5168.05
676.099	5184.43
676.289	5182.38
676.48	5137.33
676.671	5034.93
676.861	5139.38
677.052	5020.6
677.243	5102.51
677.433	4953.01
677.624	5209.01
677.814	5133.23
678.005	5170.1
678.195	5006.26
678.386	4971.44
678.576	4971.44
678.767	4981.68
678.957	4944.82
679.148	4883.38
679.338	4957.11
679.529	4936.63
679.719	4912.05
679.909	4856.76
680.1	4963.25
680.29	5047.22
680.481	4871.09
680.671	5075.89
680.861	4932.53
681.052	4955.06
681.242	4928.44
681.432	4889.53
681.622	4942.77
681.813	4842.42
682.003	4746.17
682.193	4742.07
682.383	4701.11
682.573	4711.35
682.764	4740.02
682.954	4776.89
683.144	4854.71
683.334	4938.68
683.524	4840.37
683.714	4797.37
683.904	4805.56
684.094	4793.27
684.284	4760.5
684.474	4676.54
684.664	4867
684.854	4717.5
685.044	4787.13
685.234	4539.32
685.424	4660.15
685.614	4531.13
685.804	4750.26
685.994	4701.11
686.184	4578.23
686.374	4600.76
686.564	4492.22
686.753	4674.49
686.943	4432.83
687.133	4486.08
687.323	4453.31
687.513	4500.41
687.702	4424.64
687.892	4500.41
688.082	4410.3
688.272	4537.27
688.461	4567.99
688.651	4453.31
688.841	4438.97
689.03	4502.46
689.22	4289.47
689.41	4383.68
689.599	4361.15
689.789	4352.96
689.979	4307.9
690.168	4182.98
690.358	4142.02
690.547	4217.79
690.737	4111.3
690.926	4340.67
691.116	4047.81
691.305	4285.37
691.495	4053.95
691.684	4051.91
691.874	4176.83
692.063	3920.84
692.252	4008.9
692.442	4232.13
692.631	4088.77
692.82	4060.1
693.01	4051.91
693.199	3955.65
693.388	3857.35
693.578	3929.03
693.767	3996.61
693.956	3826.63
694.146	3972.04
694.335	4041.67
694.524	4017.09
694.713	3765.19
694.902	3929.03
695.092	3855.3
695.281	3730.38
695.47	3986.37
695.659	3861.45
695.848	3791.81
696.037	3892.16
696.226	3883.97
696.415	3773.38
696.604	3875.78
696.793	3826.63
696.982	3789.77
697.171	3763.14
697.36	3740.61
697.549	3703.75
697.738	3632.07
697.927	3666.89
698.116	3834.82
698.305	3654.6
698.494	3740.61
698.683	3584.97
698.872	3832.77
699.061	3705.8
699.25	3660.74
699.438	3789.77
699.627	3789.77
699.816	3855.3
700.005	3675.08
700.193	3668.94
700.382	3640.26
700.571	3646.41
700.76	3584.97
700.948	3668.94
701.137	3697.61
701.326	3640.26
701.514	3589.07
701.703	3732.42
701.892	3503.05
702.08	3718.09
702.269	3687.37
702.457	3625.93
702.646	3812.29
702.834	3683.27
703.023	3677.13
703.212	3627.98
703.4	3572.68
703.589	3613.64
703.777	3636.17
703.965	3634.12
704.154	3673.03
704.342	3689.42
704.531	3625.93
704.719	3670.98
704.907	3562.44
705.096	3548.11
705.284	3603.4
705.472	3544.01
705.661	3578.83
705.849	3621.83
706.037	3597.26
706.226	3552.2
706.414	3539.91
706.602	3527.63
706.79	3572.68
706.979	3634.12
707.167	3527.63
707.355	3527.63
707.543	3507.15
707.731	3652.55
707.919	3744.71
708.107	3494.86
708.296	3488.71
708.484	3580.87
708.672	3619.78
708.86	3556.3
709.048	3601.35
709.236	3371.98
709.424	3484.62
709.612	3486.67
709.8	3580.87
709.988	3568.59
710.176	3621.83
710.364	3576.78
710.551	3560.39
710.739	3527.63
710.927	3511.24
711.115	3601.35
711.303	3670.98
711.491	3527.63
711.679	3550.15
711.866	3439.56
712.054	3611.59
712.242	3617.74
712.43	3552.2
712.617	3494.86
712.805	3529.67
712.993	3525.58
713.181	3439.56
713.368	3609.54
713.556	3652.55
713.744	3417.04
713.931	3632.07
714.119	3449.8
714.306	3617.74
714.494	3591.11
714.682	3423.18
714.869	3447.76
715.057	3560.39
715.244	3511.24
715.432	3621.83
715.619	3533.77
715.807	3597.26
715.994	3623.88
716.182	3605.45
716.369	3535.82
716.556	3603.4
716.744	3390.41
716.931	3554.25
717.119	3482.57
717.306	3449.8
717.493	3591.11
717.681	3605.45
717.868	3640.26
718.055	3554.25
718.242	3527.63
718.43	3441.61
718.617	3552.2
718.804	3480.52
718.991	3580.87
719.179	3652.55
719.366	3345.36
719.553	3496.91
719.74	3519.43
719.927	3458
720.114	3431.37
720.301	3441.61
720.488	3443.66
720.676	3492.81
720.863	3468.24
721.05	3546.06
721.237	3615.69
721.424	3494.86
721.611	3615.69
721.798	3453.9
721.985	3511.24
722.172	3658.7
722.358	3367.88
722.545	3410.89
722.732	3480.52
722.919	3531.72
723.106	3406.8
723.293	3490.76
723.48	3484.62
723.667	3486.67
723.853	3400.65
724.04	3484.62
724.227	3337.17
724.414	3601.35
724.6	3423.18
724.787	3412.94
724.974	3394.51
725.161	3484.62
725.347	3285.97
725.534	3584.97
725.72	3349.45
725.907	3339.21
726.094	3361.74
726.28	3263.44
726.467	3382.22
726.653	3406.8
726.84	3406.8
727.027	3417.04
727.213	3361.74
727.4	3257.29
727.586	3408.84
727.773	3394.51
727.959	3363.79
728.145	3412.94
728.332	3279.82
728.518	3439.56
728.705	3357.64
728.891	3396.56
729.077	3306.45
729.264	3408.84
729.45	3392.46
729.636	3371.98
729.823	3335.12
730.009	3343.31
730.195	3322.83
730.382	3445.71
730.568	3267.53
730.754	3320.78
730.94	3333.07
731.126	3326.93
731.313	3273.68
731.499	3204.05
731.685	3318.73
731.871	3419.08
732.057	3214.29
732.243	3267.53
732.429	3245.01
732.615	3208.14
732.801	3269.58
732.987	3324.88
733.173	3240.91
733.359	3212.24
733.545	3109.84
733.731	3208.14
733.917	3257.29
734.103	3212.24
734.289	3269.58
734.475	3226.57
734.661	3138.51
734.847	3283.92
735.033	3142.61
735.219	3169.23
735.404	3279.82
735.59	3208.14
735.776	3228.62
735.962	3312.59
736.148	3300.3
736.333	3204.05
736.519	2986.96
736.705	3296.21
736.89	3163.09
737.076	3236.81
737.262	3183.57
737.447	3226.57
737.633	3165.14
737.819	3087.31
738.004	3089.36
738.19	3142.61
738.375	3122.13
738.561	3054.55
738.747	3103.7
738.932	2997.2
739.118	3167.18
739.303	3220.43
739.489	3019.73
739.674	3101.65
739.859	3005.39
740.045	3103.7
740.23	3064.79
740.416	2933.72
740.601	2993.11
740.786	3005.39
740.972	2984.91
741.157	2876.37
741.342	2849.75
741.528	3021.78
741.713	2933.72
741.898	2972.63
742.084	2974.67
742.269	2982.87
742.454	2941.91
742.639	2778.07
742.824	2757.59
743.01	2812.89
743.195	2896.85
743.38	2837.46
743.565	2874.32
743.75	2833.36
743.935	2765.78
744.12	2765.78
744.305	2771.93
744.49	2757.59
744.675	2618.33
744.86	2737.11
745.045	2667.48
745.23	2751.45
745.415	2675.67
745.6	2665.43
745.785	2626.52
745.97	2683.86
746.155	2610.14
746.34	2667.48
746.525	2759.64
746.71	2548.7
746.895	2544.6
747.079	2589.66
747.264	2411.48
747.449	2464.73
747.634	2442.2
747.819	2552.79
748.003	2440.15
748.188	2452.44
748.373	2382.81
748.557	2468.83
748.742	2391
748.927	2290.65
749.111	2448.35
749.296	2448.35
749.481	2499.55
749.665	2425.82
749.85	2284.51
750.034	2376.67
750.219	2321.37
750.404	2221.02
750.588	2259.93
750.773	2212.83
750.957	2137.06
751.141	2175.97
751.326	2249.69
751.51	2149.34
751.695	2063.33
751.879	2055.14
752.064	2130.91
752.248	2085.86
752.432	2067.42
752.617	2079.71
752.801	2075.62
752.985	2106.34
753.17	2018.27
753.354	1958.88
753.538	1981.41
753.722	1954.79
753.907	1876.96
754.091	1995.75
754.275	1958.88
754.459	1936.35
754.643	1934.31
754.828	1866.72
755.012	1797.09
755.196	1807.33
755.38	1831.91
755.564	1897.44
755.748	1870.82
755.932	1856.48
756.116	1782.76
756.3	1782.76
756.484	1827.81
756.668	1842.15
756.852	1663.97
757.036	1766.37
757.22	1731.56
757.404	1739.75
757.588	1674.21
757.772	1713.13
757.956	1819.62
758.14	1704.93
758.323	1575.91
758.507	1686.5
758.691	1569.77
758.875	1512.42
759.059	1639.4
759.242	1502.19
759.426	1528.81
759.61	1530.86
759.794	1539.05
759.977	1709.03
760.161	1532.9
760.345	1635.3
760.528	1594.34
760.712	1582.06
760.895	1539.05
761.079	1506.28
761.263	1555.43
761.446	1403.88
761.63	1444.84
761.813	1483.75
761.997	1459.18
762.18	1422.31
762.364	1410.03
762.547	1416.17
762.731	1444.84
762.914	1446.89
763.098	1397.74
763.281	1399.79
763.464	1436.65
763.648	1344.49
763.831	1387.5
764.015	1334.25
764.198	1416.17
764.381	1383.4
764.564	1332.2
764.748	1344.49
764.931	1389.55
765.114	1270.76
765.297	1295.34
765.481	1424.36
765.664	1309.68
765.847	1283.05
766.03	1332.2
766.213	1258.48
766.397	1217.52
766.58	1221.61
766.763	1203.18
766.946	1227.76
767.129	1207.28
767.312	1328.11
767.495	1276.91
767.678	1244.14
767.861	1287.15
768.044	1278.96
768.227	1215.47
768.41	1221.61
768.593	1201.13
768.776	1143.79
768.959	1213.42
769.142	1229.81
769.324	1291.24
769.507	1123.31
769.69	1149.93
769.873	1135.6
770.056	1172.46
770.239	1168.37
770.421	1235.95
770.604	1184.75
770.787	1096.69
770.97	1045.49
771.152	1068.02
771.335	1090.54
771.518	1045.49
771.7	1057.78
771.883	1233.9
772.066	1100.78
772.248	1176.56
772.431	1043.44
772.613	1027.06
772.796	1047.54
772.978	1102.83
773.161	1025.01
773.343	1006.58
773.526	1012.72
773.708	979.95
773.891	1053.68
774.073	1100.78
774.256	1006.58
774.438	986.1
774.621	926.71
774.803	1061.87
774.985	914.42
775.168	1098.74
775.35	941.04
775.532	984.05
775.715	910.32
775.897	955.38
776.079	934.9
776.261	898.03
776.444	850.93
776.626	900.08
776.808	885.75
776.99	895.99
777.173	926.71
777.355	914.42
777.537	855.03
777.719	924.66
777.901	877.55
778.083	791.54
778.265	803.83
778.447	826.36
778.629	779.25
778.811	795.64
778.993	834.55
779.175	840.69
779.357	832.5
779.539	785.4
779.721	785.4
779.903	871.41
780.085	715.77
780.267	789.49
780.449	771.06
780.631	838.64
780.812	803.83
780.994	744.44
781.176	713.72
781.358	789.49
781.54	689.14
781.721	769.01
781.903	732.15
782.085	738.29
782.267	627.7
782.448	654.33
782.63	562.17
782.812	709.62
782.993	781.3
783.175	693.24
783.357	627.7
783.538	609.27
783.72	619.51
783.901	574.46
784.083	637.94
784.264	709.62
784.446	629.75
784.627	644.09
784.809	582.65
784.99	656.37
785.172	656.37
785.353	553.98
785.535	558.07
785.716	533.5
785.897	603.13
786.079	576.5
786.26	617.46
786.441	586.74
786.623	478.2
786.804	578.55
786.985	556.02
787.167	596.98
787.348	531.45
787.529	592.89
787.71	537.59
787.891	580.6
788.073	529.4
788.254	496.63
788.435	580.6
788.616	576.5
788.797	494.58
788.978	521.21
789.159	443.39
789.34	510.97
789.522	539.64
789.703	535.54
789.884	365.56
790.065	470.01
790.246	615.41
790.427	482.3
790.607	576.5
790.788	435.19
790.969	472.06
791.15	508.92
791.331	371.71
791.512	379.9
791.693	494.58
791.874	459.77
792.054	533.5
792.235	402.43
792.416	418.81
792.597	439.29
792.778	414.71
792.958	461.82
793.139	435.19
793.32	402.43
793.5	345.08
793.681	453.63
793.862	431.1
794.042	394.23
794.223	408.57
794.404	447.48
794.584	330.75
794.765	353.27
794.945	386.04
795.126	359.42
795.306	392.19
795.487	455.67
795.667	322.56
795.848	394.23
796.028	394.23
796.209	406.52
796.389	410.62
796.57	402.43
796.75	334.84
796.93	420.86
797.111	302.08
797.291	232.44
797.471	383.99
797.652	365.56
797.832	295.93
798.012	400.38
798.192	349.18
798.373	410.62
798.553	326.65
798.733	269.31
798.913	304.12
799.093	263.16
799.274	297.98
799.454	351.23
799.634	386.04
799.814	338.94
799.994	316.41
800.174	330.75
800.354	259.07
800.534	312.32
800.714	390.14
800.894	300.03
801.074	269.31
801.254	361.47
801.434	291.84
801.614	312.32
801.794	267.26
801.974	777.2
802.154	224.25
802.334	316.41
802.514	193.53
802.693	279.55
802.873	220.16
803.053	324.6
803.233	285.69
803.413	318.46
803.592	232.44
803.772	302.08
803.952	357.37
804.131	187.39
804.311	252.92
804.491	316.41
804.67	254.97
804.85	306.17
805.03	302.08
805.209	318.46
805.389	261.12
805.568	261.12
805.748	271.36
805.928	214.01
806.107	275.45
806.287	269.31
806.466	295.93
806.646	234.49
806.825	250.88
807.004	238.59
807.184	302.08
807.363	234.49
807.543	302.08
807.722	259.07
807.901	330.75
808.081	254.97
808.26	148.48
808.439	187.39
808.619	271.36
808.798	173.05
808.977	226.3
809.156	224.25
809.336	199.68
809.515	300.03
809.694	285.69
809.873	275.45
810.052	205.82
810.231	269.31
810.411	263.16
810.59	234.49
810.769	230.4
810.948	234.49
811.127	197.63
811.306	189.44
811.485	281.6
811.664	302.08
811.843	173.05
812.022	207.87
812.201	248.83
812.38	226.3
812.559	148.48
812.737	154.62
812.916	152.57
813.095	209.92
813.274	205.82
813.453	181.25
813.632	166.91
813.811	246.78
813.989	162.81
814.168	158.72
814.347	195.58
814.526	211.96
814.704	242.68
814.883	332.79
815.062	205.82
815.24	181.25
815.419	82.94
815.598	244.73
815.776	74.75
815.955	242.68
816.133	121.85
816.312	150.53
816.49	152.57
816.669	185.34
816.847	205.82
817.026	189.44
817.204	154.62
817.383	193.53
817.561	187.39
817.74	254.97
817.918	203.77
818.097	207.87
818.275	136.19
818.453	254.97
818.632	222.2
818.81	154.62
818.988	162.81
819.167	107.52
819.345	158.72
819.523	154.62
819.701	228.35
819.879	193.53
820.058	136.19
820.236	121.85
820.414	111.61
820.592	115.71
820.77	154.62
820.948	103.42
821.127	111.61
821.305	154.62
821.483	148.48
821.661	158.72
821.839	209.92
822.017	146.43
822.195	115.71
822.373	140.29
822.551	156.67
822.729	152.57
822.907	130.05
823.085	226.3
823.262	205.82
823.44	136.19
823.618	74.75
823.796	267.26
823.974	171.01
824.152	101.37
824.329	97.28
824.507	140.29
824.685	150.53
824.863	146.43
825.04	93.18
825.218	99.33
825.396	156.67
825.574	99.33
825.751	91.13
825.929	205.82
826.107	101.37
826.284	103.42
826.462	138.24
826.639	205.82
826.817	93.18
826.994	144.38
827.172	144.38
827.349	189.44
827.527	193.53
827.704	177.15
827.882	125.95
828.059	74.75
828.237	46.08
828.414	111.61
828.591	107.52
828.769	162.81
828.946	48.13
829.124	177.15
829.301	50.18
829.478	62.46
829.655	164.86
829.833	105.47
830.01	101.37
830.187	154.62
830.364	58.37
830.542	158.72
830.719	148.48
830.896	132.09
831.073	103.42
831.25	103.42
831.427	166.91
831.604	91.13
831.782	111.61
831.959	138.24
832.136	128
832.313	121.85
832.49	58.37
832.667	84.99
832.844	121.85
833.021	117.76
833.198	72.7
833.374	46.08
833.551	91.13
833.728	138.24
833.905	87.04
834.082	74.75
834.259	89.09
834.436	136.19
834.612	46.08
834.789	171.01
834.966	140.29
835.143	115.71
835.319	56.32
835.496	140.29
835.673	101.37
835.85	132.09
836.026	97.28
836.203	27.65
836.38	109.57
836.556	70.65
836.733	58.37
836.909	130.05
837.086	48.13
837.262	41.98
837.439	99.33
837.616	82.94
837.792	105.47
837.968	111.61
838.145	66.56
838.321	130.05
838.498	58.37
838.674	76.8
838.851	95.23
839.027	80.89
839.203	154.62
839.38	31.74
839.556	-3.07
839.732	138.24
839.909	103.42
840.085	97.28
840.261	115.71
840.437	160.77
840.614	95.23
840.79	103.42
840.966	48.13
841.142	50.18
841.318	87.04
841.494	87.04
841.671	15.36
841.847	87.04
842.023	37.89
842.199	56.32
842.375	111.61
842.551	62.46
842.727	-3.07
842.903	105.47
843.079	56.32
843.255	72.7
843.431	72.7
843.607	121.85
843.783	37.89
843.959	41.98
844.134	58.37
844.31	37.89
844.486	31.74
844.662	3.07
844.838	44.03
845.013	105.47
845.189	48.13
845.365	99.33
845.541	123.9
845.716	64.51
845.892	31.74
846.068	66.56
846.244	41.98
846.419	68.61
846.595	7.17
846.77	54.27
846.946	64.51
847.122	54.27
847.297	125.95
847.473	121.85
847.648	70.65
847.824	54.27
847.999	31.74
848.175	66.56
848.35	27.65
848.526	101.37
848.701	21.5
848.876	95.23
849.052	48.13
849.227	89.09
849.403	-1.02
849.578	9.22
849.753	56.32
849.929	123.9
850.104	-60.42
850.279	52.22
850.454	52.22
850.63	23.55
850.805	105.47
850.98	46.08
851.155	41.98
851.33	15.36
851.505	29.7
851.681	91.13
851.856	78.85
852.031	15.36
852.206	13.31
852.381	46.08
852.556	-23.55
852.731	62.46
852.906	62.46
853.081	121.85
853.256	142.33
853.431	101.37
853.606	54.27
853.781	-15.36
853.956	-64.51
854.131	50.18
854.305	66.56
854.48	15.36
854.655	1.02
854.83	23.55
855.005	5.12
855.18	46.08
855.354	95.23
855.529	-19.46
855.704	111.61
855.879	25.6
856.053	66.56
856.228	101.37
856.403	50.18
856.577	52.22
856.752	33.79
856.926	64.51
857.101	5.12
857.276	1.02
857.45	111.61
857.625	123.9
857.799	-15.36
857.974	62.46
858.148	23.55
858.323	33.79
858.497	15.36
858.672	66.56
858.846	52.22
859.02	91.13
859.195	21.5
859.369	-1.02
859.543	87.04
859.718	62.46
859.892	5.12
860.066	128
860.241	33.79
860.415	54.27
860.589	89.09
860.763	37.89
860.938	95.23
861.112	29.7
861.286	3.07
861.46	27.65
861.634	1.02
861.808	-3.07
861.982	3.07
862.157	48.13
862.331	13.31
862.505	-56.32
862.679	33.79
862.853	39.94
863.027	78.85
863.201	72.7
863.375	25.6
863.549	50.18
863.722	-17.41
863.896	74.75
864.07	-39.94
864.244	84.99
864.418	9.22
864.592	21.5
864.766	19.46
864.939	66.56
865.113	-39.94
865.287	25.6
865.461	9.22
865.634	84.99
865.808	-5.12
865.982	35.84
866.156	25.6
866.329	19.46
866.503	44.03
866.676	70.65
866.85	54.27
867.024	52.22
867.197	41.98
867.371	46.08
867.544	-29.7
867.718	-25.6
867.891	7.17
868.065	33.79
868.238	74.75
868.412	125.95
868.585	-7.17
868.759	-21.5
868.932	-29.7
869.105	-52.22
869.279	-15.36
869.452	-15.36
869.625	23.55
869.799	15.36
869.972	33.79
870.145	21.5
870.319	1.02
870.492	-41.98
870.665	21.5
870.838	17.41
871.011	-37.89
871.185	33.79
871.358	41.98
871.531	-15.36
871.704	-17.41
871.877	25.6
872.05	-25.6
872.223	-33.79
872.396	-29.7
872.569	68.61
872.742	48.13
872.915	21.5
873.088	-29.7
873.261	-33.79
873.434	9.22
873.607	-19.46
873.78	19.46
873.953	39.94
874.126	-9.22
874.299	74.75
874.471	25.6
874.644	13.31
874.817	29.7
874.99	7.17
875.163	23.55
875.335	31.74
875.508	27.65
875.681	7.17
875.853	-35.84
876.026	5.12
876.199	74.75
876.371	60.42
876.544	-9.22
876.717	-27.65
876.889	19.46
877.062	25.6
877.234	-19.46
877.407	37.89
877.579	-21.5
877.752	5.12
877.924	-33.79
878.097	1.02
878.269	5.12
878.442	-9.22
878.614	64.51
878.786	17.41
878.959	-31.74
879.131	111.61
879.303	-68.61
879.476	72.7
879.648	1.02
879.82	44.03
879.993	11.26
880.165	46.08
880.337	1.02
880.509	27.65
880.681	-3.07
880.854	33.79
881.026	39.94
881.198	52.22
881.37	82.94
881.542	50.18
881.714	15.36
881.886	15.36
882.058	23.55
882.23	5.12
882.402	-68.61
882.574	35.84
882.746	29.7
882.918	25.6
883.09	7.17
883.262	-1.02
883.434	41.98
883.606	1.02
883.778	21.5
883.95	46.08
884.122	-48.13
884.293	140.29
884.465	-19.46
884.637	-3.07
884.809	-50.18
884.98	-15.36
885.152	62.46
885.324	44.03
885.496	-11.26
885.667	19.46
885.839	-15.36
886.011	56.32
886.182	15.36
886.354	7.17
886.525	11.26
886.697	17.41
886.869	-11.26
887.04	-19.46
887.212	5.12
887.383	58.37
887.555	66.56
887.726	-35.84
887.897	1.02
888.069	46.08
888.24	-7.17
888.412	17.41
888.583	5.12
888.754	1.02
888.926	17.41
889.097	-13.31
889.268	1.02
889.44	5.12
889.611	-44.03
889.782	-66.56
889.953	-13.31
890.125	33.79
890.296	29.7
890.467	19.46
890.638	41.98
890.809	-19.46
890.98	9.22
891.151	27.65
891.323	-31.74
891.494	105.47
891.665	54.27
891.836	33.79
892.007	11.26
892.178	-9.22
892.349	-9.22
892.52	-11.26
892.691	62.46
892.862	21.5
893.032	23.55
893.203	17.41
893.374	1.02
893.545	5.12
893.716	1.02
893.887	99.33
894.057	11.26
894.228	29.7
894.399	-76.8
894.57	37.89
894.74	-41.98
894.911	27.65
895.082	-3.07
895.253	5.12
895.423	13.31
895.594	-37.89
895.764	54.27
895.935	1.02
896.106	33.79
896.276	-31.74
896.447	1.02
896.617	5.12
896.788	39.94
896.958	44.03
897.129	41.98
897.299	25.6
897.47	50.18
897.64	80.89
897.81	27.65
897.981	29.7
898.151	-23.55
898.322	-21.5
898.492	-5.12
898.662	29.7
898.832	-31.74
899.003	56.32
899.173	76.8
899.343	-21.5
899.513	13.31
