Data from USB4F104151__177__10-27-49-367.txt Node

Date: Wed Mar 12 10:27:49 EDT 2025
User: louis
Spectrometer: USB4F10415
Trigger mode: 4
Integration Time (sec): 3.000000E-2
Scans to average: 1
Electric dark correction enabled: true
Nonlinearity correction enabled: false
Boxcar width: 0
XAxis mode: Wavelengths
Number of Pixels in Spectrum: 3648
>>>>>Begin Spectral Data<<<<<
178.204	-87.72
178.424	-87.72
178.644	-87.72
178.864	-89.77
179.084	-73.39
179.304	2.39
179.524	-40.62
179.744	-34.47
179.964	39.25
180.184	-34.47
180.404	-16.04
180.624	4.44
180.844	26.96
181.064	-36.52
181.283	33.11
181.503	0.34
181.723	55.64
181.943	-13.99
182.163	59.73
182.383	0.34
182.602	53.59
182.822	80.21
183.042	41.3
183.262	39.25
183.482	24.92
183.701	80.21
183.921	35.16
184.141	-1.71
184.361	125.27
184.58	8.53
184.8	121.17
185.02	51.54
185.239	84.31
185.459	108.88
185.679	2.39
185.898	-40.62
186.118	110.93
186.338	51.54
186.557	45.4
186.777	55.64
186.997	29.01
187.216	-5.8
187.436	82.26
187.655	49.49
187.875	61.78
188.095	55.64
188.314	22.87
188.534	29.01
188.753	55.64
188.973	33.11
189.192	74.07
189.412	90.45
189.631	65.88
189.851	35.16
190.07	29.01
190.29	-1.71
190.509	51.54
190.729	0.34
190.948	153.94
191.168	119.12
191.387	82.26
191.607	10.58
191.826	65.88
192.045	6.49
192.265	76.12
192.484	31.06
192.704	80.21
192.923	0.34
193.142	90.45
193.362	104.79
193.581	78.16
193.8	35.16
194.02	37.2
194.239	-38.57
194.458	67.92
194.678	8.53
194.897	0.34
195.116	37.2
195.335	-38.57
195.555	76.12
195.774	69.97
195.993	51.54
196.212	12.63
196.432	45.4
196.651	53.59
196.87	82.26
197.089	106.84
197.308	8.53
197.528	100.69
197.747	18.77
197.966	0.34
198.185	51.54
198.404	53.59
198.623	-87.72
198.842	76.12
199.062	47.44
199.281	72.02
199.5	10.58
199.719	55.64
199.938	145.75
200.157	57.68
200.376	80.21
200.595	35.16
200.814	22.87
201.033	143.7
201.252	-5.8
201.471	41.3
201.69	55.64
201.909	35.16
202.128	41.3
202.347	35.16
202.566	65.88
202.785	-7.85
203.004	20.82
203.223	51.54
203.442	43.35
203.661	-79.53
203.879	-9.9
204.098	84.31
204.317	39.25
204.536	33.11
204.755	72.02
204.974	51.54
205.193	-7.85
205.411	61.78
205.63	67.92
205.849	18.77
206.068	117.08
206.287	51.54
206.505	47.44
206.724	-18.09
206.943	55.64
207.162	-5.8
207.381	37.2
207.599	-1.71
207.818	39.25
208.037	31.06
208.255	59.73
208.474	53.59
208.693	33.11
208.911	2.39
209.13	76.12
209.349	67.92
209.567	29.01
209.786	14.68
210.005	-81.58
210.223	4.44
210.442	-13.99
210.661	57.68
210.879	55.64
211.098	43.35
211.316	92.5
211.535	35.16
211.753	74.07
211.972	24.92
212.191	47.44
212.409	24.92
212.628	86.36
212.846	88.4
213.065	51.54
213.283	78.16
213.502	33.11
213.72	69.97
213.938	35.16
214.157	86.36
214.375	51.54
214.594	47.44
214.812	2.39
215.031	45.4
215.249	10.58
215.467	94.55
215.686	59.73
215.904	55.64
216.122	51.54
216.341	72.02
216.559	2.39
216.778	57.68
216.996	67.92
217.214	39.25
217.432	49.49
217.651	57.68
217.869	12.63
218.087	78.16
218.306	98.64
218.524	86.36
218.742	-34.47
218.96	-1.71
219.179	-5.8
219.397	43.35
219.615	98.64
219.833	51.54
220.051	53.59
220.27	53.59
220.488	43.35
220.706	24.92
220.924	47.44
221.142	31.06
221.36	-1.71
221.578	63.83
221.796	-30.38
222.015	92.5
222.233	26.96
222.451	90.45
222.669	35.16
222.887	78.16
223.105	8.53
223.323	31.06
223.541	8.53
223.759	96.6
223.977	22.87
224.195	65.88
224.413	14.68
224.631	12.63
224.849	26.96
225.067	33.11
225.285	20.82
225.503	88.4
225.721	10.58
225.939	8.53
226.157	53.59
226.375	63.83
226.592	20.82
226.81	-13.99
227.028	137.56
227.246	35.16
227.464	37.2
227.682	47.44
227.9	74.07
228.117	45.4
228.335	51.54
228.553	31.06
228.771	24.92
228.989	90.45
229.206	55.64
229.424	82.26
229.642	-9.9
229.86	-46.76
230.077	96.6
230.295	88.4
230.513	24.92
230.731	31.06
230.948	139.6
231.166	96.6
231.384	31.06
231.601	-1.71
231.819	20.82
232.037	14.68
232.254	12.63
232.472	41.3
232.689	-28.33
232.907	-5.8
233.125	35.16
233.342	-9.9
233.56	-77.48
233.777	123.22
233.995	-7.85
234.213	147.8
234.43	-1.71
234.648	98.64
234.865	57.68
235.083	22.87
235.3	59.73
235.518	92.5
235.735	72.02
235.953	115.03
236.17	39.25
236.388	-7.85
236.605	45.4
236.822	65.88
237.04	141.65
237.257	51.54
237.475	-46.76
237.692	37.2
237.909	6.49
238.127	29.01
238.344	78.16
238.562	18.77
238.779	26.96
238.996	-28.33
239.214	-32.43
239.431	59.73
239.648	33.11
239.865	158.03
240.083	29.01
240.3	61.78
240.517	18.77
240.735	61.78
240.952	41.3
241.169	-18.09
241.386	74.07
241.603	-1.71
241.821	82.26
242.038	92.5
242.255	31.06
242.472	35.16
242.689	20.82
242.907	41.3
243.124	26.96
243.341	102.74
243.558	51.54
243.775	43.35
243.992	-13.99
244.209	12.63
244.426	84.31
244.643	55.64
244.86	10.58
245.078	137.56
245.295	33.11
245.512	41.3
245.729	67.92
245.946	41.3
246.163	74.07
246.38	61.78
246.597	55.64
246.814	10.58
247.031	100.69
247.248	8.53
247.464	80.21
247.681	22.87
247.898	2.39
248.115	26.96
248.332	26.96
248.549	57.68
248.766	84.31
248.983	16.73
249.2	-16.04
249.417	69.97
249.633	-40.62
249.85	63.83
250.067	-7.85
250.284	88.4
250.501	49.49
250.717	92.5
250.934	55.64
251.151	76.12
251.368	16.73
251.585	69.97
251.801	22.87
252.018	51.54
252.235	37.2
252.451	90.45
252.668	-22.19
252.885	67.92
253.102	74.07
253.318	55.64
253.535	-71.34
253.752	47.44
253.968	33.11
254.185	22.87
254.401	45.4
254.618	98.64
254.835	80.21
255.051	53.59
255.268	49.49
255.484	49.49
255.701	108.88
255.917	33.11
256.134	31.06
256.351	-32.43
256.567	10.58
256.784	104.79
257	10.58
257.217	-34.47
257.433	119.12
257.65	76.12
257.866	10.58
258.082	-1.71
258.299	26.96
258.515	14.68
258.732	51.54
258.948	39.25
259.165	72.02
259.381	-24.23
259.597	16.73
259.814	35.16
260.03	82.26
260.246	55.64
260.463	78.16
260.679	63.83
260.895	92.5
261.112	78.16
261.328	8.53
261.544	47.44
261.761	80.21
261.977	18.77
262.193	20.82
262.409	41.3
262.626	43.35
262.842	78.16
263.058	96.6
263.274	76.12
263.49	-11.95
263.707	53.59
263.923	63.83
264.139	26.96
264.355	59.73
264.571	88.4
264.787	76.12
265.004	53.59
265.22	76.12
265.436	6.49
265.652	4.44
265.868	43.35
266.084	-5.8
266.3	88.4
266.516	-7.85
266.732	57.68
266.948	-44.71
267.164	35.16
267.38	59.73
267.596	47.44
267.812	78.16
268.028	76.12
268.244	49.49
268.46	96.6
268.676	-34.47
268.892	76.12
269.108	29.01
269.324	-7.85
269.54	84.31
269.756	6.49
269.972	43.35
270.188	82.26
270.403	-30.38
270.619	55.64
270.835	76.12
271.051	29.01
271.267	55.64
271.483	-5.8
271.698	78.16
271.914	65.88
272.13	24.92
272.346	65.88
272.562	24.92
272.777	67.92
272.993	65.88
273.209	-18.09
273.425	57.68
273.64	43.35
273.856	92.5
274.072	26.96
274.287	45.4
274.503	78.16
274.719	41.3
274.934	-7.85
275.15	4.44
275.366	-1.71
275.581	49.49
275.797	14.68
276.012	6.49
276.228	10.58
276.444	43.35
276.659	31.06
276.875	-13.99
277.09	67.92
277.306	45.4
277.521	41.3
277.737	55.64
277.952	108.88
278.168	-30.38
278.383	31.06
278.599	82.26
278.814	108.88
279.03	51.54
279.245	76.12
279.461	14.68
279.676	80.21
279.892	12.63
280.107	37.2
280.322	76.12
280.538	43.35
280.753	20.82
280.969	125.27
281.184	-36.52
281.399	69.97
281.615	24.92
281.83	84.31
282.045	108.88
282.26	26.96
282.476	121.17
282.691	45.4
282.906	45.4
283.122	53.59
283.337	29.01
283.552	39.25
283.767	35.16
283.983	115.03
284.198	76.12
284.413	57.68
284.628	41.3
284.843	69.97
285.058	37.2
285.274	59.73
285.489	51.54
285.704	45.4
285.919	-65.19
286.134	67.92
286.349	59.73
286.564	69.97
286.779	133.46
286.995	16.73
287.21	35.16
287.425	-1.71
287.64	-83.63
287.855	80.21
288.07	20.82
288.285	57.68
288.5	88.4
288.715	72.02
288.93	59.73
289.145	72.02
289.36	43.35
289.575	63.83
289.79	90.45
290.004	43.35
290.219	18.77
290.434	59.73
290.649	26.96
290.864	-28.33
291.079	94.55
291.294	90.45
291.509	14.68
291.724	-24.23
291.938	-28.33
292.153	84.31
292.368	57.68
292.583	158.03
292.798	72.02
293.012	84.31
293.227	29.01
293.442	16.73
293.657	6.49
293.871	35.16
294.086	72.02
294.301	207.19
294.516	37.2
294.73	-26.28
294.945	22.87
295.16	16.73
295.374	33.11
295.589	49.49
295.804	39.25
296.018	29.01
296.233	12.63
296.447	-18.09
296.662	20.82
296.877	82.26
297.091	14.68
297.306	24.92
297.52	43.35
297.735	-1.71
297.949	-32.43
298.164	10.58
298.378	78.16
298.593	35.16
298.807	14.68
299.022	22.87
299.236	72.02
299.451	31.06
299.665	76.12
299.88	6.49
300.094	22.87
300.309	26.96
300.523	57.68
300.737	20.82
300.952	26.96
301.166	57.68
301.381	18.77
301.595	18.77
301.809	82.26
302.024	22.87
302.238	47.44
302.452	49.49
302.667	45.4
302.881	69.97
303.095	6.49
303.309	-7.85
303.524	-5.8
303.738	-13.99
303.952	0.34
304.166	2.39
304.381	-1.71
304.595	49.49
304.809	37.2
305.023	-1.71
305.237	-24.23
305.452	63.83
305.666	47.44
305.88	112.98
306.094	45.4
306.308	96.6
306.522	115.03
306.736	76.12
306.95	90.45
307.164	76.12
307.379	6.49
307.593	22.87
307.807	35.16
308.021	33.11
308.235	57.68
308.449	22.87
308.663	82.26
308.877	63.83
309.091	59.73
309.305	-16.04
309.519	-13.99
309.733	74.07
309.947	-24.23
310.161	45.4
310.374	-9.9
310.588	8.53
310.802	63.83
311.016	14.68
311.23	82.26
311.444	72.02
311.658	59.73
311.872	33.11
312.085	94.55
312.299	121.17
312.513	82.26
312.727	-42.67
312.941	37.2
313.154	45.4
313.368	92.5
313.582	172.37
313.796	26.96
314.009	88.4
314.223	55.64
314.437	24.92
314.651	55.64
314.864	92.5
315.078	18.77
315.292	121.17
315.505	80.21
315.719	51.54
315.933	55.64
316.146	16.73
316.36	-13.99
316.573	18.77
316.787	108.88
317.001	12.63
317.214	-13.99
317.428	35.16
317.641	10.58
317.855	41.3
318.068	59.73
318.282	84.31
318.495	90.45
318.709	63.83
318.922	67.92
319.136	61.78
319.349	-13.99
319.563	26.96
319.776	127.32
319.99	26.96
320.203	92.5
320.417	-9.9
320.63	96.6
320.843	65.88
321.057	24.92
321.27	47.44
321.483	96.6
321.697	51.54
321.91	47.44
322.124	76.12
322.337	110.93
322.55	35.16
322.763	63.83
322.977	141.65
323.19	4.44
323.403	49.49
323.617	2.39
323.83	104.79
324.043	-1.71
324.256	145.75
324.469	18.77
324.683	74.07
324.896	47.44
325.109	74.07
325.322	-7.85
325.535	37.2
325.748	65.88
325.962	20.82
326.175	8.53
326.388	35.16
326.601	-22.19
326.814	41.3
327.027	12.63
327.24	80.21
327.453	35.16
327.666	51.54
327.879	43.35
328.092	78.16
328.305	16.73
328.518	29.01
328.731	-30.38
328.944	63.83
329.157	90.45
329.37	59.73
329.583	117.08
329.796	147.8
330.009	45.4
330.222	72.02
330.435	22.87
330.648	51.54
330.861	74.07
331.073	6.49
331.286	39.25
331.499	69.97
331.712	0.34
331.925	-11.95
332.138	47.44
332.35	125.27
332.563	49.49
332.776	74.07
332.989	26.96
333.202	47.44
333.414	-16.04
333.627	82.26
333.84	49.49
334.053	110.93
334.265	55.64
334.478	45.4
334.691	47.44
334.903	18.77
335.116	47.44
335.329	53.59
335.541	49.49
335.754	145.75
335.966	53.59
336.179	0.34
336.392	16.73
336.604	37.2
336.817	106.84
337.029	43.35
337.242	-22.19
337.454	47.44
337.667	92.5
337.88	84.31
338.092	92.5
338.305	47.44
338.517	45.4
338.729	119.12
338.942	67.92
339.154	57.68
339.367	80.21
339.579	24.92
339.792	-32.43
340.004	37.2
340.217	18.77
340.429	45.4
340.641	35.16
340.854	88.4
341.066	-46.76
341.278	45.4
341.491	131.41
341.703	104.79
341.915	8.53
342.128	139.6
342.34	26.96
342.552	6.49
342.764	24.92
342.977	100.69
343.189	29.01
343.401	84.31
343.613	-5.8
343.826	108.88
344.038	51.54
344.25	57.68
344.462	49.49
344.674	98.64
344.886	-18.09
345.099	57.68
345.311	108.88
345.523	82.26
345.735	76.12
345.947	78.16
346.159	-11.95
346.371	59.73
346.583	49.49
346.795	162.13
347.007	29.01
347.219	57.68
347.431	80.21
347.643	125.27
347.855	31.06
348.067	39.25
348.279	20.82
348.491	18.77
348.703	-9.9
348.915	84.31
349.127	59.73
349.339	90.45
349.551	-24.23
349.763	108.88
349.975	26.96
350.187	84.31
350.399	49.49
350.61	41.3
350.822	72.02
351.034	10.58
351.246	69.97
351.458	121.17
351.669	6.49
351.881	88.4
352.093	72.02
352.305	59.73
352.517	8.53
352.728	69.97
352.94	33.11
353.152	86.36
353.363	84.31
353.575	41.3
353.787	158.03
353.999	67.92
354.21	59.73
354.422	84.31
354.633	16.73
354.845	69.97
355.057	43.35
355.268	100.69
355.48	31.06
355.692	24.92
355.903	78.16
356.115	49.49
356.326	-18.09
356.538	92.5
356.749	-1.71
356.961	147.8
357.172	-9.9
357.384	59.73
357.595	170.32
357.807	2.39
358.018	24.92
358.23	-63.15
358.441	170.32
358.653	94.55
358.864	33.11
359.075	47.44
359.287	69.97
359.498	149.84
359.709	35.16
359.921	94.55
360.132	55.64
360.344	67.92
360.555	47.44
360.766	147.8
360.977	43.35
361.189	96.6
361.4	43.35
361.611	80.21
361.823	67.92
362.034	37.2
362.245	24.92
362.456	-18.09
362.667	14.68
362.879	82.26
363.09	139.6
363.301	-1.71
363.512	37.2
363.723	86.36
363.935	57.68
364.146	84.31
364.357	-46.76
364.568	39.25
364.779	112.98
364.99	86.36
365.201	100.69
365.412	51.54
365.623	55.64
365.834	26.96
366.045	18.77
366.256	94.55
366.467	22.87
366.678	33.11
366.889	84.31
367.1	94.55
367.311	88.4
367.522	108.88
367.733	-20.14
367.944	65.88
368.155	100.69
368.366	35.16
368.577	63.83
368.788	147.8
368.999	-16.04
369.209	16.73
369.42	94.55
369.631	92.5
369.842	115.03
370.053	117.08
370.264	88.4
370.474	72.02
370.685	59.73
370.896	8.53
371.107	102.74
371.317	86.36
371.528	59.73
371.739	129.36
371.95	90.45
372.16	74.07
372.371	6.49
372.582	135.51
372.792	47.44
373.003	90.45
373.214	24.92
373.424	26.96
373.635	65.88
373.846	155.99
374.056	14.68
374.267	92.5
374.477	82.26
374.688	-13.99
374.898	110.93
375.109	63.83
375.319	143.7
375.53	63.83
375.74	55.64
375.951	-3.75
376.161	88.4
376.372	98.64
376.582	55.64
376.793	67.92
377.003	18.77
377.214	47.44
377.424	31.06
377.635	41.3
377.845	69.97
378.055	16.73
378.266	20.82
378.476	59.73
378.686	90.45
378.897	100.69
379.107	45.4
379.317	76.12
379.528	37.2
379.738	100.69
379.948	47.44
380.158	57.68
380.369	14.68
380.579	98.64
380.789	26.96
380.999	137.56
381.21	45.4
381.42	104.79
381.63	110.93
381.84	92.5
382.05	96.6
382.261	63.83
382.471	121.17
382.681	72.02
382.891	37.2
383.101	82.26
383.311	35.16
383.521	53.59
383.731	108.88
383.941	22.87
384.151	18.77
384.361	45.4
384.571	61.78
384.781	117.08
384.991	80.21
385.201	115.03
385.411	127.32
385.621	135.51
385.831	94.55
386.041	51.54
386.251	67.92
386.461	82.26
386.671	106.84
386.881	14.68
387.091	10.58
387.301	59.73
387.511	37.2
387.72	78.16
387.93	59.73
388.14	47.44
388.35	-16.04
388.56	84.31
388.769	125.27
388.979	131.41
389.189	26.96
389.399	125.27
389.609	59.73
389.818	86.36
390.028	45.4
390.238	112.98
390.447	10.58
390.657	39.25
390.867	67.92
391.076	74.07
391.286	78.16
391.496	31.06
391.705	117.08
391.915	127.32
392.125	100.69
392.334	39.25
392.544	115.03
392.753	2.39
392.963	90.45
393.172	104.79
393.382	94.55
393.591	143.7
393.801	43.35
394.01	162.13
394.22	82.26
394.429	39.25
394.639	86.36
394.848	100.69
395.058	61.78
395.267	82.26
395.477	57.68
395.686	115.03
395.895	141.65
396.105	121.17
396.314	125.27
396.524	55.64
396.733	2.39
396.942	127.32
397.152	121.17
397.361	59.73
397.57	194.9
397.78	61.78
397.989	158.03
398.198	90.45
398.407	74.07
398.617	153.94
398.826	67.92
399.035	51.54
399.244	115.03
399.453	61.78
399.663	65.88
399.872	86.36
400.081	170.32
400.29	129.36
400.499	112.98
400.708	112.98
400.917	139.6
401.127	123.22
401.336	78.16
401.545	139.6
401.754	133.46
401.963	133.46
402.172	108.88
402.381	51.54
402.59	106.84
402.799	67.92
403.008	100.69
403.217	112.98
403.426	119.12
403.635	74.07
403.844	149.84
404.053	88.4
404.262	92.5
404.471	104.79
404.68	162.13
404.888	139.6
405.097	180.56
405.306	145.75
405.515	125.27
405.724	158.03
405.933	127.32
406.142	256.34
406.35	182.61
406.559	162.13
406.768	170.32
406.977	198.99
407.185	158.03
407.394	209.23
407.603	190.8
407.812	160.08
408.02	239.95
408.229	190.8
408.438	108.88
408.646	135.51
408.855	178.51
409.064	213.33
409.272	209.23
409.481	219.47
409.69	211.28
409.898	250.19
410.107	248.15
410.315	225.62
410.524	260.43
410.733	285.01
410.941	330.06
411.15	291.15
411.358	385.36
411.567	274.77
411.775	416.08
411.984	346.45
412.192	368.98
412.401	295.25
412.609	379.22
412.818	428.37
413.026	444.75
413.234	395.6
413.443	446.8
413.651	440.65
413.86	475.47
414.068	491.85
414.276	555.34
414.485	475.47
414.693	528.72
414.901	579.92
415.11	528.72
415.318	606.54
415.526	643.4
415.734	667.98
415.943	600.4
416.151	596.3
416.359	643.4
416.567	694.6
416.776	704.84
416.984	803.15
417.192	794.95
417.4	809.29
417.608	751.95
417.817	811.34
418.025	891.21
418.233	911.69
418.441	825.67
418.649	944.45
418.857	1009.99
419.065	1044.81
419.273	1081.67
419.481	948.55
419.689	1227.07
419.897	1143.11
420.105	1247.55
420.313	1239.36
420.521	1315.14
420.729	1411.39
420.937	1229.12
421.145	1399.1
421.353	1485.12
421.561	1560.89
421.769	1493.31
421.977	1542.46
422.185	1616.19
422.393	1714.49
422.601	1722.68
422.809	1798.46
423.017	1767.74
423.224	1814.84
423.432	1980.73
423.64	1927.48
423.848	2191.67
424.056	2119.99
424.263	2222.39
424.471	2242.87
424.679	2353.46
424.887	2339.12
425.094	2539.82
425.302	2517.29
425.51	2679.08
425.718	2621.74
425.925	2674.99
426.133	2718
426.341	2959.66
426.548	3021.1
426.756	3072.29
426.964	3135.78
427.171	3301.67
427.379	3397.92
427.586	3350.82
427.794	3537.18
428.001	3746.08
428.209	3907.87
428.417	3766.56
428.624	4196.63
428.832	4077.85
429.039	4055.32
429.247	4018.46
429.454	4364.56
429.662	4714.77
429.869	4366.61
430.076	4684.05
430.284	4489.49
430.491	4817.16
430.699	5060.87
430.906	4892.94
431.114	5028.1
431.321	5380.36
431.528	5398.79
431.736	5695.74
431.943	6144.25
432.15	5773.57
432.358	5906.68
432.565	6148.34
432.772	6154.49
432.979	6572.27
433.187	6760.69
433.394	6578.42
433.601	7080.17
433.808	7190.76
434.016	7006.44
434.223	7416.04
434.43	7692.51
434.637	7506.15
434.844	8024.28
435.052	8306.9
435.259	8222.94
435.466	8165.59
435.673	8163.54
435.88	8917.2
436.087	9226.44
436.294	9261.26
436.501	8831.18
436.708	9269.45
436.915	9494.72
437.122	9898.17
437.329	9869.5
437.537	10182.84
437.743	10434.74
437.95	10352.82
438.157	10725.55
438.364	11059.37
438.571	11022.51
438.778	11229.35
438.985	12308.63
439.192	11829.41
439.399	12198.04
439.606	11980.96
439.813	12425.37
440.02	13277.32
440.227	13250.7
440.433	12945.55
440.64	13340.81
440.847	13408.39
441.054	13637.77
441.261	14780.53
441.467	14364.79
441.674	14667.89
441.881	15044.72
442.088	14850.16
442.294	14987.38
442.501	15503.46
442.708	15710.31
442.914	16320.6
443.121	16808.02
443.328	16377.95
443.534	17674.31
443.741	17039.44
443.948	16969.81
444.154	18077.76
444.361	18044.99
444.568	18192.45
444.774	18081.86
444.981	18159.68
445.187	18722.87
445.394	19640.36
445.6	19247.15
445.807	21221.39
446.013	20453.41
446.22	20486.17
446.426	21415.95
446.633	21717
446.839	22329.34
447.046	21387.28
447.252	22718.46
447.459	22501.37
447.665	22614.01
447.871	23382
448.078	24170.47
448.284	23209.97
448.491	23949.29
448.697	24795.1
448.903	25460.69
449.11	25472.98
449.316	24598.49
449.522	25311.19
449.728	26179.53
449.935	26273.73
450.141	25931.72
450.347	26779.58
450.553	25741.26
450.76	25851.85
450.966	26644.41
451.172	26699.71
451.378	27293.62
451.584	26822.59
451.791	27185.08
451.997	27244.47
452.203	27631.54
452.409	27762.61
452.615	27508.66
452.821	26441.67
453.027	26419.14
453.233	27758.51
453.44	26210.25
453.646	26503.1
453.852	26906.55
454.058	27037.62
454.264	26032.07
454.47	26507.2
454.676	26167.24
454.882	27000.76
455.088	24645.6
455.294	25028.57
455.5	25247.7
455.705	25927.63
455.911	24379.36
456.117	24051.69
456.323	23623.66
456.529	22497.28
456.735	23533.55
456.941	22607.87
457.147	22188.03
457.352	21704.71
457.558	21141.52
457.764	21434.38
457.97	20969.49
458.176	20584.48
458.381	20334.62
458.587	19486.76
458.793	19693.61
458.999	18610.23
459.204	19836.97
459.41	19316.78
459.616	17999.94
459.821	17918.02
460.027	18069.57
460.233	17537.1
460.438	16574.55
460.644	16719.96
460.85	16197.73
461.055	15958.11
461.261	15935.59
461.466	14547.06
461.672	14313.59
461.878	15126.64
462.083	14147.71
462.289	13963.39
462.494	13957.25
462.7	13217.93
462.905	13127.82
463.111	13455.5
463.316	13310.09
463.522	13148.3
463.727	13314.19
463.932	13271.18
464.138	12933.26
464.343	13019.28
464.549	12757.14
464.754	12966.03
464.959	12972.18
465.165	12955.79
465.37	12527.77
465.575	11966.62
465.781	12390.55
465.986	12587.16
466.191	12288.15
466.397	12069.02
466.602	11415.72
466.807	11776.16
467.012	11765.92
467.218	11622.56
467.423	11559.08
467.628	11700.39
467.833	12202.14
468.038	11595.94
468.244	11169.96
468.449	11882.66
468.654	11278.51
468.859	11110.57
469.064	11184.3
469.269	10911.92
469.474	10924.21
469.679	11288.75
469.885	10723.51
470.09	10948.78
470.295	10823.86
470.5	10600.63
470.705	10559.67
470.91	10305.72
471.115	10248.38
471.32	10471.61
471.525	10567.86
471.73	10150.07
471.935	10154.17
472.139	9707.71
472.344	9924.8
472.549	9791.68
472.754	9668.8
472.959	9597.12
473.164	9289.93
473.369	9158.86
473.574	9580.74
473.778	9412.81
473.983	9373.89
474.188	9300.17
474.393	8855.76
474.598	8970.44
474.802	8698.06
475.007	8773.84
475.212	8847.57
475.417	8601.81
475.621	8507.6
475.826	8521.94
476.031	8423.64
476.235	8276.18
476.44	8249.56
476.645	8149.21
476.849	8005.85
477.054	8270.04
477.259	7944.41
477.463	7880.93
477.668	7753.95
477.872	7928.03
478.077	7721.18
478.282	7706.85
478.486	7536.87
478.691	7506.15
478.895	7446.76
479.1	7571.68
479.304	7416.04
479.509	7223.53
479.713	7280.87
479.918	7088.36
480.122	7067.88
480.326	7028.97
480.531	7086.31
480.735	7198.95
480.94	7078.12
481.144	7295.21
481.348	6918.38
481.553	6957.29
481.757	6953.2
481.961	6858.99
482.166	7057.64
482.37	7016.68
482.574	6836.46
482.778	6914.28
482.983	6893.8
483.187	6959.34
483.391	6988.01
483.595	6990.06
483.8	6865.13
484.004	6945
484.208	7049.45
484.412	6760.69
484.616	6959.34
484.821	6818.03
485.025	6994.15
485.229	6988.01
485.433	6936.81
485.637	6787.31
485.841	6781.17
486.045	6895.85
486.249	7067.88
486.453	6942.96
486.657	6904.04
486.861	6924.52
487.065	6856.94
487.269	6910.19
487.473	6807.79
487.677	6904.04
487.881	6965.48
488.085	6848.75
488.289	6856.94
488.493	6916.33
488.697	7094.51
488.901	7080.17
489.105	6951.15
489.309	7057.64
489.512	6867.18
489.716	7155.94
489.92	7127.27
490.124	7211.24
490.328	7250.15
490.531	6918.38
490.735	7172.33
490.939	7248.1
491.143	7178.47
491.346	7033.07
491.55	7276.77
491.754	7342.31
491.958	7198.95
492.161	7262.44
492.365	7321.83
492.569	7258.34
492.772	7344.36
492.976	7348.45
493.18	7438.56
493.383	7516.39
493.587	7598.31
493.79	7794.91
493.994	7586.02
494.197	7604.45
494.401	7729.38
494.605	7725.28
494.808	7829.73
495.012	7899.36
495.215	8153.3
495.419	8141.02
495.622	7962.84
495.825	8206.55
496.029	8171.74
496.232	8468.69
496.436	8288.47
496.639	8659.15
496.843	8653.01
497.046	8569.04
497.249	8661.2
497.453	8833.23
497.656	8732.88
497.859	8939.72
498.063	8730.83
498.266	9169.1
498.469	9144.52
498.673	9119.95
498.876	9205.96
499.079	9566.4
499.282	9324.74
499.485	9601.22
499.689	9734.34
499.892	9742.53
500.095	9779.39
500.298	10188.99
500.501	10070.2
500.705	10416.31
500.908	10531
501.111	10528.95
501.314	10604.72
501.517	10737.84
501.72	10956.97
501.923	10809.52
502.126	11227.31
502.329	11301.03
502.532	11567.27
502.735	11430.05
502.938	11569.32
503.141	11770.02
503.344	11667.62
503.547	11841.7
503.75	11935.9
503.953	12304.54
504.156	12290.2
504.359	12458.14
504.562	12552.34
504.765	12779.67
504.968	12818.58
505.17	13244.56
505.373	13029.52
505.576	13332.62
505.779	13326.47
505.982	13559.94
506.185	13969.54
506.387	13721.73
506.59	13731.97
506.793	14344.31
506.996	13973.63
507.198	14581.88
507.401	14459
507.604	14565.5
507.807	15054.96
508.009	15186.03
508.212	15116.4
508.415	15368.3
508.617	15313
508.82	15734.89
509.022	15675.49
509.225	16095.33
509.428	16238.69
509.63	16287.84
509.833	16052.32
510.035	16859.22
510.238	16486.49
510.44	16914.52
510.643	17387.6
510.845	17481.8
511.048	17100.88
511.25	17807.43
511.453	17477.71
511.655	18438.2
511.858	18155.58
512.06	18131.01
512.262	18544.7
512.465	18257.98
512.667	18753.59
512.87	18935.86
513.072	19007.54
513.274	19255.34
513.477	19292.21
513.679	19753
513.881	20115.49
514.084	20215.84
514.286	19972.13
514.488	20301.86
514.69	20858.9
514.893	20844.57
515.095	20879.38
515.297	21288.98
515.499	21018.64
515.701	21725.19
515.904	21895.18
516.106	21577.74
516.308	21901.32
516.51	22294.53
516.712	22552.57
516.914	22853.62
517.116	23005.17
517.318	23138.29
517.52	23255.03
517.722	23164.92
517.925	23828.46
518.127	23783.4
518.329	23939.05
518.531	23816.17
518.733	24522.72
518.935	24911.83
519.136	24899.55
519.338	25153.49
519.54	25472.98
519.742	25554.9
519.944	25712.59
520.146	26245.06
520.348	26105.8
520.55	26304.45
520.752	26308.55
520.954	26625.98
521.155	26609.6
521.357	27238.33
521.559	27396.02
521.761	27760.56
521.963	27451.31
522.164	27865
522.366	28209.06
522.568	28186.54
522.77	28374.95
522.971	28843.93
523.173	28583.84
523.375	28649.38
523.576	28985.24
523.778	28800.93
523.98	29575.06
524.181	29540.24
524.383	29724.56
524.584	29921.16
524.786	30136.2
524.988	30211.98
525.189	30793.6
525.391	30756.74
525.592	30957.44
525.794	30752.64
525.995	31051.64
526.197	31078.27
526.398	31176.57
526.6	31303.54
526.801	31616.88
527.003	31774.58
527.204	31424.37
527.406	32135.02
527.607	31915.89
527.808	32399.21
528.01	31780.72
528.211	32345.96
528.412	32767.84
528.614	32728.93
528.815	32300.9
529.016	33204.06
529.218	32857.95
529.419	33023.84
529.62	33171.29
529.822	32843.62
530.023	32923.49
530.224	33083.23
530.425	32984.93
530.626	33144.67
530.828	33036.13
531.029	33804.11
531.23	33388.38
531.431	33310.55
531.632	33445.72
531.833	33541.97
532.035	33607.51
532.236	33771.35
532.437	33693.52
532.638	33625.94
532.839	33779.54
533.04	34101.07
533.241	33984.33
533.442	34559.81
533.643	33789.78
533.844	33908.56
534.045	34172.75
534.246	33511.25
534.447	34240.33
534.648	33818.45
534.849	34115.4
535.05	34125.64
535.251	34185.04
535.451	33636.18
535.652	34365.26
535.853	34193.23
536.054	34170.7
536.255	34361.16
536.456	33957.71
536.657	34864.96
536.857	33978.19
537.058	34111.31
537.259	34656.07
537.46	34637.64
537.66	34361.16
537.861	34176.84
538.062	34430.79
538.263	34582.34
538.463	33820.5
538.664	34172.75
538.865	34555.72
539.065	34418.5
539.266	34348.87
539.466	34395.98
539.667	33740.63
539.868	34537.29
540.068	34377.54
540.269	34344.78
540.469	34393.93
540.67	34176.84
540.87	34455.37
541.071	34182.99
541.271	34262.86
541.472	34248.52
541.672	34230.09
541.873	34199.37
542.073	33535.83
542.274	34316.11
542.474	34103.12
542.675	33914.7
542.875	34363.21
543.075	34099.02
543.276	33675.09
543.476	35043.13
543.676	33953.62
543.877	34176.84
544.077	34215.76
544.277	34377.54
544.478	33787.73
544.678	34359.11
544.878	34463.56
545.078	34062.16
545.279	33920.85
545.479	33974.09
545.679	34338.63
545.879	33875.79
546.079	34068.3
546.28	34168.65
546.48	33439.58
546.68	34215.76
546.88	34074.45
547.08	33898.32
547.28	33752.91
547.48	33771.35
547.68	33859.41
547.88	33632.08
548.081	34017.1
548.281	34113.36
548.481	33949.52
548.681	34101.07
548.881	33818.45
549.081	34056.01
549.28	33552.21
549.48	34142.03
549.68	33595.22
549.88	34117.45
550.08	33730.39
550.28	34129.74
550.48	33558.36
550.68	33687.38
550.88	33554.26
551.08	33914.7
551.279	33763.15
551.479	33363.8
551.679	33838.93
551.879	33648.47
552.079	33812.31
552.278	33621.84
552.478	33582.93
552.678	33589.08
552.878	33501.01
553.077	33736.53
553.277	33306.46
553.477	33802.07
553.676	33642.32
553.876	33277.79
554.076	33388.38
554.275	33337.18
554.475	32982.88
554.674	33339.22
554.874	33648.47
555.074	33386.33
555.273	33296.22
555.473	33634.13
555.672	33224.54
555.872	33118.04
556.071	32931.68
556.271	33183.58
556.47	33521.49
556.67	32884.58
556.869	33095.52
557.068	33015.65
557.268	32757.6
557.467	32917.34
557.667	33116
557.866	33138.52
558.065	32581.48
558.265	32382.82
558.464	32608.1
558.663	32585.57
558.863	32403.3
559.062	33267.55
559.261	32147.31
559.461	32903.01
559.66	32028.52
559.859	32931.68
560.058	32491.37
560.258	32323.43
560.457	32366.44
560.656	32511.85
560.855	32462.69
561.054	32395.11
561.253	31973.23
561.453	31764.34
561.652	32487.27
561.851	32030.57
562.05	32200.55
562.249	32024.43
562.448	31885.17
562.647	31838.06
562.846	31956.85
563.045	31647.6
563.244	31698.8
563.443	31797.1
563.642	30818.18
563.841	31575.92
564.04	31385.46
564.239	31821.68
564.438	31090.55
564.637	31407.99
564.836	31088.51
565.035	30896
565.234	30939.01
565.432	30877.57
565.631	30953.34
565.83	30924.67
566.029	30685.06
566.228	31041.4
566.427	30640
566.625	30838.65
566.824	30257.03
567.023	30738.3
567.222	29812.62
567.42	30379.91
567.619	30361.48
567.818	29953.93
568.016	30031.76
568.215	30119.82
568.414	29761.42
568.612	30285.7
568.811	29857.68
569.01	29589.39
569.208	29613.97
569.407	29724.56
569.605	29429.65
569.804	29763.47
570.002	29392.79
570.201	29630.35
570.4	29282.2
570.598	29061.02
570.797	28835.74
570.995	29366.17
571.193	28700.58
571.392	29343.64
571.59	28700.58
571.789	28948.38
571.987	28610.46
572.186	28600.22
572.384	28364.71
572.582	28647.33
572.781	28450.72
572.979	28211.11
573.177	28442.53
573.376	28211.11
573.574	28077.99
573.772	28127.14
573.971	28065.71
574.169	27967.4
574.367	27914.16
574.565	27998.12
574.763	27504.56
574.962	27805.61
575.16	27527.09
575.358	27539.38
575.556	27283.38
575.754	27512.75
575.952	26892.22
576.151	27520.95
576.349	27180.98
576.547	27000.76
576.745	26998.71
576.943	26963.9
577.141	26853.31
577.339	26800.06
577.537	26843.07
577.735	26795.96
577.933	26611.65
578.131	26736.57
578.329	26412.99
578.527	26161.09
578.725	26290.12
578.923	26460.1
579.121	26257.35
579.319	26324.93
579.516	26118.09
579.714	26034.12
579.912	25901
580.11	26025.93
580.308	25763.79
580.506	25944.01
580.704	25440.21
580.901	25712.59
581.099	25628.62
581.297	25442.26
581.495	25501.65
581.692	25327.57
581.89	24997.85
582.088	25460.69
582.285	25188.31
582.483	25599.95
582.681	24946.65
582.878	25173.97
583.076	24674.27
583.274	25126.87
583.471	24750.04
583.669	25038.81
583.866	24709.08
584.064	24668.12
584.262	24539.1
584.459	24739.8
584.657	24340.45
584.854	24506.34
585.052	24250.34
585.249	24668.12
585.447	24174.56
585.644	24106.98
585.841	24104.93
586.039	24324.07
586.236	23488.49
586.434	23775.21
586.631	23738.35
586.828	23863.27
587.026	23730.16
587.223	23773.16
587.42	23648.24
587.618	23736.3
587.815	23216.12
588.012	23306.23
588.21	23263.22
588.407	23250.93
588.604	23277.55
588.801	23091.19
588.999	23126
589.196	23064.57
589.393	23029.75
589.59	22683.64
589.787	23052.28
589.984	22700.03
590.182	22261.76
590.379	22872.06
590.576	22575.1
590.773	22441.98
590.97	22364.16
591.167	22286.34
591.364	22067.2
591.561	22155.27
591.758	22138.88
591.955	22122.5
592.152	22220.8
592.349	21831.69
592.546	22095.88
592.743	21897.22
592.94	21817.35
593.137	21835.78
593.334	21950.47
593.531	21112.85
593.727	21936.13
593.924	21624.84
594.121	21055.51
594.318	21604.36
594.515	21057.56
594.712	21581.84
594.908	21428.24
595.105	21344.27
595.302	21075.99
595.499	20977.69
595.696	21147.67
595.892	20953.11
596.089	20969.49
596.286	20613.15
596.482	20785.18
596.679	20695.07
596.876	20543.52
597.072	21059.6
597.269	20459.55
597.466	20338.72
597.662	20414.49
597.859	20310.05
598.055	20559.9
598.252	20285.47
598.448	20025.38
598.645	20000.8
598.841	20078.63
599.038	20219.94
599.234	19980.32
599.431	19703.85
599.627	19662.89
599.824	19961.89
600.02	19601.45
600.217	19726.38
600.413	19220.53
600.609	19445.8
600.806	19535.92
601.002	19845.16
601.198	19324.97
601.395	19241.01
601.591	19077.17
601.787	19367.98
601.984	19388.46
602.18	19099.7
602.376	19081.27
602.572	18892.85
602.769	19023.92
602.965	18847.8
603.161	18737.21
603.357	18706.49
603.553	18638.9
603.75	18937.91
603.946	18384.96
604.142	18513.98
604.338	18483.26
604.534	18419.77
604.73	18233.41
604.926	18241.6
605.122	18325.57
605.318	18155.58
605.514	18071.62
605.71	18210.88
605.906	18004.03
606.102	18096.19
606.298	18079.81
606.494	17657.93
606.69	18159.68
606.886	17952.84
607.082	17799.24
607.278	17889.35
607.474	17379.4
607.67	17733.7
607.866	17576.01
608.062	17864.77
608.257	17412.17
608.453	17702.98
608.649	17696.84
608.845	17260.62
609.041	17489.99
609.236	17623.11
609.432	17432.65
609.628	17535.05
609.824	17156.18
610.019	17285.2
610.215	17254.48
610.411	17147.98
610.606	16937.04
610.802	17072.21
610.998	16910.42
611.193	17141.84
611.389	16793.69
611.584	16738.39
611.78	16515.16
611.976	16695.38
612.171	16705.62
612.367	16885.84
612.562	16658.52
612.758	16715.86
612.953	16394.33
613.149	16584.79
613.344	16242.78
613.539	16791.64
613.735	16629.85
613.93	16597.08
614.126	16451.67
614.321	16609.37
614.517	16547.93
614.712	16515.16
614.907	16408.67
615.103	16406.62
615.298	16105.57
615.493	16373.85
615.688	15962.21
615.884	16478.3
616.079	16070.75
616.274	16404.57
616.47	16218.21
616.665	16253.02
616.86	16099.42
617.055	15896.67
617.25	16029.79
617.445	15927.39
617.641	15743.08
617.836	16029.79
618.031	15702.12
618.226	15921.25
618.421	15657.06
618.616	15816.8
618.811	15405.16
619.006	15700.07
619.201	15351.92
619.396	15573.1
619.591	15343.72
619.786	15470.7
619.981	15028.34
620.176	15263.85
620.371	15165.55
620.566	15161.45
620.761	15093.87
620.956	15095.92
621.151	14764.15
621.346	14973.04
621.541	14563.45
621.735	14602.36
621.93	14588.02
622.125	14590.07
622.32	14223.48
622.515	14256.25
622.709	14399.61
622.904	14121.09
623.099	14401.66
623.294	14200.96
623.488	14137.47
623.683	13998.21
623.878	14022.78
624.072	13856.9
624.267	13901.95
624.462	13756.55
624.656	13764.74
624.851	13594.76
625.046	13312.14
625.24	13404.3
625.435	13353.1
625.629	13408.39
625.824	13199.5
626.018	12978.32
626.213	13004.94
626.407	13060.24
626.602	12853.39
626.796	13039.76
626.991	12730.52
627.185	12732.56
627.38	12781.71
627.574	12728.47
627.768	12353.69
627.963	12427.42
628.157	12449.94
628.352	12265.63
628.546	12023.97
628.74	12525.72
628.935	12124.32
629.129	12136.6
629.323	11815.07
629.517	12069.02
629.712	11802.79
629.906	11999.39
630.1	11581.6
630.294	11720.87
630.489	11583.65
630.683	11671.72
630.877	11542.69
631.071	11583.65
631.265	11436.2
631.459	11387.05
631.653	11311.27
631.848	11165.87
632.042	11194.54
632.236	11153.58
632.43	11090.09
632.624	11129
632.818	10959.02
633.012	10983.6
633.206	10682.55
633.4	10717.36
633.594	10551.48
633.788	10639.54
633.982	10506.42
634.176	10684.59
634.369	10600.63
634.563	10365.11
634.757	10328.25
634.951	10381.49
635.145	10141.88
635.339	10084.54
635.533	10137.79
635.726	10238.14
635.92	9803.97
636.114	10170.55
636.308	9902.27
636.501	10127.55
636.695	9836.74
636.889	9941.18
637.083	9703.62
637.276	9758.91
637.47	9588.93
637.664	9693.38
637.857	9668.8
638.051	9408.71
638.244	9312.46
638.438	9431.24
638.632	9398.47
638.825	9265.35
639.019	9298.12
639.212	9054.41
639.406	9056.46
639.599	9115.85
639.793	9115.85
639.986	8863.95
640.18	9015.5
640.373	9023.69
640.567	8839.37
640.76	8837.33
640.954	8700.11
641.147	8630.48
641.34	8605.91
641.534	8677.58
641.727	8528.08
641.92	8505.56
642.114	8429.78
642.307	8480.98
642.5	8368.34
642.694	8294.61
642.887	8263.9
643.08	8347.86
643.273	8184.02
643.467	8102.11
643.66	8163.54
643.853	8077.53
644.046	8161.5
644.239	8036.57
644.432	8003.8
644.626	7932.12
644.819	7942.36
645.012	7889.12
645.205	7854.3
645.398	7602.4
645.591	7669.98
645.784	7530.72
645.977	7413.99
646.17	7698.66
646.363	7448.8
646.556	7491.81
646.749	7469.28
646.942	7405.8
647.135	7248.1
647.328	7309.54
647.521	7479.52
647.714	7303.4
647.907	7223.53
648.099	7061.74
648.292	7078.12
648.485	7084.27
648.678	7000.3
648.871	6940.91
649.064	6918.38
649.256	7125.22
649.449	6789.36
649.642	6873.32
649.835	6897.9
650.027	6961.39
650.22	6815.98
650.413	6746.35
650.605	6877.42
650.798	6553.84
650.991	6602.99
651.183	6521.07
651.376	6633.71
651.568	6605.04
651.761	6519.03
651.954	6588.66
652.146	6480.11
652.339	6525.17
652.531	6328.56
652.724	6113.53
652.916	6086.9
653.109	6447.35
653.301	6306.04
653.494	6312.18
653.686	6275.32
653.879	6142.2
654.071	6187.25
654.263	6099.19
654.456	5878.01
654.648	5943.55
654.84	5916.92
655.033	5980.41
655.225	5927.16
655.417	5925.11
655.61	5921.02
655.802	5945.59
655.994	5814.52
656.186	5759.23
656.379	5865.72
656.571	5693.69
656.763	5632.26
656.955	5583.1
657.148	5615.87
657.34	5757.18
657.532	5712.13
657.724	5587.2
657.916	5468.42
658.108	5222.66
658.3	5574.91
658.492	5462.27
658.684	5374.21
658.876	5284.1
659.068	5370.12
659.26	5366.02
659.452	5390.6
659.644	5327.11
659.836	5173.51
660.028	5259.53
660.22	5187.85
660.412	5085.45
660.604	4999.43
660.796	5142.79
660.988	5040.39
661.18	5048.58
661.372	4974.86
661.563	5056.78
661.755	4856.08
661.947	4960.52
662.139	4815.12
662.331	4927.75
662.522	4835.6
662.714	4669.71
662.906	4704.53
663.097	4751.63
663.289	4696.33
663.481	4682
663.673	4649.23
663.864	4600.08
664.056	4737.29
664.247	4626.7
664.439	4485.39
664.631	4675.85
664.822	4583.7
665.014	4591.89
665.205	4391.19
665.397	4405.52
665.588	4524.3
665.78	4483.34
665.971	4589.84
666.163	4516.11
666.354	4421.91
666.546	4366.61
666.737	4327.7
666.929	4286.74
667.12	4391.19
667.311	4301.08
667.503	4157.72
667.694	4182.29
667.885	4133.14
668.077	4331.8
668.268	4231.44
668.459	4102.42
668.651	4133.14
668.842	4139.29
669.033	4231.44
669.224	4151.57
669.416	4120.85
669.607	4155.67
669.798	3836.19
669.989	4100.37
670.18	3957.02
670.371	4104.47
670.563	4090.13
670.754	4043.03
670.945	3975.45
671.136	4002.07
671.327	3942.68
671.518	3873.05
671.709	4053.27
671.9	4061.46
672.091	3961.11
672.282	3860.76
672.473	3930.39
672.664	3834.14
672.855	3846.43
673.046	3905.82
673.237	3737.88
673.428	3801.37
673.619	3780.89
673.809	3748.12
674	3766.56
674.191	3733.79
674.382	3778.84
674.573	3760.41
674.764	3682.59
674.954	3662.11
675.145	3578.14
675.336	3703.07
675.527	3752.22
675.717	3688.73
675.908	3717.4
676.099	3633.44
676.289	3690.78
676.48	3725.6
676.671	3553.57
676.861	3649.82
677.052	3582.24
677.243	3510.56
677.433	3404.07
677.624	3668.25
677.814	3676.45
678.005	3574.05
678.195	3574.05
678.386	3426.59
678.576	3426.59
678.767	3449.12
678.957	3567.9
679.148	3557.66
679.338	3500.32
679.529	3477.79
679.719	3406.11
679.909	3522.85
680.1	3356.96
680.29	3471.65
680.481	3311.91
680.671	3311.91
680.861	3461.41
681.052	3488.03
681.242	3453.22
681.432	3399.97
681.622	3352.87
681.813	3320.1
682.003	3336.48
682.193	3483.94
682.383	3516.7
682.573	3426.59
682.764	3215.65
682.954	3344.67
683.144	3449.12
683.334	3424.55
683.524	3285.28
683.714	3330.34
683.904	3279.14
684.094	3402.02
684.284	3307.81
684.474	3379.49
684.664	3289.38
684.854	3301.67
685.044	3195.17
685.234	3291.43
685.424	3275.04
685.614	3148.07
685.804	3285.28
685.994	3180.84
686.184	3164.45
686.374	3186.98
686.564	3186.98
686.753	3186.98
686.943	3086.63
687.133	3119.4
687.323	3182.88
687.513	3115.3
687.702	3146.02
687.892	3088.68
688.082	3150.12
688.272	3074.34
688.461	3035.43
688.651	3029.29
688.841	2994.47
689.03	3025.19
689.22	2930.98
689.41	3006.76
689.599	2904.36
689.789	2963.75
689.979	3117.35
690.168	2980.14
690.358	2906.41
690.547	2930.98
690.737	2943.27
690.926	2922.79
691.116	2926.89
691.305	2894.12
691.495	2804.01
691.684	2879.79
691.874	2779.43
692.063	2687.28
692.252	2844.97
692.442	2744.62
692.631	2707.76
692.82	2826.54
693.01	2873.64
693.199	2681.13
693.388	2734.38
693.578	2767.15
693.767	2806.06
693.956	2574.64
694.146	2705.71
694.335	2679.08
694.524	2636.08
694.713	2816.3
694.902	2652.46
695.092	2816.3
695.281	2654.51
695.47	2724.14
695.659	2703.66
695.848	2742.57
696.037	2646.32
696.226	2697.52
696.415	2715.95
696.604	2609.45
696.793	2568.49
696.982	2650.41
697.171	2691.37
697.36	2711.85
697.549	2576.69
697.738	2515.25
697.927	2634.03
698.116	2560.3
698.305	2658.6
698.494	2586.93
698.683	2722.09
698.872	2611.5
699.061	2570.54
699.25	2591.02
699.438	2605.36
699.627	2527.53
699.816	2640.17
700.005	2500.91
700.193	2568.49
700.382	2631.98
700.571	2599.21
700.76	2613.55
700.948	2525.49
701.137	2478.38
701.326	2603.31
701.514	2511.15
701.703	2603.31
701.892	2537.77
702.08	2562.35
702.269	2474.29
702.457	2550.06
702.646	2513.2
702.834	2515.25
703.023	2476.34
703.212	2548.01
703.4	2605.36
703.589	2511.15
703.777	2437.42
703.965	2388.27
704.154	2599.21
704.342	2562.35
704.531	2574.64
704.719	2494.77
704.907	2584.88
705.096	2408.75
705.284	2443.57
705.472	2566.45
705.661	2513.2
705.849	2482.48
706.037	2533.68
706.226	2511.15
706.414	2525.49
706.602	2437.42
706.79	2472.24
706.979	2496.82
707.167	2627.89
707.355	2302.26
707.543	2439.47
707.731	2429.23
707.919	2511.15
708.107	2490.67
708.296	2529.58
708.484	2457.9
708.672	2447.66
708.86	2513.2
709.048	2400.56
709.236	2537.77
709.424	2478.38
709.612	2474.29
709.8	2517.29
709.988	2560.3
710.176	2523.44
710.364	2375.99
710.551	2498.86
710.739	2373.94
710.927	2418.99
711.115	2539.82
711.303	2445.62
711.491	2578.73
711.679	2513.2
711.866	2449.71
712.054	2525.49
712.242	2427.18
712.43	2531.63
712.617	2580.78
712.805	2558.25
712.993	2429.23
713.181	2443.57
713.368	2480.43
713.556	2511.15
713.744	2451.76
713.931	2631.98
714.119	2482.48
714.306	2521.39
714.494	2488.62
714.682	2521.39
714.869	2556.21
715.057	2568.49
715.244	2556.21
715.432	2490.67
715.619	2373.94
715.807	2464.05
715.994	2541.87
716.182	2435.38
716.369	2351.41
716.556	2468.14
716.744	2449.71
716.931	2455.86
717.119	2527.53
717.306	2529.58
717.493	2445.62
717.681	2531.63
717.868	2572.59
718.055	2492.72
718.242	2484.53
718.43	2539.82
718.617	2414.9
718.804	2431.28
718.991	2484.53
719.179	2480.43
719.366	2392.37
719.553	2418.99
719.74	2492.72
719.927	2388.27
720.114	2525.49
720.301	2472.24
720.488	2443.57
720.676	2355.51
720.863	2500.91
721.05	2541.87
721.237	2496.82
721.424	2373.94
721.611	2449.71
721.798	2509.1
721.985	2445.62
722.172	2435.38
722.358	2423.09
722.545	2312.5
722.732	2427.18
722.919	2398.51
723.106	2355.51
723.293	2369.84
723.48	2445.62
723.667	2427.18
723.853	2427.18
724.04	2433.33
724.227	2470.19
724.414	2320.69
724.6	2396.46
724.787	2341.17
724.974	2459.95
725.161	2367.79
725.347	2328.88
725.534	2468.14
725.72	2464.05
725.907	2400.56
726.094	2349.36
726.28	2398.51
726.467	2431.28
726.653	2289.97
726.84	2427.18
727.027	2375.99
727.213	2439.47
727.4	2425.14
727.586	2486.58
727.773	2337.07
727.959	2306.35
728.145	2416.94
728.332	2394.42
728.518	2355.51
728.705	2306.35
728.891	2355.51
729.077	2343.22
729.264	2324.79
729.45	2314.55
729.636	2476.34
729.823	2308.4
730.009	2392.37
730.195	2361.65
730.382	2416.94
730.568	2355.51
730.754	2406.7
730.94	2345.27
731.126	2312.5
731.313	2330.93
731.499	2316.59
731.685	2244.92
731.871	2306.35
732.057	2296.11
732.243	2304.31
732.429	2292.02
732.615	2296.11
732.801	2314.55
732.987	2394.42
733.173	2337.07
733.359	2324.79
733.545	2267.44
733.731	2375.99
733.917	2312.5
734.103	2332.98
734.289	2249.01
734.475	2210.1
734.661	2277.68
734.847	2296.11
735.033	2289.97
735.219	2206
735.404	2369.84
735.59	2226.48
735.776	2218.29
735.962	2279.73
736.148	2283.83
736.333	2263.35
736.519	2242.87
736.705	2185.52
736.89	2210.1
737.076	2183.48
737.262	2201.91
737.447	2199.86
737.633	2373.94
737.819	2185.52
738.004	2203.96
738.19	2242.87
738.375	2167.09
738.561	2222.39
738.747	2165.04
738.932	2197.81
739.118	2236.72
739.303	2160.95
739.489	2068.79
739.674	2169.14
739.859	2068.79
740.045	2111.8
740.23	2083.13
740.416	2033.97
740.601	2119.99
740.786	2009.4
740.972	2064.69
741.157	2023.73
741.342	2054.45
741.528	2128.18
741.713	1984.82
741.898	2119.99
742.084	1970.49
742.269	2146.61
742.454	1950.01
742.639	2054.45
742.824	2044.21
743.01	2099.51
743.195	2054.45
743.38	2081.08
743.565	1968.44
743.75	1943.86
743.935	1925.43
744.12	2058.55
744.305	1794.36
744.49	1907
744.675	1984.82
744.86	1915.19
745.045	1958.2
745.23	1960.25
745.415	1839.42
745.6	2005.3
745.785	1870.14
745.97	1855.8
746.155	1974.58
746.34	1845.56
746.525	1661.24
746.71	1829.18
746.895	1915.19
747.079	1730.87
747.264	1745.21
747.449	1755.45
747.634	1808.7
747.819	1689.92
748.003	1648.96
748.188	1675.58
748.373	1671.48
748.557	1786.17
748.742	1622.33
748.927	1638.72
749.111	1732.92
749.296	1685.82
749.481	1706.3
749.665	1648.96
749.85	1524.03
750.034	1552.7
750.219	1544.51
750.404	1534.27
750.588	1646.91
750.773	1550.65
750.957	1608
751.141	1605.95
751.326	1476.93
751.51	1466.69
751.695	1501.5
751.879	1540.41
752.064	1519.93
752.248	1456.45
752.432	1546.56
752.617	1474.88
752.801	1554.75
752.985	1497.41
753.17	1513.79
753.354	1390.91
753.538	1440.06
753.722	1257.79
753.907	1474.88
754.091	1392.96
754.275	1284.42
754.459	1360.19
754.643	1274.18
754.828	1333.57
755.012	1243.46
755.196	1237.31
755.38	1186.12
755.564	1345.86
755.748	1360.19
755.932	1450.3
756.116	1341.76
756.3	1384.77
756.484	1220.93
756.668	1345.86
756.852	1198.4
757.036	1206.59
757.22	1157.44
757.404	1196.36
757.588	1136.96
757.772	1177.92
757.956	1313.09
758.14	1120.58
758.323	1126.72
758.507	1145.16
758.691	1177.92
758.875	1255.75
759.059	1081.67
759.242	1120.58
759.426	1159.49
759.61	1059.14
759.794	1120.58
759.977	1139.01
760.161	1153.35
760.345	1112.39
760.528	1128.77
760.712	1116.48
760.895	1104.2
761.079	1136.96
761.263	1014.09
761.446	1050.95
761.63	1038.66
761.813	977.22
761.997	1126.72
762.18	1005.89
762.364	979.27
762.547	1016.13
762.731	1077.57
762.914	1007.94
763.098	950.6
763.281	993.61
763.464	954.69
763.648	1003.85
763.831	1003.85
764.015	1071.43
764.198	934.22
764.381	1055.05
764.564	913.74
764.748	1030.47
764.931	977.22
765.114	911.69
765.297	1026.37
765.481	874.82
765.664	985.41
765.847	923.98
766.03	954.69
766.213	891.21
766.397	964.93
766.58	913.74
766.763	971.08
766.946	917.83
767.129	897.35
767.312	813.38
767.495	872.78
767.678	917.83
767.861	964.93
768.044	846.15
768.227	944.45
768.41	956.74
768.593	919.88
768.776	887.11
768.959	815.43
769.142	868.68
769.324	909.64
769.507	905.54
769.69	868.68
769.873	823.62
770.056	866.63
770.239	731.47
770.421	899.4
770.604	868.68
770.787	747.85
770.97	819.53
771.152	756.04
771.335	811.34
771.518	842.06
771.7	897.35
771.883	819.53
772.066	721.23
772.248	702.79
772.431	846.15
772.613	768.33
772.796	833.86
772.978	776.52
773.161	760.14
773.343	749.9
773.526	729.42
773.708	753.99
773.891	692.55
774.073	747.85
774.256	680.27
774.438	760.14
774.621	729.42
774.803	797
774.985	655.69
775.168	729.42
775.35	770.38
775.532	721.23
775.715	704.84
775.897	764.23
776.079	665.93
776.261	684.36
776.444	645.45
776.626	641.36
776.808	600.4
776.99	682.31
777.173	647.5
777.355	633.16
777.537	696.65
777.719	692.55
777.901	641.36
778.083	579.92
778.265	618.83
778.447	584.01
778.629	569.68
778.811	518.48
778.993	657.74
779.175	592.2
779.357	596.3
779.539	512.33
779.721	643.4
779.903	629.07
780.085	526.67
780.267	594.25
780.449	629.07
780.631	559.44
780.812	622.92
780.994	469.33
781.176	604.49
781.358	530.77
781.54	530.77
781.721	541.01
781.903	534.86
782.085	510.29
782.267	567.63
782.448	489.81
782.63	452.94
782.812	463.18
782.993	567.63
783.175	498
783.357	426.32
783.538	401.74
783.72	459.09
783.901	481.61
784.083	487.76
784.264	522.57
784.446	393.55
784.627	442.7
784.809	485.71
784.99	479.57
785.172	481.61
785.353	375.12
785.535	416.08
785.716	424.27
785.897	426.32
786.079	473.42
786.26	465.23
786.441	440.65
786.623	375.12
786.804	422.22
786.985	387.41
787.167	426.32
787.348	360.78
787.529	420.17
787.71	506.19
787.891	371.02
788.073	391.5
788.254	336.21
788.435	475.47
788.616	383.31
788.797	309.58
788.978	319.82
789.159	352.59
789.34	383.31
789.522	434.51
789.703	375.12
789.884	373.07
790.065	381.26
790.246	297.3
790.427	342.35
790.607	452.94
790.788	473.42
790.969	301.39
791.15	344.4
791.331	309.58
791.512	346.45
791.693	344.4
791.874	258.39
792.054	338.26
792.235	379.22
792.416	340.3
792.597	287.06
792.778	280.91
792.958	330.06
793.139	330.06
793.32	280.91
793.5	282.96
793.681	295.25
793.862	295.25
794.042	260.43
794.223	301.39
794.404	330.06
794.584	358.74
794.765	297.3
794.945	307.54
795.126	307.54
795.306	401.74
795.487	272.72
795.667	305.49
795.848	301.39
796.028	328.02
796.209	407.89
796.389	301.39
796.57	280.91
796.75	254.29
796.93	260.43
797.111	272.72
797.291	321.87
797.471	272.72
797.652	229.71
797.832	282.96
798.012	252.24
798.192	256.34
798.373	258.39
798.553	289.1
798.733	225.62
798.913	256.34
799.093	215.38
799.274	213.33
799.454	295.25
799.634	264.53
799.814	244.05
799.994	237.91
800.174	223.57
800.354	264.53
800.534	229.71
800.714	250.19
800.894	172.37
801.074	215.38
801.254	239.95
801.434	215.38
801.614	274.77
801.794	219.47
801.974	801.1
802.154	192.85
802.334	213.33
802.514	153.94
802.693	233.81
802.873	209.23
803.053	325.97
803.233	139.6
803.413	190.8
803.592	231.76
803.772	260.43
803.952	252.24
804.131	209.23
804.311	260.43
804.491	209.23
804.67	229.71
804.85	190.8
805.03	227.67
805.209	192.85
805.389	170.32
805.568	112.98
805.748	166.23
805.928	229.71
806.107	227.67
806.287	198.99
806.466	178.51
806.646	196.95
806.825	166.23
807.004	205.14
807.184	211.28
807.363	254.29
807.543	153.94
807.722	211.28
807.901	182.61
808.081	215.38
808.26	115.03
808.439	239.95
808.619	162.13
808.798	246.1
808.977	227.67
809.156	252.24
809.336	117.08
809.515	170.32
809.694	174.42
809.873	242
810.052	178.51
810.231	227.67
810.411	186.71
810.59	227.67
810.769	108.88
810.948	180.56
811.127	117.08
811.306	147.8
811.485	170.32
811.664	145.75
811.843	198.99
812.022	78.16
812.201	225.62
812.38	127.32
812.559	141.65
812.737	166.23
812.916	117.08
813.095	88.4
813.274	180.56
813.453	149.84
813.632	180.56
813.811	137.56
813.989	106.84
814.168	162.13
814.347	174.42
814.526	227.67
814.704	168.27
814.883	242
815.062	127.32
815.24	178.51
815.419	72.02
815.598	215.38
815.776	155.99
815.955	121.17
816.133	153.94
816.312	141.65
816.49	141.65
816.669	145.75
816.847	147.8
817.026	90.45
817.204	143.7
817.383	106.84
817.561	176.47
817.74	112.98
817.918	153.94
818.097	100.69
818.275	162.13
818.453	174.42
818.632	131.41
818.81	108.88
818.988	129.36
819.167	115.03
819.345	135.51
819.523	147.8
819.701	188.75
819.879	149.84
820.058	149.84
820.236	121.17
820.414	86.36
820.592	137.56
820.77	158.03
820.948	100.69
821.127	92.5
821.305	86.36
821.483	115.03
821.661	131.41
821.839	117.08
822.017	106.84
822.195	182.61
822.373	141.65
822.551	104.79
822.729	110.93
822.907	125.27
823.085	74.07
823.262	143.7
823.44	61.78
823.618	162.13
823.796	100.69
823.974	108.88
824.152	108.88
824.329	49.49
824.507	151.89
824.685	115.03
824.863	119.12
825.04	90.45
825.218	119.12
825.396	63.83
825.574	100.69
825.751	129.36
825.929	59.73
826.107	123.22
826.284	121.17
826.462	59.73
826.639	65.88
826.817	129.36
826.994	139.6
827.172	147.8
827.349	110.93
827.527	69.97
827.704	170.32
827.882	119.12
828.059	94.55
828.237	98.64
828.414	65.88
828.591	74.07
828.769	88.4
828.946	135.51
829.124	129.36
829.301	88.4
829.478	108.88
829.655	76.12
829.833	82.26
830.01	112.98
830.187	192.85
830.364	88.4
830.542	129.36
830.719	67.92
830.896	74.07
831.073	51.54
831.25	141.65
831.427	112.98
831.604	88.4
831.782	80.21
831.959	143.7
832.136	78.16
832.313	125.27
832.49	92.5
832.667	86.36
832.844	22.87
833.021	43.35
833.198	98.64
833.374	125.27
833.551	65.88
833.728	127.32
833.905	131.41
834.082	92.5
834.259	-16.04
834.436	180.56
834.612	43.35
834.789	69.97
834.966	94.55
835.143	162.13
835.319	18.77
835.496	61.78
835.673	198.99
835.85	76.12
836.026	67.92
836.203	98.64
836.38	92.5
836.556	80.21
836.733	45.4
836.909	129.36
837.086	22.87
837.262	47.44
837.439	131.41
837.616	84.31
837.792	108.88
837.968	57.68
838.145	76.12
838.321	86.36
838.498	92.5
838.674	110.93
838.851	24.92
839.027	86.36
839.203	-3.75
839.38	88.4
839.556	86.36
839.732	63.83
839.909	145.75
840.085	102.74
840.261	100.69
840.437	26.96
840.614	72.02
840.79	67.92
840.966	29.01
841.142	69.97
841.318	92.5
841.494	57.68
841.671	110.93
841.847	92.5
842.023	59.73
842.199	82.26
842.375	90.45
842.551	26.96
842.727	149.84
842.903	61.78
843.079	-3.75
843.255	151.89
843.431	123.22
843.607	82.26
843.783	98.64
843.959	92.5
844.134	-26.28
844.31	41.3
844.486	74.07
844.662	22.87
844.838	-5.8
845.013	88.4
845.189	53.59
845.365	41.3
845.541	57.68
845.716	96.6
845.892	112.98
846.068	16.73
846.244	49.49
846.419	49.49
846.595	6.49
846.77	100.69
846.946	76.12
847.122	125.27
847.297	24.92
847.473	63.83
847.648	49.49
847.824	108.88
847.999	12.63
848.175	31.06
848.35	26.96
848.526	59.73
848.701	49.49
848.876	74.07
849.052	88.4
849.227	-5.8
849.403	20.82
849.578	39.25
849.753	108.88
849.929	6.49
850.104	69.97
850.279	65.88
850.454	137.56
850.63	-22.19
850.805	10.58
850.98	-18.09
851.155	41.3
851.33	72.02
851.505	43.35
851.681	98.64
851.856	29.01
852.031	72.02
852.206	74.07
852.381	74.07
852.556	37.2
852.731	90.45
852.906	80.21
853.081	-3.75
853.256	123.22
853.431	90.45
853.606	149.84
853.781	0.34
853.956	22.87
854.131	69.97
854.305	55.64
854.48	51.54
854.655	14.68
854.83	63.83
855.005	86.36
855.18	86.36
855.354	74.07
855.529	45.4
855.704	76.12
855.879	72.02
856.053	10.58
856.228	82.26
856.403	141.65
856.577	112.98
856.752	-48.81
856.926	108.88
857.101	16.73
857.276	14.68
857.45	10.58
857.625	98.64
857.799	16.73
857.974	22.87
858.148	14.68
858.323	61.78
858.497	43.35
858.672	22.87
858.846	59.73
859.02	82.26
859.195	-28.33
859.369	33.11
859.543	63.83
859.718	74.07
859.892	94.55
860.066	104.79
860.241	18.77
860.415	76.12
860.589	43.35
860.763	-38.57
860.938	-1.71
861.112	16.73
861.286	10.58
861.46	51.54
861.634	43.35
861.808	84.31
861.982	106.84
862.157	55.64
862.331	47.44
862.505	-22.19
862.679	26.96
862.853	47.44
863.027	-48.81
863.201	86.36
863.375	49.49
863.549	55.64
863.722	82.26
863.896	80.21
864.07	90.45
864.244	65.88
864.418	51.54
864.592	55.64
864.766	61.78
864.939	4.44
865.113	35.16
865.287	78.16
865.461	92.5
865.634	86.36
865.808	12.63
865.982	10.58
866.156	10.58
866.329	14.68
866.503	82.26
866.676	33.11
866.85	26.96
867.024	-22.19
867.197	96.6
867.371	59.73
867.544	51.54
867.718	53.59
867.891	59.73
868.065	39.25
868.238	-13.99
868.412	10.58
868.585	-26.28
868.759	-1.71
868.932	47.44
869.105	16.73
869.279	10.58
869.452	69.97
869.625	72.02
869.799	61.78
869.972	-1.71
870.145	4.44
870.319	-1.71
870.492	-16.04
870.665	65.88
870.838	35.16
871.011	-132.78
871.185	-9.9
871.358	59.73
871.531	43.35
871.704	59.73
871.877	47.44
872.05	18.77
872.223	0.34
872.396	59.73
872.569	108.88
872.742	57.68
872.915	82.26
873.088	80.21
873.261	16.73
873.434	39.25
873.607	16.73
873.78	61.78
873.953	39.25
874.126	33.11
874.299	-3.75
874.471	14.68
874.644	-20.14
874.817	26.96
874.99	72.02
875.163	37.2
875.335	31.06
875.508	35.16
875.681	82.26
875.853	39.25
876.026	10.58
876.199	43.35
876.371	-22.19
876.544	4.44
876.717	65.88
876.889	8.53
877.062	37.2
877.234	57.68
877.407	6.49
877.579	49.49
877.752	53.59
877.924	51.54
878.097	45.4
878.269	-30.38
878.442	-42.67
878.614	43.35
878.786	-18.09
878.959	129.36
879.131	67.92
879.303	14.68
879.476	35.16
879.648	65.88
879.82	31.06
879.993	24.92
880.165	84.31
880.337	2.39
880.509	72.02
880.681	-110.25
880.854	-16.04
881.026	22.87
881.198	112.98
881.37	43.35
881.542	76.12
881.714	-32.43
881.886	26.96
882.058	76.12
882.23	2.39
882.402	41.3
882.574	100.69
882.746	14.68
882.918	72.02
883.09	-18.09
883.262	31.06
883.434	-18.09
883.606	-3.75
883.778	104.79
883.95	35.16
884.122	18.77
884.293	80.21
884.465	20.82
884.637	76.12
884.809	18.77
884.98	51.54
885.152	49.49
885.324	-28.33
885.496	6.49
885.667	16.73
885.839	24.92
886.011	88.4
886.182	-1.71
886.354	72.02
886.525	67.92
886.697	39.25
886.869	-13.99
887.04	84.31
887.212	84.31
887.383	41.3
887.555	59.73
887.726	94.55
887.897	106.84
888.069	-9.9
888.24	55.64
888.412	-5.8
888.583	6.49
888.754	-7.85
888.926	45.4
889.097	69.97
889.268	-54.95
889.44	12.63
889.611	43.35
889.782	76.12
889.953	-9.9
890.125	96.6
890.296	-40.62
890.467	22.87
890.638	-11.95
890.809	0.34
890.98	-32.43
891.151	51.54
891.323	41.3
891.494	-24.23
891.665	39.25
891.836	63.83
892.007	-67.24
892.178	63.83
892.349	76.12
892.52	-30.38
892.691	31.06
892.862	26.96
893.032	31.06
893.203	-20.14
893.374	24.92
893.545	6.49
893.716	8.53
893.887	74.07
894.057	45.4
894.228	29.01
894.399	-18.09
894.57	108.88
894.74	8.53
894.911	-36.52
895.082	98.64
895.253	45.4
895.423	-69.29
895.594	29.01
895.764	96.6
895.935	-52.91
896.106	82.26
896.276	43.35
896.447	80.21
896.617	-16.04
896.788	-9.9
896.958	-52.91
897.129	0.34
897.299	59.73
897.47	4.44
897.64	6.49
897.81	26.96
897.981	92.5
898.151	12.63
898.322	0.34
898.492	43.35
898.662	33.11
898.832	41.3
899.003	-42.67
899.173	2.39
899.343	63.83
899.513	0.34
