Data from USB4F104151__35__10-22-11-784.txt Node

Date: Wed Mar 12 10:22:11 EDT 2025
User: louis
Spectrometer: USB4F10415
Trigger mode: 4
Integration Time (sec): 3.000000E-2
Scans to average: 1
Electric dark correction enabled: true
Nonlinearity correction enabled: false
Boxcar width: 0
XAxis mode: Wavelengths
Number of Pixels in Spectrum: 3648
>>>>>Begin Spectral Data<<<<<
178.204	-95.57
178.424	-95.57
178.644	-95.57
178.864	-181.59
179.084	-120.15
179.304	-13.65
179.524	-46.42
179.744	33.45
179.964	33.45
180.184	0.68
180.404	31.4
180.624	-32.08
180.844	84.65
181.064	-71
181.283	-46.42
181.503	15.02
181.723	10.92
181.943	-42.32
182.163	49.83
182.383	12.97
182.602	8.87
182.822	25.26
183.042	72.36
183.262	60.07
183.482	-30.04
183.701	33.45
183.921	19.11
184.141	94.89
184.361	-13.65
184.58	47.79
184.8	2.73
185.02	6.83
185.239	64.17
185.459	53.93
185.679	-9.56
185.898	12.97
186.118	76.46
186.338	43.69
186.557	39.59
186.777	-64.85
186.997	43.69
187.216	-7.51
187.436	78.51
187.655	25.26
187.875	15.02
188.095	84.65
188.314	47.79
188.534	27.31
188.753	-40.28
188.973	27.31
189.192	60.07
189.412	-13.65
189.631	33.45
189.851	21.16
190.07	84.65
190.29	80.55
190.509	8.87
190.729	35.5
190.948	70.31
191.168	72.36
191.387	88.75
191.607	10.92
191.826	-15.7
192.045	8.87
192.265	23.21
192.484	10.92
192.704	31.4
192.923	4.78
193.142	80.55
193.362	39.59
193.581	105.13
193.8	-30.04
194.02	64.17
194.239	51.88
194.458	23.21
194.678	33.45
194.897	19.11
195.116	76.46
195.335	43.69
195.555	-44.37
195.774	-40.28
195.993	47.79
196.212	2.73
196.432	15.02
196.651	33.45
196.87	-17.75
197.089	58.03
197.308	72.36
197.528	15.02
197.747	25.26
197.966	45.74
198.185	17.07
198.404	-21.84
198.623	39.59
198.842	43.69
199.062	68.27
199.281	39.59
199.5	-21.84
199.719	-9.56
199.938	78.51
200.157	88.75
200.376	-23.89
200.595	92.84
200.814	53.93
201.033	-32.08
201.252	74.41
201.471	10.92
201.69	35.5
201.909	51.88
202.128	23.21
202.347	-42.32
202.566	58.03
202.785	17.07
203.004	0.68
203.223	66.22
203.442	76.46
203.661	60.07
203.879	-9.56
204.098	-9.56
204.317	15.02
204.536	21.16
204.755	45.74
204.974	109.23
205.193	23.21
205.411	68.27
205.63	64.17
205.849	62.12
206.068	-5.46
206.287	35.5
206.505	27.31
206.724	35.5
206.943	27.31
207.162	-23.89
207.381	-38.23
207.599	-30.04
207.818	74.41
208.037	0.68
208.255	0.68
208.474	41.64
208.693	80.55
208.911	35.5
209.13	-7.51
209.349	76.46
209.567	2.73
209.786	39.59
210.005	21.16
210.223	29.35
210.442	4.78
210.661	45.74
210.879	-21.84
211.098	82.6
211.316	27.31
211.535	15.02
211.753	51.88
211.972	45.74
212.191	-9.56
212.409	23.21
212.628	8.87
212.846	12.97
213.065	31.4
213.283	66.22
213.502	2.73
213.72	35.5
213.938	2.73
214.157	-19.8
214.375	-23.89
214.594	41.64
214.812	8.87
215.031	2.73
215.249	29.35
215.467	84.65
215.686	-5.46
215.904	19.11
216.122	51.88
216.341	62.12
216.559	33.45
216.778	29.35
216.996	74.41
217.214	-3.41
217.432	74.41
217.651	8.87
217.869	66.22
218.087	101.03
218.306	0.68
218.524	64.17
218.742	6.83
218.96	33.45
219.179	47.79
219.397	55.98
219.615	49.83
219.833	29.35
220.051	55.98
220.27	76.46
220.488	29.35
220.706	15.02
220.924	-27.99
221.142	-15.7
221.36	-23.89
221.578	47.79
221.796	62.12
222.015	31.4
222.233	-3.41
222.451	58.03
222.669	58.03
222.887	101.03
223.105	15.02
223.323	41.64
223.541	17.07
223.759	31.4
223.977	64.17
224.195	6.83
224.413	-1.37
224.631	43.69
224.849	-40.28
225.067	94.89
225.285	-36.18
225.503	-9.56
225.721	-81.24
225.939	41.64
226.157	74.41
226.375	135.85
226.592	-9.56
226.81	-34.13
227.028	21.16
227.246	82.6
227.464	53.93
227.682	78.51
227.9	43.69
228.117	2.73
228.335	55.98
228.553	47.79
228.771	-13.65
228.989	17.07
229.206	23.21
229.424	-97.62
229.642	-17.75
229.86	4.78
230.077	-58.71
230.295	-9.56
230.513	141.99
230.731	33.45
230.948	72.36
231.166	12.97
231.384	-15.7
231.601	35.5
231.819	-13.65
232.037	-64.85
232.254	10.92
232.472	43.69
232.689	-38.23
232.907	55.98
233.125	-3.41
233.342	35.5
233.56	-1.37
233.777	103.08
233.995	21.16
234.213	76.46
234.43	8.87
234.648	41.64
234.865	43.69
235.083	78.51
235.3	21.16
235.518	8.87
235.735	49.83
235.953	-9.56
236.17	-9.56
236.388	68.27
236.605	70.31
236.822	-15.7
237.04	49.83
237.257	51.88
237.475	-54.61
237.692	-9.56
237.909	21.16
238.127	53.93
238.344	8.87
238.562	6.83
238.779	78.51
238.996	-25.94
239.214	86.7
239.431	39.59
239.648	8.87
239.865	-1.37
240.083	0.68
240.3	17.07
240.517	-17.75
240.735	88.75
240.952	35.5
241.169	82.6
241.386	-13.65
241.603	-21.84
241.821	-11.61
242.038	98.99
242.255	23.21
242.472	23.21
242.689	51.88
242.907	94.89
243.124	84.65
243.341	62.12
243.558	8.87
243.775	-1.37
243.992	-48.47
244.209	6.83
244.426	47.79
244.643	33.45
244.86	10.92
245.078	-7.51
245.295	17.07
245.512	64.17
245.729	-7.51
245.946	35.5
246.163	23.21
246.38	92.84
246.597	41.64
246.814	47.79
247.031	39.59
247.248	55.98
247.464	37.55
247.681	-15.7
247.898	-52.56
248.115	80.55
248.332	-87.38
248.549	4.78
248.766	103.08
248.983	23.21
249.2	35.5
249.417	41.64
249.633	-21.84
249.85	84.65
250.067	23.21
250.284	55.98
250.501	60.07
250.717	27.31
250.934	-9.56
251.151	62.12
251.368	21.16
251.585	98.99
251.801	68.27
252.018	10.92
252.235	41.64
252.451	37.55
252.668	15.02
252.885	109.23
253.102	35.5
253.318	-30.04
253.535	35.5
253.752	35.5
253.968	-3.41
254.185	12.97
254.401	-5.46
254.618	8.87
254.835	64.17
255.051	31.4
255.268	88.75
255.484	58.03
255.701	-23.89
255.917	62.12
256.134	35.5
256.351	19.11
256.567	-15.7
256.784	-25.94
257	55.98
257.217	35.5
257.433	35.5
257.65	35.5
257.866	43.69
258.082	37.55
258.299	17.07
258.515	-9.56
258.732	29.35
258.948	43.69
259.165	35.5
259.381	-46.42
259.597	-21.84
259.814	31.4
260.03	70.31
260.246	86.7
260.463	74.41
260.679	53.93
260.895	15.02
261.112	84.65
261.328	84.65
261.544	6.83
261.761	107.18
261.977	37.55
262.193	4.78
262.409	-46.42
262.626	15.02
262.842	53.93
263.058	-124.24
263.274	64.17
263.49	8.87
263.707	141.99
263.923	66.22
264.139	68.27
264.355	47.79
264.571	31.4
264.787	51.88
265.004	33.45
265.22	-30.04
265.436	6.83
265.652	-23.89
265.868	109.23
266.084	4.78
266.3	66.22
266.516	19.11
266.732	19.11
266.948	25.26
267.164	-36.18
267.38	41.64
267.596	72.36
267.812	68.27
268.028	66.22
268.244	-9.56
268.46	86.7
268.676	31.4
268.892	29.35
269.108	-9.56
269.324	6.83
269.54	-34.13
269.756	64.17
269.972	15.02
270.188	-3.41
270.403	6.83
270.619	60.07
270.835	27.31
271.051	8.87
271.267	29.35
271.483	25.26
271.698	58.03
271.914	23.21
272.13	-7.51
272.346	84.65
272.562	19.11
272.777	21.16
272.993	19.11
273.209	41.64
273.425	-7.51
273.64	2.73
273.856	66.22
274.072	41.64
274.287	2.73
274.503	2.73
274.719	62.12
274.934	88.75
275.15	-25.94
275.366	23.21
275.581	-25.94
275.797	4.78
276.012	88.75
276.228	70.31
276.444	68.27
276.659	141.99
276.875	-32.08
277.09	12.97
277.306	58.03
277.521	31.4
277.737	-38.23
277.952	25.26
278.168	27.31
278.383	8.87
278.599	27.31
278.814	2.73
279.03	0.68
279.245	23.21
279.461	41.64
279.676	94.89
279.892	8.87
280.107	-44.37
280.322	-46.42
280.538	62.12
280.753	-9.56
280.969	17.07
281.184	21.16
281.399	53.93
281.615	0.68
281.83	35.5
282.045	23.21
282.26	-42.32
282.476	64.17
282.691	19.11
282.906	43.69
283.122	49.83
283.337	-5.46
283.552	88.75
283.767	-30.04
283.983	82.6
284.198	17.07
284.413	74.41
284.628	4.78
284.843	80.55
285.058	-9.56
285.274	88.75
285.489	21.16
285.704	76.46
285.919	49.83
286.134	19.11
286.349	-1.37
286.564	23.21
286.779	27.31
286.995	25.26
287.21	-30.04
287.425	6.83
287.64	-7.51
287.855	45.74
288.07	2.73
288.285	12.97
288.5	37.55
288.715	31.4
288.93	78.51
289.145	-54.61
289.36	98.99
289.575	37.55
289.79	66.22
290.004	53.93
290.219	-13.65
290.434	72.36
290.649	33.45
290.864	35.5
291.079	39.59
291.294	74.41
291.509	29.35
291.724	39.59
291.938	0.68
292.153	117.42
292.368	6.83
292.583	29.35
292.798	10.92
293.012	31.4
293.227	62.12
293.442	-46.42
293.657	31.4
293.871	103.08
294.086	33.45
294.301	117.42
294.516	53.93
294.73	76.46
294.945	6.83
295.16	8.87
295.374	31.4
295.589	35.5
295.804	10.92
296.018	45.74
296.233	53.93
296.447	43.69
296.662	-32.08
296.877	86.7
297.091	133.8
297.306	-38.23
297.52	111.27
297.735	-79.19
297.949	-5.46
298.164	92.84
298.378	-15.7
298.593	105.13
298.807	49.83
299.022	68.27
299.236	76.46
299.451	-32.08
299.665	35.5
299.88	47.79
300.094	76.46
300.309	53.93
300.523	80.55
300.737	72.36
300.952	-9.56
301.166	6.83
301.381	10.92
301.595	0.68
301.809	41.64
302.024	25.26
302.238	-21.84
302.452	33.45
302.667	23.21
302.881	-25.94
303.095	15.02
303.309	55.98
303.524	-9.56
303.738	35.5
303.952	-32.08
304.166	25.26
304.381	51.88
304.595	43.69
304.809	0.68
305.023	-1.37
305.237	58.03
305.452	80.55
305.666	119.46
305.88	94.89
306.094	49.83
306.308	27.31
306.522	72.36
306.736	49.83
306.95	98.99
307.164	64.17
307.379	-5.46
307.593	27.31
307.807	15.02
308.021	-27.99
308.235	-32.08
308.449	-50.52
308.663	43.69
308.877	66.22
309.091	31.4
309.305	62.12
309.519	10.92
309.733	55.98
309.947	-52.56
310.161	53.93
310.374	111.27
310.588	62.12
310.802	15.02
311.016	53.93
311.23	92.84
311.444	72.36
311.658	47.79
311.872	62.12
312.085	-15.7
312.299	62.12
312.513	23.21
312.727	25.26
312.941	-9.56
313.154	62.12
313.368	43.69
313.582	82.6
313.796	-27.99
314.009	-30.04
314.223	-3.41
314.437	76.46
314.651	98.99
314.864	25.26
315.078	-30.04
315.292	-25.94
315.505	27.31
315.719	105.13
315.933	88.75
316.146	19.11
316.36	27.31
316.573	10.92
316.787	37.55
317.001	29.35
317.214	-44.37
317.428	51.88
317.641	84.65
317.855	35.5
318.068	19.11
318.282	25.26
318.495	39.59
318.709	115.37
318.922	80.55
319.136	-5.46
319.349	82.6
319.563	49.83
319.776	6.83
319.99	-5.46
320.203	58.03
320.417	-54.61
320.63	43.69
320.843	68.27
321.057	19.11
321.27	19.11
321.483	72.36
321.697	117.42
321.91	135.85
322.124	70.31
322.337	78.51
322.55	19.11
322.763	-7.51
322.977	60.07
323.19	43.69
323.403	31.4
323.617	43.69
323.83	53.93
324.043	6.83
324.256	35.5
324.469	-5.46
324.683	76.46
324.896	74.41
325.109	101.03
325.322	-23.89
325.535	45.74
325.748	-7.51
325.962	17.07
326.175	45.74
326.388	41.64
326.601	101.03
326.814	-1.37
327.027	74.41
327.24	60.07
327.453	41.64
327.666	-1.37
327.879	49.83
328.092	37.55
328.305	51.88
328.518	55.98
328.731	8.87
328.944	-25.94
329.157	17.07
329.37	-23.89
329.583	47.79
329.796	96.94
330.009	29.35
330.222	51.88
330.435	51.88
330.648	35.5
330.861	35.5
331.073	84.65
331.286	76.46
331.499	74.41
331.712	12.97
331.925	55.98
332.138	8.87
332.35	70.31
332.563	68.27
332.776	105.13
332.989	0.68
333.202	68.27
333.414	72.36
333.627	-13.65
333.84	0.68
334.053	-1.37
334.265	31.4
334.478	15.02
334.691	49.83
334.903	31.4
335.116	39.59
335.329	92.84
335.541	-9.56
335.754	12.97
335.966	25.26
336.179	-40.28
336.392	43.69
336.604	-1.37
336.817	64.17
337.029	29.35
337.242	80.55
337.454	60.07
337.667	84.65
337.88	84.65
338.092	113.32
338.305	90.79
338.517	72.36
338.729	66.22
338.942	90.79
339.154	-15.7
339.367	66.22
339.579	-13.65
339.792	41.64
340.004	154.28
340.217	25.26
340.429	19.11
340.641	88.75
340.854	35.5
341.066	88.75
341.278	39.59
341.491	19.11
341.703	19.11
341.915	35.5
342.128	39.59
342.34	123.56
342.552	2.73
342.764	19.11
342.977	19.11
343.189	72.36
343.401	21.16
343.613	-44.37
343.826	27.31
344.038	35.5
344.25	39.59
344.462	10.92
344.674	47.79
344.886	84.65
345.099	43.69
345.311	-3.41
345.523	47.79
345.735	27.31
345.947	43.69
346.159	-32.08
346.371	10.92
346.583	60.07
346.795	31.4
347.007	53.93
347.219	21.16
347.431	-23.89
347.643	49.83
347.855	12.97
348.067	23.21
348.279	23.21
348.491	35.5
348.703	-13.65
348.915	45.74
349.127	-5.46
349.339	90.79
349.551	60.07
349.763	53.93
349.975	-9.56
350.187	23.21
350.399	119.46
350.61	68.27
350.822	60.07
351.034	107.18
351.246	0.68
351.458	101.03
351.669	68.27
351.881	62.12
352.093	15.02
352.305	-3.41
352.517	43.69
352.728	121.51
352.94	-13.65
353.152	6.83
353.363	19.11
353.575	94.89
353.787	6.83
353.999	90.79
354.21	76.46
354.422	-17.75
354.633	23.21
354.845	47.79
355.057	33.45
355.268	43.69
355.48	41.64
355.692	45.74
355.903	23.21
356.115	98.99
356.326	31.4
356.538	119.46
356.749	10.92
356.961	37.55
357.172	27.31
357.384	94.89
357.595	133.8
357.807	-44.37
358.018	-34.13
358.23	-5.46
358.441	74.41
358.653	31.4
358.864	41.64
359.075	74.41
359.287	-19.8
359.498	144.04
359.709	2.73
359.921	84.65
360.132	47.79
360.344	90.79
360.555	-13.65
360.766	101.03
360.977	117.42
361.189	123.56
361.4	74.41
361.611	49.83
361.823	39.59
362.034	74.41
362.245	-32.08
362.456	33.45
362.667	4.78
362.879	23.21
363.09	74.41
363.301	90.79
363.512	12.97
363.723	-32.08
363.935	60.07
364.146	49.83
364.357	86.7
364.568	70.31
364.779	19.11
364.99	41.64
365.201	-7.51
365.412	76.46
365.623	70.31
365.834	90.79
366.045	17.07
366.256	25.26
366.467	51.88
366.678	43.69
366.889	78.51
367.1	76.46
367.311	92.84
367.522	39.59
367.733	74.41
367.944	123.56
368.155	60.07
368.366	58.03
368.577	39.59
368.788	43.69
368.999	27.31
369.209	17.07
369.42	53.93
369.631	70.31
369.842	29.35
370.053	29.35
370.264	107.18
370.474	103.08
370.685	43.69
370.896	76.46
371.107	117.42
371.317	60.07
371.528	29.35
371.739	80.55
371.95	-5.46
372.16	115.37
372.371	15.02
372.582	113.32
372.792	62.12
373.003	88.75
373.214	60.07
373.424	141.99
373.635	33.45
373.846	68.27
374.056	60.07
374.267	101.03
374.477	105.13
374.688	86.7
374.898	68.27
375.109	154.28
375.319	98.99
375.53	109.23
375.74	68.27
375.951	101.03
376.161	76.46
376.372	12.97
376.582	15.02
376.793	76.46
377.003	-38.23
377.214	58.03
377.424	90.79
377.635	111.27
377.845	10.92
378.055	45.74
378.266	6.83
378.476	78.51
378.686	43.69
378.897	-21.84
379.107	98.99
379.317	12.97
379.528	68.27
379.738	60.07
379.948	41.64
380.158	133.8
380.369	107.18
380.579	-19.8
380.789	35.5
380.999	49.83
381.21	115.37
381.42	123.56
381.63	43.69
381.84	76.46
382.05	53.93
382.261	68.27
382.471	109.23
382.681	60.07
382.891	133.8
383.101	90.79
383.311	111.27
383.521	80.55
383.731	131.75
383.941	125.61
384.151	148.14
384.361	94.89
384.571	98.99
384.781	109.23
384.991	88.75
385.201	111.27
385.411	19.11
385.621	68.27
385.831	31.4
386.041	55.98
386.251	41.64
386.461	60.07
386.671	74.41
386.881	66.22
387.091	23.21
387.301	139.94
387.511	17.07
387.72	19.11
387.93	49.83
388.14	60.07
388.35	109.23
388.56	139.94
388.769	107.18
388.979	43.69
389.189	82.6
389.399	25.26
389.609	-3.41
389.818	94.89
390.028	66.22
390.238	101.03
390.447	94.89
390.657	25.26
390.867	141.99
391.076	-9.56
391.286	33.45
391.496	82.6
391.705	101.03
391.915	109.23
392.125	170.66
392.334	51.88
392.544	111.27
392.753	109.23
392.963	88.75
393.172	141.99
393.382	45.74
393.591	182.95
393.801	103.08
394.01	103.08
394.22	109.23
394.429	111.27
394.639	84.65
394.848	146.09
395.058	33.45
395.267	139.94
395.477	117.42
395.686	162.47
395.895	121.51
396.105	174.76
396.314	88.75
396.524	96.94
396.733	139.94
396.942	111.27
397.152	78.51
397.361	96.94
397.57	84.65
397.78	84.65
397.989	105.13
398.198	166.57
398.407	174.76
398.617	154.28
398.826	35.5
399.035	146.09
399.244	180.9
399.453	109.23
399.663	141.99
399.872	137.9
400.081	68.27
400.29	207.53
400.499	96.94
400.708	96.94
400.917	119.46
401.127	133.8
401.336	78.51
401.545	197.29
401.754	182.95
401.963	180.9
402.172	80.55
402.381	146.09
402.59	219.82
402.799	152.23
403.008	201.38
403.217	117.42
403.426	178.86
403.635	156.33
403.844	158.38
404.053	109.23
404.262	76.46
404.471	180.9
404.68	133.8
404.888	240.3
405.097	113.32
405.306	178.86
405.515	185
405.724	160.42
405.933	213.67
406.142	205.48
406.35	283.3
406.559	193.19
406.768	330.41
406.977	295.59
407.185	279.21
407.394	264.87
407.603	264.87
407.812	299.69
408.02	281.25
408.229	320.17
408.438	275.11
408.646	301.73
408.855	352.93
409.064	326.31
409.272	400.04
409.481	387.75
409.69	346.79
409.898	309.93
410.107	322.21
410.315	400.04
410.524	438.95
410.733	473.76
410.941	361.13
411.15	484
411.358	453.28
411.567	477.86
411.775	484
411.984	520.87
412.192	645.79
412.401	518.82
412.609	555.68
412.818	576.16
413.026	565.92
413.234	631.46
413.443	680.61
413.651	719.52
413.86	658.08
414.068	701.09
414.276	793.25
414.485	729.76
414.693	852.64
414.901	875.17
415.11	858.78
415.318	809.63
415.526	895.65
415.734	920.22
415.943	967.32
416.151	1034.91
416.359	1129.11
416.567	1055.39
416.776	1104.54
416.984	1254.04
417.192	1297.05
417.4	1190.55
417.608	1276.57
417.817	1299.09
418.025	1333.91
418.233	1452.69
418.441	1534.61
418.649	1501.84
418.857	1682.07
419.065	1759.89
419.273	1540.76
419.481	1735.31
419.689	1792.66
419.897	1878.67
420.105	1962.64
420.313	2009.74
420.521	2056.84
420.729	2128.52
420.937	2230.92
421.145	2138.76
421.353	2304.65
421.561	2349.7
421.769	2536.07
421.977	2581.12
422.185	2679.43
422.393	2673.28
422.601	2947.71
422.809	2960
423.017	2910.85
423.224	3074.68
423.432	3209.85
423.64	3168.89
423.848	3498.61
424.056	3480.18
424.263	3674.74
424.471	3578.48
424.679	3721.84
424.887	3875.44
425.094	4057.71
425.302	3959.41
425.51	4287.08
425.718	4244.07
425.925	4342.38
426.133	4549.22
426.341	4860.51
426.548	5053.02
426.756	5061.21
426.964	5096.03
427.171	5163.61
427.379	5548.63
427.586	5532.25
427.794	5657.17
428.001	6115.92
428.209	6138.44
428.417	6117.97
428.624	6636.1
428.832	6558.28
429.039	6715.97
429.247	6609.48
429.454	7387.71
429.662	7502.39
429.869	7242.3
430.076	7699
430.284	7500.34
430.491	7803.44
430.699	8172.08
430.906	8198.7
431.114	8290.86
431.321	8673.83
431.528	8675.88
431.736	9361.95
431.943	9789.97
432.15	9515.55
432.358	9675.29
432.565	10144.27
432.772	10256.91
432.979	10983.94
433.187	10867.2
433.394	10813.96
433.601	11590.14
433.808	11618.81
434.016	11524.6
434.223	12263.92
434.43	12763.62
434.637	12485.1
434.844	13578.72
435.052	13588.96
435.259	13445.6
435.466	13685.21
435.673	13519.32
435.88	14594.51
436.087	15010.25
436.294	15235.52
436.501	14735.82
436.708	14891.46
436.915	15634.88
437.122	16271.79
437.329	16259.51
437.537	16658.86
437.743	17025.45
437.95	16949.67
438.157	17858.97
438.364	18657.68
438.571	18364.82
438.778	18626.96
438.985	20117.88
439.192	19382.66
439.399	20203.89
439.606	19384.71
439.813	20625.78
440.02	21956.96
440.227	21500.26
440.433	21123.43
440.64	22126.94
440.847	21883.23
441.054	22247.77
441.261	23963.97
441.467	23509.32
441.674	23951.68
441.881	24914.22
442.088	24920.37
442.294	24949.04
442.501	25366.82
442.708	25778.47
442.914	27046.16
443.121	27744.52
443.328	27599.11
443.534	29028.59
443.741	28528.89
443.948	27781.38
444.154	30044.38
444.361	29552.87
444.568	29616.36
444.774	30103.78
444.981	30437.59
445.187	31043.79
445.394	32522.43
445.6	32053.44
445.807	35043.48
446.013	33708.2
446.22	34447.52
446.426	35631.24
446.633	35932.29
446.839	36946.04
447.046	35365.01
447.252	37179.51
447.459	37402.74
447.665	37019.77
447.871	38959.19
448.078	39950.41
448.284	38275.17
448.491	39872.59
448.697	41156.66
448.903	41898.03
449.11	41930.79
449.316	40687.68
449.522	41816.11
449.728	43018.27
449.935	42901.53
450.141	43102.23
450.347	44206.09
450.553	42866.72
450.76	43098.14
450.966	44441.6
451.172	43974.67
451.378	44683.26
451.584	44158.98
451.791	45176.83
451.997	44953.6
452.203	45498.36
452.409	45117.43
452.615	45137.91
452.821	43552.79
453.027	43581.46
453.233	45019.13
453.44	43454.48
453.646	43915.28
453.852	44009.48
454.058	45232.12
454.264	43008.03
454.47	44277.77
454.676	43114.52
454.882	44587.01
455.088	40542.27
455.294	41304.12
455.5	42012.71
455.705	42258.47
455.911	40722.49
456.117	39903.31
456.323	39108.69
456.529	37562.48
456.735	38645.85
456.941	37361.78
457.147	37462.13
457.352	36049.03
457.558	35580.04
457.764	35575.95
457.97	34992.28
458.176	34492.57
458.381	34347.17
458.587	32536.76
458.793	32362.68
458.999	30834.9
459.204	33056.95
459.41	31891.65
459.616	30171.36
459.821	30136.54
460.027	29995.23
460.233	29702.37
460.438	27863.3
460.644	28371.19
460.85	27199.76
461.055	26681.62
461.261	26409.24
461.466	24830.26
461.672	23906.62
461.878	25391.4
462.083	23494.98
462.289	23615.81
462.494	23408.97
462.7	22395.22
462.905	21467.49
463.111	22614.35
463.316	22085.98
463.522	22425.94
463.727	21885.28
463.932	21948.76
464.138	21825.89
464.343	21709.15
464.549	21082.47
464.754	22192.47
464.959	21862.75
465.165	21481.83
465.37	20748.65
465.575	20427.12
465.781	20937.07
465.986	21195.11
466.191	20142.46
466.397	20044.15
466.602	19065.22
466.807	19745.15
467.012	19827.07
467.218	19585.41
467.423	19216.77
467.628	19634.56
467.833	20339.06
468.038	19691.9
468.244	19231.11
468.449	19728.77
468.654	19104.14
468.859	19026.31
469.064	18977.16
469.269	18336.15
469.474	18405.78
469.679	18784.65
469.885	18006.42
470.09	18407.83
470.295	18252.18
470.5	18000.28
470.705	17783.2
470.91	17299.87
471.115	17197.48
471.32	17658.27
471.525	17656.22
471.73	17105.32
471.935	17045.93
472.139	16263.6
472.344	16642.48
472.549	16628.14
472.754	16234.93
472.959	15917.5
473.164	15477.18
473.369	15608.25
473.574	16081.33
473.778	15980.98
473.983	15538.62
474.188	15645.12
474.393	14991.81
474.598	14873.03
474.802	14930.37
475.007	14930.37
475.212	14617.04
475.417	14182.87
475.621	14301.65
475.826	14459.34
476.031	14219.73
476.235	13773.27
476.44	14045.65
476.645	13603.29
476.849	13648.35
477.054	13623.77
477.259	13310.43
477.463	13523.42
477.668	12904.93
477.872	13220.32
478.077	12911.08
478.282	12765.67
478.486	12771.82
478.691	12558.83
478.895	12450.28
479.1	12356.08
479.304	12532.2
479.509	12225.01
479.713	12501.48
479.918	11962.87
480.122	11889.14
480.326	12073.46
480.531	12048.88
480.735	11954.68
480.94	11889.14
481.144	12261.87
481.348	11813.37
481.553	11891.19
481.757	11516.41
481.961	11913.72
482.166	12110.32
482.37	11717.11
482.574	11583.99
482.778	11694.58
482.983	11682.3
483.187	11792.89
483.391	11823.61
483.595	11518.46
483.8	11504.12
484.004	11772.41
484.208	11545.08
484.412	11622.91
484.616	11760.12
484.821	11713.02
485.025	11342.33
485.229	11696.63
485.433	11588.09
485.637	11708.92
485.841	11583.99
486.045	11395.58
486.249	11698.68
486.453	11545.08
486.657	11770.36
486.861	11733.5
487.065	11598.33
487.269	11680.25
487.473	11485.69
487.677	11674.1
487.881	11829.75
488.085	11495.93
488.289	11471.36
488.493	11741.69
488.697	11725.3
488.901	11596.28
489.105	11612.67
489.309	11674.1
489.512	11997.68
489.716	11770.36
489.92	11792.89
490.124	11872.76
490.328	12157.43
490.531	11807.22
490.735	12167.66
490.939	12138.99
491.143	12261.87
491.346	11946.48
491.55	12247.54
491.754	12284.4
491.958	12425.71
492.161	12403.18
492.365	12366.32
492.569	12354.03
492.772	12372.46
492.976	12589.55
493.18	12466.67
493.383	12589.55
493.587	12870.12
493.79	13101.54
493.994	12816.87
494.197	12782.06
494.401	13273.57
494.605	13142.5
494.808	13189.6
495.012	13591
495.215	13482.46
495.419	13664.73
495.622	13685.21
495.825	13754.84
496.029	13586.91
496.232	13965.78
496.436	14049.75
496.639	14293.46
496.843	14590.41
497.046	14582.22
497.249	14678.47
497.453	14672.33
497.656	15038.92
497.859	15206.85
498.063	14965.19
498.266	15473.09
498.469	15552.96
498.673	15679.93
498.876	15749.56
499.079	15999.41
499.282	16101.81
499.485	16243.12
499.689	16615.85
499.892	16613.81
500.095	16705.96
500.298	17002.92
500.501	17076.65
500.705	17729.95
500.908	17637.79
501.111	17744.28
501.314	17820.06
501.517	18176.41
501.72	18629.01
501.923	18291.09
502.126	18989.45
502.329	19210.63
502.532	19241.35
502.735	19304.84
502.938	19663.23
503.141	19753.34
503.344	20023.67
503.547	20103.54
503.75	20621.68
503.953	20982.12
504.156	21064.04
504.359	21105
504.562	21205.35
504.765	21731.68
504.968	21805.41
505.17	22071.64
505.373	22266.2
505.576	22491.48
505.779	23013.71
505.982	23026
506.185	23509.32
506.387	23447.88
506.59	23802.18
506.793	24189.24
506.996	23992.64
507.198	24893.74
507.401	24916.27
507.604	25098.54
507.807	25403.69
508.009	25792.8
508.212	26063.13
508.415	26169.63
508.617	26720.53
508.82	26810.64
509.022	26585.37
509.225	27074.83
509.428	27584.77
509.63	27658.5
509.833	27764.99
510.035	28510.46
510.238	28217.6
510.44	28950.77
510.643	29063.41
510.845	29286.64
511.048	29315.31
511.25	29966.56
511.453	30314.72
511.655	31299.79
511.858	30726.36
512.06	31236.3
512.262	31547.59
512.465	32008.39
512.667	32270.53
512.87	32440.51
513.072	32741.56
513.274	32880.82
513.477	33226.93
513.679	33720.49
513.881	33964.2
514.084	34318.49
514.286	34556.06
514.488	34482.33
514.69	35842.18
514.893	35537.04
515.095	35532.94
515.297	36612.22
515.499	36434.05
515.701	36530.3
515.904	37447.79
516.106	37550.19
516.308	38074.47
516.51	38494.3
516.712	38303.84
516.914	38643.8
517.116	39585.87
517.318	39401.55
517.52	39800.91
517.722	39749.71
517.925	40300.61
518.127	40679.49
518.329	41113.66
518.531	41037.88
518.733	41801.77
518.935	42360.87
519.136	42432.55
519.338	42852.38
519.54	42997.79
519.742	43225.11
519.944	43937.8
520.146	43995.15
520.348	44050.44
520.55	45015.04
520.752	45019.13
520.954	45637.62
521.155	45471.73
521.357	45924.33
521.559	46477.29
521.761	47042.52
521.963	46661.6
522.164	47173.59
522.366	47300.57
522.568	47976.4
522.77	47757.27
522.971	48660.42
523.173	48205.77
523.375	49168.32
523.576	48951.23
523.778	49035.2
523.98	49977.26
524.181	49854.39
524.383	49950.64
524.584	50558.89
524.786	50526.12
524.988	50716.58
525.189	50605.99
525.391	51466.14
525.592	51589.02
525.794	51658.65
525.995	51795.86
526.197	52023.18
526.398	52017.04
526.6	52629.38
526.801	52715.4
527.003	53047.17
527.204	53503.87
527.406	53585.78
527.607	53522.3
527.808	54028.15
528.01	53170.05
528.211	53624.7
528.412	54574.95
528.614	54234.99
528.815	54583.15
529.016	55033.7
529.218	54386.54
529.419	54630.25
529.62	55138.15
529.822	54775.65
530.023	54808.42
530.224	55082.85
530.425	55105.38
530.626	54630.25
530.828	54589.29
531.029	55719.77
531.23	55344.99
531.431	55476.06
531.632	55676.76
531.833	56022.87
532.035	55652.19
532.236	56088.4
532.437	55873.37
532.638	55740.25
532.839	56201.04
533.04	56012.63
533.241	55992.15
533.442	56946.5
533.643	56225.62
533.844	56260.43
534.045	56110.93
534.246	55873.37
534.447	56536.91
534.648	56422.22
534.849	56667.98
535.05	56012.63
535.251	56350.54
535.451	56258.38
535.652	56557.39
535.853	56930.12
536.054	56137.55
536.255	56588.11
536.456	56670.03
536.657	57175.87
536.857	56643.4
537.058	56438.61
537.259	56846.15
537.46	57110.34
537.66	56493.9
537.861	56848.2
538.062	56217.42
538.263	57065.28
538.463	56444.75
538.664	56696.65
538.865	56676.17
539.065	57282.37
539.266	56328.02
539.466	57579.32
539.667	56090.45
539.868	56735.56
540.068	56862.53
540.269	56581.96
540.469	56659.79
540.67	56321.87
540.87	56674.12
541.071	56489.8
541.271	56702.79
541.472	56444.75
541.672	56127.31
541.873	56590.16
542.073	56086.35
542.274	57065.28
542.474	56528.72
542.675	56323.92
542.875	56866.63
543.075	56809.29
543.276	55830.36
543.476	56995.65
543.676	56389.45
543.877	56743.75
544.077	56313.68
544.277	56135.51
544.478	56260.43
544.678	56870.73
544.878	56172.37
545.078	56672.07
545.279	56209.23
545.479	56151.89
545.679	56176.47
545.879	56508.24
546.079	56520.52
546.28	56434.51
546.48	55809.88
546.68	56381.26
546.88	56213.33
547.08	56459.09
547.28	55924.57
547.48	55529.31
547.68	56153.94
547.88	55646.04
548.081	56323.92
548.281	56434.51
548.481	55672.67
548.681	56547.15
548.881	56391.5
549.081	56315.73
549.28	55912.28
549.48	56029.01
549.68	56086.35
549.88	56766.28
550.08	56123.22
550.28	55926.61
550.48	55906.13
550.68	56612.68
550.88	55705.43
551.08	56348.49
551.279	55943
551.479	55908.18
551.679	56149.84
551.879	55775.06
552.079	55986
552.278	55768.92
552.478	55943
552.678	55420.76
552.878	56242
553.077	55721.82
553.277	55496.54
553.477	55873.37
553.676	55762.78
553.876	55377.76
554.076	55519.07
554.275	55574.36
554.475	55127.91
554.674	55662.43
554.874	56078.16
555.074	55299.93
555.273	55656.28
555.473	55525.21
555.672	55189.34
555.872	55678.81
556.071	55547.74
556.271	55736.15
556.47	55457.63
556.67	54927.2
556.869	54869.86
557.068	55086.95
557.268	54693.74
557.467	55187.3
557.667	54697.83
557.866	55113.57
558.065	54869.86
558.265	54675.3
558.464	54353.77
558.663	54939.49
558.863	54726.5
559.062	55140.19
559.261	54171.5
559.461	54914.92
559.66	54038.39
559.859	54462.32
560.058	54050.67
560.258	54400.88
560.457	53555.07
560.656	54308.72
560.855	53993.33
561.054	54093.68
561.253	53604.22
561.453	54157.17
561.652	54060.91
561.851	53997.43
562.05	53614.46
562.249	53360.51
562.448	54212.46
562.647	53469.05
562.846	53137.28
563.045	53124.99
563.244	52971.39
563.443	53643.13
563.642	52586.38
563.841	53116.8
564.04	52682.63
564.239	53559.16
564.438	52516.75
564.637	52885.38
564.836	52985.73
565.035	52256.65
565.234	52383.63
565.432	52334.48
565.631	52105.1
565.83	52162.45
566.029	51603.35
566.228	52107.15
566.427	51621.78
566.625	51750.8
566.824	51193.76
567.023	52121.49
567.222	50765.73
567.42	51525.53
567.619	51455.9
567.818	51394.46
568.016	50894.75
568.215	51416.99
568.414	50974.62
568.612	51195.81
568.811	50786.21
569.01	50986.91
569.208	50194.35
569.407	50515.88
569.605	49872.82
569.804	50974.62
570.002	50132.91
570.201	50335.66
570.4	49477.56
570.598	49811.38
570.797	49641.4
570.995	49377.21
571.193	49289.15
571.392	50106.29
571.59	49237.95
571.789	49618.87
571.987	49344.44
572.186	49135.55
572.384	49158.08
572.582	48986.05
572.781	48988.1
572.979	48451.53
573.177	48361.42
573.376	48787.39
573.574	48123.85
573.772	48353.22
573.971	48050.13
574.169	48011.21
574.367	47353.82
574.565	48558.02
574.763	47675.35
574.962	47398.87
575.16	47155.16
575.358	47149.02
575.556	46987.23
575.754	47906.77
575.952	46970.85
576.151	47241.18
576.349	46819.3
576.547	46804.96
576.745	46618.6
576.943	46698.47
577.141	46421.99
577.339	46804.96
577.537	46280.68
577.735	46094.32
577.933	46010.35
578.131	46460.9
578.329	45641.71
578.527	45633.52
578.725	45510.64
578.923	45623.28
579.121	45338.61
579.319	45520.88
579.516	45494.26
579.714	45592.56
579.912	44836.86
580.11	45309.94
580.308	44865.53
580.506	44888.06
580.704	44156.94
580.901	44750.85
581.099	45062.14
581.297	44314.63
581.495	44232.71
581.692	44220.42
581.89	43698.19
582.088	44122.12
582.285	44054.54
582.483	44191.75
582.681	44021.77
582.878	43659.28
583.076	43020.31
583.274	43989
583.471	43104.28
583.669	43440.15
583.866	42891.29
584.064	42801.18
584.262	42383.4
584.459	42594.34
584.657	42709.02
584.854	43020.31
585.052	41803.82
585.249	42711.07
585.447	42246.18
585.644	41814.06
585.841	42094.63
586.039	42453.03
586.236	41734.19
586.434	41707.57
586.631	41510.96
586.828	41654.32
587.026	41596.98
587.223	41404.47
587.42	40984.63
587.618	41338.93
587.815	40869.95
588.012	40665.15
588.21	40947.77
588.407	41037.88
588.604	40448.07
588.801	40368.19
588.999	39893.07
589.196	39909.45
589.393	40198.21
589.59	40087.62
589.787	40044.62
589.984	39708.75
590.182	39694.41
590.379	39374.93
590.576	39538.77
590.773	39612.49
590.97	39090.26
591.167	39614.54
591.364	38695
591.561	39198.8
591.758	38502.5
591.955	38731.87
592.152	38940.76
592.349	38998.1
592.546	38352.99
592.743	38023.27
592.94	37992.55
593.137	38318.18
593.334	38269.03
593.531	37429.36
593.727	38197.35
593.924	38162.53
594.121	37417.07
594.318	37638.25
594.515	37060.73
594.712	37736.55
594.908	37177.46
595.105	37550.19
595.302	36860.02
595.499	37261.43
595.696	37337.2
595.892	36712.57
596.089	36841.59
596.286	36913.27
596.482	36661.37
596.679	36397.18
596.876	36157.57
597.072	36196.48
597.269	36133
597.466	35684.49
597.662	35895.43
597.859	35977.35
598.055	35940.49
598.252	35954.82
598.448	35541.13
598.645	35399.82
598.841	35084.44
599.038	35186.83
599.234	35063.96
599.431	34881.69
599.627	34883.73
599.824	34910.36
600.02	34539.68
600.217	34705.56
600.413	34517.15
600.609	34427.04
600.806	34054.31
601.002	34572.44
601.198	34367.65
601.395	33869.99
601.591	34070.69
601.787	33872.04
601.984	33669.29
602.18	33888.42
602.376	33718.44
602.572	33355.95
602.769	33091.76
602.965	33425.58
603.161	33038.51
603.357	33089.71
603.553	32843.96
603.75	32960.69
603.946	32669.88
604.142	32968.88
604.338	32321.73
604.534	32610.49
604.73	32084.16
604.926	32176.32
605.122	32151.74
605.318	32362.68
605.514	32229.57
605.71	32055.49
605.906	31897.8
606.102	31901.89
606.298	31842.5
606.494	31512.78
606.69	31611.08
606.886	31770.82
607.082	31420.62
607.278	31324.36
607.474	30957.78
607.67	31217.87
607.866	30849.24
608.062	31176.91
608.257	31115.47
608.453	31289.55
608.649	30775.51
608.845	30695.64
609.041	30410.97
609.236	30871.76
609.432	30525.66
609.628	30789.84
609.824	30185.69
610.019	30286.04
610.215	30306.52
610.411	30398.68
610.606	30036.19
610.802	30279.9
610.998	30187.74
611.193	30271.71
611.389	29874.4
611.584	29679.85
611.78	29925.6
611.976	30081.25
612.171	29561.06
612.367	29743.33
612.562	29724.9
612.758	29323.5
612.953	29411.56
613.149	29532.39
613.344	29286.64
613.539	30060.77
613.735	29227.24
613.93	29096.17
614.126	29178.09
614.321	29544.68
614.517	29343.98
614.712	29094.13
614.907	28915.95
615.103	29389.03
615.298	28680.44
615.493	29159.66
615.688	28467.45
615.884	29460.71
616.079	28547.32
616.274	29094.13
616.47	28655.86
616.665	28655.86
616.86	28475.64
617.055	28332.28
617.25	28350.71
617.445	28571.89
617.641	27955.46
617.836	28365.05
618.031	28020.99
618.226	28377.34
618.421	27973.89
618.616	28004.61
618.811	27304.2
619.006	27977.98
619.201	27533.57
619.396	27801.86
619.591	27265.29
619.786	27685.12
619.981	27097.36
620.176	27666.69
620.371	26923.28
620.566	27138.32
620.761	26976.53
620.956	26966.29
621.151	26376.47
621.346	26890.51
621.541	26618.13
621.735	26683.67
621.93	25590.05
622.125	25993.5
622.32	25688.35
622.515	25706.79
622.709	25413.93
622.904	25563.43
623.099	25524.52
623.294	25387.3
623.488	24973.61
623.683	24912.17
623.878	24705.33
624.072	25063.72
624.267	24478.01
624.462	24723.76
624.656	24324.41
624.851	24672.56
625.046	24320.31
625.24	23716.16
625.435	23886.14
625.629	23947.58
625.824	23832.9
626.018	23734.59
626.213	22978.89
626.407	23613.76
626.602	22870.35
626.796	23054.67
626.991	23238.98
627.185	22688.08
627.38	22782.29
627.574	22872.4
627.768	22321.49
627.963	22221.14
628.157	22157.66
628.352	22348.12
628.546	22028.63
628.74	21946.72
628.935	21420.39
629.129	21885.28
629.323	21694.82
629.517	21420.39
629.712	21248.36
629.906	21332.33
630.1	20676.98
630.294	21027.18
630.489	20547.95
630.683	21092.71
630.877	20449.65
631.071	20437.36
631.265	20826.48
631.459	20105.59
631.653	20386.16
631.848	20369.78
632.042	19941.75
632.236	19958.14
632.43	19808.64
632.624	20007.29
632.818	19644.8
633.012	19552.64
633.206	19313.03
633.4	19564.93
633.594	19319.17
633.788	19349.89
633.982	19384.71
634.176	19161.48
634.369	19038.6
634.563	18743.69
634.757	18692.49
634.951	18629.01
635.145	18563.47
635.339	18561.42
635.533	18215.32
635.726	18370.96
635.92	18129.3
636.114	18039.19
636.308	17797.53
636.501	17897.88
636.695	17858.97
636.889	17371.55
637.083	17592.73
637.276	17576.35
637.47	17428.9
637.664	17199.52
637.857	17361.31
638.051	17287.59
638.244	16830.89
638.438	16886.19
638.632	16873.9
638.825	16730.54
639.019	16472.5
639.212	16525.74
639.406	16423.34
639.599	16329.14
639.793	16372.14
639.986	16146.87
640.18	16023.99
640.373	16054.71
640.567	15872.44
640.76	16228.79
640.954	15761.85
641.147	15555.01
641.34	15677.88
641.534	15667.64
641.727	15346.11
641.92	15444.41
642.114	15169.99
642.307	15399.36
642.5	15153.6
642.694	14789.06
642.887	15149.51
643.08	15026.63
643.273	14889.42
643.467	14553.55
643.66	14682.57
643.853	14438.86
644.046	14696.91
644.239	14383.57
644.432	14268.88
644.626	14189.01
644.819	14074.32
645.012	14250.45
645.205	14080.47
645.398	13982.17
645.591	14084.56
645.784	13861.34
645.977	13631.96
646.17	13789.66
646.363	13576.67
646.556	13418.97
646.749	13523.42
646.942	13359.58
647.135	13588.96
647.328	13433.31
647.521	13310.43
647.714	12927.46
647.907	12753.38
648.099	12966.37
648.292	13226.46
648.485	13003.24
648.678	12866.02
648.871	12767.72
649.064	12710.38
649.256	12777.96
649.449	12442.09
649.642	12448.24
649.835	12380.65
650.027	12196.34
650.22	12386.8
650.413	12026.36
650.605	12290.54
650.798	12106.23
650.991	12038.64
651.183	11985.4
651.376	11903.48
651.568	11942.39
651.761	11805.17
651.954	11819.51
652.146	11553.27
652.339	11733.5
652.531	11588.09
652.724	11424.25
652.916	11297.28
653.109	11268.61
653.301	11502.08
653.494	11532.79
653.686	11031.04
653.879	11338.24
654.071	11184.64
654.263	11260.41
654.456	10932.74
654.648	10920.45
654.84	10525.19
655.033	10758.66
655.225	10764.81
655.417	11022.85
655.61	10650.12
655.802	10674.7
655.994	10402.32
656.186	10824.2
656.379	10258.96
656.571	10324.49
656.763	10207.76
656.955	10224.14
657.148	10238.48
657.34	10263.05
657.532	9966.1
657.724	10074.64
657.916	9787.93
658.108	9914.9
658.3	9896.47
658.492	9710.1
658.684	9849.36
658.876	9667.1
659.068	9658.9
659.26	9605.66
659.452	9476.63
659.644	9497.11
659.836	9460.25
660.028	9364
660.22	9378.33
660.412	9183.77
660.604	9173.53
660.796	9222.69
660.988	9267.74
661.18	9042.46
661.372	8901.15
661.563	9138.72
661.755	8837.67
661.947	8950.31
662.139	8899.11
662.331	8878.63
662.522	8669.73
662.714	8882.72
662.906	8718.89
663.097	8682.02
663.289	8491.56
663.481	8567.34
663.673	8708.65
663.864	8532.52
664.056	8428.07
664.247	8280.62
664.439	8290.86
664.631	8307.24
664.822	8380.97
665.014	8309.29
665.205	8231.47
665.397	8129.07
665.588	8057.39
665.78	7948.85
665.971	8106.54
666.163	7959.09
666.354	7995.95
666.546	8030.77
666.737	7703.09
666.929	7670.33
667.12	7866.93
667.311	7662.13
667.503	7615.03
667.694	7797.3
667.885	7596.6
668.077	7600.69
668.268	7404.09
668.459	7410.23
668.651	7402.04
668.842	7477.82
669.033	7262.78
669.224	7293.5
669.416	7379.51
669.607	7295.55
669.798	7232.06
669.989	7293.5
670.18	7303.74
670.371	7232.06
670.563	7090.75
670.754	7057.98
670.945	6986.3
671.136	7109.18
671.327	6908.48
671.518	6976.06
671.709	6840.9
671.9	6953.54
672.091	6793.8
672.282	6990.4
672.473	6783.56
672.664	6836.8
672.855	6654.53
673.046	6791.75
673.237	6869.57
673.428	6679.11
673.619	6662.72
673.809	6566.47
674	6511.18
674.191	6457.93
674.382	6310.47
674.573	6607.43
674.764	6584.9
674.954	6695.49
675.145	6330.95
675.336	6539.85
675.527	6548.04
675.717	6210.12
675.908	6244.94
676.099	6257.23
676.289	6376.01
676.48	6163.02
676.671	6234.7
676.861	6433.35
677.052	6099.53
677.243	6064.72
677.433	6025.81
677.624	6304.33
677.814	6234.7
678.005	6128.21
678.195	6023.76
678.386	6130.25
678.576	5972.56
678.767	5972.56
678.957	5939.79
679.148	5964.37
679.338	5954.13
679.529	5892.69
679.719	5696.08
679.909	5945.94
680.1	5950.03
680.29	5739.09
680.481	5823.06
680.671	5866.07
680.861	5788.24
681.052	5751.38
681.242	5675.6
681.432	5808.72
681.622	5585.49
681.813	5601.88
682.003	5737.04
682.193	5634.64
682.383	5804.63
682.573	5397.08
682.764	5581.4
682.954	5550.68
683.144	5511.77
683.334	5638.74
683.524	5556.82
683.714	5440.09
683.904	5339.74
684.094	5546.58
684.284	5456.47
684.474	5554.77
684.664	5589.59
684.854	5407.32
685.044	5417.56
685.234	5300.83
685.424	5309.02
685.614	5229.15
685.804	5341.79
685.994	5272.15
686.184	5235.29
686.374	5401.18
686.564	5225.05
686.753	5290.59
686.943	4950.62
687.133	5208.67
687.323	5102.17
687.513	5173.85
687.702	5245.53
687.892	4928.1
688.082	4944.48
688.272	5122.65
688.461	5024.35
688.651	5104.22
688.841	4934.24
689.03	4971.1
689.22	4817.51
689.41	4942.43
689.599	4940.38
689.789	4862.56
689.979	4805.22
690.168	4801.12
690.358	4883.04
690.547	4790.88
690.737	4727.39
690.926	4790.88
691.116	4696.68
691.305	4713.06
691.495	4545.13
691.684	4614.76
691.874	4782.69
692.063	4758.11
692.252	4549.22
692.442	4655.72
692.631	4532.84
692.82	4616.8
693.01	4536.93
693.199	4493.93
693.388	4489.83
693.578	4426.34
693.767	4581.99
693.956	4432.49
694.146	4475.49
694.335	4231.79
694.524	4438.63
694.713	4446.82
694.902	4352.62
695.092	4434.53
695.281	4366.95
695.47	4315.75
695.659	4346.47
695.848	4401.77
696.037	4231.79
696.226	4145.77
696.415	4115.05
696.604	4102.76
696.793	4309.61
696.982	4254.31
697.171	4334.18
697.36	4170.35
697.549	4242.03
697.738	4043.37
697.927	4192.87
698.116	4106.86
698.305	4174.44
698.494	4115.05
698.683	4098.67
698.872	4137.58
699.061	4106.86
699.25	4117.1
699.438	3990.13
699.627	4108.91
699.816	4090.48
700.005	4000.37
700.193	4067.95
700.382	3990.13
700.571	4014.7
700.76	3979.89
700.948	4057.71
701.137	3994.22
701.326	4043.37
701.514	3897.97
701.703	3947.12
701.892	3959.41
702.08	3996.27
702.269	3975.79
702.457	3863.15
702.646	3955.31
702.834	3928.69
703.023	3883.63
703.212	3983.98
703.4	3865.2
703.589	3797.62
703.777	3945.07
703.965	3916.4
704.154	3820.14
704.342	3832.43
704.531	3809.9
704.719	3654.26
704.907	3844.72
705.096	3682.93
705.284	3789.42
705.472	3762.8
705.661	3857.01
705.849	3756.66
706.037	3783.28
706.226	3721.84
706.414	3787.38
706.602	3693.17
706.79	3789.42
706.979	3666.55
707.167	3687.03
707.355	3758.71
707.543	3598.96
707.731	3820.14
707.919	3705.46
708.107	3615.35
708.296	3646.07
708.484	3744.37
708.672	3691.12
708.86	3652.21
709.048	3533.43
709.236	3539.57
709.424	3615.35
709.612	3549.81
709.8	3512.95
709.988	3537.52
710.176	3644.02
710.364	3558
710.551	3564.15
710.739	3625.59
710.927	3588.72
711.115	3560.05
711.303	3463.8
711.491	3529.33
711.679	3433.08
711.866	3576.44
712.054	3469.94
712.242	3533.43
712.43	3424.89
712.617	3578.48
712.805	3609.2
712.993	3582.58
713.181	3480.18
713.368	3461.75
713.556	3517.05
713.744	3392.12
713.931	3631.73
714.119	3271.29
714.306	3443.32
714.494	3420.79
714.682	3435.13
714.869	3486.33
715.057	3482.23
715.244	3349.11
715.432	3478.13
715.619	3377.78
715.807	3385.97
715.994	3334.78
716.182	3402.36
716.369	3398.26
716.556	3377.78
716.744	3289.72
716.931	3291.77
717.119	3480.18
717.306	3340.92
717.493	3248.76
717.681	3271.29
717.868	3185.27
718.055	3336.82
718.242	3269.24
718.43	3304.06
718.617	3279.48
718.804	3316.34
718.991	3271.29
719.179	3308.15
719.366	3293.82
719.553	3308.15
719.74	3265.14
719.927	3263.1
720.114	3140.22
720.301	3123.84
720.488	3054.2
720.676	3215.99
720.863	3187.32
721.05	3162.75
721.237	3181.18
721.424	3240.57
721.611	3101.31
721.798	3033.72
721.985	3121.79
722.172	3058.3
722.358	3281.53
722.545	3146.36
722.732	3138.17
722.919	3097.21
723.106	3127.93
723.293	3091.07
723.48	3013.24
723.667	3078.78
723.853	2978.43
724.04	3043.96
724.227	2976.38
724.414	2902.65
724.6	2898.56
724.787	3031.68
724.974	3078.78
725.161	3035.77
725.347	2919.04
725.534	3031.68
725.72	2945.66
725.907	3041.92
726.094	3009.15
726.28	2900.61
726.467	2931.33
726.653	2798.21
726.84	2974.33
727.027	2986.62
727.213	2988.67
727.4	3054.2
727.586	2939.52
727.773	2939.52
727.959	2820.74
728.145	2890.37
728.332	2851.46
728.518	2736.77
728.705	2714.24
728.891	2880.13
729.077	2757.25
729.264	2818.69
729.45	2779.78
729.636	2912.89
729.823	2763.39
730.009	2714.24
730.195	2814.59
730.382	2775.68
730.568	2771.58
730.754	2738.82
730.94	2785.92
731.126	2669.19
731.313	2814.59
731.499	2701.95
731.685	2744.96
731.871	2839.17
732.057	2693.76
732.243	2699.91
732.429	2828.93
732.615	2654.85
732.801	2644.61
732.987	2626.18
733.173	2744.96
733.359	2753.15
733.545	2607.75
733.731	2671.23
733.917	2724.48
734.103	2724.48
734.289	2605.7
734.475	2509.44
734.661	2663.04
734.847	2574.98
735.033	2527.88
735.219	2558.6
735.404	2439.81
735.59	2599.56
735.776	2486.92
735.962	2411.14
736.148	2544.26
736.333	2597.51
736.519	2499.2
736.705	2409.09
736.89	2495.11
737.076	2597.51
737.262	2425.48
737.447	2615.94
737.633	2484.87
737.819	2448.01
738.004	2456.2
738.19	2558.6
738.375	2386.57
738.561	2542.21
738.747	2450.05
738.932	2384.52
739.118	2300.55
739.303	2368.13
739.489	2409.09
739.674	2466.44
739.859	2364.04
740.045	2296.46
740.23	2325.13
740.416	2310.79
740.601	2308.74
740.786	2265.74
740.972	2314.89
741.157	2329.22
741.342	2165.39
741.528	2241.16
741.713	2179.72
741.898	2232.97
742.084	2218.63
742.269	2302.6
742.454	2196.11
742.639	2165.39
742.824	2237.06
743.01	2308.74
743.195	2216.58
743.38	2192.01
743.565	2112.14
743.75	2054.8
743.935	2136.71
744.12	2071.18
744.305	2167.43
744.49	2028.17
744.675	2149
744.86	2056.84
745.045	2054.8
745.23	2142.86
745.415	2050.7
745.6	2130.57
745.785	1872.53
745.97	1989.26
746.155	2058.89
746.34	2022.03
746.525	2028.17
746.71	1981.07
746.895	1995.4
747.079	1931.92
747.264	1956.49
747.449	2038.41
747.634	1942.16
747.819	1938.06
748.003	1809.04
748.188	1809.04
748.373	1835.66
748.557	1850
748.742	1874.57
748.927	1870.48
749.111	1784.46
749.296	1854.09
749.481	1811.09
749.665	1817.23
749.85	1837.71
750.034	1870.48
750.219	1749.65
750.404	1626.77
750.588	1815.18
750.773	1624.72
750.957	1690.26
751.141	1688.21
751.326	1692.3
751.51	1655.44
751.695	1647.25
751.879	1575.57
752.064	1706.64
752.248	1532.56
752.432	1655.44
752.617	1643.15
752.801	1700.5
752.985	1483.41
753.17	1567.38
753.354	1581.71
753.538	1489.56
753.722	1393.3
753.907	1464.98
754.091	1538.71
754.275	1518.23
754.459	1526.42
754.643	1473.17
754.828	1448.6
755.012	1428.12
755.196	1434.26
755.38	1448.6
755.564	1354.39
755.748	1352.34
755.932	1419.92
756.116	1335.96
756.3	1424.02
756.484	1350.29
756.668	1370.77
756.852	1442.45
757.036	1401.49
757.22	1288.86
757.404	1266.33
757.588	1319.57
757.772	1290.9
757.956	1299.09
758.14	1202.84
758.323	1301.14
758.507	1354.39
758.691	1186.46
758.875	1194.65
759.059	1340.05
759.242	1327.77
759.426	1165.98
759.61	1260.18
759.794	1147.55
759.977	1256.09
760.161	1190.55
760.345	1120.92
760.528	1125.02
760.712	1184.41
760.895	1182.36
761.079	1182.36
761.263	1100.44
761.446	1120.92
761.63	1174.17
761.813	1229.46
761.997	1176.22
762.18	1182.36
762.364	1120.92
762.547	1159.83
762.731	1139.35
762.914	1118.87
763.098	989.85
763.281	1088.15
763.464	1051.29
763.648	1051.29
763.831	1065.63
764.015	1061.53
764.198	961.18
764.381	1125.02
764.564	975.52
764.748	1045.15
764.931	1000.09
765.114	1120.92
765.297	1129.11
765.481	1022.62
765.664	973.47
765.847	1067.67
766.03	1063.58
766.213	959.13
766.397	1010.33
766.58	989.85
766.763	1016.48
766.946	942.75
767.129	952.99
767.312	969.37
767.495	961.18
767.678	928.41
767.861	1022.62
768.044	991.9
768.227	967.32
768.41	887.45
768.593	922.27
768.776	969.37
768.959	1006.24
769.142	899.74
769.324	907.93
769.507	967.32
769.69	1049.24
769.873	930.46
770.056	907.93
770.239	897.69
770.421	928.41
770.604	889.5
770.787	1018.52
770.97	942.75
771.152	838.3
771.335	932.51
771.518	891.55
771.7	821.92
771.883	909.98
772.066	842.4
772.248	891.55
772.431	942.75
772.613	950.94
772.796	830.11
772.978	850.59
773.161	817.82
773.343	866.97
773.526	936.6
773.708	826.01
773.891	852.64
774.073	850.59
774.256	803.49
774.438	795.29
774.621	805.53
774.803	838.3
774.985	748.19
775.168	805.53
775.35	752.29
775.532	817.82
775.715	813.73
775.897	760.48
776.079	737.95
776.261	815.77
776.444	813.73
776.626	760.48
776.808	678.56
776.99	699.04
777.173	717.47
777.355	662.18
777.537	658.08
777.719	699.04
777.901	696.99
778.083	709.28
778.265	715.42
778.447	772.77
778.629	737.95
778.811	705.18
778.993	723.62
779.175	688.8
779.357	744.1
779.539	670.37
779.721	641.7
779.903	680.61
780.085	707.23
780.267	627.36
780.449	694.94
780.631	674.46
780.812	615.07
780.994	567.97
781.176	621.22
781.358	576.16
781.54	600.74
781.721	574.11
781.903	664.22
782.085	557.73
782.267	551.59
782.448	555.68
782.63	641.7
782.812	613.03
782.993	488.1
783.175	555.68
783.357	473.76
783.538	563.87
783.72	506.53
783.901	514.72
784.083	508.58
784.264	527.01
784.446	484
784.627	484
784.809	490.15
784.99	486.05
785.172	543.39
785.353	481.96
785.535	555.68
785.716	469.67
785.897	426.66
786.079	453.28
786.26	527.01
786.441	516.77
786.623	479.91
786.804	469.67
786.985	465.57
787.167	504.48
787.348	506.53
787.529	443.04
787.71	512.67
787.891	461.48
788.073	451.24
788.254	381.6
788.435	486.05
788.616	469.67
788.797	393.89
788.978	424.61
789.159	441
789.34	424.61
789.522	363.17
789.703	451.24
789.884	471.72
790.065	447.14
790.246	449.19
790.427	367.27
790.607	445.09
790.788	381.6
790.969	434.85
791.15	441
791.331	369.32
791.512	377.51
791.693	387.75
791.874	387.75
792.054	395.94
792.235	369.32
792.416	309.93
792.597	348.84
792.778	361.13
792.958	383.65
793.139	350.89
793.32	336.55
793.5	254.63
793.681	416.42
793.862	338.6
794.042	279.21
794.223	244.39
794.404	334.5
794.584	314.02
794.765	332.45
794.945	354.98
795.126	365.22
795.306	354.98
795.487	297.64
795.667	256.68
795.848	359.08
796.028	338.6
796.209	359.08
796.389	334.5
796.57	338.6
796.75	293.54
796.93	293.54
797.111	252.58
797.291	346.79
797.471	228.01
797.652	307.88
797.832	330.41
798.012	262.82
798.192	256.68
798.373	297.64
798.553	330.41
798.733	238.25
798.913	273.06
799.093	314.02
799.274	361.13
799.454	303.78
799.634	309.93
799.814	279.21
799.994	254.63
800.174	271.01
800.354	254.63
800.534	240.3
800.714	318.12
800.894	199.34
801.074	287.4
801.254	281.25
801.434	223.91
801.614	164.52
801.794	277.16
801.974	850.59
802.154	266.92
802.334	219.82
802.514	248.49
802.693	225.96
802.873	182.95
803.053	277.16
803.233	189.1
803.413	182.95
803.592	248.49
803.772	264.87
803.952	273.06
804.131	219.82
804.311	240.3
804.491	299.69
804.67	166.57
804.85	164.52
805.03	232.1
805.209	285.35
805.389	170.66
805.568	260.77
805.748	213.67
805.928	264.87
806.107	262.82
806.287	225.96
806.466	246.44
806.646	197.29
806.825	211.62
807.004	205.48
807.184	240.3
807.363	268.97
807.543	166.57
807.722	189.1
807.901	228.01
808.081	246.44
808.26	207.53
808.439	211.62
808.619	236.2
808.798	158.38
808.977	238.25
809.156	182.95
809.336	215.72
809.515	203.43
809.694	197.29
809.873	223.91
810.052	254.63
810.231	201.38
810.411	205.48
810.59	207.53
810.769	144.04
810.948	125.61
811.127	123.56
811.306	287.4
811.485	256.68
811.664	242.34
811.843	205.48
812.022	217.77
812.201	185
812.38	139.94
812.559	189.1
812.737	113.32
812.916	127.66
813.095	133.8
813.274	228.01
813.453	137.9
813.632	92.84
813.811	152.23
813.989	125.61
814.168	150.18
814.347	144.04
814.526	144.04
814.704	144.04
814.883	223.91
815.062	154.28
815.24	256.68
815.419	144.04
815.598	176.81
815.776	146.09
815.955	182.95
816.133	154.28
816.312	195.24
816.49	121.51
816.669	74.41
816.847	133.8
817.026	156.33
817.204	156.33
817.383	176.81
817.561	82.6
817.74	141.99
817.918	109.23
818.097	207.53
818.275	90.79
818.453	185
818.632	148.14
818.81	144.04
818.988	25.26
819.167	119.46
819.345	129.7
819.523	133.8
819.701	176.81
819.879	107.18
820.058	131.75
820.236	154.28
820.414	137.9
820.592	121.51
820.77	107.18
820.948	164.52
821.127	90.79
821.305	109.23
821.483	131.75
821.661	121.51
821.839	195.24
822.017	164.52
822.195	158.38
822.373	103.08
822.551	105.13
822.729	191.14
822.907	86.7
823.085	141.99
823.262	78.51
823.44	172.71
823.618	64.17
823.796	117.42
823.974	137.9
824.152	88.75
824.329	137.9
824.507	135.85
824.685	125.61
824.863	187.05
825.04	113.32
825.218	168.62
825.396	58.03
825.574	51.88
825.751	33.45
825.929	55.98
826.107	84.65
826.284	178.86
826.462	178.86
826.639	72.36
826.817	39.59
826.994	117.42
827.172	68.27
827.349	199.34
827.527	199.34
827.704	121.51
827.882	139.94
828.059	133.8
828.237	109.23
828.414	115.37
828.591	55.98
828.769	129.7
828.946	105.13
829.124	92.84
829.301	90.79
829.478	66.22
829.655	68.27
829.833	66.22
830.01	117.42
830.187	103.08
830.364	53.93
830.542	109.23
830.719	92.84
830.896	35.5
831.073	88.75
831.25	96.94
831.427	123.56
831.604	10.92
831.782	6.83
831.959	58.03
832.136	123.56
832.313	101.03
832.49	101.03
832.667	80.55
832.844	139.94
833.021	49.83
833.198	94.89
833.374	107.18
833.551	164.52
833.728	113.32
833.905	154.28
834.082	92.84
834.259	139.94
834.436	90.79
834.612	70.31
834.789	62.12
834.966	45.74
835.143	88.75
835.319	51.88
835.496	72.36
835.673	139.94
835.85	141.99
836.026	15.02
836.203	107.18
836.38	-21.84
836.556	60.07
836.733	10.92
836.909	137.9
837.086	55.98
837.262	60.07
837.439	-5.46
837.616	45.74
837.792	72.36
837.968	37.55
838.145	-3.41
838.321	72.36
838.498	62.12
838.674	41.64
838.851	139.94
839.027	51.88
839.203	74.41
839.38	0.68
839.556	84.65
839.732	72.36
839.909	-5.46
840.085	72.36
840.261	76.46
840.437	-23.89
840.614	64.17
840.79	76.46
840.966	76.46
841.142	98.99
841.318	123.56
841.494	133.8
841.671	35.5
841.847	43.69
842.023	60.07
842.199	8.87
842.375	58.03
842.551	51.88
842.727	74.41
842.903	107.18
843.079	-34.13
843.255	98.99
843.431	-9.56
843.607	90.79
843.783	68.27
843.959	74.41
844.134	39.59
844.31	121.51
844.486	17.07
844.662	70.31
844.838	15.02
845.013	37.55
845.189	125.61
845.365	98.99
845.541	60.07
845.716	31.4
845.892	90.79
846.068	55.98
846.244	21.16
846.419	113.32
846.595	43.69
846.77	12.97
846.946	-32.08
847.122	2.73
847.297	43.69
847.473	55.98
847.648	49.83
847.824	35.5
847.999	68.27
848.175	31.4
848.35	51.88
848.526	74.41
848.701	35.5
848.876	115.37
849.052	84.65
849.227	62.12
849.403	49.83
849.578	103.08
849.753	78.51
849.929	21.16
850.104	60.07
850.279	76.46
850.454	-5.46
850.63	29.35
850.805	-7.51
850.98	21.16
851.155	45.74
851.33	-3.41
851.505	-60.76
851.681	107.18
851.856	10.92
852.031	62.12
852.206	21.16
852.381	-21.84
852.556	51.88
852.731	0.68
852.906	6.83
853.081	45.74
853.256	6.83
853.431	58.03
853.606	35.5
853.781	51.88
853.956	2.73
854.131	64.17
854.305	33.45
854.48	60.07
854.655	-19.8
854.83	31.4
855.005	25.26
855.18	25.26
855.354	-9.56
855.529	41.64
855.704	-21.84
855.879	19.11
856.053	21.16
856.228	74.41
856.403	60.07
856.577	45.74
856.752	-36.18
856.926	8.87
857.101	-25.94
857.276	60.07
857.45	4.78
857.625	58.03
857.799	62.12
857.974	88.75
858.148	-40.28
858.323	90.79
858.497	-3.41
858.672	-21.84
858.846	-5.46
859.02	-1.37
859.195	-11.61
859.369	-34.13
859.543	35.5
859.718	-1.37
859.892	23.21
860.066	66.22
860.241	-25.94
860.415	62.12
860.589	-5.46
860.763	0.68
860.938	78.51
861.112	80.55
861.286	51.88
861.46	6.83
861.634	-7.51
861.808	72.36
861.982	68.27
862.157	0.68
862.331	60.07
862.505	8.87
862.679	-58.71
862.853	-54.61
863.027	29.35
863.201	53.93
863.375	-17.75
863.549	25.26
863.722	-36.18
863.896	125.61
864.07	-66.9
864.244	17.07
864.418	98.99
864.592	43.69
864.766	0.68
864.939	15.02
865.113	10.92
865.287	2.73
865.461	70.31
865.634	17.07
865.808	-17.75
865.982	-5.46
866.156	0.68
866.329	31.4
866.503	-50.52
866.676	62.12
866.85	-5.46
867.024	-1.37
867.197	96.94
867.371	8.87
867.544	-7.51
867.718	35.5
867.891	-21.84
868.065	2.73
868.238	37.55
868.412	68.27
868.585	6.83
868.759	-21.84
868.932	-17.75
869.105	-19.8
869.279	70.31
869.452	15.02
869.625	41.64
869.799	33.45
869.972	-54.61
870.145	60.07
870.319	10.92
870.492	29.35
870.665	0.68
870.838	-1.37
871.011	-54.61
871.185	17.07
871.358	-9.56
871.531	15.02
871.704	-5.46
871.877	4.78
872.05	66.22
872.223	-1.37
872.396	84.65
872.569	8.87
872.742	55.98
872.915	-46.42
873.088	23.21
873.261	33.45
873.434	-15.7
873.607	68.27
873.78	4.78
873.953	4.78
874.126	109.23
874.299	60.07
874.471	25.26
874.644	35.5
874.817	37.55
874.99	119.46
875.163	27.31
875.335	-38.23
875.508	2.73
875.681	45.74
875.853	-7.51
876.026	90.79
876.199	10.92
876.371	84.65
876.544	35.5
876.717	15.02
876.889	-42.32
877.062	39.59
877.234	27.31
877.407	-1.37
877.579	19.11
877.752	39.59
877.924	-5.46
878.097	29.35
878.269	-60.76
878.442	4.78
878.614	0.68
878.786	12.97
878.959	-7.51
879.131	55.98
879.303	-171.35
879.476	8.87
879.648	39.59
879.82	55.98
879.993	-32.08
880.165	-48.47
880.337	47.79
880.509	39.59
880.681	25.26
880.854	-32.08
881.026	-27.99
881.198	113.32
881.37	37.55
881.542	-17.75
881.714	-5.46
881.886	12.97
882.058	25.26
882.23	-5.46
882.402	74.41
882.574	-38.23
882.746	31.4
882.918	62.12
883.09	49.83
883.262	-19.8
883.434	27.31
883.606	-1.37
883.778	-66.9
883.95	15.02
884.122	-54.61
884.293	45.74
884.465	-60.76
884.637	4.78
884.809	33.45
884.98	10.92
885.152	-5.46
885.324	21.16
885.496	31.4
885.667	-13.65
885.839	0.68
886.011	15.02
886.182	2.73
886.354	10.92
886.525	49.83
886.697	45.74
886.869	-1.37
887.04	68.27
887.212	-13.65
887.383	47.79
887.555	-27.99
887.726	35.5
887.897	66.22
888.069	-40.28
888.24	47.79
888.412	35.5
888.583	72.36
888.754	17.07
888.926	19.11
889.097	-38.23
889.268	2.73
889.44	-44.37
889.611	-27.99
889.782	17.07
889.953	-25.94
890.125	60.07
890.296	-50.52
890.467	21.16
890.638	-34.13
890.809	-5.46
890.98	49.83
891.151	-32.08
891.323	8.87
891.494	51.88
891.665	-17.75
891.836	62.12
892.007	31.4
892.178	33.45
892.349	17.07
892.52	-30.04
892.691	60.07
892.862	0.68
893.032	-17.75
893.203	31.4
893.374	47.79
893.545	33.45
893.716	-7.51
893.887	12.97
894.057	33.45
894.228	-71
894.399	-89.43
894.57	-9.56
894.74	49.83
894.911	-1.37
895.082	-23.89
895.253	45.74
895.423	-46.42
895.594	74.41
895.764	2.73
895.935	25.26
896.106	-9.56
896.276	17.07
896.447	25.26
896.617	-64.85
896.788	-21.84
896.958	-25.94
897.129	23.21
897.299	10.92
897.47	60.07
897.64	37.55
897.81	10.92
897.981	49.83
898.151	-36.18
898.322	10.92
898.492	0.68
898.662	23.21
898.832	-15.7
899.003	-17.75
899.173	-17.75
899.343	41.64
899.513	-5.46
