Data from USB4F104151__24__10-21-36-388.txt Node

Date: Wed Mar 12 10:21:36 EDT 2025
User: louis
Spectrometer: USB4F10415
Trigger mode: 4
Integration Time (sec): 3.000000E-2
Scans to average: 1
Electric dark correction enabled: true
Nonlinearity correction enabled: false
Boxcar width: 0
XAxis mode: Wavelengths
Number of Pixels in Spectrum: 3648
>>>>>Begin Spectral Data<<<<<
178.204	-67.41
178.424	-67.41
178.644	-67.41
178.864	-104.28
179.084	-57.17
179.304	16.55
179.524	16.55
179.744	53.42
179.964	32.94
180.184	8.36
180.404	14.51
180.624	30.89
180.844	-42.84
181.064	-44.88
181.283	-104.28
181.503	-22.36
181.723	41.13
181.943	-5.97
182.163	22.7
182.383	-26.45
182.602	110.76
182.822	-3.93
183.042	-32.6
183.262	71.85
183.482	-46.93
183.701	18.6
183.921	73.9
184.141	10.41
184.361	88.23
184.58	45.23
184.8	10.41
185.02	22.7
185.239	61.61
185.459	2.22
185.679	73.9
185.898	20.65
186.118	108.71
186.338	55.47
186.557	-3.93
186.777	-10.07
186.997	41.13
187.216	-5.97
187.436	71.85
187.655	30.89
187.875	96.43
188.095	22.7
188.314	94.38
188.534	-10.07
188.753	32.94
188.973	-10.07
189.192	59.56
189.412	12.46
189.631	41.13
189.851	47.27
190.07	92.33
190.29	-1.88
190.509	26.79
190.729	32.94
190.948	71.85
191.168	186.54
191.387	133.29
191.607	8.36
191.826	-3.93
192.045	-44.88
192.265	8.36
192.484	63.66
192.704	39.08
192.923	80.04
193.142	94.38
193.362	55.47
193.581	75.95
193.8	12.46
194.02	-30.55
194.239	67.75
194.458	86.19
194.678	-5.97
194.897	75.95
195.116	67.75
195.335	57.51
195.555	37.03
195.774	10.41
195.993	39.08
196.212	63.66
196.432	4.27
196.651	53.42
196.87	10.41
197.089	59.56
197.308	-38.74
197.528	2.22
197.747	-18.26
197.966	-30.55
198.185	12.46
198.404	2.22
198.623	18.6
198.842	51.37
199.062	57.51
199.281	18.6
199.5	69.8
199.719	30.89
199.938	61.61
200.157	104.62
200.376	57.51
200.595	34.99
200.814	88.23
201.033	-12.12
201.252	34.99
201.471	22.7
201.69	94.38
201.909	-1.88
202.128	-5.97
202.347	-40.79
202.566	12.46
202.785	-22.36
203.004	26.79
203.223	161.96
203.442	-10.07
203.661	14.51
203.879	-38.74
204.098	94.38
204.317	-18.26
204.536	28.84
204.755	37.03
204.974	34.99
205.193	43.18
205.411	108.71
205.63	34.99
205.849	10.41
206.068	57.51
206.287	10.41
206.505	30.89
206.724	-46.93
206.943	65.71
207.162	77.99
207.381	-61.27
207.599	-5.97
207.818	80.04
208.037	69.8
208.255	12.46
208.474	34.99
208.693	4.27
208.911	28.84
209.13	26.79
209.349	43.18
209.567	43.18
209.786	77.99
210.005	121
210.223	24.75
210.442	69.8
210.661	4.27
210.879	49.32
211.098	8.36
211.316	-38.74
211.535	90.28
211.753	-104.28
211.972	20.65
212.191	45.23
212.409	-24.4
212.628	57.51
212.846	2.22
213.065	100.52
213.283	63.66
213.502	-20.31
213.72	67.75
213.938	12.46
214.157	22.7
214.375	51.37
214.594	0.17
214.812	86.19
215.031	34.99
215.249	39.08
215.467	98.47
215.686	-1.88
215.904	43.18
216.122	-10.07
216.341	41.13
216.559	6.31
216.778	45.23
216.996	-24.4
217.214	34.99
217.432	-30.55
217.651	104.62
217.869	98.47
218.087	39.08
218.306	6.31
218.524	18.6
218.742	18.6
218.96	63.66
219.179	90.28
219.397	16.55
219.615	32.94
219.833	37.03
220.051	37.03
220.27	92.33
220.488	80.04
220.706	69.8
220.924	6.31
221.142	71.85
221.36	4.27
221.578	34.99
221.796	86.19
222.015	12.46
222.233	92.33
222.451	100.52
222.669	6.31
222.887	22.7
223.105	51.37
223.323	63.66
223.541	8.36
223.759	71.85
223.977	57.51
224.195	8.36
224.413	90.28
224.631	18.6
224.849	-59.22
225.067	73.9
225.285	0.17
225.503	45.23
225.721	53.42
225.939	18.6
226.157	75.95
226.375	106.67
226.592	12.46
226.81	47.27
227.028	106.67
227.246	51.37
227.464	-3.93
227.682	45.23
227.9	104.62
228.117	37.03
228.335	24.75
228.553	-22.36
228.771	133.29
228.989	32.94
229.206	55.47
229.424	-10.07
229.642	-12.12
229.86	-61.27
230.077	88.23
230.295	88.23
230.513	37.03
230.731	-1.88
230.948	53.42
231.166	121
231.384	37.03
231.601	53.42
231.819	51.37
232.037	10.41
232.254	-42.84
232.472	106.67
232.689	53.42
232.907	6.31
233.125	20.65
233.342	0.17
233.56	-28.5
233.777	55.47
233.995	39.08
234.213	65.71
234.43	12.46
234.648	28.84
234.865	37.03
235.083	51.37
235.3	94.38
235.518	8.36
235.735	-22.36
235.953	22.7
236.17	26.79
236.388	12.46
236.605	22.7
236.822	-3.93
237.04	22.7
237.257	73.9
237.475	-14.17
237.692	47.27
237.909	-14.17
238.127	-20.31
238.344	86.19
238.562	73.9
238.779	-26.45
238.996	-14.17
239.214	45.23
239.431	-34.64
239.648	41.13
239.865	94.38
240.083	65.71
240.3	28.84
240.517	-10.07
240.735	84.14
240.952	82.09
241.169	84.14
241.386	82.09
241.603	-1.88
241.821	41.13
242.038	123.05
242.255	-1.88
242.472	20.65
242.689	69.8
242.907	61.61
243.124	-14.17
243.341	22.7
243.558	6.31
243.775	47.27
243.992	-5.97
244.209	26.79
244.426	88.23
244.643	28.84
244.86	-5.97
245.078	20.65
245.295	22.7
245.512	22.7
245.729	26.79
245.946	51.37
246.163	26.79
246.38	18.6
246.597	43.18
246.814	-1.88
247.031	88.23
247.248	-14.17
247.464	63.66
247.681	32.94
247.898	0.17
248.115	28.84
248.332	-12.12
248.549	22.7
248.766	55.47
248.983	-59.22
249.2	22.7
249.417	14.51
249.633	18.6
249.85	47.27
250.067	39.08
250.284	57.51
250.501	63.66
250.717	-10.07
250.934	26.79
251.151	14.51
251.368	4.27
251.585	-18.26
251.801	2.22
252.018	-18.26
252.235	51.37
252.451	0.17
252.668	-40.79
252.885	104.62
253.102	2.22
253.318	-24.4
253.535	-18.26
253.752	6.31
253.968	59.56
254.185	-10.07
254.401	53.42
254.618	-26.45
254.835	-5.97
255.051	41.13
255.268	12.46
255.484	75.95
255.701	-5.97
255.917	69.8
256.134	10.41
256.351	57.51
256.567	-14.17
256.784	34.99
257	-61.27
257.217	121
257.433	4.27
257.65	75.95
257.866	53.42
258.082	-87.89
258.299	39.08
258.515	24.75
258.732	32.94
258.948	-30.55
259.165	47.27
259.381	67.75
259.597	-42.84
259.814	16.55
260.03	-36.69
260.246	57.51
260.463	80.04
260.679	94.38
260.895	22.7
261.112	59.56
261.328	30.89
261.544	34.99
261.761	47.27
261.977	26.79
262.193	-30.55
262.409	121
262.626	6.31
262.842	110.76
263.058	-53.08
263.274	26.79
263.49	71.85
263.707	30.89
263.923	2.22
264.139	10.41
264.355	28.84
264.571	71.85
264.787	67.75
265.004	77.99
265.22	2.22
265.436	-46.93
265.652	-18.26
265.868	16.55
266.084	53.42
266.3	24.75
266.516	49.32
266.732	73.9
266.948	114.86
267.164	18.6
267.38	16.55
267.596	30.89
267.812	92.33
268.028	22.7
268.244	30.89
268.46	59.56
268.676	-12.12
268.892	59.56
269.108	22.7
269.324	34.99
269.54	-10.07
269.756	49.32
269.972	-59.22
270.188	-34.64
270.403	0.17
270.619	106.67
270.835	96.43
271.051	59.56
271.267	20.65
271.483	26.79
271.698	12.46
271.914	10.41
272.13	24.75
272.346	28.84
272.562	-34.64
272.777	61.61
272.993	43.18
273.209	26.79
273.425	26.79
273.64	59.56
273.856	53.42
274.072	8.36
274.287	-1.88
274.503	73.9
274.719	18.6
274.934	53.42
275.15	37.03
275.366	24.75
275.581	20.65
275.797	6.31
276.012	14.51
276.228	26.79
276.444	6.31
276.659	-10.07
276.875	-71.51
277.09	53.42
277.306	47.27
277.521	37.03
277.737	41.13
277.952	100.52
278.168	43.18
278.383	63.66
278.599	-10.07
278.814	63.66
279.03	4.27
279.245	59.56
279.461	53.42
279.676	2.22
279.892	-63.32
280.107	73.9
280.322	2.22
280.538	-10.07
280.753	-1.88
280.969	-22.36
281.184	55.47
281.399	71.85
281.615	10.41
281.83	65.71
282.045	61.61
282.26	-1.88
282.476	51.37
282.691	-10.07
282.906	45.23
283.122	24.75
283.337	80.04
283.552	100.52
283.767	14.51
283.983	26.79
284.198	86.19
284.413	10.41
284.628	-59.22
284.843	53.42
285.058	55.47
285.274	63.66
285.489	-61.27
285.704	6.31
285.919	45.23
286.134	16.55
286.349	-26.45
286.564	59.56
286.779	96.43
286.995	16.55
287.21	-5.97
287.425	45.23
287.64	20.65
287.855	80.04
288.07	-5.97
288.285	39.08
288.5	55.47
288.715	55.47
288.93	-57.17
289.145	53.42
289.36	10.41
289.575	-10.07
289.79	55.47
290.004	6.31
290.219	71.85
290.434	37.03
290.649	34.99
290.864	22.7
291.079	30.89
291.294	92.33
291.509	49.32
291.724	28.84
291.938	-34.64
292.153	39.08
292.368	53.42
292.583	129.19
292.798	71.85
293.012	55.47
293.227	-18.26
293.442	-57.17
293.657	28.84
293.871	59.56
294.086	4.27
294.301	55.47
294.516	59.56
294.73	49.32
294.945	88.23
295.16	55.47
295.374	2.22
295.589	67.75
295.804	34.99
296.018	-5.97
296.233	69.8
296.447	86.19
296.662	30.89
296.877	104.62
297.091	102.57
297.306	24.75
297.52	22.7
297.735	98.47
297.949	12.46
298.164	86.19
298.378	8.36
298.593	28.84
298.807	51.37
299.022	30.89
299.236	102.57
299.451	53.42
299.665	-46.93
299.88	34.99
300.094	67.75
300.309	37.03
300.523	-18.26
300.737	10.41
300.952	47.27
301.166	-14.17
301.381	39.08
301.595	14.51
301.809	51.37
302.024	28.84
302.238	16.55
302.452	112.81
302.667	14.51
302.881	26.79
303.095	96.43
303.309	32.94
303.524	-38.74
303.738	30.89
303.952	-18.26
304.166	73.9
304.381	-24.4
304.595	71.85
304.809	37.03
305.023	90.28
305.237	30.89
305.452	75.95
305.666	-24.4
305.88	80.04
306.094	22.7
306.308	51.37
306.522	133.29
306.736	67.75
306.95	26.79
307.164	65.71
307.379	24.75
307.593	94.38
307.807	51.37
308.021	110.76
308.235	53.42
308.449	34.99
308.663	2.22
308.877	192.68
309.091	45.23
309.305	37.03
309.519	34.99
309.733	51.37
309.947	55.47
310.161	80.04
310.374	67.75
310.588	94.38
310.802	86.19
311.016	47.27
311.23	37.03
311.444	4.27
311.658	75.95
311.872	-10.07
312.085	4.27
312.299	84.14
312.513	20.65
312.727	28.84
312.941	-53.08
313.154	53.42
313.368	59.56
313.582	20.65
313.796	77.99
314.009	47.27
314.223	63.66
314.437	24.75
314.651	145.58
314.864	14.51
315.078	43.18
315.292	30.89
315.505	4.27
315.719	71.85
315.933	69.8
316.146	26.79
316.36	8.36
316.573	51.37
316.787	-28.5
317.001	92.33
317.214	102.57
317.428	30.89
317.641	30.89
317.855	71.85
318.068	10.41
318.282	-3.93
318.495	37.03
318.709	-18.26
318.922	-10.07
319.136	123.05
319.349	75.95
319.563	88.23
319.776	51.37
319.99	86.19
320.203	-28.5
320.417	59.56
320.63	22.7
320.843	88.23
321.057	55.47
321.27	67.75
321.483	30.89
321.697	116.9
321.91	41.13
322.124	43.18
322.337	110.76
322.55	6.31
322.763	51.37
322.977	34.99
323.19	65.71
323.403	-3.93
323.617	45.23
323.83	80.04
324.043	37.03
324.256	57.51
324.469	6.31
324.683	69.8
324.896	112.81
325.109	108.71
325.322	28.84
325.535	61.61
325.748	94.38
325.962	53.42
326.175	88.23
326.388	63.66
326.601	45.23
326.814	-28.5
327.027	30.89
327.24	69.8
327.453	-10.07
327.666	63.66
327.879	53.42
328.092	63.66
328.305	65.71
328.518	20.65
328.731	18.6
328.944	-1.88
329.157	39.08
329.37	-1.88
329.583	18.6
329.796	71.85
330.009	51.37
330.222	14.51
330.435	94.38
330.648	28.84
330.861	43.18
331.073	14.51
331.286	49.32
331.499	84.14
331.712	12.46
331.925	-18.26
332.138	73.9
332.35	10.41
332.563	26.79
332.776	59.56
332.989	63.66
333.202	12.46
333.414	18.6
333.627	34.99
333.84	30.89
334.053	22.7
334.265	30.89
334.478	77.99
334.691	57.51
334.903	67.75
335.116	41.13
335.329	28.84
335.541	80.04
335.754	88.23
335.966	-1.88
336.179	-20.31
336.392	88.23
336.604	43.18
336.817	116.9
337.029	104.62
337.242	49.32
337.454	22.7
337.667	-3.93
337.88	69.8
338.092	63.66
338.305	121
338.517	-20.31
338.729	55.47
338.942	18.6
339.154	94.38
339.367	-14.17
339.579	69.8
339.792	88.23
340.004	96.43
340.217	14.51
340.429	53.42
340.641	77.99
340.854	71.85
341.066	65.71
341.278	53.42
341.491	20.65
341.703	98.47
341.915	55.47
342.128	47.27
342.34	34.99
342.552	47.27
342.764	49.32
342.977	55.47
343.189	32.94
343.401	22.7
343.613	75.95
343.826	75.95
344.038	-14.17
344.25	45.23
344.462	88.23
344.674	53.42
344.886	32.94
345.099	22.7
345.311	106.67
345.523	41.13
345.735	69.8
345.947	43.18
346.159	61.61
346.371	75.95
346.583	37.03
346.795	82.09
347.007	26.79
347.219	22.7
347.431	4.27
347.643	37.03
347.855	53.42
348.067	69.8
348.279	75.95
348.491	28.84
348.703	55.47
348.915	6.31
349.127	-26.45
349.339	26.79
349.551	16.55
349.763	121
349.975	20.65
350.187	14.51
350.399	55.47
350.61	71.85
350.822	104.62
351.034	32.94
351.246	28.84
351.458	86.19
351.669	0.17
351.881	12.46
352.093	84.14
352.305	67.75
352.517	2.22
352.728	49.32
352.94	82.09
353.152	8.36
353.363	96.43
353.575	82.09
353.787	41.13
353.999	32.94
354.21	61.61
354.422	20.65
354.633	34.99
354.845	-18.26
355.057	22.7
355.268	-36.69
355.48	34.99
355.692	22.7
355.903	28.84
356.115	-1.88
356.326	-16.21
356.538	8.36
356.749	-5.97
356.961	53.42
357.172	63.66
357.384	73.9
357.595	69.8
357.807	-8.02
358.018	55.47
358.23	69.8
358.441	110.76
358.653	28.84
358.864	82.09
359.075	55.47
359.287	80.04
359.498	47.27
359.709	88.23
359.921	-14.17
360.132	14.51
360.344	118.95
360.555	170.15
360.766	-1.88
360.977	69.8
361.189	102.57
361.4	59.56
361.611	77.99
361.823	51.37
362.034	43.18
362.245	67.75
362.456	12.46
362.667	-10.07
362.879	49.32
363.09	96.43
363.301	84.14
363.512	67.75
363.723	45.23
363.935	4.27
364.146	37.03
364.357	22.7
364.568	114.86
364.779	55.47
364.99	88.23
365.201	37.03
365.412	86.19
365.623	12.46
365.834	67.75
366.045	24.75
366.256	14.51
366.467	55.47
366.678	16.55
366.889	45.23
367.1	26.79
367.311	108.71
367.522	67.75
367.733	106.67
367.944	100.52
368.155	-53.08
368.366	14.51
368.577	45.23
368.788	51.37
368.999	-46.93
369.209	61.61
369.42	94.38
369.631	153.77
369.842	41.13
370.053	22.7
370.264	116.9
370.474	30.89
370.685	96.43
370.896	14.51
371.107	53.42
371.317	131.24
371.528	92.33
371.739	75.95
371.95	-5.97
372.16	49.32
372.371	-14.17
372.582	53.42
372.792	96.43
373.003	24.75
373.214	14.51
373.424	51.37
373.635	22.7
373.846	80.04
374.056	84.14
374.267	2.22
374.477	166.06
374.688	32.94
374.898	47.27
375.109	47.27
375.319	53.42
375.53	116.9
375.74	32.94
375.951	-12.12
376.161	65.71
376.372	75.95
376.582	114.86
376.793	24.75
377.003	71.85
377.214	8.36
377.424	86.19
377.635	80.04
377.845	34.99
378.055	121
378.266	84.14
378.476	57.51
378.686	39.08
378.897	100.52
379.107	114.86
379.317	86.19
379.528	45.23
379.738	80.04
379.948	30.89
380.158	90.28
380.369	59.56
380.579	100.52
380.789	18.6
380.999	10.41
381.21	39.08
381.42	164.01
381.63	63.66
381.84	80.04
382.05	22.7
382.261	102.57
382.471	112.81
382.681	100.52
382.891	28.84
383.101	92.33
383.311	59.56
383.521	39.08
383.731	28.84
383.941	88.23
384.151	20.65
384.361	57.51
384.571	55.47
384.781	63.66
384.991	41.13
385.201	41.13
385.411	116.9
385.621	18.6
385.831	65.71
386.041	63.66
386.251	14.51
386.461	104.62
386.671	26.79
386.881	102.57
387.091	43.18
387.301	73.9
387.511	47.27
387.72	77.99
387.93	77.99
388.14	34.99
388.35	59.56
388.56	104.62
388.769	96.43
388.979	32.94
389.189	30.89
389.399	71.85
389.609	67.75
389.818	116.9
390.028	75.95
390.238	28.84
390.447	14.51
390.657	108.71
390.867	67.75
391.076	104.62
391.286	125.1
391.496	129.19
391.705	-18.26
391.915	82.09
392.125	176.3
392.334	65.71
392.544	88.23
392.753	14.51
392.963	65.71
393.172	123.05
393.382	73.9
393.591	112.81
393.801	112.81
394.01	102.57
394.22	106.67
394.429	121
394.639	49.32
394.848	69.8
395.058	127.14
395.267	127.14
395.477	88.23
395.686	43.18
395.895	104.62
396.105	102.57
396.314	90.28
396.524	57.51
396.733	47.27
396.942	123.05
397.152	55.47
397.361	67.75
397.57	65.71
397.78	96.43
397.989	77.99
398.198	127.14
398.407	157.86
398.617	110.76
398.826	159.91
399.035	133.29
399.244	71.85
399.453	2.22
399.663	159.91
399.872	75.95
400.081	145.58
400.29	121
400.499	98.47
400.708	190.63
400.917	80.04
401.127	129.19
401.336	55.47
401.545	180.39
401.754	96.43
401.963	67.75
402.172	77.99
402.381	67.75
402.59	34.99
402.799	133.29
403.008	108.71
403.217	137.38
403.426	106.67
403.635	108.71
403.844	170.15
404.053	155.82
404.262	121
404.471	141.48
404.68	166.06
404.888	170.15
405.097	153.77
405.306	141.48
405.515	161.96
405.724	82.09
405.933	125.1
406.142	145.58
406.35	209.06
406.559	151.72
406.768	211.11
406.977	194.73
407.185	180.39
407.394	194.73
407.603	186.54
407.812	231.59
408.02	264.36
408.229	239.78
408.438	209.06
408.646	231.59
408.855	280.74
409.064	309.41
409.272	235.69
409.481	207.02
409.69	356.52
409.898	317.61
410.107	340.13
410.315	313.51
410.524	305.32
410.733	395.43
410.941	391.33
411.15	383.14
411.358	403.62
411.567	420
411.775	344.23
411.984	385.19
412.192	493.73
412.401	569.51
412.609	553.12
412.818	530.59
413.026	524.45
413.234	479.4
413.443	477.35
413.651	557.22
413.86	602.27
414.068	647.33
414.276	626.85
414.485	604.32
414.693	655.52
414.901	733.34
415.11	700.58
415.318	690.34
415.526	690.34
415.734	831.65
415.943	833.69
416.151	854.17
416.359	891.04
416.567	829.6
416.776	888.99
416.984	985.24
417.192	1022.11
417.4	944.28
417.608	985.24
417.817	987.29
418.025	1015.96
418.233	1206.42
418.441	1171.61
418.649	1179.8
418.857	1257.62
419.065	1251.48
419.273	1337.49
419.481	1333.4
419.689	1497.24
419.897	1468.56
420.105	1491.09
420.313	1552.53
420.521	1550.48
420.729	1587.35
420.937	1659.03
421.145	1767.57
421.353	1886.35
421.561	1970.32
421.769	2039.95
421.977	2035.85
422.185	2074.76
422.393	2228.36
422.601	2338.95
422.809	2230.41
423.017	2341
423.224	2341
423.432	2357.38
423.64	2437.25
423.848	2689.15
424.056	2566.28
424.263	2881.66
424.471	2889.85
424.679	2889.85
424.887	2955.39
425.094	3201.15
425.302	3254.39
425.51	3297.4
425.718	3334.26
425.925	3516.53
426.133	3469.43
426.341	3623.03
426.548	3897.46
426.756	3782.77
426.964	4036.72
427.171	4165.74
427.379	4261.99
427.586	4386.92
427.794	4395.11
428.001	4647.01
428.209	4935.78
428.417	4819.04
428.624	5204.06
428.832	5068.89
429.039	5103.71
429.247	5156.96
429.454	5613.65
429.662	5967.95
429.869	5822.55
430.076	6107.21
430.284	5722.2
430.491	6080.59
430.699	6344.78
430.906	6320.2
431.114	6547.53
431.321	6686.79
431.528	6877.25
431.736	7290.94
431.943	7493.69
432.15	7393.34
432.358	7673.91
432.565	7882.8
432.772	7917.62
432.979	8245.29
433.187	8343.6
433.394	8400.94
433.601	8972.32
433.808	9107.49
434.016	9146.4
434.223	9420.83
434.43	9916.44
434.637	9826.32
434.844	10434.57
435.052	10475.53
435.259	10672.14
435.466	10473.48
435.673	10426.38
435.88	11374.59
436.087	11581.43
436.294	11804.66
436.501	11448.32
436.708	11913.2
436.915	12234.74
437.122	12695.53
437.329	12490.73
437.537	12963.81
437.743	13131.75
437.95	12994.53
438.157	13656.03
438.364	14366.67
438.571	14063.57
438.778	14159.83
438.985	15697.85
439.192	14985.16
439.399	15407.04
439.606	15087.56
439.813	15744.95
440.02	16988.07
440.227	16582.57
440.433	16523.18
440.64	17074.09
440.847	16943.02
441.054	17297.31
441.261	18159.51
441.467	17979.29
441.674	18599.82
441.881	19156.87
442.088	18900.87
442.294	19001.22
442.501	19543.94
442.708	19890.04
442.914	20742
443.121	21350.24
443.328	21018.47
443.534	22392.66
443.741	21505.89
443.948	21555.04
444.154	23277.38
444.361	23119.69
444.568	23213.9
444.774	23273.29
444.981	23476.04
445.187	24241.98
445.394	25106.22
445.6	24645.43
445.807	26820.37
446.013	25943.84
446.22	26183.45
446.426	27332.36
446.633	27571.97
446.839	28559.09
447.046	27322.12
447.252	28739.32
447.459	28827.38
447.665	28430.07
447.871	29798.12
448.078	30674.65
448.284	29699.81
448.491	30052.06
448.697	31473.35
448.903	31909.57
449.11	32036.55
449.316	31375.05
449.522	32075.46
449.728	32683.7
449.935	32988.85
450.141	33097.39
450.347	33861.29
450.553	32460.48
450.76	32976.56
450.966	33982.12
451.172	33994.4
451.378	34610.84
451.584	33818.28
451.791	34614.94
451.997	34375.33
452.203	34887.32
452.409	34860.69
452.615	34645.66
452.821	33400.49
453.027	33019.57
453.233	34786.97
453.44	33334.96
453.646	33695.4
453.852	33787.56
454.058	34145.95
454.264	33451.69
454.47	34025.12
454.676	32804.53
454.882	33803.94
455.088	31166.16
455.294	31704.77
455.5	31805.13
455.705	32229.05
455.911	30598.87
456.117	30238.43
456.323	29605.61
456.529	28012.29
456.735	29548.26
456.941	28800.76
457.147	28092.16
457.352	27406.09
457.558	27062.03
457.764	27418.38
457.97	26474.26
458.176	26079
458.381	26042.14
458.587	24641.33
458.793	24885.04
458.999	23301.96
459.204	25003.82
459.41	24559.41
459.616	22988.62
459.821	22771.54
460.027	22447.96
460.233	22239.06
460.438	21299.05
460.644	21419.88
460.85	20549.49
461.055	20129.66
461.261	20113.27
461.466	18532.24
461.672	18261.91
461.878	19412.87
462.083	17872.79
462.289	17674.14
462.494	17518.5
462.7	16883.63
462.905	16490.42
463.111	16730.03
463.316	16916.39
463.522	16617.39
463.727	16674.73
463.932	16437.17
464.138	16365.49
464.343	16596.91
464.549	16142.26
464.754	16406.45
464.959	16340.91
465.165	16365.49
465.37	15550.4
465.575	15255.49
465.781	15880.12
465.986	16215.99
466.191	15591.36
466.397	14862.28
466.602	14358.48
466.807	14901.19
467.012	14882.76
467.218	14817.22
467.423	14813.13
467.628	14800.84
467.833	15468.48
468.038	14825.42
468.244	14323.66
468.449	14985.16
468.654	14391.25
468.859	14372.82
469.064	14284.75
469.269	13596.64
469.474	13971.41
469.679	14225.36
469.885	13570.01
470.09	13709.27
470.295	13701.08
470.5	13311.97
470.705	13604.83
470.91	13084.64
471.115	13094.88
471.32	13301.73
471.525	13170.66
471.73	12670.95
471.935	12791.78
472.139	12169.2
472.344	12486.64
472.549	12417.01
472.754	12363.76
472.959	12222.45
473.164	11888.63
473.369	11704.31
473.574	11802.61
473.778	12025.84
473.983	11894.77
474.188	11769.85
474.393	11194.37
474.598	11335.68
474.802	11118.59
475.007	11124.74
475.212	11157.5
475.417	10651.66
475.621	10764.29
475.826	10848.26
476.031	10487.82
476.235	10436.62
476.44	10678.28
476.645	10270.73
476.849	10352.65
477.054	10094.61
477.259	10123.28
477.463	10305.55
477.668	9660.44
477.872	9891.86
478.077	9685.01
478.282	9545.75
478.486	9676.82
478.691	9562.14
478.895	9469.98
479.1	9359.39
479.304	9187.36
479.509	9246.75
479.713	9058.34
479.918	9058.34
480.122	8742.95
480.326	9119.78
480.531	9146.4
480.735	8814.63
480.94	8894.5
481.144	9222.17
481.348	8900.64
481.553	9044
481.757	8615.98
481.961	8892.45
482.166	9009.19
482.37	8876.07
482.574	8650.79
482.778	8788
482.983	8953.89
483.187	8665.13
483.391	8759.33
483.595	8685.61
483.8	8554.54
484.004	8781.86
484.208	8894.5
484.412	8902.69
484.616	8857.64
484.821	8730.66
485.025	8515.62
485.229	8798.24
485.433	8722.47
485.637	8800.29
485.841	8538.15
486.045	8630.31
486.249	8742.95
486.453	8532.01
486.657	8558.63
486.861	8699.94
487.065	8448.04
487.269	8636.45
487.473	8648.74
487.677	8714.28
487.881	8929.31
488.085	8595.5
488.289	8835.11
488.493	8855.59
488.697	8943.65
488.901	8661.03
489.105	8550.44
489.309	8673.32
489.512	8812.58
489.716	8972.32
489.92	8996.9
490.124	8841.25
490.328	8964.13
490.531	8962.08
490.735	9048.1
490.939	9013.28
491.143	8716.33
491.346	9078.82
491.55	9144.35
491.754	9074.72
491.958	9373.72
492.161	9003.04
492.365	9439.26
492.569	9320.48
492.772	9271.33
492.976	9242.65
493.18	9478.17
493.383	9586.71
493.587	9527.32
493.79	9828.37
493.994	9730.07
494.197	9654.3
494.401	9809.94
494.605	9687.06
494.808	9865.24
495.012	10033.17
495.215	10133.52
495.419	10131.47
495.622	10139.66
495.825	10448.91
496.029	10266.64
496.232	10485.77
496.436	10407.95
496.639	10727.43
496.843	10778.63
497.046	10846.21
497.249	10958.85
497.453	11094.02
497.656	11188.22
497.859	11182.08
498.063	11218.94
498.266	11759.61
498.469	11493.37
498.673	11835.38
498.876	11749.37
499.079	11866.1
499.282	11898.87
499.485	12251.12
499.689	12414.96
499.892	12410.86
500.095	12670.95
500.298	12869.61
500.501	12658.67
500.705	12953.57
500.908	13141.99
501.111	13318.11
501.314	13346.78
501.517	13514.72
501.72	13774.81
501.923	13887.45
502.126	14135.25
502.329	14520.27
502.532	14485.45
502.735	14329.81
502.938	14399.44
503.141	14739.4
503.344	15265.73
503.547	15126.47
503.75	15228.87
503.953	15478.72
504.156	15609.79
504.359	15812.54
504.562	15878.07
504.765	16295.86
504.968	16304.05
505.17	16527.28
505.373	16598.96
505.576	17102.76
505.779	17129.38
505.982	17145.77
506.185	17661.85
506.387	17446.82
506.59	17670.05
506.793	18253.72
506.996	18175.89
507.198	18759.56
507.401	18536.34
507.604	18835.34
507.807	19064.71
508.009	19537.79
508.212	19306.37
508.415	19529.6
508.617	19730.3
508.82	19779.45
509.022	20012.92
509.225	20504.43
509.428	20770.67
509.63	20965.23
509.833	20973.42
510.035	21389.16
510.238	21393.25
510.44	21520.23
510.643	22175.58
510.845	22132.57
511.048	22220.63
511.25	22423.38
511.453	22398.8
511.655	23430.98
511.858	23289.67
512.06	23332.68
512.262	23744.32
512.465	23623.49
512.667	23979.84
512.87	24323.9
513.072	24504.12
513.274	25302.82
513.477	25286.44
513.679	25308.97
513.881	25687.84
514.084	25820.96
514.286	25841.44
514.488	26015.52
514.69	27031.31
514.893	27148.04
515.095	27363.08
515.297	27455.24
515.499	27361.03
515.701	28026.62
515.904	28192.51
516.106	28192.51
516.308	28776.18
516.51	28997.36
516.712	29312.75
516.914	29376.23
517.116	29806.31
517.318	29992.67
517.52	30242.53
517.722	30420.7
517.925	31008.47
518.127	31243.98
518.329	31268.56
518.531	31235.79
518.733	31649.48
518.935	31999.68
519.136	31981.25
519.338	33019.57
519.54	33148.59
519.742	33144.5
519.944	33488.56
520.146	33994.4
520.348	34049.7
520.55	34356.89
520.752	34186.91
520.954	35040.92
521.155	35069.59
521.357	35526.28
521.559	35647.11
521.761	36152.96
521.963	36513.41
522.164	36368
522.366	36605.56
522.568	37219.95
522.77	36847.22
522.971	37846.63
523.173	37330.55
523.375	38190.69
523.576	38243.94
523.778	37969.51
523.98	38905.43
524.181	38800.99
524.383	39167.57
524.584	39427.67
524.786	39845.45
524.988	39755.34
525.189	40472.13
525.391	40183.37
525.592	40738.37
525.794	40461.89
525.995	40676.93
526.197	40771.13
526.398	41242.17
526.6	41428.53
526.801	41276.98
527.003	41852.46
527.204	41717.29
527.406	42368.55
527.607	42487.33
527.808	42421.8
528.01	41948.71
528.211	42315.3
528.412	43351.57
528.614	42901.02
528.815	42860.06
529.016	43556.37
529.218	43238.93
529.419	43724.3
529.62	43656.72
529.822	43826.7
530.023	43427.35
530.224	43888.14
530.425	43673.1
530.626	43425.3
530.828	43576.85
531.029	44201.48
531.23	43576.85
531.431	44203.53
531.632	44269.06
531.833	44662.27
532.035	44635.65
532.236	44606.98
532.437	44643.84
532.638	44711.42
532.839	44678.66
533.04	45047.29
533.241	44527.11
533.442	45254.14
533.643	45055.48
533.844	44758.53
534.045	45184.51
534.246	45065.72
534.447	45397.49
534.648	44948.99
534.849	45448.69
535.05	44848.64
535.251	45460.98
535.451	44762.62
535.652	45522.42
535.853	45098.49
536.054	45387.25
536.255	45551.09
536.456	45047.29
536.657	46024.17
536.857	45133.31
537.058	45245.94
537.259	45471.22
537.46	45432.31
537.66	45497.84
537.861	45469.17
538.062	45063.68
538.263	45463.03
538.463	45358.58
538.664	45112.83
538.865	45303.29
539.065	45876.72
539.266	44850.69
539.466	45665.78
539.667	45055.48
539.868	45796.85
540.068	45399.54
540.269	45364.73
540.469	45647.35
540.67	45004.28
540.87	45657.59
541.071	45487.6
541.271	45590
541.472	45751.79
541.672	45471.22
541.873	45204.98
542.073	44795.39
542.274	45821.42
542.474	45198.84
542.675	45196.79
542.875	45415.93
543.075	45194.75
543.276	44768.77
543.476	45385.21
543.676	45164.03
543.877	45049.34
544.077	45223.42
544.277	45108.73
544.478	44951.04
544.678	45204.98
544.878	44920.32
545.078	45207.03
545.279	44815.87
545.479	44920.32
545.679	45153.79
545.879	45067.77
546.079	45350.39
546.28	45026.81
546.48	44697.09
546.68	45065.72
546.88	45108.73
547.08	45145.59
547.28	45200.89
547.48	44695.04
547.68	45391.35
547.88	44787.2
548.081	45055.48
548.281	45129.21
548.481	44801.54
548.681	45293.05
548.881	44936.7
549.081	45059.58
549.28	44934.65
549.48	45092.35
549.68	44838.4
549.88	45370.87
550.08	44709.38
550.28	44762.62
550.48	44924.41
550.68	45549.04
550.88	44457.48
551.08	44502.53
551.279	44527.11
551.479	44269.06
551.679	44799.49
551.879	44711.42
552.079	44606.98
552.278	44279.3
552.478	44731.9
552.678	44639.75
552.878	44539.4
553.077	44834.3
553.277	43945.48
553.477	44551.68
553.676	44299.78
553.876	44547.59
554.076	44088.84
554.275	44547.59
554.475	44043.79
554.674	44303.88
554.874	44498.44
555.074	44129.8
555.273	43931.15
555.473	44635.65
555.672	43888.14
555.872	44211.72
556.071	44015.12
556.271	44355.08
556.47	43820.56
556.67	43740.69
556.869	43732.5
557.068	44017.16
557.268	43353.62
557.467	43492.88
557.667	43789.84
557.866	43687.44
558.065	43367.96
558.265	43343.38
558.464	43296.28
558.663	43507.22
558.863	43011.61
559.062	43609.62
559.261	42866.2
559.461	43400.72
559.66	42290.73
559.859	42954.27
560.058	42692.13
560.258	42765.85
560.457	42475.04
560.656	42917.4
560.855	42219.05
561.054	42884.64
561.253	42106.41
561.453	42452.51
561.652	42798.62
561.851	42602.02
562.05	42286.63
562.249	41934.38
562.448	42276.39
562.647	41985.58
562.846	42102.31
563.045	41967.15
563.244	41539.12
563.443	41719.34
563.642	41082.42
563.841	41500.21
564.04	40746.56
564.239	41451.06
564.438	41483.83
564.637	41360.95
564.836	41260.6
565.035	40644.16
565.234	41008.7
565.432	40474.18
565.631	40429.12
565.83	40828.48
566.029	40334.92
566.228	40293.96
566.427	40160.84
566.625	39988.81
566.824	39751.24
567.023	40152.65
567.222	39259.73
567.42	39986.76
567.619	39530.06
567.818	39525.97
568.016	39566.93
568.215	39448.14
568.414	39257.68
568.612	39505.49
568.811	38688.35
569.01	39005.78
569.208	38461.02
569.407	39153.24
569.605	38336.1
569.804	38903.39
570.002	38456.93
570.201	38178.4
570.4	37959.27
570.598	37768.81
570.797	37615.21
570.995	38207.08
571.193	37265.01
571.392	38030.95
571.59	37461.62
571.789	37537.39
571.987	37265.01
572.186	37295.73
572.384	36902.52
572.582	37174.9
572.781	37328.5
572.979	36775.55
573.177	36697.72
573.376	37043.83
573.574	36484.73
573.772	36890.23
573.971	36408.96
574.169	36220.55
574.367	35718.79
574.565	35991.17
574.763	35964.55
574.962	35759.75
575.16	35417.74
575.358	35831.43
575.556	35454.61
575.754	35790.47
575.952	35176.08
576.151	35643.02
576.349	34836.12
576.547	35171.99
576.745	35008.15
576.943	34881.17
577.141	34846.36
577.339	35040.92
577.537	34840.22
577.735	34545.31
577.933	34487.96
578.131	34346.65
578.329	33908.39
578.527	34172.58
578.725	34250.4
578.923	33791.66
579.121	33789.61
579.319	33302.19
579.516	33724.07
579.714	33832.61
579.912	33314.48
580.11	33535.66
580.308	33289.9
580.506	33347.25
580.704	32816.82
580.901	32900.79
581.099	33296.05
581.297	32618.17
581.495	32751.29
581.692	32761.53
581.89	32257.73
582.088	32683.7
582.285	32571.07
582.483	32558.78
582.681	32097.98
582.878	32118.46
583.076	31915.72
583.274	32071.36
583.471	31762.12
583.669	32181.95
583.866	31641.29
584.064	31753.93
584.262	30957.27
584.459	31868.61
584.657	31469.26
584.854	31272.65
585.052	30942.93
585.249	31071.95
585.447	31192.78
585.644	30789.33
585.841	31018.71
586.039	31278.8
586.236	30351.07
586.434	30590.68
586.631	30115.55
586.828	30310.11
587.026	30318.3
587.223	30162.65
587.42	30004.96
587.618	30232.29
587.815	29583.08
588.012	29583.08
588.21	29546.22
588.407	30068.45
588.604	29548.26
588.801	29316.84
588.999	29351.66
589.196	29339.37
589.393	29415.15
589.59	28933.87
589.787	28866.29
589.984	28755.7
590.182	28636.92
590.379	29028.08
590.576	28501.75
590.773	28540.66
590.97	28475.13
591.167	28339.96
591.364	28112.64
591.561	28311.29
591.758	27686.66
591.955	28002.05
592.152	28548.86
592.349	27823.87
592.546	28247.8
592.743	28126.97
592.94	27377.42
593.137	27578.12
593.334	27723.52
593.531	26890
593.727	27447.05
593.924	26935.06
594.121	27057.93
594.318	27389.7
594.515	26625.81
594.712	27121.42
594.908	26906.38
595.105	26840.85
595.302	26400.54
595.499	26666.77
595.696	26511.13
595.892	26488.6
596.089	26584.85
596.286	26611.48
596.482	26267.42
596.679	26162.97
596.876	26038.05
597.072	26042.14
597.269	26070.81
597.466	25642.79
597.662	25667.36
597.859	25564.96
598.055	25806.62
598.252	25521.96
598.448	25532.2
598.645	25509.67
598.841	25106.22
599.038	25315.11
599.234	25184.04
599.431	24846.13
599.627	24569.65
599.824	25227.05
600.02	24897.33
600.217	24743.73
600.413	24643.38
600.609	24624.95
600.806	24473.4
601.002	24749.87
601.198	24356.66
601.395	23985.98
601.591	24147.77
601.787	24301.37
601.984	24022.84
602.18	24221.5
602.376	23912.25
602.572	24063.8
602.769	23955.26
602.965	23560
603.161	23207.75
603.357	23279.43
603.553	23496.52
603.75	23482.18
603.946	23347.01
604.142	23373.64
604.338	23052.11
604.534	23156.55
604.73	23060.3
604.926	22941.52
605.122	22832.97
605.318	22775.63
605.514	22751.06
605.71	22480.72
605.906	22560.59
606.102	22302.55
606.298	22548.31
606.494	22202.2
606.69	22466.39
606.886	22419.28
607.082	21872.48
607.278	22372.18
607.474	22034.27
607.67	22208.34
607.866	21800.8
608.062	21862.24
608.257	21628.77
608.453	21983.07
608.649	21774.17
608.845	21770.08
609.041	21505.89
609.236	21800.8
609.432	21800.8
609.628	21591.91
609.824	21608.29
610.019	21557.09
610.215	21350.24
610.411	21493.6
610.606	21204.84
610.802	21403.49
610.998	21131.11
611.193	21165.93
611.389	21206.89
611.584	21208.94
611.78	20658.03
611.976	21137.26
612.171	20911.98
612.367	20920.17
612.562	20711.28
612.758	20703.09
612.953	20871.02
613.149	20625.26
613.344	20404.08
613.539	21065.58
613.735	20406.13
613.93	20449.14
614.126	20189.05
614.321	20492.15
614.517	20256.63
614.712	20137.85
614.907	20230.01
615.103	20660.08
615.298	20055.93
615.493	20250.49
615.688	19996.54
615.884	20412.28
616.079	19756.93
616.274	19883.9
616.47	19967.87
616.665	20254.58
616.86	19853.18
617.055	19775.36
617.25	19613.57
617.445	19928.95
617.641	19275.65
617.836	19646.33
618.031	19394.43
618.226	19488.64
618.421	19246.98
618.616	19599.23
618.811	19234.69
619.006	19326.85
619.201	18988.94
619.396	19222.41
619.591	18665.36
619.786	18741.13
619.981	18653.07
620.176	18796.43
620.371	18624.4
620.566	18790.28
620.761	18567.06
620.956	18696.08
621.151	18413.46
621.346	18442.13
621.541	18024.34
621.735	18286.48
621.93	17940.38
622.125	17964.95
622.32	17629.09
622.515	17852.31
622.709	17778.59
622.904	17682.33
623.099	17172.39
623.294	17594.27
623.488	17186.72
623.683	17244.07
623.878	17153.96
624.072	17100.71
624.267	16973.74
624.462	16895.91
624.656	16666.54
624.851	16832.43
625.046	16414.64
625.24	16512.94
625.435	16342.96
625.629	16256.95
625.824	16074.68
626.018	16232.37
626.213	15798.2
626.407	16058.29
626.602	15765.43
626.796	15523.77
626.991	15771.58
627.185	15724.47
627.38	15734.71
627.574	15542.21
627.768	15273.92
627.963	14913.48
628.157	15214.53
628.352	15177.67
628.546	14913.48
628.74	15116.23
628.935	14919.62
629.129	14950.34
629.323	14585.8
629.517	14540.75
629.712	14534.6
629.906	14434.25
630.1	14688.2
630.294	14301.14
630.489	14127.06
630.683	14245.84
630.877	14002.13
631.071	13973.46
631.265	13944.79
631.459	13877.21
631.653	13936.6
631.848	13551.58
632.042	13639.64
632.236	13694.94
632.43	13426.65
632.624	13600.73
632.818	13465.57
633.012	13328.35
633.206	13275.1
633.4	13148.13
633.594	12941.29
633.788	12791.78
633.982	13125.6
634.176	12722.15
634.369	12842.98
634.563	12652.52
634.757	12863.46
634.951	12613.61
635.145	12509.16
635.339	12646.38
635.533	12290.03
635.726	12201.97
635.92	12199.92
636.114	12355.57
636.308	12003.32
636.501	12093.43
636.695	12068.85
636.889	11757.56
637.083	12001.27
637.276	11761.66
637.47	11945.97
637.664	11655.16
637.857	11591.67
638.051	11507.71
638.244	11270.14
638.438	11462.65
638.632	11417.6
638.825	11151.36
639.019	11194.37
639.212	11122.69
639.406	11237.38
639.599	11165.7
639.793	11210.75
639.986	11141.12
640.18	10700.81
640.373	10928.13
640.567	10874.88
640.76	10684.42
640.954	10440.72
641.147	10620.94
641.34	10453
641.534	10369.04
641.727	10395.66
641.92	10410
642.114	10102.8
642.307	10375.18
642.5	10180.62
642.694	10072.08
642.887	9850.9
643.08	10252.3
643.273	9988.11
643.467	9891.86
643.66	9922.58
643.853	9660.44
644.046	9527.32
644.239	9689.11
644.432	9568.28
644.626	9369.63
644.819	9484.31
645.012	9375.77
645.205	9355.29
645.398	9394.2
645.591	9236.51
645.784	9310.24
645.977	9046.05
646.17	9119.78
646.363	9005.09
646.556	9089.06
646.749	8939.55
646.942	9087.01
647.135	8886.31
647.328	8796.2
647.521	8683.56
647.714	8484.91
647.907	8605.74
648.099	8575.02
648.292	8566.82
648.485	8562.73
648.678	8513.58
648.871	8452.14
649.064	8423.47
649.256	8542.25
649.449	8269.87
649.642	8362.03
649.835	8075.31
650.027	8384.55
650.22	8108.08
650.413	8020.02
650.605	8138.8
650.798	8144.94
650.991	7987.25
651.183	7958.58
651.376	7606.33
651.568	7790.64
651.761	7669.81
651.954	7776.31
652.146	7708.73
652.339	7450.68
652.531	7604.28
652.724	7411.77
652.916	7479.35
653.109	7473.21
653.301	7487.54
653.494	7489.59
653.686	7409.72
653.879	7450.68
654.071	7385.15
654.263	7401.53
654.456	7305.28
654.648	7155.77
654.84	7057.47
655.033	7215.16
655.225	7088.19
655.417	7200.83
655.61	7182.4
655.802	7063.61
655.994	6920.26
656.186	6938.69
656.379	6737.99
656.571	6932.54
656.763	6836.29
656.955	6660.17
657.148	6617.16
657.34	6703.17
657.532	6469.7
657.724	6694.98
657.916	6633.54
658.108	6508.62
658.3	6527.05
658.492	6574.15
658.684	6309.96
658.876	6293.58
659.068	6281.29
659.26	6217.8
659.452	6330.44
659.644	6322.25
659.836	6127.69
660.028	6334.54
660.22	6060.11
660.412	6082.64
660.604	6176.84
660.796	6019.15
660.988	6211.66
661.18	6072.4
661.372	5906.51
661.563	6125.65
661.755	5961.81
661.947	5853.27
662.139	6025.29
662.331	5967.95
662.522	5935.18
662.714	5910.61
662.906	5765.2
663.097	5797.97
663.289	5765.2
663.481	5671
663.673	5537.88
663.864	5689.43
664.056	5644.37
664.247	5656.66
664.439	5474.39
664.631	5417.05
664.822	5539.93
665.014	5521.49
665.205	5294.17
665.397	5245.02
665.588	5441.62
665.78	5335.13
665.971	5472.34
666.163	5390.42
666.354	5341.27
666.546	5339.23
666.737	5218.4
666.929	5236.83
667.12	5107.8
667.311	5290.07
667.503	5128.28
667.694	5113.95
667.885	5208.16
668.077	5126.24
668.268	5048.41
668.459	4968.54
668.651	5066.85
668.842	5189.72
669.033	4997.21
669.224	4853.86
669.416	5032.03
669.607	4907.1
669.798	4976.73
669.989	4968.54
670.18	5040.22
670.371	4929.63
670.563	4821.09
670.754	4970.59
670.945	4776.03
671.136	4829.28
671.327	4739.17
671.518	4800.61
671.709	4794.47
671.9	4737.12
672.091	4659.3
672.282	4763.75
672.473	4880.48
672.664	4907.1
672.855	4870.24
673.046	4761.7
673.237	4767.84
673.428	4794.47
673.619	4763.75
673.809	4667.49
674	4579.43
674.191	4552.81
674.382	4606.05
674.573	4696.16
674.764	4700.26
674.954	4737.12
675.145	4616.29
675.336	4716.64
675.527	4634.72
675.717	4616.29
675.908	4479.08
676.099	4587.62
676.289	4679.78
676.48	4511.85
676.671	4534.37
676.861	4511.85
677.052	4563.05
677.243	4571.24
677.433	4675.68
677.624	4446.31
677.814	4585.57
678.005	4509.8
678.195	4532.33
678.386	4491.37
678.576	4565.09
678.767	4483.17
678.957	4434.02
679.148	4528.23
679.338	4599.91
679.529	4503.65
679.719	4573.28
679.909	4405.35
680.1	4485.22
680.29	4624.48
680.481	4517.99
680.671	4345.96
680.861	4458.6
681.052	4599.91
681.242	4520.04
681.432	4503.65
681.622	4454.5
681.813	4489.32
682.003	4474.98
682.193	4485.22
682.383	4632.68
682.573	4454.5
682.764	4454.5
682.954	4520.04
683.144	4403.3
683.334	4364.39
683.524	4376.68
683.714	4550.76
683.904	4427.88
684.094	4513.89
684.284	4333.67
684.474	4561
684.664	4477.03
684.854	4286.57
685.044	4249.71
685.234	4311.14
685.424	4323.43
685.614	4331.62
685.804	4403.3
685.994	4440.17
686.184	4395.11
686.374	4243.56
686.564	4343.91
686.753	4317.29
686.943	4272.23
687.133	4309.1
687.323	4206.7
687.513	4296.81
687.702	4302.95
687.892	4284.52
688.082	4210.79
688.272	4049
688.461	4214.89
688.651	4087.92
688.841	4001.9
689.03	4192.36
689.22	4112.49
689.41	4155.5
689.599	4051.05
689.789	4085.87
689.979	4167.79
690.168	4094.06
690.358	4008.05
690.547	4036.72
690.737	3981.42
690.926	4067.44
691.116	3854.45
691.305	3956.85
691.495	3909.74
691.684	4003.95
691.874	3848.3
692.063	3915.89
692.252	3962.99
692.442	3856.5
692.631	3868.78
692.82	3858.54
693.01	3776.63
693.199	3739.76
693.388	3858.54
693.578	3729.52
693.767	3698.8
693.956	3639.41
694.146	3780.72
694.335	3706.99
694.524	3651.7
694.713	3836.02
694.902	3813.49
695.092	3590.26
695.281	3737.71
695.47	3674.23
695.659	3678.32
695.848	3649.65
696.037	3762.29
696.226	3598.45
696.415	3618.93
696.604	3563.64
696.793	3694.71
696.982	3709.04
697.171	3627.12
697.36	3692.66
697.549	3594.36
697.738	3731.57
697.927	3561.59
698.116	3573.88
698.305	3481.72
698.494	3668.08
698.683	3504.25
698.872	3522.68
699.061	3559.54
699.25	3543.16
699.438	3510.39
699.627	3567.73
699.816	3537.01
700.005	3506.29
700.193	3659.89
700.382	3625.08
700.571	3573.88
700.76	3553.4
700.948	3696.75
701.137	3553.4
701.326	3586.16
701.514	3549.3
701.703	3512.44
701.892	3475.57
702.08	3661.94
702.269	3520.63
702.457	3397.75
702.646	3571.83
702.834	3491.96
703.023	3534.96
703.212	3729.52
703.4	3549.3
703.589	3418.23
703.777	3453.05
703.965	3485.81
704.154	3506.29
704.342	3606.64
704.531	3541.11
704.719	3575.92
704.907	3508.34
705.096	3485.81
705.284	3455.09
705.472	3598.45
705.661	3520.63
705.849	3629.17
706.037	3446.9
706.226	3381.37
706.414	3496.05
706.602	3602.55
706.79	3516.53
706.979	3543.16
707.167	3600.5
707.355	3479.67
707.543	3500.15
707.731	3485.81
707.919	3602.55
708.107	3545.2
708.296	3455.09
708.484	3518.58
708.672	3571.83
708.86	3498.1
709.048	3500.15
709.236	3442.81
709.424	3524.72
709.612	3618.93
709.8	3631.22
709.988	3547.25
710.176	3596.4
710.364	3508.34
710.551	3471.48
710.739	3520.63
710.927	3534.96
711.115	3467.38
711.303	3487.86
711.491	3528.82
711.679	3491.96
711.866	3629.17
712.054	3596.4
712.242	3561.59
712.43	3473.53
712.617	3528.82
712.805	3559.54
712.993	3483.77
713.181	3487.86
713.368	3524.72
713.556	3549.3
713.744	3424.37
713.931	3559.54
714.119	3502.2
714.306	3532.92
714.494	3436.66
714.682	3434.61
714.869	3371.13
715.057	3584.12
715.244	3446.9
715.432	3618.93
715.619	3586.16
715.807	3487.86
715.994	3455.09
716.182	3561.59
716.369	3643.51
716.556	3590.26
716.744	3549.3
716.931	3426.42
717.119	3534.96
717.306	3594.36
717.493	3520.63
717.681	3625.08
717.868	3655.79
718.055	3625.08
718.242	3512.44
718.43	3606.64
718.617	3594.36
718.804	3608.69
718.991	3620.98
719.179	3510.39
719.366	3453.05
719.553	3694.71
719.74	3567.73
719.927	3461.24
720.114	3504.25
720.301	3475.57
720.488	3512.44
720.676	3500.15
720.863	3498.1
721.05	3451
721.237	3668.08
721.424	3453.05
721.611	3526.77
721.798	3455.09
721.985	3420.28
722.172	3455.09
722.358	3526.77
722.545	3403.89
722.732	3356.79
722.919	3551.35
723.106	3410.04
723.293	3487.86
723.48	3375.22
723.667	3362.94
723.853	3516.53
724.04	3381.37
724.227	3569.78
724.414	3426.42
724.6	3268.73
724.787	3577.97
724.974	3477.62
725.161	3440.76
725.347	3491.96
725.534	3494.01
725.72	3627.12
725.907	3350.65
726.094	3395.7
726.28	3373.18
726.467	3328.12
726.653	3244.15
726.84	3360.89
727.027	3463.29
727.213	3313.78
727.4	3463.29
727.586	3479.67
727.773	3412.09
727.959	3426.42
728.145	3422.33
728.332	3418.23
728.518	3463.29
728.705	3381.37
728.891	3410.04
729.077	3373.18
729.264	3448.95
729.45	3356.79
729.636	3438.71
729.823	3311.74
730.009	3428.47
730.195	3328.12
730.382	3528.82
730.568	3164.28
730.754	3328.12
730.94	3240.06
731.126	3442.81
731.313	3471.48
731.499	3219.58
731.685	3479.67
731.871	3270.78
732.057	3410.04
732.243	3299.45
732.429	3430.52
732.615	3283.06
732.801	3274.87
732.987	3301.5
733.173	3287.16
733.359	3297.4
733.545	3242.11
733.731	3135.61
733.917	3373.18
734.103	3352.7
734.289	3295.35
734.475	3385.46
734.661	3358.84
734.847	3278.97
735.033	3453.05
735.219	3272.82
735.404	3137.66
735.59	3387.51
735.776	3272.82
735.962	3283.06
736.148	3270.78
736.333	3160.19
736.519	3156.09
736.705	3096.7
736.89	3135.61
737.076	3199.1
737.262	3170.43
737.447	3283.06
737.633	3070.08
737.819	3227.77
738.004	3180.67
738.19	3172.47
738.375	3059.84
738.561	3266.68
738.747	3158.14
738.932	3205.24
739.118	3225.72
739.303	3246.2
739.489	2988.16
739.674	3117.18
739.859	3031.16
740.045	3121.28
740.23	3010.68
740.416	3014.78
740.601	3004.54
740.786	2992.25
740.972	3045.5
741.157	3117.18
741.342	2955.39
741.528	2947.2
741.713	3076.22
741.898	3000.44
742.084	2979.97
742.269	2990.21
742.454	2877.57
742.639	3027.07
742.824	2861.18
743.01	2920.57
743.195	2953.34
743.38	3076.22
743.565	2939.01
743.75	3004.54
743.935	2775.17
744.12	2893.95
744.305	2660.48
744.49	2818.18
744.675	2816.13
744.86	2723.97
745.045	2814.08
745.23	2683.01
745.415	2680.96
745.6	2787.46
745.785	2703.49
745.97	2726.02
746.155	2781.31
746.34	2805.89
746.525	2699.39
746.71	2549.89
746.895	2500.74
747.079	2597
747.264	2496.64
747.449	2603.14
747.634	2582.66
747.819	2621.57
748.003	2457.73
748.188	2486.4
748.373	2373.77
748.557	2445.45
748.742	2455.69
748.927	2431.11
749.111	2373.77
749.296	2388.1
749.481	2328.71
749.665	2312.33
749.85	2273.42
750.034	2482.31
750.219	2369.67
750.404	2381.96
750.588	2330.76
750.773	2160.78
750.957	2265.22
751.141	2246.79
751.326	2164.87
751.51	2115.72
751.695	2193.55
751.879	2250.89
752.064	2195.59
752.248	2162.83
752.432	2166.92
752.617	2150.54
752.801	2054.28
752.985	2029.71
753.17	2050.19
753.354	2037.9
753.538	2076.81
753.722	1939.6
753.907	1970.32
754.091	1966.22
754.275	1982.6
754.459	1906.83
754.643	1919.12
754.828	2011.28
755.012	1779.86
755.196	1857.68
755.38	1945.74
755.564	1880.21
755.748	1798.29
755.932	1855.63
756.116	1732.75
756.3	1732.75
756.484	1853.58
756.668	1839.25
756.852	1714.32
757.036	1806.48
757.22	1742.99
757.404	1747.09
757.588	1616.02
757.772	1745.04
757.956	1644.69
758.14	1749.14
758.323	1616.02
758.507	1656.98
758.691	1579.15
758.875	1681.55
759.059	1669.27
759.242	1669.27
759.426	1609.87
759.61	1695.89
759.794	1587.35
759.977	1652.88
760.161	1595.54
760.345	1601.68
760.528	1538.2
760.712	1460.37
760.895	1517.72
761.079	1468.56
761.263	1499.28
761.446	1497.24
761.63	1513.62
761.813	1589.39
761.997	1437.84
762.18	1429.65
762.364	1419.41
762.547	1443.99
762.731	1466.52
762.914	1454.23
763.098	1327.25
763.281	1431.7
763.464	1345.69
763.648	1376.41
763.831	1362.07
764.015	1419.41
764.198	1370.26
764.381	1446.04
764.564	1353.88
764.748	1382.55
764.931	1437.84
765.114	1360.02
765.297	1357.97
765.481	1308.82
765.664	1351.83
765.847	1339.54
766.03	1345.69
766.213	1190.04
766.397	1274.01
766.58	1312.92
766.763	1364.12
766.946	1333.4
767.129	1267.86
767.312	1325.21
767.495	1175.7
767.678	1304.73
767.861	1249.43
768.044	1271.96
768.227	1337.49
768.41	1218.71
768.593	1243.29
768.776	1319.06
768.959	1192.09
769.142	1241.24
769.324	1185.94
769.507	1214.62
769.69	1024.16
769.873	1151.13
770.056	1153.18
770.239	1183.9
770.421	1292.44
770.604	1147.03
770.787	1118.36
770.97	1089.69
771.152	1175.7
771.335	1054.87
771.518	1220.76
771.7	1116.31
771.883	1187.99
772.066	1067.16
772.248	1091.74
772.431	989.34
772.613	1063.07
772.796	1075.35
772.978	989.34
773.161	1161.37
773.343	968.86
773.526	1028.25
773.708	952.48
773.891	997.53
774.073	989.34
774.256	952.48
774.438	1022.11
774.621	952.48
774.803	999.58
774.985	964.76
775.168	893.09
775.35	874.65
775.532	893.09
775.715	942.24
775.897	923.8
776.079	999.58
776.261	919.71
776.444	923.8
776.626	903.32
776.808	897.18
776.99	934.04
777.173	837.79
777.355	899.23
777.537	841.89
777.719	911.52
777.901	946.33
778.083	757.92
778.265	852.13
778.447	819.36
778.629	778.4
778.811	741.54
778.993	817.31
779.175	850.08
779.357	784.54
779.539	825.5
779.721	850.08
779.903	866.46
780.085	780.45
780.267	710.82
780.449	776.35
780.631	768.16
780.812	706.72
780.994	825.5
781.176	716.96
781.358	747.68
781.54	700.58
781.721	739.49
781.903	706.72
782.085	733.34
782.267	792.73
782.448	751.78
782.63	614.56
782.812	716.96
782.993	653.47
783.175	628.9
783.357	579.75
783.538	719.01
783.72	714.91
783.901	686.24
784.083	686.24
784.264	622.75
784.446	546.98
784.627	551.07
784.809	530.59
784.99	653.47
785.172	596.13
785.353	600.23
785.535	606.37
785.716	608.42
785.897	555.17
786.079	579.75
786.26	645.28
786.441	575.65
786.623	483.49
786.804	487.59
786.985	473.25
787.167	581.79
787.348	526.5
787.529	483.49
787.71	571.55
787.891	606.37
788.073	487.59
788.254	555.17
788.435	602.27
788.616	463.01
788.797	477.35
788.978	495.78
789.159	458.92
789.34	532.64
789.522	501.92
789.703	506.02
789.884	467.11
790.065	454.82
790.246	483.49
790.427	417.96
790.607	473.25
790.788	493.73
790.969	471.2
791.15	448.68
791.331	536.74
791.512	424.1
791.693	420
791.874	454.82
792.054	434.34
792.235	448.68
792.416	428.2
792.597	446.63
792.778	440.48
792.958	481.44
793.139	338.09
793.32	432.29
793.5	381.09
793.681	440.48
793.862	364.71
794.042	387.24
794.223	411.81
794.404	399.52
794.584	358.57
794.765	377
794.945	403.62
795.126	350.37
795.306	387.24
795.487	379.04
795.667	415.91
795.848	356.52
796.028	397.48
796.209	297.13
796.389	383.14
796.57	350.37
796.75	350.37
796.93	446.63
797.111	350.37
797.291	368.81
797.471	407.72
797.652	288.93
797.832	372.9
798.012	362.66
798.192	333.99
798.373	278.69
798.553	301.22
798.733	436.39
798.913	313.51
799.093	315.56
799.274	342.18
799.454	403.62
799.634	395.43
799.814	319.65
799.994	395.43
800.174	368.81
800.354	350.37
800.534	323.75
800.714	290.98
800.894	307.37
801.074	301.22
801.254	262.31
801.434	299.17
801.614	329.89
801.794	231.59
801.974	817.31
802.154	278.69
802.334	356.52
802.514	219.3
802.693	299.17
802.873	274.6
803.053	317.61
803.233	317.61
803.413	295.08
803.592	290.98
803.772	280.74
803.952	354.47
804.131	223.4
804.311	290.98
804.491	278.69
804.67	192.68
804.85	315.56
805.03	325.8
805.209	278.69
805.389	264.36
805.568	256.17
805.748	225.45
805.928	282.79
806.107	194.73
806.287	166.06
806.466	233.64
806.646	235.69
806.825	268.45
807.004	211.11
807.184	256.17
807.363	202.92
807.543	270.5
807.722	250.02
807.901	211.11
808.081	268.45
808.26	178.34
808.439	207.02
808.619	254.12
808.798	194.73
808.977	196.78
809.156	315.56
809.336	176.3
809.515	288.93
809.694	155.82
809.873	239.78
810.052	231.59
810.231	268.45
810.411	213.16
810.59	129.19
810.769	252.07
810.948	258.21
811.127	268.45
811.306	190.63
811.485	159.91
811.664	303.27
811.843	276.65
812.022	198.82
812.201	258.21
812.38	200.87
812.559	233.64
812.737	215.21
812.916	217.26
813.095	174.25
813.274	211.11
813.453	172.2
813.632	157.86
813.811	241.83
813.989	192.68
814.168	178.34
814.347	204.97
814.526	202.92
814.704	223.4
814.883	217.26
815.062	145.58
815.24	211.11
815.419	231.59
815.598	225.45
815.776	184.49
815.955	178.34
816.133	133.29
816.312	141.48
816.49	170.15
816.669	180.39
816.847	164.01
817.026	180.39
817.204	194.73
817.383	213.16
817.561	143.53
817.74	239.78
817.918	127.14
818.097	247.97
818.275	143.53
818.453	157.86
818.632	102.57
818.81	161.96
818.988	155.82
819.167	88.23
819.345	141.48
819.523	174.25
819.701	235.69
819.879	231.59
820.058	161.96
820.236	131.24
820.414	151.72
820.592	159.91
820.77	153.77
820.948	194.73
821.127	121
821.305	149.67
821.483	110.76
821.661	200.87
821.839	145.58
822.017	141.48
822.195	127.14
822.373	204.97
822.551	170.15
822.729	139.43
822.907	172.2
823.085	196.78
823.262	182.44
823.44	161.96
823.618	123.05
823.796	127.14
823.974	121
824.152	104.62
824.329	96.43
824.507	176.3
824.685	129.19
824.863	180.39
825.04	153.77
825.218	178.34
825.396	131.24
825.574	112.81
825.751	274.6
825.929	84.14
826.107	102.57
826.284	178.34
826.462	186.54
826.639	207.02
826.817	123.05
826.994	135.34
827.172	141.48
827.349	217.26
827.527	125.1
827.704	108.71
827.882	149.67
828.059	110.76
828.237	159.91
828.414	202.92
828.591	53.42
828.769	129.19
828.946	71.85
829.124	90.28
829.301	172.2
829.478	131.24
829.655	96.43
829.833	77.99
830.01	51.37
830.187	145.58
830.364	149.67
830.542	80.04
830.719	133.29
830.896	184.49
831.073	77.99
831.25	129.19
831.427	84.14
831.604	223.4
831.782	116.9
831.959	112.81
832.136	121
832.313	149.67
832.49	104.62
832.667	133.29
832.844	98.47
833.021	112.81
833.198	116.9
833.374	161.96
833.551	118.95
833.728	77.99
833.905	71.85
834.082	55.47
834.259	84.14
834.436	125.1
834.612	92.33
834.789	170.15
834.966	112.81
835.143	141.48
835.319	65.71
835.496	20.65
835.673	63.66
835.85	182.44
836.026	71.85
836.203	75.95
836.38	53.42
836.556	86.19
836.733	71.85
836.909	123.05
837.086	192.68
837.262	63.66
837.439	92.33
837.616	43.18
837.792	143.53
837.968	69.8
838.145	67.75
838.321	82.09
838.498	102.57
838.674	51.37
838.851	57.51
839.027	129.19
839.203	51.37
839.38	77.99
839.556	32.94
839.732	45.23
839.909	49.32
840.085	77.99
840.261	34.99
840.437	108.71
840.614	-30.55
840.79	161.96
840.966	94.38
841.142	108.71
841.318	63.66
841.494	88.23
841.671	57.51
841.847	61.61
842.023	20.65
842.199	145.58
842.375	47.27
842.551	77.99
842.727	41.13
842.903	112.81
843.079	-5.97
843.255	104.62
843.431	49.32
843.607	73.9
843.783	57.51
843.959	67.75
844.134	77.99
844.31	102.57
844.486	84.14
844.662	100.52
844.838	37.03
845.013	121
845.189	80.04
845.365	75.95
845.541	82.09
845.716	14.51
845.892	6.31
846.068	41.13
846.244	26.79
846.419	82.09
846.595	-3.93
846.77	18.6
846.946	53.42
847.122	77.99
847.297	94.38
847.473	127.14
847.648	-1.88
847.824	116.9
847.999	8.36
848.175	0.17
848.35	69.8
848.526	121
848.701	75.95
848.876	61.61
849.052	98.47
849.227	143.53
849.403	30.89
849.578	63.66
849.753	86.19
849.929	129.19
850.104	43.18
850.279	96.43
850.454	108.71
850.63	20.65
850.805	-10.07
850.98	67.75
851.155	90.28
851.33	106.67
851.505	77.99
851.681	84.14
851.856	32.94
852.031	131.24
852.206	-42.84
852.381	90.28
852.556	30.89
852.731	125.1
852.906	69.8
853.081	102.57
853.256	61.61
853.431	143.53
853.606	-1.88
853.781	22.7
853.956	6.31
854.131	80.04
854.305	8.36
854.48	102.57
854.655	59.56
854.83	-3.93
855.005	-12.12
855.18	32.94
855.354	14.51
855.529	57.51
855.704	0.17
855.879	39.08
856.053	-46.93
856.228	39.08
856.403	-40.79
856.577	73.9
856.752	-18.26
856.926	61.61
857.101	59.56
857.276	41.13
857.45	-1.88
857.625	80.04
857.799	-32.6
857.974	22.7
858.148	55.47
858.323	6.31
858.497	43.18
858.672	16.55
858.846	39.08
859.02	43.18
859.195	6.31
859.369	94.38
859.543	53.42
859.718	39.08
859.892	34.99
860.066	24.75
860.241	41.13
860.415	110.76
860.589	14.51
860.763	24.75
860.938	28.84
861.112	8.36
861.286	75.95
861.46	104.62
861.634	-8.02
861.808	30.89
861.982	12.46
862.157	-24.4
862.331	20.65
862.505	104.62
862.679	-3.93
862.853	51.37
863.027	-5.97
863.201	90.28
863.375	-32.6
863.549	61.61
863.722	6.31
863.896	84.14
864.07	-32.6
864.244	4.27
864.418	47.27
864.592	-1.88
864.766	39.08
864.939	18.6
865.113	-18.26
865.287	49.32
865.461	-12.12
865.634	67.75
865.808	2.22
865.982	18.6
866.156	34.99
866.329	-28.5
866.503	28.84
866.676	80.04
866.85	51.37
867.024	51.37
867.197	28.84
867.371	45.23
867.544	26.79
867.718	-12.12
867.891	47.27
868.065	8.36
868.238	57.51
868.412	47.27
868.585	28.84
868.759	-8.02
868.932	45.23
869.105	-3.93
869.279	22.7
869.452	-30.55
869.625	10.41
869.799	53.42
869.972	51.37
870.145	-14.17
870.319	92.33
870.492	63.66
870.665	34.99
870.838	37.03
871.011	16.55
871.185	-1.88
871.358	18.6
871.531	104.62
871.704	80.04
871.877	-10.07
872.05	39.08
872.223	37.03
872.396	-18.26
872.569	34.99
872.742	-34.64
872.915	80.04
873.088	30.89
873.261	-1.88
873.434	47.27
873.607	71.85
873.78	4.27
873.953	-59.22
874.126	41.13
874.299	26.79
874.471	41.13
874.644	26.79
874.817	53.42
874.99	53.42
875.163	-38.74
875.335	63.66
875.508	41.13
875.681	37.03
875.853	20.65
876.026	75.95
876.199	-10.07
876.371	61.61
876.544	10.41
876.717	-1.88
876.889	51.37
877.062	88.23
877.234	16.55
877.407	14.51
877.579	10.41
877.752	-3.93
877.924	-18.26
878.097	45.23
878.269	61.61
878.442	61.61
878.614	51.37
878.786	22.7
878.959	63.66
879.131	-22.36
879.303	-51.03
879.476	45.23
879.648	94.38
879.82	24.75
879.993	-28.5
880.165	28.84
880.337	-12.12
880.509	98.47
880.681	-8.02
880.854	-57.17
881.026	26.79
881.198	12.46
881.37	67.75
881.542	59.56
881.714	30.89
881.886	-18.26
882.058	96.43
882.23	43.18
882.402	6.31
882.574	18.6
882.746	39.08
882.918	26.79
883.09	96.43
883.262	-10.07
883.434	-10.07
883.606	-24.4
883.778	18.6
883.95	116.9
884.122	34.99
884.293	-42.84
884.465	-5.97
884.637	-10.07
884.809	-28.5
884.98	16.55
885.152	61.61
885.324	34.99
885.496	-40.79
885.667	-32.6
885.839	32.94
886.011	110.76
886.182	-5.97
886.354	47.27
886.525	18.6
886.697	18.6
886.869	-59.22
887.04	6.31
887.212	24.75
887.383	102.57
887.555	28.84
887.726	39.08
887.897	63.66
888.069	-57.17
888.24	22.7
888.412	26.79
888.583	-79.7
888.754	-59.22
888.926	45.23
889.097	-28.5
889.268	-44.88
889.44	16.55
889.611	-28.5
889.782	-34.64
889.953	6.31
890.125	127.14
890.296	39.08
890.467	-14.17
890.638	-28.5
890.809	-51.03
890.98	45.23
891.151	16.55
891.323	37.03
891.494	34.99
891.665	-48.98
891.836	6.31
892.007	28.84
892.178	28.84
892.349	-16.21
892.52	30.89
892.691	22.7
892.862	-18.26
893.032	6.31
893.203	-1.88
893.374	-24.4
893.545	34.99
893.716	-36.69
893.887	-40.79
894.057	45.23
894.228	30.89
894.399	-32.6
894.57	0.17
894.74	16.55
894.911	-40.79
895.082	-22.36
895.253	14.51
895.423	43.18
895.594	-16.21
895.764	-14.17
895.935	80.04
896.106	6.31
896.276	43.18
896.447	34.99
896.617	28.84
896.788	-42.84
896.958	-14.17
897.129	-3.93
897.299	-18.26
897.47	18.6
897.64	28.84
897.81	-42.84
897.981	-5.97
898.151	32.94
898.322	6.31
898.492	-36.69
898.662	49.32
898.832	49.32
899.003	12.46
899.173	34.99
899.343	4.27
899.513	-85.84
