Data from USB4F104151__193__10-29-26-617.txt Node

Date: Wed Mar 12 10:29:26 EDT 2025
User: louis
Spectrometer: USB4F10415
Trigger mode: 4
Integration Time (sec): 3.000000E-2
Scans to average: 1
Electric dark correction enabled: true
Nonlinearity correction enabled: false
Boxcar width: 0
XAxis mode: Wavelengths
Number of Pixels in Spectrum: 3648
>>>>>Begin Spectral Data<<<<<
178.204	-60.59
178.424	-60.59
178.644	-60.59
178.864	-97.45
179.084	-89.26
179.304	27.48
179.524	19.29
179.744	-31.91
179.964	23.38
180.184	25.43
180.404	7
180.624	54.1
180.844	-50.35
181.064	-15.53
181.283	-13.48
181.503	-15.53
181.723	-29.87
181.943	-19.63
182.163	9.05
182.383	31.57
182.602	2.9
182.822	70.48
183.042	25.43
183.262	-21.67
183.482	11.09
183.701	58.2
183.921	-27.82
184.141	2.9
184.361	29.52
184.58	-23.72
184.8	95.06
185.02	39.76
185.239	50
185.459	-36.01
185.679	72.53
185.898	-85.16
186.118	33.62
186.338	-40.11
186.557	33.62
186.777	21.33
186.997	0.85
187.216	9.05
187.436	21.33
187.655	17.24
187.875	27.48
188.095	-9.39
188.314	-27.82
188.534	72.53
188.753	117.59
188.973	41.81
189.192	70.48
189.412	7
189.631	-46.25
189.851	-5.29
190.07	84.82
190.29	-29.87
190.509	7
190.729	52.05
190.948	74.58
191.168	162.64
191.387	50
191.607	68.44
191.826	-11.43
192.045	-7.34
192.265	-3.24
192.484	60.24
192.704	13.14
192.923	4.95
193.142	140.12
193.362	35.67
193.581	95.06
193.8	-19.63
194.02	113.49
194.239	-48.3
194.458	56.15
194.678	-19.63
194.897	25.43
195.116	9.05
195.335	54.1
195.555	39.76
195.774	25.43
195.993	43.86
196.212	-25.77
196.432	72.53
196.651	-7.34
196.87	-56.49
197.089	82.77
197.308	21.33
197.528	37.72
197.747	-15.53
197.966	50
198.185	90.96
198.404	-48.3
198.623	33.62
198.842	23.38
199.062	13.14
199.281	-9.39
199.5	-25.77
199.719	-11.43
199.938	-11.43
200.157	31.57
200.376	-27.82
200.595	7
200.814	-21.67
201.033	37.72
201.252	39.76
201.471	-31.91
201.69	47.96
201.909	45.91
202.128	74.58
202.347	47.96
202.566	78.68
202.785	52.05
203.004	11.09
203.223	62.29
203.442	9.05
203.661	-19.63
203.879	21.33
204.098	29.52
204.317	13.14
204.536	45.91
204.755	-15.53
204.974	107.35
205.193	60.24
205.411	56.15
205.63	-5.29
205.849	11.09
206.068	-17.58
206.287	2.9
206.505	58.2
206.724	25.43
206.943	-1.19
207.162	52.05
207.381	45.91
207.599	54.1
207.818	45.91
208.037	52.05
208.255	50
208.474	39.76
208.693	60.24
208.911	33.62
209.13	52.05
209.349	117.59
209.567	101.2
209.786	115.54
210.005	39.76
210.223	-11.43
210.442	23.38
210.661	70.48
210.879	25.43
211.098	-11.43
211.316	31.57
211.535	72.53
211.753	58.2
211.972	39.76
212.191	-25.77
212.409	113.49
212.628	21.33
212.846	-54.44
213.065	84.82
213.283	15.19
213.502	0.85
213.72	60.24
213.938	21.33
214.157	-27.82
214.375	35.67
214.594	50
214.812	7
215.031	35.67
215.249	-50.35
215.467	41.81
215.686	54.1
215.904	127.83
216.122	7
216.341	45.91
216.559	0.85
216.778	58.2
216.996	62.29
217.214	97.11
217.432	2.9
217.651	-38.06
217.869	35.67
218.087	0.85
218.306	72.53
218.524	31.57
218.742	-7.34
218.96	45.91
219.179	117.59
219.397	-21.67
219.615	78.68
219.833	-1.19
220.051	-3.24
220.27	54.1
220.488	11.09
220.706	29.52
220.924	68.44
221.142	74.58
221.36	-1.19
221.578	78.68
221.796	33.62
222.015	-15.53
222.233	23.38
222.451	109.4
222.669	33.62
222.887	19.29
223.105	-9.39
223.323	-15.53
223.541	64.34
223.759	45.91
223.977	60.24
224.195	13.14
224.413	88.92
224.631	33.62
224.849	64.34
225.067	119.64
225.285	31.57
225.503	-29.87
225.721	-72.87
225.939	-68.78
226.157	-7.34
226.375	84.82
226.592	2.9
226.81	-52.39
227.028	50
227.246	82.77
227.464	29.52
227.682	-36.01
227.9	11.09
228.117	-42.15
228.335	9.05
228.553	0.85
228.771	33.62
228.989	109.4
229.206	62.29
229.424	35.67
229.642	56.15
229.86	39.76
230.077	45.91
230.295	47.96
230.513	52.05
230.731	9.05
230.948	15.19
231.166	25.43
231.384	29.52
231.601	15.19
231.819	78.68
232.037	-15.53
232.254	-36.01
232.472	-19.63
232.689	-48.3
232.907	99.16
233.125	50
233.342	-9.39
233.56	66.39
233.777	21.33
233.995	2.9
234.213	56.15
234.43	31.57
234.648	-40.11
234.865	72.53
235.083	21.33
235.3	66.39
235.518	21.33
235.735	4.95
235.953	35.67
236.17	7
236.388	50
236.605	62.29
236.822	45.91
237.04	29.52
237.257	58.2
237.475	-23.72
237.692	-31.91
237.909	23.38
238.127	-1.19
238.344	-5.29
238.562	37.72
238.779	-7.34
238.996	41.81
239.214	33.62
239.431	31.57
239.648	70.48
239.865	19.29
240.083	9.05
240.3	21.33
240.517	-3.24
240.735	-9.39
240.952	31.57
241.169	84.82
241.386	58.2
241.603	78.68
241.821	-40.11
242.038	115.54
242.255	50
242.472	9.05
242.689	88.92
242.907	80.72
243.124	62.29
243.341	0.85
243.558	9.05
243.775	4.95
243.992	-19.63
244.209	35.67
244.426	33.62
244.643	58.2
244.86	-60.59
245.078	90.96
245.295	58.2
245.512	23.38
245.729	31.57
245.946	31.57
246.163	-40.11
246.38	95.06
246.597	33.62
246.814	99.16
247.031	54.1
247.248	60.24
247.464	47.96
247.681	62.29
247.898	72.53
248.115	60.24
248.332	0.85
248.549	121.68
248.766	47.96
248.983	109.4
249.2	62.29
249.417	41.81
249.633	50
249.85	31.57
250.067	54.1
250.284	25.43
250.501	-3.24
250.717	35.67
250.934	-36.01
251.151	-31.91
251.368	43.86
251.585	9.05
251.801	66.39
252.018	11.09
252.235	23.38
252.451	-3.24
252.668	-15.53
252.885	86.87
253.102	105.3
253.318	13.14
253.535	39.76
253.752	50
253.968	-5.29
254.185	-11.43
254.401	-44.2
254.618	131.92
254.835	-3.24
255.051	-19.63
255.268	82.77
255.484	11.09
255.701	-5.29
255.917	74.58
256.134	-7.34
256.351	88.92
256.567	4.95
256.784	-42.15
257	-25.77
257.217	52.05
257.433	115.54
257.65	0.85
257.866	103.25
258.082	68.44
258.299	-27.82
258.515	15.19
258.732	80.72
258.948	29.52
259.165	7
259.381	-3.24
259.597	37.72
259.814	35.67
260.03	-23.72
260.246	-62.63
260.463	138.07
260.679	62.29
260.895	29.52
261.112	45.91
261.328	50
261.544	4.95
261.761	99.16
261.977	27.48
262.193	17.24
262.409	23.38
262.626	7
262.842	19.29
263.058	-25.77
263.274	68.44
263.49	95.06
263.707	62.29
263.923	7
264.139	39.76
264.355	-13.48
264.571	62.29
264.787	74.58
265.004	31.57
265.22	39.76
265.436	99.16
265.652	19.29
265.868	72.53
266.084	9.05
266.3	86.87
266.516	19.29
266.732	17.24
266.948	21.33
267.164	23.38
267.38	50
267.596	-19.63
267.812	95.06
268.028	37.72
268.244	-1.19
268.46	2.9
268.676	35.67
268.892	25.43
269.108	82.77
269.324	23.38
269.54	47.96
269.756	41.81
269.972	37.72
270.188	47.96
270.403	2.9
270.619	-5.29
270.835	23.38
271.051	-29.87
271.267	-7.34
271.483	-48.3
271.698	31.57
271.914	0.85
272.13	33.62
272.346	66.39
272.562	-7.34
272.777	17.24
272.993	0.85
273.209	74.58
273.425	-72.87
273.64	4.95
273.856	15.19
274.072	-46.25
274.287	15.19
274.503	115.54
274.719	0.85
274.934	41.81
275.15	15.19
275.366	17.24
275.581	-52.39
275.797	31.57
276.012	62.29
276.228	88.92
276.444	43.86
276.659	19.29
276.875	-33.96
277.09	82.77
277.306	-23.72
277.521	2.9
277.737	-48.3
277.952	80.72
278.168	39.76
278.383	52.05
278.599	25.43
278.814	15.19
279.03	19.29
279.245	101.2
279.461	99.16
279.676	50
279.892	-81.07
280.107	50
280.322	-27.82
280.538	58.2
280.753	37.72
280.969	76.63
281.184	-81.07
281.399	25.43
281.615	-11.43
281.83	21.33
282.045	29.52
282.26	41.81
282.476	45.91
282.691	72.53
282.906	-52.39
283.122	-1.19
283.337	7
283.552	29.52
283.767	54.1
283.983	43.86
284.198	52.05
284.413	35.67
284.628	7
284.843	60.24
285.058	25.43
285.274	4.95
285.489	-3.24
285.704	62.29
285.919	60.24
286.134	54.1
286.349	41.81
286.564	52.05
286.779	66.39
286.995	23.38
287.21	-50.35
287.425	17.24
287.64	41.81
287.855	-23.72
288.07	-13.48
288.285	62.29
288.5	50
288.715	2.9
288.93	2.9
289.145	2.9
289.36	29.52
289.575	97.11
289.79	15.19
290.004	9.05
290.219	-5.29
290.434	-1.19
290.649	72.53
290.864	15.19
291.079	31.57
291.294	60.24
291.509	50
291.724	58.2
291.938	43.86
292.153	45.91
292.368	47.96
292.583	162.64
292.798	17.24
293.012	0.85
293.227	15.19
293.442	45.91
293.657	52.05
293.871	74.58
294.086	68.44
294.301	50
294.516	9.05
294.73	21.33
294.945	-58.54
295.16	37.72
295.374	37.72
295.589	52.05
295.804	-23.72
296.018	70.48
296.233	31.57
296.447	11.09
296.662	2.9
296.877	62.29
297.091	13.14
297.306	41.81
297.52	2.9
297.735	-23.72
297.949	47.96
298.164	70.48
298.378	50
298.593	4.95
298.807	58.2
299.022	54.1
299.236	25.43
299.451	31.57
299.665	37.72
299.88	37.72
300.094	70.48
300.309	115.54
300.523	-25.77
300.737	0.85
300.952	23.38
301.166	50
301.381	-3.24
301.595	37.72
301.809	54.1
302.024	-7.34
302.238	88.92
302.452	88.92
302.667	25.43
302.881	111.44
303.095	41.81
303.309	76.63
303.524	-5.29
303.738	31.57
303.952	19.29
304.166	50
304.381	-76.97
304.595	39.76
304.809	9.05
305.023	-21.67
305.237	27.48
305.452	45.91
305.666	-3.24
305.88	119.64
306.094	-7.34
306.308	33.62
306.522	45.91
306.736	43.86
306.95	29.52
307.164	-23.72
307.379	7
307.593	43.86
307.807	58.2
308.021	37.72
308.235	82.77
308.449	-3.24
308.663	2.9
308.877	123.73
309.091	78.68
309.305	101.2
309.519	2.9
309.733	27.48
309.947	27.48
310.161	56.15
310.374	15.19
310.588	9.05
310.802	62.29
311.016	88.92
311.23	7
311.444	27.48
311.658	2.9
311.872	103.25
312.085	60.24
312.299	82.77
312.513	41.81
312.727	37.72
312.941	-1.19
313.154	47.96
313.368	93.01
313.582	19.29
313.796	25.43
314.009	43.86
314.223	33.62
314.437	148.31
314.651	45.91
314.864	90.96
315.078	-21.67
315.292	2.9
315.505	41.81
315.719	74.58
315.933	76.63
316.146	39.76
316.36	21.33
316.573	105.3
316.787	15.19
317.001	-1.19
317.214	50
317.428	11.09
317.641	13.14
317.855	13.14
318.068	39.76
318.282	56.15
318.495	62.29
318.709	-3.24
318.922	119.64
319.136	37.72
319.349	45.91
319.563	-11.43
319.776	121.68
319.99	37.72
320.203	27.48
320.417	-17.58
320.63	88.92
320.843	97.11
321.057	-7.34
321.27	13.14
321.483	101.2
321.697	54.1
321.91	45.91
322.124	93.01
322.337	31.57
322.55	41.81
322.763	-1.19
322.977	-11.43
323.19	37.72
323.403	56.15
323.617	27.48
323.83	88.92
324.043	-25.77
324.256	29.52
324.469	0.85
324.683	23.38
324.896	58.2
325.109	76.63
325.322	-68.78
325.535	33.62
325.748	23.38
325.962	-23.72
326.175	66.39
326.388	95.06
326.601	88.92
326.814	17.24
327.027	-11.43
327.24	52.05
327.453	21.33
327.666	72.53
327.879	25.43
328.092	90.96
328.305	56.15
328.518	76.63
328.731	-11.43
328.944	45.91
329.157	45.91
329.37	-25.77
329.583	84.82
329.796	111.44
330.009	25.43
330.222	35.67
330.435	58.2
330.648	43.86
330.861	140.12
331.073	54.1
331.286	111.44
331.499	76.63
331.712	-68.78
331.925	2.9
332.138	60.24
332.35	33.62
332.563	45.91
332.776	64.34
332.989	62.29
333.202	64.34
333.414	47.96
333.627	131.92
333.84	9.05
334.053	-3.24
334.265	56.15
334.478	9.05
334.691	131.92
334.903	97.11
335.116	13.14
335.329	56.15
335.541	125.78
335.754	90.96
335.966	41.81
336.179	-7.34
336.392	82.77
336.604	25.43
336.817	60.24
337.029	47.96
337.242	50
337.454	47.96
337.667	64.34
337.88	58.2
338.092	56.15
338.305	21.33
338.517	47.96
338.729	121.68
338.942	88.92
339.154	-48.3
339.367	70.48
339.579	47.96
339.792	82.77
340.004	90.96
340.217	-13.48
340.429	70.48
340.641	-64.68
340.854	31.57
341.066	15.19
341.278	60.24
341.491	113.49
341.703	25.43
341.915	66.39
342.128	45.91
342.34	29.52
342.552	-1.19
342.764	45.91
342.977	74.58
343.189	17.24
343.401	13.14
343.613	17.24
343.826	17.24
344.038	7
344.25	41.81
344.462	-3.24
344.674	23.38
344.886	0.85
345.099	99.16
345.311	45.91
345.523	41.81
345.735	84.82
345.947	84.82
346.159	0.85
346.371	29.52
346.583	45.91
346.795	68.44
347.007	-33.96
347.219	66.39
347.431	66.39
347.643	78.68
347.855	11.09
348.067	33.62
348.279	-27.82
348.491	25.43
348.703	45.91
348.915	21.33
349.127	-27.82
349.339	47.96
349.551	47.96
349.763	70.48
349.975	21.33
350.187	103.25
350.399	31.57
350.61	62.29
350.822	50
351.034	23.38
351.246	-1.19
351.458	70.48
351.669	52.05
351.881	-7.34
352.093	37.72
352.305	41.81
352.517	86.87
352.728	97.11
352.94	70.48
353.152	23.38
353.363	74.58
353.575	78.68
353.787	88.92
353.999	-33.96
354.21	109.4
354.422	90.96
354.633	-3.24
354.845	21.33
355.057	50
355.268	111.44
355.48	74.58
355.692	-19.63
355.903	-17.58
356.115	72.53
356.326	-7.34
356.538	115.54
356.749	80.72
356.961	88.92
357.172	33.62
357.384	35.67
357.595	25.43
357.807	56.15
358.018	21.33
358.23	2.9
358.441	152.4
358.653	52.05
358.864	-1.19
359.075	103.25
359.287	78.68
359.498	95.06
359.709	47.96
359.921	43.86
360.132	-7.34
360.344	95.06
360.555	58.2
360.766	60.24
360.977	64.34
361.189	76.63
361.4	60.24
361.611	56.15
361.823	35.67
362.034	95.06
362.245	82.77
362.456	74.58
362.667	43.86
362.879	56.15
363.09	9.05
363.301	-3.24
363.512	88.92
363.723	62.29
363.935	-48.3
364.146	78.68
364.357	119.64
364.568	113.49
364.779	13.14
364.99	-31.91
365.201	11.09
365.412	19.29
365.623	-64.68
365.834	99.16
366.045	58.2
366.256	97.11
366.467	13.14
366.678	29.52
366.889	0.85
367.1	-9.39
367.311	39.76
367.522	-25.77
367.733	117.59
367.944	39.76
368.155	95.06
368.366	43.86
368.577	74.58
368.788	7
368.999	9.05
369.209	80.72
369.42	97.11
369.631	66.39
369.842	33.62
370.053	97.11
370.264	68.44
370.474	7
370.685	95.06
370.896	70.48
371.107	127.83
371.317	88.92
371.528	45.91
371.739	72.53
371.95	39.76
372.16	35.67
372.371	82.77
372.582	43.86
372.792	72.53
373.003	127.83
373.214	25.43
373.424	117.59
373.635	37.72
373.846	50
374.056	68.44
374.267	82.77
374.477	4.95
374.688	117.59
374.898	-11.43
375.109	50
375.319	62.29
375.53	52.05
375.74	129.88
375.951	86.87
376.161	47.96
376.372	39.76
376.582	78.68
376.793	109.4
377.003	29.52
377.214	64.34
377.424	60.24
377.635	13.14
377.845	39.76
378.055	60.24
378.266	31.57
378.476	25.43
378.686	70.48
378.897	97.11
379.107	66.39
379.317	37.72
379.528	9.05
379.738	99.16
379.948	25.43
380.158	105.3
380.369	70.48
380.579	125.78
380.789	45.91
380.999	64.34
381.21	19.29
381.42	140.12
381.63	84.82
381.84	99.16
382.05	50
382.261	107.35
382.471	107.35
382.681	101.2
382.891	86.87
383.101	47.96
383.311	33.62
383.521	33.62
383.731	201.55
383.941	52.05
384.151	93.01
384.361	29.52
384.571	70.48
384.781	90.96
384.991	76.63
385.201	33.62
385.411	113.49
385.621	136.02
385.831	4.95
386.041	60.24
386.251	45.91
386.461	62.29
386.671	41.81
386.881	39.76
387.091	23.38
387.301	88.92
387.511	86.87
387.72	105.3
387.93	43.86
388.14	54.1
388.35	56.15
388.56	80.72
388.769	170.83
388.979	80.72
389.189	-5.29
389.399	54.1
389.609	68.44
389.818	80.72
390.028	62.29
390.238	99.16
390.447	93.01
390.657	82.77
390.867	56.15
391.076	37.72
391.286	93.01
391.496	88.92
391.705	66.39
391.915	39.76
392.125	156.5
392.334	72.53
392.544	97.11
392.753	93.01
392.963	76.63
393.172	101.2
393.382	148.31
393.591	189.27
393.801	66.39
394.01	107.35
394.22	107.35
394.429	54.1
394.639	127.83
394.848	109.4
395.058	123.73
395.267	107.35
395.477	43.86
395.686	185.17
395.895	136.02
396.105	193.36
396.314	93.01
396.524	101.2
396.733	43.86
396.942	160.59
397.152	82.77
397.361	113.49
397.57	88.92
397.78	119.64
397.989	136.02
398.198	105.3
398.407	119.64
398.617	111.44
398.826	156.5
399.035	197.46
399.244	127.83
399.453	72.53
399.663	115.54
399.872	133.97
400.081	117.59
400.29	156.5
400.499	115.54
400.708	113.49
400.917	101.2
401.127	185.17
401.336	115.54
401.545	103.25
401.754	148.31
401.963	158.55
402.172	189.27
402.381	129.88
402.59	148.31
402.799	90.96
403.008	183.12
403.217	129.88
403.426	156.5
403.635	144.21
403.844	168.79
404.053	222.03
404.262	226.13
404.471	185.17
404.68	248.66
404.888	158.55
405.097	203.6
405.306	199.51
405.515	222.03
405.724	242.51
405.933	170.83
406.142	254.8
406.35	277.33
406.559	234.32
406.768	258.9
406.977	277.33
407.185	193.36
407.394	250.71
407.603	226.13
407.812	234.32
408.02	222.03
408.229	289.62
408.438	287.57
408.646	310.1
408.855	332.62
409.064	314.19
409.272	295.76
409.481	349.01
409.69	306
409.898	422.73
410.107	371.54
410.315	496.46
410.524	400.21
410.733	443.21
410.941	510.8
411.15	467.79
411.358	500.56
411.567	553.8
411.775	533.33
411.984	508.75
412.192	574.28
412.401	539.47
412.609	670.54
412.818	613.2
413.026	705.35
413.234	723.79
413.443	740.17
413.651	707.4
413.86	744.27
414.068	787.27
414.276	846.66
414.485	836.42
414.693	852.81
414.901	932.68
415.11	981.83
415.318	1055.56
415.526	992.07
415.734	1037.13
415.943	1045.32
416.151	1135.43
416.359	1153.86
416.567	1219.39
416.776	1157.96
416.984	1209.15
417.192	1348.42
417.4	1311.55
417.608	1377.09
417.817	1385.28
418.025	1475.39
418.233	1524.54
418.441	1401.66
418.649	1592.13
418.857	1655.61
419.065	1725.24
419.273	1694.52
419.481	1766.2
419.689	1997.62
419.897	1925.94
420.105	2044.73
420.313	2118.45
420.521	2212.66
420.729	2194.23
420.937	2284.34
421.145	2294.58
421.353	2528.05
421.561	2589.49
421.769	2661.16
421.977	2759.47
422.185	2714.41
422.393	2982.7
422.601	3111.72
422.809	3142.44
423.017	3074.85
423.224	3134.25
423.432	3298.08
423.64	3394.34
423.848	3744.54
424.056	3496.74
424.263	3891.99
424.471	3830.55
424.679	3918.62
424.887	4199.19
425.094	4207.38
425.302	4213.53
425.51	4369.17
425.718	4393.75
425.925	4621.07
426.133	4651.79
426.341	5008.14
426.548	5266.18
426.756	5206.79
426.964	5352.2
427.171	5628.67
427.379	5802.75
427.586	6011.64
427.794	6198.01
428.001	6329.08
428.209	6679.28
428.417	6456.05
428.624	6990.57
428.832	7000.81
429.039	6988.52
429.247	6918.89
429.454	7619.3
429.662	8168.15
429.869	7490.28
430.076	8119
430.284	7881.44
430.491	8207.06
430.699	8743.63
430.906	8569.55
431.114	8886.99
431.321	9106.12
431.528	9407.17
431.736	9753.28
431.943	10492.6
432.15	9906.88
432.358	10191.55
432.565	10691.25
432.772	10611.38
432.979	11387.56
433.187	11174.57
433.394	11524.77
433.601	12356.25
433.808	12335.77
434.016	12325.53
434.223	12847.76
434.43	13435.53
434.637	13257.36
434.844	14101.12
435.052	14279.29
435.259	14385.79
435.466	14617.21
435.673	14238.33
435.88	15184.49
436.087	16345.69
436.294	16224.86
436.501	15692.39
436.708	16005.73
436.915	16509.53
437.122	17140.3
437.329	17089.1
437.537	17885.76
437.743	18139.71
437.95	17904.2
438.157	18760.25
438.364	19511.85
438.571	19182.13
438.778	19431.98
438.985	21582.35
439.192	20597.28
439.399	21207.57
439.606	20761.11
439.813	21699.08
440.02	23304.69
440.227	23046.65
440.433	22376.96
440.64	23491.05
440.847	23042.55
441.054	23749.1
441.261	25117.14
441.467	24977.88
441.674	25534.93
441.881	26161.61
442.088	26745.28
442.294	25962.95
442.501	26876.35
442.708	27687.34
442.914	28615.07
443.121	29403.54
443.328	28707.23
443.534	31029.63
443.741	29682.06
443.948	29688.21
444.154	31418.74
444.361	31328.63
444.568	32014.7
444.774	31590.77
444.981	31910.25
445.187	32711.01
445.394	34285.9
445.6	34048.33
445.807	37038.37
446.013	35268.92
446.22	36071.73
446.426	37546.26
446.633	37949.71
446.839	38934.79
447.046	37529.88
447.252	39571.71
447.459	39782.65
447.665	39225.6
447.871	40737
448.078	42584.27
448.284	40538.35
448.491	41808.09
448.697	43610.3
448.903	43968.69
449.11	43700.41
449.316	42723.53
449.522	43784.38
449.728	45328.55
449.935	45349.03
450.141	45183.14
450.347	46258.32
450.553	44730.54
450.76	45410.46
450.966	46950.54
451.172	46309.52
451.378	47249.54
451.584	46434.45
451.791	47593.6
451.997	47147.14
452.203	48132.21
452.409	48031.86
452.615	47689.85
452.821	46094.49
453.027	45375.65
453.233	47552.64
453.44	46121.11
453.646	46532.75
453.852	46856.33
454.058	47503.49
454.264	45846.68
454.47	46633.1
454.676	45213.86
454.882	46862.47
455.088	43206.85
455.294	43899.06
455.5	44071.09
455.705	44976.3
455.911	43305.15
456.117	42004.69
456.323	41378.01
456.529	39180.54
456.735	41134.31
456.941	39856.37
457.147	39452.92
457.352	38234.38
457.558	37480.73
457.764	37730.58
457.97	37296.41
458.176	36190.51
458.381	36317.48
458.587	34474.31
458.793	34206.03
458.999	32629.09
459.204	34859.33
459.41	34453.83
459.616	31471.99
459.821	31981.93
460.027	31770.99
460.233	30988.67
460.438	29581.71
460.644	29573.52
460.85	28832.16
461.055	28086.7
461.261	27771.31
461.466	25987.53
461.672	25395.67
461.878	26937.79
462.083	25160.15
462.289	24852.95
462.494	24500.7
462.7	23382.51
462.905	22956.54
463.111	23599.6
463.316	23781.87
463.522	23142.9
463.727	23452.14
463.932	23038.45
464.138	23083.51
464.343	23142.9
464.549	22426.11
464.754	23175.67
464.959	23091.7
465.165	22745.59
465.37	21965.32
465.575	21451.28
465.781	21977.61
465.986	22274.56
466.191	21279.25
466.397	21305.87
466.602	19798.57
466.807	21039.64
467.012	20908.57
467.218	20646.43
467.423	20290.08
467.628	20990.49
467.833	21248.53
468.038	20703.77
468.244	20335.14
468.449	20990.49
468.654	19870.25
468.859	20101.67
469.064	20130.34
469.269	19458.6
469.474	19341.87
469.679	19565.1
469.885	18915.89
470.09	19163.7
470.295	19290.67
470.5	18973.24
470.705	18768.44
470.91	18543.16
471.115	18311.74
471.32	18580.03
471.525	18541.11
471.73	18029.12
471.935	17736.26
472.139	17295.95
472.344	17537.61
472.549	17203.79
472.754	17275.47
472.959	16753.24
473.164	16671.32
473.369	16300.64
473.574	16738.9
473.778	16585.3
473.983	16704.09
474.188	16634.46
474.393	15893.09
474.598	15936.1
474.802	15733.35
475.007	15569.51
475.212	15657.57
475.417	15032.94
475.621	15006.32
475.826	15274.6
476.031	15121.01
476.235	14432.89
476.44	14965.36
476.645	14262.91
476.849	14377.59
477.054	14451.32
477.259	14082.69
477.463	14176.89
477.668	13906.56
477.872	14183.04
478.077	13793.92
478.282	13376.14
478.486	13367.95
478.691	13214.35
478.895	13335.18
479.1	13363.85
479.304	13044.37
479.509	12798.61
479.713	12788.37
479.918	12845.71
480.122	12651.16
480.326	12858
480.531	12731.03
480.735	12630.68
480.94	12733.08
481.144	12952.21
481.348	12511.89
481.553	12470.94
481.757	12239.51
481.961	12317.34
482.166	12384.92
482.37	12571.29
482.574	12458.65
482.778	12309.15
482.983	12315.29
483.187	12550.81
483.391	12692.12
483.595	12251.8
483.8	12223.13
484.004	12440.22
484.208	12616.34
484.412	12253.85
484.616	12313.24
484.821	12300.95
485.025	12059.29
485.229	12489.37
485.433	12143.26
485.637	12243.61
485.841	12317.34
486.045	12208.8
486.249	12489.37
486.453	12139.16
486.657	12282.52
486.861	12374.68
487.065	12092.06
487.269	12042.91
487.473	12264.09
487.677	12337.82
487.881	12337.82
488.085	12169.88
488.289	12403.35
488.493	12331.67
488.697	12489.37
488.901	12356.25
489.105	12364.44
489.309	12460.7
489.512	12688.02
489.716	12305.05
489.92	12362.39
490.124	12554.9
490.328	12669.59
490.531	12468.89
490.735	12612.24
490.939	12806.8
491.143	12640.92
491.346	12706.45
491.55	13109.9
491.754	12913.3
491.958	13159.05
492.161	13238.92
492.365	13177.48
492.569	13111.95
492.772	13128.33
492.976	13361.8
493.18	13367.95
493.383	13390.47
493.587	13548.17
493.79	13769.35
493.994	13705.86
494.197	13703.81
494.401	13933.18
494.605	13845.12
494.808	14058.11
495.012	13943.42
495.215	14330.49
495.419	14385.79
495.622	14381.69
495.825	14547.58
496.029	14664.31
496.232	14916.21
496.436	14865.01
496.639	15245.93
496.843	15133.29
497.046	15428.2
497.249	15624.81
497.453	15555.18
497.656	15682.15
497.859	15917.67
498.063	15981.15
498.266	16448.09
498.469	16085.6
498.673	16591.45
498.876	16409.18
499.079	16929.36
499.282	16804.44
499.485	17517.13
499.689	17130.06
499.892	17664.58
500.095	17621.58
500.298	18088.51
500.501	17846.85
500.705	18532.92
500.908	18657.85
501.111	18620.99
501.314	19003.96
501.517	19096.11
501.72	19393.07
501.923	19259.95
502.126	19706.41
502.329	20091.43
502.532	19909.16
502.735	20240.93
502.938	20554.27
503.141	20769.3
503.344	21436.94
503.547	21359.12
503.75	21756.43
503.953	21918.21
504.156	21998.09
504.359	21998.09
504.562	22397.44
504.765	23108.08
504.968	22938.1
505.17	23417.33
505.373	23009.78
505.576	23675.37
505.779	24201.7
505.982	24191.46
506.185	24652.25
506.387	24736.22
506.59	24959.45
506.793	25260.5
506.996	25328.08
507.198	26157.51
507.401	25584.08
507.604	26319.3
507.807	26716.61
508.009	26706.37
508.212	27224.5
508.415	27660.72
508.617	27693.49
508.82	27877.8
509.022	27967.91
509.225	28578.21
509.428	28881.31
509.63	28875.16
509.833	28940.7
510.035	29716.88
510.238	29559.19
510.44	29966.73
510.643	30206.34
510.845	30613.89
511.048	30423.43
511.25	30896.51
511.453	31256.95
511.655	32250.22
511.858	31857.01
512.06	32518.5
512.262	32242.03
512.465	32172.39
512.667	33044.83
512.87	33462.61
513.072	33833.3
513.274	34222.41
513.477	34605.38
513.679	34556.23
513.881	35207.48
514.084	35475.77
514.286	35641.65
514.488	35660.09
514.69	36487.46
514.893	36321.58
515.095	36886.82
515.297	37148.96
515.499	37536.02
515.701	37744.92
515.904	38209.81
516.106	38488.33
516.308	38723.85
516.51	39545.08
516.712	39373.05
516.914	39700.73
517.116	40313.07
517.318	40212.72
517.52	40585.45
517.722	40884.45
517.925	41412.83
518.127	41947.35
518.329	42111.19
518.531	42010.84
518.733	42909.89
518.935	43096.26
519.136	43231.43
519.338	43727.03
519.54	43907.26
519.742	44241.07
519.944	44202.16
520.146	45181.09
520.348	45316.26
520.55	45447.33
520.752	45916.31
520.954	46473.36
521.155	45971.61
521.357	46577.81
521.559	47024.26
521.761	47720.57
521.963	47313.03
522.164	47833.21
522.366	47663.23
522.568	48636.02
522.77	48466.03
522.971	49221.73
523.173	49217.64
523.375	49330.28
523.576	49473.63
523.778	49934.43
523.98	50448.47
524.181	50174.04
524.383	51212.36
524.584	51460.16
524.786	51179.59
524.988	50925.64
525.189	51691.58
525.391	51634.24
525.592	52254.78
525.794	52537.4
525.995	51966.01
526.197	52803.63
526.398	52590.64
526.6	52946.99
526.801	53174.31
527.003	53585.96
527.204	53911.58
527.406	54118.43
527.607	53938.21
527.808	54331.42
528.01	53530.66
528.211	54020.13
528.412	55109.64
528.614	54732.82
528.815	55214.09
529.016	55334.92
529.218	54845.46
529.419	55027.73
529.62	55220.23
529.822	55175.18
530.023	55535.62
530.224	55740.42
530.425	55341.06
530.626	55535.62
530.828	55465.99
531.029	56514.55
531.23	55797.76
531.431	55916.54
531.632	56117.25
531.833	55951.36
532.035	56068.09
532.236	56465.4
532.437	56528.89
532.638	56358.91
532.839	56428.54
533.04	56297.47
533.241	56031.23
533.442	57059.31
533.643	56752.12
533.844	56682.48
534.045	56717.3
534.246	56117.25
534.447	56760.31
534.648	56535.03
534.849	56924.14
535.05	56367.1
535.251	56772.6
535.451	56907.76
535.652	57032.69
535.853	56780.79
536.054	57012.21
536.255	57100.27
536.456	56401.91
536.657	57274.35
536.857	56199.16
537.058	56635.38
537.259	57788.39
537.46	56936.43
537.66	56705.01
537.861	56825.84
538.062	56604.66
538.263	56551.41
538.463	56676.34
538.664	56526.84
538.865	56911.86
539.065	57356.27
539.266	56893.43
539.466	57593.83
539.667	56064
539.868	57370.6
540.068	56500.22
540.269	56874.99
540.469	56993.78
540.67	56502.26
540.87	56659.96
541.071	56764.4
541.271	56502.26
541.472	56870.9
541.672	56395.77
541.873	56414.2
542.073	55949.31
542.274	57229.29
542.474	56406.01
542.675	56266.75
542.875	57036.78
543.075	56238.08
543.276	55924.74
543.476	56938.48
543.676	56825.84
543.877	56829.94
544.077	56797.17
544.277	56518.65
544.478	56453.11
544.678	56905.71
544.878	56489.98
545.078	56723.44
545.279	56076.29
545.479	55891.97
545.679	56371.19
545.879	56895.47
546.079	55992.32
546.28	56016.89
546.48	55924.74
546.68	56340.47
546.88	56313.85
547.08	56352.76
547.28	55949.31
547.48	55928.83
547.68	56502.26
547.88	56272.89
548.081	56492.02
548.281	56358.91
548.481	55920.64
548.681	57059.31
548.881	56131.58
549.081	56117.25
549.28	55816.19
549.48	56477.69
549.68	56158.2
549.88	56700.92
550.08	55900.16
550.28	56154.11
550.48	55646.21
550.68	56528.89
550.88	55816.19
551.08	56293.37
551.279	56154.11
551.479	55375.88
551.679	55789.57
551.879	55881.73
552.079	56313.85
552.278	56027.13
552.478	56363
552.678	55814.15
552.878	55998.46
553.077	55597.06
553.277	55345.16
553.477	55973.89
553.676	55605.25
553.876	55783.43
554.076	55408.65
554.275	55638.02
554.475	55289.87
554.674	55865.34
554.874	55396.36
555.074	55586.82
555.273	56119.29
555.473	55617.54
555.672	55300.11
555.872	55433.22
556.071	55267.34
556.271	55441.42
556.47	55388.17
556.67	54571.03
556.869	55044.11
557.068	55400.46
557.268	54984.72
557.467	55205.9
557.667	54859.79
557.866	55144.46
558.065	54724.63
558.265	54925.33
558.464	54501.4
558.663	55320.59
558.863	54202.39
559.062	55388.17
559.261	53997.6
559.461	55007.25
559.66	54087.71
559.859	54261.79
560.058	54200.35
560.258	54470.68
560.457	53950.49
560.656	54143
560.855	53905.44
561.054	54163.48
561.253	54032.41
561.453	53788.7
561.652	53966.88
561.851	54192.15
562.05	53938.21
562.249	53311.53
562.448	53667.87
562.647	53739.55
562.846	53545
563.045	53448.74
563.244	52832.3
563.443	53667.87
563.642	52525.11
563.841	53002.28
564.04	53196.84
564.239	53471.27
564.438	52422.71
564.637	52662.32
564.836	52820.02
565.035	52135.99
565.234	52990
565.432	52166.71
565.631	52422.71
565.83	52541.49
566.029	52260.92
566.228	51900.48
566.427	51697.73
566.625	51822.65
566.824	51460.16
567.023	51857.47
567.222	50939.98
567.42	51818.56
567.619	51460.16
567.818	51046.47
568.016	50890.83
568.215	51656.77
568.414	50694.22
568.612	51488.84
568.811	50645.07
569.01	51046.47
569.208	50608.21
569.407	50620.5
569.605	50352.21
569.804	50620.5
570.002	50219.1
570.201	50481.24
570.4	49993.82
570.598	50423.89
570.797	49999.96
570.995	49911.9
571.193	49238.12
571.392	50133.08
571.59	49358.95
571.789	49834.08
571.987	49442.91
572.186	49270.89
572.384	48810.09
572.582	49330.28
572.781	49406.05
572.979	48736.37
573.177	48789.61
573.376	48810.09
573.574	48347.25
573.772	49039.47
573.971	48572.53
574.169	48148.6
574.367	48437.36
574.565	48246.9
574.763	48152.69
574.962	47843.45
575.16	47540.35
575.358	47607.93
575.556	47372.42
575.754	47626.37
575.952	47218.82
576.151	47671.42
576.349	46876.81
576.547	47218.82
576.745	47319.17
576.943	47097.99
577.141	46960.78
577.339	46829.71
577.537	46876.81
577.735	46215.32
577.933	46315.67
578.131	46745.74
578.329	46061.72
578.527	45883.55
578.725	45910.17
578.923	46141.59
579.121	45752.48
579.319	45805.72
579.516	46061.72
579.714	45822.11
579.912	45693.08
580.11	45232.29
580.308	45402.27
580.506	45314.21
580.704	45037.73
580.901	45037.73
581.099	45353.12
581.297	44886.18
581.495	44593.32
581.692	45105.32
581.89	44533.93
582.088	44437.68
582.285	44411.06
582.483	44912.81
582.681	44312.75
582.878	43858.1
583.076	43813.05
583.274	44308.66
583.471	43479.23
583.669	44089.52
583.866	43376.83
584.064	43573.44
584.262	43151.55
584.459	43315.39
584.657	43100.36
584.854	43460.8
585.052	42672.33
585.249	43174.08
585.447	42758.34
585.644	42246.35
585.841	42864.84
586.039	42819.78
586.236	42107.09
586.434	41955.54
586.631	41957.59
586.828	42207.44
587.026	42305.74
587.223	41912.53
587.42	41468.12
587.618	41740.5
587.815	41527.52
588.012	41421.02
588.21	41715.93
588.407	41707.74
588.604	41429.21
588.801	40913.13
588.999	40986.85
589.196	40937.7
589.393	41040.1
589.59	40679.66
589.787	40261.87
589.984	40401.13
590.182	39940.34
590.379	40755.43
590.576	40028.4
590.773	40087.79
590.97	39799.03
591.167	39801.08
591.364	39364.86
591.561	40143.09
591.758	39807.22
591.955	39409.92
592.152	39520.51
592.349	39053.57
592.546	38758.66
592.743	39438.59
592.94	38371.6
593.137	38736.13
593.334	38992.13
593.531	38283.53
593.727	38387.98
593.924	38371.6
594.121	38138.13
594.318	38545.67
594.515	37615.9
594.712	38344.97
594.908	37835.03
595.105	37890.32
595.302	37443.87
595.499	37859.6
595.696	37407
595.892	37179.68
596.089	37316.89
596.286	37595.42
596.482	37185.82
596.679	37103.9
596.876	36960.55
597.072	37079.33
597.269	36929.83
597.466	36733.22
597.662	36602.15
597.859	36612.39
598.055	36323.63
598.252	36198.7
598.448	35871.03
598.645	36112.69
598.841	35651.89
599.038	36065.58
599.234	35776.82
599.431	35246.4
599.627	35420.47
599.824	35549.49
600.02	35531.06
600.217	35354.94
600.413	34761.03
600.609	34990.4
600.806	34718.02
601.002	34840.9
601.198	34832.71
601.395	34560.33
601.591	34625.86
601.787	34531.65
601.984	34404.68
602.18	34472.26
602.376	34011.47
602.572	34066.77
602.769	33888.59
602.965	33665.36
603.161	34064.72
603.357	33589.59
603.553	33429.85
603.75	33589.59
603.946	33390.94
604.142	33458.52
604.338	32749.92
604.534	32979.29
604.73	32895.33
604.926	32657.76
605.122	32854.37
605.318	32424.29
605.514	32457.06
605.71	32463.21
605.906	32330.09
606.102	32631.14
606.298	32549.22
606.494	32020.84
606.69	31844.72
606.886	32113
607.082	31689.07
607.278	31975.79
607.474	31426.93
607.67	31961.45
607.866	31549.81
608.062	32004.46
608.257	31402.36
608.453	31365.49
608.649	31140.22
608.845	31078.78
609.041	30859.65
609.236	31250.81
609.432	30869.89
609.628	31136.12
609.824	30921.09
610.019	31062.4
610.215	30632.32
610.411	31113.59
610.606	30185.86
610.802	30591.36
610.998	30269.83
611.193	30372.23
611.389	30566.79
611.584	30316.93
611.78	29880.72
611.976	30206.34
612.171	30331.27
612.367	29938.06
612.562	30118.28
612.758	29376.92
612.953	29602.19
613.149	29956.49
613.344	29561.23
613.539	29811.09
613.735	29804.94
613.93	29858.19
614.126	29512.08
614.321	29768.08
614.517	29034.91
614.712	29303.19
614.907	29125.02
615.103	29288.85
615.298	29067.67
615.493	29487.51
615.688	28903.84
615.884	29430.16
616.079	28893.6
616.274	29208.98
616.47	28883.36
616.665	28744.09
616.86	28608.93
617.055	28641.7
617.25	28477.86
617.445	28664.22
617.641	27883.95
617.836	28498.34
618.031	27961.77
618.226	28402.08
618.421	28146.09
618.616	28260.77
618.811	27644.34
619.006	28213.67
619.201	27509.17
619.396	27666.86
619.591	26859.96
619.786	27507.12
619.981	27142.58
620.176	27287.99
620.371	26868.16
620.566	26747.33
620.761	26634.69
620.956	26995.13
621.151	26098.12
621.346	26859.96
621.541	26173.89
621.735	26665.41
621.93	26081.74
622.125	25790.92
622.32	25663.95
622.515	25719.24
622.709	25506.26
622.904	25428.43
623.099	25174.49
623.294	25405.91
623.488	25287.12
623.683	25143.77
623.878	24435.17
624.072	24936.92
624.267	24678.88
624.462	24404.45
624.656	23943.66
624.851	24093.16
625.046	24164.84
625.24	24121.83
625.435	23728.62
625.629	23724.52
625.824	23589.36
626.018	23716.33
626.213	22972.92
626.407	23058.93
626.602	22839.8
626.796	23052.79
626.991	22845.94
627.185	22452.73
627.38	22436.35
627.574	22374.91
627.768	22139.4
627.963	22149.64
628.157	21754.38
628.352	21936.65
628.546	21879.3
628.74	21813.77
628.935	21727.75
629.129	21764.62
629.323	21117.46
629.517	21383.7
629.712	21006.87
629.906	21002.77
630.1	20750.87
630.294	20851.22
630.489	20695.58
630.683	20740.63
630.877	19997.22
631.071	20224.54
631.265	20298.27
631.459	20066.85
631.653	19946.02
631.848	19862.05
632.042	20029.99
632.236	20019.75
632.43	19290.67
632.624	19661.35
632.818	19204.66
633.012	19198.51
633.206	19188.27
633.4	19165.74
633.594	18731.58
633.788	19212.85
633.982	18838.07
634.176	18719.29
634.369	18360.89
634.563	18424.38
634.757	18281.02
634.951	18403.9
635.145	18364.99
635.339	18385.47
635.533	17865.28
635.726	18020.93
635.92	17613.38
636.114	17635.91
636.308	17631.82
636.501	17521.23
636.695	17476.17
636.889	17363.53
637.083	17238.61
637.276	17144.4
637.47	17021.52
637.664	16953.94
637.857	16878.16
638.051	17035.86
638.244	16779.86
638.438	16800.34
638.632	16360.03
638.825	16722.52
639.019	16302.68
639.212	16349.79
639.406	16198.24
639.599	16261.73
639.793	16071.26
639.986	15831.65
640.18	15985.25
640.373	15917.67
640.567	15651.43
640.76	15643.24
640.954	15444.59
641.147	15176.3
641.34	15239.79
641.534	15008.37
641.727	15223.41
641.92	15192.69
642.114	14994.03
642.307	14733.94
642.5	14670.45
642.694	14600.82
642.887	14545.53
643.08	14858.87
643.273	14557.82
643.467	14576.25
643.66	14338.68
643.853	14379.64
644.046	13957.76
644.239	14340.73
644.432	13984.38
644.626	13859.46
644.819	13984.38
645.012	13855.36
645.205	13812.35
645.398	13787.78
645.591	13556.36
645.784	13687.43
645.977	13529.73
646.17	13574.79
646.363	13267.59
646.556	12919.44
646.749	13324.94
646.942	13419.14
647.135	12958.35
647.328	13011.6
647.521	13025.93
647.714	12595.86
647.907	12905.1
648.099	12751.51
648.292	12837.52
648.485	12731.03
648.678	12360.34
648.871	12493.46
649.064	12235.42
649.256	12477.08
649.449	12237.47
649.642	12186.27
649.835	12073.63
650.027	12221.08
650.22	11817.63
650.413	12001.95
650.605	11907.74
650.798	11897.5
650.991	11848.35
651.183	11756.19
651.376	11739.81
651.568	11852.45
651.761	11289.26
651.954	11408.04
652.146	11360.94
652.339	11432.61
652.531	11160.24
652.724	11145.9
652.916	11086.51
653.109	11004.59
653.301	10836.66
653.494	10863.28
653.686	10894
653.879	10953.39
654.071	10627.76
654.263	10803.89
654.456	10566.32
654.648	10855.09
654.84	10410.68
655.033	10418.87
655.225	10343.1
655.417	10326.71
655.61	10361.53
655.802	10322.62
655.994	10267.32
656.186	10146.49
656.379	10013.37
656.571	10187.45
656.763	10201.79
656.955	9763.52
657.148	10111.68
657.34	9843.39
657.532	9921.21
657.724	9564.87
657.916	9835.2
658.108	9677.51
658.3	9568.96
658.492	9659.07
658.684	9538.24
658.876	9493.19
659.068	9398.98
659.26	9323.21
659.452	9296.58
659.644	9204.42
659.836	9255.62
660.028	9257.67
660.22	8745.68
660.412	8925.9
660.604	9126.6
660.796	9054.92
660.988	9050.83
661.18	8925.9
661.372	8850.13
661.563	8821.45
661.755	8659.67
661.947	8805.07
662.139	8557.27
662.331	8587.99
662.522	8731.34
662.714	8598.23
662.906	8569.55
663.097	8469.2
663.289	8381.14
663.481	8254.17
663.673	8311.51
663.864	8362.71
664.056	8334.04
664.247	8102.62
664.439	8084.19
664.631	8073.95
664.822	8127.19
665.014	8080.09
665.205	8024.79
665.397	7918.3
665.588	7916.25
665.78	7822.05
665.971	7729.89
666.163	7922.4
666.354	7903.96
666.546	7844.57
666.737	7621.35
666.929	7779.04
667.12	7615.2
667.311	7652.06
667.503	7633.63
667.694	7561.95
667.885	7480.04
668.077	7457.51
668.268	7514.85
668.459	7303.91
668.651	7473.89
668.842	7416.55
669.033	7172.84
669.224	7303.91
669.416	7273.19
669.607	7207.66
669.798	7090.92
669.989	7131.88
670.18	7297.77
670.371	7025.39
670.563	7015.15
670.754	7002.86
670.945	7023.34
671.136	7099.11
671.327	6775.53
671.518	6902.51
671.709	6931.18
671.9	6927.08
672.091	6976.23
672.282	7074.54
672.473	6769.39
672.664	6832.88
672.855	6744.81
673.046	6781.68
673.237	6830.83
673.428	6763.25
673.619	6671.09
673.809	6408.95
674	6626.03
674.191	6544.11
674.382	6527.73
674.573	6419.19
674.764	6550.26
674.954	6345.46
675.145	6331.12
675.336	6339.32
675.527	6390.52
675.717	6435.57
675.908	6423.28
676.099	6286.07
676.289	6247.16
676.48	6202.1
676.671	6148.86
676.861	6343.41
677.052	6394.61
677.243	6267.64
677.433	6155
677.624	6230.77
677.814	6091.51
678.005	6109.94
678.195	6056.7
678.386	6073.08
678.576	5974.78
678.767	5960.44
678.957	5976.83
679.148	5952.25
679.338	6038.27
679.529	6075.13
679.719	5815.04
679.909	5901.05
680.1	5970.68
680.29	6118.14
680.481	5954.3
680.671	5735.17
680.861	5862.14
681.052	5774.08
681.242	5812.99
681.432	5964.54
681.622	5794.56
681.813	5786.37
682.003	5749.5
682.193	5806.84
682.383	5866.24
682.573	5841.66
682.764	5706.49
682.954	5831.42
683.144	5722.88
683.334	5802.75
683.524	5776.13
683.714	5729.02
683.904	5665.53
684.094	5747.45
684.284	5681.92
684.474	5780.22
684.664	5573.38
684.854	5640.96
685.044	5577.47
685.234	5497.6
685.424	5559.04
685.614	5516.03
685.804	5436.16
685.994	5423.87
686.184	5427.97
686.374	5477.12
686.564	5329.67
686.753	5413.63
686.943	5344
687.133	5188.36
687.323	5321.48
687.513	5219.08
687.702	5311.24
687.892	5163.78
688.082	5141.25
688.272	5188.36
688.461	5118.73
688.651	5020.42
688.841	5034.76
689.03	5028.62
689.22	5188.36
689.41	5053.19
689.599	5141.25
689.789	5075.72
689.979	5049.1
690.168	5104.39
690.358	4883.21
690.547	4872.97
690.737	5022.47
690.926	4963.08
691.116	4877.07
691.305	4875.02
691.495	4877.07
691.684	4872.97
691.874	4795.15
692.063	4889.35
692.252	4731.66
692.442	4823.82
692.631	4557.58
692.82	4764.43
693.01	4496.14
693.199	4596.5
693.388	4637.45
693.578	4625.17
693.767	4473.62
693.956	4363.03
694.146	4432.66
694.335	4438.8
694.524	4485.9
694.713	4569.87
694.902	4418.32
695.092	4412.18
695.281	4465.43
695.47	4453.14
695.659	4567.82
695.848	4440.85
696.037	4365.07
696.226	4399.89
696.415	4330.26
696.604	4401.94
696.793	4258.58
696.982	4383.51
697.171	4358.93
697.36	4424.47
697.549	4336.4
697.738	4342.55
697.927	4297.49
698.116	4322.07
698.305	4266.77
698.494	4342.55
698.683	4180.76
698.872	4262.68
699.061	4209.43
699.25	4104.98
699.438	4174.61
699.627	4215.57
699.816	4174.61
700.005	4369.17
700.193	4115.22
700.382	4152.09
700.571	4166.42
700.76	4092.69
700.948	4045.59
701.137	4033.3
701.326	4084.5
701.514	4137.75
701.703	4066.07
701.892	4055.83
702.08	4197.14
702.269	3986.2
702.457	4088.6
702.646	4150.04
702.834	4016.92
703.023	4225.81
703.212	4057.88
703.4	4074.26
703.589	4008.73
703.777	4119.32
703.965	3975.96
704.154	4029.21
704.342	4031.26
704.531	3994.39
704.719	3988.25
704.907	4096.79
705.096	3969.82
705.284	4113.17
705.472	3969.82
705.661	3949.34
705.849	3980.06
706.037	4031.26
706.226	3822.36
706.414	4023.06
706.602	3928.86
706.79	4076.31
706.979	3953.43
707.167	3969.82
707.355	3922.71
707.543	3953.43
707.731	3943.19
707.919	3982.1
708.107	3961.62
708.296	3783.45
708.484	3924.76
708.672	3949.34
708.86	3887.9
709.048	3773.21
709.236	3896.09
709.424	3965.72
709.612	3967.77
709.8	3820.32
709.988	3908.38
710.176	3877.66
710.364	3826.46
710.551	3812.12
710.739	3879.71
710.927	3820.32
711.115	3965.72
711.303	3869.47
711.491	3717.92
711.679	3742.49
711.866	3779.36
712.054	3765.02
712.242	3832.6
712.43	3840.79
712.617	3767.07
712.805	3769.12
712.993	3744.54
713.181	3744.54
713.368	3660.57
713.556	3750.68
713.744	3726.11
713.931	3863.32
714.119	3599.13
714.306	3865.37
714.494	3715.87
714.682	3728.16
714.869	3773.21
715.057	3801.88
715.244	3797.79
715.432	3693.34
715.619	3730.2
715.807	3709.72
715.994	3808.03
716.182	3699.48
716.369	3681.05
716.556	3851.03
716.744	3810.08
716.931	3683.1
717.119	3756.83
717.306	3820.32
717.493	3533.6
717.681	3836.7
717.868	3724.06
718.055	3679.01
718.242	3633.95
718.43	3711.77
718.617	3818.27
718.804	3742.49
718.991	3724.06
719.179	3826.46
719.366	3765.02
719.553	3672.86
719.74	3642.14
719.927	3584.8
720.114	3568.41
720.301	3717.92
720.488	3549.98
720.676	3578.65
720.863	3701.53
721.05	3838.75
721.237	3662.62
721.424	3437.34
721.611	3652.38
721.798	3595.04
721.985	3552.03
722.172	3617.57
722.358	3646.24
722.545	3660.57
722.732	3664.67
722.919	3679.01
723.106	3607.33
723.293	3621.66
723.48	3582.75
723.667	3466.02
723.853	3509.02
724.04	3633.95
724.227	3398.43
724.414	3617.57
724.6	3529.5
724.787	3543.84
724.974	3537.7
725.161	3599.13
725.347	3466.02
725.534	3527.46
725.72	3486.5
725.907	3459.87
726.094	3472.16
726.28	3545.89
726.467	3435.3
726.653	3431.2
726.84	3490.59
727.027	3486.5
727.213	3271.46
727.4	3439.39
727.586	3463.97
727.773	3506.98
727.959	3472.16
728.145	3578.65
728.332	3345.19
728.518	3404.58
728.705	3482.4
728.891	3435.3
729.077	3480.35
729.264	3517.22
729.45	3527.46
729.636	3433.25
729.823	3427.11
730.009	3420.96
730.195	3453.73
730.382	3396.39
730.568	3412.77
730.754	3449.63
730.94	3334.95
731.126	3375.91
731.313	3382.05
731.499	3326.75
731.685	3437.34
731.871	3418.91
732.057	3332.9
732.243	3523.36
732.429	3289.89
732.615	3316.51
732.801	3326.75
732.987	3318.56
733.173	3332.9
733.359	3459.87
733.545	3316.51
733.731	3228.45
733.917	3265.32
734.103	3336.99
734.289	3355.43
734.475	3246.88
734.661	3203.88
734.847	3281.7
735.033	3386.15
735.219	3146.53
735.404	3287.84
735.59	3234.6
735.776	3183.4
735.962	3279.65
736.148	3287.84
736.333	3187.49
736.519	3293.99
736.705	3298.08
736.89	3277.6
737.076	3154.73
737.262	3048.23
737.447	3195.68
737.633	3109.67
737.819	3091.24
738.004	3078.95
738.19	3216.16
738.375	3076.9
738.561	3066.66
738.747	3050.28
738.932	3179.3
739.118	3193.64
739.303	3136.29
739.489	3054.37
739.674	3183.4
739.859	2988.84
740.045	2923.3
740.23	3007.27
740.416	3003.18
740.601	2925.35
740.786	2908.97
740.972	2943.78
741.157	2904.87
741.342	2820.91
741.528	2974.5
741.713	2990.89
741.898	2925.35
742.084	2898.73
742.269	2886.44
742.454	2935.59
742.639	2759.47
742.824	2892.59
743.01	2966.31
743.195	2831.15
743.38	2851.63
743.565	2716.46
743.75	2814.76
743.935	2808.62
744.12	2775.85
744.305	2753.32
744.49	2736.94
744.675	2710.32
744.86	2665.26
745.045	2622.25
745.23	2687.79
745.415	2777.9
745.6	2691.88
745.785	2614.06
745.97	2577.2
746.155	2669.36
746.34	2554.67
746.525	2511.66
746.71	2652.97
746.895	2505.52
747.079	2585.39
747.264	2515.76
747.449	2536.24
747.634	2530.09
747.819	2655.02
748.003	2370.35
748.188	2472.75
748.373	2345.78
748.557	2417.46
748.742	2413.36
748.927	2353.97
749.111	2341.68
749.296	2425.65
749.481	2356.02
749.665	2341.68
749.85	2179.89
750.034	2319.15
750.219	2308.91
750.404	2235.19
750.588	2339.63
750.773	2208.56
750.957	2253.62
751.141	2198.32
751.326	2227
751.51	2102.07
751.695	2104.12
751.879	2026.29
752.064	2272.05
752.248	2220.85
752.432	2052.92
752.617	1983.29
752.801	2069.3
752.985	2071.35
753.17	1985.34
753.354	2120.5
753.538	1962.81
753.722	1921.85
753.907	2042.68
754.091	1958.71
754.275	1995.57
754.459	1981.24
754.643	1899.32
754.828	1889.08
755.012	1905.46
755.196	1868.6
755.38	1788.73
755.564	1768.25
755.748	1829.69
755.932	1815.35
756.116	1880.89
756.3	1788.73
756.484	1862.46
756.668	1741.63
756.852	1813.31
757.036	1803.07
757.22	1672
757.404	1708.86
757.588	1749.82
757.772	1700.67
757.956	1737.53
758.14	1559.36
758.323	1663.8
758.507	1581.89
758.691	1600.32
758.875	1610.56
759.059	1639.23
759.242	1477.44
759.426	1612.6
759.61	1612.6
759.794	1573.69
759.977	1506.11
760.161	1614.65
760.345	1540.93
760.528	1577.79
760.712	1522.49
760.895	1555.26
761.079	1452.86
761.263	1409.86
761.446	1540.93
761.63	1401.66
761.813	1467.2
761.997	1397.57
762.18	1481.53
762.364	1307.46
762.547	1397.57
762.731	1430.34
762.914	1489.73
763.098	1344.32
763.281	1473.34
763.464	1434.43
763.648	1416
763.831	1325.89
764.015	1397.57
764.198	1354.56
764.381	1389.38
764.564	1411.9
764.748	1344.32
764.931	1397.57
765.114	1469.25
765.297	1332.03
765.481	1336.13
765.664	1319.75
765.847	1317.7
766.03	1456.96
766.213	1372.99
766.397	1315.65
766.58	1295.17
766.763	1303.36
766.946	1196.87
767.129	1301.31
767.312	1186.63
767.495	1272.64
767.678	1252.16
767.861	1139.52
768.044	1252.16
768.227	1217.35
768.41	1151.81
768.593	1213.25
768.776	1213.25
768.959	1237.83
769.142	1207.11
769.324	1229.63
769.507	1286.98
769.69	1229.63
769.873	1143.62
770.056	1252.16
770.239	1205.06
770.421	1178.44
770.604	1106.76
770.787	1168.2
770.97	1153.86
771.152	1174.34
771.335	1129.28
771.518	1102.66
771.7	1157.96
771.883	1084.23
772.066	992.07
772.248	1030.98
772.431	1170.24
772.613	1071.94
772.796	1051.46
772.978	1073.99
773.161	1078.08
773.343	1080.13
773.526	1014.6
773.708	1000.26
773.891	1000.26
774.073	983.88
774.256	967.49
774.438	1016.65
774.621	998.21
774.803	967.49
774.985	875.34
775.168	961.35
775.35	996.17
775.532	1008.45
775.715	887.62
775.897	1010.5
776.079	910.15
776.261	953.16
776.444	1012.55
776.626	885.58
776.808	809.8
776.99	959.3
777.173	826.18
777.355	820.04
777.537	959.3
777.719	850.76
777.901	926.54
778.083	895.82
778.265	850.76
778.447	856.9
778.629	805.71
778.811	744.27
778.993	844.62
779.175	871.24
779.357	719.69
779.539	774.99
779.721	799.56
779.903	789.32
780.085	787.27
780.267	787.27
780.449	752.46
780.631	754.51
780.812	785.23
780.994	721.74
781.176	785.23
781.358	756.55
781.54	752.46
781.721	748.36
781.903	676.68
782.085	664.4
782.267	768.84
782.448	609.1
782.63	674.64
782.812	656.2
782.993	609.1
783.175	670.54
783.357	672.59
783.538	631.63
783.72	660.3
783.901	600.91
784.083	697.16
784.264	686.92
784.446	559.95
784.627	625.48
784.809	635.72
784.99	613.2
785.172	639.82
785.353	613.2
785.535	557.9
785.716	598.86
785.897	566.09
786.079	586.57
786.26	619.34
786.441	549.71
786.623	555.85
786.804	582.48
786.985	537.42
787.167	613.2
787.348	617.29
787.529	607.05
787.71	553.8
787.891	619.34
788.073	504.65
788.254	490.32
788.435	537.42
788.616	541.52
788.797	527.18
788.978	496.46
789.159	508.75
789.34	492.37
789.522	445.26
789.703	482.13
789.884	566.09
790.065	471.89
790.246	609.1
790.427	518.99
790.607	537.42
790.788	506.7
790.969	508.75
791.15	465.74
791.331	443.21
791.512	400.21
791.693	453.45
791.874	441.17
792.054	525.13
792.235	482.13
792.416	467.79
792.597	402.26
792.778	396.11
792.958	480.08
793.139	465.74
793.32	457.55
793.5	387.92
793.681	461.65
793.862	441.17
794.042	357.2
794.223	396.11
794.404	426.83
794.584	473.93
794.765	361.3
794.945	371.54
795.126	402.26
795.306	365.39
795.487	334.67
795.667	379.73
795.848	379.73
796.028	367.44
796.209	389.97
796.389	451.41
796.57	355.15
796.75	287.57
796.93	387.92
797.111	265.04
797.291	426.83
797.471	437.07
797.652	371.54
797.832	299.86
798.012	381.78
798.192	295.76
798.373	246.61
798.553	322.38
798.733	351.06
798.913	365.39
799.093	392.02
799.274	306
799.454	330.58
799.634	318.29
799.814	320.34
799.994	320.34
800.174	349.01
800.354	344.91
800.534	226.13
800.714	275.28
800.894	283.47
801.074	279.38
801.254	381.78
801.434	269.14
801.614	320.34
801.794	328.53
801.974	844.62
802.154	219.99
802.334	289.62
802.514	310.1
802.693	328.53
802.873	295.76
803.053	381.78
803.233	351.06
803.413	344.91
803.592	277.33
803.772	295.76
803.952	271.19
804.131	299.86
804.311	303.95
804.491	355.15
804.67	248.66
804.85	326.48
805.03	254.8
805.209	295.76
805.389	199.51
805.568	297.81
805.748	267.09
805.928	326.48
806.107	275.28
806.287	318.29
806.466	275.28
806.646	265.04
806.825	252.75
807.004	293.71
807.184	260.95
807.363	303.95
807.543	236.37
807.722	219.99
807.901	256.85
808.081	185.17
808.26	207.7
808.439	203.6
808.619	295.76
808.798	191.31
808.977	254.8
809.156	250.71
809.336	254.8
809.515	172.88
809.694	240.47
809.873	240.47
810.052	273.23
810.231	234.32
810.411	316.24
810.59	246.61
810.769	129.88
810.948	260.95
811.127	189.27
811.306	217.94
811.485	191.31
811.664	250.71
811.843	226.13
812.022	193.36
812.201	197.46
812.38	183.12
812.559	205.65
812.737	219.99
812.916	107.35
813.095	299.86
813.274	230.23
813.453	185.17
813.632	238.42
813.811	160.59
813.989	123.73
814.168	189.27
814.347	78.68
814.526	176.98
814.704	203.6
814.883	150.36
815.062	148.31
815.24	183.12
815.419	123.73
815.598	150.36
815.776	86.87
815.955	217.94
816.133	105.3
816.312	162.64
816.49	160.59
816.669	213.84
816.847	166.74
817.026	138.07
817.204	140.12
817.383	164.69
817.561	170.83
817.74	181.07
817.918	179.03
818.097	168.79
818.275	115.54
818.453	172.88
818.632	140.12
818.81	146.26
818.988	127.83
819.167	146.26
819.345	133.97
819.523	203.6
819.701	195.41
819.879	228.18
820.058	228.18
820.236	150.36
820.414	136.02
820.592	150.36
820.77	201.55
820.948	113.49
821.127	142.16
821.305	138.07
821.483	70.48
821.661	156.5
821.839	144.21
822.017	181.07
822.195	127.83
822.373	121.68
822.551	136.02
822.729	183.12
822.907	181.07
823.085	152.4
823.262	93.01
823.44	172.88
823.618	121.68
823.796	107.35
823.974	197.46
824.152	90.96
824.329	138.07
824.507	105.3
824.685	64.34
824.863	119.64
825.04	222.03
825.218	164.69
825.396	164.69
825.574	211.79
825.751	140.12
825.929	179.03
826.107	97.11
826.284	105.3
826.462	146.26
826.639	74.58
826.817	138.07
826.994	158.55
827.172	109.4
827.349	123.73
827.527	154.45
827.704	95.06
827.882	146.26
828.059	58.2
828.237	70.48
828.414	111.44
828.591	74.58
828.769	174.93
828.946	72.53
829.124	144.21
829.301	136.02
829.478	117.59
829.655	150.36
829.833	142.16
830.01	107.35
830.187	133.97
830.364	50
830.542	103.25
830.719	138.07
830.896	86.87
831.073	9.05
831.25	66.39
831.427	144.21
831.604	64.34
831.782	78.68
831.959	119.64
832.136	54.1
832.313	68.44
832.49	99.16
832.667	111.44
832.844	119.64
833.021	162.64
833.198	127.83
833.374	138.07
833.551	115.54
833.728	86.87
833.905	123.73
834.082	-19.63
834.259	107.35
834.436	95.06
834.612	86.87
834.789	95.06
834.966	76.63
835.143	99.16
835.319	82.77
835.496	74.58
835.673	131.92
835.85	129.88
836.026	123.73
836.203	156.5
836.38	105.3
836.556	121.68
836.733	58.2
836.909	78.68
837.086	41.81
837.262	80.72
837.439	25.43
837.616	70.48
837.792	37.72
837.968	93.01
838.145	58.2
838.321	43.86
838.498	95.06
838.674	66.39
838.851	78.68
839.027	47.96
839.203	33.62
839.38	86.87
839.556	54.1
839.732	60.24
839.909	58.2
840.085	105.3
840.261	43.86
840.437	50
840.614	66.39
840.79	45.91
840.966	17.24
841.142	66.39
841.318	58.2
841.494	164.69
841.671	76.63
841.847	13.14
842.023	45.91
842.199	90.96
842.375	43.86
842.551	45.91
842.727	-42.15
842.903	62.29
843.079	27.48
843.255	121.68
843.431	43.86
843.607	45.91
843.783	41.81
843.959	70.48
844.134	74.58
844.31	45.91
844.486	27.48
844.662	41.81
844.838	103.25
845.013	121.68
845.189	74.58
845.365	27.48
845.541	41.81
845.716	66.39
845.892	82.77
846.068	50
846.244	31.57
846.419	90.96
846.595	21.33
846.77	-33.96
846.946	99.16
847.122	119.64
847.297	25.43
847.473	125.78
847.648	11.09
847.824	62.29
847.999	50
848.175	95.06
848.35	72.53
848.526	47.96
848.701	115.54
848.876	72.53
849.052	62.29
849.227	78.68
849.403	11.09
849.578	33.62
849.753	62.29
849.929	76.63
850.104	37.72
850.279	86.87
850.454	25.43
850.63	54.1
850.805	23.38
850.98	60.24
851.155	41.81
851.33	80.72
851.505	41.81
851.681	64.34
851.856	-11.43
852.031	21.33
852.206	107.35
852.381	66.39
852.556	52.05
852.731	82.77
852.906	4.95
853.081	82.77
853.256	62.29
853.431	109.4
853.606	17.24
853.781	33.62
853.956	-36.01
854.131	0.85
854.305	50
854.48	19.29
854.655	-48.3
854.83	17.24
855.005	-42.15
855.18	58.2
855.354	33.62
855.529	-7.34
855.704	11.09
855.879	35.67
856.053	37.72
856.228	45.91
856.403	41.81
856.577	58.2
856.752	-64.68
856.926	25.43
857.101	86.87
857.276	60.24
857.45	41.81
857.625	23.38
857.799	86.87
857.974	9.05
858.148	-13.48
858.323	58.2
858.497	39.76
858.672	4.95
858.846	60.24
859.02	39.76
859.195	88.92
859.369	-29.87
859.543	2.9
859.718	2.9
859.892	60.24
860.066	-42.15
860.241	-38.06
860.415	47.96
860.589	78.68
860.763	70.48
860.938	54.1
861.112	117.59
861.286	-21.67
861.46	0.85
861.634	64.34
861.808	4.95
861.982	-11.43
862.157	72.53
862.331	-19.63
862.505	-44.2
862.679	33.62
862.853	70.48
863.027	-31.91
863.201	64.34
863.375	70.48
863.549	54.1
863.722	-11.43
863.896	39.76
864.07	-42.15
864.244	29.52
864.418	60.24
864.592	52.05
864.766	41.81
864.939	68.44
865.113	29.52
865.287	56.15
865.461	72.53
865.634	29.52
865.808	27.48
865.982	33.62
866.156	27.48
866.329	-7.34
866.503	-72.87
866.676	13.14
866.85	33.62
867.024	-21.67
867.197	58.2
867.371	52.05
867.544	39.76
867.718	-11.43
867.891	66.39
868.065	-11.43
868.238	13.14
868.412	0.85
868.585	0.85
868.759	-52.39
868.932	52.05
869.105	11.09
869.279	-13.48
869.452	0.85
869.625	-1.19
869.799	-1.19
869.972	-15.53
870.145	74.58
870.319	33.62
870.492	-36.01
870.665	-27.82
870.838	-50.35
871.011	-11.43
871.185	-3.24
871.358	25.43
871.531	-3.24
871.704	-19.63
871.877	25.43
872.05	33.62
872.223	-7.34
872.396	43.86
872.569	50
872.742	39.76
872.915	31.57
873.088	-52.39
873.261	-21.67
873.434	-13.48
873.607	27.48
873.78	19.29
873.953	23.38
874.126	9.05
874.299	0.85
874.471	-52.39
874.644	-36.01
874.817	17.24
874.99	68.44
875.163	-5.29
875.335	41.81
875.508	45.91
875.681	17.24
875.853	7
876.026	-23.72
876.199	-58.54
876.371	-31.91
876.544	-19.63
876.717	76.63
876.889	-29.87
877.062	27.48
877.234	21.33
877.407	-15.53
877.579	-19.63
877.752	-1.19
877.924	-50.35
878.097	82.77
878.269	-11.43
878.442	52.05
878.614	70.48
878.786	52.05
878.959	-7.34
879.131	-5.29
879.303	9.05
879.476	15.19
879.648	58.2
879.82	-23.72
879.993	41.81
880.165	-58.54
880.337	-42.15
880.509	58.2
880.681	23.38
880.854	-15.53
881.026	47.96
881.198	4.95
881.37	25.43
881.542	17.24
881.714	-42.15
881.886	-85.16
882.058	66.39
882.23	56.15
882.402	15.19
882.574	-15.53
882.746	-13.48
882.918	-13.48
883.09	-52.39
883.262	-83.11
883.434	-3.24
883.606	41.81
883.778	4.95
883.95	-9.39
884.122	-9.39
884.293	47.96
884.465	-31.91
884.637	9.05
884.809	-11.43
884.98	-7.34
885.152	58.2
885.324	62.29
885.496	9.05
885.667	-64.68
885.839	-58.54
886.011	17.24
886.182	-25.77
886.354	50
886.525	0.85
886.697	25.43
886.869	39.76
887.04	21.33
887.212	29.52
887.383	45.91
887.555	-5.29
887.726	-25.77
887.897	-64.68
888.069	82.77
888.24	9.05
888.412	-76.97
888.583	35.67
888.754	78.68
888.926	-11.43
889.097	0.85
889.268	43.86
889.44	-21.67
889.611	19.29
889.782	45.91
889.953	15.19
890.125	60.24
890.296	-9.39
890.467	-3.24
890.638	4.95
890.809	-54.44
890.98	-42.15
891.151	-25.77
891.323	31.57
891.494	-3.24
891.665	-11.43
891.836	-15.53
892.007	-15.53
892.178	37.72
892.349	-36.01
892.52	-21.67
892.691	-72.87
892.862	-50.35
893.032	9.05
893.203	-42.15
893.374	-21.67
893.545	2.9
893.716	9.05
893.887	45.91
894.057	43.86
894.228	-19.63
894.399	-31.91
894.57	37.72
894.74	-62.63
894.911	56.15
895.082	-54.44
895.253	9.05
895.423	4.95
895.594	29.52
895.764	-7.34
895.935	4.95
896.106	27.48
896.276	-3.24
896.447	4.95
896.617	-11.43
896.788	4.95
896.958	-25.77
897.129	-19.63
897.299	35.67
897.47	25.43
897.64	11.09
897.81	-33.96
897.981	64.34
898.151	2.9
898.322	7
898.492	54.1
898.662	-36.01
898.832	-36.01
899.003	45.91
899.173	-9.39
899.343	74.58
899.513	7
