Data from USB4F104151__271__10-40-40-793.txt Node

Date: Wed Mar 12 10:40:40 EDT 2025
User: louis
Spectrometer: USB4F10415
Trigger mode: 4
Integration Time (sec): 3.000000E-2
Scans to average: 1
Electric dark correction enabled: true
Nonlinearity correction enabled: false
Boxcar width: 0
XAxis mode: Wavelengths
Number of Pixels in Spectrum: 3648
>>>>>Begin Spectral Data<<<<<
178.204	-111.96
178.424	-111.96
178.644	-111.96
178.864	-105.81
179.084	-52.56
179.304	-50.52
179.524	-13.65
179.744	37.55
179.964	-17.75
180.184	8.87
180.404	33.45
180.624	-25.94
180.844	-7.51
181.064	-11.61
181.283	-46.42
181.503	-1.37
181.723	94.89
181.943	37.55
182.163	131.75
182.383	76.46
182.602	101.03
182.822	25.26
183.042	19.11
183.262	39.59
183.482	37.55
183.701	68.27
183.921	12.97
184.141	31.4
184.361	19.11
184.58	15.02
184.8	41.64
185.02	78.51
185.239	82.6
185.459	62.12
185.679	96.94
185.898	2.73
186.118	123.56
186.338	12.97
186.557	66.22
186.777	12.97
186.997	51.88
187.216	88.75
187.436	88.75
187.655	53.93
187.875	82.6
188.095	29.35
188.314	98.99
188.534	74.41
188.753	47.79
188.973	29.35
189.192	17.07
189.412	-19.8
189.631	96.94
189.851	29.35
190.07	33.45
190.29	10.92
190.509	10.92
190.729	2.73
190.948	86.7
191.168	113.32
191.387	70.31
191.607	35.5
191.826	64.17
192.045	41.64
192.265	70.31
192.484	31.4
192.704	109.22
192.923	-5.46
193.142	133.8
193.362	58.03
193.581	135.85
193.8	86.7
194.02	113.32
194.239	82.6
194.458	82.6
194.678	-13.65
194.897	47.79
195.116	27.31
195.335	-25.94
195.555	74.41
195.774	31.4
195.993	-38.23
196.212	78.51
196.432	-5.46
196.651	-13.65
196.87	74.41
197.089	158.38
197.308	62.12
197.528	68.27
197.747	55.98
197.966	31.4
198.185	88.75
198.404	31.4
198.623	84.65
198.842	43.69
199.062	33.45
199.281	90.79
199.5	74.41
199.719	-7.51
199.938	68.27
200.157	82.6
200.376	49.83
200.595	74.41
200.814	31.4
201.033	115.37
201.252	55.98
201.471	84.65
201.69	39.59
201.909	103.08
202.128	41.64
202.347	127.66
202.566	115.37
202.785	43.69
203.004	41.64
203.223	152.23
203.442	105.13
203.661	6.83
203.879	33.45
204.098	35.5
204.317	78.51
204.536	58.03
204.755	129.7
204.974	109.22
205.193	17.07
205.411	80.55
205.63	0.68
205.849	12.97
206.068	19.11
206.287	2.73
206.505	68.27
206.724	105.13
206.943	160.42
207.162	64.17
207.381	60.07
207.599	-7.51
207.818	6.83
208.037	60.07
208.255	23.21
208.474	43.69
208.693	51.88
208.911	55.98
209.13	86.7
209.349	33.45
209.567	47.79
209.786	137.9
210.005	-19.8
210.223	35.5
210.442	86.7
210.661	-13.65
210.879	68.27
211.098	33.45
211.316	66.22
211.535	25.26
211.753	-5.46
211.972	90.79
212.191	-25.94
212.409	53.93
212.628	58.03
212.846	49.83
213.065	68.27
213.283	139.94
213.502	41.64
213.72	94.89
213.938	64.17
214.157	70.31
214.375	92.84
214.594	86.7
214.812	17.07
215.031	39.59
215.249	0.68
215.467	88.75
215.686	43.69
215.904	70.31
216.122	58.03
216.341	86.7
216.559	64.17
216.778	31.4
216.996	62.12
217.214	29.35
217.432	6.83
217.651	66.22
217.869	64.17
218.087	70.31
218.306	37.55
218.524	88.75
218.742	64.17
218.96	101.03
219.179	8.87
219.397	45.74
219.615	127.66
219.833	121.51
220.051	17.07
220.27	-17.75
220.488	98.99
220.706	96.94
220.924	-3.41
221.142	96.94
221.36	60.07
221.578	125.61
221.796	25.26
222.015	35.5
222.233	6.83
222.451	76.46
222.669	2.73
222.887	49.83
223.105	37.55
223.323	86.7
223.541	8.87
223.759	111.27
223.977	60.07
224.195	68.27
224.413	21.16
224.631	6.83
224.849	39.59
225.067	47.79
225.285	-32.08
225.503	92.84
225.721	-52.56
225.939	58.03
226.157	62.12
226.375	170.66
226.592	33.45
226.81	35.5
227.028	58.03
227.246	117.42
227.464	-11.61
227.682	23.21
227.9	35.5
228.117	90.79
228.335	84.65
228.553	60.07
228.771	55.98
228.989	43.69
229.206	55.98
229.424	133.8
229.642	25.26
229.86	25.26
230.077	86.7
230.295	21.16
230.513	84.65
230.731	68.27
230.948	148.14
231.166	41.64
231.384	17.07
231.601	66.22
231.819	88.75
232.037	29.35
232.254	29.35
232.472	94.89
232.689	84.65
232.907	66.22
233.125	23.21
233.342	4.78
233.56	12.97
233.777	45.74
233.995	70.31
234.213	66.22
234.43	68.27
234.648	58.03
234.865	23.21
235.083	96.94
235.3	33.45
235.518	74.41
235.735	66.22
235.953	64.17
236.17	39.59
236.388	2.73
236.605	29.35
236.822	88.75
237.04	156.33
237.257	70.31
237.475	55.98
237.692	84.65
237.909	101.03
238.127	-23.89
238.344	17.07
238.562	58.03
238.779	58.03
238.996	53.93
239.214	98.99
239.431	70.31
239.648	25.26
239.865	31.4
240.083	51.88
240.3	60.07
240.517	17.07
240.735	78.51
240.952	0.68
241.169	64.17
241.386	84.65
241.603	55.98
241.821	74.41
242.038	23.21
242.255	64.17
242.472	66.22
242.689	76.46
242.907	119.46
243.124	41.64
243.341	27.31
243.558	43.69
243.775	29.35
243.992	60.07
244.209	115.37
244.426	78.51
244.643	117.42
244.86	74.41
245.078	62.12
245.295	82.6
245.512	98.99
245.729	-3.41
245.946	10.92
246.163	39.59
246.38	33.45
246.597	2.73
246.814	37.55
247.031	37.55
247.248	82.6
247.464	68.27
247.681	88.75
247.898	86.7
248.115	29.35
248.332	31.4
248.549	90.79
248.766	148.14
248.983	60.07
249.2	101.03
249.417	72.36
249.633	15.02
249.85	41.64
250.067	119.46
250.284	66.22
250.501	86.7
250.717	66.22
250.934	-3.41
251.151	53.93
251.368	72.36
251.585	135.85
251.801	41.64
252.018	21.16
252.235	105.13
252.451	74.41
252.668	76.46
252.885	82.6
253.102	-11.61
253.318	31.4
253.535	70.31
253.752	17.07
253.968	82.6
254.185	41.64
254.401	53.93
254.618	19.11
254.835	31.4
255.051	58.03
255.268	49.83
255.484	123.56
255.701	60.07
255.917	-9.56
256.134	25.26
256.351	78.51
256.567	25.26
256.784	31.4
257	8.87
257.217	37.55
257.433	105.13
257.65	82.6
257.866	55.98
258.082	80.55
258.299	29.35
258.515	107.18
258.732	60.07
258.948	-17.75
259.165	80.55
259.381	64.17
259.597	25.26
259.814	49.83
260.03	90.79
260.246	88.75
260.463	133.8
260.679	49.83
260.895	66.22
261.112	82.6
261.328	45.74
261.544	23.21
261.761	76.46
261.977	101.03
262.193	-5.46
262.409	82.6
262.626	58.03
262.842	144.04
263.058	-5.46
263.274	96.94
263.49	15.02
263.707	62.12
263.923	49.83
264.139	60.07
264.355	27.31
264.571	119.46
264.787	51.88
265.004	47.79
265.22	2.73
265.436	98.99
265.652	45.74
265.868	88.75
266.084	68.27
266.3	37.55
266.516	49.83
266.732	148.14
266.948	98.99
267.164	53.93
267.38	72.36
267.596	107.18
267.812	88.75
268.028	6.83
268.244	33.45
268.46	78.51
268.676	-3.41
268.892	47.79
269.108	-15.7
269.324	4.78
269.54	-77.14
269.756	29.35
269.972	49.83
270.188	41.64
270.403	37.55
270.619	41.64
270.835	105.13
271.051	94.89
271.267	70.31
271.483	37.55
271.698	27.31
271.914	109.22
272.13	41.64
272.346	31.4
272.562	-30.04
272.777	78.51
272.993	25.26
273.209	37.55
273.425	94.89
273.64	51.88
273.856	84.65
274.072	39.59
274.287	33.45
274.503	58.03
274.719	6.83
274.934	64.17
275.15	101.03
275.366	60.07
275.581	45.74
275.797	58.03
276.012	49.83
276.228	27.31
276.444	68.27
276.659	19.11
276.875	29.35
277.09	23.21
277.306	19.11
277.521	2.73
277.737	41.64
277.952	141.99
278.168	107.18
278.383	43.69
278.599	60.07
278.814	37.55
279.03	-46.42
279.245	109.22
279.461	98.99
279.676	105.13
279.892	51.88
280.107	27.31
280.322	47.79
280.538	119.46
280.753	8.87
280.969	41.64
281.184	64.17
281.399	76.46
281.615	21.16
281.83	66.22
282.045	-11.61
282.26	10.92
282.476	29.35
282.691	60.07
282.906	31.4
283.122	78.51
283.337	90.79
283.552	86.7
283.767	45.74
283.983	107.18
284.198	41.64
284.413	94.89
284.628	-32.08
284.843	49.83
285.058	78.51
285.274	27.31
285.489	21.16
285.704	90.79
285.919	66.22
286.134	103.08
286.349	60.07
286.564	90.79
286.779	-3.41
286.995	-17.75
287.21	37.55
287.425	55.98
287.64	31.4
287.855	33.45
288.07	17.07
288.285	139.94
288.5	58.03
288.715	33.45
288.93	53.93
289.145	47.79
289.36	127.66
289.575	96.94
289.79	74.41
290.004	41.64
290.219	53.93
290.434	12.97
290.649	55.98
290.864	55.98
291.079	72.36
291.294	8.87
291.509	64.17
291.724	-9.56
291.938	-9.56
292.153	25.26
292.368	10.92
292.583	55.98
292.798	-54.61
293.012	47.79
293.227	39.59
293.442	66.22
293.657	-7.51
293.871	64.17
294.086	90.79
294.301	98.99
294.516	51.88
294.73	58.03
294.945	17.07
295.16	15.02
295.374	41.64
295.589	84.65
295.804	96.94
296.018	25.26
296.233	103.08
296.447	43.69
296.662	4.78
296.877	123.56
297.091	49.83
297.306	10.92
297.52	49.83
297.735	-7.51
297.949	-7.51
298.164	76.46
298.378	-15.7
298.593	62.12
298.807	96.94
299.022	39.59
299.236	72.36
299.451	45.74
299.665	119.46
299.88	58.03
300.094	68.27
300.309	101.03
300.523	109.22
300.737	115.37
300.952	55.98
301.166	80.55
301.381	92.84
301.595	4.78
301.809	76.46
302.024	88.75
302.238	25.26
302.452	45.74
302.667	-19.8
302.881	82.6
303.095	70.31
303.309	90.79
303.524	43.69
303.738	58.03
303.952	4.78
304.166	-23.89
304.381	51.88
304.595	127.66
304.809	-3.41
305.023	68.27
305.237	17.07
305.452	15.02
305.666	19.11
305.88	8.87
306.094	105.13
306.308	64.17
306.522	82.6
306.736	43.69
306.95	49.83
307.164	35.5
307.379	29.35
307.593	78.51
307.807	80.55
308.021	6.83
308.235	29.35
308.449	103.08
308.663	-9.56
308.877	70.31
309.091	86.7
309.305	94.89
309.519	49.83
309.733	76.46
309.947	-17.75
310.161	80.55
310.374	125.61
310.588	62.12
310.802	6.83
311.016	76.46
311.23	113.32
311.444	115.37
311.658	64.17
311.872	146.09
312.085	68.27
312.299	107.18
312.513	137.9
312.727	27.31
312.941	0.68
313.154	70.31
313.368	72.36
313.582	35.5
313.796	33.45
314.009	113.32
314.223	119.46
314.437	43.69
314.651	-19.8
314.864	39.59
315.078	70.31
315.292	119.46
315.505	51.88
315.719	66.22
315.933	47.79
316.146	19.11
316.36	33.45
316.573	96.94
316.787	125.61
317.001	105.13
317.214	107.18
317.428	27.31
317.641	80.55
317.855	23.21
318.068	33.45
318.282	62.12
318.495	105.13
318.709	62.12
318.922	43.69
319.136	41.64
319.349	154.28
319.563	49.83
319.776	62.12
319.99	47.79
320.203	137.9
320.417	84.65
320.63	80.55
320.843	117.42
321.057	70.31
321.27	86.7
321.483	10.92
321.697	88.75
321.91	49.83
322.124	70.31
322.337	80.55
322.55	58.03
322.763	29.35
322.977	53.93
323.19	49.83
323.403	86.7
323.617	31.4
323.83	117.42
324.043	49.83
324.256	64.17
324.469	70.31
324.683	68.27
324.896	62.12
325.109	68.27
325.322	4.78
325.535	94.89
325.748	-1.37
325.962	8.87
326.175	58.03
326.388	109.22
326.601	74.41
326.814	119.46
327.027	47.79
327.24	88.75
327.453	29.35
327.666	15.02
327.879	23.21
328.092	117.42
328.305	74.41
328.518	31.4
328.731	12.97
328.944	72.36
329.157	49.83
329.37	148.14
329.583	137.9
329.796	80.55
330.009	117.42
330.222	76.46
330.435	51.88
330.648	66.22
330.861	8.87
331.073	21.16
331.286	68.27
331.499	94.89
331.712	12.97
331.925	72.36
332.138	72.36
332.35	80.55
332.563	78.51
332.776	98.99
332.989	37.55
333.202	94.89
333.414	156.33
333.627	70.31
333.84	41.64
334.053	41.64
334.265	25.26
334.478	55.98
334.691	82.6
334.903	58.03
335.116	78.51
335.329	29.35
335.541	94.89
335.754	137.9
335.966	39.59
336.179	19.11
336.392	72.36
336.604	103.08
336.817	-9.56
337.029	111.27
337.242	66.22
337.454	29.35
337.667	17.07
337.88	115.37
338.092	21.16
338.305	90.79
338.517	35.5
338.729	121.51
338.942	94.89
339.154	62.12
339.367	78.51
339.579	76.46
339.792	62.12
340.004	51.88
340.217	-3.41
340.429	144.04
340.641	55.98
340.854	58.03
341.066	23.21
341.278	55.98
341.491	72.36
341.703	90.79
341.915	86.7
342.128	117.42
342.34	29.35
342.552	119.46
342.764	105.13
342.977	74.41
343.189	191.14
343.401	31.4
343.613	35.5
343.826	41.64
344.038	27.31
344.25	78.51
344.462	-1.37
344.674	80.55
344.886	72.36
345.099	41.64
345.311	29.35
345.523	-11.61
345.735	25.26
345.947	72.36
346.159	29.35
346.371	60.07
346.583	119.46
346.795	84.65
347.007	10.92
347.219	39.59
347.431	98.99
347.643	37.55
347.855	-11.61
348.067	86.7
348.279	45.74
348.491	127.66
348.703	55.98
348.915	49.83
349.127	47.79
349.339	66.22
349.551	51.88
349.763	94.89
349.975	-27.99
350.187	121.51
350.399	148.14
350.61	68.27
350.822	96.94
351.034	66.22
351.246	92.84
351.458	144.04
351.669	109.22
351.881	148.14
352.093	82.6
352.305	64.17
352.517	58.03
352.728	70.31
352.94	66.22
353.152	55.98
353.363	60.07
353.575	55.98
353.787	131.75
353.999	53.93
354.21	105.13
354.422	49.83
354.633	94.89
354.845	39.59
355.057	33.45
355.268	141.99
355.48	141.99
355.692	23.21
355.903	45.74
356.115	27.31
356.326	-17.75
356.538	90.79
356.749	98.99
356.961	135.85
357.172	60.07
357.384	41.64
357.595	117.42
357.807	109.22
358.018	51.88
358.23	55.98
358.441	92.84
358.653	96.94
358.864	90.79
359.075	117.42
359.287	80.55
359.498	135.85
359.709	86.7
359.921	109.22
360.132	82.6
360.344	92.84
360.555	66.22
360.766	58.03
360.977	25.26
361.189	107.18
361.4	-1.37
361.611	82.6
361.823	45.74
362.034	139.94
362.245	35.5
362.456	111.27
362.667	117.42
362.879	8.87
363.09	78.51
363.301	156.33
363.512	90.79
363.723	94.89
363.935	39.59
364.146	158.38
364.357	33.45
364.568	55.98
364.779	-11.61
364.99	92.84
365.201	8.87
365.412	152.23
365.623	58.03
365.834	146.09
366.045	66.22
366.256	113.32
366.467	187.05
366.678	86.7
366.889	72.36
367.1	115.37
367.311	55.98
367.522	72.36
367.733	127.66
367.944	146.09
368.155	78.51
368.366	88.75
368.577	105.13
368.788	19.11
368.999	82.6
369.209	98.99
369.42	113.32
369.631	187.05
369.842	76.46
370.053	-7.51
370.264	62.12
370.474	8.87
370.685	41.64
370.896	53.93
371.107	92.84
371.317	78.51
371.528	15.02
371.739	117.42
371.95	49.83
372.16	62.12
372.371	74.41
372.582	49.83
372.792	164.52
373.003	82.6
373.214	55.98
373.424	49.83
373.635	33.45
373.846	103.08
374.056	146.09
374.267	141.99
374.477	66.22
374.688	70.31
374.898	19.11
375.109	148.14
375.319	115.37
375.53	115.37
375.74	98.99
375.951	45.74
376.161	109.22
376.372	158.38
376.582	74.41
376.793	-7.51
377.003	66.22
377.214	133.8
377.424	117.42
377.635	176.81
377.845	119.46
378.055	88.75
378.266	55.98
378.476	152.23
378.686	74.41
378.897	78.51
379.107	68.27
379.317	125.61
379.528	68.27
379.738	98.99
379.948	96.94
380.158	103.08
380.369	98.99
380.579	72.36
380.789	55.98
380.999	107.18
381.21	154.28
381.42	96.94
381.63	72.36
381.84	121.51
382.05	68.27
382.261	127.66
382.471	82.6
382.681	58.03
382.891	160.42
383.101	25.26
383.311	64.17
383.521	39.59
383.731	117.42
383.941	164.52
384.151	109.22
384.361	47.79
384.571	111.27
384.781	66.22
384.991	199.34
385.201	107.18
385.411	160.42
385.621	121.51
385.831	98.99
386.041	158.38
386.251	115.37
386.461	156.33
386.671	6.83
386.881	94.89
387.091	105.13
387.301	109.22
387.511	94.89
387.72	107.18
387.93	111.27
388.14	115.37
388.35	60.07
388.56	111.27
388.769	172.71
388.979	76.46
389.189	66.22
389.399	92.84
389.609	82.6
389.818	86.7
390.028	107.18
390.238	117.42
390.447	33.45
390.657	123.56
390.867	115.37
391.076	74.41
391.286	64.17
391.496	29.35
391.705	144.04
391.915	123.56
392.125	98.99
392.334	141.99
392.544	90.79
392.753	121.51
392.963	115.37
393.172	94.89
393.382	98.99
393.591	113.32
393.801	66.22
394.01	137.9
394.22	125.61
394.429	64.17
394.639	111.27
394.848	86.7
395.058	164.52
395.267	111.27
395.477	127.66
395.686	168.62
395.895	195.24
396.105	232.1
396.314	121.51
396.524	133.8
396.733	123.56
396.942	121.51
397.152	180.9
397.361	150.18
397.57	144.04
397.78	127.66
397.989	172.71
398.198	180.9
398.407	137.9
398.617	109.22
398.826	187.05
399.035	113.32
399.244	68.27
399.453	101.03
399.663	168.62
399.872	139.94
400.081	129.7
400.29	154.28
400.499	62.12
400.708	209.58
400.917	158.38
401.127	172.71
401.336	109.22
401.545	215.72
401.754	176.81
401.963	137.9
402.172	160.42
402.381	244.39
402.59	223.91
402.799	158.38
403.008	166.57
403.217	127.66
403.426	144.04
403.635	166.57
403.844	94.89
404.053	244.39
404.262	160.42
404.471	240.29
404.68	148.14
404.888	131.75
405.097	139.94
405.306	258.73
405.515	201.38
405.724	154.28
405.933	168.62
406.142	164.52
406.35	185
406.559	160.42
406.768	228.01
406.977	281.25
407.185	203.43
407.394	322.21
407.603	215.72
407.812	348.84
408.02	334.5
408.229	301.73
408.438	328.36
408.646	275.11
408.855	279.21
409.064	352.93
409.272	252.58
409.481	330.41
409.69	346.79
409.898	367.27
410.107	336.55
410.315	397.99
410.524	334.5
410.733	389.8
410.941	350.89
411.15	443.04
411.358	432.8
411.567	418.47
411.775	481.96
411.984	498.34
412.192	524.96
412.401	576.16
412.609	600.74
412.818	631.46
413.026	670.37
413.234	610.98
413.443	623.27
413.651	576.16
413.86	647.84
414.068	715.42
414.276	737.95
414.485	713.38
414.693	811.68
414.901	877.21
415.11	791.2
415.318	805.53
415.526	823.97
415.734	883.36
415.943	924.32
416.151	959.13
416.359	948.89
416.567	993.95
416.776	1141.4
416.984	1143.45
417.192	1208.98
417.4	1251.99
417.608	1196.7
417.817	1256.09
418.025	1335.96
418.233	1389.21
418.441	1399.45
418.649	1295
418.857	1499.8
419.065	1616.53
419.273	1520.28
419.481	1608.34
419.689	1727.12
419.897	1774.22
420.105	1729.17
420.313	1794.7
420.521	1919.63
420.729	1917.58
420.937	2042.51
421.145	2206.34
421.353	2108.04
421.561	2290.31
421.769	2372.23
421.977	2470.53
422.185	2302.6
422.393	2503.3
422.601	2581.12
422.809	2716.29
423.017	2830.98
423.224	2855.55
423.432	2880.13
423.64	3041.92
423.848	3236.47
424.056	2990.72
424.263	3453.56
424.471	3478.13
424.679	3404.41
424.887	3684.98
425.094	3840.62
425.302	3680.88
425.51	4029.04
425.718	4035.18
425.925	4010.61
426.133	4184.68
426.341	4455.01
426.548	4522.6
426.756	4555.37
426.964	4815.46
427.171	5030.49
427.379	5218.91
427.586	5050.97
427.794	5474.9
428.001	5622.36
428.209	5884.5
428.417	5818.96
428.624	6158.92
428.832	6158.92
429.039	6195.79
429.247	5974.61
429.454	6578.76
429.662	7336.51
429.869	6545.99
430.076	7160.38
430.284	6986.3
430.491	7260.73
430.699	7709.24
430.906	7752.24
431.114	7731.76
431.321	8155.69
431.528	8251.95
431.736	8612.39
431.943	9239.07
432.15	8831.52
432.358	9122.34
432.565	9533.98
432.772	9474.59
432.979	9816.6
433.187	10054.16
433.394	10181.14
433.601	10711.56
433.808	10906.12
434.016	10693.13
434.223	11364.86
434.43	11876.85
434.637	11745.78
434.844	12657.13
435.052	12782.06
435.259	12743.14
435.466	13007.33
435.673	12538.35
435.88	13361.63
436.087	14127.57
436.294	14156.24
436.501	13820.38
436.708	14180.82
436.915	14807.5
437.122	15339.97
437.329	15487.42
437.537	15737.27
437.743	15925.69
437.95	16015.8
438.157	16538.03
438.364	17316.26
438.571	17017.26
438.778	17463.71
438.985	18925.96
439.192	18291.09
439.399	18751.88
439.606	18514.32
439.813	19362.18
440.02	20443.51
440.227	20068.73
440.433	20101.5
440.64	20965.74
440.847	20525.43
441.054	21018.99
441.261	22597.97
441.467	22024.54
441.674	22604.11
441.881	23656.77
442.088	23361.86
442.294	23163.21
442.501	23720.26
442.708	24475.96
442.914	25348.39
443.121	26253.59
443.328	25733.41
443.534	27478.28
443.741	26634.52
443.948	26566.93
444.154	28444.92
444.361	27814.15
444.568	28530.94
444.774	28160.25
444.981	28422.39
445.187	29253.87
445.394	30695.64
445.6	30396.63
445.807	33263.79
446.013	31578.31
446.22	32663.74
446.426	33411.24
446.633	34005.16
446.839	34893.97
447.046	33274.03
447.252	35393.68
447.459	35391.63
447.665	35283.09
447.871	37083.25
448.078	37828.71
448.284	36176
448.491	36948.09
448.697	38684.76
448.903	39366.74
449.11	39252.05
449.316	38858.84
449.522	39215.19
449.728	40405.06
449.935	40894.52
450.141	40448.07
450.347	41506.87
450.553	40343.62
450.76	40583.23
450.966	41961.51
451.172	41273.4
451.378	42199.08
451.584	41895.98
451.791	42420.26
451.997	42403.88
452.203	43112.47
452.409	42792.99
452.615	42387.49
452.821	41109.56
453.027	40732.73
453.233	42805.28
453.44	40648.77
453.646	41347.12
453.852	41203.77
454.058	41869.36
454.264	40722.49
454.47	41568.3
454.676	40484.93
454.882	41674.8
455.088	37820.52
455.294	38817.88
455.5	39010.39
455.705	39444.56
455.911	37980.26
456.117	37275.76
456.323	36919.42
456.529	34721.94
456.735	35895.43
456.941	35225.75
457.147	34592.92
457.352	33253.55
457.558	32960.69
457.764	33134.77
457.97	32465.08
458.176	31652.04
458.381	31901.89
458.587	30204.13
458.793	30136.54
458.999	28786.93
459.204	30761.17
459.41	29685.99
459.616	27582.73
459.821	27517.19
460.027	27650.31
460.233	27117.84
460.438	25458.98
460.644	25989.41
460.85	24883.5
461.055	24359.22
461.261	24478.01
461.466	22542.67
461.672	21760.35
461.878	23505.22
462.083	22055.26
462.289	21356.9
462.494	21395.81
462.7	20566.38
462.905	19771.77
463.111	20783.47
463.316	20570.48
463.522	20179.32
463.727	20564.34
463.932	20349.3
464.138	19865.98
464.343	20179.32
464.549	19773.82
464.754	20289.91
464.959	20173.17
465.165	19702.14
465.37	19077.51
465.575	18596.24
465.781	19288.45
465.986	19808.64
466.191	19032.46
466.397	18401.68
466.602	17379.75
466.807	18334.1
467.012	18045.34
467.218	18229.65
467.423	17992.09
467.628	18559.38
467.833	18934.15
468.038	18043.29
468.244	17584.54
468.449	18078.1
468.654	17910.17
468.859	17729.95
469.064	17598.88
469.269	16968.1
469.474	17039.78
469.679	17383.84
469.885	16370.1
470.09	17047.97
470.295	16832.94
470.5	16427.44
470.705	16435.63
470.91	15954.36
471.115	16034.23
471.32	16341.43
471.525	16073.14
471.73	15585.72
471.935	15714.75
472.139	15274.43
472.344	15294.91
472.549	15184.32
472.754	15114.69
472.959	14803.4
473.164	14545.36
473.369	14156.24
473.574	14813.64
473.778	14467.53
473.983	14297.55
474.188	14514.64
474.393	13828.57
474.598	13765.08
474.802	13552.09
475.007	13754.84
475.212	13494.75
475.417	13083.11
475.621	13148.64
475.826	13152.74
476.031	12913.13
476.235	12622.31
476.44	12780.01
476.645	12653.03
476.849	12605.93
477.054	12612.07
477.259	12456.43
477.463	12485.1
477.668	11969.01
477.872	12245.49
478.077	12067.31
478.282	11854.33
478.486	11883
478.691	11708.92
478.895	11739.64
479.1	11569.66
479.304	11289.09
479.509	11248.13
479.713	11229.7
479.918	11276.8
480.122	11196.93
480.326	11221.5
480.531	11145.73
480.735	11020.8
480.94	10859.01
481.144	11293.18
481.348	10682.89
481.553	10895.88
481.757	10574.35
481.961	10844.68
482.166	10940.93
482.37	10936.84
482.574	10578.44
482.778	10609.16
482.983	10799.62
483.187	10930.69
483.391	10863.11
483.595	10801.67
483.8	10820.1
484.004	10813.96
484.208	11008.51
484.412	10902.02
484.616	10842.63
484.821	10729.99
485.025	10459.66
485.229	10799.62
485.433	10619.4
485.637	10639.88
485.841	10723.85
486.045	10699.27
486.249	10893.83
486.453	10652.17
486.657	10793.48
486.861	10936.84
487.065	10347.02
487.269	10752.52
487.473	10578.44
487.677	10912.26
487.881	10881.54
488.085	10672.65
488.289	10875.4
488.493	10680.84
488.697	10945.03
488.901	10848.77
489.105	10949.12
489.309	11002.37
489.512	11035.14
489.716	10967.56
489.92	10910.21
490.124	10973.7
490.328	10930.69
490.531	10770.95
490.735	11235.84
490.939	11110.91
491.143	11121.15
491.346	11094.53
491.55	11438.59
491.754	11352.57
491.958	11321.85
492.161	11303.42
492.365	11432.44
492.569	11393.53
492.772	11469.31
492.976	11543.03
493.18	11676.15
493.383	11960.82
493.587	11868.66
493.79	12222.96
493.994	11782.65
494.197	11868.66
494.401	12128.75
494.605	12106.23
494.808	12411.37
495.012	12327.41
495.215	12524.01
495.419	12769.77
495.622	12253.68
495.825	12724.71
496.029	12624.36
496.232	13201.89
496.436	12771.82
496.639	13230.56
496.843	13183.46
497.046	13730.27
497.249	13756.89
497.453	13496.8
497.656	13748.7
497.859	13890.01
498.063	14115.28
498.266	14502.35
498.469	14254.55
498.673	14473.68
498.876	14528.97
499.079	14711.24
499.282	14600.65
499.485	15245.76
499.689	15307.2
499.892	15518.14
500.095	15702.46
500.298	15749.56
500.501	15729.08
500.705	16353.71
500.908	16228.79
501.111	16576.94
501.314	16644.52
501.517	16861.61
501.72	17154.47
501.923	17109.41
502.126	17265.06
502.329	17799.58
502.532	17734.04
502.735	17928.6
502.938	18340.24
503.141	18192.79
503.344	18930.06
503.547	18659.73
503.75	19155.33
503.953	19296.64
504.156	19390.85
504.359	19683.71
504.562	19841.4
504.765	20246.9
504.968	20251
505.17	20480.37
505.373	20384.12
505.576	20812.14
505.779	21027.18
505.982	21049.71
506.185	21819.74
506.387	21883.23
506.59	21993.82
506.793	22434.13
506.996	22245.72
507.198	22821.2
507.401	22864.21
507.604	23331.14
507.807	23746.88
508.009	23744.83
508.212	23540.04
508.415	24103.23
508.617	24641.84
508.82	24586.55
509.022	24469.81
509.225	24983.85
509.428	25325.86
509.63	25501.99
509.833	25516.33
510.035	26286.36
510.238	26102.04
510.44	26577.17
510.643	26691.86
510.845	26960.14
511.048	26894.61
511.25	27463.94
511.453	27801.86
511.655	28354.81
511.858	28031.23
512.06	28680.44
512.262	28813.56
512.465	28766.45
512.667	29407.47
512.87	29571.3
513.072	29759.72
513.274	30443.74
513.477	30423.26
513.679	30490.84
513.881	30978.26
514.084	31373.52
514.286	31365.32
514.488	31779.01
514.69	32565.43
514.893	32614.59
515.095	32657.59
515.297	33052.85
515.499	33202.35
515.701	33603.75
515.904	33663.14
516.106	34185.38
516.308	34349.21
516.51	34889.88
516.712	34918.55
516.914	35162.26
517.116	36030.6
517.318	35741.83
517.52	36012.17
517.722	36139.14
517.925	36706.43
518.127	37242.99
518.329	37247.09
518.531	37505.13
518.733	38271.07
518.935	38283.36
519.136	38301.79
519.338	39012.44
519.54	39260.24
519.742	39329.87
519.944	39258.2
520.146	40222.79
520.348	40439.87
520.55	40638.53
520.752	40945.72
520.954	41003.06
521.155	41080.89
521.357	41769.01
521.559	41963.56
521.761	42567.71
521.963	42776.61
522.164	42555.43
522.366	42790.94
522.568	43091.99
522.77	43350.04
522.971	44234.76
523.173	44150.79
523.375	44537.86
523.576	44619.78
523.778	44412.93
523.98	45297.66
524.181	45111.29
524.383	45516.79
524.584	45637.62
524.786	45733.87
524.988	45697.01
525.189	46428.13
525.391	46731.23
525.592	46843.87
525.794	47097.82
525.995	47374.3
526.197	47654.87
526.398	47663.06
526.6	47810.51
526.801	47933.39
527.003	48211.91
527.204	48189.39
527.406	49004.48
527.607	48889.79
527.808	48396.23
528.01	48170.96
528.211	48631.75
528.412	49571.77
528.614	49539
528.815	49473.46
529.016	50073.52
529.218	49526.71
529.419	49579.96
529.62	49950.64
529.822	49821.62
530.023	49577.91
530.224	49973.17
530.425	49917.87
530.626	49733.56
530.828	49964.98
531.029	50917.28
531.23	50399.15
531.431	50362.28
531.632	50696.1
531.833	50694.05
532.035	50423.72
532.236	51038.11
532.437	50884.51
532.638	50483.11
532.839	50958.24
533.04	50976.67
533.241	50583.46
533.442	51863.44
533.643	50864.03
533.844	51115.93
534.045	51193.76
534.246	50464.68
534.447	51197.85
534.648	51079.07
534.849	51402.65
535.05	50904.99
535.251	51369.88
535.451	50984.86
535.652	51451.8
535.853	50798.5
536.054	51308.44
536.255	51318.68
536.456	50993.06
536.657	52176.78
536.857	51345.31
537.058	51251.1
537.259	51920.79
537.46	51945.36
537.66	51275.68
537.861	51384.22
538.062	51279.77
538.263	51613.59
538.463	51156.89
538.664	51310.49
538.865	51535.77
539.065	51783.57
539.266	51220.38
539.466	51621.78
539.667	50845.6
539.868	51433.37
540.068	51562.39
540.269	51183.52
540.469	51490.71
540.67	51294.11
540.87	51328.92
541.071	51130.27
541.271	51292.06
541.472	51427.23
541.672	51124.13
541.873	51070.88
542.073	50595.75
542.274	51318.68
542.474	51148.7
542.675	50904.99
542.875	51234.72
543.075	51296.16
543.276	50708.39
543.476	51318.68
543.676	50726.82
543.877	51277.72
544.077	51091.36
544.277	50878.37
544.478	50980.77
544.678	51300.25
544.878	51052.45
545.078	51089.31
545.279	50460.58
545.479	50784.16
545.679	51062.69
545.879	50653.09
546.079	50939.81
546.28	51034.02
546.48	50069.42
546.68	50950.05
546.88	51369.88
547.08	50923.43
547.28	50696.1
547.48	50253.74
547.68	50911.14
547.88	50304.94
548.081	50726.82
548.281	50710.44
548.481	50466.73
548.681	50661.29
548.881	51257.24
549.081	50980.77
549.28	50349.99
549.48	50724.77
549.68	50620.33
549.88	51081.12
550.08	50302.89
550.28	50538.41
550.48	50141.1
550.68	50755.49
550.88	50227.12
551.08	50243.5
551.279	50587.56
551.479	49932.21
551.679	50327.47
551.879	50075.57
552.079	50763.68
552.278	50393
552.478	50345.9
552.678	50122.67
552.878	50608.04
553.077	50229.16
553.277	49866.67
553.477	51122.08
553.676	49897.39
553.876	50038.7
554.076	49792.95
554.275	49706.93
554.475	49448.89
554.674	50005.94
554.874	49973.17
555.074	49526.71
555.273	49807.28
555.473	50190.25
555.672	50001.84
555.872	50018.22
556.071	49895.35
556.271	50012.08
556.47	49528.76
556.67	49162.17
556.869	49526.71
557.068	49967.02
557.268	49342.39
557.467	49366.97
557.667	49397.69
557.866	49360.83
558.065	49330.11
558.265	48953.28
558.464	48394.18
558.663	49162.17
558.863	48451.53
559.062	49555.38
559.261	48580.55
559.461	49383.35
559.66	48498.63
559.859	48674.76
560.058	48527.3
560.258	48568.26
560.457	48250.83
560.656	48834.5
560.855	47949.77
561.054	48220.11
561.253	47949.77
561.453	47902.67
561.652	48148.43
561.851	48613.32
562.05	47589.33
562.249	47394.78
562.448	48506.82
562.647	47656.92
562.846	47830.99
563.045	47523.8
563.244	47474.65
563.443	47939.54
563.642	46905.31
563.841	47544.28
564.04	47048.67
564.239	47331.29
564.438	47192.03
564.637	47149.02
564.836	47087.58
565.035	46698.47
565.234	46745.57
565.432	46510.05
565.631	46487.53
565.83	46868.45
566.029	46370.79
566.228	46397.41
566.427	46196.71
566.625	46217.19
566.824	45586.42
567.023	46356.46
567.222	45651.95
567.42	45737.97
567.619	45791.22
567.818	45656.05
568.016	45219.83
568.215	45596.66
568.414	44929.02
568.612	45201.4
568.811	44537.86
569.01	45455.35
569.208	44492.8
569.407	44967.93
569.605	44632.07
569.804	44963.84
570.002	44451.84
570.201	44607.49
570.4	44011.53
570.598	44042.25
570.797	43667.47
570.995	44095.5
571.193	43493.39
571.392	44009.48
571.59	43558.93
571.789	43882.51
571.987	43859.98
572.186	43165.72
572.384	42944.54
572.582	42997.79
572.781	43071.51
572.979	42616.86
573.177	42657.82
573.376	42870.81
573.574	42412.07
573.772	42909.72
573.971	42541.09
574.169	41904.17
574.367	42274.85
574.565	42526.75
574.763	41824.3
574.962	41840.68
575.16	41719.85
575.358	41820.2
575.556	41308.21
575.754	41736.24
575.952	41379.89
576.151	41914.41
576.349	40900.67
576.547	40984.63
576.745	41263.16
576.943	41633.84
577.141	40904.76
577.339	40626.24
577.537	40347.71
577.735	40773.69
577.933	40511.55
578.131	40644.67
578.329	39907.4
578.527	40038.47
578.725	40429.63
578.923	40372.29
579.121	39714.89
579.319	39874.63
579.516	40140.87
579.714	39632.97
579.912	39258.2
580.11	39278.68
580.308	39497.81
580.506	39563.34
580.704	38840.41
580.901	39207
581.099	39286.87
581.297	38860.89
581.495	38652
581.692	39225.43
581.89	38699.1
582.088	38834.27
582.285	38488.16
582.483	38869.08
582.681	38510.69
582.878	38475.87
583.076	38156.39
583.274	38291.55
583.471	37623.92
583.669	37404.78
583.866	37652.59
584.064	37939.3
584.262	37650.54
584.459	37726.31
584.657	37021.81
584.854	37199.99
585.052	36868.22
585.249	36970.61
585.447	36980.85
585.644	36397.18
585.841	36647.04
586.039	37111.92
586.236	36466.81
586.434	36522.11
586.631	36362.37
586.828	35936.39
587.026	36401.28
587.223	36262.02
587.42	36008.07
587.618	36096.13
587.815	35872.9
588.012	35684.49
588.21	35516.56
588.407	35768.46
588.604	35598.48
588.801	35471.5
588.999	35250.32
589.196	35059.86
589.393	35440.78
589.59	34896.02
589.787	34885.78
589.984	34824.34
590.182	34195.62
590.379	34556.06
590.576	34302.11
590.773	34474.14
590.97	34066.59
591.167	33994.92
591.364	33616.04
591.561	34318.49
591.758	33851.56
591.955	34140.32
592.152	33568.94
592.349	33861.8
592.546	33665.19
592.743	33597.61
592.94	32833.72
593.137	33286.32
593.334	33476.78
593.531	32772.28
593.727	32706.74
593.924	33034.42
594.121	32710.84
594.318	33153.2
594.515	32460.99
594.712	33040.56
594.908	32653.5
595.105	32719.03
595.302	32489.66
595.499	32499.9
595.696	32022.72
595.892	32065.73
596.089	31836.36
596.286	31992
596.482	31623.37
596.679	31604.94
596.876	31758.53
597.072	31631.56
597.269	32018.63
597.466	30972.11
597.662	31094.99
597.859	31299.79
598.055	31477.96
598.252	31080.66
598.448	30857.43
598.645	30626.01
598.841	30617.82
599.038	31011.03
599.234	30505.18
599.431	30345.44
599.627	30128.35
599.824	30339.29
600.02	30048.48
600.217	29993.19
600.413	29747.43
600.609	30181.6
600.806	29735.14
601.002	29632.74
601.198	29382.89
601.395	29319.4
601.591	29260.01
601.787	29384.94
601.984	29348.07
602.18	29653.22
602.376	28924.15
602.572	28973.3
602.769	29141.23
602.965	28782.84
603.161	28764.4
603.357	28672.25
603.553	28793.08
603.75	28647.67
603.946	27986.18
604.142	28694.77
604.338	28190.97
604.534	28080.38
604.73	27877.63
604.926	28150.01
605.122	28010.75
605.318	27656.45
605.514	27572.49
605.71	27834.63
605.906	27515.14
606.102	27611.4
606.298	27511.05
606.494	27271.43
606.69	27445.51
606.886	27253
607.082	27109.65
607.278	27326.73
607.474	26642.71
607.67	26908.94
607.866	27013.39
608.062	27107.6
608.257	26802.45
608.453	26781.97
608.649	26843.41
608.845	26525.97
609.041	26548.5
609.236	26761.49
609.432	26347.8
609.628	26427.67
609.824	26261.79
610.019	26403.1
610.215	26358.04
610.411	26394.9
610.606	25721.12
610.802	26243.35
610.998	25999.65
611.193	26202.39
611.389	25954.59
611.584	25844
611.78	25698.59
611.976	26087.71
612.171	25835.81
612.367	25383.21
612.562	25592.1
612.758	25147.69
612.953	25016.62
613.149	25602.34
613.344	24924.46
613.539	25260.33
613.735	25454.89
613.93	25397.54
614.126	25106.73
614.321	25289
614.517	25010.48
614.712	25106.73
614.907	25002.29
615.103	25065.77
615.298	24901.93
615.493	24940.85
615.688	24752.43
615.884	24877.36
616.079	24467.77
616.274	24795.44
616.47	24647.99
616.665	24324.41
616.86	24410.42
617.055	24332.6
617.25	24463.67
617.445	24541.49
617.641	23943.49
617.836	24359.22
618.031	23945.53
618.226	24248.63
618.421	23941.44
618.616	24084.8
618.811	23580.99
619.006	23937.34
619.201	23302.47
619.396	23449.92
619.591	23036.24
619.786	23404.87
619.981	23105.87
620.176	23134.54
620.371	22692.18
620.566	22995.28
620.761	22954.32
620.956	23173.45
621.151	22708.56
621.346	22571.35
621.541	22452.56
621.735	22612.31
621.93	22196.57
622.125	22341.97
622.32	21971.29
622.515	22178.14
622.709	21692.77
622.904	22219.1
623.099	21627.23
623.294	21459.3
623.488	21424.48
623.683	21698.91
623.878	20679.02
624.072	21225.83
624.267	20801.9
624.462	20941.16
624.656	20441.46
624.851	20754.8
625.046	20646.26
625.24	20447.6
625.435	20212.09
625.629	20451.7
625.824	20273.53
626.018	19997.05
626.213	19612.03
626.407	19868.03
626.602	19444.1
626.796	19845.5
626.991	19571.07
627.185	19526.02
627.38	19247.49
627.574	19014.02
627.768	18991.5
627.963	18850.19
628.157	18561.42
628.352	18760.08
628.546	18459.03
628.74	18749.84
628.935	18342.29
629.129	18397.59
629.323	18289.04
629.517	17992.09
629.712	18123.16
629.906	17852.83
630.1	17672.6
630.294	17623.45
630.489	17263.01
630.683	17770.91
630.877	17447.33
631.071	17439.14
631.265	17654.17
631.459	17166.76
631.653	16830.89
631.848	17181.09
632.042	16757.16
632.236	16925.1
632.43	16755.12
632.624	16732.59
632.818	16513.45
633.012	16449.97
633.206	16308.66
633.4	16587.18
633.594	16183.73
633.788	16329.14
633.982	16269.75
634.176	16028.09
634.369	16091.57
634.563	16114.1
634.757	15706.55
634.951	15780.28
635.145	15569.34
635.339	15530.43
635.533	15151.56
635.726	15346.11
635.92	15260.1
636.114	15223.23
636.308	15149.51
636.501	15086.02
636.695	14885.32
636.889	14916.04
637.083	14653.9
637.276	14834.12
637.47	14678.47
637.664	14635.47
637.857	14338.51
638.051	14481.87
638.244	14281.17
638.438	14350.8
638.632	14109.14
638.825	14117.33
639.019	13973.97
639.212	13867.48
639.406	13775.32
639.599	13879.77
639.793	13734.36
639.986	13529.56
640.18	13390.3
640.373	13439.45
640.567	13210.08
640.76	13359.58
640.954	13072.87
641.147	13201.89
641.34	13089.25
641.534	13033.96
641.727	12921.32
641.92	13058.53
642.114	12886.5
642.307	12863.97
642.5	12554.73
642.694	12460.52
642.887	12362.22
643.08	12798.44
643.273	12530.16
643.467	12259.82
643.66	12272.11
643.853	12128.75
644.046	11991.54
644.239	12106.23
644.432	11893.24
644.626	11842.04
644.819	12024.31
645.012	11936.24
645.205	11659.77
645.398	11583.99
645.591	11414.01
645.784	11612.67
645.977	11416.06
646.17	11328
646.363	11225.6
646.556	11123.2
646.749	11256.32
646.942	11121.15
647.135	10996.23
647.328	11151.87
647.521	10869.25
647.714	10879.49
647.907	10748.42
648.099	10889.73
648.292	10428.94
648.485	10596.87
648.678	10590.73
648.871	10680.84
649.064	10443.28
649.256	10627.59
649.449	10420.75
649.642	10506.76
649.835	10199.57
650.027	10093.07
650.22	10365.45
650.413	10152.46
650.605	10025.49
650.798	10021.39
650.991	9955.86
651.183	10011.15
651.376	9615.9
651.568	9681.43
651.761	9855.51
651.954	9652.76
652.146	9605.66
652.339	9562.65
652.531	9529.88
652.724	9386.52
652.916	9239.07
653.109	9314.84
653.301	9257.5
653.494	9331.23
653.686	9005.6
653.879	9382.43
654.071	9112.1
654.263	9087.52
654.456	9013.79
654.648	9085.47
654.84	8868.39
655.033	9013.79
655.225	9032.22
655.417	8700.45
655.61	8919.59
655.802	8774.18
655.994	8655.4
656.186	8553
656.379	8675.88
656.571	8694.31
656.763	8370.73
656.955	8368.68
657.148	8417.83
657.34	8421.93
657.532	8221.23
657.724	8323.63
657.916	8239.66
658.108	8247.85
658.3	8057.39
658.492	8061.49
658.684	7995.95
658.876	8000.05
659.068	8084.02
659.26	7830.07
659.452	7848.5
659.644	7885.36
659.836	7684.66
660.028	7944.75
660.22	7541.3
660.412	7744.05
660.604	7639.61
660.796	7516.73
660.988	7594.55
661.18	7373.37
661.372	7381.56
661.563	7430.71
661.755	7316.03
661.947	7238.2
662.139	7162.43
662.331	7195.2
662.522	6996.54
662.714	7131.71
662.906	6971.97
663.097	7086.65
663.289	7047.74
663.481	6939.2
663.673	6828.61
663.864	6955.58
664.056	6865.47
664.247	6922.82
664.439	6656.58
664.631	6924.86
664.822	6728.26
665.014	6703.68
665.205	6576.71
665.397	6603.33
665.588	6433.35
665.78	6660.68
665.971	6570.57
666.163	6589
666.354	6427.21
666.546	6550.09
666.737	6267.47
666.929	6435.4
667.12	6480.46
667.311	6267.47
667.503	6283.85
667.694	6435.4
667.885	6251.08
668.077	6400.58
668.268	6152.78
668.459	6281.8
668.651	6189.64
668.842	6244.94
669.033	6185.55
669.224	5976.66
669.416	6085.2
669.607	6031.95
669.798	5855.83
669.989	5970.51
670.18	5904.98
670.371	5988.94
670.563	5947.98
670.754	6031.95
670.945	5849.68
671.136	5974.61
671.327	5732.95
671.518	5757.52
671.709	5691.99
671.9	5919.31
672.091	5798.48
672.282	5544.53
672.473	5706.32
672.664	5724.76
672.855	5644.88
673.046	5681.75
673.237	5673.56
673.428	5608.02
673.619	5413.46
673.809	5464.66
674	5483.09
674.191	5472.86
674.382	5374.55
674.573	5349.98
674.764	5370.46
674.954	5476.95
675.145	5435.99
675.336	5354.07
675.527	5370.46
675.717	5173.85
675.908	5190.24
676.099	5268.06
676.289	5288.54
676.48	5358.17
676.671	5091.93
676.861	5290.59
677.052	5165.66
677.243	5046.88
677.433	5210.72
677.624	5263.96
677.814	5190.24
678.005	5042.78
678.195	5134.94
678.386	5061.21
678.576	5065.31
678.767	4983.39
678.957	5091.93
679.148	5069.41
679.338	5014.11
679.529	4944.48
679.719	4837.98
679.909	5073.5
680.1	4883.04
680.29	5102.17
680.481	4934.24
680.671	4833.89
680.861	4915.81
681.052	5077.6
681.242	4977.25
681.432	4928.1
681.622	4831.84
681.813	4774.5
682.003	4852.32
682.193	4737.63
682.383	4919.9
682.573	4770.4
682.764	4958.81
682.954	4719.2
683.144	4657.76
683.334	4651.62
683.524	4807.27
683.714	4840.03
683.904	4743.78
684.094	4661.86
684.284	4625
684.474	4762.21
684.664	4696.67
684.854	4711.01
685.044	4692.58
685.234	4665.96
685.424	4678.24
685.614	4618.85
685.804	4563.56
685.994	4504.17
686.184	4612.71
686.374	4555.37
686.564	4459.11
686.753	4584.04
686.943	4436.58
687.133	4491.88
687.323	4586.08
687.513	4473.45
687.702	4366.95
687.892	4201.07
688.082	4375.14
688.272	4364.9
688.461	4373.1
688.651	4307.56
688.841	4264.55
689.03	4366.95
689.22	4178.54
689.41	4162.16
689.599	4119.15
689.789	4229.74
689.979	4233.83
690.168	4244.07
690.358	4065.9
690.547	4121.2
690.737	4031.09
690.926	4162.16
691.116	3928.69
691.305	3965.55
691.495	3998.32
691.684	3889.78
691.874	4072.04
692.063	3990.13
692.252	4029.04
692.442	3840.62
692.631	3932.78
692.82	3867.25
693.01	3961.45
693.199	3842.67
693.388	3904.11
693.578	3918.45
693.767	3834.48
693.956	3674.74
694.146	3777.14
694.335	3828.34
694.524	3867.25
694.713	3830.38
694.902	3787.38
695.092	3750.51
695.281	3652.21
695.47	3715.7
695.659	3760.75
695.848	3736.18
696.037	3572.34
696.226	3672.69
696.415	3703.41
696.604	3721.84
696.793	3590.77
696.982	3627.64
697.171	3701.36
697.36	3670.64
697.549	3684.98
697.738	3660.4
697.927	3506.81
698.116	3611.25
698.305	3512.95
698.494	3519.09
698.683	3494.52
698.872	3691.12
699.061	3500.66
699.25	3508.85
699.438	3676.79
699.627	3613.3
699.816	3568.24
700.005	3666.55
700.193	3426.93
700.382	3691.12
700.571	3584.63
700.76	3486.33
700.948	3525.24
701.137	3535.48
701.326	3506.81
701.514	3521.14
701.703	3576.44
701.892	3523.19
702.08	3551.86
702.269	3562.1
702.457	3564.15
702.646	3531.38
702.834	3445.37
703.023	3416.69
703.212	3457.65
703.4	3603.06
703.589	3322.49
703.777	3496.57
703.965	3375.74
704.154	3609.2
704.342	3359.35
704.531	3469.94
704.719	3449.46
704.907	3508.85
705.096	3388.02
705.284	3431.03
705.472	3451.51
705.661	3611.25
705.849	3510.9
706.037	3490.42
706.226	3455.61
706.414	3541.62
706.602	3400.31
706.79	3523.19
706.979	3375.74
707.167	3433.08
707.355	3324.54
707.543	3439.22
707.731	3523.19
707.919	3306.1
708.107	3371.64
708.296	3371.64
708.484	3347.06
708.672	3361.4
708.86	3453.56
709.048	3400.31
709.236	3365.5
709.424	3371.64
709.612	3392.12
709.8	3340.92
709.988	3240.57
710.176	3478.13
710.364	3471.99
710.551	3392.12
710.739	3447.41
710.927	3441.27
711.115	3441.27
711.303	3451.51
711.491	3383.93
711.679	3422.84
711.866	3449.46
712.054	3332.73
712.242	3256.95
712.43	3410.55
712.617	3250.81
712.805	3332.73
712.993	3383.93
713.181	3322.49
713.368	3363.45
713.556	3289.72
713.744	3377.78
713.931	3451.51
714.119	3302.01
714.306	3314.3
714.494	3345.02
714.682	3414.65
714.869	3297.91
715.057	3433.08
715.244	3324.54
715.432	3377.78
715.619	3371.64
715.807	3308.15
715.994	3326.58
716.182	3256.95
716.369	3426.93
716.556	3471.99
716.744	3328.63
716.931	3428.98
717.119	3394.17
717.306	3306.1
717.493	3312.25
717.681	3293.82
717.868	3390.07
718.055	3424.89
718.242	3355.26
718.43	3431.03
718.617	3392.12
718.804	3437.17
718.991	3338.87
719.179	3422.84
719.366	3369.59
719.553	3408.5
719.74	3404.41
719.927	3445.37
720.114	3367.54
720.301	3353.21
720.488	3312.25
720.676	3310.2
720.863	3469.94
721.05	3271.29
721.237	3295.86
721.424	3347.06
721.611	3365.5
721.798	3302.01
721.985	3349.11
722.172	3314.3
722.358	3330.68
722.545	3224.19
722.732	3342.97
722.919	3363.45
723.106	3170.94
723.293	3349.11
723.48	3246.71
723.667	3220.09
723.853	3316.34
724.04	3357.3
724.227	3293.82
724.414	3166.84
724.6	3168.89
724.787	3220.09
724.974	3312.25
725.161	3281.53
725.347	3246.71
725.534	3299.96
725.72	3211.9
725.907	3201.66
726.094	3248.76
726.28	3279.48
726.467	3228.28
726.653	3256.95
726.84	3224.19
727.027	3236.47
727.213	3172.99
727.4	3240.57
727.586	3172.99
727.773	3193.47
727.959	3250.81
728.145	3228.28
728.332	3089.02
728.518	3146.36
728.705	3211.9
728.891	3197.56
729.077	3310.2
729.264	3293.82
729.45	3105.4
729.636	3287.67
729.823	3246.71
730.009	3129.98
730.195	3418.74
730.382	3244.67
730.568	3142.27
730.754	3177.08
730.94	3150.46
731.126	3349.11
731.313	3240.57
731.499	3306.1
731.685	3234.43
731.871	3189.37
732.057	3142.27
732.243	3142.27
732.429	3162.75
732.615	3222.14
732.801	3236.47
732.987	3220.09
733.173	3046.01
733.359	3148.41
733.545	3043.96
733.731	3129.98
733.917	3162.75
734.103	3076.73
734.289	3187.32
734.475	2998.91
734.661	3213.95
734.847	3089.02
735.033	3123.83
735.219	3123.83
735.404	3113.6
735.59	3013.24
735.776	2953.85
735.962	3111.55
736.148	3013.24
736.333	3082.88
736.519	3025.53
736.705	3058.3
736.89	3095.16
737.076	3046.01
737.262	2957.95
737.447	3021.44
737.633	3011.2
737.819	2980.48
738.004	3039.87
738.19	2826.88
738.375	2873.98
738.561	3015.29
738.747	2947.71
738.932	2898.56
739.118	2828.93
739.303	2849.41
739.489	2988.67
739.674	2841.22
739.859	2982.53
740.045	2929.28
740.23	2919.04
740.416	2845.31
740.601	2955.9
740.786	2830.98
740.972	2837.12
741.157	2794.11
741.342	2820.74
741.528	2724.48
741.713	2790.02
741.898	2697.86
742.084	2701.95
742.269	2687.62
742.454	2919.04
742.639	2720.39
742.824	2810.5
743.01	2818.69
743.195	2706.05
743.38	2796.16
743.565	2675.33
743.75	2671.23
743.935	2695.81
744.12	2820.74
744.305	2636.42
744.49	2570.88
744.675	2685.57
744.86	2644.61
745.045	2517.64
745.23	2558.6
745.415	2597.51
745.6	2613.89
745.785	2509.44
745.97	2519.68
746.155	2480.77
746.34	2476.68
746.525	2355.85
746.71	2550.4
746.895	2441.86
747.079	2497.16
747.264	2417.29
747.449	2392.71
747.634	2462.34
747.819	2488.96
748.003	2327.18
748.188	2329.22
748.373	2339.46
748.557	2464.39
748.742	2355.85
748.927	2409.09
749.111	2396.81
749.296	2308.74
749.481	2366.09
749.665	2374.28
749.85	2153.1
750.034	2226.82
750.219	2212.49
750.404	2194.06
750.588	2206.34
750.773	2278.02
750.957	2284.17
751.141	2202.25
751.326	2120.33
751.51	2060.94
751.695	2122.38
751.879	2075.27
752.064	2099.85
752.248	2183.82
752.432	2161.29
752.617	1983.12
752.801	2007.69
752.985	1985.16
753.17	2005.64
753.354	1983.12
753.538	1981.07
753.722	1946.25
753.907	1938.06
754.091	1952.4
754.275	1868.43
754.459	1815.18
754.643	1944.2
754.828	1956.49
755.012	1841.81
755.196	1788.56
755.38	1864.33
755.564	1825.42
755.748	1823.37
755.932	1737.36
756.116	1804.94
756.3	1774.22
756.484	1729.17
756.668	1675.92
756.852	1690.26
757.036	1718.93
757.22	1649.3
757.404	1753.74
757.588	1645.2
757.772	1598.1
757.956	1718.93
758.14	1720.98
758.323	1553.04
758.507	1614.48
758.691	1550.99
758.875	1546.9
759.059	1591.95
759.242	1606.29
759.426	1530.52
759.61	1587.86
759.794	1524.37
759.977	1577.62
760.161	1579.67
760.345	1604.24
760.528	1460.88
760.712	1495.7
760.895	1532.56
761.079	1520.28
761.263	1417.88
761.446	1327.77
761.63	1393.3
761.813	1383.06
761.997	1342.1
762.18	1471.12
762.364	1352.34
762.547	1348.25
762.731	1319.57
762.914	1397.4
763.098	1374.87
763.281	1340.05
763.464	1368.73
763.648	1358.49
763.831	1317.53
764.015	1401.49
764.198	1352.34
764.381	1278.62
764.564	1397.4
764.748	1307.29
764.931	1368.73
765.114	1415.83
765.297	1383.06
765.481	1301.14
765.664	1378.97
765.847	1401.49
766.03	1229.46
766.213	1319.57
766.397	1417.88
766.58	1270.42
766.763	1270.42
766.946	1344.15
767.129	1184.41
767.312	1194.65
767.495	1237.66
767.678	1245.85
767.861	1229.46
768.044	1208.98
768.227	1290.9
768.41	1131.16
768.593	1243.8
768.776	1251.99
768.959	1188.5
769.142	1188.5
769.324	1155.74
769.507	1188.5
769.69	1118.87
769.873	1219.22
770.056	1192.6
770.239	1120.92
770.421	1190.55
770.604	1182.36
770.787	1168.02
770.97	1168.02
771.152	1047.19
771.335	1235.61
771.518	1006.24
771.7	1073.82
771.883	1118.87
772.066	1079.96
772.248	1016.48
772.431	1082.01
772.613	1071.77
772.796	1063.58
772.978	1010.33
773.161	1086.11
773.343	1125.02
773.526	1041.05
773.708	1045.15
773.891	1032.86
774.073	971.42
774.256	1014.43
774.438	1012.38
774.621	862.88
774.803	1022.62
774.985	957.08
775.168	987.8
775.35	983.71
775.532	989.85
775.715	1075.87
775.897	950.94
776.079	957.08
776.261	928.41
776.444	957.08
776.626	897.69
776.808	942.75
776.99	850.59
777.173	905.88
777.355	985.76
777.537	840.35
777.719	797.34
777.901	918.17
778.083	805.53
778.265	844.45
778.447	952.99
778.629	944.8
778.811	846.49
778.993	778.91
779.175	914.08
779.357	905.88
779.539	873.12
779.721	744.1
779.903	754.34
780.085	723.62
780.267	895.64
780.449	819.87
780.631	811.68
780.812	826.01
780.994	830.11
781.176	662.18
781.358	723.62
781.54	748.19
781.721	717.47
781.903	674.46
782.085	684.7
782.267	701.09
782.448	797.34
782.63	664.22
782.812	684.7
782.993	789.15
783.175	674.46
783.357	666.27
783.538	670.37
783.72	664.22
783.901	660.13
784.083	645.79
784.264	621.22
784.446	598.69
784.627	598.69
784.809	643.74
784.99	574.11
785.172	705.18
785.353	649.89
785.535	619.17
785.716	682.66
785.897	592.55
786.079	598.69
786.26	584.35
786.441	518.82
786.623	574.11
786.804	588.45
786.985	582.31
787.167	557.73
787.348	670.37
787.529	486.05
787.71	680.61
787.891	541.35
788.073	574.11
788.254	625.31
788.435	567.97
788.616	516.77
788.797	531.11
788.978	488.1
789.159	426.66
789.34	596.64
789.522	537.25
789.703	533.15
789.884	535.2
790.065	473.76
790.246	467.62
790.427	518.82
790.607	600.74
790.788	567.97
790.969	496.29
791.15	477.86
791.331	545.44
791.512	492.2
791.693	553.63
791.874	451.24
792.054	586.4
792.235	506.53
792.416	506.53
792.597	459.43
792.778	516.77
792.958	477.86
793.139	393.89
793.32	467.62
793.5	393.89
793.681	432.8
793.862	402.08
794.042	479.91
794.223	412.32
794.404	342.69
794.584	311.97
794.765	369.32
794.945	397.99
795.126	365.22
795.306	453.28
795.487	377.51
795.667	414.37
795.848	412.32
796.028	473.76
796.209	406.18
796.389	406.18
796.57	373.41
796.75	379.56
796.93	467.62
797.111	365.22
797.291	369.32
797.471	445.09
797.652	375.46
797.832	367.27
798.012	451.24
798.192	354.98
798.373	385.7
798.553	320.17
798.733	336.55
798.913	389.8
799.093	377.51
799.274	301.73
799.454	395.94
799.634	299.69
799.814	432.8
799.994	344.74
800.174	422.56
800.354	357.03
800.534	348.84
800.714	348.84
800.894	326.31
801.074	287.4
801.254	369.32
801.434	275.11
801.614	303.78
801.794	287.4
801.974	930.46
802.154	371.36
802.334	336.55
802.514	287.4
802.693	342.69
802.873	238.25
803.053	389.8
803.233	361.13
803.413	334.5
803.592	320.17
803.772	271.01
803.952	330.41
804.131	352.93
804.311	277.16
804.491	264.87
804.67	299.69
804.85	250.53
805.03	344.74
805.209	279.21
805.389	178.86
805.568	316.07
805.748	314.02
805.928	275.11
806.107	256.68
806.287	324.26
806.466	357.03
806.646	275.11
806.825	254.63
807.004	262.82
807.184	252.58
807.363	326.31
807.543	182.95
807.722	242.34
807.901	330.41
808.081	410.28
808.26	207.53
808.439	209.58
808.619	189.1
808.798	246.44
808.977	285.35
809.156	209.58
809.336	230.06
809.515	273.06
809.694	283.3
809.873	236.2
810.052	262.82
810.231	336.55
810.411	271.01
810.59	240.29
810.769	172.71
810.948	271.01
811.127	250.53
811.306	256.68
811.485	176.81
811.664	357.03
811.843	240.29
812.022	228.01
812.201	250.53
812.38	223.91
812.559	176.81
812.737	213.67
812.916	252.58
813.095	209.58
813.274	252.58
813.453	170.66
813.632	174.76
813.811	187.05
813.989	230.06
814.168	260.77
814.347	211.62
814.526	144.04
814.704	260.77
814.883	217.77
815.062	242.34
815.24	185
815.419	193.19
815.598	248.49
815.776	187.05
815.955	197.29
816.133	174.76
816.312	256.68
816.49	236.2
816.669	189.1
816.847	281.25
817.026	193.19
817.204	113.32
817.383	217.77
817.561	211.62
817.74	170.66
817.918	201.38
818.097	205.48
818.275	180.9
818.453	158.38
818.632	277.16
818.81	256.68
818.988	205.48
819.167	234.15
819.345	223.91
819.523	176.81
819.701	164.52
819.879	246.44
820.058	242.34
820.236	207.53
820.414	180.9
820.592	205.48
820.77	166.57
820.948	182.95
821.127	146.09
821.305	158.38
821.483	154.28
821.661	281.25
821.839	178.86
822.017	150.18
822.195	187.05
822.373	180.9
822.551	232.1
822.729	230.06
822.907	121.51
823.085	219.82
823.262	170.66
823.44	164.52
823.618	148.14
823.796	166.57
823.974	139.94
824.152	172.71
824.329	127.66
824.507	178.86
824.685	107.18
824.863	238.25
825.04	144.04
825.218	98.99
825.396	176.81
825.574	150.18
825.751	144.04
825.929	191.14
826.107	90.79
826.284	131.75
826.462	211.62
826.639	121.51
826.817	137.9
826.994	170.66
827.172	152.23
827.349	193.19
827.527	207.53
827.704	109.22
827.882	150.18
828.059	111.27
828.237	107.18
828.414	123.56
828.591	158.38
828.769	166.57
828.946	141.99
829.124	141.99
829.301	154.28
829.478	98.99
829.655	103.08
829.833	225.96
830.01	117.42
830.187	133.8
830.364	139.94
830.542	82.6
830.719	84.65
830.896	154.28
831.073	109.22
831.25	199.34
831.427	105.13
831.604	127.66
831.782	148.14
831.959	176.81
832.136	156.33
832.313	105.13
832.49	115.37
832.667	90.79
832.844	162.47
833.021	168.62
833.198	139.94
833.374	193.19
833.551	156.33
833.728	137.9
833.905	176.81
834.082	74.41
834.259	94.89
834.436	64.17
834.612	55.98
834.789	105.13
834.966	94.89
835.143	121.51
835.319	119.46
835.496	121.51
835.673	113.32
835.85	74.41
836.026	156.33
836.203	174.76
836.38	96.94
836.556	101.03
836.733	144.04
836.909	127.66
837.086	39.59
837.262	64.17
837.439	162.47
837.616	127.66
837.792	88.75
837.968	119.46
838.145	86.7
838.321	144.04
838.498	17.07
838.674	111.27
838.851	45.74
839.027	111.27
839.203	115.37
839.38	103.08
839.556	70.31
839.732	154.28
839.909	88.75
840.085	158.38
840.261	35.5
840.437	82.6
840.614	139.94
840.79	92.84
840.966	111.27
841.142	105.13
841.318	131.75
841.494	37.55
841.671	123.56
841.847	146.09
842.023	70.31
842.199	125.61
842.375	168.62
842.551	66.22
842.727	66.22
842.903	187.05
843.079	78.51
843.255	158.38
843.431	98.99
843.607	101.03
843.783	103.08
843.959	62.12
844.134	51.88
844.31	80.55
844.486	101.03
844.662	113.32
844.838	41.64
845.013	45.74
845.189	62.12
845.365	43.69
845.541	66.22
845.716	58.03
845.892	64.17
846.068	66.22
846.244	17.07
846.419	39.59
846.595	76.46
846.77	72.36
846.946	103.08
847.122	141.99
847.297	39.59
847.473	146.09
847.648	31.4
847.824	166.57
847.999	72.36
848.175	92.84
848.35	94.89
848.526	115.37
848.701	103.08
848.876	92.84
849.052	137.9
849.227	88.75
849.403	49.83
849.578	41.64
849.753	103.08
849.929	68.27
850.104	53.93
850.279	86.7
850.454	78.51
850.63	55.98
850.805	109.22
850.98	45.74
851.155	133.8
851.33	41.64
851.505	31.4
851.681	103.08
851.856	-15.7
852.031	119.46
852.206	53.93
852.381	-25.94
852.556	74.41
852.731	47.79
852.906	113.32
853.081	78.51
853.256	33.45
853.431	98.99
853.606	6.83
853.781	6.83
853.956	17.07
854.131	31.4
854.305	47.79
854.48	55.98
854.655	29.35
854.83	33.45
855.005	27.31
855.18	72.36
855.354	103.08
855.529	47.79
855.704	4.78
855.879	101.03
856.053	45.74
856.228	94.89
856.403	-52.56
856.577	70.31
856.752	-46.42
856.926	23.21
857.101	-23.89
857.276	66.22
857.45	25.26
857.625	35.5
857.799	49.83
857.974	41.64
858.148	10.92
858.323	19.11
858.497	-11.61
858.672	21.16
858.846	53.93
859.02	62.12
859.195	47.79
859.369	45.74
859.543	55.98
859.718	51.88
859.892	107.18
860.066	62.12
860.241	68.27
860.415	35.5
860.589	-3.41
860.763	62.12
860.938	25.26
861.112	115.37
861.286	64.17
861.46	135.85
861.634	-25.94
861.808	62.12
861.982	41.64
862.157	17.07
862.331	70.31
862.505	72.36
862.679	-17.75
862.853	10.92
863.027	154.28
863.201	121.51
863.375	-3.41
863.549	117.42
863.722	27.31
863.896	109.22
864.07	-15.7
864.244	78.51
864.418	144.04
864.592	43.69
864.766	8.87
864.939	4.78
865.113	4.78
865.287	86.7
865.461	88.75
865.634	41.64
865.808	37.55
865.982	15.02
866.156	15.02
866.329	-36.18
866.503	82.6
866.676	70.31
866.85	74.41
867.024	49.83
867.197	76.46
867.371	80.55
867.544	45.74
867.718	39.59
867.891	62.12
868.065	35.5
868.238	-34.13
868.412	74.41
868.585	101.03
868.759	86.7
868.932	33.45
869.105	17.07
869.279	60.07
869.452	53.93
869.625	74.41
869.799	90.79
869.972	29.35
870.145	10.92
870.319	45.74
870.492	-9.56
870.665	82.6
870.838	29.35
871.011	43.69
871.185	29.35
871.358	19.11
871.531	-27.99
871.704	-17.75
871.877	23.21
872.05	21.16
872.223	53.93
872.396	58.03
872.569	66.22
872.742	21.16
872.915	23.21
873.088	4.78
873.261	21.16
873.434	154.28
873.607	31.4
873.78	47.79
873.953	43.69
874.126	-3.41
874.299	29.35
874.471	51.88
874.644	12.97
874.817	4.78
874.99	105.13
875.163	80.55
875.335	31.4
875.508	101.03
875.681	125.61
875.853	21.16
876.026	41.64
876.199	15.02
876.371	72.36
876.544	51.88
876.717	62.12
876.889	82.6
877.062	49.83
877.234	31.4
877.407	2.73
877.579	66.22
877.752	62.12
877.924	45.74
878.097	55.98
878.269	70.31
878.442	41.64
878.614	76.46
878.786	101.03
878.959	78.51
879.131	101.03
879.303	8.87
879.476	31.4
879.648	117.42
879.82	53.93
879.993	60.07
880.165	113.32
880.337	-7.51
880.509	41.64
880.681	-7.51
880.854	55.98
881.026	64.17
881.198	148.14
881.37	35.5
881.542	70.31
881.714	-15.7
881.886	55.98
882.058	60.07
882.23	39.59
882.402	60.07
882.574	101.03
882.746	49.83
882.918	82.6
883.09	37.55
883.262	23.21
883.434	23.21
883.606	35.5
883.778	33.45
883.95	90.79
884.122	6.83
884.293	90.79
884.465	-19.8
884.637	-34.13
884.809	37.55
884.98	58.03
885.152	33.45
885.324	43.69
885.496	-7.51
885.667	19.11
885.839	-7.51
886.011	45.74
886.182	33.45
886.354	-7.51
886.525	15.02
886.697	101.03
886.869	-15.7
887.04	0.68
887.212	70.31
887.383	12.97
887.555	10.92
887.726	66.22
887.897	49.83
888.069	33.45
888.24	78.51
888.412	6.83
888.583	115.37
888.754	84.65
888.926	4.78
889.097	72.36
889.268	-58.71
889.44	51.88
889.611	39.59
889.782	72.36
889.953	80.55
890.125	49.83
890.296	-13.65
890.467	27.31
890.638	39.59
890.809	8.87
890.98	17.07
891.151	19.11
891.323	101.03
891.494	31.4
891.665	41.64
891.836	78.51
892.007	53.93
892.178	55.98
892.349	21.16
892.52	49.83
892.691	37.55
892.862	33.45
893.032	10.92
893.203	74.41
893.374	41.64
893.545	74.41
893.716	-23.89
893.887	35.5
894.057	62.12
894.228	4.78
894.399	29.35
894.57	-9.56
894.74	37.55
894.911	21.16
895.082	10.92
895.253	-73.04
895.423	84.65
895.594	12.97
895.764	8.87
895.935	-9.56
896.106	113.32
896.276	25.26
896.447	-89.43
896.617	45.74
896.788	-21.85
896.958	17.07
897.129	12.97
897.299	-30.04
897.47	49.83
897.64	4.78
897.81	-5.46
897.981	25.26
898.151	47.79
898.322	4.78
898.492	33.45
898.662	-44.37
898.832	60.07
899.003	90.79
899.173	43.69
899.343	58.03
899.513	76.46
