Data from USB4F104151__62__10-23-58-183.txt Node

Date: Wed Mar 12 10:23:58 EDT 2025
User: louis
Spectrometer: USB4F10415
Trigger mode: 4
Integration Time (sec): 3.000000E-2
Scans to average: 1
Electric dark correction enabled: true
Nonlinearity correction enabled: false
Boxcar width: 0
XAxis mode: Wavelengths
Number of Pixels in Spectrum: 3648
>>>>>Begin Spectral Data<<<<<
178.204	-107.86
178.424	-107.86
178.644	-107.86
178.864	-93.52
179.084	-212.31
179.304	-1.37
179.524	19.11
179.744	-46.42
179.964	35.5
180.184	-19.8
180.404	10.92
180.624	25.26
180.844	-34.13
181.064	-27.99
181.283	33.45
181.503	-23.89
181.723	29.35
181.943	-19.8
182.163	43.69
182.383	17.07
182.602	43.69
182.822	31.4
183.042	78.51
183.262	58.03
183.482	27.31
183.701	45.74
183.921	41.64
184.141	-36.18
184.361	21.16
184.58	0.68
184.8	88.75
185.02	-56.66
185.239	70.31
185.459	133.8
185.679	64.17
185.898	-77.14
186.118	90.79
186.338	41.64
186.557	12.97
186.777	-19.8
186.997	-11.61
187.216	4.78
187.436	0.68
187.655	-5.46
187.875	66.22
188.095	-17.75
188.314	4.78
188.534	39.59
188.753	66.22
188.973	21.16
189.192	0.68
189.412	49.83
189.631	27.31
189.851	21.16
190.07	92.84
190.29	33.45
190.509	-42.32
190.729	66.22
190.948	33.45
191.168	70.31
191.387	4.78
191.607	29.35
191.826	21.16
192.045	35.5
192.265	49.83
192.484	27.31
192.704	37.55
192.923	-1.37
193.142	41.64
193.362	86.7
193.581	88.75
193.8	98.99
194.02	25.26
194.239	45.74
194.458	49.83
194.678	6.83
194.897	-50.52
195.116	51.88
195.335	12.97
195.555	43.69
195.774	62.12
195.993	41.64
196.212	80.55
196.432	64.17
196.651	-21.85
196.87	27.31
197.089	94.89
197.308	21.16
197.528	111.27
197.747	0.68
197.966	0.68
198.185	41.64
198.404	29.35
198.623	33.45
198.842	64.17
199.062	2.73
199.281	66.22
199.5	39.59
199.719	88.75
199.938	12.97
200.157	105.13
200.376	51.88
200.595	80.55
200.814	-21.85
201.033	107.18
201.252	82.6
201.471	-1.37
201.69	105.13
201.909	133.8
202.128	37.55
202.347	101.03
202.566	33.45
202.785	12.97
203.004	39.59
203.223	94.89
203.442	25.26
203.661	17.07
203.879	60.07
204.098	62.12
204.317	-19.8
204.536	94.89
204.755	-42.32
204.974	60.07
205.193	-13.65
205.411	78.51
205.63	109.23
205.849	10.92
206.068	84.65
206.287	55.98
206.505	82.6
206.724	92.84
206.943	-11.61
207.162	74.41
207.381	55.98
207.599	58.03
207.818	-7.51
208.037	-1.37
208.255	51.88
208.474	66.22
208.693	74.41
208.911	37.55
209.13	78.51
209.349	-21.85
209.567	21.16
209.786	53.93
210.005	-17.75
210.223	41.64
210.442	-7.51
210.661	66.22
210.879	-3.41
211.098	49.83
211.316	96.94
211.535	115.37
211.753	66.22
211.972	98.99
212.191	53.93
212.409	-32.08
212.628	51.88
212.846	-7.51
213.065	45.74
213.283	60.07
213.502	68.27
213.72	23.21
213.938	-1.37
214.157	31.4
214.375	90.79
214.594	-17.75
214.812	150.18
215.031	33.45
215.249	-40.28
215.467	31.4
215.686	88.75
215.904	107.18
216.122	-64.85
216.341	31.4
216.559	17.07
216.778	68.27
216.996	78.51
217.214	27.31
217.432	74.41
217.651	39.59
217.869	37.55
218.087	64.17
218.306	68.27
218.524	29.35
218.742	39.59
218.96	86.7
219.179	92.84
219.397	72.36
219.615	90.79
219.833	21.16
220.051	25.26
220.27	78.51
220.488	88.75
220.706	60.07
220.924	55.98
221.142	-27.99
221.36	70.31
221.578	31.4
221.796	4.78
222.015	-11.61
222.233	35.5
222.451	64.17
222.669	37.55
222.887	135.85
223.105	-3.41
223.323	-21.85
223.541	15.02
223.759	60.07
223.977	-5.46
224.195	70.31
224.413	74.41
224.631	29.35
224.849	10.92
225.067	103.08
225.285	12.97
225.503	-23.89
225.721	49.83
225.939	62.12
226.157	70.31
226.375	119.46
226.592	45.74
226.81	25.26
227.028	19.11
227.246	43.69
227.464	4.78
227.682	90.79
227.9	53.93
228.117	105.13
228.335	105.13
228.553	21.16
228.771	31.4
228.989	53.93
229.206	17.07
229.424	58.03
229.642	47.79
229.86	-3.41
230.077	19.11
230.295	70.31
230.513	82.6
230.731	68.27
230.948	76.46
231.166	98.99
231.384	-13.65
231.601	68.27
231.819	49.83
232.037	-3.41
232.254	45.74
232.472	74.41
232.689	53.93
232.907	131.75
233.125	111.27
233.342	51.88
233.56	55.98
233.777	23.21
233.995	25.26
234.213	45.74
234.43	51.88
234.648	88.75
234.865	33.45
235.083	21.16
235.3	62.12
235.518	60.07
235.735	66.22
235.953	37.55
236.17	21.16
236.388	29.35
236.605	4.78
236.822	90.79
237.04	84.65
237.257	53.93
237.475	2.73
237.692	33.45
237.909	25.26
238.127	-23.89
238.344	8.87
238.562	17.07
238.779	37.55
238.996	2.73
239.214	12.97
239.431	135.85
239.648	10.92
239.865	86.7
240.083	21.16
240.3	41.64
240.517	53.93
240.735	6.83
240.952	45.74
241.169	19.11
241.386	53.93
241.603	39.59
241.821	-23.89
242.038	43.69
242.255	33.45
242.472	60.07
242.689	47.79
242.907	105.13
243.124	27.31
243.341	19.11
243.558	29.35
243.775	-25.94
243.992	41.64
244.209	45.74
244.426	164.52
244.643	62.12
244.86	-11.61
245.078	109.23
245.295	45.74
245.512	25.26
245.729	-7.51
245.946	45.74
246.163	70.31
246.38	78.51
246.597	51.88
246.814	4.78
247.031	25.26
247.248	41.64
247.464	21.16
247.681	33.45
247.898	78.51
248.115	90.79
248.332	-19.8
248.549	19.11
248.766	74.41
248.983	-40.28
249.2	96.94
249.417	62.12
249.633	27.31
249.85	33.45
250.067	82.6
250.284	152.23
250.501	23.21
250.717	41.64
250.934	31.4
251.151	-1.37
251.368	41.64
251.585	0.68
251.801	51.88
252.018	62.12
252.235	41.64
252.451	78.51
252.668	62.12
252.885	27.31
253.102	-17.75
253.318	37.55
253.535	27.31
253.752	45.74
253.968	8.87
254.185	31.4
254.401	17.07
254.618	15.02
254.835	0.68
255.051	53.93
255.268	25.26
255.484	84.65
255.701	43.69
255.917	58.03
256.134	21.16
256.351	58.03
256.567	-5.46
256.784	29.35
257	2.73
257.217	64.17
257.433	39.59
257.65	29.35
257.866	64.17
258.082	58.03
258.299	-25.94
258.515	25.26
258.732	37.55
258.948	0.68
259.165	19.11
259.381	70.31
259.597	55.98
259.814	29.35
260.03	55.98
260.246	113.32
260.463	10.92
260.679	66.22
260.895	82.6
261.112	-9.56
261.328	15.02
261.544	-17.75
261.761	109.23
261.977	86.7
262.193	-60.76
262.409	45.74
262.626	111.27
262.842	90.79
263.058	-58.71
263.274	-25.94
263.49	76.46
263.707	41.64
263.923	47.79
264.139	29.35
264.355	84.65
264.571	117.42
264.787	62.12
265.004	74.41
265.22	10.92
265.436	84.65
265.652	74.41
265.868	58.03
266.084	12.97
266.3	31.4
266.516	2.73
266.732	31.4
266.948	103.08
267.164	72.36
267.38	115.37
267.596	154.28
267.812	6.83
268.028	45.74
268.244	-13.65
268.46	45.74
268.676	10.92
268.892	119.46
269.108	-21.85
269.324	-52.56
269.54	19.11
269.756	78.51
269.972	51.88
270.188	68.27
270.403	-7.51
270.619	45.74
270.835	19.11
271.051	0.68
271.267	51.88
271.483	-1.37
271.698	51.88
271.914	6.83
272.13	-3.41
272.346	127.66
272.562	23.21
272.777	58.03
272.993	33.45
273.209	43.69
273.425	-5.46
273.64	-19.8
273.856	37.55
274.072	19.11
274.287	86.7
274.503	2.73
274.719	70.31
274.934	35.5
275.15	12.97
275.366	58.03
275.581	31.4
275.797	29.35
276.012	0.68
276.228	12.97
276.444	17.07
276.659	27.31
276.875	31.4
277.09	39.59
277.306	41.64
277.521	60.07
277.737	27.31
277.952	70.31
278.168	33.45
278.383	55.98
278.599	31.4
278.814	84.65
279.03	-15.7
279.245	98.99
279.461	-54.61
279.676	96.94
279.892	4.78
280.107	47.79
280.322	-23.89
280.538	60.07
280.753	103.08
280.969	45.74
281.184	45.74
281.399	94.89
281.615	39.59
281.83	74.41
282.045	-13.65
282.26	15.02
282.476	21.16
282.691	53.93
282.906	47.79
283.122	-7.51
283.337	37.55
283.552	68.27
283.767	27.31
283.983	88.75
284.198	25.26
284.413	33.45
284.628	12.97
284.843	64.17
285.058	45.74
285.274	8.87
285.489	6.83
285.704	103.08
285.919	-21.85
286.134	45.74
286.349	27.31
286.564	23.21
286.779	58.03
286.995	12.97
287.21	51.88
287.425	37.55
287.64	-25.94
287.855	45.74
288.07	27.31
288.285	45.74
288.5	37.55
288.715	-11.61
288.93	-11.61
289.145	29.35
289.36	33.45
289.575	64.17
289.79	68.27
290.004	66.22
290.219	70.31
290.434	-3.41
290.649	6.83
290.864	23.21
291.079	62.12
291.294	8.87
291.509	135.85
291.724	58.03
291.938	25.26
292.153	88.75
292.368	-17.75
292.583	21.16
292.798	60.07
293.012	127.66
293.227	-36.18
293.442	-42.32
293.657	107.18
293.871	121.51
294.086	58.03
294.301	98.99
294.516	131.75
294.73	6.83
294.945	43.69
295.16	58.03
295.374	-3.41
295.589	72.36
295.804	8.87
296.018	86.7
296.233	-1.37
296.447	90.79
296.662	-11.61
296.877	78.51
297.091	74.41
297.306	66.22
297.52	98.99
297.735	62.12
297.949	62.12
298.164	15.02
298.378	33.45
298.593	-52.56
298.807	-34.13
299.022	-9.56
299.236	47.79
299.451	41.64
299.665	70.31
299.88	76.46
300.094	78.51
300.309	21.16
300.523	58.03
300.737	49.83
300.952	-13.65
301.166	-44.37
301.381	49.83
301.595	68.27
301.809	-7.51
302.024	6.83
302.238	25.26
302.452	62.12
302.667	74.41
302.881	-9.56
303.095	62.12
303.309	105.13
303.524	-36.18
303.738	74.41
303.952	37.55
304.166	78.51
304.381	-11.61
304.595	88.75
304.809	15.02
305.023	37.55
305.237	47.79
305.452	47.79
305.666	37.55
305.88	123.56
306.094	29.35
306.308	82.6
306.522	2.73
306.736	47.79
306.95	25.26
307.164	62.12
307.379	80.55
307.593	72.36
307.807	31.4
308.021	37.55
308.235	-11.61
308.449	27.31
308.663	37.55
308.877	88.75
309.091	23.21
309.305	4.78
309.519	33.45
309.733	37.55
309.947	4.78
310.161	72.36
310.374	37.55
310.588	39.59
310.802	-13.65
311.016	58.03
311.23	12.97
311.444	33.45
311.658	12.97
311.872	90.79
312.085	119.46
312.299	21.16
312.513	84.65
312.727	-11.61
312.941	4.78
313.154	90.79
313.368	-7.51
313.582	62.12
313.796	68.27
314.009	6.83
314.223	25.26
314.437	33.45
314.651	4.78
314.864	70.31
315.078	78.51
315.292	35.5
315.505	62.12
315.719	66.22
315.933	66.22
316.146	17.07
316.36	15.02
316.573	74.41
316.787	21.16
317.001	2.73
317.214	0.68
317.428	12.97
317.641	-7.51
317.855	12.97
318.068	70.31
318.282	55.98
318.495	62.12
318.709	12.97
318.922	62.12
319.136	33.45
319.349	78.51
319.563	17.07
319.776	41.64
319.99	25.26
320.203	92.84
320.417	37.55
320.63	148.14
320.843	64.17
321.057	66.22
321.27	86.7
321.483	82.6
321.697	25.26
321.91	45.74
322.124	103.08
322.337	-3.41
322.55	0.68
322.763	47.79
322.977	37.55
323.19	68.27
323.403	0.68
323.617	43.69
323.83	137.9
324.043	60.07
324.256	60.07
324.469	-11.61
324.683	31.4
324.896	60.07
325.109	35.5
325.322	-38.23
325.535	45.74
325.748	78.51
325.962	-7.51
326.175	39.59
326.388	76.46
326.601	33.45
326.814	62.12
327.027	66.22
327.24	82.6
327.453	58.03
327.666	84.65
327.879	74.41
328.092	84.65
328.305	68.27
328.518	109.23
328.731	58.03
328.944	66.22
329.157	76.46
329.37	19.11
329.583	86.7
329.796	119.46
330.009	-7.51
330.222	62.12
330.435	-3.41
330.648	53.93
330.861	2.73
331.073	55.98
331.286	121.51
331.499	92.84
331.712	37.55
331.925	-9.56
332.138	41.64
332.35	141.99
332.563	53.93
332.776	53.93
332.989	98.99
333.202	55.98
333.414	33.45
333.627	33.45
333.84	33.45
334.053	78.51
334.265	8.87
334.478	8.87
334.691	66.22
334.903	117.42
335.116	62.12
335.329	58.03
335.541	39.59
335.754	64.17
335.966	43.69
336.179	74.41
336.392	2.73
336.604	55.98
336.817	105.13
337.029	25.26
337.242	88.75
337.454	53.93
337.667	103.08
337.88	107.18
338.092	86.7
338.305	84.65
338.517	41.64
338.729	19.11
338.942	74.41
339.154	41.64
339.367	64.17
339.579	55.98
339.792	-1.37
340.004	8.87
340.217	49.83
340.429	43.69
340.641	27.31
340.854	53.93
341.066	84.65
341.278	88.75
341.491	119.46
341.703	45.74
341.915	-58.71
342.128	98.99
342.34	6.83
342.552	49.83
342.764	60.07
342.977	45.74
343.189	45.74
343.401	53.93
343.613	-27.99
343.826	-7.51
344.038	37.55
344.25	58.03
344.462	17.07
344.674	27.31
344.886	37.55
345.099	21.16
345.311	70.31
345.523	45.74
345.735	-44.37
345.947	117.42
346.159	27.31
346.371	86.7
346.583	-1.37
346.795	43.69
347.007	70.31
347.219	64.17
347.431	21.16
347.643	88.75
347.855	103.08
348.067	4.78
348.279	60.07
348.491	23.21
348.703	90.79
348.915	25.26
349.127	70.31
349.339	10.92
349.551	78.51
349.763	64.17
349.975	68.27
350.187	70.31
350.399	49.83
350.61	86.7
350.822	4.78
351.034	105.13
351.246	-15.7
351.458	111.27
351.669	51.88
351.881	127.66
352.093	74.41
352.305	68.27
352.517	-3.41
352.728	131.75
352.94	27.31
353.152	90.79
353.363	88.75
353.575	115.37
353.787	53.93
353.999	105.13
354.21	160.42
354.422	64.17
354.633	49.83
354.845	94.89
355.057	92.84
355.268	64.17
355.48	45.74
355.692	35.5
355.903	45.74
356.115	96.94
356.326	64.17
356.538	19.11
356.749	72.36
356.961	49.83
357.172	76.46
357.384	8.87
357.595	33.45
357.807	49.83
358.018	90.79
358.23	137.9
358.441	96.94
358.653	74.41
358.864	27.31
359.075	78.51
359.287	55.98
359.498	21.16
359.709	51.88
359.921	51.88
360.132	21.16
360.344	49.83
360.555	41.64
360.766	123.56
360.977	70.31
361.189	64.17
361.4	78.51
361.611	94.89
361.823	53.93
362.034	35.5
362.245	88.75
362.456	4.78
362.667	68.27
362.879	23.21
363.09	78.51
363.301	66.22
363.512	78.51
363.723	25.26
363.935	74.41
364.146	6.83
364.357	66.22
364.568	94.89
364.779	47.79
364.99	115.37
365.201	-13.65
365.412	62.12
365.623	53.93
365.834	133.8
366.045	37.55
366.256	74.41
366.467	25.26
366.678	25.26
366.889	94.89
367.1	64.17
367.311	39.59
367.522	23.21
367.733	74.41
367.944	53.93
368.155	53.93
368.366	58.03
368.577	90.79
368.788	107.18
368.999	33.45
369.209	107.18
369.42	78.51
369.631	154.28
369.842	0.68
370.053	72.36
370.264	43.69
370.474	37.55
370.685	96.94
370.896	90.79
371.107	64.17
371.317	0.68
371.528	17.07
371.739	113.32
371.95	10.92
372.16	88.75
372.371	21.16
372.582	86.7
372.792	21.16
373.003	121.51
373.214	109.23
373.424	-15.7
373.635	31.4
373.846	64.17
374.056	96.94
374.267	49.83
374.477	51.88
374.688	51.88
374.898	19.11
375.109	103.08
375.319	103.08
375.53	84.65
375.74	84.65
375.951	35.5
376.161	74.41
376.372	43.69
376.582	33.45
376.793	119.46
377.003	68.27
377.214	6.83
377.424	35.5
377.635	47.79
377.845	-32.08
378.055	90.79
378.266	49.83
378.476	107.18
378.686	125.61
378.897	25.26
379.107	53.93
379.317	21.16
379.528	72.36
379.738	21.16
379.948	-9.56
380.158	96.94
380.369	21.16
380.579	88.75
380.789	105.13
380.999	41.64
381.21	78.51
381.42	55.98
381.63	33.45
381.84	21.16
382.05	58.03
382.261	172.71
382.471	70.31
382.681	88.75
382.891	43.69
383.101	43.69
383.311	60.07
383.521	86.7
383.731	82.6
383.941	64.17
384.151	78.51
384.361	152.23
384.571	45.74
384.781	84.65
384.991	74.41
385.201	191.14
385.411	41.64
385.621	135.85
385.831	37.55
386.041	119.46
386.251	58.03
386.461	107.18
386.671	58.03
386.881	58.03
387.091	33.45
387.301	90.79
387.511	60.07
387.72	109.23
387.93	53.93
388.14	25.26
388.35	127.66
388.56	53.93
388.769	62.12
388.979	41.64
389.189	-11.61
389.399	47.79
389.609	119.46
389.818	80.55
390.028	84.65
390.238	76.46
390.447	84.65
390.657	17.07
390.867	-5.46
391.076	70.31
391.286	123.56
391.496	123.56
391.705	82.6
391.915	80.55
392.125	98.99
392.334	66.22
392.544	107.18
392.753	109.23
392.963	86.7
393.172	107.18
393.382	39.59
393.591	160.42
393.801	129.7
394.01	101.03
394.22	53.93
394.429	107.18
394.639	209.58
394.848	101.03
395.058	78.51
395.267	152.23
395.477	119.46
395.686	187.05
395.895	82.6
396.105	156.33
396.314	53.93
396.524	107.18
396.733	51.88
396.942	174.76
397.152	133.8
397.361	103.08
397.57	119.46
397.78	131.75
397.989	107.18
398.198	68.27
398.407	111.27
398.617	96.94
398.826	90.79
399.035	84.65
399.244	72.36
399.453	156.33
399.663	158.38
399.872	101.03
400.081	137.9
400.29	103.08
400.499	180.9
400.708	146.09
400.917	166.57
401.127	82.6
401.336	111.27
401.545	160.42
401.754	176.81
401.963	160.42
402.172	58.03
402.381	94.89
402.59	166.57
402.799	84.65
403.008	217.77
403.217	160.42
403.426	152.23
403.635	144.04
403.844	158.38
404.053	123.56
404.262	193.19
404.471	160.42
404.68	123.56
404.888	131.75
405.097	119.46
405.306	201.38
405.515	158.38
405.724	156.33
405.933	209.58
406.142	201.38
406.35	264.87
406.559	217.77
406.768	258.73
406.977	121.51
407.185	266.92
407.394	185
407.603	182.95
407.812	252.58
408.02	238.25
408.229	242.34
408.438	238.25
408.646	234.15
408.855	148.14
409.064	240.3
409.272	287.4
409.481	248.49
409.69	219.82
409.898	285.35
410.107	250.53
410.315	340.65
410.524	359.08
410.733	316.07
410.941	299.69
411.15	311.97
411.358	438.95
411.567	510.63
411.775	387.75
411.984	373.41
412.192	395.94
412.401	449.19
412.609	545.44
412.818	516.77
413.026	576.16
413.234	529.06
413.443	539.3
413.651	553.63
413.86	649.89
414.068	719.52
414.276	627.36
414.485	584.35
414.693	715.42
414.901	672.42
415.11	803.49
415.318	682.66
415.526	823.97
415.734	832.16
415.943	791.2
416.151	883.36
416.359	869.02
416.567	844.45
416.776	914.08
416.984	1043.1
417.192	1073.82
417.4	983.71
417.608	1071.77
417.817	1053.34
418.025	1151.64
418.233	1176.22
418.441	1133.21
418.649	1186.46
418.857	1270.42
419.065	1368.73
419.273	1333.91
419.481	1311.38
419.689	1485.46
419.897	1518.23
420.105	1561.23
420.313	1442.45
420.521	1655.44
420.729	1778.32
420.937	1659.54
421.145	1776.27
421.353	1792.66
421.561	1958.54
421.769	1946.25
421.977	2056.84
422.185	2155.15
422.393	2259.59
422.601	2308.74
422.809	2343.56
423.017	2331.27
423.224	2437.77
423.432	2517.64
423.64	2468.49
423.848	2701.95
424.056	2601.6
424.263	2878.08
424.471	2847.36
424.679	2863.74
424.887	3123.84
425.094	3170.94
425.302	3304.06
425.51	3271.29
425.718	3521.14
425.925	3465.85
426.133	3560.05
426.341	3818.1
426.548	4059.76
426.756	3900.02
426.964	3986.03
427.171	4229.74
427.379	4190.83
427.586	4383.34
427.794	4438.63
428.001	4655.72
428.209	4846.18
428.417	4977.25
428.624	5313.11
428.832	5210.72
429.039	5186.14
429.247	5180
429.454	5683.8
429.662	6056.53
429.869	5796.43
430.076	6058.57
430.284	5749.33
430.491	6079.05
430.699	6599.24
430.906	6425.16
431.114	6449.74
431.321	6894.15
431.528	6992.45
431.736	7289.4
431.943	7733.81
432.15	7526.97
432.358	7514.68
432.565	8102.45
432.772	8012.34
432.979	8239.66
433.187	8565.29
433.394	8493.61
433.601	9169.44
433.808	9204.25
434.016	9062.94
434.223	9366.04
434.43	10076.69
434.637	9851.41
434.844	10508.81
435.052	10668.55
435.259	10590.73
435.466	10635.78
435.673	10572.3
435.88	11278.85
436.087	11811.32
436.294	11725.3
436.501	11717.11
436.708	11727.35
436.915	12358.13
437.122	12943.85
437.329	12700.14
437.537	12949.99
437.743	13208.03
437.95	13273.57
438.157	13883.86
438.364	14197.2
438.571	14299.6
438.778	14373.33
438.985	16005.56
439.192	15020.49
439.399	15681.98
439.606	15249.86
439.813	16171.44
440.02	17090.98
440.227	16535.98
440.433	16669.1
440.64	17162.66
440.847	16955.82
441.054	17551.77
441.261	18579.86
441.467	18327.95
441.674	18741.64
441.881	19126.66
442.088	19489.15
442.294	19194.25
442.501	19493.25
442.708	20279.67
442.914	20889.96
443.121	21842.27
443.328	20812.14
443.534	22554.96
443.741	22090.07
443.948	21971.29
444.154	23288.14
444.361	23308.61
444.568	23406.92
444.774	23378.25
444.981	23501.12
445.187	23941.44
445.394	25092.4
445.6	24699.19
445.807	27498.76
446.013	26100
446.22	26396.95
446.426	27396.36
446.633	27746.56
446.839	28420.34
447.046	27339.02
447.252	29012.21
447.459	29171.95
447.665	28975.34
447.871	30173.41
448.078	31482.06
448.284	29999.33
448.491	30662.87
448.697	31617.22
448.903	32637.11
449.11	32530.62
449.316	31791.3
449.522	32190.66
449.728	33376.43
449.935	33429.68
450.141	33579.18
450.347	34457.76
450.553	32600.25
450.76	33417.39
450.966	34498.72
451.172	34117.79
451.378	34816.15
451.584	34457.76
451.791	34971.8
451.997	34830.49
452.203	35293.33
452.409	35616.91
452.615	35666.06
452.821	34001.06
453.027	33212.59
453.233	35192.98
453.44	33478.83
453.646	33843.37
453.852	34166.95
454.058	34498.72
454.264	33497.26
454.47	34191.52
454.676	33441.96
454.882	34605.21
455.088	31520.97
455.294	32147.65
455.5	32520.38
455.705	32704.7
455.911	31504.59
456.117	30898.39
456.323	30632.15
456.529	28834.03
456.735	30322.91
456.941	29341.93
457.147	28911.86
457.352	27836.67
457.558	27615.49
457.764	27601.16
457.97	27107.6
458.176	26528.02
458.381	26687.76
458.587	25014.57
458.793	25424.17
458.999	23976.25
459.204	25772.32
459.41	25276.71
459.616	23353.67
459.821	23361.86
460.027	23056.71
460.233	22905.17
460.438	21606.75
460.644	21766.49
460.85	20873.58
461.055	20484.47
461.261	20599.15
461.466	19241.35
461.672	18428.31
461.878	19724.67
462.083	18596.24
462.289	18041.24
462.494	17834.39
462.7	17160.61
462.905	16931.24
463.111	17088.93
463.316	17346.98
463.522	16798.12
463.727	17041.83
463.932	16845.23
464.138	16689.58
464.343	16820.65
464.549	16210.36
464.754	16875.95
464.959	16656.81
465.165	16730.54
465.37	15835.58
465.575	15397.31
465.781	16316.85
465.986	16284.08
466.191	15851.96
466.397	15333.82
466.602	14707.15
466.807	15227.33
467.012	15040.97
467.218	14934.47
467.423	14696.91
467.628	15032.77
467.833	15425.98
468.038	15124.93
468.244	14803.4
468.449	15135.17
468.654	14504.4
468.859	14752.2
469.064	14381.52
469.269	13961.69
469.474	13822.42
469.679	14311.89
469.885	13730.27
470.09	14322.13
470.295	13748.7
470.5	13605.34
470.705	13709.79
470.91	13175.27
471.115	13355.49
471.32	13464.03
471.525	13337.06
471.73	13099.49
471.935	13126.11
472.139	12442.09
472.344	12655.08
472.549	12347.89
472.754	12616.17
472.959	12300.78
473.164	11901.43
473.369	11825.65
473.574	12167.66
473.778	11989.49
473.983	11858.42
474.188	11868.66
474.393	11346.43
474.598	11409.92
474.802	11311.61
475.007	11131.39
475.212	11176.45
475.417	10998.27
475.621	10945.03
475.826	10834.44
476.031	10629.64
476.235	10699.27
476.44	10605.06
476.645	10369.55
476.849	10369.55
477.054	10525.19
477.259	10068.5
477.463	10033.68
477.668	9851.41
477.872	9972.24
478.077	9935.38
478.282	9519.64
478.486	9654.81
478.691	9544.22
478.895	9447.96
479.1	9310.75
479.304	9325.08
479.509	9054.75
479.713	9310.75
479.918	9007.65
480.122	9019.94
480.326	9136.67
480.531	9189.92
480.735	8952.35
480.94	8946.21
481.144	9157.15
481.348	8675.88
481.553	8911.39
481.757	8790.56
481.961	8765.99
482.166	8962.59
482.37	8835.62
482.574	8530.47
482.778	8780.32
482.983	8802.85
483.187	8798.76
483.391	8897.06
483.595	8632.87
483.8	8684.07
484.004	8643.11
484.208	8876.58
484.412	8786.47
484.616	8786.47
484.821	8475.18
485.025	8585.77
485.229	8806.95
485.433	8751.65
485.637	8833.57
485.841	8714.79
486.045	8536.62
486.249	8653.35
486.453	8677.93
486.657	8782.37
486.861	8823.33
487.065	8522.28
487.269	8581.67
487.473	8532.52
487.677	8690.21
487.881	8890.91
488.085	8569.38
488.289	8845.86
488.493	8624.68
488.697	8868.39
488.901	8741.41
489.105	8763.94
489.309	8786.47
489.512	8837.67
489.716	8915.49
489.92	9021.98
490.124	8712.74
490.328	9148.96
490.531	8913.44
490.735	9032.22
490.939	9216.54
491.143	8960.55
491.346	8974.88
491.55	9228.83
491.754	9206.3
491.958	9105.95
492.161	9286.17
492.365	9159.2
492.569	9032.22
492.772	9296.41
492.976	9359.9
493.18	9241.12
493.383	9409.05
493.587	9583.13
493.79	9548.31
493.994	9497.11
494.197	9499.16
494.401	9640.47
494.605	9853.46
494.808	9978.39
495.012	10123.79
495.215	9863.7
495.419	9994.77
495.622	9988.63
495.825	10242.57
496.029	10015.25
496.232	10410.51
496.436	10486.28
496.639	10871.3
496.843	10555.91
497.046	10736.13
497.249	10899.97
497.453	10979.84
497.656	11139.58
497.859	11022.85
498.063	11166.21
498.266	11383.29
498.469	11438.59
498.673	11334.14
498.876	11772.41
499.079	11692.54
499.282	11811.32
499.485	11964.92
499.689	12038.64
499.892	12284.4
500.095	12280.3
500.298	12669.42
500.501	12438
500.705	12995.04
500.908	13015.52
501.111	13058.53
501.314	13232.61
501.517	13300.19
501.72	13601.24
501.923	13570.52
502.126	13963.73
502.329	13971.93
502.532	14041.56
502.735	14232.02
502.938	14334.42
503.141	14483.92
503.344	14860.74
503.547	14817.74
503.75	14975.43
503.953	15227.33
504.156	15589.82
504.359	15528.38
504.562	15483.33
504.765	16128.44
504.968	16015.8
505.17	16089.53
505.373	16396.72
505.576	16636.33
505.779	16452.02
505.982	16912.81
506.185	17267.11
506.387	17273.25
506.59	17248.68
506.793	17844.63
506.996	17787.29
507.198	18133.4
507.401	17848.73
507.604	18327.95
507.807	18768.27
508.009	18887.05
508.212	18811.28
508.415	19020.17
508.617	19478.91
508.82	19403.14
509.022	19499.39
509.225	19681.66
509.428	19896.7
509.63	20144.5
509.833	20148.6
510.035	20846.96
510.238	20752.75
510.44	20816.24
510.643	21096.81
510.845	21211.49
511.048	21414.24
511.25	21676.38
511.453	21817.69
511.655	22630.74
511.858	22186.33
512.06	22790.48
512.262	22772.05
512.465	22911.31
512.667	23032.14
512.87	23486.79
513.072	23435.59
513.274	23853.37
513.477	24435
513.679	24242.49
513.881	24643.89
514.084	24811.82
514.286	25069.87
514.488	25200.94
514.69	25762.08
514.893	25876.77
515.095	25907.49
515.297	26335.51
515.499	26358.04
515.701	26736.91
515.904	26900.75
516.106	27300.11
516.308	27298.06
516.51	27662.6
516.712	27824.39
516.914	28209.4
517.116	28549.37
517.318	28492.02
517.52	28561.65
517.722	28723.44
517.925	29595.88
518.127	29606.12
518.329	30111.97
518.531	29653.22
518.733	30384.35
518.935	30746.84
519.136	30537.94
519.338	31004.88
519.54	31318.22
519.742	31611.08
519.944	31963.33
520.146	32104.64
520.348	32612.54
520.55	32768.18
520.752	32706.74
520.954	33497.26
521.155	32602.3
521.357	33331.37
521.559	33988.77
521.761	33980.58
521.963	34271.39
522.164	34572.44
522.366	35078.29
522.568	34967.7
522.77	35125.39
522.971	35772.55
523.173	35387.53
523.375	35608.72
523.576	35528.84
523.778	36040.84
523.98	36245.63
524.181	36489.34
524.383	36604.03
524.584	37279.86
524.786	37103.73
524.988	37136.5
525.189	37668.97
525.391	37656.68
525.592	37937.26
525.794	38113.38
525.995	38232.16
526.197	38533.21
526.398	38807.64
526.6	38967.38
526.801	39168.08
527.003	39221.33
527.204	39127.13
527.406	39497.81
527.607	39540.82
527.808	40157.25
528.01	39336.02
528.211	39817.29
528.412	40362.05
528.614	40302.66
528.815	40310.85
529.016	41326.64
529.218	40513.6
529.419	40566.85
529.62	40892.47
529.822	40704.06
530.023	40865.85
530.224	41404.47
530.425	41314.36
530.626	41146.42
530.828	40781.88
531.029	41822.25
531.23	41277.49
531.431	41353.27
531.632	41599.02
531.833	41926.7
532.035	41396.27
532.236	41863.21
532.437	41904.17
532.638	41883.69
532.839	41932.84
533.04	42022.95
533.241	41760.81
533.442	41744.43
533.643	42141.74
533.844	41873.45
534.045	41877.55
534.246	41871.4
534.447	42715.17
534.648	41859.12
534.849	42512.42
535.05	42172.46
535.251	42702.88
535.451	42186.79
535.652	42545.19
535.853	42385.44
536.054	42635.3
536.255	43044.89
536.456	42342.44
536.657	42969.11
536.857	42334.24
537.058	42141.74
537.259	42915.87
537.46	42901.53
537.66	42487.84
537.861	42825.76
538.062	42149.93
538.263	42534.95
538.463	42706.97
538.664	42684.45
538.865	42514.47
539.065	42883.1
539.266	42285.09
539.466	42967.07
539.667	42160.17
539.868	43227.16
540.068	42420.26
540.269	42819.61
540.469	42506.27
540.67	42121.26
540.87	42633.25
541.071	42688.54
541.271	42620.96
541.472	42194.98
541.672	42539.04
541.873	42545.19
542.073	42031.15
542.274	42727.45
542.474	42162.22
542.675	42018.86
542.875	42760.22
543.075	42565.67
543.276	42020.91
543.476	42864.67
543.676	42467.36
543.877	42407.97
544.077	42547.23
544.277	42459.17
544.478	42508.32
544.678	42666.02
544.878	42541.09
545.078	42338.34
545.279	42254.37
545.479	42463.27
545.679	42397.73
545.879	42299.43
546.079	42487.84
546.28	42539.04
546.48	42090.54
546.68	42625.06
546.88	42715.17
547.08	42541.09
547.28	42715.17
547.48	42080.3
547.68	42407.97
547.88	42276.9
548.081	42285.09
548.281	42281
548.481	42084.39
548.681	42506.27
548.881	42242.09
549.081	42194.98
549.28	41959.47
549.48	42403.88
549.68	42422.31
549.88	42885.15
550.08	42174.5
550.28	42076.2
550.48	42113.06
550.68	42287.14
550.88	41943.08
551.08	42014.76
551.279	42397.73
551.479	41803.82
551.679	41891.88
551.879	42332.2
552.079	42121.26
552.278	41734.19
552.478	41877.55
552.678	42475.55
552.878	42176.55
553.077	41732.14
553.277	41754.67
553.477	42293.29
553.676	41334.84
553.876	41885.74
554.076	41586.74
554.275	41711.66
554.475	41310.26
554.674	41642.03
554.874	41521.2
555.074	41379.89
555.273	41410.61
555.473	41803.82
555.672	41603.12
555.872	41379.89
556.071	41279.54
556.271	41635.89
556.47	41183.29
556.67	40941.63
556.869	41154.61
557.068	40951.87
557.268	40822.84
557.467	41197.62
557.667	41412.66
557.866	41177.14
558.065	40792.12
558.265	40923.19
558.464	40247.36
558.663	41044.02
558.863	40583.23
559.062	40929.34
559.261	40214.6
559.461	40646.72
559.66	40343.62
559.859	40243.27
560.058	40116.29
560.258	40484.93
560.457	39712.84
560.656	40228.93
560.855	40378.43
561.054	40360
561.253	39569.49
561.453	40005.7
561.652	39729.23
561.851	40040.52
562.05	39661.65
562.249	39567.44
562.448	39837.77
562.647	39698.51
562.846	39475.28
563.045	39577.68
563.244	39120.98
563.443	39131.22
563.642	38686.81
563.841	39213.14
564.04	38707.29
564.239	39028.82
564.438	38715.48
564.637	38834.27
564.836	38848.6
565.035	38400.1
565.234	38426.72
565.432	38557.79
565.631	38111.33
565.83	38271.07
566.029	37992.55
566.228	37714.03
566.427	38099.05
566.625	37507.18
566.824	37302.39
567.023	37861.48
567.222	36989.05
567.42	37779.56
567.619	37589.1
567.818	37441.65
568.016	37116.02
568.215	37417.07
568.414	36933.75
568.612	37279.86
568.811	36374.66
569.01	37118.07
569.208	36563.07
569.407	36905.08
569.605	36302.98
569.804	36790.39
570.002	36083.84
570.201	36388.99
570.4	36221.06
570.598	35629.19
570.797	35784.84
570.995	35795.08
571.193	35186.83
571.392	36335.74
571.59	35272.85
571.789	35823.75
571.987	35412.11
572.186	35256.46
572.384	35154.07
572.582	35446.93
572.781	35186.83
572.979	34693.27
573.177	34801.82
573.376	35082.39
573.574	34812.06
573.772	34758.81
573.971	34259.1
574.169	34459.8
574.367	34287.78
574.565	34576.54
574.763	33642.67
574.962	33888.42
575.16	33734.82
575.358	34093.22
575.556	33212.59
575.754	33972.39
575.952	33433.77
576.151	33896.61
576.349	32876.72
576.547	33306.8
576.745	33329.33
576.943	33024.18
577.141	33384.62
577.339	33194.16
577.537	32975.03
577.735	32872.63
577.933	32673.98
578.131	32696.5
578.329	32479.42
578.527	32313.53
578.725	32129.22
578.923	32334.01
579.121	32116.93
579.319	31729.86
579.516	32168.13
579.714	31883.46
579.912	32010.43
580.11	31860.93
580.308	31725.77
580.506	31463.63
580.704	30990.55
580.901	31441.1
581.099	31809.73
581.297	31107.28
581.495	30927.06
581.692	31084.75
581.89	30488.79
582.088	31201.49
582.285	30709.97
582.483	30671.06
582.681	31006.93
582.878	30865.62
583.076	30427.35
583.274	30490.84
583.471	30023.9
583.669	30404.83
583.866	30052.58
584.064	30306.52
584.262	29524.2
584.459	30060.77
584.657	29880.55
584.854	29870.31
585.052	29272.3
585.249	29866.21
585.447	29788.39
585.644	29509.86
585.841	29542.63
586.039	29653.22
586.236	28844.27
586.434	28821.75
586.631	28819.7
586.828	29157.61
587.026	28913.91
587.223	28868.85
587.42	28842.23
587.618	28932.34
587.815	28104.96
588.012	28227.84
588.21	28406.01
588.407	28328.19
588.604	28319.99
588.801	28508.41
588.999	28020.99
589.196	27967.74
589.393	27961.6
589.59	27734.28
589.787	27678.98
589.984	27470.09
590.182	27291.91
590.379	27795.71
590.576	27441.42
590.773	27523.33
590.97	27068.69
591.167	27328.78
591.364	26712.34
591.561	27046.16
591.758	26915.09
591.955	26530.07
592.152	26867.98
592.349	26450.2
592.546	26796.31
592.743	26679.57
592.94	26360.09
593.137	26396.95
593.334	26556.69
593.531	26114.33
593.727	26360.09
593.924	26159.39
594.121	25966.88
594.318	26134.81
594.515	25743.65
594.712	25661.73
594.908	25624.87
595.105	25776.42
595.302	25131.31
595.499	25696.55
595.696	25360.68
595.892	25448.74
596.089	25518.37
596.286	25200.94
596.482	25047.34
596.679	25186.6
596.876	25352.49
597.072	24779.06
597.269	25114.92
597.466	24478.01
597.662	24543.54
597.859	24582.45
598.055	24674.61
598.252	24297.78
598.448	24533.3
598.645	24414.52
598.841	24107.32
599.038	24367.41
599.234	24166.71
599.431	23939.39
599.627	23873.85
599.824	23923.01
600.02	23685.44
600.217	23748.93
600.413	23519.56
600.609	23480.64
600.806	23374.15
601.002	23857.47
601.198	23298.38
601.395	23152.97
601.591	23232.84
601.787	23122.25
601.984	22813.01
602.18	23433.54
602.376	23200.07
602.572	22683.98
602.769	23091.53
602.965	22608.21
603.161	22800.72
603.357	22591.83
603.553	22583.63
603.75	22417.75
603.946	22507.86
604.142	22341.97
604.338	22102.36
604.534	22266.2
604.73	21918.04
604.926	22008.15
605.122	21715.3
605.318	21999.96
605.514	21764.45
605.71	21752.16
605.906	21827.93
606.102	21774.69
606.298	21696.86
606.494	21645.66
606.69	21571.94
606.886	21926.24
607.082	21379.43
607.278	21213.54
607.474	20928.88
607.67	21117.29
607.866	21035.37
608.062	21342.56
608.257	20988.27
608.453	21111.14
608.649	20973.93
608.845	20879.72
609.041	20834.67
609.236	21023.08
609.432	20545.91
609.628	20748.65
609.824	20519.28
610.019	20644.21
610.215	20394.36
610.411	20652.4
610.606	20146.55
610.802	20226.42
610.998	20134.26
611.193	20099.45
611.389	19919.23
611.584	20205.94
611.78	20001.15
611.976	20212.09
612.171	20062.58
612.367	19933.56
612.562	19724.67
612.758	19800.44
612.953	19960.19
613.149	19755.39
613.344	19575.17
613.539	19773.82
613.735	19657.09
613.93	19730.81
614.126	19427.71
614.321	19435.91
614.517	19542.4
614.712	19650.94
614.907	19378.56
615.103	19407.23
615.298	19124.61
615.493	19339.65
615.688	19179.91
615.884	19433.86
616.079	19079.56
616.274	19200.39
616.47	18864.52
616.665	19036.55
616.86	18923.91
617.055	18778.51
617.25	18971.02
617.445	18854.28
617.641	18784.65
617.836	18839.95
618.031	18465.17
618.226	18821.52
618.421	18557.33
618.616	18774.41
618.811	18241.94
619.006	18717.07
619.201	18428.31
619.396	18340.24
619.591	17858.97
619.786	18067.86
619.981	17987.99
620.176	18125.21
620.371	17760.67
620.566	17824.15
620.761	17547.68
620.956	17789.34
621.151	17461.66
621.346	17848.73
621.541	17236.39
621.735	17389.99
621.93	17289.63
622.125	17045.93
622.32	17158.56
622.515	17103.27
622.709	16957.86
622.904	16935.34
623.099	16802.22
623.294	16918.95
623.488	16445.87
623.683	16763.31
623.878	16427.44
624.072	16417.2
624.267	16660.91
624.462	16007.61
624.656	15966.65
624.851	16044.47
625.046	15905.21
625.24	15854.01
625.435	15591.87
625.629	15630.78
625.824	15989.17
626.018	15413.7
626.213	15251.91
626.407	15405.5
626.602	14991.81
626.796	15204.8
626.991	15129.03
627.185	15253.95
627.38	14905.8
627.574	14737.87
627.768	14815.69
627.963	14862.79
628.157	14504.4
628.352	14504.4
628.546	14393.81
628.74	14293.46
628.935	14275.02
629.129	14492.11
629.323	14215.63
629.517	14027.22
629.712	13820.38
629.906	13963.73
630.1	13648.35
630.294	13908.44
630.489	13672.92
630.683	13705.69
630.877	13609.43
631.071	13418.97
631.265	13529.56
631.459	13322.72
631.653	13132.26
631.848	13304.29
632.042	12935.65
632.236	13390.3
632.43	12986.85
632.624	12898.79
632.818	12870.12
633.012	12810.73
633.206	12767.72
633.4	12685.8
633.594	12517.87
633.788	12591.59
633.982	12466.67
634.176	12542.44
634.369	12521.96
634.563	12296.69
634.757	12087.79
634.951	12368.37
635.145	12272.11
635.339	12239.34
635.533	11926
635.726	11856.37
635.92	11596.28
636.114	11573.75
636.308	11839.99
636.501	11649.53
636.695	11663.86
636.889	11459.07
637.083	11631.1
637.276	11448.83
637.47	11328
637.664	11266.56
637.857	11227.65
638.051	11393.53
638.244	11045.38
638.438	11028.99
638.632	11096.58
638.825	10787.33
639.019	10932.74
639.212	10809.86
639.406	10777.09
639.599	10613.26
639.793	10629.64
639.986	10420.75
640.18	10568.2
640.373	10514.95
640.567	10299.92
640.76	10410.51
640.954	10480.14
641.147	10326.54
641.34	10220.05
641.534	10238.48
641.727	10209.81
641.92	10136.08
642.114	9841.17
642.307	9886.23
642.5	9849.36
642.694	9732.63
642.887	9736.73
643.08	9759.25
643.273	9554.46
643.467	9505.31
643.66	9474.59
643.853	9466.39
644.046	9335.32
644.239	9331.23
644.432	9263.65
644.626	9265.69
644.819	9351.71
645.012	9380.38
645.205	8976.93
645.398	9239.07
645.591	9224.73
645.784	9054.75
645.977	8794.66
646.17	9019.94
646.363	8804.9
646.556	8712.74
646.749	8768.04
646.942	8858.15
647.135	8673.83
647.328	8602.15
647.521	8618.54
647.714	8499.75
647.907	8411.69
648.099	8501.8
648.292	8583.72
648.485	8464.94
648.678	8155.69
648.871	8243.76
649.064	8065.58
649.256	8231.47
649.449	8084.02
649.642	8213.04
649.835	8073.78
650.027	7914.03
650.22	7815.73
650.413	7928.37
650.605	7934.51
650.798	7836.21
650.991	8010.29
651.183	7895.6
651.376	7621.17
651.568	7879.22
651.761	7565.88
651.954	7498.3
652.146	7539.26
652.339	7629.37
652.531	7303.74
652.724	7557.69
652.916	7117.37
653.109	7610.93
653.301	7346.75
653.494	7291.45
653.686	7299.64
653.879	7356.99
654.071	7332.41
654.263	7064.13
654.456	7144
654.648	7072.32
654.84	6990.4
655.033	7023.17
655.225	7017.02
655.417	6947.39
655.61	7025.22
655.802	6851.14
655.994	6906.43
656.186	6879.81
656.379	6707.78
656.571	6730.31
656.763	6597.19
656.955	6586.95
657.148	6783.56
657.34	6537.8
657.532	6464.07
657.724	6490.7
657.916	6400.59
658.108	6556.23
658.3	6419.02
658.492	6482.5
658.684	6339.15
658.876	6214.22
659.068	6208.08
659.26	6144.59
659.452	6191.69
659.644	6285.9
659.836	6308.43
660.028	6140.49
660.22	5976.66
660.412	5884.5
660.604	6091.34
660.796	6048.33
660.988	6011.47
661.18	6072.91
661.372	5984.85
661.563	5919.31
661.755	5788.24
661.947	5911.12
662.139	5722.71
662.331	5886.54
662.522	5683.8
662.714	5902.93
662.906	5509.72
663.097	5591.64
663.289	5616.21
663.481	5618.26
663.673	5567.06
663.864	5491.29
664.056	5624.4
664.247	5487.19
664.439	5487.19
664.631	5425.75
664.822	5429.85
665.014	5530.2
665.205	5397.08
665.397	5429.85
665.588	5286.49
665.78	5229.15
665.971	5182.04
666.163	5294.68
666.354	5145.18
666.546	5171.8
666.737	5198.43
666.929	5210.72
667.12	5155.42
667.311	5141.08
667.503	5128.8
667.694	5016.16
667.885	4983.39
668.077	4985.44
668.268	4831.84
668.459	5005.92
668.651	4833.89
668.842	4921.95
669.033	4944.48
669.224	4827.74
669.416	4901.47
669.607	4760.16
669.798	4713.06
669.989	4934.24
670.18	4921.95
670.371	4756.07
670.563	4723.3
670.754	4811.36
670.945	4629.09
671.136	4676.2
671.327	4725.35
671.518	4700.77
671.709	4676.2
671.9	4596.32
672.091	4684.39
672.282	4598.37
672.473	4500.07
672.664	4711.01
672.855	4342.38
673.046	4608.61
673.237	4543.08
673.428	4373.1
673.619	4510.31
673.809	4575.84
674	4469.35
674.191	4485.73
674.382	4504.17
674.573	4395.62
674.764	4364.9
674.954	4461.16
675.145	4414.06
675.336	4395.62
675.527	4534.89
675.717	4426.34
675.908	4354.66
676.099	4387.43
676.289	4426.34
676.48	4350.57
676.671	4266.6
676.861	4211.31
677.052	4287.08
677.243	4207.21
677.433	4364.9
677.624	4246.12
677.814	4352.62
678.005	4299.37
678.195	4244.07
678.386	4170.35
678.576	4254.31
678.767	4123.24
678.957	4174.44
679.148	4280.94
679.338	4266.6
679.529	4252.27
679.719	4051.56
679.909	4113
680.1	4260.46
680.29	4315.75
680.481	4129.39
680.671	4135.53
680.861	4196.97
681.052	4182.63
681.242	4147.82
681.432	4166.25
681.622	4199.02
681.813	4104.81
682.003	4086.38
682.193	4033.13
682.383	4047.47
682.573	4022.89
682.764	4125.29
682.954	4098.67
683.144	4137.58
683.334	4129.39
683.524	4100.72
683.714	4174.44
683.904	3998.32
684.094	4088.43
684.284	4186.73
684.474	4231.79
684.664	3928.69
684.854	4115.05
685.044	3977.84
685.234	3918.45
685.424	4016.75
685.614	3994.22
685.804	3863.15
685.994	4041.32
686.184	3959.41
686.374	4037.23
686.564	3893.87
686.753	3977.84
686.943	3785.33
687.133	3973.74
687.323	3861.1
687.513	3809.9
687.702	3908.21
687.892	3846.77
688.082	3738.23
688.272	3822.19
688.461	3697.27
688.651	3846.77
688.841	3644.02
689.03	3660.4
689.22	3818.1
689.41	3601.01
689.599	3576.44
689.789	3641.97
689.979	3785.33
690.168	3646.07
690.358	3607.16
690.547	3537.52
690.737	3744.37
690.926	3596.92
691.116	3584.63
691.305	3662.45
691.495	3580.53
691.684	3404.41
691.874	3549.81
692.063	3570.29
692.252	3654.26
692.442	3553.91
692.631	3535.48
692.82	3502.71
693.01	3289.72
693.199	3416.69
693.388	3297.91
693.578	3385.97
693.767	3422.84
693.956	3437.17
694.146	3273.34
694.335	3416.69
694.524	3414.65
694.713	3400.31
694.902	3402.36
695.092	3340.92
695.281	3230.33
695.47	3365.5
695.659	3293.82
695.848	3295.86
696.037	3349.11
696.226	3396.21
696.415	3437.17
696.604	3312.25
696.793	3379.83
696.982	3353.21
697.171	3238.52
697.36	3248.76
697.549	3263.1
697.738	3297.91
697.927	3125.88
698.116	3347.06
698.305	3375.74
698.494	3295.86
698.683	3242.62
698.872	3279.48
699.061	3304.06
699.25	3156.6
699.438	3209.85
699.627	3164.79
699.816	3244.67
700.005	3259
700.193	3183.23
700.382	3353.21
700.571	3281.53
700.76	3134.07
700.948	3273.34
701.137	3261.05
701.326	3154.55
701.514	3199.61
701.703	3181.18
701.892	3172.99
702.08	3302.01
702.269	3080.83
702.457	3134.07
702.646	3285.62
702.834	3218.04
703.023	3211.9
703.212	3275.38
703.4	3244.67
703.589	3347.06
703.777	3109.5
703.965	3197.56
704.154	3189.37
704.342	3228.28
704.531	3166.84
704.719	2998.91
704.907	3203.71
705.096	3134.07
705.284	3101.31
705.472	3162.75
705.661	3244.67
705.849	3160.7
706.037	3150.46
706.226	3109.5
706.414	3148.41
706.602	3134.07
706.79	3324.54
706.979	3164.79
707.167	3103.36
707.355	3285.62
707.543	3199.61
707.731	3285.62
707.919	3189.37
708.107	3302.01
708.296	3172.99
708.484	3146.36
708.672	3189.37
708.86	3152.51
709.048	3113.6
709.236	3164.79
709.424	3150.46
709.612	3187.32
709.8	3256.95
709.988	3166.84
710.176	3179.13
710.364	3121.79
710.551	3281.53
710.739	3177.08
710.927	3224.19
711.115	3232.38
711.303	3334.78
711.491	3215.99
711.679	3236.47
711.866	3224.19
712.054	3220.09
712.242	3179.13
712.43	3228.28
712.617	3232.38
712.805	3195.51
712.993	3220.09
713.181	3166.84
713.368	3228.28
713.556	3326.58
713.744	3211.9
713.931	3228.28
714.119	3250.81
714.306	3175.03
714.494	3181.18
714.682	3224.19
714.869	3205.75
715.057	3179.13
715.244	3355.26
715.432	3271.29
715.619	3138.17
715.807	3234.43
715.994	3261.05
716.182	3351.16
716.369	3156.6
716.556	3304.06
716.744	3318.39
716.931	3232.38
717.119	3273.34
717.306	3158.65
717.493	3234.43
717.681	3328.63
717.868	3289.72
718.055	3224.19
718.242	3191.42
718.43	3353.21
718.617	3297.91
718.804	3209.85
718.991	3168.89
719.179	3248.76
719.366	3285.62
719.553	3347.06
719.74	3146.36
719.927	3330.68
720.114	3265.14
720.301	3267.19
720.488	3191.42
720.676	3215.99
720.863	3218.04
721.05	3347.06
721.237	3191.42
721.424	3201.66
721.611	3338.87
721.798	3277.43
721.985	3238.52
722.172	3236.47
722.358	3351.16
722.545	3332.73
722.732	3246.71
722.919	3283.58
723.106	3256.95
723.293	3318.39
723.48	3336.82
723.667	3322.49
723.853	3107.45
724.04	3322.49
724.227	3246.71
724.414	3175.03
724.6	3248.76
724.787	3191.42
724.974	3254.9
725.161	3312.25
725.347	3224.19
725.534	3123.84
725.72	3215.99
725.907	3125.88
726.094	3240.57
726.28	3218.04
726.467	3175.03
726.653	3324.54
726.84	3142.27
727.027	3234.43
727.213	3154.55
727.4	3103.36
727.586	3394.17
727.773	3248.76
727.959	3111.55
728.145	3259
728.332	3240.57
728.518	3185.27
728.705	3232.38
728.891	3248.76
729.077	3220.09
729.264	3215.99
729.45	3273.34
729.636	3302.01
729.823	3158.65
730.009	3082.88
730.195	3056.25
730.382	3232.38
730.568	3193.47
730.754	3297.91
730.94	3177.08
731.126	3265.14
731.313	3215.99
731.499	3213.95
731.685	3230.33
731.871	3138.17
732.057	3111.55
732.243	3195.51
732.429	3072.64
732.615	3183.23
732.801	3158.65
732.987	3199.61
733.173	3076.73
733.359	3070.59
733.545	3261.05
733.731	3115.64
733.917	3170.94
734.103	3136.12
734.289	3146.36
734.475	3213.95
734.661	3265.14
734.847	3193.47
735.033	3095.16
735.219	3084.92
735.404	3119.74
735.59	3205.75
735.776	3111.55
735.962	3148.41
736.148	3050.11
736.333	3041.92
736.519	2990.72
736.705	2988.67
736.89	2996.86
737.076	3099.26
737.262	2978.43
737.447	2986.62
737.633	3054.2
737.819	2994.81
738.004	3039.87
738.19	3031.68
738.375	3056.25
738.561	3060.35
738.747	3035.77
738.932	2972.29
739.118	3105.4
739.303	3017.34
739.489	2986.62
739.674	2935.42
739.859	3011.2
740.045	2927.23
740.23	2843.26
740.416	2841.22
740.601	2910.85
740.786	2986.62
740.972	2765.44
741.157	2861.69
741.342	2824.83
741.528	2790.02
741.713	2888.32
741.898	2837.12
742.084	2826.88
742.269	2837.12
742.454	2847.36
742.639	2744.96
742.824	2830.98
743.01	2867.84
743.195	2851.46
743.38	2638.47
743.565	2718.34
743.75	2683.52
743.935	2699.91
744.12	2779.78
744.305	2628.23
744.49	2617.99
744.675	2642.56
744.86	2595.46
745.045	2699.91
745.23	2544.26
745.415	2624.13
745.6	2564.74
745.785	2577.03
745.97	2511.49
746.155	2667.14
746.34	2552.45
746.525	2445.96
746.71	2480.77
746.895	2472.58
747.079	2564.74
747.264	2513.54
747.449	2421.38
747.634	2341.51
747.819	2607.75
748.003	2523.78
748.188	2476.68
748.373	2392.71
748.557	2478.72
748.742	2355.85
748.927	2327.18
749.111	2321.03
749.296	2357.89
749.481	2263.69
749.665	2370.18
749.85	2294.41
750.034	2151.05
750.219	2214.54
750.404	2288.26
750.588	2110.09
750.773	2108.04
750.957	2054.8
751.141	2200.2
751.326	2151.05
751.51	2134.67
751.695	2028.17
751.879	2105.99
752.064	2105.99
752.248	2083.47
752.432	2042.51
752.617	2062.99
752.801	2011.79
752.985	1976.97
753.17	2089.61
753.354	1976.97
753.538	1882.77
753.722	1981.07
753.907	1856.14
754.091	1919.63
754.275	1931.92
754.459	1835.66
754.643	1972.88
754.828	1768.08
755.012	1815.18
755.196	1880.72
755.38	1884.81
755.564	1868.43
755.748	1757.84
755.932	1737.36
756.116	1841.81
756.3	1710.74
756.484	1729.17
756.668	1794.7
756.852	1591.95
757.036	1780.37
757.22	1606.29
757.404	1669.78
757.588	1661.59
757.772	1669.78
757.956	1718.93
758.14	1669.78
758.323	1680.02
758.507	1575.57
758.691	1624.72
758.875	1598.1
759.059	1620.63
759.242	1571.47
759.426	1589.91
759.61	1575.57
759.794	1532.56
759.977	1481.36
760.161	1604.24
760.345	1467.03
760.528	1479.32
760.712	1501.84
760.895	1495.7
761.079	1503.89
761.263	1415.83
761.446	1536.66
761.63	1444.5
761.813	1446.55
761.997	1446.55
762.18	1436.31
762.364	1391.25
762.547	1366.68
762.731	1342.1
762.914	1419.93
763.098	1346.2
763.281	1374.87
763.464	1385.11
763.648	1378.97
763.831	1389.21
764.015	1374.87
764.198	1333.91
764.381	1295
764.564	1333.91
764.748	1335.96
764.931	1305.24
765.114	1372.82
765.297	1381.01
765.481	1266.33
765.664	1278.62
765.847	1245.85
766.03	1315.48
766.213	1229.46
766.397	1331.86
766.58	1278.62
766.763	1262.23
766.946	1258.14
767.129	1159.83
767.312	1139.35
767.495	1221.27
767.678	1233.56
767.861	1272.47
768.044	1237.66
768.227	1264.28
768.41	1151.64
768.593	1108.63
768.776	1182.36
768.959	1170.07
769.142	1266.33
769.324	1172.12
769.507	1125.02
769.69	1202.84
769.873	1141.4
770.056	1200.79
770.239	1174.17
770.421	1149.59
770.604	1116.83
770.787	1163.93
770.97	1213.08
771.152	1088.15
771.335	1094.3
771.518	1100.44
771.7	1094.3
771.883	1129.11
772.066	989.85
772.248	1143.45
772.431	1049.24
772.613	1016.48
772.796	1024.67
772.978	1014.43
773.161	1075.87
773.343	952.99
773.526	1002.14
773.708	963.23
773.891	989.85
774.073	1010.33
774.256	993.95
774.438	1018.52
774.621	1034.91
774.803	932.51
774.985	950.94
775.168	1010.33
775.35	1000.09
775.532	928.41
775.715	860.83
775.897	983.71
776.079	840.35
776.261	819.87
776.444	930.46
776.626	869.02
776.808	912.03
776.99	899.74
777.173	846.49
777.355	830.11
777.537	846.49
777.719	846.49
777.901	815.77
778.083	770.72
778.265	803.49
778.447	819.87
778.629	836.25
778.811	780.96
778.993	764.57
779.175	854.69
779.357	707.23
779.539	709.28
779.721	785.05
779.903	842.4
780.085	787.1
780.267	762.53
780.449	688.8
780.631	803.49
780.812	748.19
780.994	737.95
781.176	707.23
781.358	723.62
781.54	617.12
781.721	752.29
781.903	789.15
782.085	668.32
782.267	688.8
782.448	696.99
782.63	651.94
782.812	680.61
782.993	670.37
783.175	615.07
783.357	676.51
783.538	610.98
783.72	600.74
783.901	635.55
784.083	643.74
784.264	574.11
784.446	621.22
784.627	633.51
784.809	713.38
784.99	584.35
785.172	572.07
785.353	598.69
785.535	656.03
785.716	617.12
785.897	572.07
786.079	543.39
786.26	529.06
786.441	627.36
786.623	518.82
786.804	559.78
786.985	537.25
787.167	463.52
787.348	510.63
787.529	516.77
787.71	613.03
787.891	488.1
788.073	484
788.254	395.94
788.435	508.58
788.616	490.15
788.797	484
788.978	481.96
789.159	537.25
789.34	516.77
789.522	447.14
789.703	479.91
789.884	475.81
790.065	490.15
790.246	522.91
790.427	488.1
790.607	512.67
790.788	527.01
790.969	524.96
791.15	475.81
791.331	465.57
791.512	422.56
791.693	371.37
791.874	420.52
792.054	522.91
792.235	445.09
792.416	447.14
792.597	441
792.778	486.05
792.958	492.2
793.139	453.28
793.32	522.91
793.5	363.17
793.681	481.96
793.862	322.21
794.042	426.66
794.223	414.37
794.404	410.28
794.584	395.94
794.765	410.28
794.945	352.93
795.126	357.03
795.306	436.9
795.487	365.22
795.667	391.84
795.848	363.17
796.028	445.09
796.209	416.42
796.389	369.32
796.57	350.89
796.75	283.3
796.93	354.98
797.111	371.37
797.291	326.31
797.471	352.93
797.652	352.93
797.832	357.03
798.012	371.37
798.192	373.41
798.373	289.45
798.553	307.88
798.733	340.65
798.913	275.11
799.093	291.49
799.274	412.32
799.454	326.31
799.634	289.45
799.814	289.45
799.994	436.9
800.174	340.65
800.354	275.11
800.534	264.87
800.714	426.66
800.894	316.07
801.074	266.92
801.254	283.3
801.434	295.59
801.614	309.93
801.794	322.21
801.974	899.74
802.154	264.87
802.334	340.65
802.514	264.87
802.693	334.5
802.873	316.07
803.053	314.02
803.233	340.65
803.413	344.74
803.592	248.49
803.772	256.68
803.952	287.4
804.131	289.45
804.311	207.53
804.491	246.44
804.67	234.15
804.85	199.34
805.03	281.25
805.209	318.12
805.389	262.82
805.568	217.77
805.748	246.44
805.928	299.69
806.107	297.64
806.287	279.21
806.466	182.95
806.646	193.19
806.825	266.92
807.004	254.63
807.184	297.64
807.363	271.01
807.543	338.6
807.722	240.3
807.901	287.4
808.081	258.73
808.26	242.34
808.439	271.01
808.619	225.96
808.798	271.01
808.977	250.53
809.156	264.87
809.336	195.24
809.515	260.77
809.694	141.99
809.873	238.25
810.052	283.3
810.231	266.92
810.411	283.3
810.59	301.73
810.769	197.29
810.948	236.2
811.127	174.76
811.306	152.23
811.485	201.38
811.664	295.59
811.843	201.38
812.022	174.76
812.201	232.1
812.38	195.24
812.559	172.71
812.737	201.38
812.916	197.29
813.095	209.58
813.274	232.1
813.453	189.1
813.632	182.95
813.811	205.48
813.989	254.63
814.168	283.3
814.347	176.81
814.526	174.76
814.704	225.96
814.883	236.2
815.062	201.38
815.24	180.9
815.419	228.01
815.598	146.09
815.776	187.05
815.955	170.66
816.133	141.99
816.312	201.38
816.49	135.85
816.669	217.77
816.847	131.75
817.026	199.34
817.204	205.48
817.383	101.03
817.561	125.61
817.74	148.14
817.918	166.57
818.097	176.81
818.275	133.8
818.453	141.99
818.632	193.19
818.81	133.8
818.988	205.48
819.167	115.37
819.345	193.19
819.523	146.09
819.701	160.42
819.879	234.15
820.058	207.53
820.236	174.76
820.414	185
820.592	127.66
820.77	221.86
820.948	139.94
821.127	133.8
821.305	123.56
821.483	146.09
821.661	152.23
821.839	107.18
822.017	150.18
822.195	141.99
822.373	141.99
822.551	135.85
822.729	162.47
822.907	199.34
823.085	209.58
823.262	195.24
823.44	160.42
823.618	135.85
823.796	158.38
823.974	203.43
824.152	193.19
824.329	180.9
824.507	146.09
824.685	111.27
824.863	111.27
825.04	84.65
825.218	156.33
825.396	117.42
825.574	141.99
825.751	127.66
825.929	205.48
826.107	168.62
826.284	131.75
826.462	127.66
826.639	193.19
826.817	137.9
826.994	119.46
827.172	160.42
827.349	182.95
827.527	185
827.704	49.83
827.882	172.71
828.059	152.23
828.237	148.14
828.414	144.04
828.591	119.46
828.769	86.7
828.946	84.65
829.124	172.71
829.301	168.62
829.478	135.85
829.655	127.66
829.833	88.75
830.01	31.4
830.187	160.42
830.364	74.41
830.542	180.9
830.719	72.36
830.896	70.31
831.073	76.46
831.25	180.9
831.427	125.61
831.604	90.79
831.782	45.74
831.959	96.94
832.136	72.36
832.313	187.05
832.49	133.8
832.667	148.14
832.844	96.94
833.021	144.04
833.198	137.9
833.374	94.89
833.551	96.94
833.728	96.94
833.905	105.13
834.082	92.84
834.259	80.55
834.436	125.61
834.612	80.55
834.789	84.65
834.966	45.74
835.143	78.51
835.319	23.21
835.496	133.8
835.673	68.27
835.85	133.8
836.026	166.57
836.203	137.9
836.38	119.46
836.556	135.85
836.733	107.18
836.909	166.57
837.086	131.75
837.262	109.23
837.439	84.65
837.616	105.13
837.792	135.85
837.968	60.07
838.145	109.23
838.321	113.32
838.498	88.75
838.674	189.1
838.851	107.18
839.027	135.85
839.203	96.94
839.38	111.27
839.556	135.85
839.732	154.28
839.909	137.9
840.085	111.27
840.261	94.89
840.437	66.22
840.614	82.6
840.79	53.93
840.966	53.93
841.142	94.89
841.318	109.23
841.494	125.61
841.671	119.46
841.847	107.18
842.023	23.21
842.199	66.22
842.375	117.42
842.551	139.94
842.727	4.78
842.903	49.83
843.079	74.41
843.255	94.89
843.431	33.45
843.607	78.51
843.783	19.11
843.959	88.75
844.134	78.51
844.31	119.46
844.486	107.18
844.662	74.41
844.838	86.7
845.013	115.37
845.189	39.59
845.365	60.07
845.541	107.18
845.716	182.95
845.892	84.65
846.068	33.45
846.244	45.74
846.419	78.51
846.595	-38.23
846.77	23.21
846.946	125.61
847.122	49.83
847.297	78.51
847.473	105.13
847.648	37.55
847.824	103.08
847.999	162.47
848.175	39.59
848.35	135.85
848.526	43.69
848.701	111.27
848.876	90.79
849.052	111.27
849.227	10.92
849.403	27.31
849.578	43.69
849.753	111.27
849.929	-5.46
850.104	49.83
850.279	115.37
850.454	-11.61
850.63	29.35
850.805	49.83
850.98	33.45
851.155	123.56
851.33	53.93
851.505	51.88
851.681	139.94
851.856	55.98
852.031	101.03
852.206	12.97
852.381	51.88
852.556	55.98
852.731	109.23
852.906	70.31
853.081	29.35
853.256	51.88
853.431	21.16
853.606	62.12
853.781	82.6
853.956	62.12
854.131	68.27
854.305	29.35
854.48	41.64
854.655	76.46
854.83	58.03
855.005	21.16
855.18	12.97
855.354	51.88
855.529	60.07
855.704	4.78
855.879	96.94
856.053	-3.41
856.228	6.83
856.403	55.98
856.577	27.31
856.752	0.68
856.926	70.31
857.101	164.52
857.276	90.79
857.45	10.92
857.625	107.18
857.799	60.07
857.974	113.32
858.148	17.07
858.323	64.17
858.497	-19.8
858.672	35.5
858.846	-3.41
859.02	86.7
859.195	21.16
859.369	51.88
859.543	17.07
859.718	43.69
859.892	29.35
860.066	86.7
860.241	-11.61
860.415	41.64
860.589	2.73
860.763	37.55
860.938	4.78
861.112	58.03
861.286	0.68
861.46	27.31
861.634	41.64
861.808	49.83
861.982	25.26
862.157	41.64
862.331	-1.37
862.505	-25.94
862.679	-5.46
862.853	-11.61
863.027	2.73
863.201	92.84
863.375	92.84
863.549	4.78
863.722	43.69
863.896	98.99
864.07	62.12
864.244	55.98
864.418	10.92
864.592	8.87
864.766	58.03
864.939	76.46
865.113	-36.18
865.287	94.89
865.461	-11.61
865.634	66.22
865.808	29.35
865.982	39.59
866.156	33.45
866.329	-40.28
866.503	-13.65
866.676	68.27
866.85	4.78
867.024	29.35
867.197	-17.75
867.371	-38.23
867.544	31.4
867.718	4.78
867.891	15.02
868.065	21.16
868.238	-42.32
868.412	45.74
868.585	-1.37
868.759	6.83
868.932	68.27
869.105	8.87
869.279	10.92
869.452	41.64
869.625	35.5
869.799	-23.89
869.972	111.27
870.145	43.69
870.319	105.13
870.492	41.64
870.665	-15.7
870.838	94.89
871.011	29.35
871.185	68.27
871.358	-3.41
871.531	4.78
871.704	66.22
871.877	-32.08
872.05	15.02
872.223	35.5
872.396	12.97
872.569	31.4
872.742	15.02
872.915	29.35
873.088	-75.09
873.261	-7.51
873.434	37.55
873.607	66.22
873.78	17.07
873.953	49.83
874.126	-11.61
874.299	41.64
874.471	47.79
874.644	58.03
874.817	-62.8
874.99	90.79
875.163	17.07
875.335	2.73
875.508	4.78
875.681	58.03
875.853	62.12
876.026	72.36
876.199	51.88
876.371	66.22
876.544	-1.37
876.717	41.64
876.889	25.26
877.062	88.75
877.234	-1.37
877.407	-19.8
877.579	-19.8
877.752	-15.7
877.924	68.27
878.097	123.56
878.269	-23.89
878.442	-15.7
878.614	6.83
878.786	-1.37
878.959	-7.51
879.131	-7.51
879.303	-68.95
879.476	8.87
879.648	109.23
879.82	70.31
879.993	37.55
880.165	37.55
880.337	4.78
880.509	58.03
880.681	-7.51
880.854	6.83
881.026	62.12
881.198	115.37
881.37	12.97
881.542	88.75
881.714	-5.46
881.886	-36.18
882.058	68.27
882.23	82.6
882.402	39.59
882.574	113.32
882.746	51.88
882.918	-23.89
883.09	60.07
883.262	35.5
883.434	29.35
883.606	53.93
883.778	21.16
883.95	66.22
884.122	88.75
884.293	43.69
884.465	19.11
884.637	55.98
884.809	-5.46
884.98	6.83
885.152	-1.37
885.324	123.56
885.496	37.55
885.667	-7.51
885.839	21.16
886.011	88.75
886.182	43.69
886.354	6.83
886.525	4.78
886.697	12.97
886.869	-25.94
887.04	-50.52
887.212	62.12
887.383	-21.85
887.555	27.31
887.726	41.64
887.897	-73.04
888.069	-32.08
888.24	15.02
888.412	-30.04
888.583	35.5
888.754	17.07
888.926	-15.7
889.097	6.83
889.268	21.16
889.44	-42.32
889.611	-34.13
889.782	10.92
889.953	4.78
890.125	60.07
890.296	-62.8
890.467	37.55
890.638	12.97
890.809	12.97
890.98	35.5
891.151	-60.76
891.323	119.46
891.494	19.11
891.665	4.78
891.836	-25.94
892.007	64.17
892.178	101.03
892.349	15.02
892.52	58.03
892.691	15.02
892.862	-5.46
893.032	-11.61
893.203	-32.08
893.374	68.27
893.545	82.6
893.716	-58.71
893.887	8.87
894.057	25.26
894.228	-40.28
894.399	-19.8
894.57	53.93
894.74	41.64
894.911	17.07
895.082	-27.99
895.253	2.73
895.423	19.11
895.594	29.35
895.764	6.83
895.935	-58.71
896.106	66.22
896.276	-50.52
896.447	25.26
896.617	37.55
896.788	-27.99
896.958	25.26
897.129	-1.37
897.299	62.12
897.47	39.59
897.64	2.73
897.81	64.17
897.981	103.08
898.151	-46.42
898.322	-27.99
898.492	68.27
898.662	33.45
898.832	-19.8
899.003	31.4
899.173	-13.65
899.343	29.35
899.513	37.55
