Data from USB4F104151__169__10-27-25-279.txt Node

Date: Wed Mar 12 10:27:25 EDT 2025
User: louis
Spectrometer: USB4F10415
Trigger mode: 4
Integration Time (sec): 3.000000E-2
Scans to average: 1
Electric dark correction enabled: true
Nonlinearity correction enabled: false
Boxcar width: 0
XAxis mode: Wavelengths
Number of Pixels in Spectrum: 3648
>>>>>Begin Spectral Data<<<<<
178.204	-109.05
178.424	-109.05
178.644	-109.05
178.864	-88.57
179.084	-139.77
179.304	-0.51
179.524	15.87
179.744	-2.56
179.964	65.02
180.184	-31.23
180.404	13.82
180.624	42.5
180.844	22.02
181.064	-51.71
181.283	15.87
181.503	-14.85
181.723	-74.24
181.943	-64
182.163	11.78
182.383	67.07
182.602	-2.56
182.822	56.83
183.042	22.02
183.262	67.07
183.482	69.12
183.701	34.3
183.921	58.88
184.141	46.59
184.361	60.93
184.58	-27.14
184.8	-2.56
185.02	17.92
185.239	79.36
185.459	7.68
185.679	-2.56
185.898	22.02
186.118	11.78
186.338	36.35
186.557	83.45
186.777	50.69
186.997	105.98
187.216	-18.94
187.436	83.45
187.655	30.21
187.875	103.93
188.095	-25.09
188.314	83.45
188.534	56.83
188.753	50.69
188.973	17.92
189.192	24.06
189.412	54.78
189.631	24.06
189.851	89.6
190.07	71.17
190.29	-49.66
190.509	60.93
190.729	-16.9
190.948	62.98
191.168	116.22
191.387	73.21
191.607	-4.61
191.826	-25.09
192.045	99.84
192.265	26.11
192.484	42.5
192.704	24.06
192.923	-31.23
193.142	54.78
193.362	54.78
193.581	28.16
193.8	32.26
194.02	81.41
194.239	32.26
194.458	-41.47
194.678	-6.66
194.897	22.02
195.116	24.06
195.335	-18.94
195.555	26.11
195.774	44.54
195.993	65.02
196.212	40.45
196.432	-10.75
196.651	-80.38
196.87	34.3
197.089	65.02
197.308	67.07
197.528	56.83
197.747	36.35
197.966	-23.04
198.185	56.83
198.404	5.63
198.623	26.11
198.842	34.3
199.062	71.17
199.281	110.08
199.5	69.12
199.719	34.3
199.938	-4.61
200.157	108.03
200.376	-14.85
200.595	81.41
200.814	-6.66
201.033	97.79
201.252	71.17
201.471	42.5
201.69	34.3
201.909	38.4
202.128	79.36
202.347	-8.7
202.566	30.21
202.785	19.97
203.004	48.64
203.223	75.26
203.442	17.92
203.661	48.64
203.879	28.16
204.098	54.78
204.317	3.58
204.536	71.17
204.755	7.68
204.974	5.63
205.193	13.82
205.411	11.78
205.63	69.12
205.849	58.88
206.068	67.07
206.287	87.55
206.505	108.03
206.724	-16.9
206.943	-20.99
207.162	52.74
207.381	-16.9
207.599	-31.23
207.818	112.13
208.037	-18.94
208.255	-6.66
208.474	71.17
208.693	50.69
208.911	13.82
209.13	42.5
209.349	81.41
209.567	42.5
209.786	85.5
210.005	13.82
210.223	62.98
210.442	73.21
210.661	67.07
210.879	-23.04
211.098	-2.56
211.316	3.58
211.535	22.02
211.753	17.92
211.972	24.06
212.191	116.22
212.409	-6.66
212.628	91.65
212.846	-14.85
213.065	79.36
213.283	71.17
213.502	22.02
213.72	19.97
213.938	36.35
214.157	67.07
214.375	-16.9
214.594	62.98
214.812	-6.66
215.031	89.6
215.249	42.5
215.467	15.87
215.686	54.78
215.904	65.02
216.122	19.97
216.341	48.64
216.559	108.03
216.778	40.45
216.996	28.16
217.214	42.5
217.432	75.26
217.651	46.59
217.869	22.02
218.087	-2.56
218.306	69.12
218.524	9.73
218.742	36.35
218.96	26.11
219.179	-18.94
219.397	28.16
219.615	44.54
219.833	26.11
220.051	52.74
220.27	79.36
220.488	17.92
220.706	1.54
220.924	50.69
221.142	42.5
221.36	30.21
221.578	1.54
221.796	-14.85
222.015	22.02
222.233	44.54
222.451	62.98
222.669	17.92
222.887	38.4
223.105	56.83
223.323	-45.57
223.541	-2.56
223.759	75.26
223.977	34.3
224.195	67.07
224.413	-2.56
224.631	52.74
224.849	40.45
225.067	91.65
225.285	40.45
225.503	89.6
225.721	54.78
225.939	48.64
226.157	40.45
226.375	112.13
226.592	40.45
226.81	56.83
227.028	-14.85
227.246	97.79
227.464	9.73
227.682	67.07
227.9	58.88
228.117	40.45
228.335	42.5
228.553	26.11
228.771	-31.23
228.989	11.78
229.206	30.21
229.424	38.4
229.642	-12.8
229.86	56.83
230.077	87.55
230.295	24.06
230.513	46.59
230.731	79.36
230.948	75.26
231.166	75.26
231.384	-8.7
231.601	73.21
231.819	42.5
232.037	34.3
232.254	15.87
232.472	-25.09
232.689	-18.94
232.907	71.17
233.125	26.11
233.342	5.63
233.56	-2.56
233.777	69.12
233.995	9.73
234.213	112.13
234.43	42.5
234.648	52.74
234.865	50.69
235.083	-8.7
235.3	30.21
235.518	50.69
235.735	142.85
235.953	-0.51
236.17	67.07
236.388	101.89
236.605	32.26
236.822	34.3
237.04	38.4
237.257	48.64
237.475	-33.28
237.692	26.11
237.909	40.45
238.127	-53.76
238.344	26.11
238.562	-29.18
238.779	58.88
238.996	-2.56
239.214	-6.66
239.431	79.36
239.648	75.26
239.865	65.02
240.083	7.68
240.3	44.54
240.517	-10.75
240.735	-6.66
240.952	75.26
241.169	56.83
241.386	15.87
241.603	71.17
241.821	-20.99
242.038	77.31
242.255	69.12
242.472	-6.66
242.689	136.7
242.907	19.97
243.124	-8.7
243.341	24.06
243.558	50.69
243.775	36.35
243.992	46.59
244.209	46.59
244.426	75.26
244.643	17.92
244.86	32.26
245.078	58.88
245.295	38.4
245.512	65.02
245.729	79.36
245.946	19.97
246.163	134.65
246.38	83.45
246.597	-14.85
246.814	54.78
247.031	75.26
247.248	75.26
247.464	128.51
247.681	17.92
247.898	62.98
248.115	-16.9
248.332	-8.7
248.549	71.17
248.766	169.47
248.983	60.93
249.2	-33.28
249.417	3.58
249.633	-18.94
249.85	36.35
250.067	-31.23
250.284	62.98
250.501	48.64
250.717	52.74
250.934	-31.23
251.151	17.92
251.368	99.84
251.585	32.26
251.801	52.74
252.018	-59.9
252.235	22.02
252.451	-29.18
252.668	87.55
252.885	67.07
253.102	87.55
253.318	44.54
253.535	-27.14
253.752	36.35
253.968	-29.18
254.185	-37.38
254.401	34.3
254.618	87.55
254.835	110.08
255.051	101.89
255.268	5.63
255.484	42.5
255.701	-2.56
255.917	105.98
256.134	50.69
256.351	85.5
256.567	124.41
256.784	67.07
257	7.68
257.217	108.03
257.433	24.06
257.65	79.36
257.866	32.26
258.082	-27.14
258.299	-47.62
258.515	108.03
258.732	36.35
258.948	26.11
259.165	-23.04
259.381	1.54
259.597	-39.42
259.814	44.54
260.03	48.64
260.246	91.65
260.463	65.02
260.679	50.69
260.895	-12.8
261.112	50.69
261.328	81.41
261.544	-6.66
261.761	110.08
261.977	34.3
262.193	-18.94
262.409	58.88
262.626	9.73
262.842	34.3
263.058	9.73
263.274	67.07
263.49	71.17
263.707	40.45
263.923	114.17
264.139	17.92
264.355	5.63
264.571	32.26
264.787	75.26
265.004	32.26
265.22	-29.18
265.436	-20.99
265.652	52.74
265.868	67.07
266.084	65.02
266.3	13.82
266.516	81.41
266.732	-20.99
266.948	-6.66
267.164	30.21
267.38	38.4
267.596	112.13
267.812	-6.66
268.028	122.37
268.244	-33.28
268.46	67.07
268.676	54.78
268.892	42.5
269.108	34.3
269.324	42.5
269.54	30.21
269.756	65.02
269.972	-31.23
270.188	54.78
270.403	52.74
270.619	38.4
270.835	50.69
271.051	1.54
271.267	56.83
271.483	46.59
271.698	71.17
271.914	-29.18
272.13	42.5
272.346	42.5
272.562	-0.51
272.777	38.4
272.993	-55.81
273.209	11.78
273.425	9.73
273.64	67.07
273.856	-10.75
274.072	-31.23
274.287	28.16
274.503	17.92
274.719	69.12
274.934	71.17
275.15	-14.85
275.366	30.21
275.581	9.73
275.797	60.93
276.012	85.5
276.228	24.06
276.444	7.68
276.659	28.16
276.875	30.21
277.09	-35.33
277.306	-2.56
277.521	56.83
277.737	15.87
277.952	91.65
278.168	62.98
278.383	105.98
278.599	93.69
278.814	38.4
279.03	48.64
279.245	83.45
279.461	9.73
279.676	54.78
279.892	50.69
280.107	40.45
280.322	46.59
280.538	134.65
280.753	54.78
280.969	52.74
281.184	30.21
281.399	42.5
281.615	50.69
281.83	65.02
282.045	-0.51
282.26	11.78
282.476	13.82
282.691	26.11
282.906	42.5
283.122	26.11
283.337	40.45
283.552	42.5
283.767	13.82
283.983	56.83
284.198	3.58
284.413	15.87
284.628	34.3
284.843	50.69
285.058	101.89
285.274	-76.29
285.489	83.45
285.704	67.07
285.919	-2.56
286.134	40.45
286.349	3.58
286.564	19.97
286.779	99.84
286.995	-25.09
287.21	32.26
287.425	-20.99
287.64	40.45
287.855	34.3
288.07	28.16
288.285	30.21
288.5	67.07
288.715	67.07
288.93	7.68
289.145	50.69
289.36	60.93
289.575	52.74
289.79	13.82
290.004	24.06
290.219	26.11
290.434	-98.81
290.649	54.78
290.864	87.55
291.079	-37.38
291.294	81.41
291.509	73.21
291.724	77.31
291.938	40.45
292.153	11.78
292.368	26.11
292.583	7.68
292.798	50.69
293.012	75.26
293.227	-14.85
293.442	-0.51
293.657	-51.71
293.871	153.09
294.086	56.83
294.301	87.55
294.516	79.36
294.73	48.64
294.945	-25.09
295.16	54.78
295.374	34.3
295.589	71.17
295.804	42.5
296.018	17.92
296.233	54.78
296.447	67.07
296.662	9.73
296.877	171.52
297.091	60.93
297.306	40.45
297.52	81.41
297.735	46.59
297.949	26.11
298.164	71.17
298.378	22.02
298.593	-68.09
298.807	13.82
299.022	9.73
299.236	32.26
299.451	-20.99
299.665	62.98
299.88	50.69
300.094	30.21
300.309	30.21
300.523	67.07
300.737	17.92
300.952	75.26
301.166	75.26
301.381	32.26
301.595	1.54
301.809	46.59
302.024	85.5
302.238	75.26
302.452	54.78
302.667	99.84
302.881	9.73
303.095	50.69
303.309	42.5
303.524	48.64
303.738	30.21
303.952	22.02
304.166	71.17
304.381	-14.85
304.595	118.27
304.809	42.5
305.023	101.89
305.237	65.02
305.452	24.06
305.666	-0.51
305.88	54.78
306.094	58.88
306.308	112.13
306.522	7.68
306.736	99.84
306.95	62.98
307.164	73.21
307.379	30.21
307.593	-49.66
307.807	-2.56
308.021	42.5
308.235	91.65
308.449	71.17
308.663	-16.9
308.877	173.57
309.091	40.45
309.305	38.4
309.519	87.55
309.733	50.69
309.947	3.58
310.161	69.12
310.374	56.83
310.588	30.21
310.802	22.02
311.016	5.63
311.23	-31.23
311.444	60.93
311.658	58.88
311.872	73.21
312.085	69.12
312.299	91.65
312.513	26.11
312.727	69.12
312.941	44.54
313.154	73.21
313.368	7.68
313.582	30.21
313.796	24.06
314.009	-8.7
314.223	54.78
314.437	-12.8
314.651	34.3
314.864	103.93
315.078	5.63
315.292	-12.8
315.505	30.21
315.719	122.37
315.933	30.21
316.146	112.13
316.36	38.4
316.573	62.98
316.787	34.3
317.001	99.84
317.214	-23.04
317.428	15.87
317.641	50.69
317.855	-41.47
318.068	77.31
318.282	62.98
318.495	67.07
318.709	89.6
318.922	17.92
319.136	103.93
319.349	108.03
319.563	67.07
319.776	67.07
319.99	-76.29
320.203	58.88
320.417	50.69
320.63	38.4
320.843	77.31
321.057	44.54
321.27	22.02
321.483	24.06
321.697	77.31
321.91	9.73
322.124	54.78
322.337	40.45
322.55	26.11
322.763	-2.56
322.977	1.54
323.19	32.26
323.403	-0.51
323.617	-6.66
323.83	75.26
324.043	38.4
324.256	75.26
324.469	7.68
324.683	62.98
324.896	17.92
325.109	36.35
325.322	30.21
325.535	32.26
325.748	42.5
325.962	38.4
326.175	22.02
326.388	71.17
326.601	130.56
326.814	5.63
327.027	56.83
327.24	110.08
327.453	-18.94
327.666	56.83
327.879	108.03
328.092	77.31
328.305	87.55
328.518	-10.75
328.731	87.55
328.944	-0.51
329.157	-18.94
329.37	89.6
329.583	60.93
329.796	99.84
330.009	1.54
330.222	62.98
330.435	-47.62
330.648	22.02
330.861	-23.04
331.073	7.68
331.286	75.26
331.499	34.3
331.712	-6.66
331.925	62.98
332.138	-8.7
332.35	103.93
332.563	44.54
332.776	26.11
332.989	-25.09
333.202	-16.9
333.414	-8.7
333.627	112.13
333.84	34.3
334.053	95.74
334.265	114.17
334.478	11.78
334.691	1.54
334.903	56.83
335.116	-23.04
335.329	24.06
335.541	73.21
335.754	89.6
335.966	9.73
336.179	50.69
336.392	36.35
336.604	17.92
336.817	56.83
337.029	114.17
337.242	1.54
337.454	116.22
337.667	28.16
337.88	58.88
338.092	81.41
338.305	22.02
338.517	-14.85
338.729	67.07
338.942	-0.51
339.154	34.3
339.367	54.78
339.579	83.45
339.792	-12.8
340.004	69.12
340.217	50.69
340.429	62.98
340.641	3.58
340.854	11.78
341.066	-12.8
341.278	85.5
341.491	69.12
341.703	120.32
341.915	17.92
342.128	5.63
342.34	-0.51
342.552	30.21
342.764	34.3
342.977	26.11
343.189	48.64
343.401	101.89
343.613	34.3
343.826	67.07
344.038	-4.61
344.25	42.5
344.462	17.92
344.674	-20.99
344.886	56.83
345.099	153.09
345.311	-31.23
345.523	-0.51
345.735	36.35
345.947	60.93
346.159	81.41
346.371	32.26
346.583	36.35
346.795	89.6
347.007	73.21
347.219	42.5
347.431	42.5
347.643	69.12
347.855	46.59
348.067	17.92
348.279	-76.29
348.491	-84.48
348.703	40.45
348.915	26.11
349.127	38.4
349.339	77.31
349.551	9.73
349.763	144.89
349.975	32.26
350.187	3.58
350.399	48.64
350.61	124.41
350.822	9.73
351.034	-6.66
351.246	75.26
351.458	108.03
351.669	83.45
351.881	91.65
352.093	97.79
352.305	81.41
352.517	73.21
352.728	71.17
352.94	50.69
353.152	58.88
353.363	79.36
353.575	89.6
353.787	95.74
353.999	67.07
354.21	136.7
354.422	50.69
354.633	7.68
354.845	22.02
355.057	24.06
355.268	46.59
355.48	50.69
355.692	46.59
355.903	11.78
356.115	62.98
356.326	-23.04
356.538	103.93
356.749	77.31
356.961	65.02
357.172	-2.56
357.384	52.74
357.595	48.64
357.807	5.63
358.018	9.73
358.23	87.55
358.441	91.65
358.653	124.41
358.864	34.3
359.075	71.17
359.287	-29.18
359.498	189.95
359.709	17.92
359.921	26.11
360.132	71.17
360.344	116.22
360.555	26.11
360.766	75.26
360.977	48.64
361.189	101.89
361.4	128.51
361.611	77.31
361.823	46.59
362.034	95.74
362.245	-29.18
362.456	77.31
362.667	71.17
362.879	116.22
363.09	17.92
363.301	87.55
363.512	26.11
363.723	-39.42
363.935	75.26
364.146	112.13
364.357	73.21
364.568	91.65
364.779	128.51
364.99	62.98
365.201	89.6
365.412	67.07
365.623	34.3
365.834	97.79
366.045	44.54
366.256	95.74
366.467	69.12
366.678	22.02
366.889	-18.94
367.1	5.63
367.311	112.13
367.522	-6.66
367.733	28.16
367.944	101.89
368.155	9.73
368.366	77.31
368.577	91.65
368.788	3.58
368.999	30.21
369.209	69.12
369.42	101.89
369.631	17.92
369.842	110.08
370.053	30.21
370.264	144.89
370.474	73.21
370.685	1.54
370.896	38.4
371.107	13.82
371.317	71.17
371.528	83.45
371.739	73.21
371.95	91.65
372.16	67.07
372.371	105.98
372.582	75.26
372.792	85.5
373.003	101.89
373.214	-6.66
373.424	-35.33
373.635	93.69
373.846	19.97
374.056	79.36
374.267	101.89
374.477	71.17
374.688	114.17
374.898	60.93
375.109	79.36
375.319	67.07
375.53	19.97
375.74	75.26
375.951	54.78
376.161	22.02
376.372	120.32
376.582	-10.75
376.793	97.79
377.003	71.17
377.214	73.21
377.424	19.97
377.635	103.93
377.845	81.41
378.055	93.69
378.266	5.63
378.476	26.11
378.686	62.98
378.897	85.5
379.107	105.98
379.317	114.17
379.528	17.92
379.738	120.32
379.948	42.5
380.158	65.02
380.369	9.73
380.579	22.02
380.789	9.73
380.999	7.68
381.21	62.98
381.42	114.17
381.63	81.41
381.84	1.54
382.05	22.02
382.261	134.65
382.471	97.79
382.681	-43.52
382.891	42.5
383.101	62.98
383.311	9.73
383.521	42.5
383.731	48.64
383.941	62.98
384.151	99.84
384.361	62.98
384.571	50.69
384.781	7.68
384.991	105.98
385.201	142.85
385.411	52.74
385.621	46.59
385.831	95.74
386.041	105.98
386.251	34.3
386.461	116.22
386.671	13.82
386.881	52.74
387.091	140.8
387.301	-0.51
387.511	173.57
387.72	-14.85
387.93	46.59
388.14	26.11
388.35	99.84
388.56	52.74
388.769	91.65
388.979	81.41
389.189	50.69
389.399	-14.85
389.609	71.17
389.818	93.69
390.028	38.4
390.238	132.61
390.447	54.78
390.657	62.98
390.867	36.35
391.076	34.3
391.286	22.02
391.496	65.02
391.705	17.92
391.915	75.26
392.125	83.45
392.334	140.8
392.544	114.17
392.753	148.99
392.963	95.74
393.172	67.07
393.382	75.26
393.591	36.35
393.801	110.08
394.01	146.94
394.22	87.55
394.429	69.12
394.639	24.06
394.848	93.69
395.058	46.59
395.267	91.65
395.477	103.93
395.686	28.16
395.895	124.41
396.105	148.99
396.314	95.74
396.524	97.79
396.733	50.69
396.942	128.51
397.152	69.12
397.361	101.89
397.57	97.79
397.78	138.75
397.989	120.32
398.198	89.6
398.407	52.74
398.617	99.84
398.826	112.13
399.035	67.07
399.244	34.3
399.453	83.45
399.663	138.75
399.872	108.03
400.081	97.79
400.29	171.52
400.499	38.4
400.708	151.04
400.917	144.89
401.127	128.51
401.336	99.84
401.545	181.76
401.754	196.09
401.963	144.89
402.172	146.94
402.381	62.98
402.59	146.94
402.799	71.17
403.008	163.33
403.217	124.41
403.426	99.84
403.635	157.18
403.844	-23.04
404.053	108.03
404.262	194.05
404.471	198.14
404.68	173.57
404.888	89.6
405.097	126.46
405.306	153.09
405.515	159.23
405.724	128.51
405.933	253.44
406.142	187.9
406.35	151.04
406.559	230.91
406.768	247.29
406.977	181.76
407.185	218.62
407.394	171.52
407.603	138.75
407.812	226.81
408.02	296.44
408.229	187.9
408.438	194.05
408.646	175.61
408.855	228.86
409.064	271.87
409.272	255.48
409.481	284.16
409.69	226.81
409.898	280.06
410.107	237.05
410.315	321.02
410.524	357.88
410.733	288.25
410.941	359.93
411.15	292.35
411.358	417.27
411.567	366.07
411.775	445.95
411.984	456.19
412.192	452.09
412.401	349.69
412.609	433.66
412.818	523.77
413.026	531.96
413.234	462.33
413.443	511.48
413.651	493.05
413.86	542.2
414.068	634.36
414.276	642.55
414.485	669.17
414.693	603.64
414.901	689.65
415.11	646.65
415.318	648.69
415.526	648.69
415.734	722.42
415.943	738.8
416.151	765.43
416.359	781.81
416.567	787.96
416.776	828.92
416.984	992.75
417.192	945.65
417.4	919.03
417.608	935.41
417.817	943.6
418.025	1054.19
418.233	1095.15
418.441	1105.39
418.649	1175.02
418.857	1263.08
419.065	1291.76
419.273	1183.21
419.481	1250.8
419.689	1295.85
419.897	1414.63
420.105	1492.46
420.313	1504.75
420.521	1506.79
420.729	1525.22
420.937	1613.29
421.145	1662.44
421.353	1783.27
421.561	1775.08
421.769	1848.8
421.977	1938.91
422.185	2043.36
422.393	2000.35
422.601	2151.9
422.809	2090.46
423.017	2164.19
423.224	2227.68
423.432	2389.47
423.64	2303.45
423.848	2667.99
424.056	2557.4
424.263	2663.9
424.471	2754.01
424.679	2708.95
424.887	2962.9
425.094	3110.35
425.302	2993.62
425.51	3104.21
425.718	3134.93
425.925	3214.8
426.133	3362.25
426.341	3665.35
426.548	3694.02
426.756	3720.65
426.964	3763.65
427.171	3995.08
427.379	4033.99
427.586	4212.16
427.794	4109.76
428.001	4349.37
428.209	4816.31
428.417	4718.01
428.624	4777.4
428.832	4947.38
429.039	4816.31
429.247	5004.72
429.454	5416.37
429.662	5916.07
429.869	5348.78
430.076	5866.92
430.284	5565.87
430.491	5805.48
430.699	6270.37
430.906	6004.13
431.114	6112.67
431.321	6548.89
431.528	6520.22
431.736	6989.21
431.943	7245.2
432.15	7144.85
432.358	7175.57
432.565	7638.41
432.772	7650.7
432.979	7972.23
433.187	7923.08
433.394	8095.11
433.601	8570.24
433.808	8783.23
434.016	8422.78
434.223	9008.5
434.43	9520.49
434.637	9436.53
434.844	9958.76
435.052	10173.8
435.259	10112.36
435.466	10038.63
435.673	9971.05
435.88	10847.58
436.087	11410.77
436.294	11162.97
436.501	11226.45
436.708	11150.68
436.915	11431.25
437.122	12039.5
437.329	11896.14
437.537	12567.87
437.743	12606.78
437.95	12459.33
438.157	13139.26
438.364	13712.69
438.571	13466.93
438.778	13573.42
438.985	15095.07
439.192	14419.24
439.399	14931.23
439.606	14472.48
439.813	15346.97
440.02	16252.17
440.227	16172.3
440.433	15613.2
440.64	16229.64
440.847	16266.5
441.054	16547.08
441.261	17675.51
441.467	17591.54
441.674	18019.57
441.881	18320.62
442.088	18248.94
442.294	18210.03
442.501	19008.73
442.708	18969.82
442.914	19784.91
443.121	20552.9
443.328	20165.84
443.534	21402.81
443.741	20759.75
443.948	20421.83
444.154	22416.55
444.361	21845.17
444.568	22211.76
444.774	22109.36
444.981	22555.82
445.187	22967.46
445.394	24216.72
445.6	23608.47
445.807	26037.36
446.013	24560.78
446.22	25216.13
446.426	26354.8
446.633	26797.16
446.839	27200.61
447.046	26147.95
447.252	27782.23
447.459	27579.48
447.665	27307.1
447.871	28918.85
448.078	30354.48
448.284	28626
448.491	29549.63
448.697	30026.81
448.903	30897.19
449.11	30823.47
449.316	30231.6
449.522	30893.1
449.728	31853.59
449.935	32480.27
450.141	31872.03
450.347	32863.24
450.553	31267.87
450.76	31786.01
450.966	32893.96
451.172	32590.86
451.378	33231.88
451.584	32459.79
451.791	33586.18
451.997	33176.58
452.203	33707.01
452.409	33911.8
452.615	33659.9
452.821	32379.92
453.027	31831.07
453.233	33573.89
453.44	32216.08
453.646	32494.61
453.852	32936.97
454.058	33369.09
454.264	31779.87
454.47	32777.23
454.676	31941.66
454.882	32871.43
455.088	30055.48
455.294	30690.35
455.5	30864.43
455.705	31345.7
455.911	30217.27
456.117	29260.87
456.323	29035.59
456.529	27483.23
456.735	28478.54
456.941	27747.42
457.147	27333.73
457.352	26449
457.558	26205.3
457.764	26350.7
457.97	25791.61
458.176	25355.39
458.381	25068.67
458.587	23813.27
458.793	23925.91
458.999	22430.89
459.204	24298.64
459.41	23577.75
459.616	22090.93
459.821	22095.02
460.027	22119.6
460.233	21546.17
460.438	20567.24
460.644	20643.01
460.85	19739.86
461.055	19444.95
461.261	19614.93
461.466	17898.73
461.672	17337.59
461.878	18578.66
462.083	17577.2
462.289	17050.88
462.494	16925.95
462.7	16090.38
462.905	15975.69
463.111	16567.56
463.316	16502.02
463.522	16215.3
463.727	16215.3
463.932	16137.48
464.138	15916.3
464.343	15983.88
464.549	15432.98
464.754	15981.84
464.959	15791.38
465.165	15717.65
465.37	15068.44
465.575	14744.86
465.781	15176.98
465.986	15408.4
466.191	14753.05
466.397	14507.3
466.602	13854
466.807	14495.01
467.012	14476.58
467.218	14411.04
467.423	14001.45
467.628	14210.34
467.833	14882.08
468.038	14263.59
468.244	13878.57
468.449	14312.74
468.654	13866.28
468.859	13808.94
469.064	13557.04
469.269	13438.26
469.474	13292.85
469.679	13649.2
469.885	12946.75
470.09	13346.1
470.295	13061.43
470.5	13071.67
470.705	13235.51
470.91	12522.82
471.115	12698.94
471.32	12827.96
471.525	12614.98
471.73	12524.86
471.935	12272.96
472.139	12055.88
472.344	12150.09
472.549	11849.04
472.754	11846.99
472.959	11615.57
473.164	11246.93
473.369	11248.98
473.574	11605.33
473.778	11568.46
473.983	11281.75
474.188	11226.45
474.393	10773.85
474.598	11068.76
474.802	10732.89
475.007	10788.19
475.212	10790.24
475.417	10401.12
475.621	10431.84
475.826	10487.14
476.031	10270.05
476.235	10077.54
476.44	10095.97
476.645	10087.78
476.849	9870.7
477.054	9733.48
477.259	9745.77
477.463	9823.59
477.668	9442.67
477.872	9510.25
478.077	9465.2
478.282	9092.47
478.486	9059.7
478.691	9162.1
478.895	9076.09
479.1	9213.3
479.304	9059.7
479.509	8842.62
479.713	8930.68
479.918	8715.64
480.122	8578.43
480.326	8871.29
480.531	8660.35
480.735	8762.75
480.94	8625.53
481.144	8764.79
481.348	8570.24
481.553	8715.64
481.757	8406.4
481.961	8484.22
482.166	8635.77
482.37	8570.24
482.574	8271.23
482.778	8316.29
482.983	8580.48
483.187	8439.17
483.391	8406.4
483.595	8340.86
483.8	8211.84
484.004	8369.54
484.208	8443.26
484.412	8572.29
484.616	8390.02
484.821	8486.27
485.025	8396.16
485.229	8512.89
485.433	8457.6
485.637	8496.51
485.841	8404.35
486.045	8437.12
486.249	8344.96
486.453	8179.08
486.657	8336.77
486.861	8402.3
487.065	8160.64
487.269	8471.93
487.473	8185.22
487.677	8504.7
487.881	8467.84
488.085	8379.78
488.289	8562.05
488.493	8371.58
488.697	8465.79
488.901	8545.66
489.105	8222.08
489.309	8562.05
489.512	8387.97
489.716	8549.76
489.92	8607.1
490.124	8312.19
490.328	8500.61
490.531	8443.26
490.735	8729.98
490.939	8738.17
491.143	8682.88
491.346	8789.37
491.55	8680.83
491.754	8672.64
491.958	8697.21
492.161	8863.1
492.365	8809.85
492.569	8850.81
492.772	8836.47
492.976	9147.76
493.18	9139.57
493.383	9170.29
493.587	9217.4
493.79	9213.3
493.994	8963.45
494.197	9305.46
494.401	9149.81
494.605	9528.69
494.808	9678.19
495.012	9577.84
495.215	9583.98
495.419	9612.65
495.622	9772.39
495.825	10012.01
496.029	9770.35
496.232	10108.26
496.436	9889.13
496.639	10427.74
496.843	10231.14
497.046	10237.28
497.249	10501.47
497.453	10618.21
497.656	10671.45
497.859	10642.78
498.063	10675.55
498.266	10884.44
498.469	10945.88
498.673	11076.95
498.876	11232.6
499.079	11347.28
499.282	11222.36
499.485	11472.21
499.689	11715.92
499.892	12014.92
500.095	11803.98
500.298	12205.38
500.501	11947.34
500.705	12444.99
500.908	12531.01
501.111	12916.03
501.314	12664.13
501.517	12870.97
501.72	13043
501.923	13098.3
502.126	13378.87
502.329	13364.53
502.532	13450.55
502.735	13487.41
502.938	13913.39
503.141	14118.18
503.344	14169.38
503.547	14284.07
503.75	14581.03
503.953	14693.66
504.156	15009.05
504.359	14910.75
504.562	15068.44
504.765	15545.62
504.968	15547.67
505.17	15707.41
505.373	15684.88
505.576	15975.69
505.779	16192.78
505.982	16153.87
506.185	16129.29
506.387	16549.12
506.59	16483.59
506.793	17069.31
506.996	16991.48
507.198	17540.34
507.401	17143.03
507.604	17845.49
507.807	18046.19
508.009	17902.83
508.212	18083.05
508.415	18392.3
508.617	18373.86
508.82	18595.04
509.022	18535.65
509.225	18990.3
509.428	19186.91
509.63	19416.28
509.833	19541.21
510.035	20098.25
510.238	19907.79
510.44	20055.25
510.643	20585.67
510.845	20786.37
511.048	20360.39
511.25	20704.45
511.453	21042.37
511.655	21953.71
511.858	21402.81
512.06	21753.01
512.262	21611.7
512.465	22025.39
512.667	22346.92
512.87	22428.84
513.072	22500.52
513.274	23174.3
513.477	23133.34
513.679	23667.86
513.881	23413.91
514.084	23798.93
514.286	23837.84
514.488	23745.69
514.69	24609.93
514.893	24835.21
515.095	24734.85
515.297	25302.14
515.499	25412.73
515.701	25791.61
515.904	26127.47
516.106	26141.81
516.308	26121.33
516.51	26815.59
516.712	26602.6
516.914	27171.94
517.116	27014.24
517.318	27284.58
517.52	27493.47
517.722	27720.79
517.925	28132.43
518.127	28429.39
518.329	28818.5
518.531	28443.73
518.733	28920.9
518.935	29178.95
519.136	29217.86
519.338	29817.91
519.54	29946.94
519.742	30194.74
519.944	30495.79
520.146	30628.91
520.348	30708.78
520.55	31159.33
520.752	31134.76
520.954	31824.92
521.155	31740.96
521.357	32132.12
521.559	32300.05
521.761	32492.56
521.963	32619.53
522.164	32742.41
522.366	32842.76
522.568	33467.39
522.77	33102.85
522.971	34327.54
523.173	33922.04
523.375	34204.66
523.576	33983.48
523.778	34108.41
523.98	34655.22
524.181	34892.78
524.383	34862.06
524.584	35568.61
524.786	35077.1
524.988	35181.54
525.189	35738.59
525.391	36015.07
525.592	35931.1
525.794	36658.13
525.995	36287.45
526.197	36158.42
526.398	36522.96
526.6	36875.21
526.801	37047.24
527.003	37211.08
527.204	36850.64
527.406	37567.43
527.607	37350.34
527.808	37755.84
528.01	36998.09
528.211	37721.02
528.412	38134.71
528.614	38452.15
528.815	38103.99
529.016	38566.84
529.218	38550.45
529.419	38265.78
529.62	38071.23
529.822	38611.89
530.023	38689.71
530.224	38513.59
530.425	38724.53
530.626	38378.42
530.828	38347.7
531.029	39500.71
531.23	38687.67
531.431	38792.11
531.632	39084.97
531.833	39107.5
532.035	38798.26
532.236	39115.69
532.437	39529.38
532.638	38794.16
532.839	39117.74
533.04	39224.23
533.241	39162.79
533.442	39949.21
533.643	39621.54
533.844	39484.33
534.045	39613.35
534.246	39594.92
534.447	39480.23
534.648	39551.91
534.849	39859.1
535.05	39480.23
535.251	39689.12
535.451	39113.64
535.652	39617.44
535.853	39611.3
536.054	39871.39
536.255	39973.79
536.456	39351.21
536.657	39992.22
536.857	39492.52
537.058	39660.45
537.259	39670.69
537.46	39758.75
537.66	39435.17
537.861	39472.04
538.062	39656.35
538.263	39713.7
538.463	39523.24
538.664	39416.74
538.865	39574.44
539.065	39951.26
539.266	39527.33
539.466	40262.55
539.667	39168.94
539.868	40014.75
540.068	40057.76
540.269	39875.49
540.469	39877.54
540.67	39787.42
540.87	39441.32
541.071	39484.33
541.271	39607.2
541.472	39631.78
541.672	39185.32
541.873	39349.16
542.073	38923.18
542.274	39902.11
542.474	39644.07
542.675	39347.11
542.875	39889.82
543.075	39447.46
543.276	39119.79
543.476	40143.77
543.676	39519.14
543.877	39664.55
544.077	39154.6
544.277	39558.05
544.478	39300.01
544.678	39943.07
544.878	39078.83
545.078	39285.67
545.279	39306.15
545.479	39150.51
545.679	39607.2
545.879	39633.83
546.079	39435.17
546.28	39170.99
546.48	39058.35
546.68	39349.16
546.88	39541.67
547.08	39336.87
547.28	39377.83
547.48	39242.67
547.68	39097.26
547.88	39392.17
548.081	39431.08
548.281	39205.8
548.481	39183.27
548.681	39551.91
548.881	39111.6
549.081	39398.31
549.28	39142.31
549.48	39308.2
549.68	38818.74
549.88	39537.57
550.08	38923.18
550.28	39164.84
550.48	38900.65
550.68	39355.3
550.88	38935.47
551.08	39164.84
551.279	38941.61
551.479	38894.51
551.679	38845.36
551.879	38781.87
552.079	39269.29
552.278	38871.98
552.478	39123.88
552.678	39082.92
552.878	39449.51
553.077	39050.16
553.277	38601.65
553.477	39320.49
553.676	39222.19
553.876	38871.98
554.076	38476.72
554.275	38751.15
554.475	38304.7
554.674	38685.62
554.874	38609.84
555.074	38372.28
555.273	38351.8
555.473	39072.68
555.672	38269.88
555.872	38587.32
556.071	38878.13
556.271	38788.02
556.47	38525.88
556.67	38149.05
556.869	38257.59
557.068	38245.3
557.268	38136.76
557.467	38255.54
557.667	38460.34
557.866	38460.34
558.065	38101.95
558.265	37958.59
558.464	37782.46
558.663	38190.01
558.863	37444.55
559.062	38140.86
559.261	37526.47
559.461	38290.36
559.66	37182.41
559.859	37755.84
560.058	37432.26
560.258	37370.82
560.457	37415.88
560.656	37618.63
560.855	37413.83
561.054	37368.77
561.253	37278.66
561.453	37415.88
561.652	37501.89
561.851	37434.31
562.05	37135.31
562.249	37077.96
562.448	37483.46
562.647	36672.46
562.846	37024.72
563.045	36928.46
563.244	36762.58
563.443	36738
563.642	36146.14
563.841	36391.89
564.04	36522.96
564.239	36572.11
564.438	36170.71
564.637	36330.45
564.836	36662.22
565.035	35896.28
565.234	36332.5
565.432	36334.55
565.631	36127.7
565.83	35818.46
566.029	35830.75
566.228	35568.61
566.427	35439.59
566.625	35339.24
566.824	34898.92
567.023	35832.8
567.222	35032.04
567.42	35302.37
567.619	35171.3
567.818	35384.29
568.016	34937.83
568.215	35292.13
568.414	34655.22
568.612	34923.5
568.811	34520.05
569.01	34868.2
569.208	34393.08
569.407	34647.02
569.605	34556.91
569.804	34806.76
570.002	34352.12
570.201	34524.15
570.4	34155.51
570.598	34012.15
570.797	33762.3
570.995	34081.78
571.193	33489.92
571.392	33913.85
571.59	33717.25
571.789	33735.68
571.987	33639.42
572.186	33571.84
572.384	33246.21
572.582	33477.63
572.781	33555.46
572.979	32728.08
573.177	33139.72
573.376	33160.2
573.574	32584.72
573.772	32865.29
573.971	32558.1
574.169	32795.66
574.367	32742.41
574.565	32502.8
574.763	32484.37
574.962	32199.7
575.16	32011.29
575.358	32005.14
575.556	32052.25
575.754	32408.59
575.952	31788.06
576.151	32177.17
576.349	31521.82
576.547	31767.58
576.745	31726.62
576.943	31665.18
577.141	31464.48
577.339	31314.98
577.537	31519.78
577.735	31525.92
577.933	31122.47
578.131	31116.33
578.329	31231.01
578.527	30913.58
578.725	30866.47
578.923	30932.01
579.121	30827.56
579.319	30592.05
579.516	30897.19
579.714	30927.91
579.912	30510.13
580.11	30387.25
580.308	30362.67
580.506	30204.98
580.704	29944.89
580.901	30270.51
581.099	30422.06
581.297	29748.28
581.495	29830.2
581.692	29883.45
581.89	29621.31
582.088	29981.75
582.285	29576.25
582.483	29994.04
582.681	29211.71
582.878	29484.09
583.076	28673.1
583.274	29439.04
583.471	29078.6
583.669	28902.47
583.866	28654.67
584.064	28705.87
584.262	28480.59
584.459	28783.69
584.657	28150.87
584.854	28859.46
585.052	28255.31
585.249	28634.19
585.447	28464.21
585.644	28308.56
585.841	28099.67
586.039	28392.53
586.236	28089.43
586.434	28013.65
586.631	27692.12
586.828	27993.17
587.026	27868.25
587.223	27663.45
587.42	27628.63
587.618	27559
587.815	27448.41
588.012	27341.92
588.21	27161.7
588.407	27389.02
588.604	26909.8
588.801	27188.32
588.999	26752.1
589.196	26983.52
589.393	27053.16
589.59	26934.37
589.787	26618.99
589.984	26752.1
590.182	26340.46
590.379	26715.24
590.576	26465.39
590.773	26309.74
590.97	26045.55
591.167	26387.57
591.364	25777.27
591.561	26059.89
591.758	25762.93
591.955	25943.16
592.152	25838.71
592.349	25760.89
592.546	25820.28
592.743	25472.12
592.94	25349.25
593.137	25486.46
593.334	25785.46
593.531	25191.55
593.727	25390.2
593.924	25490.56
594.121	25216.13
594.318	25599.1
594.515	24806.53
594.712	25255.04
594.908	24710.28
595.105	24822.92
595.302	24726.66
595.499	24712.33
595.696	24755.33
595.892	24501.39
596.089	24581.26
596.286	24482.95
596.482	24231.05
596.679	24257.68
596.876	24280.21
597.072	24083.6
597.269	23819.41
597.466	23968.91
597.662	23622.81
597.859	23829.65
598.055	23907.48
598.252	23587.99
598.448	23641.24
598.645	23186.59
598.841	23248.03
599.038	23266.46
599.234	23375
599.431	23069.86
599.627	22883.49
599.824	23221.41
600.02	23004.32
600.217	22604.97
600.413	22584.49
600.609	22770.85
600.806	22713.51
601.002	22992.03
601.198	22613.16
601.395	22660.26
601.591	22533.29
601.787	22750.37
601.984	22426.79
602.18	22625.45
602.376	22056.11
602.572	22121.65
602.769	21935.28
602.965	21859.51
603.161	21693.62
603.357	21836.98
603.553	21714.1
603.75	22013.1
603.946	21597.37
604.142	21611.7
604.338	21316.79
604.534	21783.73
604.73	21609.65
604.926	21134.53
605.122	21439.67
605.318	20931.78
605.514	21091.52
605.71	21316.79
605.906	21353.66
606.102	21030.08
606.298	20937.92
606.494	20786.37
606.69	21007.55
606.886	21023.94
607.082	20352.2
607.278	20952.26
607.474	20227.28
607.67	20837.57
607.866	20509.9
608.062	20688.07
608.257	20655.3
608.453	20573.38
608.649	20487.37
608.845	20147.4
609.041	20174.03
609.236	20593.86
609.432	20368.59
609.628	20255.95
609.824	20284.62
610.019	20169.93
610.215	20243.66
610.411	20196.56
610.606	19958.99
610.802	20014.29
610.998	19821.78
611.193	20090.06
611.389	19817.68
611.584	19758.29
611.78	19641.56
611.976	19762.39
612.171	19612.88
612.367	19477.72
612.562	19645.65
612.758	19389.66
612.953	19403.99
613.149	19623.12
613.344	19109.08
613.539	19457.24
613.735	19410.14
613.93	19522.77
614.126	19098.84
614.321	19430.62
614.517	19184.86
614.712	19100.89
614.907	19223.77
615.103	19317.98
615.298	18926.82
615.493	19324.12
615.688	18791.65
615.884	19244.25
616.079	18789.6
616.274	18842.85
616.47	18801.89
616.665	18834.66
616.86	18621.67
617.055	18554.08
617.25	18529.51
617.445	18687.2
617.641	18236.65
617.836	18506.98
618.031	18062.57
618.226	18285.8
618.421	17962.22
618.616	18623.72
618.811	17761.52
619.006	18375.91
619.201	17945.84
619.396	18148.59
619.591	17716.47
619.786	18021.61
619.981	17603.83
620.176	17968.37
620.371	17405.17
620.566	17689.84
620.761	17667.31
620.956	17476.85
621.151	17347.83
621.346	17589.49
621.541	17003.77
621.735	17421.56
621.93	16809.22
622.125	16925.95
622.32	16887.04
622.515	16975.1
622.709	16819.46
622.904	16710.91
623.099	16739.58
623.294	16534.79
623.488	16397.57
623.683	16313.61
623.878	16129.29
624.072	16129.29
624.267	15994.12
624.462	16186.63
624.656	15850.77
624.851	15805.71
625.046	15615.25
625.24	15660.31
625.435	15652.11
625.629	15531.28
625.824	15607.06
626.018	15455.51
626.213	15084.83
626.407	15271.19
626.602	15000.86
626.796	15131.93
626.991	15045.91
627.185	14845.21
627.38	14593.31
627.574	14855.45
627.768	14720.29
627.963	14693.66
628.157	14390.56
628.352	14533.92
628.546	13993.26
628.74	14302.5
628.935	14146.86
629.129	14398.76
629.323	14075.18
629.517	14017.83
629.712	13856.04
629.906	13829.42
630.1	13667.63
630.294	13665.58
630.489	13661.49
630.683	13747.5
630.877	13411.64
631.071	13350.2
631.265	13526.32
631.459	13503.79
631.653	13294.9
631.848	13206.84
632.042	12823.87
632.236	13014.33
632.43	12866.88
632.624	12999.99
632.818	12930.36
633.012	12645.7
633.206	12594.5
633.4	12479.81
633.594	12379.46
633.788	12490.05
633.982	12457.28
634.176	12393.79
634.369	12275.01
634.563	12154.18
634.757	11959.63
634.951	12172.61
635.145	12219.72
635.339	12195.14
635.533	11855.18
635.726	11887.95
635.92	11631.95
636.114	11760.97
636.308	11775.31
636.501	11568.46
636.695	11711.82
636.889	11306.32
637.083	11267.41
637.276	11369.81
637.47	11388.24
637.664	11308.37
637.857	11283.8
638.051	11242.84
638.244	11068.76
638.438	10806.62
638.632	10982.74
638.825	10825.05
639.019	10882.39
639.212	10616.16
639.406	10589.53
639.599	10800.48
639.793	10757.47
639.986	10499.42
640.18	10351.97
640.373	10390.88
640.567	10265.96
640.76	10313.06
640.954	10311.01
641.147	10005.86
641.34	10155.37
641.534	10018.15
641.727	10036.58
641.92	10034.53
642.114	10038.63
642.307	10159.46
642.5	9835.88
642.694	9667.95
642.887	9776.49
643.08	9956.71
643.273	9930.09
643.467	9692.52
643.66	9467.25
643.853	9495.92
644.046	9370.99
644.239	9500.02
644.432	9307.51
644.626	9291.12
644.819	9063.8
645.012	9237.88
645.205	9289.07
645.398	9033.08
645.591	9012.6
645.784	9020.79
645.977	8789.37
646.17	8996.21
646.363	8818.04
646.556	8881.53
646.749	8846.71
646.942	8828.28
647.135	8566.14
647.328	8674.68
647.521	8586.62
647.714	8516.99
647.907	8480.13
648.099	8574.33
648.292	8398.21
648.485	8306.05
648.678	8209.79
648.871	8174.98
649.064	8211.84
649.256	8207.75
649.449	8080.77
649.642	8193.41
649.835	8005
650.027	8078.72
650.22	8078.72
650.413	7851.4
650.605	7980.42
650.798	7902.6
650.991	7869.83
651.183	7783.82
651.376	7740.81
651.568	7765.39
651.761	7673.23
651.954	7493.01
652.146	7595.4
652.339	7609.74
652.531	7554.44
652.724	7546.25
652.916	7392.66
653.109	7372.18
653.301	7351.7
653.494	7249.3
653.686	7005.59
653.879	7490.96
654.071	6960.53
654.263	7234.96
654.456	7126.42
654.648	7316.88
654.84	7021.97
655.033	6974.87
655.225	6839.7
655.417	6995.35
655.61	6927.77
655.802	6737.31
655.994	6690.2
656.186	6700.44
656.379	6718.87
656.571	6780.31
656.763	6657.43
656.955	6505.88
657.148	6620.57
657.34	6727.07
657.532	6360.48
657.724	6458.78
657.916	6544.8
658.108	6364.57
658.3	6342.05
658.492	6333.86
658.684	6358.43
658.876	6473.12
659.068	6186.4
659.26	6188.45
659.452	6159.78
659.644	6098.34
659.836	6057.38
660.028	6057.38
660.22	6079.91
660.412	5969.32
660.604	6034.85
660.796	5924.26
660.988	5942.69
661.18	5715.37
661.372	5868.97
661.563	5873.06
661.755	5797.29
661.947	5750.18
662.139	5787.05
662.331	5713.32
662.522	5639.59
662.714	5655.98
662.906	5696.94
663.097	5578.15
663.289	5567.92
663.481	5551.53
663.673	5334.45
663.864	5457.32
664.056	5518.76
664.247	5334.45
664.439	5246.38
664.631	5393.84
664.822	5449.13
665.014	5389.74
665.205	5416.37
665.397	5277.1
665.588	5141.94
665.78	5213.62
665.971	5336.49
666.163	5236.14
666.354	4990.39
666.546	5123.51
666.737	5051.83
666.929	5014.96
667.12	5002.68
667.311	5103.03
667.503	5017.01
667.694	5043.64
667.885	4910.52
668.077	4834.74
668.268	4799.93
668.459	4765.11
668.651	5039.54
668.842	4955.57
669.033	4636.09
669.224	4781.5
669.416	4734.39
669.607	4763.06
669.798	4619.71
669.989	4728.25
670.18	4595.13
670.371	4609.47
670.563	4597.18
670.754	4707.77
670.945	4554.17
671.136	4638.14
671.327	4607.42
671.518	4548.03
671.709	4615.61
671.9	4625.85
672.091	4578.75
672.282	4476.35
672.473	4378.05
672.664	4412.86
672.855	4425.15
673.046	4376
673.237	4435.39
673.428	4439.48
673.619	4394.43
673.809	4330.94
674	4308.41
674.191	4341.18
674.382	4404.67
674.573	4265.41
674.764	4150.72
674.954	4300.22
675.145	4269.5
675.336	4318.65
675.527	4177.34
675.717	4171.2
675.908	4177.34
676.099	4163.01
676.289	4156.86
676.48	4259.26
676.671	4126.15
676.861	4140.48
677.052	4122.05
677.243	4013.51
677.433	4038.08
677.624	4079.04
677.814	3966.4
678.005	4085.19
678.195	3884.48
678.386	4044.23
678.576	4033.99
678.767	4015.55
678.957	4091.33
679.148	4007.36
679.338	3896.77
679.529	3853.77
679.719	3902.92
679.909	3907.01
680.1	3857.86
680.29	3997.12
680.481	3845.57
680.671	3896.77
680.861	3851.72
681.052	3956.16
681.242	3775.94
681.432	3788.23
681.622	3866.05
681.813	3679.69
682.003	3810.76
682.193	3818.95
682.383	3780.04
682.573	3728.84
682.764	3757.51
682.954	3765.7
683.144	3708.36
683.334	3714.5
683.524	3714.5
683.714	3716.55
683.904	3636.68
684.094	3614.15
684.284	3749.32
684.474	3597.77
684.664	3798.47
684.854	3466.7
685.044	3571.15
685.234	3669.45
685.424	3562.95
685.614	3663.3
685.804	3556.81
685.994	3622.34
686.184	3585.48
686.374	3587.53
686.564	3624.39
686.753	3487.18
686.943	3515.85
687.133	3472.84
687.323	3354.06
687.513	3487.18
687.702	3540.43
687.892	3298.77
688.082	3419.6
688.272	3481.03
688.461	3425.74
688.651	3464.65
688.841	3476.94
689.03	3196.37
689.22	3384.78
689.41	3360.2
689.599	3255.76
689.789	3276.24
689.979	3167.7
690.168	3106.26
690.358	3175.89
690.547	3229.13
690.737	3276.24
690.926	3229.13
691.116	3212.75
691.305	3212.75
691.495	3157.46
691.684	3083.73
691.874	3188.18
692.063	3106.26
692.252	3143.12
692.442	3112.4
692.631	2973.14
692.82	3061.2
693.01	3069.39
693.199	3024.34
693.388	3061.2
693.578	2936.28
693.767	3083.73
693.956	3190.22
694.146	2940.37
694.335	2919.89
694.524	3003.86
694.713	2962.9
694.902	3001.81
695.092	2784.73
695.281	3020.24
695.47	2846.16
695.659	2778.58
695.848	2903.51
696.037	2926.04
696.226	2919.89
696.415	2926.04
696.604	3010
696.793	2784.73
696.982	2921.94
697.171	2997.71
697.36	2948.56
697.549	2780.63
697.738	2764.25
697.927	2913.75
698.116	2831.83
698.305	2780.63
698.494	2768.34
698.683	2704.85
698.872	2858.45
699.061	2811.35
699.25	2803.16
699.438	2874.84
699.627	2721.24
699.816	2840.02
700.005	2794.97
700.193	2706.9
700.382	2766.29
700.571	2737.62
700.76	2827.73
700.948	2606.55
701.137	2848.21
701.326	2737.62
701.514	2700.76
701.703	2831.83
701.892	2727.38
702.08	2733.53
702.269	2684.38
702.457	2719.19
702.646	2680.28
702.834	2794.97
703.023	2731.48
703.212	2758.1
703.4	2729.43
703.589	2680.28
703.777	2661.85
703.965	2713.05
704.154	2686.42
704.342	2618.84
704.531	2717.14
704.719	2655.7
704.907	2717.14
705.096	2604.5
705.284	2588.12
705.472	2647.51
705.661	2688.47
705.849	2772.44
706.037	2835.92
706.226	2725.33
706.414	2659.8
706.602	2565.59
706.79	2700.76
706.979	2541.02
707.167	2708.95
707.355	2518.49
707.543	2735.57
707.731	2663.9
707.919	2657.75
708.107	2653.66
708.296	2647.51
708.484	2571.74
708.672	2680.28
708.86	2448.86
709.048	2594.26
709.236	2561.5
709.424	2688.47
709.612	2655.7
709.8	2667.99
709.988	2719.19
710.176	2518.49
710.364	2522.59
710.551	2606.55
710.739	2573.78
710.927	2590.17
711.115	2581.98
711.303	2688.47
711.491	2647.51
711.679	2483.67
711.866	2549.21
712.054	2502.11
712.242	2584.02
712.43	2706.9
712.617	2569.69
712.805	2606.55
712.993	2586.07
713.181	2465.24
713.368	2547.16
713.556	2620.89
713.744	2477.53
713.931	2606.55
714.119	2590.17
714.306	2639.32
714.494	2588.12
714.682	2557.4
714.869	2579.93
715.057	2577.88
715.244	2506.2
715.432	2616.79
715.619	2465.24
715.807	2545.11
715.994	2543.07
716.182	2520.54
716.369	2549.21
716.556	2571.74
716.744	2639.32
716.931	2598.36
717.119	2514.39
717.306	2500.06
717.493	2575.83
717.681	2596.31
717.868	2545.11
718.055	2622.94
718.242	2467.29
718.43	2522.59
718.617	2596.31
718.804	2573.78
718.991	2567.64
719.179	2645.46
719.366	2475.48
719.553	2495.96
719.74	2506.2
719.927	2510.3
720.114	2541.02
720.301	2657.75
720.488	2483.67
720.676	2579.93
720.863	2563.54
721.05	2366.94
721.237	2514.39
721.424	2463.19
721.611	2528.73
721.798	2377.18
721.985	2506.2
722.172	2493.91
722.358	2518.49
722.545	2512.35
722.732	2549.21
722.919	2418.14
723.106	2348.51
723.293	2420.19
723.48	2471.39
723.667	2336.22
723.853	2495.96
724.04	2498.01
724.227	2483.67
724.414	2600.41
724.6	2334.17
724.787	2493.91
724.974	2498.01
725.161	2459.1
725.347	2364.89
725.534	2426.33
725.72	2471.39
725.907	2450.91
726.094	2405.85
726.28	2344.41
726.467	2448.86
726.653	2346.46
726.84	2504.15
727.027	2385.37
727.213	2344.41
727.4	2354.65
727.586	2276.83
727.773	2311.64
727.959	2344.41
728.145	2426.33
728.332	2373.08
728.518	2350.56
728.705	2364.89
728.891	2266.59
729.077	2268.64
729.264	2287.07
729.45	2315.74
729.636	2432.47
729.823	2403.8
730.009	2364.89
730.195	2368.99
730.382	2385.37
730.568	2278.88
730.754	2274.78
730.94	2276.83
731.126	2301.4
731.313	2440.67
731.499	2307.55
731.685	2272.73
731.871	2379.23
732.057	2262.49
732.243	2268.64
732.429	2325.98
732.615	2430.43
732.801	2252.25
732.987	2366.94
733.173	2366.94
733.359	2315.74
733.545	2209.25
733.731	2219.49
733.917	2299.36
734.103	2319.84
734.289	2235.87
734.475	2373.08
734.661	2225.63
734.847	2151.9
735.033	2291.17
735.219	2309.6
735.404	2174.43
735.59	2252.25
735.776	2164.19
735.962	2274.78
736.148	2237.92
736.333	2295.26
736.519	2211.29
736.705	2250.21
736.89	2164.19
737.076	2156
737.262	2213.34
737.447	2231.77
737.633	2117.09
737.819	2221.53
738.004	2131.42
738.19	2082.27
738.375	2061.79
738.561	2121.18
738.747	2035.17
738.932	2184.67
739.118	2065.89
739.303	2059.74
739.489	2182.62
739.674	2016.74
739.859	2094.56
740.045	2127.33
740.23	2067.94
740.416	1953.25
740.601	2188.77
740.786	2131.42
740.972	2029.03
741.157	1988.07
741.342	1922.53
741.528	2016.74
741.713	2147.81
741.898	2053.6
742.084	2049.5
742.269	2063.84
742.454	2012.64
742.639	1891.81
742.824	1906.15
743.01	1916.39
743.195	1918.43
743.38	1930.72
743.565	1914.34
743.75	1951.2
743.935	1908.19
744.12	1877.48
744.305	1799.65
744.49	1930.72
744.675	1922.53
744.86	1879.52
745.045	1897.96
745.23	1793.51
745.415	1859.04
745.6	1844.71
745.785	1799.65
745.97	1791.46
746.155	1803.75
746.34	1781.22
746.525	1818.08
746.71	1752.55
746.895	1811.94
747.079	1664.49
747.264	1715.69
747.449	1756.65
747.634	1816.04
747.819	1693.16
748.003	1746.41
748.188	1783.27
748.373	1613.29
748.557	1676.77
748.742	1705.45
748.927	1730.02
749.111	1580.52
749.296	1635.82
749.481	1639.91
749.665	1564.14
749.85	1592.81
750.034	1547.75
750.219	1578.47
750.404	1654.25
750.588	1545.7
750.773	1553.9
750.957	1613.29
751.141	1406.44
751.326	1451.5
751.51	1388.01
751.695	1439.21
751.879	1469.93
752.064	1508.84
752.248	1465.83
752.432	1463.79
752.617	1336.81
752.801	1385.96
752.985	1418.73
753.17	1408.49
753.354	1295.85
753.538	1392.11
753.722	1353.2
753.907	1367.53
754.091	1408.49
754.275	1371.63
754.459	1240.56
754.643	1353.2
754.828	1439.21
755.012	1220.08
755.196	1324.52
755.38	1291.76
755.564	1175.02
755.748	1226.22
755.932	1271.28
756.116	1281.52
756.3	1222.13
756.484	1269.23
756.668	1232.37
756.852	1236.46
757.036	1144.3
757.22	1203.69
757.404	1136.11
757.588	1213.93
757.772	1125.87
757.956	1213.93
758.14	1123.82
758.323	1037.81
758.507	1132.01
758.691	1189.36
758.875	1140.21
759.059	1134.06
759.242	1074.67
759.426	1025.52
759.61	1064.43
759.794	1113.58
759.977	1091.06
760.161	1095.15
760.345	1113.58
760.528	1099.25
760.712	1107.44
760.895	1000.94
761.079	1000.94
761.263	980.47
761.446	1019.38
761.63	998.9
761.813	1097.2
761.997	957.94
762.18	1119.73
762.364	1023.47
762.547	992.75
762.731	1017.33
762.914	1029.62
763.098	1035.76
763.281	962.03
763.464	1039.86
763.648	959.99
763.831	1013.23
764.015	933.36
764.198	998.9
764.381	886.26
764.564	1033.71
764.748	935.41
764.931	937.46
765.114	931.31
765.297	955.89
765.481	859.63
765.664	994.8
765.847	839.16
766.03	939.51
766.213	914.93
766.397	890.35
766.58	923.12
766.763	962.03
766.946	859.63
767.129	861.68
767.312	841.2
767.495	921.07
767.678	884.21
767.861	992.75
768.044	912.88
768.227	925.17
768.41	906.74
768.593	865.78
768.776	902.64
768.959	800.24
769.142	882.16
769.324	910.83
769.507	777.72
769.69	859.63
769.873	785.91
770.056	894.45
770.239	808.44
770.421	855.54
770.604	845.3
770.787	853.49
770.97	747
771.152	802.29
771.335	812.53
771.518	703.99
771.7	800.24
771.883	722.42
772.066	701.94
772.248	738.8
772.431	808.44
772.613	873.97
772.796	665.08
772.978	814.58
773.161	685.56
773.343	693.75
773.526	683.51
773.708	669.17
773.891	660.98
774.073	683.51
774.256	697.85
774.438	712.18
774.621	683.51
774.803	726.52
774.985	654.84
775.168	775.67
775.35	644.6
775.532	706.04
775.715	706.04
775.897	695.8
776.079	683.51
776.261	648.69
776.444	669.17
776.626	675.32
776.808	624.12
776.99	583.16
777.173	581.11
777.355	689.65
777.537	677.37
777.719	628.21
777.901	632.31
778.083	579.06
778.265	562.68
778.447	632.31
778.629	550.39
778.811	609.78
778.993	583.16
779.175	562.68
779.357	593.4
779.539	585.21
779.721	601.59
779.903	593.4
780.085	523.77
780.267	493.05
780.449	581.11
780.631	534.01
780.812	572.92
780.994	579.06
781.176	521.72
781.358	536.06
781.54	527.86
781.721	482.81
781.903	480.76
782.085	538.1
782.267	595.45
782.448	472.57
782.63	540.15
782.812	476.66
782.993	472.57
783.175	497.14
783.357	527.86
783.538	509.43
783.72	456.19
783.901	513.53
784.083	491
784.264	472.57
784.446	429.56
784.627	452.09
784.809	421.37
784.99	478.71
785.172	464.38
785.353	474.62
785.535	456.19
785.716	388.6
785.897	327.16
786.079	441.85
786.26	404.99
786.441	433.66
786.623	361.98
786.804	376.31
786.985	447.99
787.167	370.17
787.348	382.46
787.529	398.84
787.71	505.34
787.891	427.51
788.073	402.94
788.254	392.7
788.435	441.85
788.616	409.08
788.797	374.27
788.978	368.12
789.159	296.44
789.34	384.51
789.522	415.23
789.703	310.78
789.884	337.4
790.065	368.12
790.246	357.88
790.427	259.58
790.607	441.85
790.788	327.16
790.969	372.22
791.15	343.55
791.331	318.97
791.512	337.4
791.693	255.48
791.874	284.16
792.054	318.97
792.235	380.41
792.416	255.48
792.597	239.1
792.778	325.12
792.958	288.25
793.139	357.88
793.32	292.35
793.5	280.06
793.681	267.77
793.862	339.45
794.042	351.74
794.223	255.48
794.404	302.59
794.584	323.07
794.765	271.87
794.945	196.09
795.126	259.58
795.306	314.88
795.487	230.91
795.667	230.91
795.848	249.34
796.028	296.44
796.209	290.3
796.389	341.5
796.57	189.95
796.75	239.1
796.93	265.72
797.111	226.81
797.291	192
797.471	296.44
797.652	185.85
797.832	230.91
798.012	241.15
798.192	204.28
798.373	294.4
798.553	253.44
798.733	253.44
798.913	263.68
799.093	318.97
799.274	216.57
799.454	351.74
799.634	321.02
799.814	198.14
799.994	247.29
800.174	288.25
800.354	308.73
800.534	169.47
800.714	288.25
800.894	235
801.074	308.73
801.254	226.81
801.434	235
801.614	251.39
801.794	204.28
801.974	712.18
802.154	204.28
802.334	151.04
802.514	173.57
802.693	259.58
802.873	153.09
803.053	235
803.233	245.24
803.413	253.44
803.592	239.1
803.772	247.29
803.952	165.37
804.131	239.1
804.311	200.19
804.491	241.15
804.67	181.76
804.85	210.43
805.03	247.29
805.209	357.88
805.389	194.05
805.568	185.85
805.748	267.77
805.928	210.43
806.107	204.28
806.287	210.43
806.466	239.1
806.646	204.28
806.825	148.99
807.004	194.05
807.184	126.46
807.363	239.1
807.543	185.85
807.722	181.76
807.901	278.01
808.081	273.92
808.26	136.7
808.439	132.61
808.619	165.37
808.798	230.91
808.977	206.33
809.156	212.48
809.336	122.37
809.515	198.14
809.694	140.8
809.873	171.52
810.052	163.33
810.231	202.24
810.411	146.94
810.59	282.11
810.769	185.85
810.948	165.37
811.127	87.55
811.306	212.48
811.485	177.66
811.664	230.91
811.843	114.17
812.022	136.7
812.201	132.61
812.38	132.61
812.559	157.18
812.737	171.52
812.916	146.94
813.095	206.33
813.274	271.87
813.453	181.76
813.632	108.03
813.811	120.32
813.989	97.79
814.168	138.75
814.347	134.65
814.526	157.18
814.704	148.99
814.883	198.14
815.062	130.56
815.24	56.83
815.419	161.28
815.598	167.42
815.776	138.75
815.955	79.36
816.133	85.5
816.312	126.46
816.49	108.03
816.669	136.7
816.847	105.98
817.026	169.47
817.204	134.65
817.383	122.37
817.561	108.03
817.74	196.09
817.918	134.65
818.097	134.65
818.275	114.17
818.453	146.94
818.632	163.33
818.81	159.23
818.988	87.55
819.167	103.93
819.345	153.09
819.523	75.26
819.701	132.61
819.879	120.32
820.058	120.32
820.236	171.52
820.414	67.07
820.592	79.36
820.77	124.41
820.948	34.3
821.127	124.41
821.305	79.36
821.483	73.21
821.661	202.24
821.839	151.04
822.017	108.03
822.195	118.27
822.373	108.03
822.551	120.32
822.729	153.09
822.907	103.93
823.085	83.45
823.262	73.21
823.44	95.74
823.618	91.65
823.796	112.13
823.974	112.13
824.152	56.83
824.329	71.17
824.507	105.98
824.685	155.13
824.863	73.21
825.04	93.69
825.218	167.42
825.396	134.65
825.574	163.33
825.751	112.13
825.929	48.64
826.107	73.21
826.284	161.28
826.462	161.28
826.639	79.36
826.817	54.78
826.994	81.41
827.172	95.74
827.349	194.05
827.527	15.87
827.704	97.79
827.882	101.89
828.059	132.61
828.237	71.17
828.414	75.26
828.591	32.26
828.769	58.88
828.946	69.12
829.124	140.8
829.301	108.03
829.478	15.87
829.655	67.07
829.833	136.7
830.01	91.65
830.187	83.45
830.364	-8.7
830.542	130.56
830.719	81.41
830.896	130.56
831.073	71.17
831.25	146.94
831.427	103.93
831.604	110.08
831.782	77.31
831.959	105.98
832.136	26.11
832.313	79.36
832.49	26.11
832.667	130.56
832.844	-8.7
833.021	108.03
833.198	97.79
833.374	91.65
833.551	60.93
833.728	118.27
833.905	56.83
834.082	79.36
834.259	89.6
834.436	157.18
834.612	101.89
834.789	67.07
834.966	22.02
835.143	40.45
835.319	54.78
835.496	95.74
835.673	91.65
835.85	99.84
836.026	56.83
836.203	126.46
836.38	173.57
836.556	108.03
836.733	81.41
836.909	108.03
837.086	42.5
837.262	17.92
837.439	13.82
837.616	69.12
837.792	85.5
837.968	52.74
838.145	5.63
838.321	-45.57
838.498	60.93
838.674	124.41
838.851	58.88
839.027	58.88
839.203	34.3
839.38	167.42
839.556	7.68
839.732	114.17
839.909	151.04
840.085	62.98
840.261	15.87
840.437	46.59
840.614	-35.33
840.79	48.64
840.966	58.88
841.142	79.36
841.318	22.02
841.494	17.92
841.671	87.55
841.847	36.35
842.023	62.98
842.199	11.78
842.375	124.41
842.551	-18.94
842.727	52.74
842.903	124.41
843.079	-45.57
843.255	116.22
843.431	95.74
843.607	132.61
843.783	-23.04
843.959	89.6
844.134	42.5
844.31	116.22
844.486	-0.51
844.662	75.26
844.838	-6.66
845.013	62.98
845.189	30.21
845.365	-0.51
845.541	54.78
845.716	42.5
845.892	65.02
846.068	44.54
846.244	-8.7
846.419	44.54
846.595	81.41
846.77	79.36
846.946	73.21
847.122	142.85
847.297	-57.86
847.473	11.78
847.648	-0.51
847.824	99.84
847.999	-27.14
848.175	87.55
848.35	54.78
848.526	30.21
848.701	13.82
848.876	54.78
849.052	13.82
849.227	95.74
849.403	15.87
849.578	30.21
849.753	124.41
849.929	138.75
850.104	34.3
850.279	-0.51
850.454	99.84
850.63	75.26
850.805	87.55
850.98	46.59
851.155	13.82
851.33	60.93
851.505	-61.95
851.681	95.74
851.856	-10.75
852.031	19.97
852.206	24.06
852.381	7.68
852.556	79.36
852.731	71.17
852.906	28.16
853.081	-76.29
853.256	48.64
853.431	75.26
853.606	-37.38
853.781	-6.66
853.956	-14.85
854.131	79.36
854.305	26.11
854.48	89.6
854.655	103.93
854.83	22.02
855.005	79.36
855.18	-4.61
855.354	-2.56
855.529	97.79
855.704	83.45
855.879	99.84
856.053	52.74
856.228	-31.23
856.403	34.3
856.577	-6.66
856.752	60.93
856.926	99.84
857.101	-39.42
857.276	15.87
857.45	17.92
857.625	81.41
857.799	26.11
857.974	9.73
858.148	-16.9
858.323	91.65
858.497	5.63
858.672	15.87
858.846	-43.52
859.02	30.21
859.195	91.65
859.369	-14.85
859.543	73.21
859.718	36.35
859.892	-0.51
860.066	87.55
860.241	89.6
860.415	77.31
860.589	89.6
860.763	65.02
860.938	54.78
861.112	77.31
861.286	124.41
861.46	54.78
861.634	7.68
861.808	42.5
861.982	-0.51
862.157	13.82
862.331	69.12
862.505	9.73
862.679	62.98
862.853	42.5
863.027	19.97
863.201	89.6
863.375	44.54
863.549	30.21
863.722	130.56
863.896	19.97
864.07	3.58
864.244	44.54
864.418	67.07
864.592	7.68
864.766	81.41
864.939	97.79
865.113	-12.8
865.287	91.65
865.461	9.73
865.634	17.92
865.808	22.02
865.982	-6.66
866.156	15.87
866.329	17.92
866.503	99.84
866.676	40.45
866.85	24.06
867.024	24.06
867.197	15.87
867.371	-16.9
867.544	-18.94
867.718	38.4
867.891	93.69
868.065	-18.94
868.238	19.97
868.412	42.5
868.585	-8.7
868.759	-20.99
868.932	-16.9
869.105	62.98
869.279	56.83
869.452	-12.8
869.625	30.21
869.799	26.11
869.972	-6.66
870.145	40.45
870.319	99.84
870.492	-51.71
870.665	-45.57
870.838	3.58
871.011	-12.8
871.185	-16.9
871.358	-59.9
871.531	-20.99
871.704	97.79
871.877	-2.56
872.05	-23.04
872.223	-57.86
872.396	58.88
872.569	103.93
872.742	-39.42
872.915	7.68
873.088	46.59
873.261	-29.18
873.434	13.82
873.607	-35.33
873.78	-23.04
873.953	-33.28
874.126	15.87
874.299	26.11
874.471	13.82
874.644	73.21
874.817	24.06
874.99	93.69
875.163	48.64
875.335	67.07
875.508	32.26
875.681	-23.04
875.853	32.26
876.026	1.54
876.199	50.69
876.371	22.02
876.544	87.55
876.717	40.45
876.889	9.73
877.062	24.06
877.234	36.35
877.407	-23.04
877.579	69.12
877.752	58.88
877.924	7.68
878.097	26.11
878.269	34.3
878.442	73.21
878.614	13.82
878.786	79.36
878.959	58.88
879.131	-2.56
879.303	-16.9
879.476	71.17
879.648	24.06
879.82	-6.66
879.993	30.21
880.165	7.68
880.337	15.87
880.509	-8.7
880.681	65.02
880.854	-2.56
881.026	71.17
881.198	26.11
881.37	-8.7
881.542	32.26
881.714	81.41
881.886	26.11
882.058	5.63
882.23	81.41
882.402	-14.85
882.574	-25.09
882.746	-0.51
882.918	50.69
883.09	9.73
883.262	-10.75
883.434	-4.61
883.606	17.92
883.778	26.11
883.95	101.89
884.122	73.21
884.293	62.98
884.465	22.02
884.637	13.82
884.809	-31.23
884.98	32.26
885.152	34.3
885.324	9.73
885.496	-29.18
885.667	-18.94
885.839	19.97
886.011	-20.99
886.182	40.45
886.354	15.87
886.525	22.02
886.697	87.55
886.869	58.88
887.04	58.88
887.212	40.45
887.383	65.02
887.555	-27.14
887.726	-18.94
887.897	-31.23
888.069	-10.75
888.24	-8.7
888.412	93.69
888.583	7.68
888.754	5.63
888.926	-8.7
889.097	-23.04
889.268	-4.61
889.44	-12.8
889.611	50.69
889.782	-14.85
889.953	-41.47
890.125	30.21
890.296	-16.9
890.467	130.56
890.638	-23.04
890.809	28.16
890.98	9.73
891.151	52.74
891.323	7.68
891.494	58.88
891.665	9.73
891.836	-43.52
892.007	-8.7
892.178	93.69
892.349	9.73
892.52	30.21
892.691	-23.04
892.862	50.69
893.032	-6.66
893.203	5.63
893.374	58.88
893.545	-12.8
893.716	-23.04
893.887	54.78
894.057	-61.95
894.228	40.45
894.399	-59.9
894.57	116.22
894.74	42.5
894.911	65.02
895.082	-0.51
895.253	46.59
895.423	-41.47
895.594	93.69
895.764	-25.09
895.935	13.82
896.106	36.35
896.276	40.45
896.447	28.16
896.617	15.87
896.788	-0.51
896.958	28.16
897.129	1.54
897.299	40.45
897.47	71.17
897.64	46.59
897.81	-27.14
897.981	75.26
898.151	1.54
898.322	108.03
898.492	38.4
898.662	-18.94
898.832	13.82
899.003	30.21
899.173	-14.85
899.343	-23.04
899.513	46.59
