Data from USB4F104151__67__10-24-02-622.txt Node

Date: Wed Mar 12 10:24:02 EDT 2025
User: louis
Spectrometer: USB4F10415
Trigger mode: 4
Integration Time (sec): 3.000000E-2
Scans to average: 1
Electric dark correction enabled: true
Nonlinearity correction enabled: false
Boxcar width: 0
XAxis mode: Wavelengths
Number of Pixels in Spectrum: 3648
>>>>>Begin Spectral Data<<<<<
178.204	-83.45
178.424	-83.45
178.644	-83.45
178.864	-130.56
179.084	-146.94
179.304	-13.82
179.524	-1.54
179.744	51.71
179.964	-34.3
180.184	-28.16
180.404	43.52
180.624	8.7
180.844	-13.82
181.064	-3.58
181.283	-26.11
181.503	-38.4
181.723	55.81
181.943	-32.26
182.163	51.71
182.383	-34.3
182.602	-50.69
182.822	-36.35
183.042	29.18
183.262	-5.63
183.482	43.52
183.701	-5.63
183.921	57.86
184.141	25.09
184.361	90.62
184.58	18.94
184.8	-34.3
185.02	53.76
185.239	25.09
185.459	-13.82
185.679	6.66
185.898	80.38
186.118	31.23
186.338	-5.63
186.557	18.94
186.777	-65.02
186.997	-22.02
187.216	16.9
187.436	57.86
187.655	-24.06
187.875	80.38
188.095	45.57
188.314	68.09
188.534	80.38
188.753	-38.4
188.973	49.66
189.192	25.09
189.412	43.52
189.631	-3.58
189.851	-17.92
190.07	16.9
190.29	-26.11
190.509	31.23
190.729	-1.54
190.948	35.33
191.168	117.25
191.387	-5.63
191.607	-1.54
191.826	84.48
192.045	-13.82
192.265	-30.21
192.484	-24.06
192.704	-62.98
192.923	-15.87
193.142	37.38
193.362	33.28
193.581	92.67
193.8	29.18
194.02	2.56
194.239	-15.87
194.458	64
194.678	0.51
194.897	-22.02
195.116	0.51
195.335	-5.63
195.555	-19.97
195.774	-26.11
195.993	66.05
196.212	-5.63
196.432	8.7
196.651	39.42
196.87	-26.11
197.089	113.15
197.308	80.38
197.528	33.28
197.747	2.56
197.966	68.09
198.185	86.53
198.404	33.28
198.623	57.86
198.842	27.14
199.062	-24.06
199.281	-13.82
199.5	-3.58
199.719	31.23
199.938	18.94
200.157	27.14
200.376	76.29
200.595	-7.68
200.814	-67.07
201.033	-17.92
201.252	72.19
201.471	18.94
201.69	25.09
201.909	-5.63
202.128	59.9
202.347	76.29
202.566	14.85
202.785	-5.63
203.004	-54.78
203.223	43.52
203.442	31.23
203.661	-5.63
203.879	27.14
204.098	59.9
204.317	-5.63
204.536	10.75
204.755	33.28
204.974	59.9
205.193	-17.92
205.411	57.86
205.63	-26.11
205.849	45.57
206.068	-42.5
206.287	-7.68
206.505	-5.63
206.724	33.28
206.943	41.47
207.162	12.8
207.381	72.19
207.599	-30.21
207.818	-32.26
208.037	-36.35
208.255	-44.54
208.474	-24.06
208.693	25.09
208.911	-11.78
209.13	-38.4
209.349	-7.68
209.567	33.28
209.786	68.09
210.005	68.09
210.223	18.94
210.442	16.9
210.661	29.18
210.879	-13.82
211.098	-34.3
211.316	-5.63
211.535	-28.16
211.753	82.43
211.972	-15.87
212.191	-17.92
212.409	8.7
212.628	-38.4
212.846	-34.3
213.065	-22.02
213.283	10.75
213.502	35.33
213.72	47.62
213.938	70.14
214.157	66.05
214.375	6.66
214.594	-32.26
214.812	51.71
215.031	-44.54
215.249	-1.54
215.467	35.33
215.686	14.85
215.904	0.51
216.122	6.66
216.341	135.68
216.559	0.51
216.778	39.42
216.996	33.28
217.214	20.99
217.432	-36.35
217.651	-15.87
217.869	25.09
218.087	-9.73
218.306	2.56
218.524	37.38
218.742	41.47
218.96	-42.5
219.179	-40.45
219.397	-13.82
219.615	78.33
219.833	74.24
220.051	-24.06
220.27	41.47
220.488	33.28
220.706	12.8
220.924	35.33
221.142	35.33
221.36	16.9
221.578	-97.79
221.796	6.66
222.015	66.05
222.233	-9.73
222.451	53.76
222.669	-60.93
222.887	-5.63
223.105	43.52
223.323	-62.98
223.541	-56.83
223.759	23.04
223.977	27.14
224.195	70.14
224.413	76.29
224.631	20.99
224.849	33.28
225.067	23.04
225.285	-40.45
225.503	-7.68
225.721	-58.88
225.939	0.51
226.157	8.7
226.375	68.09
226.592	33.28
226.81	64
227.028	43.52
227.246	76.29
227.464	-50.69
227.682	76.29
227.9	43.52
228.117	0.51
228.335	14.85
228.553	-52.74
228.771	-38.4
228.989	31.23
229.206	72.19
229.424	10.75
229.642	8.7
229.86	-26.11
230.077	84.48
230.295	31.23
230.513	109.05
230.731	51.71
230.948	0.51
231.166	66.05
231.384	25.09
231.601	-52.74
231.819	82.43
232.037	-26.11
232.254	31.23
232.472	-15.87
232.689	-46.59
232.907	68.09
233.125	-1.54
233.342	-42.5
233.56	-40.45
233.777	47.62
233.995	59.9
234.213	68.09
234.43	45.57
234.648	0.51
234.865	-1.54
235.083	37.38
235.3	-54.78
235.518	59.9
235.735	16.9
235.953	59.9
236.17	-93.69
236.388	53.76
236.605	2.56
236.822	4.61
237.04	-30.21
237.257	-13.82
237.475	23.04
237.692	-5.63
237.909	29.18
238.127	31.23
238.344	59.9
238.562	0.51
238.779	-22.02
238.996	-9.73
239.214	2.56
239.431	90.62
239.648	-19.97
239.865	10.75
240.083	31.23
240.3	-9.73
240.517	-54.78
240.735	23.04
240.952	53.76
241.169	27.14
241.386	35.33
241.603	-54.78
241.821	-48.64
242.038	45.57
242.255	76.29
242.472	6.66
242.689	29.18
242.907	84.48
243.124	29.18
243.341	-7.68
243.558	18.94
243.775	-22.02
243.992	2.56
244.209	82.43
244.426	35.33
244.643	4.61
244.86	-17.92
245.078	47.62
245.295	-9.73
245.512	104.96
245.729	-30.21
245.946	49.66
246.163	2.56
246.38	27.14
246.597	2.56
246.814	25.09
247.031	-26.11
247.248	0.51
247.464	-19.97
247.681	59.9
247.898	35.33
248.115	59.9
248.332	-62.98
248.549	55.81
248.766	0.51
248.983	2.56
249.2	23.04
249.417	0.51
249.633	10.75
249.85	-1.54
250.067	2.56
250.284	10.75
250.501	-5.63
250.717	-22.02
250.934	-11.78
251.151	-11.78
251.368	-40.45
251.585	51.71
251.801	39.42
252.018	-24.06
252.235	-1.54
252.451	20.99
252.668	-30.21
252.885	-11.78
253.102	10.75
253.318	35.33
253.535	35.33
253.752	59.9
253.968	23.04
254.185	-5.63
254.401	4.61
254.618	6.66
254.835	-60.93
255.051	51.71
255.268	49.66
255.484	0.51
255.701	27.14
255.917	-5.63
256.134	-75.26
256.351	2.56
256.567	-13.82
256.784	27.14
257	-34.3
257.217	27.14
257.433	14.85
257.65	-34.3
257.866	-15.87
258.082	-7.68
258.299	-32.26
258.515	8.7
258.732	35.33
258.948	-30.21
259.165	27.14
259.381	35.33
259.597	-32.26
259.814	-36.35
260.03	8.7
260.246	8.7
260.463	49.66
260.679	131.58
260.895	23.04
261.112	10.75
261.328	-54.78
261.544	-11.78
261.761	76.29
261.977	16.9
262.193	45.57
262.409	-9.73
262.626	10.75
262.842	84.48
263.058	-7.68
263.274	84.48
263.49	49.66
263.707	18.94
263.923	57.86
264.139	61.95
264.355	35.33
264.571	59.9
264.787	-28.16
265.004	2.56
265.22	-32.26
265.436	-52.74
265.652	-13.82
265.868	33.28
266.084	-83.45
266.3	20.99
266.516	-42.5
266.732	41.47
266.948	-48.64
267.164	47.62
267.38	-34.3
267.596	4.61
267.812	-38.4
268.028	53.76
268.244	41.47
268.46	35.33
268.676	31.23
268.892	-9.73
269.108	-26.11
269.324	-40.45
269.54	-69.12
269.756	59.9
269.972	-22.02
270.188	2.56
270.403	-11.78
270.619	-19.97
270.835	10.75
271.051	18.94
271.267	51.71
271.483	23.04
271.698	41.47
271.914	-5.63
272.13	-7.68
272.346	0.51
272.562	2.56
272.777	27.14
272.993	2.56
273.209	47.62
273.425	47.62
273.64	109.05
273.856	-13.82
274.072	18.94
274.287	-5.63
274.503	-32.26
274.719	6.66
274.934	-38.4
275.15	2.56
275.366	-13.82
275.581	-34.3
275.797	18.94
276.012	23.04
276.228	16.9
276.444	-44.54
276.659	59.9
276.875	10.75
277.09	59.9
277.306	-38.4
277.521	-52.74
277.737	18.94
277.952	25.09
278.168	20.99
278.383	49.66
278.599	8.7
278.814	8.7
279.03	25.09
279.245	55.81
279.461	10.75
279.676	-75.26
279.892	51.71
280.107	39.42
280.322	-5.63
280.538	-17.92
280.753	-15.87
280.969	-5.63
281.184	6.66
281.399	57.86
281.615	39.42
281.83	2.56
282.045	-77.31
282.26	35.33
282.476	76.29
282.691	74.24
282.906	23.04
283.122	64
283.337	16.9
283.552	-13.82
283.767	68.09
283.983	92.67
284.198	-32.26
284.413	14.85
284.628	35.33
284.843	-1.54
285.058	135.68
285.274	16.9
285.489	-9.73
285.704	33.28
285.919	-71.17
286.134	51.71
286.349	-5.63
286.564	-5.63
286.779	117.25
286.995	-19.97
287.21	23.04
287.425	61.95
287.64	37.38
287.855	72.19
288.07	-54.78
288.285	78.33
288.5	-1.54
288.715	25.09
288.93	-38.4
289.145	-13.82
289.36	47.62
289.575	-7.68
289.79	59.9
290.004	-67.07
290.219	35.33
290.434	-26.11
290.649	-19.97
290.864	-5.63
291.079	80.38
291.294	-71.17
291.509	-22.02
291.724	35.33
291.938	-22.02
292.153	76.29
292.368	-71.17
292.583	27.14
292.798	-22.02
293.012	18.94
293.227	14.85
293.442	-11.78
293.657	107.01
293.871	59.9
294.086	53.76
294.301	70.14
294.516	45.57
294.73	37.38
294.945	-13.82
295.16	98.81
295.374	6.66
295.589	57.86
295.804	12.8
296.018	51.71
296.233	66.05
296.447	68.09
296.662	-38.4
296.877	72.19
297.091	35.33
297.306	29.18
297.52	61.95
297.735	88.57
297.949	33.28
298.164	-1.54
298.378	-40.45
298.593	-3.58
298.807	-44.54
299.022	74.24
299.236	14.85
299.451	-17.92
299.665	-73.21
299.88	33.28
300.094	-3.58
300.309	49.66
300.523	41.47
300.737	-34.3
300.952	45.57
301.166	12.8
301.381	-7.68
301.595	27.14
301.809	14.85
302.024	2.56
302.238	-75.26
302.452	23.04
302.667	-32.26
302.881	-26.11
303.095	76.29
303.309	0.51
303.524	6.66
303.738	14.85
303.952	47.62
304.166	4.61
304.381	-62.98
304.595	-1.54
304.809	16.9
305.023	-79.36
305.237	-58.88
305.452	-19.97
305.666	74.24
305.88	-5.63
306.094	-3.58
306.308	35.33
306.522	68.09
306.736	-9.73
306.95	51.71
307.164	18.94
307.379	18.94
307.593	37.38
307.807	-11.78
308.021	80.38
308.235	-46.59
308.449	-1.54
308.663	68.09
308.877	96.77
309.091	51.71
309.305	-7.68
309.519	-30.21
309.733	4.61
309.947	8.7
310.161	16.9
310.374	33.28
310.588	61.95
310.802	-1.54
311.016	41.47
311.23	-13.82
311.444	6.66
311.658	2.56
311.872	80.38
312.085	90.62
312.299	117.25
312.513	12.8
312.727	-9.73
312.941	27.14
313.154	39.42
313.368	41.47
313.582	2.56
313.796	-19.97
314.009	23.04
314.223	-3.58
314.437	84.48
314.651	41.47
314.864	-48.64
315.078	-24.06
315.292	64
315.505	-15.87
315.719	61.95
315.933	43.52
316.146	-15.87
316.36	27.14
316.573	55.81
316.787	2.56
317.001	66.05
317.214	12.8
317.428	45.57
317.641	-5.63
317.855	2.56
318.068	-22.02
318.282	61.95
318.495	-22.02
318.709	-5.63
318.922	88.57
319.136	49.66
319.349	23.04
319.563	8.7
319.776	68.09
319.99	-30.21
320.203	6.66
320.417	-15.87
320.63	16.9
320.843	88.57
321.057	41.47
321.27	35.33
321.483	-1.54
321.697	59.9
321.91	-3.58
322.124	35.33
322.337	39.42
322.55	-28.16
322.763	82.43
322.977	59.9
323.19	-5.63
323.403	12.8
323.617	-1.54
323.83	68.09
324.043	-30.21
324.256	53.76
324.469	10.75
324.683	64
324.896	88.57
325.109	76.29
325.322	-62.98
325.535	145.92
325.748	72.19
325.962	55.81
326.175	80.38
326.388	23.04
326.601	35.33
326.814	2.56
327.027	-19.97
327.24	29.18
327.453	47.62
327.666	23.04
327.879	53.76
328.092	-1.54
328.305	43.52
328.518	-40.45
328.731	-5.63
328.944	47.62
329.157	20.99
329.37	-56.83
329.583	47.62
329.796	190.97
330.009	39.42
330.222	-17.92
330.435	74.24
330.648	6.66
330.861	29.18
331.073	23.04
331.286	84.48
331.499	-11.78
331.712	-28.16
331.925	102.91
332.138	41.47
332.35	121.34
332.563	12.8
332.776	57.86
332.989	-30.21
333.202	-99.84
333.414	-26.11
333.627	37.38
333.84	-24.06
334.053	-9.73
334.265	27.14
334.478	6.66
334.691	2.56
334.903	0.51
335.116	-13.82
335.329	16.9
335.541	68.09
335.754	104.96
335.966	37.38
336.179	-1.54
336.392	51.71
336.604	-7.68
336.817	23.04
337.029	-13.82
337.242	14.85
337.454	59.9
337.667	64
337.88	12.8
338.092	80.38
338.305	49.66
338.517	45.57
338.729	23.04
338.942	59.9
339.154	14.85
339.367	-42.5
339.579	39.42
339.792	59.9
340.004	45.57
340.217	39.42
340.429	16.9
340.641	25.09
340.854	41.47
341.066	16.9
341.278	78.33
341.491	12.8
341.703	64
341.915	-1.54
342.128	55.81
342.34	10.75
342.552	47.62
342.764	100.86
342.977	55.81
343.189	43.52
343.401	25.09
343.613	14.85
343.826	70.14
344.038	16.9
344.25	-17.92
344.462	-38.4
344.674	-40.45
344.886	33.28
345.099	-7.68
345.311	84.48
345.523	47.62
345.735	29.18
345.947	68.09
346.159	20.99
346.371	-24.06
346.583	-56.83
346.795	78.33
347.007	72.19
347.219	-13.82
347.431	51.71
347.643	-36.35
347.855	27.14
348.067	88.57
348.279	-24.06
348.491	33.28
348.703	33.28
348.915	25.09
349.127	27.14
349.339	100.86
349.551	39.42
349.763	23.04
349.975	20.99
350.187	74.24
350.399	37.38
350.61	51.71
350.822	4.61
351.034	25.09
351.246	14.85
351.458	-34.3
351.669	-22.02
351.881	23.04
352.093	57.86
352.305	0.51
352.517	57.86
352.728	59.9
352.94	27.14
353.152	88.57
353.363	-30.21
353.575	41.47
353.787	92.67
353.999	18.94
354.21	66.05
354.422	-7.68
354.633	66.05
354.845	72.19
355.057	74.24
355.268	16.9
355.48	20.99
355.692	-32.26
355.903	18.94
356.115	47.62
356.326	0.51
356.538	61.95
356.749	61.95
356.961	47.62
357.172	-22.02
357.384	43.52
357.595	61.95
357.807	43.52
358.018	-38.4
358.23	27.14
358.441	16.9
358.653	39.42
358.864	20.99
359.075	-28.16
359.287	31.23
359.498	55.81
359.709	68.09
359.921	80.38
360.132	78.33
360.344	35.33
360.555	31.23
360.766	25.09
360.977	25.09
361.189	59.9
361.4	10.75
361.611	100.86
361.823	90.62
362.034	35.33
362.245	72.19
362.456	29.18
362.667	39.42
362.879	-22.02
363.09	51.71
363.301	14.85
363.512	41.47
363.723	59.9
363.935	16.9
364.146	84.48
364.357	27.14
364.568	66.05
364.779	37.38
364.99	96.77
365.201	25.09
365.412	23.04
365.623	16.9
365.834	43.52
366.045	57.86
366.256	68.09
366.467	66.05
366.678	37.38
366.889	23.04
367.1	49.66
367.311	51.71
367.522	12.8
367.733	2.56
367.944	90.62
368.155	10.75
368.366	18.94
368.577	47.62
368.788	43.52
368.999	61.95
369.209	10.75
369.42	86.53
369.631	29.18
369.842	43.52
370.053	98.81
370.264	66.05
370.474	-22.02
370.685	74.24
370.896	37.38
371.107	64
371.317	45.57
371.528	31.23
371.739	80.38
371.95	51.71
372.16	53.76
372.371	27.14
372.582	49.66
372.792	8.7
373.003	61.95
373.214	-48.64
373.424	64
373.635	43.52
373.846	166.4
374.056	35.33
374.267	18.94
374.477	-34.3
374.688	-15.87
374.898	0.51
375.109	68.09
375.319	35.33
375.53	0.51
375.74	-7.68
375.951	41.47
376.161	-30.21
376.372	49.66
376.582	8.7
376.793	72.19
377.003	18.94
377.214	51.71
377.424	35.33
377.635	98.81
377.845	18.94
378.055	59.9
378.266	31.23
378.476	55.81
378.686	68.09
378.897	-60.93
379.107	90.62
379.317	4.61
379.528	82.43
379.738	27.14
379.948	-46.59
380.158	80.38
380.369	111.1
380.579	41.47
380.789	33.28
380.999	-13.82
381.21	88.57
381.42	55.81
381.63	12.8
381.84	64
382.05	70.14
382.261	80.38
382.471	64
382.681	12.8
382.891	43.52
383.101	47.62
383.311	-11.78
383.521	43.52
383.731	94.72
383.941	80.38
384.151	43.52
384.361	74.24
384.571	39.42
384.781	47.62
384.991	98.81
385.201	121.34
385.411	61.95
385.621	117.25
385.831	76.29
386.041	117.25
386.251	45.57
386.461	59.9
386.671	25.09
386.881	16.9
387.091	76.29
387.301	10.75
387.511	8.7
387.72	88.57
387.93	49.66
388.14	-30.21
388.35	49.66
388.56	51.71
388.769	121.34
388.979	49.66
389.189	51.71
389.399	125.44
389.609	131.58
389.818	92.67
390.028	160.25
390.238	49.66
390.447	33.28
390.657	59.9
390.867	2.56
391.076	70.14
391.286	76.29
391.496	96.77
391.705	70.14
391.915	86.53
392.125	66.05
392.334	49.66
392.544	66.05
392.753	55.81
392.963	39.42
393.172	-1.54
393.382	119.29
393.591	74.24
393.801	-7.68
394.01	31.23
394.22	98.81
394.429	92.67
394.639	23.04
394.848	72.19
395.058	72.19
395.267	80.38
395.477	20.99
395.686	123.39
395.895	98.81
396.105	29.18
396.314	51.71
396.524	123.39
396.733	-7.68
396.942	29.18
397.152	70.14
397.361	117.25
397.57	113.15
397.78	92.67
397.989	117.25
398.198	117.25
398.407	127.49
398.617	27.14
398.826	20.99
399.035	43.52
399.244	90.62
399.453	74.24
399.663	156.16
399.872	74.24
400.081	96.77
400.29	123.39
400.499	92.67
400.708	96.77
400.917	104.96
401.127	88.57
401.336	68.09
401.545	59.9
401.754	100.86
401.963	88.57
402.172	147.97
402.381	123.39
402.59	131.58
402.799	145.92
403.008	170.49
403.217	72.19
403.426	92.67
403.635	98.81
403.844	88.57
404.053	94.72
404.262	92.67
404.471	184.83
404.68	117.25
404.888	129.53
405.097	107.01
405.306	131.58
405.515	150.01
405.724	78.33
405.933	158.21
406.142	168.45
406.35	162.3
406.559	172.54
406.768	98.81
406.977	203.26
407.185	182.78
407.394	180.73
407.603	92.67
407.812	197.12
408.02	199.16
408.229	211.45
408.438	203.26
408.646	174.59
408.855	188.93
409.064	217.6
409.272	283.13
409.481	262.65
409.69	258.56
409.898	250.36
410.107	268.8
410.315	281.08
410.524	264.7
410.733	301.56
410.941	336.38
411.15	287.23
411.358	313.85
411.567	436.73
411.775	369.15
411.984	489.98
412.192	449.02
412.401	428.54
412.609	586.23
412.818	455.16
413.026	487.93
413.234	442.87
413.443	469.5
413.651	473.59
413.86	561.66
414.068	473.59
414.276	575.99
414.485	645.62
414.693	641.53
414.901	739.83
415.11	612.85
415.318	596.47
415.526	598.52
415.734	600.57
415.943	655.86
416.151	719.35
416.359	715.25
416.567	831.99
416.776	805.36
416.984	901.62
417.192	911.86
417.4	838.13
417.608	909.81
417.817	940.53
418.025	991.73
418.233	1137.13
418.441	1026.54
418.649	1200.62
418.857	1108.46
419.065	1317.36
419.273	1237.49
419.481	1206.77
419.689	1354.22
419.897	1366.51
420.105	1397.23
420.313	1429.99
420.521	1440.23
420.729	1556.97
420.937	1591.78
421.145	1632.74
421.353	1681.89
421.561	1757.67
421.769	1882.6
421.977	1835.49
422.185	1847.78
422.393	1982.95
422.601	2212.32
422.809	2114.02
423.017	2118.11
423.224	2230.75
423.432	2263.52
423.64	2279.9
423.848	2511.32
424.056	2441.69
424.263	2738.65
424.471	2570.71
424.679	2634.2
424.887	2953.68
425.094	2982.35
425.302	2882
425.51	2947.54
425.718	3121.62
425.925	3248.59
426.133	3322.32
426.341	3441.1
426.548	3504.59
426.756	3484.11
426.964	3748.29
427.171	3926.47
427.379	4043.2
427.586	3871.17
427.794	4250.05
428.001	4368.83
428.209	4499.9
428.417	4540.86
428.624	4850.1
428.832	4823.48
429.039	4798.9
429.247	4690.36
429.454	5151.15
429.662	5437.87
429.869	5069.23
430.076	5640.62
430.284	5425.58
430.491	5722.54
430.699	5982.63
430.906	5884.33
431.114	6027.68
431.321	6156.71
431.528	6574.49
431.736	6707.61
431.943	7129.49
432.15	6822.3
432.358	6969.75
432.565	7414.16
432.772	7307.66
432.979	7717.26
433.187	7833.99
433.394	7862.66
433.601	8358.27
433.808	8636.8
434.016	8251.78
434.223	8804.73
434.43	9228.66
434.637	8868.22
434.844	9542
435.052	9816.43
435.259	9728.36
435.466	9972.07
435.673	9761.13
435.88	10336.61
436.087	10750.3
436.294	10946.9
436.501	10715.48
436.708	10901.85
436.915	11202.9
437.122	11731.28
437.329	11639.12
437.537	11936.07
437.743	12368.2
437.95	12212.55
438.157	12859.71
438.364	13189.43
438.571	13220.15
438.778	13216.05
438.985	14573.86
439.192	14022.95
439.399	14391.59
439.606	13945.13
439.813	14903.58
440.02	15741.2
440.227	15470.87
440.433	15296.79
440.64	15956.24
440.847	15837.45
441.054	15851.79
441.261	17244.41
441.467	16935.17
441.674	16955.65
441.881	17707.25
442.088	17791.22
442.294	17658.1
442.501	18094.32
442.708	18577.64
442.914	19310.81
443.121	19861.71
443.328	19493.08
443.534	21008.58
443.741	20320.46
443.948	19767.51
444.154	21475.51
444.361	21495.99
444.568	21520.57
444.774	21506.23
444.981	21737.65
445.187	22687.91
445.394	23191.71
445.6	22962.34
445.807	25180.29
446.013	24006.8
446.22	24496.27
446.426	25407.61
446.633	25876.6
446.839	26378.35
447.046	25688.18
447.252	26630.25
447.459	26624.11
447.665	26718.31
447.871	27861.08
448.078	28954.69
448.284	27566.17
448.491	28471.37
448.697	29276.23
448.903	29870.14
449.11	30089.27
449.316	29636.67
449.522	30058.55
449.728	30640.17
449.935	30875.69
450.141	31111.21
450.347	31469.6
450.553	30576.69
450.76	30822.44
450.966	32108.57
451.172	31594.53
451.378	32563.22
451.584	31694.88
451.791	32446.48
451.997	32585.74
452.203	32776.2
452.409	33044.49
452.615	32622.61
452.821	31520.8
453.027	31281.19
453.233	32630.8
453.44	31318.05
453.646	31402.02
453.852	32063.51
454.058	32362.51
454.264	31072.29
454.47	32047.13
454.676	31264.8
454.882	32006.17
455.088	29087.81
455.294	29907
455.5	30056.5
455.705	30509.1
455.911	29306.94
456.117	28946.5
456.323	28348.5
456.529	26476.65
456.735	27914.33
456.941	27361.37
457.147	26855.53
457.352	25901.17
457.558	25659.51
457.764	25677.94
457.97	25053.31
458.176	25198.72
458.381	24543.37
458.587	23128.22
458.793	23273.63
458.999	22229.16
459.204	23529.62
459.41	23109.79
459.616	21878.96
459.821	21358.78
460.027	21313.72
460.233	21018.82
460.438	19914.96
460.644	20181.2
460.85	19353.82
461.055	19063.01
461.261	19065.05
461.466	17553.65
461.672	16967.93
461.878	18391.27
462.083	17152.25
462.289	16742.66
462.494	16707.84
462.7	15853.84
462.905	15358.23
463.111	16015.63
463.316	16218.38
463.522	15632.66
463.727	15784.21
463.932	15843.6
464.138	15419.67
464.343	15892.75
464.549	15284.5
464.754	15685.9
464.959	15536.4
465.165	15339.8
465.37	14782.75
465.575	14371.11
465.781	14979.36
465.986	15321.37
466.191	14410.02
466.397	14473.51
466.602	13752.62
466.807	14141.74
467.012	13875.5
467.218	13820.21
467.423	13875.5
467.628	13852.97
467.833	14504.23
468.038	13875.5
468.244	13171
468.449	14041.39
468.654	13431.09
468.859	13408.56
469.064	13576.5
469.269	12921.15
469.474	13056.31
469.679	13156.66
469.885	12769.6
470.09	13078.84
470.295	12751.17
470.5	12558.66
470.705	12630.34
470.91	12110.15
471.115	12421.44
471.32	12536.13
471.525	12253.51
471.73	12087.62
471.935	12026.18
472.139	11714.89
472.344	11819.34
472.549	11884.87
472.754	11649.36
472.959	11284.82
473.164	10961.24
473.369	10864.99
473.574	11370.83
473.778	11147.61
473.983	11145.56
474.188	10983.77
474.393	10510.69
474.598	10512.74
474.802	10344.8
475.007	10551.65
475.212	10275.17
475.417	10058.09
475.621	10027.37
475.826	10033.51
476.031	9965.93
476.235	9636.2
476.44	9703.79
476.645	9628.01
476.849	9714.03
477.054	9623.92
477.259	9437.55
477.463	9533.81
477.668	9132.4
477.872	9286
478.077	9161.08
478.282	8913.27
478.486	8960.38
478.691	8817.02
478.895	8821.11
479.1	8778.11
479.304	8640.89
479.509	8546.69
479.713	8481.15
479.918	8432
480.122	8421.76
480.326	8518.01
480.531	8675.71
480.735	8382.85
480.94	8247.68
481.144	8554.88
481.348	8204.67
481.553	8356.22
481.757	8198.53
481.961	8329.6
482.166	8335.74
482.37	8327.55
482.574	8145.28
482.778	8259.97
482.983	8345.98
483.187	8210.82
483.391	8014.21
483.595	8223.11
483.8	7903.62
484.004	8266.11
484.208	8169.86
484.412	8184.2
484.616	8186.24
484.821	8202.63
485.025	8087.94
485.229	8167.81
485.433	8022.41
485.637	8413.57
485.841	7874.95
486.045	8114.56
486.249	8288.64
486.453	8130.95
486.657	8040.84
486.861	8102.28
487.065	7944.58
487.269	8180.1
487.473	8067.46
487.677	8206.72
487.881	8257.92
488.085	8259.97
488.289	8305.03
488.493	8100.23
488.697	8249.73
488.901	8157.57
489.105	8116.61
489.309	8108.42
489.512	8374.66
489.716	8286.59
489.92	8225.15
490.124	8272.26
490.328	8446.34
490.531	8135.04
490.735	8378.75
490.939	8251.78
491.143	8309.12
491.346	8321.41
491.55	8429.95
491.754	8460.67
491.958	8561.02
492.161	8565.12
492.365	8534.4
492.569	8597.88
492.772	8671.61
492.976	8950.14
493.18	8907.13
493.383	8855.93
493.587	8759.67
493.79	9054.58
493.994	9015.67
494.197	8896.89
494.401	9136.5
494.605	9202.04
494.808	9273.71
495.012	9482.61
495.215	9357.68
495.419	9562.48
495.622	9419.12
495.825	9400.69
496.029	9519.47
496.232	9746.8
496.436	9634.16
496.639	10037.61
496.843	9828.71
497.046	10271.08
497.249	10410.34
497.453	10336.61
497.656	10604.89
497.859	10314.08
498.063	10658.14
498.266	10803.55
498.469	10867.03
498.673	10979.67
498.876	10862.94
499.079	10946.9
499.282	11118.93
499.485	11538.77
499.689	11438.42
499.892	11565.39
500.095	11391.31
500.298	11993.42
500.501	11819.34
500.705	12144.97
500.908	12013.9
501.111	12454.21
501.314	12603.71
501.517	12601.66
501.72	12712.25
501.923	12888.38
502.126	13195.57
502.329	13281.59
502.532	13408.56
502.735	13498.67
502.938	13660.46
503.141	13840.68
503.344	13711.66
503.547	14117.16
503.75	14293.29
503.953	14356.77
504.156	14575.91
504.359	14588.19
504.562	14895.39
504.765	15175.96
504.968	15474.96
505.17	15229.21
505.373	15321.37
505.576	16040.2
505.779	15943.95
505.982	15812.88
506.185	16386.31
506.387	16232.71
506.59	16709.89
506.793	16988.41
506.996	16877.82
507.198	17299.7
507.401	17066.24
507.604	17674.48
507.807	17680.63
508.009	17697.01
508.212	17979.63
508.415	18292.97
508.617	18573.54
508.82	18495.72
509.022	18460.9
509.225	19089.63
509.428	19126.49
509.63	19685.59
509.833	19378.39
510.035	19935.44
510.238	19761.36
510.44	20115.66
510.643	20467.91
510.845	20885.7
511.048	20568.26
511.25	20883.65
511.453	21176.51
511.655	21735.6
511.858	21608.63
512.06	21852.34
512.262	22018.22
512.465	22102.19
512.667	22296.75
512.87	22692.01
513.072	22954.15
513.274	23179.42
513.477	23574.68
513.679	23799.96
513.881	23849.11
514.084	24307.85
514.286	24426.64
514.488	24502.41
514.69	24965.25
514.893	25104.51
515.095	25311.36
515.297	25589.88
515.499	25577.59
515.701	25821.3
515.904	26497.13
516.106	26636.39
516.308	26886.25
516.51	27144.29
516.712	26929.25
516.914	27301.98
517.116	27955.29
517.318	28029.01
517.52	28264.53
517.722	28237.91
517.925	28893.26
518.127	29413.44
518.329	29079.62
518.531	28983.37
518.733	29960.25
518.935	29995.06
519.136	29964.34
519.338	30294.07
519.54	30820.39
519.742	30976.04
519.944	31195.17
520.146	31717.4
520.348	32161.81
520.55	31914.01
520.752	32233.49
520.954	32833.55
521.155	32415.76
521.357	33017.86
521.559	33081.35
521.761	34031.61
521.963	33542.14
522.164	34029.56
522.366	34123.77
522.568	34283.51
522.77	34895.85
522.971	35196.9
523.173	35362.79
523.375	35598.3
523.576	35471.33
523.778	35577.83
523.98	36100.06
524.181	36472.79
524.383	36333.53
524.584	37025.74
524.786	37156.81
524.988	37013.45
525.189	37552.07
525.391	37523.4
525.592	38170.55
525.794	38152.12
525.995	38002.62
526.197	38270.9
526.398	38334.39
526.6	38600.63
526.801	38963.12
527.003	39051.18
527.204	38977.45
527.406	39645.09
527.607	39716.77
527.808	40173.47
528.01	39407.53
528.211	40179.61
528.412	40732.56
528.614	40460.18
528.815	40169.37
529.016	40959.89
529.218	40183.71
529.419	40703.89
529.62	40775.57
529.822	41037.71
530.023	40718.23
530.224	41611.14
530.425	40996.75
530.626	41469.83
530.828	40849.3
531.029	41871.23
531.23	41283.47
531.431	41473.93
531.632	41559.94
531.833	41957.25
532.035	42248.06
532.236	41971.58
532.437	42127.23
532.638	41971.58
532.839	42473.34
533.04	42508.15
533.241	42211.2
533.442	42633.08
533.643	42286.97
533.844	42059.65
534.045	42532.73
534.246	42293.11
534.447	42313.59
534.648	42127.23
534.849	42389.37
535.05	42112.89
535.251	42432.38
535.451	42489.72
535.652	42776.44
535.853	42559.35
536.054	42485.62
536.255	43177.84
536.456	42262.4
536.657	43433.83
536.857	42850.16
537.058	42522.49
537.259	42882.93
537.46	43040.62
537.66	42766.2
537.861	42823.54
538.062	43032.43
538.263	43177.84
538.463	42946.42
538.664	42381.18
538.865	42938.22
539.065	43167.6
539.266	42696.56
539.466	43093.87
539.667	42651.51
539.868	43364.2
540.068	42418.04
540.269	43284.33
540.469	43237.23
540.67	42911.6
540.87	42958.7
541.071	42495.86
541.271	42921.84
541.472	42954.61
541.672	42608.5
541.873	42864.5
542.073	42483.58
542.274	43177.84
542.474	42715
542.675	42481.53
542.875	43136.88
543.075	42733.43
543.276	42243.96
543.476	43167.6
543.676	42661.75
543.877	42884.98
544.077	42717.04
544.277	42835.83
544.478	42551.16
544.678	43022.19
544.878	42778.48
545.078	42669.94
545.279	42528.63
545.479	42590.07
545.679	42983.28
545.879	42936.18
546.079	43059.05
546.28	42299.26
546.48	42116.99
546.68	42794.87
546.88	43087.73
547.08	42581.88
547.28	42618.74
547.48	42639.22
547.68	42782.58
547.88	42530.68
548.081	42921.84
548.281	42864.5
548.481	42510.2
548.681	42729.33
548.881	42465.14
549.081	42669.94
549.28	42639.22
549.48	42964.85
549.68	42530.68
549.88	43384.68
550.08	42360.7
550.28	42733.43
550.48	42606.45
550.68	42813.3
550.88	42397.56
551.08	42286.97
551.279	42184.57
551.479	42221.44
551.679	42585.97
551.879	42215.29
552.079	42272.63
552.278	42432.38
552.478	42309.5
552.678	42350.46
552.878	42293.11
553.077	42258.3
553.277	42092.41
553.477	42456.95
553.676	42024.83
553.876	42162.04
554.076	41928.58
554.275	42028.93
554.475	41705.35
554.674	42391.42
554.874	41615.24
555.074	41574.28
555.273	42170.24
555.473	42442.62
555.672	41836.42
555.872	41672.58
556.071	41688.96
556.271	41715.59
556.47	41590.66
556.67	41580.42
556.869	41271.18
557.068	41684.87
557.268	41050
557.467	41693.06
557.667	41242.51
557.866	41525.13
558.065	41305.99
558.265	41127.82
558.464	41381.77
558.663	41336.71
558.863	40755.09
559.062	41396.1
559.261	40753.04
559.461	41271.18
559.66	40609.68
559.859	40572.82
560.058	40877.97
560.258	40824.72
560.457	40138.65
560.656	40744.85
560.855	40267.67
561.054	40714.13
561.253	39915.42
561.453	40230.81
561.652	40191.9
561.851	40214.43
562.05	39948.19
562.249	39972.77
562.448	40230.81
562.647	39882.66
562.846	39800.74
563.045	39704.48
563.244	39385
563.443	39841.7
563.642	38778.8
563.841	39378.86
564.04	39133.1
564.239	39294.89
564.438	38778.8
564.637	39098.28
564.836	39296.94
565.035	38760.37
565.234	38682.55
565.432	38641.59
565.631	38717.36
565.83	38911.92
566.029	38318.01
566.228	38100.92
566.427	38369.21
566.625	37642.18
566.824	37623.75
567.023	38311.86
567.222	37072.84
567.42	38072.25
567.619	37693.38
567.818	37806.02
568.016	37189.58
568.215	37580.74
568.414	37310.41
568.612	37310.41
568.811	36868.05
569.01	36806.61
569.208	36294.61
569.407	36841.42
569.605	36380.63
569.804	36788.17
570.002	36239.32
570.201	36163.54
570.4	36085.72
570.598	36200.41
570.797	35725.28
570.995	36028.38
571.193	35420.13
571.392	35680.22
571.59	35848.16
571.789	35598.3
571.987	35389.41
572.186	35436.52
572.384	35018.73
572.582	35547.11
572.781	35518.43
572.979	34858.99
573.177	34766.83
573.376	35037.16
573.574	34709.49
573.772	34895.85
573.971	34705.39
574.169	34396.15
574.367	34238.45
574.565	34334.71
574.763	33847.29
574.962	34064.38
575.16	33445.89
575.358	33945.59
575.556	33345.54
575.754	33894.39
575.952	33267.72
576.151	33499.14
576.349	33073.16
576.547	33179.65
576.745	33464.32
576.943	32976.9
577.141	33275.91
577.339	32915.47
577.537	32870.41
577.735	32686.09
577.933	32495.63
578.131	32311.31
578.329	32450.58
578.527	32489.49
578.725	32335.89
578.923	32303.12
579.121	32167.96
579.319	31764.51
579.516	32006.17
579.714	31731.74
579.912	31825.95
580.11	31447.07
580.308	31537.18
580.506	31485.98
580.704	30820.39
580.901	31461.41
581.099	31432.74
581.297	31017
581.495	31107.11
581.692	30855.21
581.89	30799.91
582.088	30808.11
582.285	30529.58
582.483	30765.1
582.681	30521.39
582.878	30240.82
583.076	30101.56
583.274	30369.84
583.471	30013.49
583.669	29923.38
583.866	30017.59
584.064	30167.09
584.262	29577.28
584.459	29798.46
584.657	29511.74
584.854	29775.93
585.052	28883.02
585.249	29409.34
585.447	29421.63
585.644	29059.14
585.841	29020.23
586.039	29167.68
586.236	28864.58
586.434	28889.16
586.631	28553.29
586.828	28684.36
587.026	28653.64
587.223	28616.78
587.42	28448.85
587.618	28528.72
587.815	28002.39
588.012	28024.92
588.21	28049.49
588.407	28356.69
588.604	27877.46
588.801	27783.26
588.999	27697.24
589.196	27740.25
589.393	27717.72
589.59	27488.35
589.787	27281.5
589.984	27338.85
590.182	26820.71
590.379	27363.42
590.576	27039.84
590.773	27234.4
590.97	26579.05
591.167	27330.65
591.364	26798.18
591.561	26585.19
591.758	26427.5
591.955	26630.25
592.152	26763.37
592.349	26294.38
592.546	26339.44
592.743	26409.07
592.94	25657.46
593.137	26136.69
593.334	26032.24
593.531	25651.32
593.727	25911.41
593.924	25868.41
594.121	25528.44
594.318	25698.42
594.515	25346.17
594.712	25604.22
594.908	24995.97
595.105	25385.08
595.302	25116.8
595.499	25352.32
595.696	25096.32
595.892	24879.24
596.089	24866.95
596.286	25202.82
596.482	24932.48
596.679	24748.17
596.876	24912
597.072	24735.88
597.269	24625.29
597.466	24418.44
597.662	24092.82
597.859	24662.15
598.055	24299.66
598.252	23982.23
598.448	23918.74
598.645	24027.28
598.841	23607.45
599.038	23920.79
599.234	24133.78
599.431	23459.99
599.627	23638.17
599.824	23625.88
600.02	23410.84
600.217	23466.14
600.413	23019.68
600.609	22890.66
600.806	23165.09
601.002	23314.59
601.198	22904.99
601.395	22896.8
601.591	22948
601.787	22616.23
601.984	22610.09
602.18	23062.69
602.376	22343.85
602.572	22454.44
602.769	22321.32
602.965	22132.91
603.161	22538.41
603.357	22042.8
603.553	22073.52
603.75	22169.77
603.946	21860.53
604.142	22044.85
604.338	21911.73
604.534	22087.85
604.73	21833.91
604.926	21362.87
605.122	21799.09
605.318	21686.45
605.514	21526.71
605.71	21369.02
605.906	21209.28
606.102	21330.11
606.298	21233.85
606.494	21153.98
606.69	21311.67
606.886	21391.55
607.082	20691.14
607.278	21211.32
607.474	20742.34
607.67	20947.14
607.866	20771.01
608.062	20918.46
608.257	20623.56
608.453	20594.89
608.649	20748.48
608.845	20269.26
609.041	20525.25
609.236	20246.73
609.432	20259.02
609.628	20736.2
609.824	20074.7
610.019	20181.2
610.215	20175.05
610.411	20328.65
610.606	20082.89
610.802	20103.37
610.998	19849.43
611.193	20220.11
611.389	19830.99
611.584	19935.44
611.78	19661.01
611.976	19677.4
612.171	19783.89
612.367	19726.55
612.562	19663.06
612.758	19534.04
612.953	19419.35
613.149	19575
613.344	19374.3
613.539	19824.85
613.735	19378.39
613.93	19511.51
614.126	19198.17
614.321	19472.6
614.517	19421.4
614.712	19210.46
614.907	19206.36
615.103	19259.61
615.298	18903.26
615.493	19130.59
615.688	18733.28
615.884	19159.26
616.079	18471.14
616.274	18944.22
616.47	18610.4
616.665	18798.82
616.86	18465
617.055	18579.68
617.25	18710.75
617.445	18385.13
617.641	18278.63
617.836	18714.85
618.031	18282.73
618.226	18499.81
618.421	18010.35
618.616	18415.85
618.811	18039.02
619.006	18131.18
619.201	17623.28
619.396	17811.7
619.591	17686.77
619.786	17826.03
619.981	17490.17
620.176	18004.21
620.371	17776.88
620.566	17592.56
620.761	17395.96
620.956	17422.58
621.151	17334.52
621.346	17275.13
621.541	17068.28
621.735	17002.75
621.93	16773.38
622.125	17049.85
622.32	16699.65
622.515	16812.29
622.709	16525.57
622.904	16795.9
623.099	16623.87
623.294	16537.86
623.488	16365.83
623.683	16361.73
623.878	16009.48
624.072	16132.36
624.267	15896.85
624.462	15968.52
624.656	15776.02
624.851	15735.06
625.046	15573.27
625.24	15714.58
625.435	15507.73
625.629	15391
625.824	15515.92
626.018	15116.57
626.213	15198.49
626.407	15130.91
626.602	14696.74
626.796	14885.15
626.991	15005.98
627.185	15044.89
627.38	14831.9
627.574	14702.88
627.768	14539.04
627.963	14385.44
628.157	14358.82
628.352	14106.92
628.546	13926.7
628.74	14154.02
628.935	14053.67
629.129	14039.34
629.323	13773.1
629.517	13883.69
629.712	13805.87
629.906	13658.42
630.1	13558.07
630.294	13642.03
630.489	13412.66
630.683	13336.88
630.877	13181.24
631.071	13144.38
631.265	13418.8
631.459	13152.57
631.653	13148.47
631.848	12884.28
632.042	12599.62
632.236	12882.24
632.43	12822.84
632.624	12816.7
632.818	12462.4
633.012	12646.72
633.206	12380.48
633.4	12429.63
633.594	12159.3
633.788	12437.83
633.982	12347.72
634.176	12298.56
634.369	12187.97
634.563	12228.93
634.757	11843.92
634.951	11948.36
635.145	11884.87
635.339	12208.45
635.533	11905.35
635.726	11915.59
635.92	11604.3
636.114	11491.66
636.308	11393.36
636.501	11602.25
636.695	11274.58
636.889	11174.23
637.083	11417.94
637.276	11061.59
637.47	11067.74
637.664	11141.46
637.857	11268.44
638.051	11096.41
638.244	10967.38
638.438	11012.44
638.632	10805.6
638.825	10738.01
639.019	10740.06
639.212	10318.18
639.406	10668.38
639.599	10379.62
639.793	10621.28
639.986	10223.97
640.18	10285.41
640.373	10135.91
640.567	10082.66
640.76	9970.02
640.954	10041.7
641.147	10103.14
641.34	10017.13
641.534	9949.54
641.727	9777.51
641.92	9820.52
642.114	9658.73
642.307	9855.34
642.5	9615.73
642.694	9388.4
642.887	9511.28
643.08	9582.96
643.273	9300.34
643.467	9542
643.66	9163.12
643.853	9269.62
644.046	9349.49
644.239	9144.69
644.432	9202.04
644.626	8939.9
644.819	8952.18
645.012	8927.61
645.205	8903.03
645.398	8708.48
645.591	8663.42
645.784	8769.91
645.977	8702.33
646.17	8628.6
646.363	8876.41
646.556	8362.37
646.749	8593.79
646.942	8511.87
647.135	8401.28
647.328	8597.88
647.521	8317.31
647.714	8182.15
647.907	8087.94
648.099	8202.63
648.292	8159.62
648.485	8401.28
648.678	8147.33
648.871	7801.22
649.064	8010.12
649.256	7790.99
649.449	7866.76
649.642	7866.76
649.835	7684.49
650.027	7741.83
650.22	7776.65
650.413	7752.07
650.605	7481.74
650.798	7653.77
650.991	7467.41
651.183	7545.23
651.376	7395.73
651.568	7608.72
651.761	7391.63
651.954	7301.52
652.146	7176.59
652.339	7223.7
652.531	7158.16
652.724	7104.92
652.916	7104.92
653.109	7104.92
653.301	6998.42
653.494	7119.25
653.686	7154.07
653.879	7215.51
654.071	7043.48
654.263	6726.04
654.456	6848.92
654.648	6900.12
654.84	6627.74
655.033	6742.43
655.225	6625.69
655.417	6590.88
655.61	6785.43
655.802	6750.62
655.994	6535.58
656.186	6556.06
656.379	6445.47
656.571	6513.05
656.763	6277.54
656.955	6498.72
657.148	6427.04
657.34	6543.77
657.532	6295.97
657.724	6105.51
657.916	6443.42
658.108	6330.78
658.3	6248.86
658.492	6156.71
658.684	6146.47
658.876	6105.51
659.068	5974.44
659.26	6003.11
659.452	5999.01
659.644	5898.66
659.836	5962.15
660.028	5904.81
660.22	5878.18
660.412	5890.47
660.604	5820.84
660.796	5763.5
660.988	5808.55
661.18	5736.87
661.372	5691.82
661.563	5788.07
661.755	5687.72
661.947	5689.77
662.139	5663.15
662.331	5671.34
662.522	5511.6
662.714	5581.23
662.906	5401.01
663.097	5620.14
663.289	5378.48
663.481	5435.82
663.673	5333.42
663.864	5237.17
664.056	5267.89
664.247	5288.37
664.439	5083.57
664.631	5188.02
664.822	5265.84
665.014	5220.78
665.205	5306.8
665.397	5149.11
665.588	5099.95
665.78	5056.95
665.971	5032.37
666.163	5058.99
666.354	5112.24
666.546	5091.76
666.737	4923.83
666.929	4948.4
667.12	5058.99
667.311	4975.03
667.503	4819.38
667.694	5054.9
667.885	5042.61
668.077	4864.44
668.268	4856.25
668.459	4843.96
668.651	4829.62
668.842	4917.68
669.033	4770.23
669.224	4784.57
669.416	4788.66
669.607	4590.01
669.798	4561.34
669.989	4786.61
670.18	4723.13
670.371	4598.2
670.563	4608.44
670.754	4657.59
670.945	4559.29
671.136	4704.7
671.327	4639.16
671.518	4598.2
671.709	4536.76
671.9	4483.52
672.091	4522.43
672.282	4450.75
672.473	4512.19
672.664	4477.37
672.855	4536.76
673.046	4495.8
673.237	4403.64
673.428	4372.93
673.619	4377.02
673.809	4311.49
674	4446.65
674.191	4510.14
674.382	4358.59
674.573	4344.25
674.764	4491.71
674.954	4420.03
675.145	4346.3
675.336	4428.22
675.527	4403.64
675.717	4383.17
675.908	4387.26
676.099	4317.63
676.289	4389.31
676.48	4088.26
676.671	4303.29
676.861	4229.57
677.052	4143.55
677.243	4110.79
677.433	4221.38
677.624	4274.62
677.814	4211.14
678.005	4233.66
678.195	4278.72
678.386	4274.62
678.576	4207.04
678.767	4180.42
678.957	4280.77
679.148	4209.09
679.338	4241.86
679.529	4235.71
679.719	4235.71
679.909	4227.52
680.1	4250.05
680.29	4202.94
680.481	4020.67
680.671	4186.56
680.861	4248
681.052	4270.53
681.242	4198.85
681.432	4196.8
681.622	4225.47
681.813	4135.36
682.003	4080.07
682.193	4123.07
682.383	4245.95
682.573	4217.28
682.764	4153.79
682.954	4133.31
683.144	4237.76
683.334	4147.65
683.524	4133.31
683.714	4155.84
683.904	4055.49
684.094	4180.42
684.284	4055.49
684.474	4157.89
684.664	4108.74
684.854	4098.5
685.044	4254.14
685.234	4000.19
685.424	3910.08
685.614	3987.91
685.804	4143.55
685.994	4106.69
686.184	4028.87
686.374	4200.9
686.564	3955.14
686.753	3930.56
686.943	3924.42
687.133	3971.52
687.323	3840.45
687.513	3819.97
687.702	3936.71
687.892	3879.36
688.082	3836.36
688.272	3914.18
688.461	3717.58
688.651	3860.93
688.841	3731.91
689.03	3813.83
689.22	3901.89
689.41	3733.96
689.599	3815.88
689.789	3836.36
689.979	3781.06
690.168	3658.18
690.358	3594.7
690.547	3619.27
690.737	3701.19
690.926	3604.94
691.116	3733.96
691.305	3736.01
691.495	3703.24
691.684	3475.91
691.874	3652.04
692.063	3672.52
692.252	3598.79
692.442	3543.5
692.631	3733.96
692.82	3609.03
693.01	3549.64
693.199	3477.96
693.388	3455.44
693.578	3596.75
693.767	3523.02
693.956	3414.48
694.146	3516.87
694.335	3473.87
694.524	3406.28
694.713	3410.38
694.902	3404.24
695.092	3455.44
695.281	3328.46
695.47	3400.14
695.659	3383.76
695.848	3418.57
696.037	3346.89
696.226	3361.23
696.415	3373.52
696.604	3455.44
696.793	3330.51
696.982	3482.06
697.171	3322.32
697.36	3377.61
697.549	3381.71
697.738	3273.17
697.927	3369.42
698.116	3402.19
698.305	3441.1
698.494	3297.74
698.683	3316.17
698.872	3363.28
699.061	3230.16
699.25	3375.56
699.438	3391.95
699.627	3312.08
699.816	3424.72
700.005	3324.37
700.193	3490.25
700.382	3367.37
700.571	3318.22
700.76	3363.28
700.948	3328.46
701.137	3291.6
701.326	3316.17
701.514	3275.21
701.703	3381.71
701.892	3295.69
702.08	3377.61
702.269	3422.67
702.457	3320.27
702.646	3367.37
702.834	3211.73
703.023	3301.84
703.212	3330.51
703.4	3373.52
703.589	3213.77
703.777	3340.75
703.965	3447.24
704.154	3283.41
704.342	3377.61
704.531	3244.49
704.719	3377.61
704.907	3379.66
705.096	3303.89
705.284	3256.78
705.472	3230.16
705.661	3357.13
705.849	3254.73
706.037	3236.3
706.226	3287.5
706.414	3350.99
706.602	3224.01
706.79	3348.94
706.979	3273.17
707.167	3316.17
707.355	3142.1
707.543	3303.89
707.731	3394
707.919	3219.92
708.107	3242.45
708.296	3115.47
708.484	3168.72
708.672	3279.31
708.86	3305.93
709.048	3357.13
709.236	3365.32
709.424	3338.7
709.612	3273.17
709.8	3269.07
709.988	3350.99
710.176	3492.3
710.364	3248.59
710.551	3350.99
710.739	3262.93
710.927	3213.77
711.115	3260.88
711.303	3469.77
711.491	3291.6
711.679	3326.41
711.866	3252.69
712.054	3285.45
712.242	3365.32
712.43	3224.01
712.617	3359.18
712.805	3285.45
712.993	3287.5
713.181	3140.05
713.368	3240.4
713.556	3342.8
713.744	3144.14
713.931	3328.46
714.119	3230.16
714.306	3320.27
714.494	3283.41
714.682	3226.06
714.869	3187.15
715.057	3330.51
715.244	3307.98
715.432	3332.56
715.619	3324.37
715.807	3375.56
715.994	3336.65
716.182	3291.6
716.369	3467.72
716.556	3328.46
716.744	3328.46
716.931	3316.17
717.119	3416.52
717.306	3394
717.493	3267.02
717.681	3201.49
717.868	3146.19
718.055	3299.79
718.242	3412.43
718.43	3303.89
718.617	3295.69
718.804	3291.6
718.991	3408.33
719.179	3269.07
719.366	3307.98
719.553	3291.6
719.74	3287.5
719.927	3330.51
720.114	3307.98
720.301	3365.32
720.488	3269.07
720.676	3375.56
720.863	3264.97
721.05	3340.75
721.237	3209.68
721.424	3219.92
721.611	3389.9
721.798	3285.45
721.985	3400.14
722.172	3084.75
722.358	3246.54
722.545	3312.08
722.732	3260.88
722.919	3394
723.106	3307.98
723.293	3293.65
723.48	3371.47
723.667	3219.92
723.853	3181.01
724.04	3318.22
724.227	3234.25
724.414	3191.25
724.6	3289.55
724.787	3279.31
724.974	3316.17
725.161	3176.91
725.347	3195.34
725.534	3375.56
725.72	3181.01
725.907	3301.84
726.094	3224.01
726.28	3209.68
726.467	3181.01
726.653	3234.25
726.84	3203.54
727.027	3215.82
727.213	3195.34
727.4	3082.7
727.586	3193.3
727.773	3211.73
727.959	3170.77
728.145	3146.19
728.332	3119.57
728.518	3236.3
728.705	3203.54
728.891	3131.86
729.077	3240.4
729.264	3064.27
729.45	3301.84
729.636	3119.57
729.823	3144.14
730.009	3205.58
730.195	3178.96
730.382	3199.44
730.568	3187.15
730.754	3105.23
730.94	3138
731.126	3172.82
731.313	3172.82
731.499	3037.65
731.685	3262.93
731.871	3232.21
732.057	3084.75
732.243	3144.14
732.429	3138
732.615	3203.54
732.801	3144.14
732.987	3119.57
733.173	3066.32
733.359	3013.07
733.545	3039.7
733.731	3064.27
733.917	3045.84
734.103	3230.16
734.289	3107.28
734.475	3023.31
734.661	3140.05
734.847	3078.61
735.033	3043.79
735.219	2976.21
735.404	3023.31
735.59	2961.87
735.776	3015.12
735.962	2941.4
736.148	3140.05
736.333	3166.67
736.519	2875.86
736.705	3011.03
736.89	3062.23
737.076	2755.03
737.262	2963.92
737.447	3066.32
737.633	3049.94
737.819	2894.29
738.004	3013.07
738.19	2853.33
738.375	2912.72
738.561	3033.55
738.747	2834.9
738.932	2857.43
739.118	2906.58
739.303	2849.24
739.489	2939.35
739.674	2773.46
739.859	2847.19
740.045	2859.48
740.23	2793.94
740.416	2818.52
740.601	2834.9
740.786	2785.75
740.972	2853.33
741.157	2828.76
741.342	2793.94
741.528	2750.93
741.713	2818.52
741.898	2732.5
742.084	2734.55
742.269	2761.17
742.454	2728.41
742.639	2593.24
742.824	2757.08
743.01	2722.26
743.195	2750.93
743.38	2712.02
743.565	2785.75
743.75	2628.06
743.935	2578.9
744.12	2605.53
744.305	2566.62
744.49	2599.38
744.675	2660.82
744.86	2533.85
745.045	2542.04
745.23	2578.9
745.415	2552.28
745.6	2574.81
745.785	2488.79
745.97	2597.34
746.155	2482.65
746.34	2406.88
746.525	2433.5
746.71	2460.12
746.895	2378.2
747.079	2431.45
747.264	2441.69
747.449	2517.47
747.634	2324.96
747.819	2435.55
748.003	2357.72
748.188	2378.2
748.373	2284
748.557	2396.64
748.742	2222.56
748.927	2320.86
749.111	2261.47
749.296	2167.26
749.481	2185.69
749.665	2271.71
749.85	2101.73
750.034	2130.4
750.219	2191.84
750.404	2138.59
750.588	2214.37
750.773	2189.79
750.957	2161.12
751.141	2159.07
751.326	2025.95
751.51	1995.23
751.695	2030.05
751.879	1999.33
752.064	2034.14
752.248	1984.99
752.432	2032.1
752.617	2052.58
752.801	1941.99
752.985	1929.7
753.17	1892.84
753.354	1878.5
753.538	1948.13
753.722	1862.12
753.907	1948.13
754.091	1833.44
754.275	1874.4
754.459	1782.24
754.643	1810.92
754.828	1851.88
755.012	1720.81
755.196	1882.6
755.38	1729
755.564	1729
755.748	1661.41
755.932	1677.8
756.116	1780.2
756.3	1706.47
756.484	1774.05
756.668	1700.33
756.852	1716.71
757.036	1640.93
757.22	1702.37
757.404	1632.74
757.588	1503.72
757.772	1632.74
757.956	1624.55
758.14	1642.98
758.323	1579.5
758.507	1591.78
758.691	1524.2
758.875	1520.1
759.059	1505.77
759.242	1456.62
759.426	1532.39
759.61	1460.71
759.794	1477.1
759.977	1464.81
760.161	1497.58
760.345	1552.87
760.528	1436.14
760.712	1489.39
760.895	1481.19
761.079	1432.04
761.263	1376.75
761.446	1362.41
761.63	1290.73
761.813	1427.95
761.997	1440.23
762.18	1257.96
762.364	1323.5
762.547	1395.18
762.731	1362.41
762.914	1386.99
763.098	1358.32
763.281	1364.46
763.464	1292.78
763.648	1313.26
763.831	1321.45
764.015	1348.08
764.198	1350.12
764.381	1239.53
764.564	1364.46
764.748	1204.72
764.931	1305.07
765.114	1249.77
765.297	1260.01
765.481	1194.48
765.664	1155.57
765.847	1122.8
766.03	1325.55
766.213	1198.57
766.397	1260.01
766.58	1180.14
766.763	1235.44
766.946	1145.33
767.129	1180.14
767.312	1165.81
767.495	1253.87
767.678	1212.91
767.861	1245.68
768.044	1061.36
768.227	1087.98
768.41	1184.24
768.593	1145.33
768.776	1061.36
768.959	1167.85
769.142	1157.61
769.324	1145.33
769.507	1065.46
769.69	1049.07
769.873	1055.22
770.056	1174
770.239	1044.98
770.421	1057.26
770.604	1051.12
770.787	1094.13
770.97	1059.31
771.152	1038.83
771.335	1010.16
771.518	1081.84
771.7	1104.37
771.883	1053.17
772.066	1024.5
772.248	1059.31
772.431	1040.88
772.613	1001.97
772.796	954.87
772.978	977.39
773.161	1040.88
773.343	971.25
773.526	969.2
773.708	985.58
773.891	887.28
774.073	979.44
774.256	979.44
774.438	993.78
774.621	846.32
774.803	874.99
774.985	913.91
775.168	936.43
775.35	905.71
775.532	895.47
775.715	922.1
775.897	854.51
776.079	877.04
776.261	821.75
776.444	793.08
776.626	762.36
776.808	901.62
776.99	780.79
777.173	850.42
777.355	821.75
777.537	868.85
777.719	868.85
777.901	819.7
778.083	793.08
778.265	791.03
778.447	807.41
778.629	786.93
778.811	823.8
778.993	717.3
779.175	823.8
779.357	727.54
779.539	733.68
779.721	784.88
779.903	731.64
780.085	725.49
780.267	727.54
780.449	713.21
780.631	713.21
780.812	694.77
780.994	723.44
781.176	686.58
781.358	604.66
781.54	639.48
781.721	666.1
781.903	678.39
782.085	629.24
782.267	596.47
782.448	567.8
782.63	662.01
782.812	625.14
782.993	631.29
783.175	526.84
783.357	713.21
783.538	600.57
783.72	573.94
783.901	625.14
784.083	569.85
784.264	539.13
784.446	547.32
784.627	510.46
784.809	649.72
784.99	524.79
785.172	457.21
785.353	494.07
785.535	465.4
785.716	532.98
785.897	496.12
786.079	516.6
786.26	510.46
786.441	580.09
786.623	477.69
786.804	551.42
786.985	575.99
787.167	549.37
787.348	610.81
787.529	543.22
787.71	549.37
787.891	498.17
788.073	461.3
788.254	465.4
788.435	549.37
788.616	461.3
788.797	520.7
788.978	506.36
789.159	451.07
789.34	391.67
789.522	426.49
789.703	420.35
789.884	465.4
790.065	465.4
790.246	451.07
790.427	403.96
790.607	539.13
790.788	449.02
790.969	420.35
791.15	432.63
791.331	354.81
791.512	354.81
791.693	444.92
791.874	418.3
792.054	467.45
792.235	403.96
792.416	465.4
792.597	377.34
792.778	326.14
792.958	477.69
793.139	381.43
793.32	375.29
793.5	393.72
793.681	303.61
793.862	399.87
794.042	371.19
794.223	346.62
794.404	397.82
794.584	301.56
794.765	371.19
794.945	338.43
795.126	268.8
795.306	395.77
795.487	369.15
795.667	403.96
795.848	391.67
796.028	313.85
796.209	317.95
796.389	326.14
796.57	350.71
796.75	309.76
796.93	350.71
797.111	256.51
797.291	338.43
797.471	379.39
797.652	358.91
797.832	264.7
798.012	367.1
798.192	295.42
798.373	279.04
798.553	371.19
798.733	336.38
798.913	209.4
799.093	340.47
799.274	293.37
799.454	313.85
799.634	287.23
799.814	297.47
799.994	305.66
800.174	336.38
800.354	301.56
800.534	254.46
800.714	270.84
800.894	350.71
801.074	215.55
801.254	317.95
801.434	297.47
801.614	197.12
801.794	250.36
801.974	883.19
802.154	303.61
802.334	264.7
802.514	254.46
802.693	256.51
802.873	209.4
803.053	270.84
803.233	262.65
803.413	262.65
803.592	252.41
803.772	211.45
803.952	266.75
804.131	246.27
804.311	315.9
804.491	295.42
804.67	246.27
804.85	168.45
805.03	317.95
805.209	330.23
805.389	184.83
805.568	190.97
805.748	240.12
805.928	256.51
806.107	283.13
806.287	213.5
806.466	293.37
806.646	223.74
806.825	184.83
807.004	266.75
807.184	229.88
807.363	246.27
807.543	260.6
807.722	150.01
807.901	297.47
808.081	250.36
808.26	123.39
808.439	231.93
808.619	141.82
808.798	195.07
808.977	221.69
809.156	244.22
809.336	201.21
809.515	242.17
809.694	221.69
809.873	199.16
810.052	219.64
810.231	199.16
810.411	252.41
810.59	260.6
810.769	117.25
810.948	207.36
811.127	133.63
811.306	119.29
811.485	190.97
811.664	199.16
811.843	156.16
812.022	115.2
812.201	164.35
812.38	211.45
812.559	133.63
812.737	178.69
812.916	172.54
813.095	186.88
813.274	174.59
813.453	174.59
813.632	207.36
813.811	217.6
813.989	199.16
814.168	188.93
814.347	145.92
814.526	217.6
814.704	182.78
814.883	207.36
815.062	199.16
815.24	238.08
815.419	107.01
815.598	219.64
815.776	156.16
815.955	139.77
816.133	172.54
816.312	166.4
816.49	125.44
816.669	150.01
816.847	186.88
817.026	145.92
817.204	143.87
817.383	225.79
817.561	33.28
817.74	141.82
817.918	145.92
818.097	102.91
818.275	172.54
818.453	207.36
818.632	152.06
818.81	115.2
818.988	88.57
819.167	102.91
819.345	199.16
819.523	129.53
819.701	143.87
819.879	197.12
820.058	174.59
820.236	158.21
820.414	84.48
820.592	141.82
820.77	141.82
820.948	160.25
821.127	41.47
821.305	199.16
821.483	127.49
821.661	145.92
821.839	131.58
822.017	195.07
822.195	199.16
822.373	164.35
822.551	139.77
822.729	115.2
822.907	51.71
823.085	158.21
823.262	141.82
823.44	76.29
823.618	92.67
823.796	96.77
823.974	150.01
824.152	125.44
824.329	133.63
824.507	123.39
824.685	111.1
824.863	104.96
825.04	78.33
825.218	174.59
825.396	104.96
825.574	137.73
825.751	98.81
825.929	158.21
826.107	66.05
826.284	139.77
826.462	147.97
826.639	31.23
826.817	127.49
826.994	102.91
827.172	121.34
827.349	160.25
827.527	133.63
827.704	80.38
827.882	109.05
828.059	59.9
828.237	68.09
828.414	152.06
828.591	98.81
828.769	139.77
828.946	115.2
829.124	90.62
829.301	160.25
829.478	100.86
829.655	201.21
829.833	72.19
830.01	82.43
830.187	76.29
830.364	115.2
830.542	139.77
830.719	98.81
830.896	137.73
831.073	102.91
831.25	193.02
831.427	94.72
831.604	80.38
831.782	33.28
831.959	127.49
832.136	76.29
832.313	113.15
832.49	127.49
832.667	59.9
832.844	51.71
833.021	117.25
833.198	92.67
833.374	141.82
833.551	78.33
833.728	14.85
833.905	57.86
834.082	127.49
834.259	59.9
834.436	82.43
834.612	-17.92
834.789	64
834.966	96.77
835.143	66.05
835.319	-1.54
835.496	27.14
835.673	49.66
835.85	92.67
836.026	96.77
836.203	18.94
836.38	25.09
836.556	64
836.733	-13.82
836.909	205.31
837.086	-46.59
837.262	92.67
837.439	25.09
837.616	86.53
837.792	59.9
837.968	55.81
838.145	88.57
838.321	84.48
838.498	61.95
838.674	80.38
838.851	61.95
839.027	68.09
839.203	64
839.38	51.71
839.556	0.51
839.732	94.72
839.909	-1.54
840.085	82.43
840.261	131.58
840.437	49.66
840.614	53.76
840.79	107.01
840.966	131.58
841.142	-15.87
841.318	37.38
841.494	74.24
841.671	113.15
841.847	18.94
842.023	12.8
842.199	64
842.375	113.15
842.551	23.04
842.727	-7.68
842.903	64
843.079	72.19
843.255	113.15
843.431	-38.4
843.607	47.62
843.783	12.8
843.959	117.25
844.134	80.38
844.31	47.62
844.486	57.86
844.662	27.14
844.838	10.75
845.013	-1.54
845.189	-9.73
845.365	18.94
845.541	70.14
845.716	84.48
845.892	41.47
846.068	76.29
846.244	33.28
846.419	84.48
846.595	109.05
846.77	-36.35
846.946	41.47
847.122	57.86
847.297	39.42
847.473	123.39
847.648	25.09
847.824	80.38
847.999	27.14
848.175	-32.26
848.35	61.95
848.526	37.38
848.701	88.57
848.876	47.62
849.052	72.19
849.227	10.75
849.403	31.23
849.578	92.67
849.753	8.7
849.929	18.94
850.104	51.71
850.279	-22.02
850.454	82.43
850.63	92.67
850.805	68.09
850.98	-1.54
851.155	43.52
851.33	84.48
851.505	25.09
851.681	131.58
851.856	51.71
852.031	-28.16
852.206	25.09
852.381	-13.82
852.556	25.09
852.731	8.7
852.906	72.19
853.081	43.52
853.256	35.33
853.431	-3.58
853.606	14.85
853.781	41.47
853.956	39.42
854.131	10.75
854.305	35.33
854.48	70.14
854.655	-26.11
854.83	-15.87
855.005	74.24
855.18	35.33
855.354	-5.63
855.529	59.9
855.704	18.94
855.879	74.24
856.053	-36.35
856.228	-50.69
856.403	-62.98
856.577	10.75
856.752	-13.82
856.926	0.51
857.101	47.62
857.276	-22.02
857.45	18.94
857.625	27.14
857.799	-22.02
857.974	-17.92
858.148	-19.97
858.323	47.62
858.497	68.09
858.672	31.23
858.846	14.85
859.02	76.29
859.195	23.04
859.369	-15.87
859.543	70.14
859.718	35.33
859.892	-9.73
860.066	-40.45
860.241	-56.83
860.415	4.61
860.589	-26.11
860.763	107.01
860.938	20.99
861.112	94.72
861.286	14.85
861.46	-1.54
861.634	78.33
861.808	2.56
861.982	53.76
862.157	-71.17
862.331	2.56
862.505	16.9
862.679	-46.59
862.853	33.28
863.027	55.81
863.201	2.56
863.375	33.28
863.549	16.9
863.722	6.66
863.896	18.94
864.07	-1.54
864.244	-5.63
864.418	-22.02
864.592	-17.92
864.766	-13.82
864.939	-48.64
865.113	-40.45
865.287	31.23
865.461	-3.58
865.634	6.66
865.808	-5.63
865.982	-22.02
866.156	43.52
866.329	-13.82
866.503	10.75
866.676	-3.58
866.85	-1.54
867.024	-24.06
867.197	31.23
867.371	2.56
867.544	23.04
867.718	-5.63
867.891	-1.54
868.065	-40.45
868.238	-42.5
868.412	23.04
868.585	16.9
868.759	23.04
868.932	74.24
869.105	14.85
869.279	-32.26
869.452	14.85
869.625	47.62
869.799	-95.74
869.972	-48.64
870.145	10.75
870.319	70.14
870.492	27.14
870.665	-24.06
870.838	-1.54
871.011	-24.06
871.185	2.56
871.358	35.33
871.531	4.61
871.704	-24.06
871.877	23.04
872.05	-15.87
872.223	10.75
872.396	29.18
872.569	43.52
872.742	90.62
872.915	-9.73
873.088	131.58
873.261	-19.97
873.434	-5.63
873.607	43.52
873.78	27.14
873.953	-36.35
874.126	-5.63
874.299	20.99
874.471	39.42
874.644	-38.4
874.817	-22.02
874.99	55.81
875.163	-1.54
875.335	-46.59
875.508	39.42
875.681	10.75
875.853	-62.98
876.026	35.33
876.199	113.15
876.371	23.04
876.544	-54.78
876.717	-13.82
876.889	-9.73
877.062	53.76
877.234	-67.07
877.407	-5.63
877.579	-46.59
877.752	-7.68
877.924	-19.97
878.097	-17.92
878.269	45.57
878.442	41.47
878.614	-17.92
878.786	39.42
878.959	-42.5
879.131	23.04
879.303	-5.63
879.476	-36.35
879.648	74.24
879.82	-15.87
879.993	4.61
880.165	0.51
880.337	-71.17
880.509	-54.78
880.681	-73.21
880.854	-9.73
881.026	-13.82
881.198	18.94
881.37	-17.92
881.542	57.86
881.714	10.75
881.886	80.38
882.058	-22.02
882.23	27.14
882.402	-67.07
882.574	59.9
882.746	8.7
882.918	4.61
883.09	-3.58
883.262	-22.02
883.434	12.8
883.606	-85.5
883.778	10.75
883.95	37.38
884.122	-38.4
884.293	-7.68
884.465	6.66
884.637	-7.68
884.809	14.85
884.98	-24.06
885.152	104.96
885.324	-46.59
885.496	2.56
885.667	31.23
885.839	-11.78
886.011	57.86
886.182	-1.54
886.354	-42.5
886.525	-3.58
886.697	31.23
886.869	39.42
887.04	-13.82
887.212	-40.45
887.383	-5.63
887.555	-48.64
887.726	-38.4
887.897	-36.35
888.069	90.62
888.24	-71.17
888.412	-24.06
888.583	49.66
888.754	-11.78
888.926	-5.63
889.097	-5.63
889.268	78.33
889.44	-56.83
889.611	-30.21
889.782	-15.87
889.953	-65.02
890.125	18.94
890.296	29.18
890.467	-52.74
890.638	-17.92
890.809	-52.74
890.98	-42.5
891.151	-34.3
891.323	49.66
891.494	2.56
891.665	-1.54
891.836	-42.5
892.007	-11.78
892.178	18.94
892.349	2.56
892.52	66.05
892.691	-17.92
892.862	-46.59
893.032	-34.3
893.203	0.51
893.374	-65.02
893.545	-19.97
893.716	-11.78
893.887	31.23
894.057	14.85
894.228	20.99
894.399	27.14
894.57	20.99
894.74	-15.87
894.911	-1.54
895.082	-13.82
895.253	-54.78
895.423	-58.88
895.594	-1.54
895.764	-9.73
895.935	-15.87
896.106	-7.68
896.276	23.04
896.447	-40.45
896.617	76.29
896.788	-5.63
896.958	-34.3
897.129	-24.06
897.299	-65.02
897.47	14.85
897.64	16.9
897.81	-67.07
897.981	4.61
898.151	-42.5
898.322	18.94
898.492	6.66
898.662	-32.26
898.832	-46.59
899.003	43.52
899.173	0.51
899.343	-46.59
899.513	-3.58
