Data from USB4F104151__72__10-24-07-421.txt Node

Date: Wed Mar 12 10:24:07 EDT 2025
User: louis
Spectrometer: USB4F10415
Trigger mode: 4
Integration Time (sec): 3.000000E-2
Scans to average: 1
Electric dark correction enabled: true
Nonlinearity correction enabled: false
Boxcar width: 0
XAxis mode: Wavelengths
Number of Pixels in Spectrum: 3648
>>>>>Begin Spectral Data<<<<<
178.204	-63.83
178.424	-63.83
178.644	-63.83
178.864	-198.99
179.084	-92.5
179.304	-24.92
179.524	-41.3
179.744	-10.58
179.964	71.34
180.184	5.8
180.404	26.28
180.624	-31.06
180.844	5.8
181.064	-41.3
181.283	-47.44
181.503	40.62
181.723	46.76
181.943	-35.16
182.163	132.78
182.383	-2.39
182.602	-24.92
182.822	-2.39
183.042	-8.53
183.262	-6.49
183.482	79.53
183.701	61.1
183.921	46.76
184.141	1.71
184.361	-14.68
184.58	-26.96
184.8	34.47
185.02	26.28
185.239	-6.49
185.459	57
185.679	79.53
185.898	20.14
186.118	50.86
186.338	-12.63
186.557	26.28
186.777	3.75
186.997	5.8
187.216	11.95
187.436	44.71
187.655	79.53
187.875	30.38
188.095	16.04
188.314	9.9
188.534	11.95
188.753	42.67
188.973	28.33
189.192	48.81
189.412	-14.68
189.631	87.72
189.851	61.1
190.07	34.47
190.29	-2.39
190.509	28.33
190.729	-10.58
190.948	50.86
191.168	163.5
191.387	102.06
191.607	22.19
191.826	97.96
192.045	-6.49
192.265	75.43
192.484	-47.44
192.704	40.62
192.923	30.38
193.142	77.48
193.362	24.23
193.581	40.62
193.8	40.62
194.02	-6.49
194.239	97.96
194.458	-2.39
194.678	7.85
194.897	67.24
195.116	18.09
195.335	5.8
195.555	-39.25
195.774	59.05
195.993	22.19
196.212	-10.58
196.432	-35.16
196.651	26.28
196.87	16.04
197.089	46.76
197.308	50.86
197.528	57
197.747	13.99
197.966	50.86
198.185	40.62
198.404	-10.58
198.623	32.43
198.842	61.1
199.062	77.48
199.281	87.72
199.5	69.29
199.719	-2.39
199.938	24.23
200.157	18.09
200.376	50.86
200.595	54.95
200.814	71.34
201.033	1.71
201.252	63.15
201.471	9.9
201.69	73.39
201.909	24.23
202.128	22.19
202.347	42.67
202.566	16.04
202.785	-10.58
203.004	-59.73
203.223	140.97
203.442	44.71
203.661	-8.53
203.879	-2.39
204.098	112.3
204.317	30.38
204.536	63.15
204.755	16.04
204.974	9.9
205.193	36.52
205.411	38.57
205.63	-51.54
205.849	-14.68
206.068	-8.53
206.287	-41.3
206.505	26.28
206.724	42.67
206.943	20.14
207.162	48.81
207.381	65.19
207.599	42.67
207.818	57
208.037	97.96
208.255	-22.87
208.474	50.86
208.693	42.67
208.911	-0.34
209.13	85.67
209.349	-6.49
209.567	7.85
209.786	97.96
210.005	-4.44
210.223	-8.53
210.442	-55.64
210.661	38.57
210.879	87.72
211.098	95.91
211.316	63.15
211.535	67.24
211.753	-39.25
211.972	32.43
212.191	22.19
212.409	128.68
212.628	18.09
212.846	5.8
213.065	32.43
213.283	26.28
213.502	18.09
213.72	46.76
213.938	-0.34
214.157	30.38
214.375	48.81
214.594	-43.35
214.812	16.04
215.031	40.62
215.249	-12.63
215.467	73.39
215.686	50.86
215.904	7.85
216.122	-26.96
216.341	38.57
216.559	26.28
216.778	83.63
216.996	42.67
217.214	52.91
217.432	-12.63
217.651	48.81
217.869	42.67
218.087	65.19
218.306	61.1
218.524	97.96
218.742	-29.01
218.96	91.82
219.179	-41.3
219.397	-10.58
219.615	22.19
219.833	48.81
220.051	32.43
220.27	75.43
220.488	-2.39
220.706	40.62
220.924	-49.49
221.142	61.1
221.36	59.05
221.578	9.9
221.796	28.33
222.015	54.95
222.233	40.62
222.451	18.09
222.669	30.38
222.887	-0.34
223.105	36.52
223.323	13.99
223.541	-8.53
223.759	36.52
223.977	-4.44
224.195	67.24
224.413	130.73
224.631	13.99
224.849	44.71
225.067	59.05
225.285	46.76
225.503	87.72
225.721	26.28
225.939	-18.77
226.157	81.58
226.375	183.98
226.592	-20.82
226.81	-6.49
227.028	81.58
227.246	54.95
227.464	-8.53
227.682	71.34
227.9	18.09
228.117	71.34
228.335	75.43
228.553	-16.73
228.771	-43.35
228.989	81.58
229.206	52.91
229.424	20.14
229.642	65.19
229.86	-6.49
230.077	67.24
230.295	-0.34
230.513	32.43
230.731	42.67
230.948	93.87
231.166	75.43
231.384	50.86
231.601	-4.44
231.819	61.1
232.037	30.38
232.254	26.28
232.472	44.71
232.689	-94.55
232.907	104.11
233.125	50.86
233.342	-24.92
233.56	48.81
233.777	7.85
233.995	-33.11
234.213	71.34
234.43	54.95
234.648	7.85
234.865	-2.39
235.083	28.33
235.3	26.28
235.518	42.67
235.735	104.11
235.953	52.91
236.17	83.63
236.388	50.86
236.605	-2.39
236.822	71.34
237.04	104.11
237.257	46.76
237.475	-39.25
237.692	-8.53
237.909	-4.44
238.127	-35.16
238.344	89.77
238.562	81.58
238.779	18.09
238.996	-45.4
239.214	1.71
239.431	93.87
239.648	22.19
239.865	-39.25
240.083	63.15
240.3	40.62
240.517	22.19
240.735	7.85
240.952	54.95
241.169	54.95
241.386	42.67
241.603	-12.63
241.821	26.28
242.038	34.47
242.255	34.47
242.472	48.81
242.689	9.9
242.907	-14.68
243.124	9.9
243.341	20.14
243.558	20.14
243.775	42.67
243.992	1.71
244.209	-22.87
244.426	79.53
244.643	61.1
244.86	112.3
245.078	71.34
245.295	57
245.512	83.63
245.729	-6.49
245.946	46.76
246.163	91.82
246.38	40.62
246.597	-43.35
246.814	22.19
247.031	44.71
247.248	-10.58
247.464	16.04
247.681	100.01
247.898	108.2
248.115	52.91
248.332	-10.58
248.549	71.34
248.766	57
248.983	42.67
249.2	20.14
249.417	100.01
249.633	46.76
249.85	95.91
250.067	7.85
250.284	42.67
250.501	65.19
250.717	-8.53
250.934	5.8
251.151	-0.34
251.368	26.28
251.585	24.23
251.801	7.85
252.018	1.71
252.235	71.34
252.451	-57.68
252.668	11.95
252.885	13.99
253.102	52.91
253.318	18.09
253.535	-49.49
253.752	9.9
253.968	-33.11
254.185	-22.87
254.401	46.76
254.618	73.39
254.835	16.04
255.051	112.3
255.268	89.77
255.484	1.71
255.701	-45.4
255.917	128.68
256.134	34.47
256.351	24.23
256.567	50.86
256.784	50.86
257	-37.2
257.217	-31.06
257.433	40.62
257.65	48.81
257.866	48.81
258.082	61.1
258.299	-39.25
258.515	22.19
258.732	48.81
258.948	-6.49
259.165	61.1
259.381	-26.96
259.597	73.39
259.814	54.95
260.03	-0.34
260.246	-4.44
260.463	22.19
260.679	-12.63
260.895	42.67
261.112	3.75
261.328	40.62
261.544	5.8
261.761	106.15
261.977	52.91
262.193	50.86
262.409	50.86
262.626	50.86
262.842	54.95
263.058	34.47
263.274	61.1
263.49	5.8
263.707	118.44
263.923	95.91
264.139	-31.06
264.355	9.9
264.571	54.95
264.787	9.9
265.004	61.1
265.22	32.43
265.436	5.8
265.652	83.63
265.868	50.86
266.084	59.05
266.3	5.8
266.516	-31.06
266.732	71.34
266.948	7.85
267.164	40.62
267.38	18.09
267.596	50.86
267.812	108.2
268.028	120.49
268.244	-80.21
268.46	34.47
268.676	30.38
268.892	81.58
269.108	18.09
269.324	75.43
269.54	26.28
269.756	40.62
269.972	18.09
270.188	-31.06
270.403	28.33
270.619	52.91
270.835	22.19
271.051	42.67
271.267	-14.68
271.483	54.95
271.698	42.67
271.914	-14.68
272.13	30.38
272.346	-18.77
272.562	-14.68
272.777	108.2
272.993	87.72
273.209	52.91
273.425	-4.44
273.64	-39.25
273.856	38.57
274.072	65.19
274.287	67.24
274.503	-2.39
274.719	63.15
274.934	-0.34
275.15	-4.44
275.366	77.48
275.581	46.76
275.797	-4.44
276.012	30.38
276.228	61.1
276.444	42.67
276.659	28.33
276.875	-10.58
277.09	42.67
277.306	18.09
277.521	42.67
277.737	13.99
277.952	91.82
278.168	95.91
278.383	50.86
278.599	-8.53
278.814	77.48
279.03	34.47
279.245	75.43
279.461	71.34
279.676	34.47
279.892	54.95
280.107	13.99
280.322	-35.16
280.538	22.19
280.753	1.71
280.969	48.81
281.184	54.95
281.399	9.9
281.615	108.2
281.83	7.85
282.045	-6.49
282.26	-14.68
282.476	75.43
282.691	20.14
282.906	95.91
283.122	81.58
283.337	48.81
283.552	54.95
283.767	-20.82
283.983	32.43
284.198	63.15
284.413	18.09
284.628	18.09
284.843	26.28
285.058	100.01
285.274	71.34
285.489	3.75
285.704	77.48
285.919	-63.83
286.134	63.15
286.349	28.33
286.564	28.33
286.779	-12.63
286.995	83.63
287.21	3.75
287.425	73.39
287.64	13.99
287.855	-16.73
288.07	26.28
288.285	42.67
288.5	-14.68
288.715	81.58
288.93	1.71
289.145	-6.49
289.36	69.29
289.575	50.86
289.79	36.52
290.004	28.33
290.219	97.96
290.434	42.67
290.649	-6.49
290.864	-8.53
291.079	79.53
291.294	38.57
291.509	57
291.724	65.19
291.938	-22.87
292.153	42.67
292.368	30.38
292.583	57
292.798	1.71
293.012	67.24
293.227	-33.11
293.442	22.19
293.657	9.9
293.871	87.72
294.086	13.99
294.301	106.15
294.516	1.71
294.73	38.57
294.945	13.99
295.16	65.19
295.374	50.86
295.589	59.05
295.804	59.05
296.018	18.09
296.233	59.05
296.447	-16.73
296.662	32.43
296.877	-8.53
297.091	32.43
297.306	108.2
297.52	34.47
297.735	89.77
297.949	134.82
298.164	26.28
298.378	73.39
298.593	34.47
298.807	149.16
299.022	-0.34
299.236	-6.49
299.451	34.47
299.665	-61.78
299.88	-43.35
300.094	7.85
300.309	30.38
300.523	-26.96
300.737	71.34
300.952	100.01
301.166	73.39
301.381	5.8
301.595	-18.77
301.809	32.43
302.024	-6.49
302.238	-2.39
302.452	89.77
302.667	5.8
302.881	75.43
303.095	87.72
303.309	71.34
303.524	34.47
303.738	7.85
303.952	18.09
304.166	20.14
304.381	65.19
304.595	59.05
304.809	34.47
305.023	95.91
305.237	9.9
305.452	3.75
305.666	26.28
305.88	48.81
306.094	34.47
306.308	1.71
306.522	114.34
306.736	40.62
306.95	87.72
307.164	50.86
307.379	-37.2
307.593	32.43
307.807	54.95
308.021	46.76
308.235	34.47
308.449	1.71
308.663	-39.25
308.877	108.2
309.091	71.34
309.305	89.77
309.519	-69.97
309.733	63.15
309.947	5.8
310.161	18.09
310.374	18.09
310.588	83.63
310.802	42.67
311.016	9.9
311.23	18.09
311.444	34.47
311.658	57
311.872	46.76
312.085	79.53
312.299	63.15
312.513	102.06
312.727	48.81
312.941	11.95
313.154	22.19
313.368	106.15
313.582	13.99
313.796	54.95
314.009	67.24
314.223	87.72
314.437	52.91
314.651	120.49
314.864	42.67
315.078	34.47
315.292	-2.39
315.505	52.91
315.719	13.99
315.933	9.9
316.146	5.8
316.36	87.72
316.573	38.57
316.787	-55.64
317.001	61.1
317.214	-41.3
317.428	22.19
317.641	36.52
317.855	52.91
318.068	54.95
318.282	77.48
318.495	50.86
318.709	147.11
318.922	-65.88
319.136	67.24
319.349	59.05
319.563	-6.49
319.776	63.15
319.99	57
320.203	116.39
320.417	79.53
320.63	57
320.843	63.15
321.057	9.9
321.27	5.8
321.483	30.38
321.697	40.62
321.91	114.34
322.124	114.34
322.337	75.43
322.55	67.24
322.763	-0.34
322.977	48.81
323.19	52.91
323.403	9.9
323.617	-22.87
323.83	52.91
324.043	-10.58
324.256	24.23
324.469	65.19
324.683	24.23
324.896	100.01
325.109	30.38
325.322	-33.11
325.535	16.04
325.748	87.72
325.962	38.57
326.175	65.19
326.388	50.86
326.601	114.34
326.814	5.8
327.027	63.15
327.24	34.47
327.453	-2.39
327.666	65.19
327.879	71.34
328.092	38.57
328.305	38.57
328.518	65.19
328.731	18.09
328.944	40.62
329.157	34.47
329.37	69.29
329.583	112.3
329.796	100.01
330.009	34.47
330.222	22.19
330.435	-4.44
330.648	59.05
330.861	57
331.073	65.19
331.286	48.81
331.499	16.04
331.712	26.28
331.925	13.99
332.138	7.85
332.35	52.91
332.563	-39.25
332.776	-51.54
332.989	-47.44
333.202	9.9
333.414	93.87
333.627	20.14
333.84	38.57
334.053	30.38
334.265	34.47
334.478	54.95
334.691	-2.39
334.903	5.8
335.116	30.38
335.329	48.81
335.541	34.47
335.754	71.34
335.966	-10.58
336.179	97.96
336.392	46.76
336.604	42.67
336.817	100.01
337.029	126.63
337.242	71.34
337.454	57
337.667	63.15
337.88	116.39
338.092	79.53
338.305	20.14
338.517	61.1
338.729	57
338.942	59.05
339.154	83.63
339.367	-33.11
339.579	143.02
339.792	-55.64
340.004	61.1
340.217	5.8
340.429	-12.63
340.641	22.19
340.854	38.57
341.066	102.06
341.278	63.15
341.491	16.04
341.703	22.19
341.915	16.04
342.128	102.06
342.34	59.05
342.552	34.47
342.764	7.85
342.977	44.71
343.189	-6.49
343.401	26.28
343.613	73.39
343.826	32.43
344.038	128.68
344.25	59.05
344.462	30.38
344.674	93.87
344.886	42.67
345.099	108.2
345.311	5.8
345.523	91.82
345.735	-14.68
345.947	57
346.159	59.05
346.371	-6.49
346.583	75.43
346.795	81.58
347.007	38.57
347.219	95.91
347.431	67.24
347.643	18.09
347.855	52.91
348.067	65.19
348.279	7.85
348.491	-12.63
348.703	20.14
348.915	44.71
349.127	42.67
349.339	-26.96
349.551	-20.82
349.763	57
349.975	104.11
350.187	79.53
350.399	100.01
350.61	30.38
350.822	50.86
351.034	91.82
351.246	48.81
351.458	110.25
351.669	89.77
351.881	59.05
352.093	48.81
352.305	38.57
352.517	128.68
352.728	40.62
352.94	-39.25
353.152	85.67
353.363	44.71
353.575	38.57
353.787	89.77
353.999	26.28
354.21	54.95
354.422	9.9
354.633	1.71
354.845	26.28
355.057	28.33
355.268	126.63
355.48	59.05
355.692	16.04
355.903	40.62
356.115	40.62
356.326	5.8
356.538	91.82
356.749	-18.77
356.961	73.39
357.172	52.91
357.384	-35.16
357.595	132.78
357.807	40.62
358.018	20.14
358.23	26.28
358.441	-10.58
358.653	87.72
358.864	18.09
359.075	54.95
359.287	91.82
359.498	85.67
359.709	18.09
359.921	22.19
360.132	40.62
360.344	57
360.555	7.85
360.766	-47.44
360.977	-2.39
361.189	77.48
361.4	30.38
361.611	40.62
361.823	59.05
362.034	93.87
362.245	5.8
362.456	-22.87
362.667	1.71
362.879	91.82
363.09	81.58
363.301	71.34
363.512	5.8
363.723	77.48
363.935	100.01
364.146	79.53
364.357	22.19
364.568	16.04
364.779	9.9
364.99	108.2
365.201	46.76
365.412	112.3
365.623	69.29
365.834	97.96
366.045	87.72
366.256	128.68
366.467	-6.49
366.678	85.67
366.889	42.67
367.1	20.14
367.311	46.76
367.522	16.04
367.733	87.72
367.944	-22.87
368.155	50.86
368.366	100.01
368.577	34.47
368.788	89.77
368.999	-10.58
369.209	81.58
369.42	130.73
369.631	85.67
369.842	91.82
370.053	48.81
370.264	52.91
370.474	-0.34
370.685	63.15
370.896	61.1
371.107	67.24
371.317	69.29
371.528	52.91
371.739	59.05
371.95	52.91
372.16	95.91
372.371	13.99
372.582	77.48
372.792	-4.44
373.003	89.77
373.214	87.72
373.424	42.67
373.635	44.71
373.846	100.01
374.056	57
374.267	118.44
374.477	75.43
374.688	28.33
374.898	81.58
375.109	13.99
375.319	85.67
375.53	87.72
375.74	38.57
375.951	26.28
376.161	114.34
376.372	67.24
376.582	93.87
376.793	110.25
377.003	67.24
377.214	52.91
377.424	32.43
377.635	100.01
377.845	69.29
378.055	57
378.266	32.43
378.476	42.67
378.686	65.19
378.897	57
379.107	95.91
379.317	91.82
379.528	-2.39
379.738	26.28
379.948	59.05
380.158	155.3
380.369	-2.39
380.579	97.96
380.789	106.15
380.999	59.05
381.21	57
381.42	85.67
381.63	138.92
381.84	9.9
382.05	63.15
382.261	104.11
382.471	-8.53
382.681	7.85
382.891	67.24
383.101	112.3
383.311	13.99
383.521	46.76
383.731	61.1
383.941	79.53
384.151	73.39
384.361	-55.64
384.571	69.29
384.781	54.95
384.991	77.48
385.201	145.06
385.411	87.72
385.621	79.53
385.831	5.8
386.041	59.05
386.251	42.67
386.461	118.44
386.671	73.39
386.881	11.95
387.091	75.43
387.301	81.58
387.511	77.48
387.72	93.87
387.93	104.11
388.14	-12.63
388.35	57
388.56	108.2
388.769	83.63
388.979	36.52
389.189	-8.53
389.399	83.63
389.609	116.39
389.818	116.39
390.028	93.87
390.238	28.33
390.447	28.33
390.657	16.04
390.867	18.09
391.076	18.09
391.286	138.92
391.496	65.19
391.705	5.8
391.915	100.01
392.125	138.92
392.334	36.52
392.544	138.92
392.753	165.54
392.963	85.67
393.172	112.3
393.382	48.81
393.591	167.59
393.801	110.25
394.01	128.68
394.22	11.95
394.429	30.38
394.639	38.57
394.848	95.91
395.058	22.19
395.267	118.44
395.477	163.5
395.686	11.95
395.895	138.92
396.105	171.69
396.314	91.82
396.524	93.87
396.733	104.11
396.942	116.39
397.152	95.91
397.361	140.97
397.57	110.25
397.78	159.4
397.989	65.19
398.198	138.92
398.407	157.35
398.617	151.21
398.826	81.58
399.035	126.63
399.244	71.34
399.453	59.05
399.663	116.39
399.872	132.78
400.081	134.82
400.29	134.82
400.499	163.5
400.708	83.63
400.917	108.2
401.127	116.39
401.336	104.11
401.545	169.64
401.754	116.39
401.963	151.21
402.172	89.77
402.381	110.25
402.59	173.74
402.799	179.88
403.008	140.97
403.217	122.54
403.426	169.64
403.635	95.91
403.844	151.21
404.053	163.5
404.262	91.82
404.471	157.35
404.68	143.02
404.888	181.93
405.097	147.11
405.306	177.83
405.515	202.41
405.724	192.17
405.933	237.22
406.142	147.11
406.35	186.02
406.559	181.93
406.768	122.54
406.977	259.75
407.185	229.03
407.394	171.69
407.603	198.31
407.812	186.02
408.02	214.7
408.229	263.85
408.438	237.22
408.646	233.13
408.855	261.8
409.064	269.99
409.272	276.13
409.481	345.77
409.69	276.13
409.898	237.22
410.107	255.65
410.315	370.34
410.524	313
410.733	313
410.941	378.53
411.15	409.25
411.358	427.68
411.567	433.83
411.775	403.11
411.984	509.6
412.192	468.64
412.401	388.77
412.609	534.18
412.818	474.79
413.026	517.79
413.234	599.71
413.443	599.71
413.651	550.56
413.86	605.86
414.068	626.34
414.276	568.99
414.485	540.32
414.693	657.06
414.901	700.06
415.11	624.29
415.318	667.3
415.526	745.12
415.734	843.42
415.943	890.53
416.151	841.37
416.359	845.47
416.567	908.96
416.776	980.64
416.984	994.97
417.192	999.07
417.4	1058.46
417.608	992.92
417.817	1083.03
418.025	1130.14
418.233	1187.48
418.441	1050.27
418.649	1177.24
418.857	1324.69
419.065	1281.69
419.273	1339.03
419.481	1388.18
419.689	1529.49
419.897	1601.17
420.105	1517.2
420.313	1572.5
420.521	1711.76
420.729	1658.51
420.937	1746.58
421.145	1840.78
421.353	1824.4
421.561	1990.28
421.769	2012.81
421.977	2121.35
422.185	2029.2
422.393	2258.57
422.601	2291.34
422.809	2281.1
423.017	2356.87
423.224	2430.6
423.432	2662.02
423.64	2567.81
423.848	2829.95
424.056	2723.46
424.263	2969.21
424.471	2907.77
424.679	2846.34
424.887	3131
425.094	3210.87
425.302	3309.18
425.51	3370.62
425.718	3391.09
425.925	3563.12
426.133	3686
426.341	3882.61
426.548	3925.61
426.756	4159.08
426.964	4054.64
427.171	4253.29
427.379	4501.09
427.586	4480.61
427.794	4658.79
428.001	4824.67
428.209	4873.82
428.417	4957.79
428.624	5170.78
428.832	5353.05
429.039	5305.95
429.247	5252.7
429.454	5752.4
429.662	6137.42
429.869	5801.55
430.076	6108.75
430.284	5961.3
430.491	6055.5
430.699	6633.03
430.906	6399.56
431.114	6786.63
431.321	6846.02
431.528	6991.42
431.736	7407.16
431.943	7697.97
432.15	7605.81
432.358	7540.28
432.565	7980.59
432.772	8089.14
432.979	8506.92
433.187	8832.55
433.394	8625.7
433.601	9268.77
433.808	9133.6
434.016	9131.55
434.223	9625.11
434.43	10128.91
434.637	9893.4
434.844	10409.48
435.052	11005.44
435.259	10714.63
435.466	10747.4
435.673	10790.41
435.88	11490.81
436.087	12070.39
436.294	12021.24
436.501	11699.7
436.708	12062.19
436.915	12414.45
437.122	12946.92
437.329	12668.39
437.537	13123.04
437.743	13503.96
437.95	13243.87
438.157	13966.81
438.364	14499.28
438.571	14532.04
438.778	14579.15
438.985	15979.96
439.192	15349.18
439.399	15746.49
439.606	15297.99
439.813	16311.73
440.02	17139.11
440.227	16756.14
440.433	16940.46
440.64	17225.12
440.847	17122.73
441.054	17749.4
441.261	18879.88
441.467	18494.86
441.674	18996.62
441.881	19420.55
442.088	19572.1
442.294	19371.4
442.501	20032.89
442.708	20340.08
442.914	21001.58
443.121	22101.34
443.328	21636.45
443.534	22875.47
443.741	22164.82
443.948	21835.1
444.154	23643.46
444.361	23291.21
444.568	23469.38
444.774	23608.64
444.981	23780.67
445.187	24454.45
445.394	25543.97
445.6	25146.67
445.807	27456.78
446.013	26453.27
446.22	26664.21
446.426	27950.34
446.633	28118.27
446.839	29039.86
447.046	27835.65
447.252	29353.19
447.459	29218.03
447.665	29007.09
447.871	30637.27
448.078	31591.62
448.284	30225.63
448.491	31081.68
448.697	32197.82
448.903	32933.04
449.11	32562.36
449.316	32459.96
449.522	32783.54
449.728	33731.75
449.935	33516.72
450.141	33698.98
450.347	34602.14
450.553	33471.66
450.76	33565.87
450.966	35026.07
451.172	34493.6
451.378	35286.16
451.584	34530.46
451.791	35380.37
451.997	35323.02
452.203	35972.23
452.409	35490.96
452.615	35671.18
452.821	34020.52
453.027	34065.57
453.233	35474.57
453.44	34260.13
453.646	34421.92
453.852	34749.59
454.058	35079.32
454.264	33944.74
454.47	34712.73
454.676	33907.88
454.882	34702.49
455.088	31993.03
455.294	32128.19
455.5	32978.1
455.705	33434.8
455.911	32085.19
456.117	31220.94
456.323	30547.16
456.529	28749.04
456.735	30221.53
456.941	29494.5
457.147	29238.51
457.352	28202.24
457.558	27733.25
457.764	27909.38
457.97	27286.79
458.176	26795.28
458.381	26754.32
458.587	25648.42
458.793	25742.63
458.999	24048.96
459.204	25769.25
459.41	25072.94
459.616	23317.83
459.821	23799.1
460.027	23670.08
460.233	23031.12
460.438	21794.14
460.644	21980.51
460.85	20956.52
461.055	20974.95
461.261	20874.6
461.466	19033.48
461.672	18552.21
461.878	20227.45
462.083	18584.98
462.289	18398.61
462.494	17962.39
462.7	17489.31
462.905	17061.29
463.111	17339.81
463.316	17624.48
463.522	17130.92
463.727	16907.69
463.932	17059.24
464.138	17022.37
464.343	17077.67
464.549	16567.73
464.754	17042.85
464.959	17114.53
465.165	16981.42
465.37	16137.65
465.575	15519.17
465.781	16244.15
465.986	16268.72
466.191	15910.33
466.397	15662.52
466.602	14925.25
466.807	15506.88
467.012	15576.51
467.218	15123.91
467.423	14972.36
467.628	15148.48
467.833	15846.84
468.038	15144.39
468.244	14671.31
468.449	15334.85
468.654	14962.12
468.859	14857.67
469.064	14908.87
469.269	14216.66
469.474	13981.14
469.679	14505.42
469.885	14130.64
470.09	14122.45
470.295	14128.6
470.5	13839.83
470.705	13899.22
470.91	13454.81
471.115	13659.61
471.32	13575.64
471.525	13559.26
471.73	13202.91
471.935	13313.5
472.139	12817.9
472.344	12860.9
472.549	12770.79
472.754	12611.05
472.959	12412.4
473.164	12277.23
473.369	12015.09
473.574	12570.09
473.778	12166.64
473.983	12201.46
474.188	12035.57
474.393	11505.15
474.598	11687.42
474.802	11646.46
475.007	11591.16
475.212	11433.47
475.417	11036.16
475.621	10946.05
475.826	11234.82
476.031	10927.62
476.235	10642.95
476.44	11013.63
476.645	10714.63
476.849	10679.82
477.054	10497.55
477.259	10366.48
477.463	10114.58
477.668	10163.73
477.872	10225.17
478.077	9956.88
478.282	9762.33
478.486	9971.22
478.691	9684.5
478.895	9676.31
479.1	9782.81
479.304	9631.26
479.509	9297.44
479.713	9479.71
479.918	9207.33
480.122	9227.81
480.326	9397.79
480.531	9381.4
480.735	9362.97
480.94	9274.91
481.144	9438.75
481.348	8803.88
481.553	9180.7
481.757	8941.09
481.961	9057.82
482.166	9162.27
482.37	9043.49
482.574	8885.8
482.778	8930.85
482.983	9137.7
483.187	9109.02
483.391	9131.55
483.595	8853.03
483.8	8887.84
484.004	8934.95
484.208	9113.12
484.412	8867.36
484.616	9160.22
484.821	9082.4
485.025	8949.28
485.229	8990.24
485.433	8795.68
485.637	8842.79
485.841	8900.13
486.045	8767.01
486.249	9006.63
486.453	8773.16
486.657	8914.47
486.861	8990.24
487.065	8920.61
487.269	8975.91
487.473	8807.97
487.677	8951.33
487.881	9061.92
488.085	8990.24
488.289	9043.49
488.493	9014.82
488.697	9158.17
488.901	8902.18
489.105	9029.15
489.309	8885.8
489.512	9086.5
489.716	8986.15
489.92	9100.83
490.124	9117.22
490.328	9225.76
490.531	9006.63
490.735	9369.12
490.939	9154.08
491.143	9242.14
491.346	9244.19
491.55	9293.34
491.754	9565.72
491.958	9414.17
492.161	9387.55
492.365	9471.51
492.569	9397.79
492.772	9410.08
492.976	9625.11
493.18	9545.24
493.383	9766.42
493.587	9885.2
493.79	9963.03
493.994	9635.35
494.197	9774.61
494.401	9926.16
494.605	10028.56
494.808	10153.49
495.012	10190.35
495.215	10272.27
495.419	10448.4
495.622	10311.18
495.825	10569.23
496.029	10552.84
496.232	10698.25
496.436	10700.3
496.639	10964.48
496.843	10796.55
497.046	11120.13
497.249	11470.33
497.453	11437.56
497.656	11306.49
497.859	11642.36
498.063	11591.16
498.266	11941.36
498.469	11742.71
498.673	11867.64
498.876	12189.17
499.079	12254.7
499.282	11920.88
499.485	12289.52
499.689	12379.63
499.892	12703.21
500.095	12637.67
500.298	13104.61
500.501	12920.29
500.705	13260.26
500.908	13305.31
501.111	13757.91
501.314	13673.95
501.517	13882.84
501.72	14128.6
501.923	14013.91
502.126	14165.46
502.329	14540.24
502.532	14585.29
502.735	14650.83
502.938	14976.45
503.141	14998.98
503.344	15314.37
503.547	15375.81
503.75	15590.84
503.953	15738.3
504.156	16072.12
504.359	16047.54
504.562	16115.12
504.765	16399.79
504.968	16496.05
505.17	16788.91
505.373	16620.97
505.576	17130.92
505.779	17337.76
505.982	17454.5
506.185	17886.62
506.387	17919.39
506.59	17950.1
506.793	18396.56
506.996	18124.18
507.198	18912.65
507.401	18703.76
507.604	18746.76
507.807	19578.24
508.009	19465.6
508.212	19617.15
508.415	19492.23
508.617	19817.85
508.82	20092.28
509.022	20084.09
509.225	20778.35
509.428	20784.49
509.63	20944.24
509.833	21095.78
510.035	21665.12
510.238	21597.54
510.44	21831.01
510.643	21943.64
510.845	22461.78
511.048	22064.47
511.25	22644.05
511.453	22539.6
511.655	23729.47
511.858	23170.38
512.06	23403.85
512.262	23964.99
512.465	23741.76
512.667	24366.39
512.87	24362.29
513.072	24481.08
513.274	24943.92
513.477	25345.32
513.679	25478.44
513.881	25695.52
514.084	25773.35
514.286	26078.49
514.488	26412.31
514.69	26957.07
514.893	26918.16
515.095	26891.54
515.297	27346.19
515.499	27243.79
515.701	28097.79
515.904	28118.27
516.106	28552.44
516.308	28562.68
516.51	28986.61
516.712	29046
516.914	29525.22
517.116	29846.76
517.318	30182.62
517.52	30311.64
517.722	30199.01
517.925	30686.42
518.127	30893.27
518.329	31278.29
518.531	30915.79
518.733	31796.42
518.935	32156.86
519.136	32326.85
519.338	32722.1
519.54	32615.61
519.742	32945.33
519.944	33320.11
520.146	33631.4
520.348	33488.04
520.55	34135.2
520.752	34276.51
520.954	34882.71
521.155	34589.85
521.357	34718.87
521.559	35583.12
521.761	36072.58
521.963	35687.56
522.164	36275.33
522.366	36189.31
522.568	36226.18
522.77	36766.84
522.971	37373.04
523.173	36869.24
523.375	37428.34
523.576	37502.06
523.778	37706.86
523.98	38259.81
524.181	38270.05
524.383	38519.9
524.584	39119.96
524.786	38816.86
524.988	38960.22
525.189	39265.36
525.391	39423.06
525.592	39969.86
525.794	40383.55
525.995	40043.59
526.197	40186.95
526.398	40381.51
526.6	40571.97
526.801	40875.07
527.003	40987.71
527.204	40967.23
527.406	41368.63
527.607	41475.12
527.808	41770.03
528.01	41485.36
528.211	41569.33
528.412	42400.8
528.614	42060.84
528.815	42212.39
529.016	42781.73
529.218	42163.24
529.419	42605.6
529.62	42847.26
529.822	42585.12
530.023	43027.48
530.224	42941.47
530.425	43052.06
530.626	42839.07
530.828	42642.46
531.029	43617.3
531.23	43588.63
531.431	43482.13
531.632	43615.25
531.833	43629.58
532.035	43416.6
532.236	43645.97
532.437	44037.13
532.638	43631.63
532.839	44272.65
533.04	44342.28
533.241	43658.26
533.442	44512.26
533.643	44080.14
533.844	44045.32
534.045	44030.99
534.246	43955.21
534.447	44231.69
534.648	44155.91
534.849	44395.53
535.05	44133.39
535.251	44166.15
535.451	43992.08
535.652	44491.78
535.853	44307.46
536.054	44461.06
536.255	44569.6
536.456	44131.34
536.657	45079.55
536.857	44350.47
537.058	44323.85
537.259	44491.78
537.46	44678.14
537.66	44411.91
537.861	44381.19
538.062	44325.89
538.263	45061.12
538.463	44565.51
538.664	44538.88
538.865	44706.82
539.065	44561.41
539.266	44092.43
539.466	45145.08
539.667	44280.84
539.868	45003.77
540.068	44946.43
540.269	44430.34
540.469	44694.53
540.67	44319.75
540.87	44483.59
541.071	44563.46
541.271	44481.54
541.472	44715.01
541.672	44573.7
541.873	44440.58
542.073	43942.92
542.274	44743.68
542.474	44280.84
542.675	44045.32
542.875	44702.72
543.075	44469.25
543.276	44059.66
543.476	44805.12
543.676	44131.34
543.877	44100.62
544.077	44551.17
544.277	44221.45
544.478	44348.42
544.678	44510.21
544.878	44176.39
545.078	44651.52
545.279	44317.7
545.479	44354.57
545.679	44534.79
545.879	44575.75
546.079	44307.46
546.28	44301.32
546.48	44088.33
546.68	44524.55
546.88	44110.86
547.08	43883.53
547.28	44233.74
547.48	43781.13
547.68	44315.65
547.88	44088.33
548.081	44446.72
548.281	44270.6
548.481	44129.29
548.681	44299.27
548.881	44274.7
549.081	44243.98
549.28	44182.54
549.48	44366.85
549.68	44164.1
549.88	44604.42
550.08	43760.65
550.28	43883.53
550.48	43895.82
550.68	44278.79
550.88	43541.52
551.08	43658.26
551.279	44438.53
551.479	43734.03
551.679	44063.75
551.879	43584.53
552.079	44295.17
552.278	44231.69
552.478	44076.04
552.678	43822.09
552.878	43838.48
553.077	44055.56
553.277	43396.12
553.477	43840.53
553.676	43783.18
553.876	43838.48
554.076	43543.57
554.275	43695.12
554.475	43285.53
554.674	43695.12
554.874	43875.34
555.074	43414.55
555.273	43445.27
555.473	43844.62
555.672	43318.29
555.872	43545.62
556.071	43314.2
556.271	43392.02
556.47	43545.62
556.67	42982.43
556.869	43060.25
557.068	42945.56
557.268	42982.43
557.467	43367.44
557.667	43070.49
557.866	42812.45
558.065	42724.38
558.265	42961.95
558.464	42798.11
558.663	42865.69
558.863	42564.64
559.062	43090.97
559.261	42284.07
559.461	43228.18
559.66	42314.79
559.859	42298.41
560.058	42142.76
560.258	41940.01
560.457	42120.23
560.656	42787.87
560.855	41792.56
561.054	42234.92
561.253	41696.3
561.453	42222.63
561.652	41972.78
561.851	41954.35
562.05	41843.76
562.249	41520.18
562.448	41684.01
562.647	41598
562.846	41694.25
563.045	41452.59
563.244	40967.23
563.443	41825.32
563.642	41032.76
563.841	41253.94
564.04	40696.89
564.239	41184.31
564.438	40711.23
564.637	41102.39
564.836	40967.23
565.035	40193.09
565.234	40619.07
565.432	40055.88
565.631	40096.84
565.83	40510.53
566.029	40176.71
566.228	40457.28
566.427	40156.23
566.625	39971.91
566.824	39564.37
567.023	39707.72
567.222	39603.28
567.42	39607.37
567.619	39717.96
567.818	39337.04
568.016	39363.67
568.215	39672.91
568.414	39351.38
568.612	39394.39
568.811	38734.94
569.01	38947.93
569.208	38810.71
569.407	38894.68
569.605	38317.15
569.804	38736.99
570.002	38458.46
570.201	38354.02
570.4	38444.13
570.598	37762.15
570.797	37891.18
570.995	38067.3
571.193	37764.2
571.392	38050.92
571.59	37336.18
571.789	37882.98
571.987	37188.72
572.186	37522.54
572.384	36947.06
572.582	37284.98
572.781	37407.86
572.979	36351.1
573.177	36895.86
573.376	36830.33
573.574	36807.8
573.772	36754.55
573.971	36525.18
574.169	36277.38
574.367	36070.53
574.565	36453.5
574.763	36125.83
574.962	36076.68
575.16	35619.98
575.358	36121.73
575.556	35450
575.754	35601.55
575.952	35488.91
576.151	35691.66
576.349	35138.71
576.547	35413.13
576.745	35417.23
576.943	35341.46
577.141	35302.54
577.339	35140.75
577.537	34888.85
577.735	34651.29
577.933	34360.48
578.131	34745.5
578.329	34749.59
578.527	34245.79
578.725	34315.42
578.923	34452.64
579.121	34233.5
579.319	33858.73
579.516	34327.71
579.714	34274.46
579.912	33639.59
580.11	34223.26
580.308	33809.57
580.506	33451.18
580.704	33182.9
580.901	33385.65
581.099	33817.77
581.297	33125.55
581.495	33172.66
581.692	33348.78
581.89	32525.5
582.088	33285.29
582.285	32840.89
582.483	32648.38
582.681	32613.56
582.878	32593.08
583.076	32314.56
583.274	32318.65
583.471	32400.57
583.669	32423.1
583.866	31980.74
584.064	32509.11
584.262	31413.45
584.459	31853.76
584.657	31880.39
584.854	31827.14
585.052	31515.85
585.249	31640.78
585.447	31683.78
585.644	31315.15
585.841	31266
586.039	31304.91
586.236	30903.51
586.434	31061.2
586.631	30790.87
586.828	31188.17
587.026	30772.44
587.223	30696.66
587.42	30405.85
587.618	30844.12
587.815	30387.42
588.012	30276.83
588.21	30356.7
588.407	30379.23
588.604	30117.09
588.801	29801.7
588.999	30072.03
589.196	29498.6
589.393	29983.97
589.59	29490.41
589.787	29715.69
589.984	29496.55
590.182	28988.66
590.379	29598.95
590.576	29347.05
590.773	28970.22
590.97	28949.74
591.167	28986.61
591.364	28828.91
591.561	29035.76
591.758	28392.7
591.955	28669.17
592.152	28751.09
592.349	28552.44
592.546	28429.56
592.743	28527.86
592.94	28138.75
593.137	28361.98
593.334	28267.77
593.531	27747.59
593.727	27962.62
593.924	27862.27
594.121	27620.61
594.318	27796.74
594.515	27194.64
594.712	27981.06
594.908	27479.3
595.105	27360.52
595.302	27311.37
595.499	27053.33
595.696	27065.61
595.892	27032.85
596.089	27082
596.286	27102.48
596.482	26711.32
596.679	26795.28
596.876	26535.19
597.072	26846.48
597.269	26594.58
597.466	26332.44
597.662	26408.22
597.859	26240.28
598.055	26176.8
598.252	26019.1
598.448	26027.29
598.645	25955.61
598.841	25562.4
599.038	25853.22
599.234	25904.42
599.431	25333.03
599.627	25675.04
599.824	25695.52
600.02	25285.93
600.217	25505.06
600.413	25208.11
600.609	25115.95
600.806	25169.19
601.002	25087.28
601.198	24907.05
601.395	24915.25
601.591	24679.73
601.787	24573.24
601.984	24569.14
602.18	24763.7
602.376	24724.79
602.572	24472.89
602.769	24239.42
602.965	24120.63
603.161	24169.79
603.357	24257.85
603.553	23958.85
603.75	23983.42
603.946	23723.33
604.142	23868.73
604.338	23403.85
604.534	23758.14
604.73	23491.91
604.926	23397.7
605.122	23448.9
605.318	23389.51
605.514	23328.07
605.71	23160.14
605.906	23166.28
606.102	23059.79
606.298	22867.28
606.494	22889.81
606.69	22934.86
606.886	23137.61
607.082	22650.19
607.278	23319.88
607.474	22631.76
607.67	22691.15
607.866	22242.65
608.062	22771.02
608.257	22580.56
608.453	22304.09
608.649	22531.41
608.845	22205.78
609.041	22164.82
609.236	22238.55
609.432	22236.5
609.628	22043.99
609.824	22091.1
610.019	21935.45
610.215	22052.19
610.411	21894.49
610.606	21726.56
610.802	21984.6
610.998	21869.92
611.193	21845.34
611.389	21527.91
611.584	21712.22
611.78	21505.38
611.976	21677.41
612.171	21675.36
612.367	21032.3
612.562	21210.47
612.758	21243.24
612.953	21157.22
613.149	21482.85
613.344	20993.39
613.539	21572.96
613.735	20804.97
613.93	20999.53
614.126	20467.06
614.321	21114.22
614.517	20782.45
614.712	20850.03
614.907	20475.25
615.103	20833.64
615.298	20444.53
615.493	21065.07
615.688	20389.24
615.884	20946.28
616.079	20434.29
616.274	20473.2
616.47	20209.01
616.665	20364.66
616.86	20331.89
617.055	20413.81
617.25	20075.9
617.445	20448.63
617.641	19840.38
617.836	20297.08
618.031	19897.72
618.226	20192.63
618.421	19678.59
618.616	19750.27
618.811	19496.32
619.006	19926.39
619.201	19422.59
619.396	19725.69
619.591	19314.05
619.786	19592.58
619.981	18912.65
620.176	19492.23
620.371	19238.28
620.566	19111.3
620.761	19127.69
620.956	18982.28
621.151	18625.93
621.346	18886.03
621.541	18371.99
621.735	18722.19
621.93	18281.88
622.125	18400.66
622.32	18294.16
622.515	18308.5
622.709	18079.13
622.904	18234.77
623.099	17892.76
623.294	17958.3
623.488	17522.08
623.683	17935.77
623.878	17589.66
624.072	17661.34
624.267	17384.87
624.462	17481.12
624.656	17118.63
624.851	17161.64
625.046	17100.2
625.24	16666.03
625.435	16620.97
625.629	16930.22
625.824	16678.32
626.018	16612.78
626.213	16190.9
626.407	16389.55
626.602	15943.1
626.796	16272.82
626.991	16207.28
627.185	16297.39
627.38	15922.62
627.574	15693.24
627.768	15814.07
627.963	15582.65
628.157	15527.36
628.352	15656.38
628.546	15515.07
628.74	15660.48
628.935	15312.32
629.129	15316.42
629.323	14794.18
629.517	15066.56
629.712	15103.43
629.906	14904.78
630.1	14730.7
630.294	14865.86
630.489	14501.33
630.683	14687.69
630.877	14499.28
631.071	14638.54
631.265	14390.74
631.459	14210.51
631.653	14187.99
631.848	14032.34
632.042	14112.21
632.236	14050.77
632.43	13919.7
632.624	14054.87
632.818	13415.9
633.012	13608.41
633.206	13594.08
633.4	13497.82
633.594	13497.82
633.788	13409.76
633.982	13397.47
634.176	13278.69
634.369	13280.74
634.563	13133.28
634.757	13133.28
634.951	13041.12
635.145	12916.2
635.339	12901.86
635.533	12721.64
635.726	12738.02
635.92	12404.21
636.114	12830.18
636.308	12414.45
636.501	12596.71
636.695	12164.59
636.889	12412.4
637.083	12328.43
637.276	12068.34
637.47	12035.57
637.664	12023.28
637.857	12117.49
638.051	11771.38
638.244	11804.15
638.438	12015.09
638.632	11724.28
638.825	11566.59
639.019	11623.93
639.212	11501.05
639.406	11597.31
639.599	11380.22
639.793	11320.83
639.986	11109.89
640.18	11232.77
640.373	11206.14
640.567	11079.17
640.76	11111.94
640.954	10814.98
641.147	10765.83
641.34	10784.26
641.534	10864.13
641.727	10765.83
641.92	10608.14
642.114	10522.12
642.307	10526.22
642.5	10311.18
642.694	10493.45
642.887	10216.97
643.08	10466.83
643.273	10159.63
643.467	10075.66
643.66	10028.56
643.853	10014.23
644.046	9965.07
644.239	9977.36
644.432	9938.45
644.626	9791
644.819	10001.94
645.012	9846.29
645.205	9614.87
645.398	9573.91
645.591	9537.05
645.784	9631.26
645.977	9238.05
646.17	9469.47
646.363	9377.31
646.556	9201.18
646.749	9389.6
646.942	9186.85
647.135	9102.88
647.328	9000.48
647.521	9156.13
647.714	8990.24
647.907	9006.63
648.099	8840.74
648.292	9002.53
648.485	8881.7
648.678	8644.13
648.871	8838.69
649.064	8560.17
649.256	8717.86
649.449	8660.52
649.642	8402.47
649.835	8525.35
650.027	8363.56
650.22	8537.64
650.413	8480.3
650.605	8271.4
650.798	8189.49
650.991	8058.42
651.183	8267.31
651.376	8263.21
651.568	8226.35
651.761	8076.85
651.954	7972.4
652.146	7972.4
652.339	7939.63
652.531	7783.99
652.724	7976.5
652.916	7806.52
653.109	7577.14
653.301	7642.68
653.494	7618.1
653.686	7444.03
653.879	7718.45
654.071	7566.9
654.263	7386.68
654.456	7581.24
654.648	7654.97
654.84	7280.19
655.033	7292.48
655.225	7310.91
655.417	7337.53
655.61	7398.97
655.802	7296.57
655.994	7194.17
656.186	7159.36
656.379	7175.74
656.571	7202.36
656.763	7063.1
656.955	6792.77
657.148	6884.93
657.34	6839.87
657.532	6792.77
657.724	6850.11
657.916	6862.4
658.108	6794.82
658.3	6766.15
658.492	6614.6
658.684	6753.86
658.876	6645.32
659.068	6317.64
659.26	6559.3
659.452	6628.93
659.644	6579.78
659.836	6432.33
660.028	6604.36
660.22	6528.58
660.412	6397.51
660.604	6200.91
660.796	6231.63
660.988	6434.38
661.18	6108.75
661.372	6327.88
661.563	6358.6
661.755	6166.09
661.947	6106.7
662.139	6028.88
662.331	6035.02
662.522	5891.66
662.714	5873.23
662.906	5908.05
663.097	5914.19
663.289	5881.42
663.481	5764.69
663.673	5772.88
663.864	5815.89
664.056	5930.58
664.247	5789.27
664.439	5598.81
664.631	5785.17
664.822	5707.35
665.014	5723.73
665.205	5617.24
665.397	5477.98
665.588	5654.1
665.78	5551.7
665.971	5398.1
666.163	5635.67
666.354	5480.02
666.546	5324.38
666.737	5398.1
666.929	5553.75
667.12	5408.34
667.311	5303.9
667.503	5469.78
667.694	5232.22
667.885	5183.07
668.077	5260.89
668.268	5068.38
668.459	5164.64
668.651	5111.39
668.842	5183.07
669.033	5123.68
669.224	5013.09
669.416	5211.74
669.607	5068.38
669.798	5127.77
669.989	5211.74
670.18	5099.1
670.371	5064.29
670.563	4990.56
670.754	5148.25
670.945	5082.72
671.136	5023.33
671.327	4884.06
671.518	4875.87
671.709	4775.52
671.9	4857.44
672.091	4910.69
672.282	4933.22
672.473	4830.82
672.664	4839.01
672.855	4800.1
673.046	4595.3
673.237	4826.72
673.428	4793.95
673.619	4648.55
673.809	4656.74
674	4748.9
674.191	4697.7
674.382	4642.4
674.573	4755.04
674.764	4580.96
674.954	4671.08
675.145	4646.5
675.336	4681.32
675.527	4566.63
675.717	4511.33
675.908	4808.29
676.099	4587.11
676.289	4681.32
676.48	4623.97
676.671	4478.57
676.861	4583.01
677.052	4552.29
677.243	4537.96
677.433	4449.89
677.624	4703.84
677.814	4642.4
678.005	4589.16
678.195	4509.29
678.386	4535.91
678.576	4390.5
678.767	4490.85
678.957	4384.36
679.148	4570.72
679.338	4607.59
679.529	4558.44
679.719	4540.01
679.909	4550.25
680.1	4474.47
680.29	4413.03
680.481	4595.3
680.671	4333.16
680.861	4466.28
681.052	4384.36
681.242	4427.37
681.432	4357.74
681.622	4484.71
681.813	4535.91
682.003	4478.57
682.193	4302.44
682.383	4402.79
682.573	4474.47
682.764	4417.13
682.954	4265.58
683.144	4415.08
683.334	4392.55
683.524	4161.13
683.714	4382.31
683.904	4144.75
684.094	4408.94
684.284	4335.21
684.474	4361.83
684.664	4284.01
684.854	4468.33
685.044	4286.06
685.234	4241
685.424	4161.13
685.614	4150.89
685.804	4159.08
685.994	4288.11
686.184	4130.41
686.374	4193.9
686.564	3970.67
686.753	4284.01
686.943	3929.71
687.133	4175.47
687.323	4134.51
687.513	4290.15
687.702	4142.7
687.892	4152.94
688.082	4046.44
688.272	4038.25
688.461	4023.92
688.651	4073.07
688.841	3890.8
689.03	3862.13
689.22	3989.1
689.41	3905.14
689.599	3913.33
689.789	3894.9
689.979	3999.34
690.168	3757.68
690.358	3851.89
690.547	3815.02
690.737	3923.57
690.926	3872.37
691.116	3700.34
691.305	3815.02
691.495	3763.83
691.684	3698.29
691.874	3765.87
692.063	3640.95
692.252	3729.01
692.442	3614.32
692.631	3747.44
692.82	3706.48
693.01	3651.19
693.199	3679.86
693.388	3630.71
693.578	3663.47
693.767	3552.88
693.956	3737.2
694.146	3575.41
694.335	3485.3
694.524	3520.12
694.713	3669.62
694.902	3620.47
695.092	3712.63
695.281	3470.97
695.47	3393.14
695.659	3464.82
695.848	3604.08
696.037	3497.59
696.226	3573.36
696.415	3495.54
696.604	3585.65
696.793	3643
696.982	3528.31
697.171	3401.33
697.36	3546.74
697.549	3450.49
697.738	3368.57
697.927	3493.49
698.116	3368.57
698.305	3464.82
698.494	3352.18
698.683	3415.67
698.872	3610.23
699.061	3485.3
699.25	3331.7
699.438	3440.25
699.627	3376.76
699.816	3485.3
700.005	3384.95
700.193	3425.91
700.382	3446.39
700.571	3483.25
700.76	3456.63
700.948	3346.04
701.137	3362.42
701.326	3430.01
701.514	3290.74
701.703	3466.87
701.892	3286.65
702.08	3290.74
702.269	3411.57
702.457	3348.09
702.646	3296.89
702.834	3292.79
703.023	3311.22
703.212	3368.57
703.4	3384.95
703.589	3292.79
703.777	3298.94
703.965	3284.6
704.154	3239.55
704.342	3276.41
704.531	3278.46
704.719	3339.9
704.907	3266.17
705.096	3241.59
705.284	3239.55
705.472	3286.65
705.661	3251.83
705.849	3137.15
706.037	3325.56
706.226	3462.77
706.414	3294.84
706.602	3253.88
706.79	3311.22
706.979	3319.42
707.167	3210.87
707.355	3294.84
707.543	3456.63
707.731	3161.72
707.919	3319.42
708.107	3135.1
708.296	3303.03
708.484	3313.27
708.672	3292.79
708.86	3319.42
709.048	3454.58
709.236	3337.85
709.424	3378.81
709.612	3346.04
709.8	3165.82
709.988	3268.22
710.176	3358.33
710.364	3348.09
710.551	3298.94
710.739	3235.45
710.927	3376.76
711.115	3223.16
711.303	3409.53
711.491	3313.27
711.679	3298.94
711.866	3292.79
712.054	3343.99
712.242	3303.03
712.43	3354.23
712.617	3243.64
712.805	3247.74
712.993	3272.31
713.181	3219.07
713.368	3374.71
713.556	3298.94
713.744	3266.17
713.931	3366.52
714.119	3163.77
714.306	3270.26
714.494	3178.11
714.682	3290.74
714.869	3118.72
715.057	3397.24
715.244	3200.63
715.432	3339.9
715.619	3214.97
715.807	3268.22
715.994	3382.9
716.182	3171.96
716.369	3360.38
716.556	3372.66
716.744	3237.5
716.931	3278.46
717.119	3364.47
717.306	3358.33
717.493	3237.5
717.681	3233.4
717.868	3309.18
718.055	3397.24
718.242	3223.16
718.43	3214.97
718.617	3131
718.804	3260.02
718.991	3202.68
719.179	3387
719.366	3288.7
719.553	3196.54
719.74	3276.41
719.927	3196.54
720.114	3151.48
720.301	3104.38
720.488	3186.3
720.676	3227.26
720.863	3231.35
721.05	3159.67
721.237	3163.77
721.424	3231.35
721.611	3198.59
721.798	3262.07
721.985	3147.39
722.172	3227.26
722.358	3200.63
722.545	3200.63
722.732	3245.69
722.919	3075.71
723.106	3266.17
723.293	3169.91
723.48	3167.87
723.667	3157.63
723.853	3294.84
724.04	3251.83
724.227	3387
724.414	3214.97
724.6	3149.43
724.787	3233.4
724.974	3257.98
725.161	3192.44
725.347	3106.43
725.534	3192.44
725.72	3044.99
725.907	3294.84
726.094	3221.11
726.28	3196.54
726.467	3024.51
726.653	3073.66
726.84	3260.02
727.027	3235.45
727.213	3077.76
727.4	3171.96
727.586	3116.67
727.773	3159.67
727.959	3069.56
728.145	3163.77
728.332	3090.04
728.518	2981.5
728.705	3118.72
728.891	3081.85
729.077	3090.04
729.264	3190.39
729.45	3229.31
729.636	3235.45
729.823	3032.7
730.009	3001.98
730.195	3174.01
730.382	3151.48
730.568	3141.24
730.754	3028.6
730.94	2950.78
731.126	3145.34
731.313	3092.09
731.499	3073.66
731.685	3073.66
731.871	3012.22
732.057	3194.49
732.243	3110.52
732.429	3028.6
732.615	3092.09
732.801	3096.19
732.987	3141.24
733.173	3024.51
733.359	3102.33
733.545	3141.24
733.731	3024.51
733.917	3153.53
734.103	3038.84
734.289	2956.93
734.475	2973.31
734.661	3053.18
734.847	2993.79
735.033	3001.98
735.219	3104.38
735.404	2854.53
735.59	2924.16
735.776	2907.77
735.962	2973.31
736.148	2940.54
736.333	2983.55
736.519	3042.94
736.705	2934.4
736.89	3020.41
737.076	2973.31
737.262	2877.05
737.447	2852.48
737.633	2909.82
737.819	2832
738.004	2842.24
738.19	2877.05
738.375	2920.06
738.561	2877.05
738.747	2887.29
738.932	2989.69
739.118	2952.83
739.303	2823.81
739.489	2860.67
739.674	2713.22
739.859	2778.75
740.045	2727.55
740.23	2852.48
740.416	2664.07
740.601	2762.37
740.786	2614.91
740.972	2709.12
741.157	2737.79
741.342	2721.41
741.528	2766.46
741.713	2631.3
741.898	2692.74
742.084	2735.74
742.269	2705.03
742.454	2760.32
742.639	2776.7
742.824	2590.34
743.01	2590.34
743.195	2641.54
743.38	2576
743.565	2659.97
743.75	2688.64
743.935	2596.48
744.12	2721.41
744.305	2545.28
744.49	2590.34
744.675	2496.13
744.86	2432.65
745.045	2498.18
745.23	2504.32
745.415	2467.46
745.6	2496.13
745.785	2436.74
745.97	2487.94
746.155	2522.76
746.34	2559.62
746.525	2432.65
746.71	2459.27
746.895	2432.65
747.079	2459.27
747.264	2299.53
747.449	2365.06
747.634	2293.38
747.819	2369.16
748.003	2309.77
748.188	2338.44
748.373	2168.46
748.557	2295.43
748.742	2258.57
748.927	2291.34
749.111	2176.65
749.296	2229.9
749.481	2285.19
749.665	2166.41
749.85	2119.31
750.034	2012.81
750.219	2221.7
750.404	2094.73
750.588	2096.78
750.773	2104.97
750.957	2068.11
751.141	2123.4
751.326	2029.2
751.51	1963.66
751.695	1998.48
751.879	1967.76
752.064	2023.05
752.248	1930.89
752.432	2041.48
752.617	2008.72
752.801	1930.89
752.985	1873.55
753.17	1887.89
753.354	1937.04
753.538	1881.74
753.722	1752.72
753.907	1814.16
754.091	1881.74
754.275	1728.14
754.459	1877.65
754.643	1662.61
754.828	1709.71
755.012	1742.48
755.196	1734.29
755.38	1801.87
755.564	1646.23
755.748	1695.38
755.932	1631.89
756.116	1705.62
756.3	1767.06
756.484	1648.27
756.668	1576.59
756.852	1580.69
757.036	1564.31
757.22	1625.75
757.404	1500.82
757.588	1545.88
757.772	1537.68
757.956	1527.44
758.14	1638.03
758.323	1486.48
758.507	1535.64
758.691	1466
758.875	1525.4
759.059	1605.27
759.242	1461.91
759.426	1457.81
759.61	1517.2
759.794	1445.52
759.977	1459.86
760.161	1564.31
760.345	1371.8
760.528	1437.33
760.712	1418.9
760.895	1373.85
761.079	1500.82
761.263	1287.83
761.446	1291.93
761.63	1390.23
761.813	1386.13
761.997	1365.65
762.18	1298.07
762.364	1375.89
762.547	1416.85
762.731	1287.83
762.914	1242.78
763.098	1355.41
763.281	1326.74
763.464	1269.4
763.648	1255.06
763.831	1279.64
764.015	1234.58
764.198	1312.41
764.381	1259.16
764.564	1330.84
764.748	1167
764.931	1339.03
765.114	1261.21
765.297	1291.93
765.481	1281.69
765.664	1248.92
765.847	1261.21
766.03	1244.82
766.213	1136.28
766.397	1181.34
766.58	1255.06
766.763	1195.67
766.946	1132.19
767.129	1199.77
767.312	1214.1
767.495	1197.72
767.678	1212.06
767.861	1146.52
768.044	1181.34
768.227	1091.23
768.41	1144.47
768.593	1115.8
768.776	1062.55
768.959	1105.56
769.142	1091.23
769.324	1060.51
769.507	1107.61
769.69	1134.23
769.873	1169.05
770.056	1097.37
770.239	1189.53
770.421	1076.89
770.604	1083.03
770.787	1093.27
770.97	1017.5
771.152	990.88
771.335	1076.89
771.518	1068.7
771.7	1095.32
771.883	1091.23
772.066	1015.45
772.248	1009.31
772.431	966.3
772.613	970.4
772.796	865.95
772.978	945.82
773.161	1048.22
773.343	966.3
773.526	919.2
773.708	941.72
773.891	949.92
774.073	966.3
774.256	927.39
774.438	917.15
774.621	915.1
774.803	923.29
774.985	947.87
775.168	908.96
775.35	937.63
775.532	919.2
775.715	958.11
775.897	829.09
776.079	902.81
776.261	892.57
776.444	859.81
776.626	880.29
776.808	810.65
776.99	853.66
777.173	802.46
777.355	767.65
777.537	863.9
777.719	796.32
777.901	874.14
778.083	777.89
778.265	779.93
778.447	790.17
778.629	726.69
778.811	718.5
778.993	810.65
779.175	738.98
779.357	810.65
779.539	730.78
779.721	685.73
779.903	743.07
780.085	714.4
780.267	781.98
780.449	710.3
780.631	759.46
780.812	722.59
780.994	689.82
781.176	687.78
781.358	700.06
781.54	667.3
781.721	743.07
781.903	669.34
782.085	593.57
782.267	687.78
782.448	612
782.63	673.44
782.812	652.96
782.993	603.81
783.175	669.34
783.357	655.01
783.538	609.95
783.72	542.37
783.901	575.14
784.083	716.45
784.264	566.95
784.446	525.99
784.627	601.76
784.809	571.04
784.99	507.55
785.172	581.28
785.353	499.36
785.535	573.09
785.716	485.03
785.897	605.86
786.079	591.52
786.26	513.7
786.441	597.67
786.623	470.69
786.804	501.41
786.985	532.13
787.167	583.33
787.348	493.22
787.529	546.47
787.71	466.6
787.891	591.52
788.073	568.99
788.254	468.64
788.435	493.22
788.616	472.74
788.797	450.21
788.978	478.88
789.159	505.51
789.34	460.45
789.522	597.67
789.703	487.08
789.884	468.64
790.065	491.17
790.246	452.26
790.427	444.07
790.607	464.55
790.788	530.08
790.969	466.6
791.15	478.88
791.331	415.4
791.512	390.82
791.693	394.92
791.874	399.01
792.054	450.21
792.235	360.1
792.416	405.16
792.597	394.92
792.778	431.78
792.958	372.39
793.139	390.82
793.32	362.15
793.5	372.39
793.681	396.96
793.862	433.83
794.042	353.96
794.223	399.01
794.404	382.63
794.584	335.53
794.765	442.02
794.945	409.25
795.126	403.11
795.306	370.34
795.487	360.1
795.667	304.81
795.848	349.86
796.028	378.53
796.209	372.39
796.389	315.05
796.57	272.04
796.75	337.57
796.93	376.48
797.111	313
797.291	411.3
797.471	392.87
797.652	331.43
797.832	331.43
798.012	313
798.192	313
798.373	298.66
798.553	321.19
798.733	321.19
798.913	345.77
799.093	300.71
799.274	306.85
799.454	399.01
799.634	345.77
799.814	345.77
799.994	269.99
800.174	218.79
800.354	278.18
800.534	302.76
800.714	325.29
800.894	296.61
801.074	243.37
801.254	288.42
801.434	315.05
801.614	214.7
801.794	216.74
801.974	841.37
802.154	237.22
802.334	360.1
802.514	247.46
802.693	321.19
802.873	310.95
803.053	245.41
803.233	302.76
803.413	351.91
803.592	261.8
803.772	226.98
803.952	196.26
804.131	319.14
804.311	247.46
804.491	323.24
804.67	204.46
804.85	241.32
805.03	204.46
805.209	341.67
805.389	288.42
805.568	239.27
805.748	165.54
805.928	282.28
806.107	247.46
806.287	308.9
806.466	218.79
806.646	269.99
806.825	214.7
807.004	235.18
807.184	192.17
807.363	294.57
807.543	145.06
807.722	276.13
807.901	263.85
808.081	237.22
808.26	173.74
808.439	241.32
808.619	239.27
808.798	173.74
808.977	116.39
809.156	198.31
809.336	206.5
809.515	179.88
809.694	198.31
809.873	190.12
810.052	192.17
810.231	276.13
810.411	181.93
810.59	239.27
810.769	247.46
810.948	220.84
811.127	153.26
811.306	241.32
811.485	157.35
811.664	269.99
811.843	175.78
812.022	261.8
812.201	175.78
812.38	216.74
812.559	198.31
812.737	231.08
812.916	173.74
813.095	169.64
813.274	167.59
813.453	95.91
813.632	151.21
813.811	181.93
813.989	179.88
814.168	183.98
814.347	163.5
814.526	179.88
814.704	181.93
814.883	216.74
815.062	200.36
815.24	190.12
815.419	175.78
815.598	177.83
815.776	208.55
815.955	175.78
816.133	110.25
816.312	196.26
816.49	181.93
816.669	196.26
816.847	212.65
817.026	163.5
817.204	163.5
817.383	210.6
817.561	179.88
817.74	255.65
817.918	210.6
818.097	134.82
818.275	128.68
818.453	157.35
818.632	171.69
818.81	206.5
818.988	110.25
819.167	143.02
819.345	202.41
819.523	169.64
819.701	161.45
819.879	186.02
820.058	81.58
820.236	173.74
820.414	91.82
820.592	169.64
820.77	143.02
820.948	149.16
821.127	97.96
821.305	188.07
821.483	102.06
821.661	177.83
821.839	173.74
822.017	136.87
822.195	157.35
822.373	173.74
822.551	114.34
822.729	171.69
822.907	126.63
823.085	136.87
823.262	128.68
823.44	85.67
823.618	100.01
823.796	186.02
823.974	110.25
824.152	120.49
824.329	106.15
824.507	145.06
824.685	179.88
824.863	120.49
825.04	52.91
825.218	124.58
825.396	97.96
825.574	102.06
825.751	89.77
825.929	159.4
826.107	71.34
826.284	71.34
826.462	77.48
826.639	95.91
826.817	104.11
826.994	149.16
827.172	79.53
827.349	175.78
827.527	65.19
827.704	198.31
827.882	65.19
828.059	147.11
828.237	104.11
828.414	140.97
828.591	83.63
828.769	165.54
828.946	42.67
829.124	104.11
829.301	106.15
829.478	155.3
829.655	118.44
829.833	38.57
830.01	100.01
830.187	130.73
830.364	171.69
830.542	163.5
830.719	177.83
830.896	171.69
831.073	102.06
831.25	130.73
831.427	93.87
831.604	138.92
831.782	63.15
831.959	183.98
832.136	157.35
832.313	155.3
832.49	108.2
832.667	136.87
832.844	91.82
833.021	106.15
833.198	136.87
833.374	42.67
833.551	57
833.728	138.92
833.905	132.78
834.082	132.78
834.259	89.77
834.436	79.53
834.612	75.43
834.789	124.58
834.966	116.39
835.143	112.3
835.319	24.23
835.496	59.05
835.673	112.3
835.85	89.77
836.026	102.06
836.203	102.06
836.38	102.06
836.556	24.23
836.733	1.71
836.909	100.01
837.086	104.11
837.262	112.3
837.439	50.86
837.616	110.25
837.792	69.29
837.968	163.5
838.145	69.29
838.321	91.82
838.498	59.05
838.674	118.44
838.851	100.01
839.027	59.05
839.203	59.05
839.38	24.23
839.556	65.19
839.732	149.16
839.909	42.67
840.085	87.72
840.261	59.05
840.437	73.39
840.614	69.29
840.79	159.4
840.966	20.14
841.142	44.71
841.318	26.28
841.494	-10.58
841.671	91.82
841.847	89.77
842.023	73.39
842.199	52.91
842.375	67.24
842.551	20.14
842.727	46.76
842.903	136.87
843.079	71.34
843.255	71.34
843.431	116.39
843.607	136.87
843.783	46.76
843.959	79.53
844.134	40.62
844.31	81.58
844.486	83.63
844.662	104.11
844.838	50.86
845.013	-2.39
845.189	28.33
845.365	36.52
845.541	-4.44
845.716	120.49
845.892	95.91
846.068	81.58
846.244	36.52
846.419	-16.73
846.595	13.99
846.77	52.91
846.946	71.34
847.122	67.24
847.297	30.38
847.473	85.67
847.648	24.23
847.824	79.53
847.999	42.67
848.175	9.9
848.35	69.29
848.526	67.24
848.701	81.58
848.876	75.43
849.052	63.15
849.227	108.2
849.403	26.28
849.578	16.04
849.753	5.8
849.929	69.29
850.104	42.67
850.279	44.71
850.454	44.71
850.63	42.67
850.805	65.19
850.98	34.47
851.155	89.77
851.33	36.52
851.505	11.95
851.681	93.87
851.856	57
852.031	71.34
852.206	75.43
852.381	36.52
852.556	97.96
852.731	11.95
852.906	102.06
853.081	147.11
853.256	18.09
853.431	3.75
853.606	73.39
853.781	40.62
853.956	7.85
854.131	22.19
854.305	73.39
854.48	9.9
854.655	52.91
854.83	44.71
855.005	38.57
855.18	9.9
855.354	32.43
855.529	79.53
855.704	40.62
855.879	57
856.053	54.95
856.228	46.76
856.403	83.63
856.577	-16.73
856.752	-63.83
856.926	16.04
857.101	71.34
857.276	-8.53
857.45	1.71
857.625	83.63
857.799	-22.87
857.974	57
858.148	-16.73
858.323	13.99
858.497	44.71
858.672	22.19
858.846	16.04
859.02	108.2
859.195	-39.25
859.369	79.53
859.543	106.15
859.718	-0.34
859.892	26.28
860.066	-20.82
860.241	26.28
860.415	5.8
860.589	22.19
860.763	13.99
860.938	-14.68
861.112	11.95
861.286	13.99
861.46	26.28
861.634	71.34
861.808	-12.63
861.982	-8.53
862.157	32.43
862.331	26.28
862.505	-20.82
862.679	26.28
862.853	32.43
863.027	-16.73
863.201	46.76
863.375	-4.44
863.549	73.39
863.722	59.05
863.896	63.15
864.07	5.8
864.244	9.9
864.418	57
864.592	18.09
864.766	97.96
864.939	-47.44
865.113	-6.49
865.287	28.33
865.461	-57.68
865.634	38.57
865.808	73.39
865.982	1.71
866.156	38.57
866.329	26.28
866.503	28.33
866.676	48.81
866.85	93.87
867.024	83.63
867.197	-10.58
867.371	-39.25
867.544	38.57
867.718	-22.87
867.891	97.96
868.065	69.29
868.238	38.57
868.412	-8.53
868.585	50.86
868.759	91.82
868.932	36.52
869.105	24.23
869.279	26.28
869.452	40.62
869.625	75.43
869.799	40.62
869.972	-43.35
870.145	7.85
870.319	26.28
870.492	-4.44
870.665	52.91
870.838	34.47
871.011	63.15
871.185	20.14
871.358	-26.96
871.531	-18.77
871.704	5.8
871.877	59.05
872.05	46.76
872.223	11.95
872.396	-12.63
872.569	-4.44
872.742	1.71
872.915	32.43
873.088	-26.96
873.261	-16.73
873.434	26.28
873.607	9.9
873.78	77.48
873.953	63.15
874.126	63.15
874.299	36.52
874.471	-22.87
874.644	34.47
874.817	38.57
874.99	-26.96
875.163	30.38
875.335	24.23
875.508	40.62
875.681	-12.63
875.853	30.38
876.026	-37.2
876.199	-18.77
876.371	5.8
876.544	-41.3
876.717	-14.68
876.889	-18.77
877.062	16.04
877.234	52.91
877.407	26.28
877.579	36.52
877.752	30.38
877.924	77.48
878.097	26.28
878.269	46.76
878.442	57
878.614	59.05
878.786	7.85
878.959	67.24
879.131	16.04
879.303	5.8
879.476	-22.87
879.648	20.14
879.82	-115.03
879.993	-2.39
880.165	11.95
880.337	24.23
880.509	50.86
880.681	9.9
880.854	7.85
881.026	77.48
881.198	1.71
881.37	-0.34
881.542	22.19
881.714	3.75
881.886	52.91
882.058	18.09
882.23	1.71
882.402	73.39
882.574	100.01
882.746	40.62
882.918	110.25
883.09	102.06
883.262	9.9
883.434	5.8
883.606	-22.87
883.778	-29.01
883.95	79.53
884.122	54.95
884.293	79.53
884.465	48.81
884.637	50.86
884.809	-18.77
884.98	57
885.152	32.43
885.324	67.24
885.496	-31.06
885.667	38.57
885.839	22.19
886.011	63.15
886.182	5.8
886.354	75.43
886.525	36.52
886.697	18.09
886.869	-33.11
887.04	38.57
887.212	32.43
887.383	71.34
887.555	26.28
887.726	-53.59
887.897	-41.3
888.069	9.9
888.24	20.14
888.412	48.81
888.583	-10.58
888.754	52.91
888.926	-24.92
889.097	71.34
889.268	-84.31
889.44	26.28
889.611	-123.22
889.782	-65.88
889.953	40.62
890.125	7.85
890.296	-22.87
890.467	13.99
890.638	40.62
890.809	91.82
890.98	-10.58
891.151	42.67
891.323	26.28
891.494	52.91
891.665	5.8
891.836	5.8
892.007	34.47
892.178	40.62
892.349	-20.82
892.52	-6.49
892.691	18.09
892.862	38.57
893.032	-47.44
893.203	26.28
893.374	40.62
893.545	1.71
893.716	50.86
893.887	-29.01
894.057	40.62
894.228	48.81
894.399	-33.11
894.57	22.19
894.74	-39.25
894.911	5.8
895.082	-41.3
895.253	-45.4
895.423	42.67
895.594	42.67
895.764	9.9
895.935	-29.01
896.106	36.52
896.276	54.95
896.447	-37.2
896.617	-18.77
896.788	-67.92
896.958	75.43
897.129	-16.73
897.299	3.75
897.47	30.38
897.64	22.19
897.81	-8.53
897.981	16.04
898.151	-0.34
898.322	57
898.492	-4.44
898.662	40.62
898.832	-55.64
899.003	5.8
899.173	32.43
899.343	-2.39
899.513	-29.01
