Data from USB4F104151__165__10-27-16-281.txt Node

Date: Wed Mar 12 10:27:16 EDT 2025
User: louis
Spectrometer: USB4F10415
Trigger mode: 4
Integration Time (sec): 3.000000E-2
Scans to average: 1
Electric dark correction enabled: true
Nonlinearity correction enabled: false
Boxcar width: 0
XAxis mode: Wavelengths
Number of Pixels in Spectrum: 3648
>>>>>Begin Spectral Data<<<<<
178.204	-140.97
178.424	-140.97
178.644	-140.97
178.864	-128.68
179.084	-126.63
179.304	43.35
179.524	4.44
179.744	14.68
179.964	10.58
180.184	-42.67
180.404	20.82
180.624	-24.23
180.844	2.39
181.064	-79.53
181.283	8.53
181.503	-22.19
181.723	63.83
181.943	-54.95
182.163	78.16
182.383	65.88
182.602	-26.28
182.822	-102.06
183.042	39.25
183.262	61.78
183.482	29.01
183.701	12.63
183.921	-67.24
184.141	-54.95
184.361	129.36
184.58	16.73
184.8	67.92
185.02	26.96
185.239	55.64
185.459	37.2
185.679	-11.95
185.898	-28.33
186.118	112.98
186.338	39.25
186.557	88.4
186.777	6.49
186.997	-30.38
187.216	-46.76
187.436	35.16
187.655	82.26
187.875	0.34
188.095	24.92
188.314	14.68
188.534	-18.09
188.753	20.82
188.973	-3.75
189.192	22.87
189.412	-1.71
189.631	29.01
189.851	4.44
190.07	117.08
190.29	16.73
190.509	-9.9
190.729	-9.9
190.948	-18.09
191.168	94.55
191.387	47.44
191.607	-5.8
191.826	67.92
192.045	31.06
192.265	-20.14
192.484	-11.95
192.704	-38.57
192.923	-52.91
193.142	6.49
193.362	-1.71
193.581	-7.85
193.8	22.87
194.02	0.34
194.239	2.39
194.458	39.25
194.678	0.34
194.897	-24.23
195.116	-57
195.335	-22.19
195.555	-30.38
195.774	-32.43
195.993	-1.71
196.212	6.49
196.432	-5.8
196.651	-11.95
196.87	14.68
197.089	26.96
197.308	39.25
197.528	-67.24
197.747	-5.8
197.966	29.01
198.185	55.64
198.404	24.92
198.623	6.49
198.842	-9.9
199.062	69.97
199.281	43.35
199.5	20.82
199.719	-3.75
199.938	53.59
200.157	16.73
200.376	12.63
200.595	-20.14
200.814	43.35
201.033	41.3
201.252	37.2
201.471	-34.47
201.69	4.44
201.909	24.92
202.128	80.21
202.347	29.01
202.566	4.44
202.785	-73.39
203.004	-3.75
203.223	78.16
203.442	10.58
203.661	-16.04
203.879	22.87
204.098	29.01
204.317	-20.14
204.536	51.54
204.755	-40.62
204.974	18.77
205.193	35.16
205.411	35.16
205.63	-7.85
205.849	10.58
206.068	-9.9
206.287	22.87
206.505	45.4
206.724	6.49
206.943	-7.85
207.162	-5.8
207.381	6.49
207.599	-18.09
207.818	14.68
208.037	22.87
208.255	-54.95
208.474	33.11
208.693	-18.09
208.911	-20.14
209.13	4.44
209.349	-32.43
209.567	-32.43
209.786	67.92
210.005	-20.14
210.223	16.73
210.442	4.44
210.661	72.02
210.879	-13.99
211.098	43.35
211.316	43.35
211.535	57.68
211.753	14.68
211.972	51.54
212.191	69.97
212.409	18.77
212.628	-11.95
212.846	37.2
213.065	-26.28
213.283	67.92
213.502	14.68
213.72	2.39
213.938	18.77
214.157	-3.75
214.375	16.73
214.594	-54.95
214.812	-5.8
215.031	18.77
215.249	2.39
215.467	43.35
215.686	24.92
215.904	55.64
216.122	29.01
216.341	18.77
216.559	-24.23
216.778	53.59
216.996	2.39
217.214	-22.19
217.432	22.87
217.651	-3.75
217.869	10.58
218.087	10.58
218.306	78.16
218.524	63.83
218.742	-30.38
218.96	45.4
219.179	-50.86
219.397	-34.47
219.615	53.59
219.833	-7.85
220.051	24.92
220.27	-7.85
220.488	29.01
220.706	-40.62
220.924	29.01
221.142	-20.14
221.36	110.93
221.578	-7.85
221.796	16.73
222.015	31.06
222.233	-18.09
222.451	49.49
222.669	-30.38
222.887	57.68
223.105	18.77
223.323	10.58
223.541	-44.71
223.759	-59.05
223.977	-7.85
224.195	80.21
224.413	119.12
224.631	-18.09
224.849	-9.9
225.067	63.83
225.285	72.02
225.503	39.25
225.721	-52.91
225.939	12.63
226.157	6.49
226.375	41.3
226.592	-57
226.81	-13.99
227.028	49.49
227.246	86.36
227.464	96.6
227.682	39.25
227.9	-59.05
228.117	12.63
228.335	20.82
228.553	2.39
228.771	4.44
228.989	6.49
229.206	6.49
229.424	53.59
229.642	-52.91
229.86	43.35
230.077	74.07
230.295	31.06
230.513	0.34
230.731	37.2
230.948	63.83
231.166	59.73
231.384	-18.09
231.601	-59.05
231.819	102.74
232.037	-22.19
232.254	4.44
232.472	37.2
232.689	47.44
232.907	43.35
233.125	29.01
233.342	10.58
233.56	-13.99
233.777	63.83
233.995	14.68
234.213	88.4
234.43	20.82
234.648	41.3
234.865	-16.04
235.083	18.77
235.3	37.2
235.518	35.16
235.735	49.49
235.953	22.87
236.17	35.16
236.388	4.44
236.605	20.82
236.822	-22.19
237.04	59.73
237.257	16.73
237.475	14.68
237.692	26.96
237.909	33.11
238.127	-36.52
238.344	55.64
238.562	53.59
238.779	31.06
238.996	39.25
239.214	-1.71
239.431	47.44
239.648	-57
239.865	37.2
240.083	16.73
240.3	45.4
240.517	-30.38
240.735	55.64
240.952	94.55
241.169	59.73
241.386	49.49
241.603	20.82
241.821	-7.85
242.038	57.68
242.255	-20.14
242.472	24.92
242.689	39.25
242.907	35.16
243.124	47.44
243.341	51.54
243.558	53.59
243.775	14.68
243.992	10.58
244.209	76.12
244.426	26.96
244.643	12.63
244.86	43.35
245.078	43.35
245.295	12.63
245.512	8.53
245.729	-79.53
245.946	4.44
246.163	-38.57
246.38	2.39
246.597	6.49
246.814	-9.9
247.031	-67.24
247.248	4.44
247.464	31.06
247.681	31.06
247.898	33.11
248.115	-11.95
248.332	8.53
248.549	-18.09
248.766	88.4
248.983	2.39
249.2	-11.95
249.417	22.87
249.633	-32.43
249.85	-11.95
250.067	-5.8
250.284	53.59
250.501	18.77
250.717	-38.57
250.934	-54.95
251.151	41.3
251.368	-18.09
251.585	26.96
251.801	16.73
252.018	2.39
252.235	-24.23
252.451	-30.38
252.668	-1.71
252.885	49.49
253.102	-38.57
253.318	-3.75
253.535	14.68
253.752	-9.9
253.968	14.68
254.185	-1.71
254.401	-79.53
254.618	10.58
254.835	-16.04
255.051	61.78
255.268	35.16
255.484	-18.09
255.701	-30.38
255.917	33.11
256.134	35.16
256.351	-54.95
256.567	4.44
256.784	-7.85
257	-7.85
257.217	18.77
257.433	6.49
257.65	61.78
257.866	-7.85
258.082	-1.71
258.299	2.39
258.515	12.63
258.732	6.49
258.948	8.53
259.165	8.53
259.381	6.49
259.597	4.44
259.814	33.11
260.03	72.02
260.246	47.44
260.463	10.58
260.679	43.35
260.895	8.53
261.112	55.64
261.328	-9.9
261.544	47.44
261.761	59.73
261.977	29.01
262.193	-18.09
262.409	31.06
262.626	26.96
262.842	0.34
263.058	-67.24
263.274	47.44
263.49	18.77
263.707	39.25
263.923	22.87
264.139	45.4
264.355	59.73
264.571	55.64
264.787	14.68
265.004	-5.8
265.22	-28.33
265.436	65.88
265.652	31.06
265.868	55.64
266.084	8.53
266.3	-9.9
266.516	35.16
266.732	39.25
266.948	76.12
267.164	-20.14
267.38	78.16
267.596	20.82
267.812	37.2
268.028	4.44
268.244	43.35
268.46	29.01
268.676	-54.95
268.892	-28.33
269.108	43.35
269.324	43.35
269.54	-59.05
269.756	80.21
269.972	-46.76
270.188	-100.01
270.403	6.49
270.619	4.44
270.835	31.06
271.051	10.58
271.267	-18.09
271.483	12.63
271.698	49.49
271.914	-1.71
272.13	55.64
272.346	-42.67
272.562	35.16
272.777	-18.09
272.993	41.3
273.209	45.4
273.425	-7.85
273.64	-20.14
273.856	-28.33
274.072	-3.75
274.287	-54.95
274.503	-5.8
274.719	6.49
274.934	-11.95
275.15	41.3
275.366	-34.47
275.581	22.87
275.797	0.34
276.012	14.68
276.228	35.16
276.444	33.11
276.659	76.12
276.875	-20.14
277.09	80.21
277.306	-24.23
277.521	45.4
277.737	0.34
277.952	22.87
278.168	43.35
278.383	80.21
278.599	47.44
278.814	94.55
279.03	-18.09
279.245	31.06
279.461	53.59
279.676	78.16
279.892	-9.9
280.107	2.39
280.322	-26.28
280.538	96.6
280.753	-32.43
280.969	125.27
281.184	4.44
281.399	61.78
281.615	12.63
281.83	-13.99
282.045	-13.99
282.26	-16.04
282.476	-5.8
282.691	41.3
282.906	-11.95
283.122	-11.95
283.337	69.97
283.552	22.87
283.767	14.68
283.983	-20.14
284.198	63.83
284.413	76.12
284.628	0.34
284.843	12.63
285.058	-20.14
285.274	108.88
285.489	-65.19
285.704	2.39
285.919	-61.1
286.134	-1.71
286.349	74.07
286.564	-20.14
286.779	10.58
286.995	10.58
287.21	45.4
287.425	2.39
287.64	59.73
287.855	31.06
288.07	-71.34
288.285	55.64
288.5	-18.09
288.715	-5.8
288.93	-34.47
289.145	29.01
289.36	92.5
289.575	26.96
289.79	-54.95
290.004	33.11
290.219	-44.71
290.434	2.39
290.649	0.34
290.864	-26.28
291.079	4.44
291.294	61.78
291.509	14.68
291.724	-9.9
291.938	49.49
292.153	26.96
292.368	2.39
292.583	-5.8
292.798	2.39
293.012	-20.14
293.227	4.44
293.442	-67.24
293.657	-9.9
293.871	55.64
294.086	67.92
294.301	24.92
294.516	39.25
294.73	72.02
294.945	-44.71
295.16	-26.28
295.374	63.83
295.589	45.4
295.804	-22.19
296.018	112.98
296.233	-9.9
296.447	14.68
296.662	16.73
296.877	20.82
297.091	-52.91
297.306	-5.8
297.52	-46.76
297.735	2.39
297.949	143.7
298.164	8.53
298.378	-54.95
298.593	0.34
298.807	4.44
299.022	72.02
299.236	43.35
299.451	18.77
299.665	-63.15
299.88	55.64
300.094	63.83
300.309	41.3
300.523	65.88
300.737	31.06
300.952	45.4
301.166	-13.99
301.381	20.82
301.595	53.59
301.809	-42.67
302.024	26.96
302.238	-46.76
302.452	29.01
302.667	-13.99
302.881	96.6
303.095	-7.85
303.309	69.97
303.524	-30.38
303.738	-26.28
303.952	2.39
304.166	35.16
304.381	-24.23
304.595	112.98
304.809	-36.52
305.023	82.26
305.237	14.68
305.452	39.25
305.666	45.4
305.88	31.06
306.094	10.58
306.308	-5.8
306.522	18.77
306.736	67.92
306.95	-5.8
307.164	-54.95
307.379	20.82
307.593	51.54
307.807	80.21
308.021	-1.71
308.235	24.92
308.449	-9.9
308.663	10.58
308.877	10.58
309.091	-63.15
309.305	35.16
309.519	18.77
309.733	-13.99
309.947	10.58
310.161	72.02
310.374	53.59
310.588	-5.8
310.802	-36.52
311.016	72.02
311.23	31.06
311.444	26.96
311.658	39.25
311.872	31.06
312.085	98.64
312.299	10.58
312.513	4.44
312.727	-3.75
312.941	-28.33
313.154	10.58
313.368	14.68
313.582	72.02
313.796	-22.19
314.009	10.58
314.223	-11.95
314.437	137.56
314.651	-22.19
314.864	-11.95
315.078	45.4
315.292	2.39
315.505	-36.52
315.719	-22.19
315.933	41.3
316.146	-7.85
316.36	20.82
316.573	4.44
316.787	-1.71
317.001	53.59
317.214	-46.76
317.428	39.25
317.641	4.44
317.855	2.39
318.068	22.87
318.282	-1.71
318.495	104.79
318.709	-11.95
318.922	31.06
319.136	14.68
319.349	4.44
319.563	76.12
319.776	45.4
319.99	37.2
320.203	35.16
320.417	43.35
320.63	24.92
320.843	55.64
321.057	-36.52
321.27	20.82
321.483	12.63
321.697	14.68
321.91	53.59
322.124	37.2
322.337	63.83
322.55	20.82
322.763	104.79
322.977	90.45
323.19	47.44
323.403	-9.9
323.617	22.87
323.83	80.21
324.043	10.58
324.256	-22.19
324.469	-9.9
324.683	59.73
324.896	-20.14
325.109	45.4
325.322	-57
325.535	63.83
325.748	12.63
325.962	14.68
326.175	14.68
326.388	43.35
326.601	33.11
326.814	-34.47
327.027	14.68
327.24	26.96
327.453	45.4
327.666	33.11
327.879	39.25
328.092	26.96
328.305	29.01
328.518	18.77
328.731	-9.9
328.944	2.39
329.157	26.96
329.37	35.16
329.583	82.26
329.796	10.58
330.009	-46.76
330.222	39.25
330.435	26.96
330.648	92.5
330.861	63.83
331.073	26.96
331.286	45.4
331.499	63.83
331.712	-44.71
331.925	22.87
332.138	14.68
332.35	86.36
332.563	-3.75
332.776	65.88
332.989	-54.95
333.202	31.06
333.414	2.39
333.627	20.82
333.84	35.16
334.053	29.01
334.265	76.12
334.478	29.01
334.691	-13.99
334.903	47.44
335.116	-28.33
335.329	2.39
335.541	29.01
335.754	24.92
335.966	-20.14
336.179	12.63
336.392	63.83
336.604	57.68
336.817	69.97
337.029	18.77
337.242	-28.33
337.454	59.73
337.667	61.78
337.88	-9.9
338.092	-5.8
338.305	31.06
338.517	-34.47
338.729	100.69
338.942	4.44
339.154	39.25
339.367	-1.71
339.579	18.77
339.792	-26.28
340.004	33.11
340.217	-54.95
340.429	26.96
340.641	-9.9
340.854	4.44
341.066	-9.9
341.278	88.4
341.491	55.64
341.703	41.3
341.915	-87.72
342.128	2.39
342.34	31.06
342.552	-59.05
342.764	2.39
342.977	-1.71
343.189	35.16
343.401	22.87
343.613	-32.43
343.826	-18.09
344.038	-34.47
344.25	16.73
344.462	-52.91
344.674	14.68
344.886	121.17
345.099	-32.43
345.311	2.39
345.523	72.02
345.735	-3.75
345.947	26.96
346.159	-3.75
346.371	4.44
346.583	-9.9
346.795	182.61
347.007	65.88
347.219	117.08
347.431	-40.62
347.643	65.88
347.855	12.63
348.067	110.93
348.279	24.92
348.491	43.35
348.703	0.34
348.915	-9.9
349.127	20.82
349.339	14.68
349.551	-48.81
349.763	-28.33
349.975	57.68
350.187	35.16
350.399	-9.9
350.61	-40.62
350.822	-30.38
351.034	53.59
351.246	78.16
351.458	63.83
351.669	29.01
351.881	106.84
352.093	45.4
352.305	67.92
352.517	43.35
352.728	69.97
352.94	8.53
353.152	37.2
353.363	10.58
353.575	16.73
353.787	72.02
353.999	4.44
354.21	49.49
354.422	2.39
354.633	10.58
354.845	67.92
355.057	24.92
355.268	12.63
355.48	121.17
355.692	72.02
355.903	37.2
356.115	8.53
356.326	-22.19
356.538	129.36
356.749	22.87
356.961	63.83
357.172	12.63
357.384	53.59
357.595	143.7
357.807	43.35
358.018	37.2
358.23	80.21
358.441	49.49
358.653	80.21
358.864	-20.14
359.075	-26.28
359.287	33.11
359.498	117.08
359.709	47.44
359.921	41.3
360.132	41.3
360.344	39.25
360.555	16.73
360.766	20.82
360.977	14.68
361.189	18.77
361.4	31.06
361.611	14.68
361.823	49.49
362.034	14.68
362.245	33.11
362.456	12.63
362.667	-11.95
362.879	37.2
363.09	78.16
363.301	63.83
363.512	-52.91
363.723	-34.47
363.935	67.92
364.146	78.16
364.357	31.06
364.568	110.93
364.779	-34.47
364.99	106.84
365.201	80.21
365.412	65.88
365.623	67.92
365.834	22.87
366.045	26.96
366.256	39.25
366.467	61.78
366.678	-5.8
366.889	53.59
367.1	59.73
367.311	129.36
367.522	43.35
367.733	92.5
367.944	84.31
368.155	80.21
368.366	-3.75
368.577	-9.9
368.788	65.88
368.999	35.16
369.209	72.02
369.42	80.21
369.631	80.21
369.842	55.64
370.053	26.96
370.264	14.68
370.474	24.92
370.685	45.4
370.896	61.78
371.107	18.77
371.317	55.64
371.528	47.44
371.739	96.6
371.95	22.87
372.16	51.54
372.371	39.25
372.582	80.21
372.792	35.16
373.003	-22.19
373.214	-1.71
373.424	43.35
373.635	-11.95
373.846	82.26
374.056	86.36
374.267	117.08
374.477	10.58
374.688	88.4
374.898	67.92
375.109	39.25
375.319	61.78
375.53	47.44
375.74	72.02
375.951	39.25
376.161	14.68
376.372	96.6
376.582	45.4
376.793	22.87
377.003	37.2
377.214	16.73
377.424	-16.04
377.635	18.77
377.845	59.73
378.055	78.16
378.266	-18.09
378.476	69.97
378.686	59.73
378.897	-1.71
379.107	10.58
379.317	29.01
379.528	35.16
379.738	129.36
379.948	12.63
380.158	63.83
380.369	26.96
380.579	12.63
380.789	16.73
380.999	67.92
381.21	49.49
381.42	123.22
381.63	12.63
381.84	26.96
382.05	6.49
382.261	-24.23
382.471	72.02
382.681	55.64
382.891	131.41
383.101	26.96
383.311	-30.38
383.521	14.68
383.731	55.64
383.941	96.6
384.151	45.4
384.361	22.87
384.571	53.59
384.781	41.3
384.991	69.97
385.201	160.08
385.411	49.49
385.621	123.22
385.831	-38.57
386.041	26.96
386.251	-32.43
386.461	24.92
386.671	59.73
386.881	41.3
387.091	-20.14
387.301	14.68
387.511	14.68
387.72	-11.95
387.93	26.96
388.14	37.2
388.35	26.96
388.56	78.16
388.769	80.21
388.979	55.64
389.189	20.82
389.399	22.87
389.609	-11.95
389.818	72.02
390.028	92.5
390.238	20.82
390.447	59.73
390.657	26.96
390.867	47.44
391.076	4.44
391.286	51.54
391.496	98.64
391.705	76.12
391.915	72.02
392.125	16.73
392.334	-65.19
392.544	80.21
392.753	12.63
392.963	96.6
393.172	78.16
393.382	26.96
393.591	88.4
393.801	63.83
394.01	86.36
394.22	76.12
394.429	45.4
394.639	84.31
394.848	96.6
395.058	86.36
395.267	59.73
395.477	65.88
395.686	121.17
395.895	135.51
396.105	96.6
396.314	76.12
396.524	65.88
396.733	47.44
396.942	45.4
397.152	39.25
397.361	2.39
397.57	-11.95
397.78	39.25
397.989	63.83
398.198	145.75
398.407	80.21
398.617	65.88
398.826	69.97
399.035	94.55
399.244	96.6
399.453	129.36
399.663	121.17
399.872	115.03
400.081	59.73
400.29	117.08
400.499	53.59
400.708	84.31
400.917	110.93
401.127	104.79
401.336	110.93
401.545	172.37
401.754	61.78
401.963	127.32
402.172	29.01
402.381	133.46
402.59	26.96
402.799	127.32
403.008	151.89
403.217	108.88
403.426	55.64
403.635	55.64
403.844	63.83
404.053	141.65
404.262	74.07
404.471	59.73
404.68	55.64
404.888	98.64
405.097	115.03
405.306	145.75
405.515	84.31
405.724	149.84
405.933	190.8
406.142	125.27
406.35	186.71
406.559	190.8
406.768	121.17
406.977	198.99
407.185	127.32
407.394	246.1
407.603	182.61
407.812	178.51
408.02	231.76
408.229	137.56
408.438	158.03
408.646	201.04
408.855	182.61
409.064	209.23
409.272	180.56
409.481	258.39
409.69	141.65
409.898	227.67
410.107	299.34
410.315	231.76
410.524	282.96
410.733	309.58
410.941	256.34
411.15	319.82
411.358	319.82
411.567	366.93
411.775	350.54
411.984	334.16
412.192	321.87
412.401	409.94
412.609	420.17
412.818	434.51
413.026	420.17
413.234	444.75
413.443	471.37
413.651	483.66
413.86	491.85
414.068	498
414.276	561.48
414.485	477.52
414.693	598.35
414.901	598.35
415.11	713.03
415.318	616.78
415.526	680.27
415.734	678.22
415.943	635.21
416.151	680.27
416.359	710.99
416.567	676.17
416.776	717.13
416.984	858.44
417.192	842.06
417.4	821.58
417.608	842.06
417.817	936.26
418.025	966.98
418.233	1061.19
418.441	966.98
418.649	923.98
418.857	1071.43
419.065	1110.34
419.273	1114.44
419.481	1192.26
419.689	1218.88
419.897	1321.28
420.105	1235.27
420.313	1319.23
420.521	1478.97
420.729	1497.41
420.937	1468.73
421.145	1470.78
421.353	1587.52
421.561	1702.2
421.769	1632.57
421.977	1667.39
422.185	1784.12
422.393	1913.14
422.601	1954.1
422.809	1919.29
423.017	1896.76
423.224	2107.7
423.432	2136.37
423.64	2150.71
423.848	2371.89
424.056	2341.17
424.263	2511.15
424.471	2398.51
424.679	2509.1
424.887	2595.12
425.094	2695.47
425.302	2722.09
425.51	2748.72
425.718	2890.03
425.925	3049.77
426.133	3041.57
426.341	3219.75
426.548	3445.02
426.756	3406.11
426.964	3352.87
427.171	3621.15
427.379	3725.6
427.586	3750.17
427.794	3873.05
428.001	3891.48
428.209	4167.96
428.417	4167.96
428.624	4479.25
428.832	4460.82
429.039	4434.19
429.247	4284.69
429.454	4729.1
429.662	5146.89
429.869	4655.37
430.076	5234.95
430.284	4970.76
430.491	5216.52
430.699	5597.44
430.906	5560.58
431.114	5611.78
431.321	5863.68
431.528	5839.1
431.736	6373.62
431.943	6553.84
432.15	6473.97
432.358	6516.98
432.565	6813.93
432.772	6738.16
432.979	7215.34
433.187	7350.5
433.394	7244.01
433.601	7721.18
433.808	7846.11
434.016	7796.96
434.223	8132.83
434.43	8601.81
434.637	8296.66
434.844	8829.13
435.052	9187.53
435.259	9099.47
435.466	8978.64
435.673	8827.09
435.88	9685.19
436.087	10229.95
436.294	10176.7
436.501	9943.23
436.708	10315.96
436.915	10512.56
437.122	11036.84
437.329	10993.84
437.537	11370.66
437.743	11632.8
437.95	11354.28
438.157	11925.66
438.364	12310.68
438.571	12175.52
438.778	12277.91
438.985	13727.88
439.192	12882.06
439.399	13344.91
439.606	13121.68
439.813	13885.57
440.02	14545.02
440.227	14395.51
440.433	14327.93
440.64	14839.92
440.847	14590.07
441.054	14887.03
441.261	16124
441.467	15781.99
441.674	15972.45
441.881	16437.34
442.088	16517.21
442.294	16549.98
442.501	16883.8
442.708	17322.06
442.914	17977.41
443.121	18823.22
443.328	17940.55
443.534	19789.86
443.741	18839.61
443.948	18708.54
444.154	20113.44
444.361	19695.66
444.568	19503.15
444.774	19693.61
444.981	19920.93
445.187	20650.01
445.394	21954.57
445.6	21295.12
445.807	23687.15
446.013	22595.58
446.22	22951.93
446.426	23832.55
446.633	23973.86
446.839	24674.27
447.046	23572.46
447.252	24858.59
447.459	25124.82
447.665	24795.1
447.871	26036.17
448.078	27099.06
448.284	25808.84
448.491	26554.3
448.697	27516.85
448.903	28223.4
449.11	27836.33
449.316	27221.94
449.522	27942.83
449.728	28596.13
449.935	28970.91
450.141	29185.94
450.347	29243.29
450.553	28526.5
450.76	28510.11
450.966	29370.26
451.172	29274.01
451.378	30150.54
451.584	29429.65
451.791	30336.9
451.997	29704.08
452.203	30637.95
452.409	30199.69
452.615	30535.56
452.821	28874.65
453.027	28872.6
453.233	30181.26
453.44	29200.28
453.646	29384.6
453.852	29519.76
454.058	29890.45
454.264	28798.88
454.47	29472.66
454.676	28676
454.882	29560.72
455.088	26947.51
455.294	27592.62
455.5	27799.47
455.705	28086.18
455.911	27424.69
456.117	26765.24
456.323	26261.44
456.529	24506.34
456.735	25538.51
456.941	24940.5
457.147	24385.51
457.352	24055.78
457.558	23742.44
457.764	23678.96
457.97	23117.81
458.176	22855.67
458.381	22857.72
458.587	21583.88
458.793	21510.16
458.999	20262.94
459.204	21725.19
459.41	21329.94
459.616	19943.46
459.821	20162.59
460.027	20152.35
460.233	19353.65
460.438	18595.9
460.644	18726.97
460.85	18088
461.055	17688.65
461.261	17518.67
461.466	16457.82
461.672	15763.56
461.878	17016.91
462.083	15843.43
462.289	15558.76
462.494	15437.93
462.7	14647.41
462.905	14442.62
463.111	14819.44
463.316	14909.55
463.522	14289.02
463.727	14702.71
463.932	14342.27
464.138	14383.23
464.343	14362.75
464.549	14143.61
464.754	14305.4
464.959	14489.72
465.165	14358.65
465.37	13750.4
465.575	13176.97
465.781	13717.64
465.986	14006.4
466.191	13490.31
466.397	13080.72
466.602	12679.32
466.807	13035.66
467.012	13088.91
467.218	13019.28
467.423	12863.63
467.628	12808.34
467.833	13504.65
468.038	12894.35
468.244	12341.4
468.449	13107.34
468.654	12707.99
468.859	12484.76
469.064	12361.88
469.269	11940
469.474	11774.11
469.679	12322.97
469.885	11790.5
470.09	12054.69
470.295	11856.03
470.5	11669.67
470.705	11743.39
470.91	11327.66
471.115	11194.54
471.32	11575.46
471.525	11434.15
471.73	11040.94
471.935	11057.32
472.139	10492.09
472.344	11081.9
472.549	10680.5
472.754	10750.13
472.959	10473.65
473.164	10211.51
473.369	10092.73
473.574	10361.02
473.778	10397.88
473.983	10082.49
474.188	10209.47
474.393	9851.07
474.598	9906.37
474.802	9656.51
475.007	9668.8
475.212	9855.17
475.417	9224.39
475.621	9445.57
475.826	9441.48
476.031	9191.63
476.235	9056.46
476.44	9074.89
476.645	9017.55
476.849	9169.1
477.054	9048.27
477.259	8782.03
477.463	8802.51
477.668	8452.31
477.872	8679.63
478.077	8739.02
478.282	8073.43
478.486	8110.3
478.691	8116.44
478.895	8165.59
479.1	8145.11
479.304	8122.59
479.509	7940.32
479.713	8040.67
479.918	8020.19
480.122	7788.77
480.326	7923.93
480.531	7852.25
480.735	7852.25
480.94	7760.09
481.144	7991.52
481.348	7643.36
481.553	7837.92
481.757	7602.4
481.961	7530.72
482.166	7674.08
482.37	7616.74
482.574	7334.12
482.778	7575.78
482.983	7645.41
483.187	7506.15
483.391	7731.42
483.595	7579.87
483.8	7270.63
484.004	7633.12
484.208	7545.06
484.412	7622.88
484.616	7741.66
484.821	7700.7
485.025	7508.19
485.229	7598.31
485.433	7553.25
485.637	7661.79
485.841	7553.25
486.045	7508.19
486.249	7723.23
486.453	7526.63
486.657	7479.52
486.861	7688.42
487.065	7389.41
487.269	7510.24
487.473	7491.81
487.677	7661.79
487.881	7682.27
488.085	7538.91
488.289	7651.55
488.493	7547.11
488.697	7510.24
488.901	7633.12
489.105	7485.67
489.309	7641.31
489.512	7469.28
489.716	7743.71
489.92	7633.12
490.124	7747.81
490.328	7809.25
490.531	7796.96
490.735	7823.58
490.939	7876.83
491.143	7727.33
491.346	7768.29
491.55	7946.46
491.754	7880.93
491.958	7930.08
492.161	7917.79
492.365	8079.58
492.569	7948.51
492.772	7977.18
492.976	7958.75
493.18	8081.63
493.383	8265.94
493.587	8276.18
493.79	8487.12
493.994	8192.22
494.197	8415.44
494.401	8452.31
494.605	8302.81
494.808	8345.81
495.012	8759.5
495.215	8542.42
495.419	8728.78
495.622	8691.92
495.825	8779.98
496.029	8786.13
496.232	9255.11
496.436	9140.43
496.639	9257.16
496.843	9117.9
497.046	9515.2
497.249	9451.72
497.453	9597.12
497.656	9513.16
497.859	9459.91
498.063	9771.2
498.266	9722.05
498.469	9916.61
498.673	10002.62
498.876	10231.99
499.079	10385.59
499.282	10213.56
499.485	10576.05
499.689	10649.78
499.892	10627.25
500.095	10664.11
500.298	11090.09
500.501	11028.65
500.705	11278.51
500.908	11428.01
501.111	11573.41
501.314	11712.67
501.517	11753.63
501.72	11733.15
501.923	11858.08
502.126	11925.66
502.329	12150.94
502.532	12114.08
502.735	12220.57
502.938	12531.86
503.141	12687.51
503.344	13142.16
503.547	13056.14
503.75	13150.35
503.953	13088.91
504.156	13521.03
504.359	13484.17
504.562	13820.03
504.765	13971.58
504.968	14086.27
505.17	14325.88
505.373	14362.75
505.576	14555.26
505.779	14626.93
505.982	14680.18
506.185	14964.85
506.387	15071.34
506.59	15009.9
506.793	15482.99
506.996	15337.58
507.198	16001.12
507.401	15853.67
507.604	16300.12
507.807	16283.74
508.009	16345.18
508.212	16517.21
508.415	16762.97
508.617	17242.19
508.82	16975.95
509.022	16916.56
509.225	17637.45
509.428	17459.27
509.63	17809.48
509.833	18106.43
510.035	18055.23
510.238	18333.76
510.44	18274.37
510.643	18714.68
510.845	18835.51
511.048	18751.54
511.25	19175.47
511.453	19259.44
511.655	19957.8
511.858	19783.72
512.06	19900.45
512.262	20176.93
512.465	20213.79
512.667	20369.44
512.87	20359.2
513.072	20674.59
513.274	21282.83
513.477	21219.35
513.679	21346.32
513.881	21465.1
514.084	22222.85
514.286	21819.4
514.488	22145.03
514.69	22837.24
514.893	22837.24
515.095	22650.88
515.297	23019.51
515.499	23230.45
515.701	23523.31
515.904	23930.86
516.106	23883.75
516.308	24049.64
516.51	24281.06
516.712	24647.65
516.914	24653.79
517.116	25049.05
517.318	25122.77
517.52	25602
517.722	25270.23
517.925	25638.86
518.127	26421.19
518.329	25905.1
518.531	26343.36
518.733	26650.56
518.935	27140.02
519.136	26886.08
519.338	27430.83
519.54	27527.09
519.742	28065.71
519.944	27905.96
520.146	28368.8
520.348	28575.65
520.55	28862.36
520.752	28506.02
520.954	29116.31
521.155	29237.14
521.357	29706.13
521.559	30060.43
521.761	30304.13
521.963	29915.02
522.164	30367.62
522.366	30357.38
522.568	30807.94
522.77	31088.51
522.971	31551.35
523.173	31092.6
523.375	31874.93
523.576	31510.39
523.778	31870.83
523.98	31995.76
524.181	32259.95
524.383	32628.58
524.584	33220.44
524.786	32804.7
524.988	32737.12
525.189	33255.26
525.391	33548.12
525.592	33580.88
525.794	34068.3
525.995	33824.59
526.197	33945.42
526.398	33836.88
526.6	34230.09
526.801	34490.18
527.003	34697.03
527.204	34750.28
527.406	35036.99
527.607	35063.61
527.808	35774.26
528.01	35047.23
528.211	35094.33
528.412	35884.85
528.614	35479.35
528.815	35723.06
529.016	36036.4
529.218	35700.53
529.419	36038.45
529.62	35784.5
529.822	35944.24
530.023	35997.49
530.224	36374.31
530.425	36482.86
530.626	35921.71
530.828	36032.3
531.029	36867.87
531.23	36273.96
531.431	36681.51
531.632	36710.18
531.833	36937.51
532.035	36747.04
532.236	36669.22
532.437	37265.18
532.638	37189.41
532.839	36984.61
533.04	37338.91
533.241	36591.4
533.442	37289.76
533.643	37203.74
533.844	37248.8
534.045	37343
534.246	36968.23
534.447	37183.26
534.648	37375.77
534.849	37295.9
535.05	37101.34
535.251	37166.88
535.451	37072.67
535.652	37490.46
535.853	37248.8
536.054	37531.42
536.255	37596.95
536.456	37019.42
536.657	37603.1
536.857	37285.66
537.058	37060.38
537.259	37619.48
537.46	37455.64
537.66	37453.59
537.861	37658.39
538.062	37379.87
538.263	37560.09
538.463	37551.9
538.664	37195.55
538.865	37453.59
539.065	37881.62
539.266	37226.27
539.466	37914.39
539.667	37007.14
539.868	37670.68
540.068	37562.14
540.269	37717.78
540.469	37680.92
540.67	37250.84
540.87	37492.51
541.071	37400.35
541.271	37322.52
541.472	37644.05
541.672	37369.63
541.873	37308.19
542.073	36818.72
542.274	37330.72
542.474	37558.04
542.675	37203.74
542.875	37166.88
543.075	37682.97
543.276	36806.44
543.476	37934.87
543.676	37267.23
543.877	37173.02
544.077	37287.71
544.277	37189.41
544.478	37039.9
544.678	37326.62
544.878	37334.81
545.078	37283.61
545.279	36986.66
545.479	36986.66
545.679	37463.83
545.879	37338.91
546.079	37461.79
546.28	36964.13
546.48	36964.13
546.68	37682.97
546.88	37162.78
547.08	37381.91
547.28	37310.24
547.48	36724.52
547.68	36939.55
547.88	37056.29
548.081	37091.1
548.281	37445.4
548.481	37138.21
548.681	37162.78
548.881	37046.05
549.081	37353.24
549.28	36917.03
549.48	37080.86
549.68	37005.09
549.88	37398.3
550.08	36722.47
550.28	36888.35
550.48	36865.83
550.68	37242.65
550.88	36747.04
551.08	36642.6
551.279	36990.75
551.479	36714.28
551.679	37035.81
551.879	36980.51
552.079	36796.2
552.278	36503.34
552.478	36904.74
552.678	37123.87
552.878	36908.83
553.077	36765.48
553.277	36595.49
553.477	36837.16
553.676	36407.08
553.876	37125.92
554.076	36341.55
554.275	36478.76
554.475	36108.08
554.674	36540.2
554.874	36591.4
555.074	36063.02
555.273	36687.65
555.473	36609.83
555.672	36114.22
555.872	36278.06
556.071	36392.75
556.271	36454.19
556.47	36394.79
556.67	35782.45
556.869	35729.2
557.068	36235.05
557.268	35977.01
557.467	35845.94
557.667	35925.81
557.866	35942.19
558.065	35868.47
558.265	35706.68
558.464	35405.63
558.663	36134.7
558.863	35395.39
559.062	35954.48
559.261	35249.98
559.461	36136.75
559.66	35053.37
559.859	35536.7
560.058	34955.07
560.258	35225.4
560.457	35088.19
560.656	35321.66
560.855	34854.72
561.054	35348.28
561.253	35137.34
561.453	35161.92
561.652	34998.08
561.851	35096.38
562.05	35094.33
562.249	34846.53
562.448	35424.06
562.647	34678.6
562.846	34406.22
563.045	34647.88
563.244	34152.27
563.443	34494.28
563.642	34021.2
563.841	34686.79
564.04	33926.99
564.239	34424.65
564.438	33953.62
564.637	34203.47
564.836	34309.96
565.035	33693.52
565.234	34318.15
565.432	33468.25
565.631	33474.39
565.83	33816.4
566.029	33357.66
566.228	33398.62
566.427	33320.79
566.625	33159
566.824	32890.72
567.023	33222.49
567.222	32388.97
567.42	33410.9
567.619	32567.14
567.818	32694.11
568.016	32448.36
568.215	32782.18
568.414	32739.17
568.612	32927.58
568.811	32446.31
569.01	32511.85
569.208	31844.21
569.407	32458.6
569.605	32126.83
569.804	32268.14
570.002	31678.32
570.201	31989.61
570.4	31764.34
570.598	31772.53
570.797	31489.91
570.995	31700.85
571.193	30945.15
571.392	31686.51
571.59	31104.89
571.789	31371.13
571.987	31184.76
572.186	31051.64
572.384	30965.63
572.582	31358.84
572.781	30697.34
572.979	30386.05
573.177	30877.57
573.376	30660.48
573.574	30822.27
573.772	30695.3
573.971	30349.19
574.169	30220.17
574.367	30273.42
574.565	30408.58
574.763	30207.88
574.962	30039.95
575.16	29650.83
575.358	29908.88
575.556	29609.87
575.754	29906.83
575.952	29527.95
576.151	29765.52
576.349	29292.44
576.547	29018.01
576.745	29187.99
576.943	29661.07
577.141	29187.99
577.339	29245.34
577.537	28723.1
577.735	28921.76
577.933	28878.75
578.131	28788.64
578.329	28753.82
578.527	28460.96
578.725	28807.07
578.923	28503.97
579.121	28303.27
579.319	27971.5
579.516	28303.27
579.714	28264.36
579.912	28143.53
580.11	28145.58
580.308	28080.04
580.506	28200.87
580.704	27434.93
580.901	27856.81
581.099	27998.12
581.297	27799.47
581.495	27598.77
581.692	27948.97
581.89	27289.52
582.088	27539.38
582.285	27146.17
582.483	27307.96
582.681	27162.55
582.878	27107.26
583.076	27060.15
583.274	27183.03
583.471	26904.51
583.669	26671.04
583.866	26847.16
584.064	26769.34
584.262	26607.55
584.459	26714.05
584.657	26525.63
584.854	26750.91
585.052	25976.78
585.249	26380.23
585.447	26517.44
585.644	26292.16
585.841	25989.06
586.039	26228.68
586.236	25698.25
586.434	26064.84
586.631	25593.81
586.828	25585.61
587.026	25782.22
587.223	25640.91
587.42	25325.52
587.618	25288.66
587.815	25290.71
588.012	25386.96
588.21	25157.59
588.407	25440.21
588.604	24989.66
588.801	24999.9
588.999	25026.52
589.196	24756.19
589.393	24819.67
589.59	24846.3
589.787	24371.17
589.984	24418.27
590.182	23990.25
590.379	24444.9
590.576	24311.78
590.773	24180.71
590.97	24106.98
591.167	24365.03
591.364	23961.58
591.561	24352.74
591.758	24008.68
591.955	23666.67
592.152	24039.4
592.349	23613.42
592.546	23814.12
592.743	23717.87
592.94	23470.06
593.137	23629.8
593.334	23724.01
593.531	23201.78
593.727	23177.2
593.924	23375.86
594.121	22816.76
594.318	23615.47
594.515	22761.47
594.712	23267.31
594.908	22865.91
595.105	22935.54
595.302	22837.24
595.499	23007.22
595.696	22679.55
595.892	22454.27
596.089	22671.36
596.286	22718.46
596.482	22294.53
596.679	22446.08
596.876	22153.22
597.072	22335.49
597.269	22167.56
597.466	22032.39
597.662	21946.37
597.859	22124.55
598.055	22167.56
598.252	21903.37
598.448	21817.35
598.645	22048.77
598.841	21747.72
599.038	21559.31
599.234	21655.56
599.431	21387.28
599.627	21258.26
599.824	21295.12
600.02	21276.69
600.217	21262.35
600.413	21360.66
600.609	21157.91
600.806	21090.32
601.002	21030.93
601.198	20910.1
601.395	21051.41
601.591	20953.11
601.787	20746.26
601.984	20596.76
602.18	20809.75
602.376	20441.12
602.572	20600.86
602.769	20410.4
602.965	20256.8
603.161	20412.45
603.357	20312.1
603.553	20205.6
603.75	20434.97
603.946	19941.41
604.142	19978.28
604.338	19705.9
604.534	20015.14
604.73	19621.93
604.926	19841.06
605.122	19908.65
605.318	19429.42
605.514	19644.46
605.71	19435.56
605.906	19552.3
606.102	19507.24
606.298	19357.74
606.494	19423.28
606.69	19435.56
606.886	19556.39
607.082	19111.99
607.278	19222.58
607.474	18829.37
607.67	19247.15
607.866	18718.78
608.062	19288.11
608.257	18911.28
608.453	18976.82
608.649	19005.49
608.845	18841.65
609.041	18724.92
609.236	18905.14
609.432	18786.36
609.628	18559.03
609.824	18593.85
610.019	18487.36
610.215	18452.54
610.411	18839.61
610.606	18210.88
610.802	18524.22
610.998	18188.35
611.193	18382.91
611.389	18384.96
611.584	18147.39
611.78	18280.51
611.976	18298.94
612.171	18212.93
612.367	18323.52
612.562	18032.71
612.758	17778.76
612.953	18034.75
613.149	18094.15
613.344	17719.37
613.539	18272.32
613.735	17821.77
613.93	17711.18
614.126	17614.92
614.321	17827.91
614.517	17637.45
614.712	17698.89
614.907	17692.74
615.103	17752.13
615.298	17463.37
615.493	17801.29
615.688	17190.99
615.884	17684.55
616.079	17324.11
616.274	17479.75
616.47	17416.27
616.665	17373.26
616.86	17281.1
617.055	17176.66
617.25	17113.17
617.445	17272.91
617.641	16781.4
617.836	17123.41
618.031	16689.24
618.226	17164.37
618.421	16736.34
618.616	17041.49
618.811	16529.5
619.006	16957.52
619.201	16527.45
619.396	16543.83
619.591	16386.14
619.786	16584.79
619.981	16339.04
620.176	16429.15
620.371	16382.04
620.566	16312.41
620.761	16334.94
620.956	16410.71
621.151	16093.28
621.346	16134.24
621.541	15673.45
621.735	16040.03
621.93	15540.33
622.125	15691.88
622.32	15515.75
622.515	15726.69
622.709	15392.87
622.904	15571.05
623.099	15468.65
623.294	15509.61
623.488	15106.16
623.683	15413.35
623.878	14913.65
624.072	14962.8
624.267	14948.47
624.462	14678.13
624.656	14831.73
624.851	14641.27
625.046	14512.25
625.24	14649.46
625.435	14268.54
625.629	14252.16
625.824	14243.96
626.018	14272.64
626.213	13967.49
626.407	14207.1
626.602	13684.87
626.796	13813.89
626.991	14061.69
627.185	13924.48
627.38	13631.62
627.574	13572.23
627.768	13738.12
627.963	13480.07
628.157	13275.27
628.352	13334.67
628.546	12941.46
628.74	13412.49
628.935	12974.22
629.129	13246.6
629.323	13043.85
629.517	13019.28
629.712	12882.06
629.906	12767.38
630.1	12495
630.294	12703.89
630.489	12605.59
630.683	12863.63
630.877	12335.26
631.071	12454.04
631.265	12507.29
631.459	12454.04
631.653	12228.76
631.848	12114.08
632.042	11993.25
632.236	12169.37
632.43	12073.12
632.624	12040.35
632.818	11997.34
633.012	11655.33
633.206	11817.12
633.4	11827.36
633.594	11507.88
633.788	11819.17
633.982	11544.74
634.176	11641
634.369	11436.2
634.563	11229.35
634.757	11126.96
634.951	11116.72
635.145	11354.28
635.339	11174.06
635.533	11083.95
635.726	11157.68
635.92	10891.44
636.114	10901.68
636.308	10830
636.501	10756.27
636.695	10774.7
636.889	10655.92
637.083	10600.63
637.276	10451.13
637.47	10318.01
637.664	10397.88
637.857	10336.44
638.051	10266.81
638.244	10156.22
638.438	9998.52
638.632	10219.71
638.825	9904.32
639.019	10066.11
639.212	9963.71
639.406	10162.36
639.599	9982.14
639.793	9955.52
639.986	9785.54
640.18	9672.9
640.373	9595.07
640.567	9461.96
640.76	9644.23
640.954	9283.78
641.147	9396.42
641.34	9607.36
641.534	9418.95
641.727	9197.77
641.92	9281.74
642.114	9165
642.307	9390.28
642.5	9261.26
642.694	9119.95
642.887	8835.28
643.08	9179.34
643.273	8968.4
643.467	9007.31
643.66	8921.29
643.853	8653.01
644.046	8624.34
644.239	8777.94
644.432	8566.99
644.626	8646.87
644.819	8597.71
645.012	8446.16
645.205	8474.84
645.398	8470.74
645.591	8501.46
645.784	8214.74
645.977	8202.46
646.17	8212.7
646.363	8255.7
646.556	7925.98
646.749	8210.65
646.942	8087.77
647.135	8018.14
647.328	8050.91
647.521	7731.42
647.714	7821.53
647.907	7772.38
648.099	7620.83
648.292	7821.53
648.485	7770.33
648.678	7770.33
648.871	7663.84
649.064	7672.03
649.256	7643.36
649.449	7442.66
649.642	7461.09
649.835	7413.99
650.027	7418.08
650.22	7258.34
650.413	7252.2
650.605	7168.23
650.798	7352.55
650.991	7137.51
651.183	7168.23
651.376	6969.58
651.568	7119.08
651.761	7194.86
651.954	7047.4
652.146	7071.98
652.339	7020.78
652.531	6902
652.724	6646
652.916	6752.49
653.109	6803.69
653.301	6742.25
653.494	6834.41
653.686	6541.55
653.879	6697.2
654.071	6834.41
654.263	6670.58
654.456	6451.44
654.648	6625.52
654.84	6463.73
655.033	6566.13
655.225	6387.96
655.417	6387.96
655.61	6314.23
655.802	6361.33
655.994	6428.92
656.186	6314.23
656.379	6220.02
656.571	6107.38
656.763	6103.29
656.955	6197.49
657.148	6277.37
657.34	6181.11
657.532	6142.2
657.724	5990.65
657.916	5972.22
658.108	6011.13
658.3	6004.99
658.492	5818.62
658.684	5908.73
658.876	5841.15
659.068	5814.52
659.26	5464.32
659.452	5798.14
659.644	5718.27
659.836	5628.16
660.028	5652.74
660.22	5531.9
660.412	5634.3
660.604	5429.51
660.796	5566.72
660.988	5517.57
661.18	5386.5
661.372	5302.53
661.563	5552.38
661.755	5370.12
661.947	5304.58
662.139	5245.19
662.331	5282.05
662.522	5148.93
662.714	5237
662.906	5091.59
663.097	5222.66
663.289	4974.86
663.481	5060.87
663.673	5134.6
663.864	4985.1
664.056	4940.04
664.247	5034.25
664.439	4978.95
664.631	5132.55
664.822	4909.32
665.014	4989.19
665.205	4976.91
665.397	4884.75
665.588	4997.39
665.78	4825.36
665.971	4798.73
666.163	4772.11
666.354	4831.5
666.546	4686.09
666.737	4608.27
666.929	4651.28
667.12	4634.89
667.311	4702.48
667.503	4684.05
667.694	4491.54
667.885	4581.65
668.077	4618.51
668.268	4559.12
668.459	4577.55
668.651	4356.37
668.842	4438.29
669.033	4397.33
669.224	4536.59
669.416	4315.41
669.607	4516.11
669.798	4239.64
669.989	4501.78
670.18	4475.15
670.371	4516.11
670.563	4296.98
670.754	4393.23
670.945	4159.77
671.136	4165.91
671.327	4167.96
671.518	4227.35
671.709	4174.1
671.9	4366.61
672.091	4231.44
672.282	4116.76
672.473	4186.39
672.664	4096.28
672.855	4088.09
673.046	4137.24
673.237	4247.83
673.428	4096.28
673.619	3965.21
673.809	4057.37
674	4051.22
674.191	4008.22
674.382	4045.08
674.573	3983.64
674.764	3961.11
674.954	3946.78
675.145	3965.21
675.336	3885.34
675.527	3975.45
675.717	4010.26
675.908	3854.62
676.099	4022.55
676.289	3897.63
676.48	3840.28
676.671	3805.47
676.861	3936.54
677.052	3868.95
677.243	3891.48
677.433	3815.71
677.624	3801.37
677.814	3762.46
678.005	3928.35
678.195	3907.87
678.386	3871
678.576	3801.37
678.767	3748.12
678.957	3692.83
679.148	3864.86
679.338	3821.85
679.529	3795.23
679.719	3733.79
679.909	3690.78
680.1	3658.01
680.29	3610.91
680.481	3772.7
680.671	3774.75
680.861	3678.49
681.052	3723.55
681.242	3690.78
681.432	3735.84
681.622	3508.51
681.813	3610.91
682.003	3590.43
682.193	3553.57
682.383	3719.45
682.573	3690.78
682.764	3655.97
682.954	3658.01
683.144	3645.73
683.334	3608.86
683.524	3586.33
683.714	3647.77
683.904	3434.78
684.094	3602.72
684.284	3561.76
684.474	3643.68
684.664	3582.24
684.854	3490.08
685.044	3434.78
685.234	3547.42
685.424	3432.74
685.614	3563.81
685.804	3453.22
685.994	3518.75
686.184	3418.4
686.374	3369.25
686.564	3434.78
686.753	3455.26
686.943	3316
687.133	3381.54
687.323	3404.07
687.513	3395.87
687.702	3348.77
687.892	3391.78
688.082	3434.78
688.272	3356.96
688.461	3320.1
688.651	3361.06
688.841	3402.02
689.03	3252.52
689.22	3125.54
689.41	3324.19
689.599	3176.74
689.789	3186.98
689.979	3211.56
690.168	3227.94
690.358	3162.41
690.547	3152.17
690.737	3127.59
690.926	3131.69
691.116	3051.81
691.305	3176.74
691.495	3160.36
691.684	3053.86
691.874	3008.81
692.063	3000.62
692.252	3021.1
692.442	2957.61
692.631	3010.86
692.82	2996.52
693.01	2998.57
693.199	2953.51
693.388	2967.85
693.578	2924.84
693.767	2894.12
693.956	3014.95
694.146	2855.21
694.335	2937.13
694.524	2959.66
694.713	2885.93
694.902	2859.31
695.092	2861.35
695.281	2965.8
695.47	2840.87
695.659	2879.79
695.848	2728.24
696.037	2863.4
696.226	2930.98
696.415	2881.83
696.604	2822.44
696.793	2767.15
696.982	2783.53
697.171	2867.5
697.36	2812.2
697.549	2853.16
697.738	2804.01
697.927	2672.94
698.116	2830.63
698.305	2828.59
698.494	2844.97
698.683	2816.3
698.872	2867.5
699.061	2629.93
699.25	2898.22
699.438	2830.63
699.627	2750.76
699.816	2689.32
700.005	2709.8
700.193	2685.23
700.382	2718
700.571	2828.59
700.76	2767.15
700.948	2718
701.137	2648.36
701.326	2801.96
701.514	2715.95
701.703	2758.96
701.892	2742.57
702.08	2857.26
702.269	2724.14
702.457	2711.85
702.646	2771.24
702.834	2892.07
703.023	2783.53
703.212	2734.38
703.4	2791.72
703.589	2763.05
703.777	2674.99
703.965	2758.96
704.154	2773.29
704.342	2744.62
704.531	2617.65
704.719	2703.66
704.907	2629.93
705.096	2734.38
705.284	2644.27
705.472	2623.79
705.661	2619.69
705.849	2892.07
706.037	2804.01
706.226	2750.76
706.414	2679.08
706.602	2836.78
706.79	2720.04
706.979	2756.91
707.167	2709.8
707.355	2705.71
707.543	2644.27
707.731	2736.43
707.919	2578.73
708.107	2658.6
708.296	2705.71
708.484	2609.45
708.672	2617.65
708.86	2629.93
709.048	2619.69
709.236	2613.55
709.424	2636.08
709.612	2699.56
709.8	2529.58
709.988	2666.8
710.176	2709.8
710.364	2736.43
710.551	2726.19
710.739	2814.25
710.927	2638.13
711.115	2736.43
711.303	2746.67
711.491	2691.37
711.679	2535.73
711.866	2738.48
712.054	2808.11
712.242	2670.89
712.43	2699.56
712.617	2740.52
712.805	2636.08
712.993	2705.71
713.181	2586.93
713.368	2726.19
713.556	2613.55
713.744	2578.73
713.931	2734.38
714.119	2634.03
714.306	2687.28
714.494	2746.67
714.682	2720.04
714.869	2713.9
715.057	2709.8
715.244	2672.94
715.432	2799.91
715.619	2666.8
715.807	2705.71
715.994	2685.23
716.182	2619.69
716.369	2681.13
716.556	2634.03
716.744	2623.79
716.931	2660.65
717.119	2853.16
717.306	2746.67
717.493	2681.13
717.681	2640.17
717.868	2623.79
718.055	2656.56
718.242	2724.14
718.43	2724.14
718.617	2867.5
718.804	2613.55
718.991	2736.43
719.179	2783.53
719.366	2615.6
719.553	2693.42
719.74	2732.33
719.927	2732.33
720.114	2724.14
720.301	2730.28
720.488	2576.69
720.676	2615.6
720.863	2615.6
721.05	2601.26
721.237	2656.56
721.424	2734.38
721.611	2779.43
721.798	2603.31
721.985	2627.89
722.172	2775.34
722.358	2634.03
722.545	2650.41
722.732	2691.37
722.919	2593.07
723.106	2631.98
723.293	2638.13
723.48	2756.91
723.667	2545.97
723.853	2609.45
724.04	2697.52
724.227	2681.13
724.414	2761
724.6	2631.98
724.787	2576.69
724.974	2793.77
725.161	2664.75
725.347	2525.49
725.534	2638.13
725.72	2705.71
725.907	2644.27
726.094	2623.79
726.28	2588.97
726.467	2560.3
726.653	2509.1
726.84	2652.46
727.027	2705.71
727.213	2570.54
727.4	2558.25
727.586	2677.04
727.773	2566.45
727.959	2541.87
728.145	2609.45
728.332	2509.1
728.518	2609.45
728.705	2660.65
728.891	2580.78
729.077	2754.86
729.264	2701.61
729.45	2537.77
729.636	2660.65
729.823	2560.3
730.009	2591.02
730.195	2517.29
730.382	2658.6
730.568	2560.3
730.754	2502.96
730.94	2548.01
731.126	2535.73
731.313	2597.17
731.499	2519.34
731.685	2554.16
731.871	2566.45
732.057	2617.65
732.243	2543.92
732.429	2595.12
732.615	2455.86
732.801	2480.43
732.987	2421.04
733.173	2502.96
733.359	2619.69
733.545	2478.38
733.731	2435.38
733.917	2574.64
734.103	2533.68
734.289	2464.05
734.475	2457.9
734.661	2511.15
734.847	2527.53
735.033	2414.9
735.219	2423.09
735.404	2400.56
735.59	2361.65
735.776	2429.23
735.962	2681.13
736.148	2507.06
736.333	2404.66
736.519	2429.23
736.705	2478.38
736.89	2441.52
737.076	2427.18
737.262	2363.7
737.447	2373.94
737.633	2511.15
737.819	2365.75
738.004	2431.28
738.19	2332.98
738.375	2402.61
738.561	2300.21
738.747	2427.18
738.932	2423.09
739.118	2380.08
739.303	2382.13
739.489	2406.7
739.674	2353.46
739.859	2349.36
740.045	2390.32
740.23	2339.12
740.416	2187.57
740.601	2476.34
740.786	2343.22
740.972	2220.34
741.157	2294.07
741.342	2314.55
741.528	2320.69
741.713	2306.35
741.898	2210.1
742.084	2154.8
742.269	2277.68
742.454	2173.24
742.639	2197.81
742.824	2246.96
743.01	2128.18
743.195	2330.93
743.38	2152.76
743.565	2126.13
743.75	2042.17
743.935	2136.37
744.12	2136.37
744.305	2005.3
744.49	2128.18
744.675	2070.84
744.86	2111.8
745.045	2109.75
745.23	2115.89
745.415	2099.51
745.6	2191.67
745.785	2025.78
745.97	2017.59
746.155	2074.93
746.34	2054.45
746.525	2076.98
746.71	1931.58
746.895	1925.43
747.079	1956.15
747.264	1947.96
747.449	1988.92
747.634	1929.53
747.819	1923.38
748.003	1913.14
748.188	2017.59
748.373	1964.34
748.557	1947.96
748.742	1814.84
748.927	1888.57
749.111	1753.4
749.296	1831.23
749.481	1884.47
749.665	1730.87
749.85	1757.5
750.034	1741.11
750.219	1704.25
750.404	1696.06
750.588	1718.59
750.773	1681.72
750.957	1710.4
751.141	1718.59
751.326	1626.43
751.51	1710.4
751.695	1722.68
751.879	1732.92
752.064	1671.48
752.248	1667.39
752.432	1634.62
752.617	1677.63
752.801	1571.13
752.985	1677.63
753.17	1589.57
753.354	1579.33
753.538	1534.27
753.722	1536.32
753.907	1489.21
754.091	1505.6
754.275	1550.65
754.459	1509.69
754.643	1544.51
754.828	1491.26
755.012	1433.92
755.196	1403.2
755.38	1388.86
755.564	1433.92
755.748	1325.38
755.932	1399.1
756.116	1427.78
756.3	1317.19
756.484	1407.3
756.668	1415.49
756.852	1308.99
757.036	1345.86
757.22	1306.95
757.404	1370.43
757.588	1272.13
757.772	1296.71
757.956	1325.38
758.14	1341.76
758.323	1382.72
758.507	1399.1
758.691	1247.55
758.875	1294.66
759.059	1237.31
759.242	1241.41
759.426	1167.68
759.61	1239.36
759.794	1116.48
759.977	1157.44
760.161	1194.31
760.345	1198.4
760.528	1235.27
760.712	1261.89
760.895	1098.05
761.079	1120.58
761.263	1085.76
761.446	1175.88
761.63	1153.35
761.813	1202.5
761.997	1196.36
762.18	1083.72
762.364	1194.31
762.547	1134.92
762.731	1134.92
762.914	1096
763.098	1186.12
763.281	1102.15
763.464	1167.68
763.648	1063.24
763.831	1096
764.015	997.7
764.198	1077.57
764.381	1020.23
764.564	1102.15
764.748	1065.29
764.931	1124.68
765.114	1063.24
765.297	1020.23
765.481	1005.89
765.664	1001.8
765.847	950.6
766.03	960.84
766.213	977.22
766.397	1018.18
766.58	985.41
766.763	1050.95
766.946	993.61
767.129	995.65
767.312	956.74
767.495	903.5
767.678	985.41
767.861	973.13
768.044	940.36
768.227	969.03
768.41	885.06
768.593	1014.09
768.776	946.5
768.959	866.63
769.142	907.59
769.324	942.41
769.507	981.32
769.69	872.78
769.873	901.45
770.056	858.44
770.239	825.67
770.421	946.5
770.604	919.88
770.787	944.45
770.97	887.11
771.152	837.96
771.335	913.74
771.518	797
771.7	850.25
771.883	864.58
772.066	919.88
772.248	842.06
772.431	774.47
772.613	805.19
772.796	745.8
772.978	782.67
773.161	864.58
773.343	797
773.526	809.29
773.708	858.44
773.891	706.89
774.073	762.19
774.256	657.74
774.438	903.5
774.621	799.05
774.803	786.76
774.985	758.09
775.168	801.1
775.35	717.13
775.532	737.61
775.715	702.79
775.897	799.05
776.079	813.38
776.261	702.79
776.444	661.84
776.626	753.99
776.808	715.08
776.99	700.75
777.173	649.55
777.355	676.17
777.537	731.47
777.719	670.03
777.901	710.99
778.083	743.75
778.265	719.18
778.447	624.97
778.629	624.97
778.811	624.97
778.993	596.3
779.175	659.79
779.357	610.64
779.539	581.96
779.721	573.77
779.903	581.96
780.085	602.44
780.267	543.05
780.449	581.96
780.631	596.3
780.812	610.64
780.994	635.21
781.176	575.82
781.358	557.39
781.54	518.48
781.721	545.1
781.903	536.91
782.085	553.29
782.267	549.2
782.448	483.66
782.63	567.63
782.812	584.01
782.993	573.77
783.175	538.96
783.357	504.14
783.538	600.4
783.72	475.47
783.901	498
784.083	508.24
784.264	506.19
784.446	411.98
784.627	526.67
784.809	526.67
784.99	450.89
785.172	430.41
785.353	450.89
785.535	489.81
785.716	395.6
785.897	368.98
786.079	354.64
786.26	465.23
786.441	454.99
786.623	504.14
786.804	461.13
786.985	528.72
787.167	424.27
787.348	350.54
787.529	471.37
787.71	479.57
787.891	409.94
788.073	399.7
788.254	405.84
788.435	411.98
788.616	430.41
788.797	350.54
788.978	428.37
789.159	338.26
789.34	387.41
789.522	366.93
789.703	373.07
789.884	336.21
790.065	403.79
790.246	377.17
790.427	401.74
790.607	416.08
790.788	358.74
790.969	338.26
791.15	268.63
791.331	293.2
791.512	330.06
791.693	309.58
791.874	340.3
792.054	344.4
792.235	354.64
792.416	334.16
792.597	270.67
792.778	358.74
792.958	289.1
793.139	348.5
793.32	250.19
793.5	313.68
793.681	332.11
793.862	319.82
794.042	366.93
794.223	248.15
794.404	293.2
794.584	264.53
794.765	309.58
794.945	315.73
795.126	297.3
795.306	375.12
795.487	268.63
795.667	330.06
795.848	244.05
796.028	350.54
796.209	229.71
796.389	315.73
796.57	323.92
796.75	287.06
796.93	237.91
797.111	225.62
797.291	344.4
797.471	246.1
797.652	211.28
797.832	256.34
798.012	293.2
798.192	289.1
798.373	264.53
798.553	194.9
798.733	207.19
798.913	153.94
799.093	227.67
799.274	260.43
799.454	235.86
799.634	289.1
799.814	282.96
799.994	182.61
800.174	293.2
800.354	289.1
800.534	274.77
800.714	227.67
800.894	194.9
801.074	211.28
801.254	258.39
801.434	221.52
801.614	235.86
801.794	262.48
801.974	756.04
802.154	305.49
802.334	291.15
802.514	194.9
802.693	184.66
802.873	227.67
803.053	264.53
803.233	250.19
803.413	225.62
803.592	215.38
803.772	192.85
803.952	172.37
804.131	178.51
804.311	262.48
804.491	215.38
804.67	121.17
804.85	252.24
805.03	248.15
805.209	231.76
805.389	268.63
805.568	178.51
805.748	242
805.928	233.81
806.107	229.71
806.287	231.76
806.466	178.51
806.646	131.41
806.825	252.24
807.004	256.34
807.184	252.24
807.363	244.05
807.543	244.05
807.722	133.46
807.901	229.71
808.081	258.39
808.26	125.27
808.439	201.04
808.619	84.31
808.798	178.51
808.977	151.89
809.156	207.19
809.336	155.99
809.515	174.42
809.694	151.89
809.873	190.8
810.052	190.8
810.231	205.14
810.411	160.08
810.59	260.43
810.769	166.23
810.948	147.8
811.127	112.98
811.306	145.75
811.485	110.93
811.664	207.19
811.843	272.72
812.022	174.42
812.201	223.57
812.38	174.42
812.559	125.27
812.737	121.17
812.916	180.56
813.095	131.41
813.274	160.08
813.453	92.5
813.632	172.37
813.811	106.84
813.989	158.03
814.168	133.46
814.347	94.55
814.526	143.7
814.704	149.84
814.883	190.8
815.062	158.03
815.24	139.6
815.419	92.5
815.598	129.36
815.776	88.4
815.955	20.82
816.133	67.92
816.312	100.69
816.49	86.36
816.669	127.32
816.847	143.7
817.026	160.08
817.204	149.84
817.383	86.36
817.561	115.03
817.74	149.84
817.918	225.62
818.097	100.69
818.275	184.66
818.453	108.88
818.632	149.84
818.81	112.98
818.988	108.88
819.167	72.02
819.345	45.4
819.523	141.65
819.701	129.36
819.879	162.13
820.058	82.26
820.236	96.6
820.414	67.92
820.592	160.08
820.77	74.07
820.948	108.88
821.127	55.64
821.305	137.56
821.483	94.55
821.661	129.36
821.839	47.44
822.017	123.22
822.195	63.83
822.373	88.4
822.551	145.75
822.729	129.36
822.907	86.36
823.085	100.69
823.262	133.46
823.44	137.56
823.618	65.88
823.796	55.64
823.974	188.75
824.152	104.79
824.329	80.21
824.507	170.32
824.685	151.89
824.863	63.83
825.04	35.16
825.218	104.79
825.396	110.93
825.574	153.94
825.751	145.75
825.929	106.84
826.107	31.06
826.284	106.84
826.462	104.79
826.639	22.87
826.817	98.64
826.994	117.08
827.172	53.59
827.349	139.6
827.527	121.17
827.704	125.27
827.882	106.84
828.059	94.55
828.237	20.82
828.414	33.11
828.591	78.16
828.769	65.88
828.946	-1.71
829.124	61.78
829.301	180.56
829.478	100.69
829.655	22.87
829.833	147.8
830.01	18.77
830.187	184.66
830.364	69.97
830.542	67.92
830.719	47.44
830.896	108.88
831.073	65.88
831.25	143.7
831.427	94.55
831.604	57.68
831.782	20.82
831.959	67.92
832.136	78.16
832.313	127.32
832.49	-18.09
832.667	145.75
832.844	18.77
833.021	86.36
833.198	57.68
833.374	137.56
833.551	80.21
833.728	84.31
833.905	98.64
834.082	51.54
834.259	55.64
834.436	86.36
834.612	67.92
834.789	80.21
834.966	102.74
835.143	108.88
835.319	2.39
835.496	-7.85
835.673	57.68
835.85	76.12
836.026	86.36
836.203	92.5
836.38	88.4
836.556	61.78
836.733	37.2
836.909	153.94
837.086	20.82
837.262	96.6
837.439	31.06
837.616	123.22
837.792	86.36
837.968	119.12
838.145	39.25
838.321	-34.47
838.498	104.79
838.674	61.78
838.851	53.59
839.027	61.78
839.203	14.68
839.38	43.35
839.556	96.6
839.732	104.79
839.909	67.92
840.085	6.49
840.261	57.68
840.437	53.59
840.614	72.02
840.79	80.21
840.966	88.4
841.142	55.64
841.318	92.5
841.494	39.25
841.671	43.35
841.847	39.25
842.023	-18.09
842.199	45.4
842.375	65.88
842.551	31.06
842.727	80.21
842.903	80.21
843.079	53.59
843.255	47.44
843.431	63.83
843.607	125.27
843.783	-22.19
843.959	39.25
844.134	35.16
844.31	178.51
844.486	43.35
844.662	10.58
844.838	59.73
845.013	49.49
845.189	98.64
845.365	121.17
845.541	33.11
845.716	16.73
845.892	22.87
846.068	-9.9
846.244	20.82
846.419	37.2
846.595	-34.47
846.77	88.4
846.946	59.73
847.122	37.2
847.297	45.4
847.473	112.98
847.648	55.64
847.824	12.63
847.999	-9.9
848.175	104.79
848.35	-3.75
848.526	39.25
848.701	65.88
848.876	-1.71
849.052	53.59
849.227	29.01
849.403	-13.99
849.578	47.44
849.753	37.2
849.929	-38.57
850.104	33.11
850.279	117.08
850.454	-9.9
850.63	14.68
850.805	16.73
850.98	67.92
851.155	16.73
851.33	55.64
851.505	-13.99
851.681	22.87
851.856	18.77
852.031	61.78
852.206	69.97
852.381	-24.23
852.556	-83.63
852.731	47.44
852.906	72.02
853.081	45.4
853.256	16.73
853.431	51.54
853.606	-40.62
853.781	10.58
853.956	-34.47
854.131	22.87
854.305	-11.95
854.48	74.07
854.655	-50.86
854.83	8.53
855.005	10.58
855.18	6.49
855.354	-9.9
855.529	-38.57
855.704	37.2
855.879	41.3
856.053	12.63
856.228	39.25
856.403	-5.8
856.577	16.73
856.752	-13.99
856.926	88.4
857.101	-34.47
857.276	-69.29
857.45	-26.28
857.625	102.74
857.799	6.49
857.974	106.84
858.148	2.39
858.323	0.34
858.497	47.44
858.672	8.53
858.846	6.49
859.02	37.2
859.195	47.44
859.369	82.26
859.543	61.78
859.718	35.16
859.892	6.49
860.066	26.96
860.241	14.68
860.415	-20.14
860.589	-3.75
860.763	2.39
860.938	18.77
861.112	20.82
861.286	76.12
861.46	33.11
861.634	-28.33
861.808	8.53
861.982	-81.58
862.157	16.73
862.331	-22.19
862.505	-26.28
862.679	-34.47
862.853	-34.47
863.027	45.4
863.201	110.93
863.375	94.55
863.549	-16.04
863.722	-11.95
863.896	4.44
864.07	29.01
864.244	29.01
864.418	61.78
864.592	14.68
864.766	12.63
864.939	14.68
865.113	-28.33
865.287	106.84
865.461	37.2
865.634	33.11
865.808	6.49
865.982	80.21
866.156	0.34
866.329	-71.34
866.503	14.68
866.676	-22.19
866.85	-36.52
867.024	2.39
867.197	80.21
867.371	-18.09
867.544	-11.95
867.718	-1.71
867.891	18.77
868.065	-28.33
868.238	14.68
868.412	22.87
868.585	16.73
868.759	10.58
868.932	61.78
869.105	24.92
869.279	29.01
869.452	26.96
869.625	37.2
869.799	4.44
869.972	-59.05
870.145	29.01
870.319	41.3
870.492	8.53
870.665	-9.9
870.838	-38.57
871.011	10.58
871.185	-28.33
871.358	20.82
871.531	12.63
871.704	-67.24
871.877	37.2
872.05	-83.63
872.223	-11.95
872.396	12.63
872.569	4.44
872.742	-3.75
872.915	47.44
873.088	10.58
873.261	-36.52
873.434	14.68
873.607	-22.19
873.78	47.44
873.953	6.49
874.126	-11.95
874.299	2.39
874.471	45.4
874.644	41.3
874.817	-3.75
874.99	53.59
875.163	-9.9
875.335	47.44
875.508	39.25
875.681	37.2
875.853	-1.71
876.026	-13.99
876.199	-18.09
876.371	29.01
876.544	-77.48
876.717	-26.28
876.889	16.73
877.062	45.4
877.234	35.16
877.407	-24.23
877.579	-30.38
877.752	53.59
877.924	-5.8
878.097	-13.99
878.269	-42.67
878.442	-9.9
878.614	49.49
878.786	-24.23
878.959	-42.67
879.131	-18.09
879.303	-20.14
879.476	10.58
879.648	63.83
879.82	18.77
879.993	39.25
880.165	-13.99
880.337	-83.63
880.509	37.2
880.681	-52.91
880.854	-7.85
881.026	14.68
881.198	43.35
881.37	14.68
881.542	-20.14
881.714	-22.19
881.886	-30.38
882.058	-7.85
882.23	-22.19
882.402	-1.71
882.574	53.59
882.746	61.78
882.918	-50.86
883.09	12.63
883.262	26.96
883.434	6.49
883.606	6.49
883.778	-34.47
883.95	0.34
884.122	-28.33
884.293	2.39
884.465	-38.57
884.637	51.54
884.809	-32.43
884.98	-1.71
885.152	57.68
885.324	22.87
885.496	-57
885.667	-1.71
885.839	-22.19
886.011	76.12
886.182	-22.19
886.354	80.21
886.525	-24.23
886.697	-3.75
886.869	-40.62
887.04	-40.62
887.212	2.39
887.383	67.92
887.555	-44.71
887.726	82.26
887.897	-38.57
888.069	63.83
888.24	-38.57
888.412	-57
888.583	-5.8
888.754	2.39
888.926	-48.81
889.097	31.06
889.268	-22.19
889.44	47.44
889.611	-32.43
889.782	12.63
889.953	-46.76
890.125	43.35
890.296	-85.67
890.467	47.44
890.638	8.53
890.809	-18.09
890.98	-13.99
891.151	2.39
891.323	8.53
891.494	18.77
891.665	-20.14
891.836	51.54
892.007	6.49
892.178	16.73
892.349	65.88
892.52	2.39
892.691	-11.95
892.862	29.01
893.032	-67.24
893.203	-3.75
893.374	-46.76
893.545	-42.67
893.716	-24.23
893.887	10.58
894.057	8.53
894.228	-24.23
894.399	-69.29
894.57	47.44
894.74	-16.04
894.911	45.4
895.082	-9.9
895.253	14.68
895.423	-3.75
895.594	-34.47
895.764	33.11
895.935	-69.29
896.106	2.39
896.276	-30.38
896.447	63.83
896.617	-26.28
896.788	4.44
896.958	10.58
897.129	-112.3
897.299	14.68
897.47	31.06
897.64	22.87
897.81	39.25
897.981	-22.19
898.151	-16.04
898.322	-61.1
898.492	26.96
898.662	55.64
898.832	16.73
899.003	-46.76
899.173	-59.05
899.343	2.39
899.513	-52.91
