Data from USB4F104151__282__10-42-09-553.txt Node

Date: Wed Mar 12 10:42:09 EDT 2025
User: louis
Spectrometer: USB4F10415
Trigger mode: 4
Integration Time (sec): 3.000000E-2
Scans to average: 1
Electric dark correction enabled: true
Nonlinearity correction enabled: false
Boxcar width: 0
XAxis mode: Wavelengths
Number of Pixels in Spectrum: 3648
>>>>>Begin Spectral Data<<<<<
178.204	-91.82
178.424	-91.82
178.644	-91.82
178.864	-163.5
179.084	-100.01
179.304	-57
179.524	119.12
179.744	-7.85
179.964	14.68
180.184	-67.24
180.404	10.58
180.624	-91.82
180.844	-20.14
181.064	-20.14
181.283	24.92
181.503	-5.8
181.723	100.69
181.943	31.06
182.163	63.83
182.383	57.68
182.602	-30.38
182.822	-5.8
183.042	80.21
183.262	-54.95
183.482	35.16
183.701	31.06
183.921	31.06
184.141	37.2
184.361	82.26
184.58	26.96
184.8	22.87
185.02	31.06
185.239	88.4
185.459	37.2
185.679	-3.75
185.898	-77.48
186.118	14.68
186.338	74.07
186.557	37.2
186.777	-1.71
186.997	39.25
187.216	41.3
187.436	84.31
187.655	53.59
187.875	63.83
188.095	-26.28
188.314	86.36
188.534	110.93
188.753	26.96
188.973	51.54
189.192	39.25
189.412	80.21
189.631	26.96
189.851	29.01
190.07	61.78
190.29	12.63
190.509	51.54
190.729	47.44
190.948	41.3
191.168	180.56
191.387	45.4
191.607	14.68
191.826	78.16
192.045	0.34
192.265	61.78
192.484	-11.95
192.704	51.54
192.923	14.68
193.142	162.13
193.362	47.44
193.581	65.88
193.8	26.96
194.02	51.54
194.239	55.64
194.458	-9.9
194.678	39.25
194.897	31.06
195.116	59.73
195.335	-9.9
195.555	39.25
195.774	10.58
195.993	67.92
196.212	6.49
196.432	39.25
196.651	-24.23
196.87	59.73
197.089	74.07
197.308	84.31
197.528	88.4
197.747	-28.33
197.966	76.12
198.185	76.12
198.404	67.92
198.623	14.68
198.842	8.53
199.062	127.32
199.281	49.49
199.5	-13.99
199.719	65.88
199.938	98.64
200.157	2.39
200.376	-5.8
200.595	20.82
200.814	8.53
201.033	61.78
201.252	72.02
201.471	33.11
201.69	69.97
201.909	-7.85
202.128	43.35
202.347	59.73
202.566	43.35
202.785	-63.15
203.004	-26.28
203.223	61.78
203.442	14.68
203.661	-18.09
203.879	47.44
204.098	47.44
204.317	18.77
204.536	78.16
204.755	51.54
204.974	20.82
205.193	88.4
205.411	39.25
205.63	74.07
205.849	-3.75
206.068	26.96
206.287	20.82
206.505	-26.28
206.724	45.4
206.943	41.3
207.162	-22.19
207.381	45.4
207.599	-65.19
207.818	63.83
208.037	-5.8
208.255	0.34
208.474	-32.43
208.693	20.82
208.911	47.44
209.13	26.96
209.349	112.98
209.567	125.27
209.786	37.2
210.005	22.87
210.223	72.02
210.442	-9.9
210.661	-32.43
210.879	2.39
211.098	26.96
211.316	76.12
211.535	139.6
211.753	6.49
211.972	49.49
212.191	22.87
212.409	12.63
212.628	72.02
212.846	6.49
213.065	35.16
213.283	39.25
213.502	67.92
213.72	74.07
213.938	39.25
214.157	22.87
214.375	26.96
214.594	47.44
214.812	35.16
215.031	-42.67
215.249	-34.47
215.467	57.68
215.686	80.21
215.904	22.87
216.122	6.49
216.341	8.53
216.559	26.96
216.778	33.11
216.996	145.75
217.214	33.11
217.432	18.77
217.651	82.26
217.869	26.96
218.087	31.06
218.306	35.16
218.524	51.54
218.742	74.07
218.96	35.16
219.179	-9.9
219.397	47.44
219.615	141.65
219.833	2.39
220.051	10.58
220.27	-34.47
220.488	69.97
220.706	43.35
220.924	35.16
221.142	106.84
221.36	-5.8
221.578	72.02
221.796	33.11
222.015	110.93
222.233	33.11
222.451	-7.85
222.669	-65.19
222.887	96.6
223.105	57.68
223.323	16.73
223.541	39.25
223.759	45.4
223.977	65.88
224.195	119.12
224.413	24.92
224.631	55.64
224.849	2.39
225.067	96.6
225.285	41.3
225.503	43.35
225.721	43.35
225.939	-22.19
226.157	55.64
226.375	45.4
226.592	-16.04
226.81	-5.8
227.028	59.73
227.246	65.88
227.464	59.73
227.682	80.21
227.9	49.49
228.117	51.54
228.335	47.44
228.553	65.88
228.771	29.01
228.989	49.49
229.206	80.21
229.424	33.11
229.642	6.49
229.86	20.82
230.077	47.44
230.295	29.01
230.513	74.07
230.731	33.11
230.948	92.5
231.166	41.3
231.384	-22.19
231.601	41.3
231.819	125.27
232.037	110.93
232.254	-16.04
232.472	-38.57
232.689	-5.8
232.907	-5.8
233.125	53.59
233.342	4.44
233.56	22.87
233.777	84.31
233.995	-1.71
234.213	86.36
234.43	39.25
234.648	10.58
234.865	22.87
235.083	69.97
235.3	24.92
235.518	69.97
235.735	80.21
235.953	43.35
236.17	-18.09
236.388	24.92
236.605	88.4
236.822	26.96
237.04	59.73
237.257	35.16
237.475	26.96
237.692	35.16
237.909	92.5
238.127	-18.09
238.344	45.4
238.562	4.44
238.779	12.63
238.996	-9.9
239.214	55.64
239.431	20.82
239.648	-30.38
239.865	-9.9
240.083	80.21
240.3	18.77
240.517	-32.43
240.735	63.83
240.952	65.88
241.169	84.31
241.386	72.02
241.603	41.3
241.821	8.53
242.038	69.97
242.255	106.84
242.472	-44.71
242.689	6.49
242.907	39.25
243.124	29.01
243.341	121.17
243.558	10.58
243.775	-18.09
243.992	-1.71
244.209	65.88
244.426	121.17
244.643	59.73
244.86	-46.76
245.078	84.31
245.295	51.54
245.512	39.25
245.729	29.01
245.946	26.96
246.163	2.39
246.38	86.36
246.597	-20.14
246.814	55.64
247.031	39.25
247.248	65.88
247.464	61.78
247.681	47.44
247.898	96.6
248.115	108.88
248.332	-28.33
248.549	53.59
248.766	49.49
248.983	121.17
249.2	45.4
249.417	90.45
249.633	31.06
249.85	80.21
250.067	-24.23
250.284	69.97
250.501	65.88
250.717	59.73
250.934	45.4
251.151	57.68
251.368	63.83
251.585	72.02
251.801	78.16
252.018	51.54
252.235	-18.09
252.451	-7.85
252.668	-13.99
252.885	35.16
253.102	-5.8
253.318	-38.57
253.535	31.06
253.752	88.4
253.968	41.3
254.185	-20.14
254.401	20.82
254.618	59.73
254.835	26.96
255.051	59.73
255.268	16.73
255.484	65.88
255.701	16.73
255.917	37.2
256.134	49.49
256.351	49.49
256.567	-38.57
256.784	-3.75
257	51.54
257.217	10.58
257.433	20.82
257.65	47.44
257.866	-3.75
258.082	51.54
258.299	67.92
258.515	41.3
258.732	26.96
258.948	12.63
259.165	37.2
259.381	82.26
259.597	18.77
259.814	4.44
260.03	80.21
260.246	80.21
260.463	45.4
260.679	92.5
260.895	51.54
261.112	41.3
261.328	-36.52
261.544	2.39
261.761	63.83
261.977	-18.09
262.193	4.44
262.409	110.93
262.626	26.96
262.842	65.88
263.058	84.31
263.274	18.77
263.49	51.54
263.707	102.74
263.923	-18.09
264.139	31.06
264.355	-22.19
264.571	90.45
264.787	-18.09
265.004	63.83
265.22	37.2
265.436	-1.71
265.652	14.68
265.868	57.68
266.084	6.49
266.3	6.49
266.516	-5.8
266.732	59.73
266.948	29.01
267.164	47.44
267.38	86.36
267.596	-9.9
267.812	100.69
268.028	80.21
268.244	18.77
268.46	74.07
268.676	-69.29
268.892	16.73
269.108	20.82
269.324	55.64
269.54	10.58
269.756	119.12
269.972	-36.52
270.188	24.92
270.403	31.06
270.619	78.16
270.835	-24.23
271.051	49.49
271.267	24.92
271.483	-28.33
271.698	26.96
271.914	82.26
272.13	43.35
272.346	59.73
272.562	63.83
272.777	74.07
272.993	4.44
273.209	78.16
273.425	72.02
273.64	10.58
273.856	59.73
274.072	65.88
274.287	12.63
274.503	78.16
274.719	61.78
274.934	96.6
275.15	-26.28
275.366	22.87
275.581	4.44
275.797	51.54
276.012	35.16
276.228	12.63
276.444	92.5
276.659	39.25
276.875	18.77
277.09	76.12
277.306	45.4
277.521	-3.75
277.737	24.92
277.952	74.07
278.168	33.11
278.383	33.11
278.599	67.92
278.814	-20.14
279.03	6.49
279.245	108.88
279.461	45.4
279.676	31.06
279.892	-36.52
280.107	-20.14
280.322	-59.05
280.538	20.82
280.753	31.06
280.969	-13.99
281.184	47.44
281.399	24.92
281.615	61.78
281.83	61.78
282.045	26.96
282.26	8.53
282.476	88.4
282.691	72.02
282.906	20.82
283.122	65.88
283.337	-42.67
283.552	67.92
283.767	41.3
283.983	47.44
284.198	88.4
284.413	98.64
284.628	8.53
284.843	86.36
285.058	43.35
285.274	2.39
285.489	26.96
285.704	78.16
285.919	6.49
286.134	151.89
286.349	-38.57
286.564	53.59
286.779	92.5
286.995	-9.9
287.21	0.34
287.425	16.73
287.64	-42.67
287.855	-3.75
288.07	-7.85
288.285	53.59
288.5	22.87
288.715	20.82
288.93	14.68
289.145	-26.28
289.36	55.64
289.575	96.6
289.79	-16.04
290.004	41.3
290.219	-18.09
290.434	12.63
290.649	37.2
290.864	18.77
291.079	10.58
291.294	51.54
291.509	82.26
291.724	37.2
291.938	-24.23
292.153	92.5
292.368	8.53
292.583	26.96
292.798	45.4
293.012	67.92
293.227	86.36
293.442	-9.9
293.657	8.53
293.871	72.02
294.086	45.4
294.301	131.41
294.516	51.54
294.73	39.25
294.945	-24.23
295.16	22.87
295.374	92.5
295.589	43.35
295.804	59.73
296.018	80.21
296.233	135.51
296.447	35.16
296.662	-18.09
296.877	24.92
297.091	82.26
297.306	80.21
297.52	55.64
297.735	51.54
297.949	82.26
298.164	92.5
298.378	80.21
298.593	-16.04
298.807	24.92
299.022	22.87
299.236	74.07
299.451	45.4
299.665	55.64
299.88	92.5
300.094	20.82
300.309	-5.8
300.523	26.96
300.737	2.39
300.952	65.88
301.166	18.77
301.381	14.68
301.595	29.01
301.809	74.07
302.024	69.97
302.238	-18.09
302.452	63.83
302.667	59.73
302.881	65.88
303.095	69.97
303.309	110.93
303.524	0.34
303.738	14.68
303.952	14.68
304.166	106.84
304.381	35.16
304.595	151.89
304.809	63.83
305.023	39.25
305.237	102.74
305.452	82.26
305.666	31.06
305.88	108.88
306.094	63.83
306.308	41.3
306.522	53.59
306.736	37.2
306.95	112.98
307.164	10.58
307.379	72.02
307.593	37.2
307.807	151.89
308.021	47.44
308.235	-32.43
308.449	18.77
308.663	55.64
308.877	131.41
309.091	47.44
309.305	80.21
309.519	35.16
309.733	80.21
309.947	6.49
310.161	121.17
310.374	22.87
310.588	119.12
310.802	2.39
311.016	49.49
311.23	-1.71
311.444	45.4
311.658	78.16
311.872	129.36
312.085	35.16
312.299	57.68
312.513	59.73
312.727	16.73
312.941	-13.99
313.154	94.55
313.368	43.35
313.582	86.36
313.796	29.01
314.009	119.12
314.223	123.22
314.437	33.11
314.651	51.54
314.864	72.02
315.078	-20.14
315.292	10.58
315.505	41.3
315.719	65.88
315.933	104.79
316.146	37.2
316.36	4.44
316.573	78.16
316.787	110.93
317.001	26.96
317.214	-38.57
317.428	59.73
317.641	76.12
317.855	53.59
318.068	31.06
318.282	72.02
318.495	96.6
318.709	78.16
318.922	55.64
319.136	51.54
319.349	33.11
319.563	14.68
319.776	61.78
319.99	35.16
320.203	29.01
320.417	29.01
320.63	63.83
320.843	123.22
321.057	-5.8
321.27	166.23
321.483	121.17
321.697	119.12
321.91	43.35
322.124	-16.04
322.337	94.55
322.55	43.35
322.763	47.44
322.977	72.02
323.19	-9.9
323.403	119.12
323.617	22.87
323.83	41.3
324.043	2.39
324.256	59.73
324.469	37.2
324.683	84.31
324.896	72.02
325.109	-24.23
325.322	127.32
325.535	94.55
325.748	24.92
325.962	-36.52
326.175	53.59
326.388	39.25
326.601	80.21
326.814	37.2
327.027	0.34
327.24	112.98
327.453	18.77
327.666	96.6
327.879	72.02
328.092	129.36
328.305	65.88
328.518	96.6
328.731	-42.67
328.944	49.49
329.157	121.17
329.37	31.06
329.583	-13.99
329.796	67.92
330.009	29.01
330.222	72.02
330.435	59.73
330.648	92.5
330.861	37.2
331.073	8.53
331.286	92.5
331.499	76.12
331.712	-79.53
331.925	80.21
332.138	80.21
332.35	106.84
332.563	31.06
332.776	47.44
332.989	65.88
333.202	-67.24
333.414	49.49
333.627	98.64
333.84	-32.43
334.053	67.92
334.265	10.58
334.478	16.73
334.691	39.25
334.903	4.44
335.116	37.2
335.329	92.5
335.541	6.49
335.754	43.35
335.966	108.88
336.179	2.39
336.392	12.63
336.604	69.97
336.817	45.4
337.029	88.4
337.242	98.64
337.454	51.54
337.667	14.68
337.88	29.01
338.092	-40.62
338.305	74.07
338.517	47.44
338.729	100.69
338.942	125.27
339.154	72.02
339.367	47.44
339.579	37.2
339.792	80.21
340.004	67.92
340.217	-1.71
340.429	37.2
340.641	39.25
340.854	41.3
341.066	69.97
341.278	16.73
341.491	112.98
341.703	39.25
341.915	47.44
342.128	104.79
342.34	55.64
342.552	37.2
342.764	37.2
342.977	49.49
343.189	2.39
343.401	72.02
343.613	-36.52
343.826	55.64
344.038	35.16
344.25	8.53
344.462	65.88
344.674	31.06
344.886	-26.28
345.099	123.22
345.311	49.49
345.523	2.39
345.735	8.53
345.947	57.68
346.159	59.73
346.371	49.49
346.583	84.31
346.795	117.08
347.007	45.4
347.219	127.32
347.431	80.21
347.643	112.98
347.855	-9.9
348.067	69.97
348.279	16.73
348.491	69.97
348.703	61.78
348.915	57.68
349.127	63.83
349.339	84.31
349.551	57.68
349.763	31.06
349.975	74.07
350.187	158.03
350.399	96.6
350.61	33.11
350.822	67.92
351.034	35.16
351.246	14.68
351.458	53.59
351.669	82.26
351.881	72.02
352.093	49.49
352.305	45.4
352.517	65.88
352.728	106.84
352.94	108.88
353.152	72.02
353.363	-50.86
353.575	55.64
353.787	43.35
353.999	117.08
354.21	76.12
354.422	76.12
354.633	39.25
354.845	104.79
355.057	80.21
355.268	98.64
355.48	4.44
355.692	43.35
355.903	47.44
356.115	59.73
356.326	2.39
356.538	104.79
356.749	82.26
356.961	94.55
357.172	39.25
357.384	72.02
357.595	131.41
357.807	88.4
358.018	47.44
358.23	24.92
358.441	102.74
358.653	141.65
358.864	26.96
359.075	45.4
359.287	78.16
359.498	20.82
359.709	-11.95
359.921	80.21
360.132	102.74
360.344	43.35
360.555	86.36
360.766	41.3
360.977	39.25
361.189	174.42
361.4	59.73
361.611	16.73
361.823	47.44
362.034	88.4
362.245	-40.62
362.456	26.96
362.667	12.63
362.879	22.87
363.09	59.73
363.301	78.16
363.512	-16.04
363.723	90.45
363.935	63.83
364.146	61.78
364.357	49.49
364.568	63.83
364.779	26.96
364.99	86.36
365.201	86.36
365.412	106.84
365.623	-3.75
365.834	151.89
366.045	84.31
366.256	74.07
366.467	57.68
366.678	63.83
366.889	108.88
367.1	94.55
367.311	57.68
367.522	63.83
367.733	96.6
367.944	41.3
368.155	108.88
368.366	94.55
368.577	141.65
368.788	137.56
368.999	96.6
369.209	33.11
369.42	76.12
369.631	106.84
369.842	67.92
370.053	6.49
370.264	80.21
370.474	39.25
370.685	80.21
370.896	115.03
371.107	94.55
371.317	82.26
371.528	55.64
371.739	96.6
371.95	102.74
372.16	80.21
372.371	45.4
372.582	96.6
372.792	86.36
373.003	51.54
373.214	51.54
373.424	20.82
373.635	92.5
373.846	45.4
374.056	61.78
374.267	76.12
374.477	0.34
374.688	41.3
374.898	24.92
375.109	129.36
375.319	37.2
375.53	53.59
375.74	6.49
375.951	33.11
376.161	80.21
376.372	117.08
376.582	51.54
376.793	18.77
377.003	72.02
377.214	104.79
377.424	141.65
377.635	96.6
377.845	53.59
378.055	88.4
378.266	-16.04
378.476	72.02
378.686	51.54
378.897	86.36
379.107	108.88
379.317	106.84
379.528	88.4
379.738	115.03
379.948	-32.43
380.158	98.64
380.369	84.31
380.579	74.07
380.789	104.79
380.999	129.36
381.21	94.55
381.42	172.37
381.63	63.83
381.84	133.46
382.05	147.8
382.261	88.4
382.471	98.64
382.681	84.31
382.891	192.85
383.101	31.06
383.311	78.16
383.521	51.54
383.731	82.26
383.941	59.73
384.151	92.5
384.361	59.73
384.571	59.73
384.781	55.64
384.991	102.74
385.201	100.69
385.411	76.12
385.621	117.08
385.831	88.4
386.041	178.51
386.251	2.39
386.461	80.21
386.671	2.39
386.881	86.36
387.091	69.97
387.301	65.88
387.511	14.68
387.72	112.98
387.93	63.83
388.14	63.83
388.35	162.13
388.56	22.87
388.769	33.11
388.979	4.44
389.189	6.49
389.399	74.07
389.609	51.54
389.818	98.64
390.028	76.12
390.238	96.6
390.447	31.06
390.657	178.51
390.867	115.03
391.076	84.31
391.286	43.35
391.496	55.64
391.705	131.41
391.915	104.79
392.125	61.78
392.334	10.58
392.544	84.31
392.753	100.69
392.963	78.16
393.172	72.02
393.382	37.2
393.591	145.75
393.801	78.16
394.01	115.03
394.22	98.64
394.429	115.03
394.639	84.31
394.848	123.22
395.058	61.78
395.267	51.54
395.477	92.5
395.686	74.07
395.895	53.59
396.105	135.51
396.314	158.03
396.524	104.79
396.733	121.17
396.942	135.51
397.152	100.69
397.361	137.56
397.57	51.54
397.78	143.7
397.989	155.99
398.198	82.26
398.407	112.98
398.617	69.97
398.826	106.84
399.035	160.08
399.244	141.65
399.453	186.71
399.663	121.17
399.872	168.27
400.081	80.21
400.29	141.65
400.499	123.22
400.708	139.6
400.917	147.8
401.127	108.88
401.336	92.5
401.545	186.71
401.754	143.7
401.963	117.08
402.172	153.94
402.381	82.26
402.59	88.4
402.799	145.75
403.008	188.75
403.217	127.32
403.426	137.56
403.635	192.85
403.844	145.75
404.053	192.85
404.262	162.13
404.471	201.04
404.68	153.94
404.888	121.17
405.097	143.7
405.306	121.17
405.515	268.63
405.724	221.52
405.933	192.85
406.142	127.32
406.35	205.14
406.559	155.99
406.768	272.72
406.977	227.67
407.185	266.58
407.394	227.67
407.603	192.85
407.812	274.77
408.02	276.82
408.229	233.81
408.438	313.68
408.646	307.54
408.855	311.63
409.064	260.43
409.272	325.97
409.481	325.97
409.69	350.54
409.898	352.59
410.107	325.97
410.315	444.75
410.524	432.46
410.733	399.7
410.941	387.41
411.15	366.93
411.358	420.17
411.567	545.1
411.775	424.27
411.984	555.34
412.192	510.29
412.401	428.37
412.609	590.16
412.818	579.92
413.026	594.25
413.234	588.11
413.443	733.51
413.651	606.54
413.86	655.69
414.068	766.28
414.276	803.15
414.485	698.7
414.693	764.23
414.901	848.2
415.11	852.3
415.318	846.15
415.526	897.35
415.734	844.1
415.943	960.84
416.151	1063.24
416.359	1018.18
416.567	1030.47
416.776	1069.38
416.984	1165.64
417.192	1222.98
417.4	1167.68
417.608	1128.77
417.817	1202.5
418.025	1321.28
418.233	1380.67
418.441	1390.91
418.649	1345.86
418.857	1536.32
419.065	1558.85
419.273	1562.94
419.481	1620.28
419.689	1775.93
419.897	1751.35
420.105	1794.36
420.313	1845.56
420.521	1968.44
420.729	2060.6
420.937	2109.75
421.145	2093.37
421.353	2177.33
421.561	2347.31
421.769	2380.08
421.977	2478.38
422.185	2398.51
422.393	2566.45
422.601	2799.91
422.809	2718
423.017	2685.23
423.224	2810.15
423.432	2943.27
423.64	2947.37
423.848	3256.61
424.056	3186.98
424.263	3445.02
424.471	3449.12
424.679	3600.67
424.887	3711.26
425.094	3889.43
425.302	3764.51
425.51	3967.26
425.718	4114.71
425.925	4120.85
426.133	4378.9
426.341	4483.34
426.548	4649.23
426.756	4880.65
426.964	4753.68
427.171	5058.82
427.379	5114.12
427.586	5361.92
427.794	5492.99
428.001	5804.28
428.209	5873.92
428.417	5929.21
428.624	6392.05
428.832	6310.13
429.039	6224.12
429.247	6371.57
429.454	6777.07
429.662	7299.3
429.869	6727.92
430.076	7416.04
430.284	7180.52
430.491	7622.88
430.699	7858.4
430.906	7940.32
431.114	7958.75
431.321	8120.54
431.528	8427.73
431.736	9066.7
431.943	9709.76
432.15	9083.08
432.358	9337.03
432.565	9795.78
432.772	9865.41
432.979	10219.71
433.187	10262.71
433.394	10520.76
433.601	11122.86
433.808	11247.79
434.016	11126.96
434.223	11602.08
434.43	12370.07
434.637	11843.74
434.844	12615.83
435.052	13052.05
435.259	12601.49
435.466	13064.33
435.673	12771.47
435.88	13965.44
436.087	14512.25
436.294	14504.06
436.501	14100.61
436.708	14221.44
436.915	14796.92
437.122	15825
437.329	15327.34
437.537	16156.77
437.743	16470.11
437.95	16263.26
438.157	17133.65
438.364	17582.15
438.571	17823.81
438.778	17666.12
438.985	19472.43
439.192	18470.97
439.399	19216.43
439.606	18628.67
439.813	20021.28
440.02	20910.1
440.227	20746.26
440.433	20324.38
440.64	21297.17
440.847	21348.37
441.054	21434.38
441.261	22943.74
441.467	22562.81
441.674	23164.92
441.881	23902.18
442.088	23709.68
442.294	23523.31
442.501	24301.54
442.708	25032.66
442.914	26087.37
443.121	26836.92
443.328	26306.5
443.534	27903.92
443.741	27314.1
443.948	26945.47
444.154	28964.76
444.361	28665.76
444.568	28923.8
444.774	28852.13
444.981	28872.6
445.187	29837.2
445.394	31375.22
445.6	30738.3
445.807	33521.49
446.013	32116.59
446.22	32788.32
446.426	33959.76
446.633	34463.56
446.839	35518.26
447.046	33935.18
447.252	35831.6
447.459	35956.53
447.665	35465.02
447.871	37656.34
448.078	38819.59
448.284	36896.55
448.491	37984.02
448.697	39300.86
448.903	40447.72
449.11	39970.55
449.316	39460.6
449.522	40122.1
449.728	41336.54
449.935	41883.35
450.141	41721.56
450.347	42501.84
450.553	40894.18
450.76	41248.48
450.966	42557.13
451.172	42178.26
451.378	43245.25
451.584	42460.88
451.791	43171.52
451.997	43181.76
452.203	43876.02
452.409	43507.39
452.615	43384.51
452.821	41971.41
453.027	41303.78
453.233	43337.41
453.44	41258.72
453.646	42208.98
453.852	42430.16
454.058	42837.7
454.264	41148.13
454.47	42716.87
454.676	41484
454.882	42264.27
455.088	38897.41
455.294	39657.21
455.5	39737.08
455.705	40371.95
455.911	38477.58
456.117	37914.39
456.323	37279.52
456.529	34973.5
456.735	36642.6
456.941	36071.21
457.147	35172.16
457.352	34293.58
457.558	33800.02
457.764	33935.18
457.97	32964.45
458.176	32661.35
458.381	32431.97
458.587	30728.06
458.793	30904.19
458.999	29353.88
459.204	31436.66
459.41	30773.12
459.616	28409.76
459.821	28506.02
460.027	28393.38
460.233	27668.4
460.438	26421.19
460.644	26703.81
460.85	25632.72
461.055	24817.63
461.261	24897.5
461.466	23123.96
461.672	22542.33
461.878	24307.68
462.083	22685.69
462.289	22159.36
462.494	21899.27
462.7	21063.7
462.905	20596.76
463.111	21096.47
463.316	21418
463.522	20768.79
463.727	21067.8
463.932	20875.29
464.138	20670.49
464.343	20881.43
464.549	19974.18
464.754	21131.28
464.959	20834.33
465.165	20480.03
465.37	19681.32
465.575	19269.68
465.781	19998.76
465.986	20221.98
466.191	19501.1
466.397	19040.31
466.602	18186.3
466.807	18896.95
467.012	18907.19
467.218	19042.35
467.423	18499.64
467.628	18675.77
467.833	19353.65
468.038	18862.13
468.244	17899.59
468.449	18860.09
468.654	18161.73
468.859	18030.66
469.064	18147.39
469.269	17395.79
469.474	17549.39
469.679	17766.47
469.885	17324.11
470.09	17662.02
470.295	17442.89
470.5	17127.5
470.705	17004.63
470.91	16826.45
471.115	16525.4
471.32	16787.54
471.525	16924.76
471.73	16463.96
471.935	16345.18
472.139	15562.86
472.344	15806.56
472.549	15734.89
472.754	15454.31
472.959	15132.78
473.164	14743.67
473.369	14671.99
473.574	15208.56
473.778	15061.1
473.983	14671.99
474.188	14749.81
474.393	14332.03
474.598	14342.27
474.802	14065.79
475.007	14194.81
475.212	14203
475.417	13580.42
475.621	13408.39
475.826	13727.88
476.031	13340.81
476.235	13240.46
476.44	13209.74
476.645	12963.98
476.849	13054.09
477.054	13099.15
477.259	12513.43
477.463	12935.31
477.668	12320.92
477.872	12677.27
478.077	12241.05
478.282	12243.1
478.486	12054.69
478.691	11808.93
478.895	11628.71
479.1	12017.82
479.304	12085.4
479.509	11481.25
479.713	11770.02
479.918	11468.97
480.122	11634.85
480.326	11630.76
480.531	11370.66
480.735	11356.33
480.94	11446.44
481.144	11634.85
481.348	11151.53
481.553	11370.66
481.757	10866.86
481.961	11174.06
482.166	11454.63
482.37	11311.27
482.574	10934.45
482.778	11202.73
482.983	11395.24
483.187	11081.9
483.391	11169.96
483.595	11227.31
483.8	10991.79
484.004	11182.25
484.208	11202.73
484.412	10944.69
484.616	11309.22
484.821	11270.31
485.025	11030.7
485.229	11331.75
485.433	11092.14
485.637	11378.86
485.841	11210.92
486.045	11255.98
486.249	11245.74
486.453	11161.77
486.657	11073.71
486.861	11270.31
487.065	11022.51
487.269	11266.22
487.473	10803.38
487.677	11174.06
487.881	11251.88
488.085	11161.77
488.289	11425.96
488.493	11292.84
488.697	11296.94
488.901	11227.31
489.105	11333.8
489.309	11325.61
489.512	11354.28
489.716	11319.46
489.92	11255.98
490.124	11522.21
490.328	11686.05
490.531	11270.31
490.735	11597.99
490.939	11528.36
491.143	11430.05
491.346	11497.64
491.55	11716.77
491.754	11702.43
491.958	11675.81
492.161	11706.53
492.365	11931.81
492.569	12042.4
492.772	11712.67
492.976	11892.9
493.18	11923.62
493.383	12327.07
493.587	12314.78
493.79	12447.9
493.994	12333.21
494.197	12535.96
494.401	12394.65
494.605	12646.55
494.808	12699.8
495.012	12744.85
495.215	12755.09
495.419	12894.35
495.622	12806.29
495.825	13174.92
496.029	12976.27
496.232	13582.47
496.436	13478.02
496.639	13824.13
496.843	13711.49
497.046	13975.68
497.249	14014.59
497.453	14196.86
497.656	14381.18
497.859	14581.88
498.063	14491.77
498.266	14825.59
498.469	14715
498.673	14927.99
498.876	15173.74
499.079	15337.58
499.282	15470.7
499.485	15976.55
499.689	15812.71
499.892	15941.73
500.095	15980.64
500.298	16353.37
500.501	16164.96
500.705	17086.54
500.908	16963.67
501.111	16803.92
501.314	17350.73
501.517	17739.85
501.72	17573.96
501.923	17817.67
502.126	18184.26
502.329	18196.54
502.532	18464.83
502.735	18411.58
502.938	18989.11
503.141	18899
503.344	19568.68
503.547	19484.72
503.75	19673.13
503.953	19857.45
504.156	20006.95
504.359	20189.22
504.562	20570.14
504.765	20850.71
504.968	20803.61
505.17	21106.71
505.373	21313.55
505.576	21628.94
505.779	22026.25
505.982	22159.36
506.185	22253.57
506.387	22423.55
506.59	22749.18
506.793	22937.59
506.996	22970.36
507.198	23494.64
507.401	23470.06
507.604	23588.85
507.807	24098.79
508.009	24211.43
508.212	24401.89
508.415	24729.56
508.617	25253.84
508.82	25397.2
509.022	25360.34
509.225	25921.48
509.428	25987.02
509.63	26120.13
509.833	26103.75
510.035	26955.71
510.238	26961.85
510.44	27324.34
510.643	27592.62
510.845	27643.82
511.048	27770.8
511.25	28186.54
511.453	28362.66
511.655	29321.11
511.858	29007.77
512.06	29278.1
512.262	29525.91
512.465	29538.19
512.667	30181.26
512.87	30232.46
513.072	30449.54
513.274	30846.85
513.477	31190.91
513.679	31481.72
513.881	31344.5
514.084	31868.78
514.286	31997.81
514.488	32464.74
514.69	32980.83
514.893	33361.75
515.095	33208.15
515.297	33591.12
515.499	34031.44
515.701	34084.69
515.904	34365.26
516.106	34512.71
516.308	34926.4
516.51	35340.09
516.712	35587.89
516.914	36011.82
517.116	36489
517.318	36505.38
517.52	36923.17
517.722	37015.33
517.925	37349.15
518.127	37957.39
518.329	38002.45
518.531	37883.67
518.733	38731.53
518.935	38680.33
519.136	38874.88
519.338	39745.27
519.54	39317.25
519.742	40271.6
519.944	40335.09
520.146	40554.22
520.348	40787.69
520.55	40625.9
520.752	40955.62
520.954	41965.27
521.155	41395.93
521.357	42520.27
521.559	42548.94
521.761	43050.69
521.963	42702.54
522.164	43232.96
522.366	43427.52
522.568	44099.25
522.77	43802.3
522.971	44558
523.173	44156.6
523.375	44764.84
523.576	44506.8
523.778	44750.51
523.98	45395.62
524.181	45262.5
524.383	45891.23
524.584	45999.77
524.786	46362.26
524.988	45944.47
525.189	46587.53
525.391	46657.17
525.592	46743.18
525.794	47443.59
525.995	47308.42
526.197	47537.79
526.398	47152.77
526.6	47855.23
526.801	47922.81
527.003	47996.54
527.204	48006.78
527.406	48838.25
527.607	48465.52
527.808	48987.75
528.01	48242.29
528.211	48701.04
528.412	49624.67
528.614	49038.95
528.815	48971.37
529.016	49546.85
529.218	48946.79
529.419	49559.14
529.62	49413.73
529.822	49839.71
530.023	49112.68
530.224	49522.27
530.425	49469.03
530.626	49524.32
530.828	49258.09
531.029	50703.95
531.23	49659.49
531.431	49800.8
531.632	50009.69
531.833	49929.82
532.035	50083.42
532.236	50507.35
532.437	50728.53
532.638	50134.62
532.839	50898.51
533.04	50708.05
533.241	49716.83
533.442	51027.53
533.643	50794.06
533.844	50507.35
534.045	50314.84
534.246	50134.62
534.447	50728.53
534.648	50538.07
534.849	50937.42
535.05	50458.2
535.251	50763.34
535.451	50271.83
535.652	50982.48
535.853	50847.31
536.054	50368.08
536.255	50945.61
536.456	50390.61
536.657	51400.26
536.857	50783.82
537.058	51009.1
537.259	50718.29
537.46	50945.61
537.66	51019.34
537.861	51420.74
538.062	50310.74
538.263	50712.14
538.463	51052.11
538.664	50918.99
538.865	50738.77
539.065	50916.94
539.266	50011.74
539.466	51101.26
539.667	50208.34
539.868	50994.76
540.068	50499.15
540.269	50683.47
540.469	50777.68
540.67	50284.12
540.87	50011.74
541.071	50548.31
541.271	50859.6
541.472	50765.39
541.672	50482.77
541.873	50275.93
542.073	50265.69
542.274	50830.93
542.474	50550.35
542.675	50431.57
542.875	51076.68
543.075	50521.68
543.276	50159.19
543.476	51117.64
543.676	50437.72
543.877	50523.73
544.077	50130.52
544.277	50396.76
544.478	50622.03
544.678	50978.38
544.878	50679.38
545.078	50628.18
545.279	50519.63
545.479	50298.45
545.679	50906.7
545.879	50208.34
546.079	50359.89
546.28	50208.34
546.48	49872.48
546.68	51078.73
546.88	50433.62
547.08	50210.39
547.28	50204.25
547.48	49577.57
547.68	50101.85
547.88	50218.58
548.081	50202.2
548.281	50230.87
548.481	49841.76
548.681	50515.54
548.881	50198.1
549.081	50335.32
549.28	50089.56
549.48	50505.3
549.68	49811.04
549.88	50734.67
550.08	49956.44
550.28	50390.61
550.48	49737.31
550.68	50343.51
550.88	49892.96
551.08	50234.97
551.279	50171.48
551.479	49571.42
551.679	50169.43
551.879	49774.17
552.079	49950.3
552.278	49995.35
552.478	50335.32
552.678	49671.78
552.878	50241.11
553.077	49866.33
553.277	49964.63
553.477	50378.32
553.676	49360.48
553.876	49745.5
554.076	49741.41
554.275	49950.3
554.475	48746.09
554.674	50239.06
554.874	50021.98
555.074	49571.42
555.273	49804.89
555.473	50003.55
555.672	48737.9
555.872	49092.2
556.071	49725.02
556.271	49722.97
556.47	49182.31
556.67	49192.55
556.869	49679.97
557.068	49333.86
557.268	48905.84
557.467	49165.93
557.667	49405.54
557.866	49061.48
558.065	48989.8
558.265	48715.37
558.464	48905.84
558.663	49383.01
558.863	48152.18
559.062	49251.94
559.261	48529.01
559.461	49401.44
559.66	48387.7
559.859	48678.51
560.058	47881.85
560.258	48762.48
560.457	48205.43
560.656	48717.42
560.855	47791.74
561.054	48262.77
561.253	48119.42
561.453	48350.84
561.652	48324.21
561.851	48547.44
562.05	47879.8
562.249	48176.76
562.448	48311.92
562.647	48268.92
562.846	48049.78
563.045	47697.53
563.244	47267.46
563.443	47828.6
563.642	47425.15
563.841	47564.42
564.04	47435.39
564.239	47701.63
564.438	47316.61
564.637	47816.32
564.836	47394.43
565.035	47064.71
565.234	47132.29
565.432	46915.21
565.631	46849.67
565.83	46892.68
566.029	46694.03
566.228	46675.6
566.427	46120.6
566.625	46481.04
566.824	45962.9
567.023	46431.89
567.222	45790.87
567.42	46655.12
567.619	46337.68
567.818	46126.74
568.016	46026.39
568.215	46337.68
568.414	45805.21
568.612	46149.27
568.811	45500.06
569.01	45672.09
569.208	45260.45
569.407	45477.54
569.605	44988.07
569.804	45659.8
570.002	44945.06
570.201	45127.33
570.4	44736.17
570.598	45375.14
570.797	44674.73
570.995	45244.07
571.193	44150.45
571.392	45199.01
571.59	44572.33
571.789	44392.11
571.987	44641.96
572.186	44789.42
572.384	44185.27
572.582	44392.11
572.781	44240.56
572.979	43925.18
573.177	44072.63
573.376	44297.91
573.574	43540.16
573.772	43951.8
573.971	43781.82
574.169	43286.21
574.367	43142.85
574.565	43204.29
574.763	43241.15
574.962	43364.03
575.16	42944.2
575.358	43144.9
575.556	42632.91
575.754	43331.26
575.952	42376.91
576.151	42993.35
576.349	42196.69
576.547	42530.51
576.745	42016.47
576.943	42567.37
577.141	42198.74
577.339	42286.8
577.537	41803.48
577.735	41987.8
577.933	41594.59
578.131	41957.08
578.329	41432.8
578.527	41637.59
578.725	41354.97
578.923	41488.09
579.121	41273.06
579.319	41002.72
579.516	41293.54
579.714	41402.08
579.912	40617.71
580.11	40566.51
580.308	40910.57
580.506	40417
580.704	40158.96
580.901	40574.7
581.099	40595.18
581.297	40251.12
581.495	39984.88
581.692	40402.67
581.89	39638.78
582.088	40247.02
582.285	39683.83
582.483	40191.73
582.681	39909.11
582.878	39763.7
583.076	39321.34
583.274	39601.91
583.471	39032.58
583.669	39393.02
583.866	38620.94
584.064	39284.48
584.262	38690.57
584.459	39376.64
584.657	38442.76
584.854	38907.65
585.052	38573.83
585.249	38489.87
585.447	38665.99
585.644	37869.33
585.841	38010.64
586.039	38059.79
586.236	37486.36
586.434	37590.81
586.631	37379.87
586.828	37533.46
587.026	37633.82
587.223	37599
587.42	37469.98
587.618	37244.7
587.815	37334.81
588.012	36679.46
588.21	36593.45
588.407	37478.17
588.604	36687.65
588.801	36556.58
588.999	36169.52
589.196	36265.77
589.393	36384.55
589.59	36372.27
589.787	35952.43
589.984	36415.27
590.182	35882.8
590.379	36020.02
590.576	35413.82
590.773	35680.05
590.97	35458.87
591.167	35907.38
591.364	34887.49
591.561	35184.44
591.758	34922.3
591.955	35127.1
592.152	35057.47
592.349	34987.84
592.546	35012.42
592.743	34928.45
592.94	34217.8
593.137	34912.06
593.334	34608.97
593.531	33994.57
593.727	34477.9
593.924	34076.49
594.121	33763.15
594.318	34094.93
594.515	33576.79
594.712	33873.74
594.908	33654.61
595.105	33806.16
595.302	33361.75
595.499	33750.87
595.696	33582.93
595.892	32980.83
596.089	33386.33
596.286	33085.28
596.482	32773.99
596.679	32628.58
596.876	32878.43
597.072	32890.72
597.269	32354.15
597.466	32427.88
597.662	32460.65
597.859	32319.34
598.055	32100.2
598.252	32063.34
598.448	32014.19
598.645	32057.2
598.841	31436.66
599.038	31774.58
599.234	31459.19
599.431	31227.77
599.627	31399.8
599.824	31512.44
600.02	31334.26
600.217	31436.66
600.413	31166.33
600.609	30992.25
600.806	31010.68
601.002	30898.05
601.198	30482.31
601.395	30609.28
601.591	30680.96
601.787	30664.58
601.984	30232.46
602.18	30730.11
602.376	30132.11
602.572	29847.44
602.769	30044.04
602.965	29468.56
603.161	29777.81
603.357	29720.46
603.553	29487
603.75	29589.39
603.946	29546.39
604.142	29568.91
604.338	28915.61
604.534	29396.88
604.73	28825.5
604.926	28909.47
605.122	28995.48
605.318	28878.75
605.514	28682.14
605.71	28692.38
605.906	28665.76
606.102	28719.01
606.298	28321.7
606.494	28284.84
606.69	28231.59
606.886	28348.32
607.082	27785.13
607.278	28223.4
607.474	27740.08
607.67	27789.23
607.866	27690.93
608.062	27916.2
608.257	27615.15
608.453	27639.73
608.649	27852.72
608.845	27303.86
609.041	27656.11
609.236	27428.79
609.432	27238.33
609.628	27557.81
609.824	27213.75
610.019	27056.06
610.215	27047.86
610.411	27033.53
610.606	27056.06
610.802	26963.9
610.998	26886.08
611.193	26859.45
611.389	26650.56
611.584	26681.28
611.78	26204.1
611.976	26513.34
612.171	26437.57
612.367	26560.45
612.562	26316.74
612.758	25921.48
612.953	25987.02
613.149	26359.75
613.344	26101.7
613.539	26695.61
613.735	26003.4
613.93	26027.98
614.126	25884.62
614.321	26118.09
614.517	25896.91
614.712	25851.85
614.907	25491.41
615.103	25919.43
615.298	25796.56
615.493	26105.8
615.688	25141.21
615.884	25794.51
616.079	25216.98
616.274	25198.55
616.47	25411.54
616.665	25229.27
616.86	25284.56
617.055	25196.5
617.25	24836.06
617.445	25468.88
617.641	24758.24
617.836	25319.38
618.031	24653.79
618.226	24995.8
618.421	24281.06
618.616	24786.91
618.811	24489.95
619.006	24418.27
619.201	23896.04
619.396	24248.29
619.591	23885.8
619.786	24172.52
619.981	23904.23
620.176	24094.69
620.371	23578.61
620.566	23693.29
620.761	23470.06
620.956	23869.42
621.151	23058.42
621.346	23230.45
621.541	23044.09
621.735	23078.9
621.93	22632.44
622.125	23015.41
622.32	22622.2
622.515	22841.34
622.709	22491.13
622.904	22253.57
623.099	22245.38
623.294	22482.94
623.488	21868.55
623.683	21901.32
623.878	21798.92
624.072	21524.49
624.267	21491.73
624.462	21471.25
624.656	21121.04
624.851	21362.7
625.046	21278.74
625.24	21069.84
625.435	21073.94
625.629	20860.95
625.824	20664.35
626.018	20527.13
626.213	20330.53
626.407	20406.3
626.602	20189.22
626.796	20277.28
626.991	20346.91
627.185	20101.15
627.38	19912.74
627.574	19742.76
627.768	19386.41
627.963	19615.79
628.157	19193.9
628.352	19269.68
628.546	19095.6
628.74	19181.62
628.935	19030.07
629.129	19085.36
629.323	18786.36
629.517	18597.95
629.712	18442.3
629.906	18503.74
630.1	18260.03
630.294	18241.6
630.489	18176.06
630.683	18022.47
630.877	17702.98
631.071	17745.99
631.265	17739.85
631.459	17481.8
631.653	17512.52
631.848	17420.36
632.042	17152.08
632.236	17545.29
632.43	17195.09
632.624	17211.47
632.818	17018.96
633.012	16662.62
633.206	16765.01
633.4	16816.21
633.594	16535.64
633.788	16609.37
633.982	16621.66
634.176	16730.2
634.369	16238.69
634.563	16183.39
634.757	16070.75
634.951	16277.6
635.145	16095.33
635.339	15876.2
635.533	15865.96
635.726	15493.22
635.92	15573.1
636.114	15624.29
636.308	15415.4
636.501	15765.6
636.695	15542.38
636.889	15296.62
637.083	15206.51
637.276	15079.54
637.47	15159.41
637.664	15005.81
637.857	14813.3
638.051	14868.59
638.244	14661.75
638.438	14545.02
638.632	14751.86
638.825	14422.14
639.019	14438.52
639.212	14258.3
639.406	14182.52
639.599	13996.16
639.793	14442.62
639.986	13848.71
640.18	13609.09
640.373	14022.78
640.567	13750.4
640.76	13731.97
640.954	13652.1
641.147	13711.49
641.34	13480.07
641.534	13535.37
641.727	13387.91
641.92	13293.71
642.114	13262.99
642.307	13275.27
642.5	12998.8
642.694	12800.15
642.887	12949.65
643.08	13019.28
643.273	12837.01
643.467	12490.9
643.66	12675.22
643.853	12566.68
644.046	12613.78
644.239	12781.71
644.432	12564.63
644.626	12318.87
644.819	12230.81
645.012	12359.83
645.205	12339.35
645.398	12069.02
645.591	11958.43
645.784	11886.75
645.977	11847.84
646.17	11917.47
646.363	11743.39
646.556	11681.96
646.749	11767.97
646.942	11706.53
647.135	11190.44
647.328	11587.75
647.521	11397.29
647.714	11184.3
647.907	10989.74
648.099	11237.55
648.292	11372.71
648.485	11163.82
648.678	10950.83
648.871	11012.27
649.064	10524.85
649.256	10889.39
649.449	11051.18
649.642	10811.57
649.835	10475.7
650.027	10870.96
650.22	10432.69
650.413	10533.04
650.605	10444.98
650.798	10512.56
650.991	10309.82
651.183	10277.05
651.376	10240.19
651.568	10139.83
651.761	10258.62
651.954	10229.95
652.146	10037.44
652.339	10019
652.531	9840.83
652.724	9978.05
652.916	9611.46
653.109	9687.23
653.301	9670.85
653.494	9808.06
653.686	9730.24
653.879	9746.62
654.071	9414.85
654.263	9541.83
654.456	9289.93
654.648	9578.69
654.84	9244.87
655.033	9240.78
655.225	9074.89
655.417	9191.63
655.61	9179.34
655.802	9265.35
655.994	9142.47
656.186	9083.08
656.379	8876.24
656.571	8958.16
656.763	8952.01
656.955	8890.57
657.148	8997.07
657.34	8919.25
657.532	8716.5
657.724	8620.24
657.916	8710.35
658.108	8530.13
658.3	8282.33
658.492	8540.37
658.684	8206.55
658.876	8515.8
659.068	8374.49
659.26	8220.89
659.452	8386.77
659.644	8210.65
659.836	8005.85
660.028	8050.91
660.22	8102.11
660.412	8075.48
660.604	8075.48
660.796	7923.93
660.988	7979.23
661.18	7803.1
661.372	7704.8
661.563	7966.94
661.755	7725.28
661.947	7817.44
662.139	7733.47
662.331	7721.18
662.522	7614.69
662.714	7672.03
662.906	7583.97
663.097	7514.34
663.289	7504.1
663.481	7168.23
663.673	7465.19
663.864	7373.03
664.056	7221.48
664.247	7350.5
664.439	7102.7
664.631	7043.31
664.822	7221.48
665.014	7149.8
665.205	6920.43
665.397	7014.63
665.588	7010.54
665.78	6910.19
665.971	6932.72
666.163	6883.56
666.354	7002.35
666.546	6674.67
666.737	6736.11
666.929	6799.6
667.12	6826.22
667.311	6629.62
667.503	6635.76
667.694	6586.61
667.885	6777.07
668.077	6684.91
668.268	6492.4
668.459	6672.62
668.651	6488.31
668.842	6428.92
669.033	6482.16
669.224	6273.27
669.416	6303.99
669.607	6383.86
669.798	6269.17
669.989	6285.56
670.18	6258.93
670.371	6367.48
670.563	6185.21
670.754	6269.17
670.945	6154.49
671.136	6134.01
671.327	6111.48
671.518	6009.08
671.709	6156.54
671.9	6037.75
672.091	5947.64
672.282	6043.9
672.473	5925.11
672.664	6068.47
672.855	5914.88
673.046	5941.5
673.237	6054.14
673.428	5894.4
673.619	5880.06
673.809	5847.29
674	5746.94
674.191	5783.81
674.382	5619.97
674.573	5724.41
674.764	5693.69
674.954	5644.54
675.145	5638.4
675.336	5675.26
675.527	5712.13
675.717	5611.78
675.908	5558.53
676.099	5591.3
676.289	5325.06
676.48	5406.98
676.671	5396.74
676.861	5585.15
677.052	5314.82
677.243	5550.34
677.433	5363.97
677.624	5599.49
677.814	5394.69
678.005	5423.36
678.195	5273.86
678.386	5380.36
678.576	5347.59
678.767	5282.05
678.957	5282.05
679.148	5320.96
679.338	5150.98
679.529	5157.13
679.719	5083.4
679.909	5212.42
680.1	5187.85
680.29	5210.37
680.481	5150.98
680.671	5024.01
680.861	5036.3
681.052	5173.51
681.242	5130.5
681.432	5263.62
681.622	4901.13
681.813	5077.26
682.003	5060.87
682.193	5116.17
682.383	5044.49
682.573	4872.46
682.764	5048.58
682.954	5024.01
683.144	4997.39
683.334	4991.24
683.524	4948.23
683.714	4962.57
683.904	4876.55
684.094	4862.22
684.284	4925.71
684.474	4821.26
684.664	4897.03
684.854	4917.51
685.044	4811.02
685.234	4815.12
685.424	4915.47
685.614	4788.49
685.804	4851.98
685.994	4745.48
686.184	4872.46
686.374	4686.09
686.564	4548.88
686.753	4718.86
686.943	4645.13
687.133	4675.85
687.323	4524.3
687.513	4626.7
687.702	4587.79
687.892	4561.17
688.082	4589.84
688.272	4692.24
688.461	4552.98
688.651	4526.35
688.841	4518.16
689.03	4444.43
689.22	4280.6
689.41	4462.87
689.599	4301.08
689.789	4434.19
689.979	4264.21
690.168	4354.32
690.358	4190.49
690.547	4342.04
690.737	4325.65
690.926	4118.81
691.116	4086.04
691.305	4200.73
691.495	4147.48
691.684	4188.44
691.874	4233.49
692.063	4049.18
692.252	4049.18
692.442	4057.37
692.631	4159.77
692.82	4061.46
693.01	4116.76
693.199	3914.01
693.388	3811.61
693.578	4020.5
693.767	3983.64
693.956	3961.11
694.146	3922.2
694.335	3819.8
694.524	3789.08
694.713	3836.19
694.902	3897.63
695.092	3821.85
695.281	3821.85
695.47	3764.51
695.659	3805.47
695.848	3762.46
696.037	3844.38
696.226	3723.55
696.415	3748.12
696.604	3756.32
696.793	3649.82
696.982	3651.87
697.171	3733.79
697.36	3705.12
697.549	3537.18
697.738	3631.39
697.927	3651.87
698.116	3645.73
698.305	3627.29
698.494	3600.67
698.683	3623.2
698.872	3707.16
699.061	3660.06
699.25	3524.9
699.438	3787.04
699.627	3500.32
699.816	3598.62
700.005	3528.99
700.193	3463.46
700.382	3553.57
700.571	3541.28
700.76	3463.46
700.948	3684.64
701.137	3528.99
701.326	3490.08
701.514	3426.59
701.703	3555.62
701.892	3520.8
702.08	3543.33
702.269	3377.44
702.457	3299.62
702.646	3455.26
702.834	3414.31
703.023	3402.02
703.212	3299.62
703.4	3299.62
703.589	3229.99
703.777	3420.45
703.965	3295.52
704.154	3483.94
704.342	3383.59
704.531	3289.38
704.719	3408.16
704.907	3330.34
705.096	3395.87
705.284	3275.04
705.472	3170.6
705.661	3229.99
705.849	3293.48
706.037	3209.51
706.226	3201.32
706.414	3342.63
706.602	3260.71
706.79	3418.4
706.979	3203.36
707.167	3203.36
707.355	3248.42
707.543	3254.56
707.731	3309.86
707.919	3178.79
708.107	3199.27
708.296	3242.28
708.484	3197.22
708.672	3334.43
708.86	3152.17
709.048	3178.79
709.236	3234.08
709.424	3250.47
709.612	3045.67
709.8	3180.84
709.988	3137.83
710.176	3176.74
710.364	3189.03
710.551	3135.78
710.739	3133.73
710.927	3021.1
711.115	3262.76
711.303	3160.36
711.491	3107.11
711.679	3178.79
711.866	3246.37
712.054	2994.47
712.242	3127.59
712.43	3074.34
712.617	3111.21
712.805	3068.2
712.993	3113.25
713.181	3053.86
713.368	3094.82
713.556	3225.89
713.744	3143.97
713.931	3113.25
714.119	2963.75
714.306	3068.2
714.494	3037.48
714.682	3064.1
714.869	3090.73
715.057	3078.44
715.244	3086.63
715.432	3236.13
715.619	3119.4
715.807	3143.97
715.994	3135.78
716.182	3053.86
716.369	3055.91
716.556	3066.15
716.744	3080.49
716.931	3057.96
717.119	3094.82
717.306	3047.72
717.493	3002.66
717.681	2947.37
717.868	3025.19
718.055	2967.85
718.242	3053.86
718.43	3060.01
718.617	3023.14
718.804	3094.82
718.991	3105.06
719.179	3066.15
719.366	3045.67
719.553	2881.83
719.74	2990.38
719.927	2961.7
720.114	2883.88
720.301	2900.27
720.488	2894.12
720.676	2996.52
720.863	3017
721.05	3074.34
721.237	3082.53
721.424	2976.04
721.611	2933.03
721.798	2844.97
721.985	3006.76
722.172	2947.37
722.358	2996.52
722.545	2881.83
722.732	2971.94
722.919	2853.16
723.106	3051.81
723.293	3019.05
723.48	2912.55
723.667	2840.87
723.853	2955.56
724.04	3004.71
724.227	3002.66
724.414	2867.5
724.6	2814.25
724.787	2969.9
724.974	2976.04
725.161	2920.74
725.347	2804.01
725.534	2711.85
725.72	2920.74
725.907	2945.32
726.094	2914.6
726.28	2906.41
726.467	2902.31
726.653	2916.65
726.84	2756.91
727.027	2910.5
727.213	2937.13
727.4	2836.78
727.586	2842.92
727.773	2758.96
727.959	2830.63
728.145	2820.39
728.332	2677.04
728.518	2857.26
728.705	2896.17
728.891	2715.95
729.077	2951.46
729.264	2826.54
729.45	2820.39
729.636	2873.64
729.823	2693.42
730.009	2834.73
730.195	2724.14
730.382	2933.03
730.568	2767.15
730.754	2959.66
730.94	2847.02
731.126	2765.1
731.313	2777.39
731.499	2777.39
731.685	2840.87
731.871	2652.46
732.057	2795.82
732.243	2607.41
732.429	2734.38
732.615	2722.09
732.801	2763.05
732.987	2793.77
733.173	2629.93
733.359	2810.15
733.545	2654.51
733.731	2785.58
733.917	2750.76
734.103	2775.34
734.289	2783.53
734.475	2691.37
734.661	2582.83
734.847	2709.8
735.033	2693.42
735.219	2701.61
735.404	2672.94
735.59	2640.17
735.776	2613.55
735.962	2593.07
736.148	2642.22
736.333	2615.6
736.519	2570.54
736.705	2646.32
736.89	2691.37
737.076	2505.01
737.262	2578.73
737.447	2486.58
737.633	2527.53
737.819	2607.41
738.004	2591.02
738.19	2562.35
738.375	2470.19
738.561	2478.38
738.747	2564.4
738.932	2574.64
739.118	2535.73
739.303	2464.05
739.489	2505.01
739.674	2521.39
739.859	2523.44
740.045	2515.25
740.23	2472.24
740.416	2449.71
740.601	2513.2
740.786	2488.62
740.972	2443.57
741.157	2355.51
741.342	2410.8
741.528	2361.65
741.713	2349.36
741.898	2396.46
742.084	2412.85
742.269	2386.22
742.454	2439.47
742.639	2400.56
742.824	2300.21
743.01	2357.55
743.195	2341.17
743.38	2388.27
743.565	2246.96
743.75	2404.66
743.935	2318.64
744.12	2390.32
744.305	2208.05
744.49	2216.24
744.675	2253.11
744.86	2128.18
745.045	2138.42
745.23	2111.8
745.415	2210.1
745.6	2193.72
745.785	2234.68
745.97	2150.71
746.155	2163
746.34	2226.48
746.525	2025.78
746.71	2126.13
746.895	2023.73
747.079	2087.22
747.264	2021.69
747.449	2113.85
747.634	1888.57
747.819	2087.22
748.003	1937.72
748.188	2007.35
748.373	1939.77
748.557	1921.34
748.742	1976.63
748.927	2033.97
749.111	1945.91
749.296	1919.29
749.481	1894.71
749.665	1923.38
749.85	1882.42
750.034	1857.85
750.219	1829.18
750.404	1841.47
750.588	1839.42
750.773	1759.55
750.957	1870.14
751.141	1868.09
751.326	1775.93
751.51	1798.46
751.695	1755.45
751.879	1706.3
752.064	1841.47
752.248	1648.96
752.432	1839.42
752.617	1661.24
752.801	1726.78
752.985	1689.92
753.17	1749.31
753.354	1775.93
753.538	1536.32
753.722	1685.82
753.907	1571.13
754.091	1702.2
754.275	1601.85
754.459	1603.9
754.643	1493.31
754.828	1593.66
755.012	1550.65
755.196	1585.47
755.38	1538.37
755.564	1620.28
755.748	1501.5
755.932	1524.03
756.116	1474.88
756.3	1444.16
756.484	1478.97
756.668	1435.97
756.852	1403.2
757.036	1517.89
757.22	1382.72
757.404	1429.82
757.588	1368.38
757.772	1349.95
757.956	1415.49
758.14	1427.78
758.323	1288.51
758.507	1292.61
758.691	1392.96
758.875	1448.26
759.059	1401.15
759.242	1280.32
759.426	1370.43
759.61	1251.65
759.794	1282.37
759.977	1284.42
760.161	1382.72
760.345	1317.19
760.528	1227.07
760.712	1251.65
760.895	1177.92
761.079	1349.95
761.263	1161.54
761.446	1175.88
761.63	1231.17
761.813	1220.93
761.997	1247.55
762.18	1194.31
762.364	1210.69
762.547	1222.98
762.731	1280.32
762.914	1239.36
763.098	1126.72
763.281	1155.4
763.464	1159.49
763.648	1163.59
763.831	1136.96
764.015	1053
764.198	1096
764.381	1063.24
764.564	1235.27
764.748	1120.58
764.931	1190.21
765.114	1145.16
765.297	1126.72
765.481	1079.62
765.664	1063.24
765.847	1067.33
766.03	1128.77
766.213	1151.3
766.397	1079.62
766.58	1077.57
766.763	1177.92
766.946	966.98
767.129	1102.15
767.312	1067.33
767.495	1053
767.678	1044.81
767.861	1139.01
768.044	1071.43
768.227	1128.77
768.41	1102.15
768.593	1098.05
768.776	1059.14
768.959	1030.47
769.142	1016.13
769.324	962.89
769.507	891.21
769.69	983.37
769.873	903.5
770.056	1020.23
770.239	997.7
770.421	1003.85
770.604	950.6
770.787	989.51
770.97	944.45
771.152	999.75
771.335	921.93
771.518	883.02
771.7	936.26
771.883	985.41
772.066	842.06
772.248	913.74
772.431	907.59
772.613	950.6
772.796	862.54
772.978	938.31
773.161	1007.94
773.343	897.35
773.526	915.78
773.708	741.71
773.891	868.68
774.073	950.6
774.256	784.71
774.438	975.17
774.621	788.81
774.803	872.78
774.985	874.82
775.168	766.28
775.35	854.34
775.532	811.34
775.715	813.38
775.897	893.26
776.079	801.1
776.261	805.19
776.444	799.05
776.626	856.39
776.808	753.99
776.99	745.8
777.173	737.61
777.355	717.13
777.537	708.94
777.719	760.14
777.901	743.75
778.083	764.23
778.265	688.46
778.447	774.47
778.629	690.51
778.811	631.12
778.993	713.03
779.175	725.32
779.357	639.31
779.539	670.03
779.721	735.56
779.903	678.22
780.085	588.11
780.267	706.89
780.449	629.07
780.631	721.23
780.812	639.31
780.994	612.68
781.176	659.79
781.358	659.79
781.54	563.53
781.721	624.97
781.903	608.59
782.085	620.88
782.267	670.03
782.448	622.92
782.63	651.6
782.812	536.91
782.993	594.25
783.175	575.82
783.357	577.87
783.538	493.9
783.72	547.15
783.901	502.09
784.083	596.3
784.264	551.24
784.446	553.29
784.627	530.77
784.809	502.09
784.99	502.09
785.172	489.81
785.353	573.77
785.535	543.05
785.716	516.43
785.897	487.76
786.079	448.85
786.26	483.66
786.441	489.81
786.623	530.77
786.804	498
786.985	469.33
787.167	426.32
787.348	440.65
787.529	473.42
787.71	520.53
787.891	465.23
788.073	538.96
788.254	448.85
788.435	457.04
788.616	469.33
788.797	442.7
788.978	422.22
789.159	438.61
789.34	469.33
789.522	432.46
789.703	379.22
789.884	371.02
790.065	393.55
790.246	452.94
790.427	461.13
790.607	426.32
790.788	389.46
790.969	405.84
791.15	438.61
791.331	407.89
791.512	393.55
791.693	401.74
791.874	323.92
792.054	448.85
792.235	446.8
792.416	399.7
792.597	344.4
792.778	362.83
792.958	360.78
793.139	346.45
793.32	371.02
793.5	368.98
793.681	409.94
793.862	315.73
794.042	358.74
794.223	407.89
794.404	360.78
794.584	295.25
794.765	319.82
794.945	354.64
795.126	334.16
795.306	422.22
795.487	358.74
795.667	426.32
795.848	385.36
796.028	260.43
796.209	377.17
796.389	307.54
796.57	373.07
796.75	303.44
796.93	299.34
797.111	319.82
797.291	303.44
797.471	383.31
797.652	332.11
797.832	303.44
798.012	291.15
798.192	254.29
798.373	266.58
798.553	254.29
798.733	362.83
798.913	332.11
799.093	368.98
799.274	375.12
799.454	264.53
799.634	299.34
799.814	323.92
799.994	297.3
800.174	289.1
800.354	287.06
800.534	219.47
800.714	172.37
800.894	299.34
801.074	219.47
801.254	268.63
801.434	254.29
801.614	268.63
801.794	274.77
801.974	842.06
802.154	198.99
802.334	299.34
802.514	282.96
802.693	252.24
802.873	258.39
803.053	268.63
803.233	246.1
803.413	237.91
803.592	299.34
803.772	297.3
803.952	289.1
804.131	211.28
804.311	315.73
804.491	227.67
804.67	246.1
804.85	221.52
805.03	291.15
805.209	225.62
805.389	227.67
805.568	229.71
805.748	201.04
805.928	303.44
806.107	237.91
806.287	211.28
806.466	246.1
806.646	229.71
806.825	223.57
807.004	211.28
807.184	276.82
807.363	293.2
807.543	203.09
807.722	213.33
807.901	278.87
808.081	268.63
808.26	174.42
808.439	291.15
808.619	170.32
808.798	215.38
808.977	217.43
809.156	203.09
809.336	233.81
809.515	244.05
809.694	143.7
809.873	176.47
810.052	188.75
810.231	242
810.411	229.71
810.59	139.6
810.769	184.66
810.948	209.23
811.127	203.09
811.306	186.71
811.485	211.28
811.664	260.43
811.843	151.89
812.022	153.94
812.201	151.89
812.38	184.66
812.559	209.23
812.737	254.29
812.916	131.41
813.095	88.4
813.274	221.52
813.453	213.33
813.632	223.57
813.811	256.34
813.989	176.47
814.168	246.1
814.347	102.74
814.526	207.19
814.704	219.47
814.883	221.52
815.062	198.99
815.24	135.51
815.419	61.78
815.598	237.91
815.776	110.93
815.955	162.13
816.133	104.79
816.312	168.27
816.49	115.03
816.669	90.45
816.847	219.47
817.026	135.51
817.204	102.74
817.383	182.61
817.561	211.28
817.74	242
817.918	135.51
818.097	176.47
818.275	115.03
818.453	143.7
818.632	135.51
818.81	246.1
818.988	180.56
819.167	133.46
819.345	102.74
819.523	110.93
819.701	119.12
819.879	155.99
820.058	174.42
820.236	106.84
820.414	223.57
820.592	112.98
820.77	106.84
820.948	137.56
821.127	188.75
821.305	170.32
821.483	121.17
821.661	110.93
821.839	123.22
822.017	84.31
822.195	219.47
822.373	182.61
822.551	76.12
822.729	125.27
822.907	209.23
823.085	184.66
823.262	153.94
823.44	145.75
823.618	53.59
823.796	94.55
823.974	98.64
824.152	233.81
824.329	78.16
824.507	217.43
824.685	137.56
824.863	170.32
825.04	108.88
825.218	119.12
825.396	82.26
825.574	139.6
825.751	153.94
825.929	172.37
826.107	53.59
826.284	98.64
826.462	147.8
826.639	153.94
826.817	125.27
826.994	135.51
827.172	55.64
827.349	162.13
827.527	121.17
827.704	133.46
827.882	190.8
828.059	100.69
828.237	110.93
828.414	155.99
828.591	117.08
828.769	20.82
828.946	100.69
829.124	137.56
829.301	121.17
829.478	190.8
829.655	121.17
829.833	67.92
830.01	96.6
830.187	158.03
830.364	112.98
830.542	127.32
830.719	102.74
830.896	78.16
831.073	133.46
831.25	98.64
831.427	178.51
831.604	98.64
831.782	39.25
831.959	84.31
832.136	76.12
832.313	131.41
832.49	129.36
832.667	80.21
832.844	67.92
833.021	182.61
833.198	121.17
833.374	35.16
833.551	55.64
833.728	88.4
833.905	94.55
834.082	33.11
834.259	67.92
834.436	45.4
834.612	63.83
834.789	166.23
834.966	59.73
835.143	100.69
835.319	-11.95
835.496	158.03
835.673	137.56
835.85	137.56
836.026	35.16
836.203	117.08
836.38	96.6
836.556	135.51
836.733	106.84
836.909	102.74
837.086	39.25
837.262	-1.71
837.439	100.69
837.616	41.3
837.792	102.74
837.968	153.94
838.145	-24.23
838.321	100.69
838.498	96.6
838.674	6.49
838.851	59.73
839.027	31.06
839.203	0.34
839.38	147.8
839.556	55.64
839.732	92.5
839.909	37.2
840.085	80.21
840.261	-18.09
840.437	180.56
840.614	39.25
840.79	180.56
840.966	90.45
841.142	35.16
841.318	72.02
841.494	72.02
841.671	78.16
841.847	61.78
842.023	31.06
842.199	35.16
842.375	92.5
842.551	6.49
842.727	31.06
842.903	55.64
843.079	39.25
843.255	115.03
843.431	96.6
843.607	98.64
843.783	-9.9
843.959	2.39
844.134	8.53
844.31	110.93
844.486	49.49
844.662	106.84
844.838	92.5
845.013	59.73
845.189	51.54
845.365	35.16
845.541	102.74
845.716	112.98
845.892	10.58
846.068	82.26
846.244	92.5
846.419	39.25
846.595	12.63
846.77	31.06
846.946	94.55
847.122	-38.57
847.297	14.68
847.473	31.06
847.648	78.16
847.824	125.27
847.999	33.11
848.175	-9.9
848.35	67.92
848.526	49.49
848.701	22.87
848.876	2.39
849.052	96.6
849.227	24.92
849.403	22.87
849.578	84.31
849.753	18.77
849.929	41.3
850.104	35.16
850.279	96.6
850.454	-3.75
850.63	31.06
850.805	72.02
850.98	53.59
851.155	33.11
851.33	72.02
851.505	61.78
851.681	12.63
851.856	61.78
852.031	72.02
852.206	88.4
852.381	72.02
852.556	67.92
852.731	84.31
852.906	100.69
853.081	67.92
853.256	39.25
853.431	24.92
853.606	-34.47
853.781	26.96
853.956	-3.75
854.131	69.97
854.305	59.73
854.48	-16.04
854.655	-20.14
854.83	74.07
855.005	74.07
855.18	-7.85
855.354	78.16
855.529	76.12
855.704	39.25
855.879	-13.99
856.053	69.97
856.228	37.2
856.403	-18.09
856.577	55.64
856.752	20.82
856.926	96.6
857.101	110.93
857.276	65.88
857.45	53.59
857.625	63.83
857.799	-16.04
857.974	88.4
858.148	29.01
858.323	80.21
858.497	0.34
858.672	4.44
858.846	74.07
859.02	43.35
859.195	-24.23
859.369	12.63
859.543	53.59
859.718	59.73
859.892	-18.09
860.066	49.49
860.241	16.73
860.415	65.88
860.589	39.25
860.763	43.35
860.938	4.44
861.112	2.39
861.286	4.44
861.46	-11.95
861.634	-38.57
861.808	117.08
861.982	12.63
862.157	76.12
862.331	-32.43
862.505	-52.91
862.679	29.01
862.853	18.77
863.027	-5.8
863.201	96.6
863.375	10.58
863.549	53.59
863.722	-26.28
863.896	139.6
864.07	33.11
864.244	39.25
864.418	0.34
864.592	-22.19
864.766	65.88
864.939	0.34
865.113	-16.04
865.287	39.25
865.461	-42.67
865.634	72.02
865.808	6.49
865.982	-9.9
866.156	6.49
866.329	49.49
866.503	39.25
866.676	59.73
866.85	55.64
867.024	61.78
867.197	-7.85
867.371	-24.23
867.544	69.97
867.718	-7.85
867.891	55.64
868.065	-9.9
868.238	53.59
868.412	106.84
868.585	10.58
868.759	35.16
868.932	-5.8
869.105	-44.71
869.279	31.06
869.452	65.88
869.625	84.31
869.799	37.2
869.972	-73.39
870.145	31.06
870.319	84.31
870.492	33.11
870.665	47.44
870.838	47.44
871.011	-7.85
871.185	55.64
871.358	39.25
871.531	22.87
871.704	29.01
871.877	35.16
872.05	14.68
872.223	22.87
872.396	88.4
872.569	0.34
872.742	-1.71
872.915	65.88
873.088	-30.38
873.261	51.54
873.434	-18.09
873.607	41.3
873.78	16.73
873.953	57.68
874.126	-50.86
874.299	43.35
874.471	12.63
874.644	6.49
874.817	104.79
874.99	10.58
875.163	-5.8
875.335	37.2
875.508	65.88
875.681	121.17
875.853	-22.19
876.026	29.01
876.199	80.21
876.371	72.02
876.544	29.01
876.717	33.11
876.889	-13.99
877.062	37.2
877.234	72.02
877.407	-46.76
877.579	57.68
877.752	39.25
877.924	39.25
878.097	-61.1
878.269	55.64
878.442	55.64
878.614	-5.8
878.786	-59.05
878.959	8.53
879.131	37.2
879.303	-1.71
879.476	37.2
879.648	-22.19
879.82	-18.09
879.993	45.4
880.165	-73.39
880.337	20.82
880.509	-46.76
880.681	-67.24
880.854	2.39
881.026	47.44
881.198	90.45
881.37	106.84
881.542	29.01
881.714	6.49
881.886	51.54
882.058	22.87
882.23	24.92
882.402	-3.75
882.574	80.21
882.746	-34.47
882.918	104.79
883.09	63.83
883.262	22.87
883.434	-11.95
883.606	-11.95
883.778	96.6
883.95	-13.99
884.122	6.49
884.293	47.44
884.465	82.26
884.637	43.35
884.809	-50.86
884.98	29.01
885.152	74.07
885.324	55.64
885.496	37.2
885.667	-18.09
885.839	-57
886.011	6.49
886.182	49.49
886.354	47.44
886.525	31.06
886.697	29.01
886.869	-16.04
887.04	-28.33
887.212	35.16
887.383	39.25
887.555	20.82
887.726	47.44
887.897	57.68
888.069	59.73
888.24	20.82
888.412	35.16
888.583	16.73
888.754	24.92
888.926	16.73
889.097	43.35
889.268	-95.91
889.44	6.49
889.611	-20.14
889.782	-36.52
889.953	22.87
890.125	41.3
890.296	20.82
890.467	51.54
890.638	80.21
890.809	45.4
890.98	-44.71
891.151	-42.67
891.323	53.59
891.494	8.53
891.665	-11.95
891.836	31.06
892.007	22.87
892.178	96.6
892.349	31.06
892.52	-20.14
892.691	10.58
892.862	39.25
893.032	-1.71
893.203	-42.67
893.374	67.92
893.545	59.73
893.716	0.34
893.887	2.39
894.057	-50.86
894.228	26.96
894.399	-67.24
894.57	63.83
894.74	47.44
894.911	16.73
895.082	-1.71
895.253	-73.39
895.423	-11.95
895.594	131.41
895.764	82.26
895.935	-5.8
896.106	0.34
896.276	22.87
896.447	-44.71
896.617	24.92
896.788	55.64
896.958	-1.71
897.129	61.78
897.299	4.44
897.47	22.87
897.64	16.73
897.81	45.4
897.981	57.68
898.151	-61.1
898.322	10.58
898.492	63.83
898.662	-20.14
898.832	16.73
899.003	-48.81
899.173	31.06
899.343	-22.19
899.513	-85.67
