Data from USB4F104151__266__10-40-20-781.txt Node

Date: Wed Mar 12 10:40:20 EDT 2025
User: louis
Spectrometer: USB4F10415
Trigger mode: 4
Integration Time (sec): 3.000000E-2
Scans to average: 1
Electric dark correction enabled: true
Nonlinearity correction enabled: false
Boxcar width: 0
XAxis mode: Wavelengths
Number of Pixels in Spectrum: 3648
>>>>>Begin Spectral Data<<<<<
178.204	-43.69
178.424	-43.69
178.644	-43.69
178.864	-152.23
179.084	-139.94
179.304	-8.87
179.524	-41.64
179.744	30.04
179.964	44.37
180.184	15.7
180.404	46.42
180.624	36.18
180.844	-76.46
181.064	-25.26
181.283	38.23
181.503	-58.03
181.723	-0.68
181.943	-94.89
182.163	81.24
182.383	54.61
182.602	77.14
182.822	11.61
183.042	-68.27
183.262	27.99
183.482	-21.16
183.701	13.65
183.921	40.28
184.141	-25.26
184.361	-6.83
184.58	-55.98
184.8	42.32
185.02	9.56
185.239	11.61
185.459	25.94
185.679	17.75
185.898	-15.02
186.118	11.61
186.338	5.46
186.557	11.61
186.777	13.65
186.997	-33.45
187.216	-64.17
187.436	25.94
187.655	44.37
187.875	-2.73
188.095	111.96
188.314	114
188.534	17.75
188.753	-35.5
188.973	-58.03
189.192	105.81
189.412	3.41
189.631	-4.78
189.851	15.7
190.07	44.37
190.29	-43.69
190.509	87.38
190.729	-62.12
190.948	73.04
191.168	148.82
191.387	58.71
191.607	3.41
191.826	54.61
192.045	-31.4
192.265	77.14
192.484	-62.12
192.704	52.56
192.923	34.13
193.142	-21.16
193.362	19.8
193.581	83.28
193.8	73.04
194.02	30.04
194.239	25.94
194.458	38.23
194.678	9.56
194.897	44.37
195.116	3.41
195.335	99.67
195.555	42.32
195.774	-39.59
195.993	21.85
196.212	1.37
196.432	-4.78
196.651	13.65
196.87	9.56
197.089	50.52
197.308	11.61
197.528	-4.78
197.747	-2.73
197.966	11.61
198.185	46.42
198.404	-10.92
198.623	66.9
198.842	73.04
199.062	-6.83
199.281	111.96
199.5	-6.83
199.719	46.42
199.938	89.43
200.157	87.38
200.376	3.41
200.595	89.43
200.814	36.18
201.033	54.61
201.252	13.65
201.471	46.42
201.69	32.08
201.909	103.76
202.128	34.13
202.347	38.23
202.566	27.99
202.785	17.75
203.004	-12.97
203.223	58.71
203.442	-31.4
203.661	-21.16
203.879	54.61
204.098	36.18
204.317	-33.45
204.536	62.8
204.755	3.41
204.974	40.28
205.193	30.04
205.411	124.24
205.63	-6.83
205.849	-43.69
206.068	42.32
206.287	7.51
206.505	13.65
206.724	54.61
206.943	1.37
207.162	13.65
207.381	-29.35
207.599	-39.59
207.818	32.08
208.037	58.71
208.255	50.52
208.474	114
208.693	15.7
208.911	-10.92
209.13	-2.73
209.349	40.28
209.567	83.28
209.786	68.95
210.005	42.32
210.223	-35.5
210.442	-27.31
210.661	-23.21
210.879	48.47
211.098	-21.16
211.316	17.75
211.535	-45.74
211.753	64.85
211.972	46.42
212.191	60.76
212.409	25.94
212.628	-15.02
212.846	1.37
213.065	23.89
213.283	62.8
213.502	-86.7
213.72	75.09
213.938	-0.68
214.157	-25.26
214.375	99.67
214.594	-29.35
214.812	32.08
215.031	146.77
215.249	-27.31
215.467	-66.22
215.686	5.46
215.904	23.89
216.122	-47.79
216.341	56.66
216.559	-47.79
216.778	77.14
216.996	46.42
217.214	44.37
217.432	-15.02
217.651	71
217.869	46.42
218.087	-2.73
218.306	32.08
218.524	-51.88
218.742	-49.83
218.96	-10.92
219.179	56.66
219.397	7.51
219.615	36.18
219.833	73.04
220.051	-0.68
220.27	-10.92
220.488	-17.07
220.706	48.47
220.924	62.8
221.142	-17.07
221.36	-12.97
221.578	11.61
221.796	34.13
222.015	85.33
222.233	-37.55
222.451	-10.92
222.669	-39.59
222.887	7.51
223.105	15.7
223.323	21.85
223.541	44.37
223.759	111.96
223.977	46.42
224.195	42.32
224.413	99.67
224.631	40.28
224.849	9.56
225.067	91.48
225.285	36.18
225.503	34.13
225.721	-25.26
225.939	19.8
226.157	-25.26
226.375	116.05
226.592	17.75
226.81	7.51
227.028	73.04
227.246	23.89
227.464	-47.79
227.682	27.99
227.9	3.41
228.117	9.56
228.335	62.8
228.553	-23.21
228.771	27.99
228.989	44.37
229.206	58.71
229.424	42.32
229.642	7.51
229.86	-8.87
230.077	7.51
230.295	-45.74
230.513	50.52
230.731	52.56
230.948	58.71
231.166	38.23
231.384	50.52
231.601	17.75
231.819	17.75
232.037	58.71
232.254	-74.41
232.472	38.23
232.689	38.23
232.907	73.04
233.125	58.71
233.342	-2.73
233.56	11.61
233.777	-4.78
233.995	42.32
234.213	15.7
234.43	30.04
234.648	11.61
234.865	-53.93
235.083	81.24
235.3	34.13
235.518	-8.87
235.735	34.13
235.953	21.85
236.17	-6.83
236.388	40.28
236.605	-0.68
236.822	13.65
237.04	38.23
237.257	3.41
237.475	-27.31
237.692	15.7
237.909	7.51
238.127	9.56
238.344	7.51
238.562	11.61
238.779	-10.92
238.996	48.47
239.214	103.76
239.431	89.43
239.648	-17.07
239.865	34.13
240.083	144.72
240.3	34.13
240.517	9.56
240.735	81.24
240.952	130.39
241.169	32.08
241.386	9.56
241.603	42.32
241.821	3.41
242.038	23.89
242.255	7.51
242.472	-0.68
242.689	46.42
242.907	-10.92
243.124	30.04
243.341	-27.31
243.558	38.23
243.775	56.66
243.992	48.47
244.209	48.47
244.426	68.95
244.643	17.75
244.86	58.71
245.078	-39.59
245.295	25.94
245.512	-23.21
245.729	-55.98
245.946	-41.64
246.163	89.43
246.38	25.94
246.597	91.48
246.814	62.8
247.031	-0.68
247.248	73.04
247.464	48.47
247.681	50.52
247.898	23.89
248.115	87.38
248.332	9.56
248.549	71
248.766	66.9
248.983	54.61
249.2	21.85
249.417	21.85
249.633	27.99
249.85	-43.69
250.067	-2.73
250.284	-23.21
250.501	42.32
250.717	25.94
250.934	-6.83
251.151	34.13
251.368	-17.07
251.585	34.13
251.801	-2.73
252.018	-19.11
252.235	32.08
252.451	40.28
252.668	56.66
252.885	48.47
253.102	32.08
253.318	9.56
253.535	85.33
253.752	66.9
253.968	-23.21
254.185	21.85
254.401	66.9
254.618	7.51
254.835	-35.5
255.051	38.23
255.268	-15.02
255.484	-17.07
255.701	34.13
255.917	-17.07
256.134	-15.02
256.351	58.71
256.567	-15.02
256.784	17.75
257	9.56
257.217	19.8
257.433	-6.83
257.65	13.65
257.866	21.85
258.082	5.46
258.299	-62.12
258.515	-27.31
258.732	-35.5
258.948	30.04
259.165	11.61
259.381	-6.83
259.597	21.85
259.814	62.8
260.03	95.57
260.246	-6.83
260.463	126.29
260.679	77.14
260.895	5.46
261.112	56.66
261.328	66.9
261.544	-8.87
261.761	83.28
261.977	-76.46
262.193	21.85
262.409	-51.88
262.626	-33.45
262.842	3.41
263.058	-78.51
263.274	83.28
263.49	38.23
263.707	30.04
263.923	-12.97
264.139	1.37
264.355	7.51
264.571	73.04
264.787	-33.45
265.004	48.47
265.22	44.37
265.436	-2.73
265.652	-2.73
265.868	23.89
266.084	-2.73
266.3	95.57
266.516	-80.55
266.732	46.42
266.948	32.08
267.164	50.52
267.38	-2.73
267.596	-10.92
267.812	93.52
268.028	5.46
268.244	-23.21
268.46	103.76
268.676	-2.73
268.892	77.14
269.108	9.56
269.324	5.46
269.54	-37.55
269.756	21.85
269.972	52.56
270.188	9.56
270.403	111.96
270.619	17.75
270.835	46.42
271.051	-60.07
271.267	58.71
271.483	-8.87
271.698	-6.83
271.914	1.37
272.13	11.61
272.346	50.52
272.562	114
272.777	56.66
272.993	30.04
273.209	-25.26
273.425	21.85
273.64	52.56
273.856	25.94
274.072	-12.97
274.287	17.75
274.503	40.28
274.719	34.13
274.934	21.85
275.15	-47.79
275.366	-29.35
275.581	15.7
275.797	-25.26
276.012	25.94
276.228	-39.59
276.444	42.32
276.659	64.85
276.875	27.99
277.09	30.04
277.306	-6.83
277.521	34.13
277.737	15.7
277.952	56.66
278.168	40.28
278.383	62.8
278.599	58.71
278.814	95.57
279.03	-17.07
279.245	83.28
279.461	25.94
279.676	5.46
279.892	-2.73
280.107	38.23
280.322	-58.03
280.538	3.41
280.753	-64.17
280.969	50.52
281.184	-21.16
281.399	73.04
281.615	-8.87
281.83	87.38
282.045	-15.02
282.26	11.61
282.476	1.37
282.691	62.8
282.906	38.23
283.122	75.09
283.337	-39.59
283.552	46.42
283.767	50.52
283.983	99.67
284.198	7.51
284.413	116.05
284.628	9.56
284.843	7.51
285.058	-23.21
285.274	81.24
285.489	68.95
285.704	58.71
285.919	-35.5
286.134	40.28
286.349	5.46
286.564	30.04
286.779	77.14
286.995	73.04
287.21	42.32
287.425	30.04
287.64	15.7
287.855	15.7
288.07	-2.73
288.285	25.94
288.5	83.28
288.715	1.37
288.93	-25.26
289.145	34.13
289.36	85.33
289.575	42.32
289.79	44.37
290.004	19.8
290.219	81.24
290.434	-39.59
290.649	-23.21
290.864	60.76
291.079	9.56
291.294	-15.02
291.509	50.52
291.724	25.94
291.938	-2.73
292.153	27.99
292.368	-41.64
292.583	21.85
292.798	71
293.012	95.57
293.227	58.71
293.442	-6.83
293.657	73.04
293.871	99.67
294.086	97.62
294.301	-6.83
294.516	11.61
294.73	42.32
294.945	-15.02
295.16	40.28
295.374	109.91
295.589	62.8
295.804	85.33
296.018	73.04
296.233	95.57
296.447	17.75
296.662	9.56
296.877	5.46
297.091	58.71
297.306	1.37
297.52	-35.5
297.735	27.99
297.949	38.23
298.164	136.53
298.378	17.75
298.593	54.61
298.807	-25.26
299.022	-17.07
299.236	3.41
299.451	50.52
299.665	25.94
299.88	17.75
300.094	111.96
300.309	-27.31
300.523	42.32
300.737	32.08
300.952	-8.87
301.166	15.7
301.381	-25.26
301.595	3.41
301.809	87.38
302.024	-66.22
302.238	7.51
302.452	44.37
302.667	40.28
302.881	68.95
303.095	-6.83
303.309	17.75
303.524	64.85
303.738	42.32
303.952	-0.68
304.166	44.37
304.381	-8.87
304.595	66.9
304.809	-41.64
305.023	27.99
305.237	-0.68
305.452	25.94
305.666	42.32
305.88	54.61
306.094	50.52
306.308	60.76
306.522	-33.45
306.736	15.7
306.95	75.09
307.164	13.65
307.379	93.52
307.593	62.8
307.807	36.18
308.021	83.28
308.235	42.32
308.449	-94.89
308.663	-15.02
308.877	11.61
309.091	25.94
309.305	44.37
309.519	11.61
309.733	105.81
309.947	30.04
310.161	23.89
310.374	71
310.588	40.28
310.802	-64.17
311.016	13.65
311.23	50.52
311.444	-10.92
311.658	54.61
311.872	93.52
312.085	44.37
312.299	91.48
312.513	64.85
312.727	34.13
312.941	27.99
313.154	-0.68
313.368	68.95
313.582	58.71
313.796	25.94
314.009	-23.21
314.223	-4.78
314.437	9.56
314.651	-88.75
314.864	23.89
315.078	-15.02
315.292	42.32
315.505	52.56
315.719	50.52
315.933	34.13
316.146	7.51
316.36	-29.35
316.573	-10.92
316.787	40.28
317.001	36.18
317.214	-21.16
317.428	3.41
317.641	-17.07
317.855	40.28
318.068	46.42
318.282	17.75
318.495	52.56
318.709	130.39
318.922	-60.07
319.136	73.04
319.349	38.23
319.563	73.04
319.776	62.8
319.99	30.04
320.203	54.61
320.417	101.72
320.63	36.18
320.843	13.65
321.057	93.52
321.27	-8.87
321.483	54.61
321.697	60.76
321.91	75.09
322.124	13.65
322.337	52.56
322.55	-39.59
322.763	13.65
322.977	48.47
323.19	50.52
323.403	48.47
323.617	-15.02
323.83	107.86
324.043	62.8
324.256	21.85
324.469	17.75
324.683	116.05
324.896	-23.21
325.109	-0.68
325.322	-12.97
325.535	89.43
325.748	21.85
325.962	75.09
326.175	38.23
326.388	30.04
326.601	79.19
326.814	13.65
327.027	95.57
327.24	71
327.453	5.46
327.666	7.51
327.879	7.51
328.092	42.32
328.305	-37.55
328.518	25.94
328.731	25.94
328.944	-2.73
329.157	7.51
329.37	21.85
329.583	36.18
329.796	87.38
330.009	-6.83
330.222	85.33
330.435	62.8
330.648	13.65
330.861	-4.78
331.073	-47.79
331.286	83.28
331.499	23.89
331.712	-2.73
331.925	87.38
332.138	11.61
332.35	36.18
332.563	46.42
332.776	38.23
332.989	68.95
333.202	9.56
333.414	32.08
333.627	81.24
333.84	7.51
334.053	17.75
334.265	73.04
334.478	75.09
334.691	32.08
334.903	19.8
335.116	7.51
335.329	58.71
335.541	21.85
335.754	97.62
335.966	73.04
336.179	75.09
336.392	-15.02
336.604	148.82
336.817	21.85
337.029	-8.87
337.242	5.46
337.454	81.24
337.667	27.99
337.88	85.33
338.092	97.62
338.305	23.89
338.517	40.28
338.729	27.99
338.942	17.75
339.154	60.76
339.367	-27.31
339.579	5.46
339.792	21.85
340.004	116.05
340.217	19.8
340.429	60.76
340.641	-27.31
340.854	38.23
341.066	25.94
341.278	-4.78
341.491	68.95
341.703	91.48
341.915	19.8
342.128	-21.16
342.34	27.99
342.552	17.75
342.764	79.19
342.977	75.09
343.189	38.23
343.401	25.94
343.613	-29.35
343.826	44.37
344.038	103.76
344.25	38.23
344.462	-25.26
344.674	68.95
344.886	56.66
345.099	75.09
345.311	-4.78
345.523	32.08
345.735	46.42
345.947	5.46
346.159	7.51
346.371	15.7
346.583	-31.4
346.795	87.38
347.007	46.42
347.219	9.56
347.431	1.37
347.643	46.42
347.855	-17.07
348.067	42.32
348.279	9.56
348.491	13.65
348.703	60.76
348.915	48.47
349.127	-25.26
349.339	56.66
349.551	58.71
349.763	68.95
349.975	62.8
350.187	40.28
350.399	42.32
350.61	34.13
350.822	-6.83
351.034	99.67
351.246	42.32
351.458	11.61
351.669	75.09
351.881	91.48
352.093	48.47
352.305	68.95
352.517	32.08
352.728	19.8
352.94	58.71
353.152	79.19
353.363	-15.02
353.575	46.42
353.787	48.47
353.999	64.85
354.21	23.89
354.422	-31.4
354.633	32.08
354.845	77.14
355.057	105.81
355.268	128.34
355.48	23.89
355.692	7.51
355.903	62.8
356.115	19.8
356.326	-53.93
356.538	46.42
356.749	32.08
356.961	89.43
357.172	13.65
357.384	38.23
357.595	66.9
357.807	36.18
358.018	9.56
358.23	25.94
358.441	64.85
358.653	40.28
358.864	118.1
359.075	30.04
359.287	32.08
359.498	101.72
359.709	44.37
359.921	44.37
360.132	-27.31
360.344	30.04
360.555	95.57
360.766	66.9
360.977	3.41
361.189	68.95
361.4	85.33
361.611	109.91
361.823	66.9
362.034	73.04
362.245	-0.68
362.456	30.04
362.667	46.42
362.879	-23.21
363.09	103.76
363.301	79.19
363.512	-19.11
363.723	3.41
363.935	23.89
364.146	-12.97
364.357	36.18
364.568	79.19
364.779	62.8
364.99	73.04
365.201	34.13
365.412	87.38
365.623	13.65
365.834	25.94
366.045	38.23
366.256	120.15
366.467	83.28
366.678	128.34
366.889	-45.74
367.1	-27.31
367.311	77.14
367.522	56.66
367.733	116.05
367.944	21.85
368.155	50.52
368.366	19.8
368.577	46.42
368.788	148.82
368.999	25.94
369.209	30.04
369.42	81.24
369.631	161.11
369.842	13.65
370.053	73.04
370.264	73.04
370.474	58.71
370.685	-10.92
370.896	46.42
371.107	30.04
371.317	50.52
371.528	40.28
371.739	95.57
371.95	15.7
372.16	58.71
372.371	60.76
372.582	54.61
372.792	32.08
373.003	73.04
373.214	66.9
373.424	-27.31
373.635	-6.83
373.846	71
374.056	116.05
374.267	91.48
374.477	-25.26
374.688	91.48
374.898	21.85
375.109	107.86
375.319	-10.92
375.53	54.61
375.74	30.04
375.951	19.8
376.161	58.71
376.372	54.61
376.582	19.8
376.793	-19.11
377.003	83.28
377.214	25.94
377.424	-72.36
377.635	-15.02
377.845	64.85
378.055	64.85
378.266	40.28
378.476	54.61
378.686	15.7
378.897	17.75
379.107	48.47
379.317	116.05
379.528	83.28
379.738	144.72
379.948	-51.88
380.158	5.46
380.369	23.89
380.579	116.05
380.789	42.32
380.999	73.04
381.21	99.67
381.42	122.2
381.63	5.46
381.84	17.75
382.05	64.85
382.261	107.86
382.471	91.48
382.681	101.72
382.891	62.8
383.101	58.71
383.311	52.56
383.521	34.13
383.731	73.04
383.941	62.8
384.151	81.24
384.361	21.85
384.571	87.38
384.781	71
384.991	103.76
385.201	58.71
385.411	140.63
385.621	50.52
385.831	25.94
386.041	85.33
386.251	-25.26
386.461	111.96
386.671	7.51
386.881	68.95
387.091	7.51
387.301	42.32
387.511	42.32
387.72	171.35
387.93	93.52
388.14	58.71
388.35	50.52
388.56	99.67
388.769	27.99
388.979	30.04
389.189	105.81
389.399	42.32
389.609	89.43
389.818	38.23
390.028	75.09
390.238	142.68
390.447	40.28
390.657	68.95
390.867	21.85
391.076	30.04
391.286	66.9
391.496	7.51
391.705	11.61
391.915	163.15
392.125	44.37
392.334	19.8
392.544	107.86
392.753	5.46
392.963	27.99
393.172	1.37
393.382	36.18
393.591	95.57
393.801	87.38
394.01	75.09
394.22	27.99
394.429	-8.87
394.639	132.44
394.848	173.39
395.058	34.13
395.267	42.32
395.477	148.82
395.686	15.7
395.895	99.67
396.105	173.39
396.314	120.15
396.524	48.47
396.733	101.72
396.942	132.44
397.152	132.44
397.361	148.82
397.57	89.43
397.78	62.8
397.989	105.81
398.198	152.92
398.407	30.04
398.617	144.72
398.826	50.52
399.035	89.43
399.244	87.38
399.453	120.15
399.663	148.82
399.872	107.86
400.081	87.38
400.29	171.35
400.499	52.56
400.708	177.49
400.917	89.43
401.127	150.87
401.336	50.52
401.545	204.11
401.754	101.72
401.963	165.2
402.172	103.76
402.381	87.38
402.59	179.54
402.799	148.82
403.008	173.39
403.217	152.92
403.426	132.44
403.635	144.72
403.844	146.77
404.053	154.96
404.262	101.72
404.471	212.31
404.68	114
404.888	105.81
405.097	157.01
405.306	216.4
405.515	132.44
405.724	116.05
405.933	193.87
406.142	179.54
406.35	243.03
406.559	206.16
406.768	230.74
406.977	271.7
407.185	191.83
407.394	283.99
407.603	240.98
407.812	191.83
408.02	171.35
408.229	279.89
408.438	245.07
408.646	243.03
408.855	308.56
409.064	361.81
409.272	343.38
409.481	394.58
409.69	306.51
409.898	298.32
410.107	347.47
410.315	353.62
410.524	355.66
410.733	335.18
410.941	437.58
411.15	439.63
411.358	478.54
411.567	484.69
411.775	488.78
411.984	505.17
412.192	499.02
412.401	578.89
412.609	640.33
412.818	513.36
413.026	517.45
413.234	523.6
413.443	640.33
413.651	714.06
413.86	628.04
414.068	689.48
414.276	775.5
414.485	718.15
414.693	728.39
414.901	847.18
415.11	769.35
415.318	808.27
415.526	896.33
415.734	918.86
415.943	931.14
416.151	951.62
416.359	1045.83
416.567	1029.45
416.776	1088.84
416.984	1137.99
417.192	1187.14
417.4	1148.23
417.608	1148.23
417.817	1236.29
418.025	1285.44
418.233	1363.26
418.441	1303.87
418.649	1432.9
418.857	1576.25
419.065	1596.73
419.273	1514.81
419.481	1688.89
419.689	1668.41
419.897	1758.52
420.105	1783.1
420.313	1824.06
420.521	1971.51
420.729	1936.7
420.937	1996.09
421.145	2037.05
421.353	2213.17
421.561	2252.08
421.769	2399.54
421.977	2420.02
422.185	2338.1
422.393	2651.44
422.601	2655.53
422.809	2649.39
423.017	2770.22
423.224	2954.54
423.432	2917.67
423.64	2934.06
423.848	3251.49
424.056	3204.39
424.263	3505.44
424.471	3345.7
424.679	3544.35
424.887	3714.33
425.094	3747.1
425.302	3788.06
425.51	3943.71
425.718	4105.49
425.925	4175.13
426.133	4320.53
426.341	4377.87
426.548	4723.98
426.756	4726.03
426.964	4750.6
427.171	5152.01
427.379	5293.32
427.586	5119.24
427.794	5348.61
428.001	5866.75
428.209	5844.22
428.417	5960.95
428.624	6302.97
428.832	6276.34
429.039	6239.48
429.247	6165.75
429.454	6896.88
429.662	7197.93
429.869	6671.6
430.076	7394.53
430.284	7148.78
430.491	7462.12
430.699	7797.98
430.906	7881.95
431.114	7890.14
431.321	8191.19
431.528	8434.9
431.736	8830.16
431.943	9405.64
432.15	9178.31
432.358	9379.01
432.565	9487.56
432.772	9505.99
432.979	10249.4
433.187	10183.87
433.394	10507.44
433.601	11158.7
433.808	11291.82
434.016	10923.18
434.223	11672.74
434.43	12174.49
434.637	12010.65
434.844	12661.91
435.052	13001.87
435.259	13014.16
435.466	13077.65
435.673	12846.23
435.88	13892.74
436.087	14486.65
436.294	14480.5
436.501	14087.29
436.708	14505.08
436.915	14961.78
437.122	15760.48
437.329	15703.14
437.537	16331.87
437.743	16399.45
437.95	16159.84
438.157	17040.47
438.364	17687.62
438.571	17626.18
438.778	17964.1
438.985	19616.81
439.192	18764.85
439.399	19483.69
439.606	18715.7
439.813	19754.02
440.02	21066.77
440.227	20868.12
440.433	20423.71
440.64	21603.34
440.847	21347.34
441.054	21498.89
441.261	23327.73
441.467	22766.59
441.674	23047.16
441.881	24095.72
442.088	24243.17
442.294	23882.73
442.501	24732.64
442.708	25078.74
442.914	25988.04
443.121	27087.8
443.328	26379.2
443.534	28093.35
443.741	27327.41
443.948	27120.57
444.154	29152.15
444.361	29115.29
444.568	29193.11
444.774	29082.52
444.981	29268.89
445.187	30352.26
445.394	31363.96
445.6	31071.1
445.807	34323.27
446.013	32623.46
446.22	33250.14
446.426	34384.71
446.633	34636.61
446.839	35865.39
447.046	34257.74
447.252	36477.74
447.459	36297.52
447.665	36623.14
447.871	37933.84
448.078	39582.46
448.284	37489.43
448.491	38447.88
448.697	39881.46
448.903	40714.98
449.11	40921.83
449.316	39998.19
449.522	40954.6
449.728	41534.17
449.935	42013.4
450.141	41911
450.347	42971.85
450.553	41290.46
450.76	42164.95
450.966	43041.48
451.172	43121.35
451.378	43891.38
451.584	43147.97
451.791	43762.36
451.997	43688.63
452.203	44092.08
452.409	44556.97
452.615	44001.97
452.821	42281.68
453.027	41974.48
453.233	44290.74
453.44	42195.67
453.646	42537.68
453.852	43004.61
454.058	43236.03
454.264	42009.3
454.47	42623.69
454.676	41730.78
454.882	43418.3
455.088	39404.28
455.294	40088.31
455.5	40471.28
455.705	41366.24
455.911	39154.43
456.117	38548.23
456.323	37477.15
456.529	36059.95
456.735	37479.19
456.941	36662.05
457.147	35668.79
457.352	34462.54
457.558	34313.03
457.764	33999.69
457.97	33731.41
458.176	32607.08
458.381	32656.23
458.587	31150.97
458.793	31382.39
458.999	29551.51
459.204	31763.31
459.41	30911.36
459.616	28599.2
459.821	28517.28
460.027	28486.56
460.233	27995.05
460.438	26162.12
460.644	26983.35
460.85	25682.89
461.055	25459.66
461.261	25068.5
461.466	23510
461.672	22701.05
461.878	24570.85
462.083	22762.49
462.289	22162.44
462.494	21931.01
462.7	20855.83
462.905	20558.88
463.111	21361.68
463.316	21224.47
463.522	21027.86
463.727	20761.62
463.932	20689.95
464.138	20700.19
464.343	20681.75
464.549	20419.61
464.754	20859.93
464.959	20440.09
465.165	20333.6
465.37	19717.16
465.575	19258.42
465.781	20096.03
465.986	20134.95
466.191	19094.58
466.397	18768.95
466.602	18003.01
466.807	19108.91
467.012	18797.62
467.218	18857.01
467.423	18195.52
467.628	18654.26
467.833	19340.33
468.038	18555.96
468.244	17994.82
468.449	18750.52
468.654	18103.36
468.859	18119.74
469.064	17773.64
469.269	17163.34
469.474	17478.73
469.679	17607.75
469.885	17138.77
470.09	17505.35
470.295	16995.41
470.5	16720.98
470.705	16763.99
470.91	16462.94
471.115	16301.15
471.32	16346.2
471.525	16503.9
471.73	16063.58
471.935	15942.75
472.139	15692.9
472.344	15651.94
472.549	15649.89
472.754	15242.35
472.959	15080.56
473.164	14646.39
473.369	14593.14
473.574	14998.64
473.778	14703.73
473.983	14562.42
474.188	14883.95
474.393	14173.31
474.598	14179.45
474.802	13810.82
475.007	13991.04
475.212	13925.5
475.417	13298.83
475.621	13304.97
475.826	13311.11
476.031	12922
476.235	12790.93
476.44	13014.16
476.645	12799.12
476.849	12569.75
477.054	12745.87
477.259	12623
477.463	12506.26
477.668	12215.45
477.872	12541.08
478.077	12082.33
478.282	12082.33
478.486	11826.34
478.691	11594.92
478.895	11662.5
479.1	11189.42
479.304	11566.24
479.509	11144.36
479.713	11619.49
479.918	11322.54
480.122	11056.3
480.326	11179.18
480.531	11445.41
480.735	11082.92
480.94	11142.32
481.144	11259.05
481.348	11078.83
481.553	11031.73
481.757	10679.47
481.961	10839.22
482.166	11121.84
482.37	10835.12
482.574	10847.41
482.778	10779.82
482.983	11080.88
483.187	10759.35
483.391	10949.81
483.595	10712.24
483.8	10734.77
484.004	10968.24
484.208	10851.5
484.412	10757.3
484.616	10939.57
484.821	10910.89
485.025	10509.49
485.229	10925.23
485.433	10634.42
485.637	10708.15
485.841	10859.7
486.045	10704.05
486.249	10599.6
486.453	10642.61
486.657	10788.02
486.861	10767.54
487.065	10382.52
487.269	10949.81
487.473	10341.56
487.677	10802.35
487.881	11074.73
488.085	10740.91
488.289	10753.2
488.493	10914.99
488.697	11027.63
488.901	10978.48
489.105	10781.87
489.309	11101.36
489.512	10921.13
489.716	10900.66
489.92	10921.13
490.124	10843.31
490.328	11089.07
490.531	11025.58
490.735	10857.65
490.939	11181.23
491.143	10998.96
491.346	11148.46
491.55	11252.91
491.754	11195.56
491.958	11336.87
492.161	11109.55
492.365	11334.82
492.569	11343.02
492.772	11318.44
492.976	11599.01
493.18	11674.79
493.383	11914.4
493.587	11832.48
493.79	11969.69
493.994	11533.48
494.197	11820.19
494.401	12053.66
494.605	12014.75
494.808	12336.28
495.012	12319.9
495.215	12479.64
495.419	12575.89
495.622	12500.12
495.825	12612.76
496.029	12561.56
496.232	12805.27
496.436	13055.12
496.639	13278.35
496.843	13173.9
497.046	13315.21
497.249	13507.72
497.453	13591.69
497.656	13634.69
497.859	13698.18
498.063	14075.01
498.266	14279.8
498.469	14314.62
498.673	14488.7
498.876	14650.49
499.079	14822.52
499.282	14797.94
499.485	15004.78
499.689	15185.01
499.892	15369.32
500.095	15602.79
500.298	15959.14
500.501	15572.07
500.705	16106.59
500.908	16282.72
501.111	16372.83
501.314	16444.51
501.517	16809.04
501.72	16985.17
501.923	17034.32
502.126	17405
502.329	17493.07
502.532	17833.03
502.735	17742.92
502.938	17953.86
503.141	18056.26
503.344	18578.49
503.547	18539.58
503.75	18689.08
503.953	18957.36
504.156	19543.08
504.359	19297.33
504.562	19487.79
504.765	19930.15
504.968	20182.05
505.17	20399.13
505.373	20362.27
505.576	20919.32
505.779	20997.14
505.982	21216.27
506.185	21419.02
506.387	21707.79
506.59	21789.7
506.793	22279.17
506.996	22037.51
507.198	22825.98
507.401	22623.23
507.604	22817.79
507.807	23491.57
508.009	23436.27
508.212	23735.28
508.415	24087.53
508.617	24210.4
508.82	24597.47
509.022	24196.07
509.225	25295.83
509.428	25170.9
509.63	25582.54
509.833	25435.09
510.035	26108.87
510.238	26463.17
510.44	26366.91
510.643	26768.32
510.845	26848.19
511.048	26874.81
511.25	27681.71
511.453	27483.06
511.655	28554.15
511.858	28197.8
512.06	28638.11
512.262	28648.35
512.465	28804
512.667	29416.34
512.87	29567.89
513.072	29848.46
513.274	30364.55
513.477	30708.61
513.679	30849.92
513.881	30968.7
514.084	31665.01
514.286	31683.44
514.488	31476.6
514.69	32441.19
514.893	32400.23
515.095	32369.51
515.297	33311.58
515.499	33172.32
515.701	33958.74
515.904	33975.12
516.106	34425.67
516.308	34423.62
516.51	35171.13
516.712	34876.23
516.914	35234.62
517.116	35984.18
517.318	35910.45
517.52	36817.7
517.722	36469.54
517.925	37002.02
518.127	37384.99
518.329	37471
518.531	37542.68
518.733	38236.94
518.935	38644.49
519.136	38607.62
519.338	39340.8
519.54	39930.61
519.742	39643.9
519.944	39940.85
520.146	40684.26
520.348	41343.71
520.55	41018.08
520.752	41063.14
520.954	42107.6
521.155	41591.51
521.357	42183.38
521.559	42875.59
521.761	43006.66
521.963	43274.94
522.164	43498.17
522.366	43555.52
522.568	43815.61
522.77	44206.77
522.971	44845.74
523.173	44473.01
523.375	45298.34
523.576	45230.76
523.778	45398.69
523.98	45732.51
524.181	46508.69
524.383	46006.94
524.584	46836.36
524.786	46912.14
524.988	46828.17
525.189	47123.08
525.391	47745.66
525.592	47696.51
525.794	48142.97
525.995	48067.19
526.197	48429.68
526.398	48259.7
526.6	49146.47
526.801	48978.54
527.003	49758.81
527.204	48902.76
527.406	49564.26
527.607	49144.42
527.808	50258.52
528.01	49631.84
528.211	49867.36
528.412	50328.15
528.614	50653.78
528.815	50405.97
529.016	51296.84
529.218	50760.27
529.419	51483.2
529.62	51157.58
529.822	50922.06
530.023	51178.06
530.224	51393.09
530.425	51567.17
530.626	51360.33
530.828	51073.61
531.029	52683.31
531.23	51608.13
531.431	51688
531.632	52234.81
531.833	52449.85
532.035	52603.44
532.236	52105.79
532.437	52914.73
532.638	52318.78
532.839	52865.58
533.04	52832.82
533.241	52263.48
533.442	53353
533.643	52709.94
533.844	52589.11
534.045	53025.32
534.246	52656.69
534.447	53031.47
534.648	52847.15
534.849	53189.16
535.05	52615.73
535.251	53172.78
535.451	52931.12
535.652	53316.14
535.853	52906.54
536.054	53029.42
536.255	53412.39
536.456	52238.9
536.657	53719.59
536.857	52998.7
537.058	53293.61
537.259	53404.2
537.46	53242.41
537.66	53049.9
537.861	53146.15
538.062	53045.8
538.263	53434.92
538.463	53015.08
538.664	52976.17
538.865	53408.29
539.065	53940.77
539.266	52828.72
539.466	54002.21
539.667	52800.05
539.868	53725.73
540.068	53676.58
540.269	53213.74
540.469	53359.14
540.67	53371.43
540.87	52857.39
541.071	53056.04
541.271	53234.22
541.472	53475.88
541.672	52890.16
541.873	53350.95
542.073	52505.14
542.274	53611.04
542.474	53322.28
542.675	52525.62
542.875	53418.53
543.075	53086.76
543.276	52714.03
543.476	53316.14
543.676	53230.12
543.877	53490.21
544.077	52744.75
544.277	53113.39
544.478	53172.78
544.678	53066.28
544.878	52775.47
545.078	53023.28
545.279	52795.95
545.479	52879.92
545.679	53260.84
545.879	53293.61
546.079	53129.77
546.28	52939.31
546.48	52191.8
546.68	53107.24
546.88	53295.66
547.08	52912.69
547.28	52615.73
547.48	52560.44
547.68	52845.1
547.88	52740.66
548.081	52640.31
548.281	52527.67
548.481	52673.07
548.681	53119.53
548.881	53041.71
549.081	52537.91
549.28	52515.38
549.48	53193.26
549.68	52662.83
549.88	53054
550.08	52230.71
550.28	53146.15
550.48	52478.52
550.68	52841.01
550.88	52660.79
551.08	52695.6
551.279	52453.94
551.479	52243
551.679	52363.83
551.879	52415.03
552.079	52568.63
552.278	52421.17
552.478	52613.68
552.678	52103.74
552.878	52591.15
553.077	52253.24
553.277	51866.17
553.477	52820.53
553.676	52271.67
553.876	52156.99
554.076	51968.57
554.275	52249.14
554.475	51360.33
554.674	52247.1
554.874	52095.55
555.074	51821.12
555.273	52191.8
555.473	52150.84
555.672	51870.27
555.872	52179.51
556.071	51722.82
556.271	52404.79
556.47	51733.06
556.67	51391.05
556.869	51481.16
557.068	51874.37
557.268	50924.11
557.467	51391.05
557.667	51411.52
557.866	51458.63
558.065	51307.08
558.265	51051.08
558.464	51198.54
558.663	51534.4
558.863	50604.63
559.062	51661.38
559.261	50371.16
559.461	51210.82
559.66	50055.77
559.859	50313.81
560.058	50219.61
560.258	50686.54
560.457	49943.13
560.656	50463.32
560.855	50422.36
561.054	50502.23
561.253	49707.61
561.453	50123.35
561.652	50023
561.851	50274.9
562.05	49715.81
562.249	49842.78
562.448	50219.61
562.647	49973.85
562.846	49701.47
563.045	49359.46
563.244	48667.25
563.443	49289.83
563.642	48843.37
563.841	49128.04
564.04	49173.1
564.239	49130.09
564.438	48919.15
564.637	48896.62
564.836	48525.94
565.035	48112.25
565.234	48910.96
565.432	48413.3
565.631	47905.4
565.83	48556.66
566.029	48044.66
566.228	47966.84
566.427	47979.13
566.625	47342.21
566.824	46951.05
567.023	47594.11
567.222	46664.33
567.42	47432.32
567.619	47118.98
567.818	47350.4
568.016	47098.5
568.215	47319.68
568.414	46979.72
568.612	46959.24
568.811	46631.57
569.01	46258.84
569.208	46111.38
569.407	46291.6
569.605	45781.66
569.804	46217.88
570.002	45664.92
570.201	45992.6
570.4	45857.43
570.598	45709.98
570.797	45621.92
570.995	45464.22
571.193	45144.74
571.392	45273.76
571.59	44657.32
571.789	45218.47
571.987	44743.34
572.186	44716.71
572.384	44491.44
572.582	44532.4
572.781	44587.69
572.979	43944.63
573.177	44141.24
573.376	43944.63
573.574	44053.17
573.772	44163.76
573.971	43373.25
574.169	43358.91
574.367	43532.99
574.565	43690.68
574.763	43211.46
574.962	43342.53
575.16	42914.5
575.358	43082.44
575.556	42531.53
575.754	43018.95
575.952	42228.43
576.151	43053.76
576.349	42195.67
576.547	42326.74
576.745	41818.84
576.943	42162.9
577.141	41847.51
577.339	42017.49
577.537	41851.61
577.735	41857.75
577.933	41333.47
578.131	41822.94
578.329	40950.5
578.527	40954.6
578.725	41437.92
578.923	41286.37
579.121	41013.99
579.319	40735.46
579.516	41038.56
579.714	40297.2
579.912	40434.41
580.11	40162.03
580.308	40364.78
580.506	39701.24
580.704	39150.34
580.901	40100.59
581.099	40073.97
581.297	39631.61
581.495	39639.8
581.692	39455.48
581.89	39164.67
582.088	39738.1
582.285	38906.63
582.483	39607.03
582.681	38951.68
582.878	39027.46
583.076	38662.92
583.274	39097.09
583.471	38257.42
583.669	38406.92
583.866	38357.77
584.064	38583.05
584.262	37911.31
584.459	38116.11
584.657	37669.65
584.854	38177.55
585.052	37679.89
585.249	37905.17
585.447	37331.74
585.644	37194.53
585.841	37554.97
586.039	37794.58
586.236	37133.09
586.434	36950.82
586.631	36598.57
586.828	36850.47
587.026	36416.3
587.223	36502.31
587.42	36504.36
587.618	36573.99
587.815	35734.32
588.012	36209.45
588.21	35922.74
588.407	36412.2
588.604	35599.16
588.801	35613.49
588.999	35640.12
589.196	35437.37
589.393	35560.25
589.59	35160.89
589.787	35146.56
589.984	35076.93
590.182	34968.38
590.379	34872.13
590.576	34878.27
590.773	34739.01
590.97	34288.46
591.167	34491.21
591.364	34063.18
591.561	34036.56
591.758	34196.3
591.955	34323.27
592.152	34110.28
592.349	33930.06
592.546	33962.83
592.743	33921.87
592.94	33291.1
593.137	33375.06
593.334	33733.46
593.531	33090.4
593.727	33432.41
593.924	33174.36
594.121	33069.92
594.318	33084.25
594.515	32535.4
594.712	33114.97
594.908	32484.2
595.105	32742.24
595.302	32222.06
595.499	32617.32
595.696	32439.14
595.892	32043.88
596.089	31753.07
596.286	32289.64
596.482	32152.43
596.679	31783.79
596.876	31562.61
597.072	31523.7
597.269	31648.63
597.466	31472.5
597.662	31257.46
597.859	31368.05
598.055	31259.51
598.252	30751.62
598.448	31333.24
598.645	31026.04
598.841	30423.94
599.038	30589.83
599.234	30921.6
599.431	30284.68
599.627	30329.73
599.824	30299.01
600.02	29903.76
600.217	30086.03
600.413	30137.23
600.609	29592.47
600.806	29778.83
601.002	29977.48
601.198	29365.14
601.395	29692.82
601.591	29643.66
601.787	29483.92
601.984	29225.88
602.18	29393.81
602.376	29211.54
602.572	29111.19
602.769	29199.26
602.965	28578.72
603.161	28619.68
603.357	28568.48
603.553	28754.85
603.75	28683.17
603.946	28617.63
604.142	28259.24
604.338	28199.85
604.534	28285.86
604.73	28042.15
604.926	27872.17
605.122	27839.4
605.318	27913.13
605.514	27804.59
605.71	27614.13
605.906	27681.71
606.102	27431.86
606.298	27558.83
606.494	27550.64
606.69	27532.21
606.886	27569.07
607.082	27065.27
607.278	27231.16
607.474	26651.58
607.67	27173.81
607.866	26444.74
608.062	26897.34
608.257	26852.28
608.453	26502.08
608.649	26831.8
608.845	26428.35
609.041	26235.84
609.236	26579.9
609.432	26225.61
609.628	26434.5
609.824	26563.52
610.019	26127.3
610.215	25678.8
610.411	26250.18
610.606	26049.48
610.802	26248.13
610.998	26037.19
611.193	26145.73
611.389	25732.04
611.584	25646.03
611.78	25678.8
611.976	25572.3
612.171	25506.77
612.367	25684.94
612.562	25504.72
612.758	25088.98
612.953	25285.59
613.149	25357.27
613.344	25035.74
613.539	25609.17
613.735	25256.92
613.93	25564.11
614.126	25113.56
614.321	25377.75
614.517	25060.31
614.712	25068.5
614.907	25009.11
615.103	24996.82
615.298	24828.89
615.493	25136.09
615.688	24425.44
615.884	25254.87
616.079	24484.83
616.274	24937.43
616.47	24372.19
616.665	24472.54
616.86	24204.26
617.055	24472.54
617.25	24114.15
617.445	24415.2
617.641	23888.87
617.836	24593.37
618.031	23784.43
618.226	24286.18
618.421	24005.61
618.616	24087.53
618.811	23581.68
619.006	24069.09
619.201	23393.26
619.396	23518.19
619.591	22963.19
619.786	23596.01
619.981	23004.15
620.176	23331.83
620.371	22950.9
620.566	23227.38
620.761	23098.36
620.956	22883.32
621.151	22295.55
621.346	22842.36
621.541	22223.87
621.735	22303.74
621.93	22232.07
622.125	22264.83
622.32	21806.09
622.515	22248.45
622.709	21875.72
622.904	21845
623.099	21685.26
623.294	21640.2
623.488	21206.03
623.683	21412.88
623.878	21152.79
624.072	21187.6
624.267	21044.24
624.462	20956.18
624.656	20722.71
624.851	20808.73
625.046	20466.72
625.24	20261.92
625.435	20489.24
625.629	20077.6
625.824	20065.32
626.018	20163.62
626.213	19625
626.407	19930.15
626.602	19706.92
626.796	19727.4
626.991	19430.44
627.185	19538.99
627.38	19409.97
627.574	19260.46
627.768	19043.38
627.963	18867.25
628.157	18891.83
628.352	18781.24
628.546	18472
628.74	18687.03
628.935	18453.56
629.129	18426.94
629.323	18199.62
629.517	18089.03
629.712	18013.25
629.906	18168.9
630.1	17392.72
630.294	17810.5
630.489	17761.35
630.683	17661
630.877	17501.26
631.071	17331.28
631.265	17300.56
631.459	17308.75
631.653	17114.19
631.848	17095.76
632.042	17007.7
632.236	16938.07
632.43	16782.42
632.624	16692.31
632.818	16542.81
633.012	16663.64
633.206	16569.43
633.4	16397.4
633.594	16268.38
633.788	16276.57
633.982	16272.48
634.176	16045.15
634.369	15942.75
634.563	15938.66
634.757	15772.77
634.951	16071.78
635.145	15555.69
635.339	15516.78
635.533	15477.87
635.726	15602.79
635.92	15268.97
636.114	15295.6
636.308	15197.29
636.501	15201.39
636.695	15017.07
636.889	14865.52
637.083	14789.75
637.276	14613.62
637.47	14845.04
637.664	14744.69
637.857	14533.75
638.051	14627.96
638.244	14390.39
638.438	14419.07
638.632	14427.26
638.825	13943.94
639.019	14019.71
639.212	14095.49
639.406	13919.36
639.599	13952.13
639.793	13847.68
639.986	13726.85
640.18	13634.69
640.373	13751.43
640.567	13520.01
640.76	13599.88
640.954	13264.01
641.147	13231.24
641.34	13106.32
641.534	13327.5
641.727	13032.59
641.92	13053.07
642.114	12870.8
642.307	13077.65
642.5	12870.8
642.694	12733.59
642.887	12577.94
643.08	12741.78
643.273	12295.32
643.467	12532.89
643.66	12225.69
643.853	12274.84
644.046	12096.67
644.239	12240.03
644.432	12170.4
644.626	11924.64
644.819	12092.57
645.012	11973.79
645.205	12024.99
645.398	11809.95
645.591	11703.46
645.784	11642.02
645.977	11605.16
646.17	11609.25
646.363	11785.38
646.556	11363.5
646.749	11465.89
646.942	11273.39
647.135	11277.48
647.328	11248.81
647.521	11066.54
647.714	10986.67
647.907	11183.27
648.099	11068.59
648.292	11181.23
648.485	10644.66
648.678	10847.41
648.871	10892.46
649.064	10630.32
649.256	10730.67
649.449	10568.88
649.642	10638.51
649.835	10443.96
650.027	10478.77
650.22	10417.33
650.413	10415.29
650.605	10149.05
650.798	10314.94
650.991	10114.24
651.183	10155.19
651.376	9974.97
651.568	10181.82
651.761	9974.97
651.954	10007.74
652.146	9919.68
652.339	9821.38
652.531	9899.2
652.724	9780.42
652.916	9637.06
653.109	9606.34
653.301	9731.26
653.494	9575.62
653.686	9395.4
653.879	9522.37
654.071	9237.7
654.263	9376.97
654.456	9309.38
654.648	9286.86
654.84	9145.55
655.033	9088.2
655.225	9131.21
655.417	9057.48
655.61	9084.11
655.802	9147.59
655.994	8881.36
656.186	9061.58
656.379	8897.74
656.571	8703.18
656.763	8729.81
656.955	8715.47
657.148	8688.85
657.34	8596.69
657.532	8684.75
657.724	8475.86
657.916	8463.57
658.108	8371.41
658.3	8492.24
658.492	8232.15
658.684	8289.49
658.876	8414.42
659.068	8260.82
659.26	8223.96
659.452	8197.34
659.644	8078.55
659.836	8117.47
660.028	8070.36
660.22	8029.4
660.412	7746.78
660.604	7898.33
660.796	8002.78
660.988	7873.76
661.18	7857.37
661.372	7750.88
661.563	7773.41
661.755	7711.97
661.947	7628
662.139	7578.85
662.331	7621.86
662.522	7541.99
662.714	7640.29
662.906	7435.49
663.097	7455.97
663.289	7298.28
663.481	7281.89
663.673	7460.07
663.864	7306.47
664.056	7365.86
664.247	7281.89
664.439	7103.72
664.631	7083.24
664.822	7167.21
665.014	7126.25
665.205	7017.71
665.397	7154.92
665.588	6954.22
665.78	7009.51
665.971	6845.68
666.163	6989.03
666.354	6884.59
666.546	6907.12
666.737	6737.13
666.929	6857.96
667.12	6745.33
667.311	6765.81
667.503	6675.7
667.694	6661.36
667.885	6743.28
668.077	6591.73
668.268	6417.65
668.459	6714.61
668.651	6718.7
668.842	6558.96
669.033	6409.46
669.224	6505.71
669.416	6526.19
669.607	6350.07
669.798	6325.49
669.989	6317.3
670.18	6343.92
670.371	6411.51
670.563	6292.73
670.754	6208.76
670.945	6249.72
671.136	6313.2
671.327	6362.36
671.518	6223.09
671.709	6178.04
671.9	6223.09
672.091	6202.61
672.282	6169.85
672.473	6145.27
672.664	5991.67
672.855	6114.55
673.046	6022.39
673.237	6108.41
673.428	5940.47
673.619	6051.07
673.809	5942.52
674	5985.53
674.191	5958.91
674.382	5842.17
674.573	5989.63
674.764	5741.82
674.954	5891.32
675.145	5907.71
675.336	5752.06
675.527	5848.32
675.717	5780.73
675.908	5729.53
676.099	5758.21
676.289	5842.17
676.48	5612.8
676.671	5690.62
676.861	5670.14
677.052	5537.02
677.243	5584.13
677.433	5715.2
677.624	5567.74
677.814	5592.32
678.005	5510.4
678.195	5461.25
678.386	5580.03
678.576	5477.63
678.767	5512.45
678.957	5526.78
679.148	5631.23
679.338	5563.65
679.529	5401.86
679.719	5465.35
679.909	5520.64
680.1	5274.88
680.29	5577.98
680.481	5397.76
680.671	5629.18
680.861	5354.76
681.052	5416.19
681.242	5365
681.432	5332.23
681.622	5379.33
681.813	5414.15
682.003	5293.32
682.193	5217.54
682.383	5414.15
682.573	5326.08
682.764	5244.17
682.954	5383.43
683.144	5377.28
683.334	5229.83
683.524	5373.19
683.714	5104.9
683.904	5397.76
684.094	5235.97
684.284	5201.16
684.474	5377.28
684.664	5229.83
684.854	5043.46
685.044	5190.92
685.234	5332.23
685.424	5203.21
685.614	5008.65
685.804	5297.41
685.994	5027.08
686.184	5170.44
686.374	5065.99
686.564	5016.84
686.753	5145.86
686.943	5135.62
687.133	5090.57
687.323	5092.62
687.513	5041.42
687.702	5037.32
687.892	4959.5
688.082	4955.4
688.272	4746.51
688.461	4857.1
688.651	4830.48
688.841	4785.42
689.03	4881.67
689.22	4742.41
689.41	4771.08
689.599	4818.19
689.789	4783.37
689.979	4611.34
690.168	4656.4
690.358	4683.02
690.547	4564.24
690.737	4660.49
690.926	4699.41
691.116	4599.06
691.305	4582.67
691.495	4572.43
691.684	4615.44
691.874	4506.9
692.063	4582.67
692.252	4451.6
692.442	4539.66
692.631	4529.42
692.82	4566.29
693.01	4539.66
693.199	4326.68
693.388	4302.1
693.578	4377.87
693.767	4500.75
693.956	4330.77
694.146	4390.16
694.335	4363.54
694.524	4242.71
694.713	4263.19
694.902	4324.63
695.092	4074.78
695.281	4146.45
695.47	4330.77
695.659	4199.7
695.848	4181.27
696.037	4203.8
696.226	4306.2
696.415	4277.52
696.604	4336.92
696.793	4117.78
696.982	4228.37
697.171	4140.31
697.36	4175.13
697.549	4121.88
697.738	4037.91
697.927	4164.89
698.116	4226.32
698.305	4009.24
698.494	4125.97
698.683	4023.58
698.872	4093.21
699.061	4015.38
699.25	4160.79
699.438	4103.45
699.627	3974.42
699.816	4211.99
700.005	4095.25
700.193	4068.63
700.382	4085.02
700.571	4085.02
700.76	4064.54
700.948	3978.52
701.137	4257.04
701.326	3958.04
701.514	4021.53
701.703	4152.6
701.892	3960.09
702.08	4119.83
702.269	3996.95
702.457	4017.43
702.646	3953.95
702.834	3882.27
703.023	3921.18
703.212	4039.96
703.4	3958.04
703.589	3884.31
703.777	4052.25
703.965	4009.24
704.154	4048.15
704.342	4058.39
704.531	4062.49
704.719	3937.56
704.907	3984.66
705.096	4021.53
705.284	4025.62
705.472	3949.85
705.661	3988.76
705.849	3927.32
706.037	4042.01
706.226	3863.83
706.414	3999
706.602	3976.47
706.79	4099.35
706.979	3843.35
707.167	3999
707.355	3831.07
707.543	3925.27
707.731	4013.34
707.919	3876.12
708.107	3896.6
708.296	3904.79
708.484	3986.71
708.672	3921.18
708.86	4058.39
709.048	3962.14
709.236	4054.3
709.424	4158.74
709.612	3931.42
709.8	3994.9
709.988	3927.32
710.176	4103.45
710.364	4056.34
710.551	4095.25
710.739	3824.92
710.927	3892.51
711.115	3990.81
711.303	3908.89
711.491	4080.92
711.679	3935.51
711.866	3880.22
712.054	4078.87
712.242	3939.61
712.43	3939.61
712.617	4046.1
712.805	3949.85
712.993	3990.81
713.181	3917.08
713.368	3861.79
713.556	4060.44
713.744	3999
713.931	4005.14
714.119	3888.41
714.306	3872.03
714.494	3970.33
714.682	3929.37
714.869	3943.71
715.057	4052.25
715.244	3878.17
715.432	4039.96
715.619	4017.43
715.807	3888.41
715.994	4007.19
716.182	4109.59
716.369	4003.1
716.556	3925.27
716.744	3978.52
716.931	4048.15
717.119	3917.08
717.306	4042.01
717.493	4009.24
717.681	3949.85
717.868	3976.47
718.055	4001.05
718.242	3876.12
718.43	3994.9
718.617	4115.73
718.804	4076.82
718.991	3990.81
719.179	3982.62
719.366	3900.7
719.553	4015.38
719.74	3968.28
719.927	4097.3
720.114	3898.65
720.301	3953.95
720.488	3876.12
720.676	4056.34
720.863	3988.76
721.05	3984.66
721.237	3919.13
721.424	3933.47
721.611	3964.18
721.798	3964.18
721.985	4048.15
722.172	3886.36
722.358	3968.28
722.545	3902.75
722.732	3988.76
722.919	3970.33
723.106	3986.71
723.293	3855.64
723.48	3976.47
723.667	3874.07
723.853	3847.45
724.04	3994.9
724.227	3890.46
724.414	3810.59
724.6	3886.36
724.787	3960.09
724.974	3912.99
725.161	4056.34
725.347	3792.16
725.534	3933.47
725.72	3902.75
725.907	3964.18
726.094	3929.37
726.28	3847.45
726.467	3794.2
726.653	3839.26
726.84	3800.35
727.027	3792.16
727.213	3740.96
727.4	3839.26
727.586	3853.59
727.773	3759.39
727.959	3953.95
728.145	3888.41
728.332	3728.67
728.518	3857.69
728.705	3806.49
728.891	3755.29
729.077	3851.55
729.264	3908.89
729.45	3829.02
729.636	3915.03
729.823	3880.22
730.009	3818.78
730.195	3851.55
730.382	3861.79
730.568	3882.27
730.754	3808.54
730.94	3763.48
731.126	3947.8
731.313	3822.88
731.499	3773.72
731.685	3835.16
731.871	3929.37
732.057	3835.16
732.243	3810.59
732.429	3732.76
732.615	3845.4
732.801	3665.18
732.987	3677.47
733.173	3763.48
733.359	3814.68
733.545	3769.63
733.731	3753.24
733.917	3675.42
734.103	3751.2
734.289	3786.01
734.475	3700
734.661	3663.13
734.847	3747.1
735.033	3820.83
735.219	3626.27
735.404	3548.45
735.59	3722.52
735.776	3605.79
735.962	3781.92
736.148	3745.05
736.333	3620.13
736.519	3558.69
736.705	3661.09
736.89	3579.17
737.076	3620.13
737.262	3558.69
737.447	3564.83
737.633	3638.56
737.819	3626.27
738.004	3673.37
738.19	3450.14
738.375	3521.82
738.561	3552.54
738.747	3464.48
738.932	3566.88
739.118	3613.98
739.303	3560.74
739.489	3427.62
739.674	3474.72
739.859	3532.06
740.045	3433.76
740.23	3462.43
740.416	3431.71
740.601	3581.21
740.786	3460.38
740.972	3484.96
741.157	3323.17
741.342	3403.04
741.528	3298.6
741.713	3380.51
741.898	3347.75
742.084	3294.5
742.269	3310.88
742.454	3278.12
742.639	3300.64
742.824	3304.74
743.01	3271.97
743.195	3280.16
743.38	3241.25
743.565	3245.35
743.75	3276.07
743.935	3145
744.12	3153.19
744.305	3188
744.49	3153.19
744.675	3233.06
744.86	3108.13
745.045	3108.13
745.23	3147.05
745.415	3044.65
745.6	3110.18
745.785	3073.32
745.97	3022.12
746.155	2925.86
746.34	2993.45
746.525	2952.49
746.71	2909.48
746.895	2940.2
747.079	2925.86
747.264	2854.19
747.449	2972.97
747.634	2739.5
747.819	2929.96
748.003	2848.04
748.188	2905.39
748.373	2729.26
748.557	2893.1
748.742	2682.16
748.927	2680.11
749.111	2700.59
749.296	2694.44
749.481	2686.25
749.665	2733.36
749.85	2557.23
750.034	2712.88
750.219	2727.21
750.404	2549.04
750.588	2639.15
750.773	2645.29
750.957	2565.42
751.141	2608.43
751.326	2555.18
751.51	2479.41
751.695	2350.39
751.879	2428.21
752.064	2487.6
752.248	2403.63
752.432	2362.67
752.617	2438.45
752.801	2528.56
752.985	2311.47
753.17	2395.44
753.354	2311.47
753.538	2164.02
753.722	2215.22
753.907	2225.46
754.091	2211.12
754.275	2149.68
754.459	2284.85
754.643	2192.69
754.828	2137.4
755.012	2196.79
755.196	2123.06
755.38	2102.58
755.564	2174.26
755.748	2123.06
755.932	2213.17
756.116	2102.58
756.3	2098.49
756.484	2100.53
756.668	1985.85
756.852	2135.35
757.036	2014.52
757.22	1942.84
757.404	2016.57
757.588	1981.75
757.772	1946.94
757.956	1967.42
758.14	1885.5
758.323	1877.3
758.507	1981.75
758.691	2010.42
758.875	1795.39
759.059	1908.02
759.242	1850.68
759.426	1819.96
759.61	1869.11
759.794	1885.5
759.977	1805.63
760.161	1854.78
760.345	1756.47
760.528	1822.01
760.712	1713.47
760.895	1701.18
761.079	1723.71
761.263	1731.9
761.446	1678.65
761.63	1850.68
761.813	1695.04
761.997	1666.36
762.18	1692.99
762.364	1666.36
762.547	1598.78
762.731	1606.97
762.914	1635.64
763.098	1746.23
763.281	1594.69
763.464	1785.15
763.648	1658.17
763.831	1510.72
764.015	1602.88
764.198	1590.59
764.381	1670.46
764.564	1512.77
764.748	1445.18
764.931	1520.96
765.114	1432.9
765.297	1541.44
765.481	1467.71
765.664	1508.67
765.847	1520.96
766.03	1498.43
766.213	1506.62
766.397	1473.85
766.58	1375.55
766.763	1455.42
766.946	1480
767.129	1455.42
767.312	1430.85
767.495	1383.74
767.678	1406.27
767.861	1447.23
768.044	1451.33
768.227	1443.14
768.41	1473.85
768.593	1422.66
768.776	1385.79
768.959	1508.67
769.142	1350.98
769.324	1355.07
769.507	1365.31
769.69	1344.83
769.873	1273.15
770.056	1283.39
770.239	1283.39
770.421	1275.2
770.604	1305.92
770.787	1350.98
770.97	1320.26
771.152	1219.91
771.335	1291.59
771.518	1350.98
771.7	1336.64
771.883	1262.91
772.066	1279.3
772.248	1219.91
772.431	1244.48
772.613	1242.43
772.796	1226.05
772.978	1258.82
773.161	1236.29
773.343	1101.12
773.526	1234.24
773.708	1078.6
773.891	1146.18
774.073	1256.77
774.256	1174.85
774.438	1140.04
774.621	1086.79
774.803	1213.76
774.985	1025.35
775.168	1090.88
775.35	1056.07
775.532	1187.14
775.715	1045.83
775.897	1135.94
776.079	1064.26
776.261	1129.8
776.444	1064.26
776.626	959.81
776.808	1015.11
776.99	1017.16
777.173	1000.77
777.355	1013.06
777.537	1037.64
777.719	1019.21
777.901	859.46
778.083	955.72
778.265	888.14
778.447	947.53
778.629	990.53
778.811	912.71
778.993	898.38
779.175	970.05
779.357	968.01
779.539	884.04
779.721	875.85
779.903	963.91
780.085	859.46
780.267	838.98
780.449	861.51
780.631	937.29
780.812	843.08
780.994	838.98
781.176	826.7
781.358	871.75
781.54	769.35
781.721	775.5
781.903	845.13
782.085	652.62
782.267	722.25
782.448	755.02
782.63	752.97
782.812	736.59
782.993	855.37
783.175	722.25
783.357	703.82
783.538	832.84
783.72	769.35
783.901	783.69
784.083	767.31
784.264	705.87
784.446	650.57
784.627	738.63
784.809	734.54
784.99	628.04
785.172	697.67
785.353	695.63
785.535	697.67
785.716	632.14
785.897	683.34
786.079	683.34
786.26	724.3
786.441	675.15
786.623	613.71
786.804	572.75
786.985	587.08
787.167	558.41
787.348	587.08
787.529	623.95
787.71	623.95
787.891	611.66
788.073	593.23
788.254	611.66
788.435	591.18
788.616	570.7
788.797	554.32
788.978	562.51
789.159	523.6
789.34	560.46
789.522	558.41
789.703	542.03
789.884	572.75
790.065	542.03
790.246	599.37
790.427	519.5
790.607	576.84
790.788	488.78
790.969	521.55
791.15	507.21
791.331	511.31
791.512	533.84
791.693	509.26
791.874	474.45
792.054	587.08
792.235	535.89
792.416	435.53
792.597	464.21
792.778	494.93
792.958	451.92
793.139	378.19
793.32	447.82
793.5	437.58
793.681	476.49
793.862	552.27
794.042	427.34
794.223	337.23
794.404	462.16
794.584	396.62
794.765	427.34
794.945	476.49
795.126	505.17
795.306	460.11
795.487	351.57
795.667	533.84
795.848	460.11
796.028	443.73
796.209	458.06
796.389	378.19
796.57	431.44
796.75	410.96
796.93	464.21
797.111	423.25
797.291	423.25
797.471	423.25
797.652	380.24
797.832	329.04
798.012	462.16
798.192	361.81
798.373	384.34
798.553	386.38
798.733	415.06
798.913	417.1
799.093	339.28
799.274	392.53
799.454	370
799.634	435.53
799.814	482.64
799.994	427.34
800.174	402.77
800.354	279.89
800.534	283.99
800.714	390.48
800.894	351.57
801.074	349.52
801.254	365.9
801.434	298.32
801.614	357.71
801.794	435.53
801.974	736.59
802.154	312.66
802.334	329.04
802.514	300.37
802.693	376.14
802.873	296.27
803.053	312.66
803.233	296.27
803.413	238.93
803.592	312.66
803.772	316.75
803.952	277.84
804.131	269.65
804.311	361.81
804.491	310.61
804.67	286.03
804.85	308.56
805.03	290.13
805.209	312.66
805.389	286.03
805.568	240.98
805.748	337.23
805.928	312.66
806.107	300.37
806.287	337.23
806.466	224.59
806.646	257.36
806.825	216.4
807.004	249.17
807.184	302.42
807.363	294.22
807.543	263.51
807.722	271.7
807.901	255.31
808.081	283.99
808.26	206.16
808.439	236.88
808.619	281.94
808.798	210.26
808.977	312.66
809.156	339.28
809.336	255.31
809.515	318.8
809.694	195.92
809.873	277.84
810.052	236.88
810.231	279.89
810.411	236.88
810.59	230.74
810.769	230.74
810.948	308.56
811.127	230.74
811.306	314.7
811.485	232.79
811.664	240.98
811.843	255.31
812.022	232.79
812.201	177.49
812.38	218.45
812.559	210.26
812.737	288.08
812.916	202.07
813.095	236.88
813.274	200.02
813.453	210.26
813.632	193.87
813.811	197.97
813.989	208.21
814.168	232.79
814.347	263.51
814.526	195.92
814.704	234.83
814.883	185.68
815.062	238.93
815.24	257.36
815.419	187.73
815.598	216.4
815.776	195.92
815.955	197.97
816.133	134.48
816.312	189.78
816.49	200.02
816.669	165.2
816.847	214.35
817.026	263.51
817.204	159.06
817.383	189.78
817.561	200.02
817.74	226.64
817.918	269.65
818.097	122.2
818.275	228.69
818.453	179.54
818.632	218.45
818.81	200.02
818.988	216.4
819.167	169.3
819.345	161.11
819.523	161.11
819.701	179.54
819.879	238.93
820.058	146.77
820.236	163.15
820.414	101.72
820.592	116.05
820.77	177.49
820.948	148.82
821.127	103.76
821.305	206.16
821.483	140.63
821.661	167.25
821.839	154.96
822.017	91.48
822.195	128.34
822.373	200.02
822.551	169.3
822.729	204.11
822.907	79.19
823.085	218.45
823.262	191.83
823.44	152.92
823.618	79.19
823.796	99.67
823.974	85.33
824.152	142.68
824.329	118.1
824.507	181.59
824.685	116.05
824.863	91.48
825.04	99.67
825.218	103.76
825.396	138.58
825.574	118.1
825.751	148.82
825.929	54.61
826.107	105.81
826.284	73.04
826.462	128.34
826.639	185.68
826.817	83.28
826.994	171.35
827.172	73.04
827.349	238.93
827.527	163.15
827.704	154.96
827.882	64.85
828.059	116.05
828.237	120.15
828.414	179.54
828.591	27.99
828.769	124.24
828.946	109.91
829.124	81.24
829.301	185.68
829.478	173.39
829.655	122.2
829.833	81.24
830.01	62.8
830.187	75.09
830.364	93.52
830.542	103.76
830.719	181.59
830.896	146.77
831.073	27.99
831.25	128.34
831.427	83.28
831.604	122.2
831.782	159.06
831.959	142.68
832.136	105.81
832.313	193.87
832.49	77.14
832.667	154.96
832.844	25.94
833.021	105.81
833.198	107.86
833.374	17.75
833.551	107.86
833.728	138.58
833.905	214.35
834.082	58.71
834.259	38.23
834.436	126.29
834.612	32.08
834.789	202.07
834.966	3.41
835.143	105.81
835.319	15.7
835.496	118.1
835.673	99.67
835.85	79.19
836.026	71
836.203	40.28
836.38	109.91
836.556	163.15
836.733	124.24
836.909	140.63
837.086	40.28
837.262	30.04
837.439	93.52
837.616	58.71
837.792	38.23
837.968	105.81
838.145	15.7
838.321	85.33
838.498	95.57
838.674	97.62
838.851	46.42
839.027	97.62
839.203	114
839.38	165.2
839.556	73.04
839.732	144.72
839.909	50.52
840.085	111.96
840.261	136.53
840.437	91.48
840.614	118.1
840.79	50.52
840.966	116.05
841.142	87.38
841.318	75.09
841.494	163.15
841.671	77.14
841.847	9.56
842.023	124.24
842.199	93.52
842.375	97.62
842.551	23.89
842.727	23.89
842.903	140.63
843.079	68.95
843.255	87.38
843.431	87.38
843.607	101.72
843.783	7.51
843.959	19.8
844.134	1.37
844.31	116.05
844.486	48.47
844.662	-4.78
844.838	81.24
845.013	27.99
845.189	75.09
845.365	54.61
845.541	58.71
845.716	34.13
845.892	150.87
846.068	73.04
846.244	56.66
846.419	1.37
846.595	66.9
846.77	42.32
846.946	34.13
847.122	91.48
847.297	75.09
847.473	120.15
847.648	46.42
847.824	7.51
847.999	52.56
848.175	122.2
848.35	124.24
848.526	66.9
848.701	-2.73
848.876	79.19
849.052	75.09
849.227	27.99
849.403	-35.5
849.578	17.75
849.753	52.56
849.929	-19.11
850.104	-6.83
850.279	83.28
850.454	58.71
850.63	120.15
850.805	-55.98
850.98	-17.07
851.155	19.8
851.33	56.66
851.505	-47.79
851.681	75.09
851.856	42.32
852.031	101.72
852.206	50.52
852.381	23.89
852.556	50.52
852.731	32.08
852.906	23.89
853.081	44.37
853.256	48.47
853.431	-19.11
853.606	71
853.781	38.23
853.956	48.47
854.131	9.56
854.305	81.24
854.48	5.46
854.655	-8.87
854.83	32.08
855.005	-0.68
855.18	36.18
855.354	60.76
855.529	38.23
855.704	-49.83
855.879	40.28
856.053	-23.21
856.228	66.9
856.403	62.8
856.577	17.75
856.752	-6.83
856.926	52.56
857.101	34.13
857.276	52.56
857.45	13.65
857.625	93.52
857.799	46.42
857.974	124.24
858.148	-31.4
858.323	50.52
858.497	11.61
858.672	3.41
858.846	-10.92
859.02	85.33
859.195	-17.07
859.369	34.13
859.543	-2.73
859.718	23.89
859.892	-47.79
860.066	-37.55
860.241	44.37
860.415	73.04
860.589	50.52
860.763	64.85
860.938	-29.35
861.112	34.13
861.286	-39.59
861.46	11.61
861.634	38.23
861.808	23.89
861.982	-25.26
862.157	56.66
862.331	48.47
862.505	3.41
862.679	-29.35
862.853	-15.02
863.027	46.42
863.201	-2.73
863.375	-35.5
863.549	34.13
863.722	64.85
863.896	5.46
864.07	107.86
864.244	-8.87
864.418	73.04
864.592	19.8
864.766	-15.02
864.939	30.04
865.113	-35.5
865.287	71
865.461	13.65
865.634	60.76
865.808	21.85
865.982	25.94
866.156	-60.07
866.329	-31.4
866.503	17.75
866.676	75.09
866.85	97.62
867.024	34.13
867.197	46.42
867.371	38.23
867.544	23.89
867.718	-60.07
867.891	30.04
868.065	-47.79
868.238	-39.59
868.412	62.8
868.585	-10.92
868.759	68.95
868.932	19.8
869.105	54.61
869.279	73.04
869.452	1.37
869.625	44.37
869.799	-12.97
869.972	-35.5
870.145	-10.92
870.319	17.75
870.492	11.61
870.665	-39.59
870.838	-29.35
871.011	15.7
871.185	38.23
871.358	7.51
871.531	-41.64
871.704	-51.88
871.877	11.61
872.05	1.37
872.223	-0.68
872.396	64.85
872.569	-29.35
872.742	-8.87
872.915	42.32
873.088	-15.02
873.261	-86.7
873.434	58.71
873.607	19.8
873.78	11.61
873.953	-4.78
874.126	30.04
874.299	-43.69
874.471	21.85
874.644	73.04
874.817	30.04
874.99	83.28
875.163	75.09
875.335	34.13
875.508	-47.79
875.681	46.42
875.853	32.08
876.026	-8.87
876.199	30.04
876.371	32.08
876.544	-23.21
876.717	-4.78
876.889	-39.59
877.062	23.89
877.234	-39.59
877.407	-49.83
877.579	-0.68
877.752	64.85
877.924	21.85
878.097	42.32
878.269	40.28
878.442	27.99
878.614	-15.02
878.786	1.37
878.959	25.94
879.131	-49.83
879.303	-23.21
879.476	71
879.648	-0.68
879.82	19.8
879.993	-35.5
880.165	-2.73
880.337	-29.35
880.509	-23.21
880.681	-31.4
880.854	23.89
881.026	-33.45
881.198	81.24
881.37	3.41
881.542	15.7
881.714	-2.73
881.886	21.85
882.058	27.99
882.23	64.85
882.402	13.65
882.574	25.94
882.746	-33.45
882.918	19.8
883.09	-25.26
883.262	48.47
883.434	-31.4
883.606	-39.59
883.778	23.89
883.95	-23.21
884.122	-51.88
884.293	-74.41
884.465	-25.26
884.637	44.37
884.809	7.51
884.98	1.37
885.152	64.85
885.324	-0.68
885.496	-39.59
885.667	23.89
885.839	-19.11
886.011	46.42
886.182	9.56
886.354	40.28
886.525	75.09
886.697	34.13
886.869	46.42
887.04	36.18
887.212	-23.21
887.383	15.7
887.555	-43.69
887.726	-64.17
887.897	15.7
888.069	-55.98
888.24	19.8
888.412	-58.03
888.583	23.89
888.754	-12.97
888.926	-19.11
889.097	-10.92
889.268	-23.21
889.44	-35.5
889.611	-25.26
889.782	25.94
889.953	-66.22
890.125	50.52
890.296	-0.68
890.467	30.04
890.638	-70.31
890.809	19.8
890.98	-21.16
891.151	5.46
891.323	40.28
891.494	27.99
891.665	34.13
891.836	36.18
892.007	-27.31
892.178	-45.74
892.349	-31.4
892.52	-0.68
892.691	-64.17
892.862	-2.73
893.032	-49.83
893.203	-31.4
893.374	-6.83
893.545	9.56
893.716	-35.5
893.887	-62.12
894.057	5.46
894.228	42.32
894.399	15.7
894.57	-8.87
894.74	-23.21
894.911	34.13
895.082	23.89
895.253	-4.78
895.423	40.28
895.594	27.99
895.764	-29.35
895.935	13.65
896.106	25.94
896.276	-53.93
896.447	-2.73
896.617	-27.31
896.788	-129.7
896.958	5.46
897.129	-43.69
897.299	-43.69
897.47	52.56
897.64	-8.87
897.81	-25.26
897.981	7.51
898.151	-15.02
898.322	13.65
898.492	-31.4
898.662	-2.73
898.832	-21.16
899.003	-53.93
899.173	-25.26
899.343	-37.55
899.513	-33.45
