Data from USB4F104151__39__10-22-39-261.txt Node

Date: Wed Mar 12 10:22:39 EDT 2025
User: louis
Spectrometer: USB4F10415
Trigger mode: 4
Integration Time (sec): 3.000000E-2
Scans to average: 1
Electric dark correction enabled: true
Nonlinearity correction enabled: false
Boxcar width: 0
XAxis mode: Wavelengths
Number of Pixels in Spectrum: 3648
>>>>>Begin Spectral Data<<<<<
178.204	-85.33
178.424	-85.33
178.644	-85.33
178.864	-64.85
179.084	-116.05
179.304	-32.08
179.524	8.87
179.744	-13.65
179.964	37.55
180.184	25.26
180.404	6.83
180.624	-62.8
180.844	41.64
181.064	0.68
181.283	4.78
181.503	27.31
181.723	-44.37
181.943	-87.38
182.163	101.03
182.383	8.87
182.602	-32.08
182.822	-19.8
183.042	88.75
183.262	-7.51
183.482	-7.51
183.701	49.83
183.921	37.55
184.141	12.97
184.361	70.31
184.58	10.92
184.8	27.31
185.02	45.74
185.239	51.88
185.459	53.93
185.679	51.88
185.898	-13.65
186.118	150.18
186.338	41.64
186.557	43.69
186.777	58.03
186.997	-30.04
187.216	29.35
187.436	86.7
187.655	82.6
187.875	58.03
188.095	21.16
188.314	19.11
188.534	121.51
188.753	19.11
188.973	23.21
189.192	15.02
189.412	68.27
189.631	105.13
189.851	33.45
190.07	146.09
190.29	-27.99
190.509	31.4
190.729	51.88
190.948	33.45
191.168	144.04
191.387	109.23
191.607	-23.89
191.826	0.68
192.045	25.26
192.265	-7.51
192.484	-52.56
192.704	94.89
192.923	-5.46
193.142	119.46
193.362	25.26
193.581	119.46
193.8	47.79
194.02	62.12
194.239	-13.65
194.458	60.07
194.678	111.27
194.897	37.55
195.116	51.88
195.335	70.31
195.555	4.78
195.774	-34.13
195.993	37.55
196.212	47.79
196.432	31.4
196.651	47.79
196.87	62.12
197.089	135.85
197.308	23.21
197.528	4.78
197.747	35.5
197.966	-13.65
198.185	78.51
198.404	21.16
198.623	72.36
198.842	-11.61
199.062	58.03
199.281	58.03
199.5	35.5
199.719	17.07
199.938	76.46
200.157	21.16
200.376	58.03
200.595	53.93
200.814	86.7
201.033	94.89
201.252	10.92
201.471	15.02
201.69	66.22
201.909	62.12
202.128	10.92
202.347	88.75
202.566	-5.46
202.785	-3.41
203.004	-7.51
203.223	148.14
203.442	41.64
203.661	6.83
203.879	-13.65
204.098	66.22
204.317	-13.65
204.536	41.64
204.755	70.31
204.974	76.46
205.193	39.59
205.411	103.08
205.63	78.51
205.849	45.74
206.068	70.31
206.287	90.79
206.505	49.83
206.724	49.83
206.943	0.68
207.162	6.83
207.381	-11.61
207.599	12.97
207.818	49.83
208.037	90.79
208.255	70.31
208.474	58.03
208.693	-11.61
208.911	45.74
209.13	-23.89
209.349	43.69
209.567	-5.46
209.786	62.12
210.005	37.55
210.223	-48.47
210.442	-27.99
210.661	74.41
210.879	41.64
211.098	23.21
211.316	23.21
211.535	115.37
211.753	70.31
211.972	53.93
212.191	4.78
212.409	45.74
212.628	29.35
212.846	43.69
213.065	37.55
213.283	8.87
213.502	115.37
213.72	4.78
213.938	33.45
214.157	25.26
214.375	-1.37
214.594	0.68
214.812	131.75
215.031	119.46
215.249	58.03
215.467	72.36
215.686	72.36
215.904	21.16
216.122	15.02
216.341	109.23
216.559	49.83
216.778	98.99
216.996	111.27
217.214	78.51
217.432	47.79
217.651	21.16
217.869	-7.51
218.087	4.78
218.306	0.68
218.524	60.07
218.742	-46.42
218.96	47.79
219.179	17.07
219.397	53.93
219.615	127.66
219.833	49.83
220.051	47.79
220.27	68.27
220.488	90.79
220.706	92.84
220.924	45.74
221.142	62.12
221.36	-38.23
221.578	60.07
221.796	19.11
222.015	4.78
222.233	117.42
222.451	37.55
222.669	-15.7
222.887	-13.65
223.105	-62.8
223.323	-27.99
223.541	-3.41
223.759	0.68
223.977	4.78
224.195	51.88
224.413	47.79
224.631	29.35
224.849	29.35
225.067	58.03
225.285	27.31
225.503	66.22
225.721	-66.9
225.939	62.12
226.157	68.27
226.375	127.66
226.592	53.93
226.81	105.13
227.028	-11.61
227.246	111.27
227.464	62.12
227.682	-9.56
227.9	96.94
228.117	58.03
228.335	45.74
228.553	86.7
228.771	86.7
228.989	70.31
229.206	-23.89
229.424	-13.65
229.642	68.27
229.86	15.02
230.077	60.07
230.295	-11.61
230.513	80.55
230.731	23.21
230.948	117.42
231.166	76.46
231.384	-44.37
231.601	47.79
231.819	68.27
232.037	-48.47
232.254	-38.23
232.472	94.89
232.689	55.98
232.907	4.78
233.125	74.41
233.342	17.07
233.56	70.31
233.777	17.07
233.995	53.93
234.213	31.4
234.43	53.93
234.648	-3.41
234.865	29.35
235.083	66.22
235.3	-68.95
235.518	55.98
235.735	129.7
235.953	64.17
236.17	33.45
236.388	31.4
236.605	64.17
236.822	49.83
237.04	72.36
237.257	8.87
237.475	37.55
237.692	90.79
237.909	27.31
238.127	115.37
238.344	86.7
238.562	94.89
238.779	92.84
238.996	107.18
239.214	35.5
239.431	43.69
239.648	12.97
239.865	49.83
240.083	25.26
240.3	80.55
240.517	21.16
240.735	21.16
240.952	43.69
241.169	41.64
241.386	78.51
241.603	8.87
241.821	49.83
242.038	55.98
242.255	109.23
242.472	6.83
242.689	35.5
242.907	64.17
243.124	111.27
243.341	12.97
243.558	0.68
243.775	90.79
243.992	37.55
244.209	123.56
244.426	53.93
244.643	10.92
244.86	78.51
245.078	-17.75
245.295	8.87
245.512	2.73
245.729	-19.8
245.946	70.31
246.163	8.87
246.38	43.69
246.597	86.7
246.814	78.51
247.031	92.84
247.248	41.64
247.464	-9.56
247.681	35.5
247.898	58.03
248.115	47.79
248.332	19.11
248.549	68.27
248.766	80.55
248.983	39.59
249.2	33.45
249.417	39.59
249.633	21.16
249.85	90.79
250.067	-13.65
250.284	23.21
250.501	39.59
250.717	123.56
250.934	-42.32
251.151	2.73
251.368	68.27
251.585	74.41
251.801	45.74
252.018	-44.37
252.235	94.89
252.451	49.83
252.668	0.68
252.885	76.46
253.102	-52.56
253.318	72.36
253.535	51.88
253.752	70.31
253.968	0.68
254.185	-11.61
254.401	12.97
254.618	101.03
254.835	0.68
255.051	60.07
255.268	58.03
255.484	88.75
255.701	39.59
255.917	23.21
256.134	-11.61
256.351	23.21
256.567	12.97
256.784	45.74
257	15.02
257.217	41.64
257.433	74.41
257.65	45.74
257.866	33.45
258.082	60.07
258.299	8.87
258.515	41.64
258.732	21.16
258.948	4.78
259.165	41.64
259.381	-40.28
259.597	27.31
259.814	8.87
260.03	-3.41
260.246	-15.7
260.463	119.46
260.679	66.22
260.895	-27.99
261.112	23.21
261.328	43.69
261.544	8.87
261.761	105.13
261.977	19.11
262.193	0.68
262.409	117.42
262.626	45.74
262.842	21.16
263.058	45.74
263.274	139.94
263.49	37.55
263.707	-34.13
263.923	-46.42
264.139	-44.37
264.355	49.83
264.571	88.75
264.787	17.07
265.004	66.22
265.22	72.36
265.436	39.59
265.652	-5.46
265.868	12.97
266.084	53.93
266.3	51.88
266.516	35.5
266.732	25.26
266.948	-3.41
267.164	17.07
267.38	41.64
267.596	80.55
267.812	4.78
268.028	70.31
268.244	37.55
268.46	37.55
268.676	94.89
268.892	51.88
269.108	49.83
269.324	64.17
269.54	8.87
269.756	2.73
269.972	41.64
270.188	6.83
270.403	45.74
270.619	33.45
270.835	12.97
271.051	107.18
271.267	43.69
271.483	47.79
271.698	86.7
271.914	35.5
272.13	62.12
272.346	33.45
272.562	37.55
272.777	117.42
272.993	2.73
273.209	47.79
273.425	74.41
273.64	-48.47
273.856	68.27
274.072	35.5
274.287	68.27
274.503	66.22
274.719	-17.75
274.934	92.84
275.15	2.73
275.366	55.98
275.581	45.74
275.797	82.6
276.012	115.37
276.228	47.79
276.444	86.7
276.659	185
276.875	-1.37
277.09	-46.42
277.306	35.5
277.521	98.99
277.737	51.88
277.952	121.51
278.168	49.83
278.383	27.31
278.599	33.45
278.814	51.88
279.03	98.99
279.245	43.69
279.461	60.07
279.676	51.88
279.892	53.93
280.107	29.35
280.322	66.22
280.538	-9.56
280.753	70.31
280.969	90.79
281.184	64.17
281.399	74.41
281.615	27.31
281.83	103.08
282.045	6.83
282.26	47.79
282.476	98.99
282.691	78.51
282.906	37.55
283.122	25.26
283.337	25.26
283.552	27.31
283.767	27.31
283.983	113.32
284.198	-13.65
284.413	49.83
284.628	15.02
284.843	92.84
285.058	68.27
285.274	45.74
285.489	76.46
285.704	27.31
285.919	37.55
286.134	29.35
286.349	123.56
286.564	4.78
286.779	45.74
286.995	37.55
287.21	62.12
287.425	68.27
287.64	-21.84
287.855	92.84
288.07	29.35
288.285	21.16
288.5	111.27
288.715	10.92
288.93	62.12
289.145	2.73
289.36	105.13
289.575	47.79
289.79	33.45
290.004	64.17
290.219	86.7
290.434	58.03
290.649	39.59
290.864	12.97
291.079	117.42
291.294	6.83
291.509	8.87
291.724	45.74
291.938	78.51
292.153	84.65
292.368	31.4
292.583	10.92
292.798	117.42
293.012	41.64
293.227	53.93
293.442	60.07
293.657	43.69
293.871	47.79
294.086	53.93
294.301	109.23
294.516	82.6
294.73	17.07
294.945	55.98
295.16	101.03
295.374	51.88
295.589	105.13
295.804	62.12
296.018	64.17
296.233	131.75
296.447	62.12
296.662	29.35
296.877	107.18
297.091	53.93
297.306	70.31
297.52	37.55
297.735	88.75
297.949	41.64
298.164	-3.41
298.378	64.17
298.593	103.08
298.807	0.68
299.022	82.6
299.236	129.7
299.451	68.27
299.665	35.5
299.88	-11.61
300.094	80.55
300.309	47.79
300.523	72.36
300.737	62.12
300.952	115.37
301.166	21.16
301.381	51.88
301.595	21.16
301.809	70.31
302.024	62.12
302.238	29.35
302.452	74.41
302.667	53.93
302.881	82.6
303.095	78.51
303.309	41.64
303.524	19.11
303.738	70.31
303.952	-27.99
304.166	62.12
304.381	45.74
304.595	60.07
304.809	94.89
305.023	19.11
305.237	45.74
305.452	8.87
305.666	53.93
305.88	33.45
306.094	82.6
306.308	45.74
306.522	70.31
306.736	21.16
306.95	35.5
307.164	41.64
307.379	86.7
307.593	111.27
307.807	60.07
308.021	146.09
308.235	68.27
308.449	21.16
308.663	37.55
308.877	78.51
309.091	2.73
309.305	70.31
309.519	41.64
309.733	92.84
309.947	4.78
310.161	62.12
310.374	66.22
310.588	94.89
310.802	21.16
311.016	86.7
311.23	94.89
311.444	37.55
311.658	45.74
311.872	101.03
312.085	160.42
312.299	66.22
312.513	17.07
312.727	82.6
312.941	64.17
313.154	6.83
313.368	119.46
313.582	43.69
313.796	-15.7
314.009	-30.04
314.223	62.12
314.437	19.11
314.651	39.59
314.864	37.55
315.078	-36.18
315.292	76.46
315.505	-3.41
315.719	15.02
315.933	66.22
316.146	-27.99
316.36	31.4
316.573	8.87
316.787	49.83
317.001	-5.46
317.214	51.88
317.428	37.55
317.641	17.07
317.855	27.31
318.068	47.79
318.282	68.27
318.495	49.83
318.709	53.93
318.922	47.79
319.136	80.55
319.349	70.31
319.563	49.83
319.776	90.79
319.99	68.27
320.203	84.65
320.417	66.22
320.63	21.16
320.843	72.36
321.057	43.69
321.27	8.87
321.483	66.22
321.697	70.31
321.91	72.36
322.124	103.08
322.337	21.16
322.55	6.83
322.763	96.94
322.977	78.51
323.19	29.35
323.403	68.27
323.617	-40.28
323.83	86.7
324.043	35.5
324.256	51.88
324.469	60.07
324.683	101.03
324.896	60.07
325.109	115.37
325.322	47.79
325.535	62.12
325.748	58.03
325.962	12.97
326.175	23.21
326.388	68.27
326.601	41.64
326.814	-1.37
327.027	8.87
327.24	94.89
327.453	131.75
327.666	29.35
327.879	4.78
328.092	41.64
328.305	62.12
328.518	109.23
328.731	25.26
328.944	33.45
329.157	19.11
329.37	45.74
329.583	88.75
329.796	119.46
330.009	2.73
330.222	6.83
330.435	58.03
330.648	86.7
330.861	0.68
331.073	-17.75
331.286	70.31
331.499	-23.89
331.712	103.08
331.925	68.27
332.138	45.74
332.35	84.65
332.563	60.07
332.776	92.84
332.989	25.26
333.202	-34.13
333.414	111.27
333.627	72.36
333.84	29.35
334.053	66.22
334.265	31.4
334.478	2.73
334.691	53.93
334.903	96.94
335.116	53.93
335.329	60.07
335.541	68.27
335.754	103.08
335.966	86.7
336.179	58.03
336.392	60.07
336.604	12.97
336.817	68.27
337.029	80.55
337.242	47.79
337.454	66.22
337.667	74.41
337.88	82.6
338.092	49.83
338.305	109.23
338.517	70.31
338.729	45.74
338.942	109.23
339.154	103.08
339.367	15.02
339.579	92.84
339.792	74.41
340.004	123.56
340.217	29.35
340.429	47.79
340.641	45.74
340.854	94.89
341.066	53.93
341.278	49.83
341.491	53.93
341.703	45.74
341.915	58.03
342.128	37.55
342.34	98.99
342.552	8.87
342.764	25.26
342.977	45.74
343.189	41.64
343.401	17.07
343.613	39.59
343.826	41.64
344.038	98.99
344.25	21.16
344.462	53.93
344.674	53.93
344.886	113.32
345.099	111.27
345.311	94.89
345.523	41.64
345.735	-42.32
345.947	80.55
346.159	35.5
346.371	-7.51
346.583	21.16
346.795	111.27
347.007	86.7
347.219	72.36
347.431	33.45
347.643	60.07
347.855	12.97
348.067	70.31
348.279	21.16
348.491	-11.61
348.703	125.61
348.915	86.7
349.127	-27.99
349.339	58.03
349.551	84.65
349.763	12.97
349.975	86.7
350.187	86.7
350.399	47.79
350.61	74.41
350.822	6.83
351.034	53.93
351.246	86.7
351.458	45.74
351.669	113.32
351.881	90.79
352.093	96.94
352.305	82.6
352.517	62.12
352.728	119.46
352.94	29.35
353.152	90.79
353.363	-23.89
353.575	80.55
353.787	141.99
353.999	60.07
354.21	94.89
354.422	49.83
354.633	39.59
354.845	86.7
355.057	21.16
355.268	76.46
355.48	35.5
355.692	86.7
355.903	4.78
356.115	35.5
356.326	-25.94
356.538	39.59
356.749	137.9
356.961	119.46
357.172	6.83
357.384	29.35
357.595	53.93
357.807	86.7
358.018	70.31
358.23	78.51
358.441	94.89
358.653	68.27
358.864	82.6
359.075	4.78
359.287	70.31
359.498	43.69
359.709	53.93
359.921	135.85
360.132	41.64
360.344	25.26
360.555	27.31
360.766	68.27
360.977	17.07
361.189	121.51
361.4	84.65
361.611	170.66
361.823	107.18
362.034	115.37
362.245	45.74
362.456	88.75
362.667	37.55
362.879	19.11
363.09	2.73
363.301	92.84
363.512	35.5
363.723	70.31
363.935	37.55
364.146	58.03
364.357	39.59
364.568	41.64
364.779	41.64
364.99	129.7
365.201	51.88
365.412	29.35
365.623	19.11
365.834	64.17
366.045	29.35
366.256	0.68
366.467	58.03
366.678	12.97
366.889	103.08
367.1	51.88
367.311	105.13
367.522	60.07
367.733	133.8
367.944	96.94
368.155	70.31
368.366	123.56
368.577	92.84
368.788	70.31
368.999	-13.65
369.209	35.5
369.42	62.12
369.631	80.55
369.842	51.88
370.053	76.46
370.264	41.64
370.474	37.55
370.685	39.59
370.896	55.98
371.107	47.79
371.317	96.94
371.528	19.11
371.739	78.51
371.95	94.89
372.16	113.32
372.371	31.4
372.582	64.17
372.792	66.22
373.003	109.23
373.214	74.41
373.424	144.04
373.635	92.84
373.846	45.74
374.056	25.26
374.267	125.61
374.477	27.31
374.688	96.94
374.898	60.07
375.109	58.03
375.319	25.26
375.53	111.27
375.74	68.27
375.951	8.87
376.161	49.83
376.372	80.55
376.582	98.99
376.793	107.18
377.003	35.5
377.214	4.78
377.424	33.45
377.635	111.27
377.845	62.12
378.055	78.51
378.266	4.78
378.476	45.74
378.686	105.13
378.897	47.79
379.107	53.93
379.317	60.07
379.528	2.73
379.738	139.94
379.948	33.45
380.158	78.51
380.369	105.13
380.579	135.85
380.789	117.42
380.999	88.75
381.21	160.42
381.42	148.14
381.63	29.35
381.84	107.18
382.05	105.13
382.261	62.12
382.471	166.57
382.681	98.99
382.891	82.6
383.101	21.16
383.311	68.27
383.521	37.55
383.731	49.83
383.941	127.66
384.151	37.55
384.361	82.6
384.571	86.7
384.781	125.61
384.991	127.66
385.201	70.31
385.411	156.33
385.621	76.46
385.831	94.89
386.041	98.99
386.251	152.23
386.461	82.6
386.671	115.37
386.881	51.88
387.091	152.23
387.301	94.89
387.511	51.88
387.72	111.27
387.93	45.74
388.14	21.16
388.35	58.03
388.56	-11.61
388.769	125.61
388.979	27.31
389.189	107.18
389.399	68.27
389.609	92.84
389.818	148.14
390.028	154.28
390.238	117.42
390.447	86.7
390.657	111.27
390.867	62.12
391.076	53.93
391.286	86.7
391.496	29.35
391.705	12.97
391.915	119.46
392.125	76.46
392.334	51.88
392.544	92.84
392.753	86.7
392.963	107.18
393.172	105.13
393.382	86.7
393.591	141.99
393.801	19.11
394.01	123.56
394.22	66.22
394.429	43.69
394.639	58.03
394.848	127.66
395.058	86.7
395.267	35.5
395.477	101.03
395.686	90.79
395.895	205.48
396.105	193.19
396.314	162.47
396.524	111.27
396.733	78.51
396.942	78.51
397.152	131.75
397.361	152.23
397.57	84.65
397.78	72.36
397.989	150.18
398.198	217.77
398.407	168.62
398.617	174.76
398.826	92.84
399.035	86.7
399.244	141.99
399.453	127.66
399.663	107.18
399.872	189.1
400.081	146.09
400.29	133.8
400.499	111.27
400.708	125.61
400.917	62.12
401.127	105.13
401.336	123.56
401.545	205.48
401.754	162.47
401.963	154.28
402.172	78.51
402.381	189.1
402.59	164.52
402.799	148.14
403.008	201.38
403.217	174.76
403.426	219.82
403.635	139.94
403.844	62.12
404.053	174.76
404.262	168.62
404.471	225.96
404.68	115.37
404.888	195.24
405.097	123.56
405.306	168.62
405.515	201.38
405.724	232.1
405.933	201.38
406.142	141.99
406.35	178.86
406.559	197.29
406.768	258.73
406.977	262.82
407.185	246.44
407.394	232.1
407.603	215.72
407.812	205.48
408.02	277.16
408.229	332.45
408.438	283.3
408.646	273.06
408.855	262.82
409.064	311.97
409.272	291.49
409.481	397.99
409.69	348.84
409.898	328.36
410.107	414.37
410.315	326.31
410.524	363.17
410.733	365.22
410.941	375.46
411.15	500.39
411.358	379.56
411.567	512.67
411.775	447.14
411.984	498.34
412.192	471.72
412.401	533.15
412.609	473.76
412.818	594.59
413.026	623.27
413.234	508.58
413.443	522.91
413.651	617.12
413.86	633.51
414.068	740
414.276	670.37
414.485	696.99
414.693	662.18
414.901	776.86
415.11	764.58
415.318	778.91
415.526	746.14
415.734	877.21
415.943	942.75
416.151	967.32
416.359	907.93
416.567	1030.81
416.776	1069.72
416.984	1061.53
417.192	1141.4
417.4	1069.72
417.608	1147.55
417.817	1149.59
418.025	1233.56
418.233	1278.62
418.441	1192.6
418.649	1356.44
418.857	1421.97
419.065	1434.26
419.273	1346.2
419.481	1473.17
419.689	1608.34
419.897	1659.54
420.105	1718.93
420.313	1794.7
420.521	1700.5
420.729	1759.89
420.937	1841.81
421.145	1778.32
421.353	2087.56
421.561	2062.99
421.769	2108.04
421.977	2261.64
422.185	2269.83
422.393	2290.31
422.601	2523.78
422.809	2515.59
423.017	2544.26
423.224	2542.21
423.432	2652.8
423.64	2732.67
423.848	2937.47
424.056	2957.95
424.263	3166.84
424.471	3179.13
424.679	3168.89
424.887	3377.78
425.094	3408.5
425.302	3545.72
425.51	3678.83
425.718	3721.84
425.925	3805.81
426.133	3949.17
426.341	4039.28
426.548	4233.83
426.756	4194.92
426.964	4194.92
427.171	4555.37
427.379	4483.69
427.586	4678.24
427.794	4973.15
428.001	5169.76
428.209	5425.75
428.417	5223
428.624	5601.88
428.832	5571.16
429.039	5640.79
429.247	5798.48
429.454	6040.14
429.662	6619.72
429.869	6167.12
430.076	6556.23
430.284	6402.63
430.491	6576.71
430.699	6974.02
430.906	7014.98
431.114	6992.45
431.321	7367.23
431.528	7547.45
431.736	8139.31
431.943	8292.91
432.15	8270.38
432.358	8364.59
432.565	8604.2
432.772	8454.7
432.979	9120.29
433.187	9155.1
433.394	9296.41
433.601	9810.45
433.808	9968.15
434.016	9816.6
434.223	10224.14
434.43	11051.52
434.637	10707.46
434.844	11278.85
435.052	11528.7
435.259	11295.23
435.466	11624.95
435.673	11446.78
435.88	11952.63
436.087	12769.77
436.294	12888.55
436.501	12614.12
436.708	12794.34
436.915	13138.4
437.122	13609.43
437.329	13627.87
437.537	14369.23
437.743	14397.9
437.95	14150.1
438.157	15178.18
438.364	15360.45
438.571	15462.85
438.778	15595.96
438.985	17000.87
439.192	16409.01
439.399	16943.53
439.606	16609.71
439.813	17267.11
440.02	18405.78
440.227	18090.39
440.433	17936.79
440.64	18610.57
440.847	18385.3
441.054	18817.42
441.261	19970.43
441.467	20228.47
441.674	20373.88
441.881	20853.1
442.088	21094.76
442.294	20762.99
442.501	21207.4
442.708	21684.58
442.914	22485.33
443.121	23634.24
443.328	22913.36
443.534	24432.95
443.741	23505.22
443.948	23423.3
444.154	25413.93
444.361	24901.93
444.568	25102.64
444.774	25098.54
444.981	25588
445.187	26446.1
445.394	27269.39
445.6	26958.1
445.807	29378.79
446.013	28096.77
446.22	28842.23
446.426	29688.04
446.633	29939.94
446.839	31027.41
447.046	29706.47
447.252	31482.06
447.459	31574.22
447.665	31342.8
447.871	32741.56
448.078	33855.65
448.284	32196.8
448.491	32927.92
448.697	34175.14
448.903	34998.42
449.11	34834.58
449.316	34199.71
449.522	35172.5
449.728	36032.64
449.935	36167.81
450.141	36141.19
450.347	36851.83
450.553	35819.66
450.76	36411.52
450.966	37519.47
451.172	36903.03
451.378	38000.74
451.584	37001.33
451.791	38174.82
451.997	37740.65
452.203	38238.31
452.409	38213.73
452.615	38043.75
452.821	36413.57
453.027	36311.17
453.233	38154.34
453.44	36583.55
453.646	36819.06
453.852	37445.74
454.058	37687.4
454.264	36585.6
454.47	37247.09
454.676	36194.43
454.882	37331.06
455.088	34261.15
455.294	34556.06
455.5	35258.51
455.705	35377.29
455.911	34058.4
456.117	33638.57
456.323	33056.95
456.529	31324.36
456.735	32223.42
456.941	32032.96
457.147	31135.95
457.352	30036.19
457.558	29690.09
457.764	29739.24
457.97	29368.55
458.176	28512.5
458.381	28821.75
458.587	26947.86
458.793	27275.53
458.999	25950.49
459.204	27883.78
459.41	26970.38
459.616	25139.5
459.821	25268.52
460.027	24682.8
460.233	24457.53
460.438	23329.09
460.644	23501.12
460.85	22565.2
461.055	22292.82
461.261	22137.18
461.466	20552.05
461.672	19825.02
461.878	21604.7
462.083	19919.23
462.289	19812.73
462.494	19360.13
462.7	18665.87
462.905	17920.41
463.111	18667.92
463.316	18717.07
463.522	18295.19
463.727	18649.49
463.932	18338.19
464.138	18321.81
464.343	18532.75
464.549	17785.24
464.754	18332.05
464.959	18110.87
465.165	18016.66
465.37	17267.11
465.575	16814.51
465.781	17424.8
465.986	17559.97
466.191	16984.49
466.397	16705.96
466.602	15944.12
466.807	16255.41
467.012	16492.97
467.218	16368.05
467.423	16001.46
467.628	16249.27
467.833	16839.08
468.038	16138.68
468.244	15956.41
468.449	16564.65
468.654	15718.84
468.859	15839.67
469.064	15704.51
469.269	14928.33
469.474	15165.89
469.679	15411.65
469.885	15184.32
470.09	15143.36
470.295	15124.93
470.5	14911.94
470.705	14877.13
470.91	14602.7
471.115	14246.35
471.32	14725.58
471.525	14674.38
471.73	14268.88
471.935	13877.72
472.139	13771.22
472.344	13844.95
472.549	13803.99
472.754	13541.85
472.959	13388.25
473.164	12898.79
473.369	12798.44
473.574	13113.83
473.778	13158.88
473.983	12972.52
474.188	12952.04
474.393	12499.44
474.598	12405.23
474.802	12212.72
475.007	12255.73
475.212	12446.19
475.417	11694.58
475.621	11739.64
475.826	11796.98
476.031	11739.64
476.235	11475.45
476.44	11500.03
476.645	11364.86
476.849	11317.76
477.054	11268.61
477.259	10996.23
477.463	11002.37
477.668	10633.74
477.872	11198.98
478.077	10789.38
478.282	10500.62
478.486	10254.86
478.691	10441.23
478.895	10469.9
479.1	10211.85
479.304	10600.97
479.509	10062.35
479.713	10193.42
479.918	9832.98
480.122	9712.15
480.326	9923.09
480.531	9931.28
480.735	9800.21
480.94	9744.92
481.144	10015.25
481.348	9531.93
481.553	9642.52
481.757	9675.29
481.961	9636.38
482.166	9734.68
482.37	9611.8
482.574	9550.36
482.778	9546.26
482.983	9710.1
483.187	9564.7
483.391	9663
483.595	9560.6
483.8	9462.3
484.004	9499.16
484.208	9527.83
484.412	9513.5
484.616	9519.64
484.821	9513.5
485.025	9660.95
485.229	9742.87
485.433	9632.28
485.637	9706.01
485.841	9558.55
486.045	9351.71
486.249	9546.26
486.453	9269.79
486.657	9589.27
486.861	9546.26
487.065	9212.45
487.269	9480.73
487.473	9339.42
487.677	9744.92
487.881	9589.27
488.085	9544.22
488.289	9570.84
488.493	9617.94
488.697	9663
488.901	9607.7
489.105	9564.7
489.309	9663
489.512	9701.91
489.716	9529.88
489.92	9878.04
490.124	9712.15
490.328	9794.07
490.531	9763.35
490.735	9671.19
490.939	9775.64
491.143	9744.92
491.346	9783.83
491.55	9935.38
491.754	10027.54
491.958	9943.57
492.161	10021.39
492.365	9978.39
492.569	10213.9
492.772	10174.99
492.976	10211.85
493.18	10351.12
493.383	10453.52
493.587	10406.41
493.79	10478.09
493.994	10490.38
494.197	10504.71
494.401	10873.35
494.605	10750.47
494.808	10570.25
495.012	10885.64
495.215	10828.29
495.419	10957.32
495.622	10760.71
495.825	11201.02
496.029	11020.8
496.232	11342.33
496.436	11235.84
496.639	11532.79
496.843	11719.16
497.046	11596.28
497.249	11858.42
497.453	11790.84
497.656	11829.75
497.859	12120.56
498.063	12073.46
498.266	12364.27
498.469	12460.52
498.673	12519.92
498.876	12780.01
499.079	12978.66
499.282	12726.76
499.485	13224.42
499.689	13275.62
499.892	13429.21
500.095	13451.74
500.298	13709.79
500.501	13744.6
500.705	14135.76
500.908	14197.2
501.111	14467.53
501.314	14272.98
501.517	14698.95
501.72	14770.63
501.923	14612.94
502.126	15391.17
502.329	15395.26
502.532	15516.09
502.735	15561.15
502.938	15948.22
503.141	15729.08
503.344	16023.99
503.547	16085.43
503.75	16249.27
503.953	16742.83
504.156	16845.23
504.359	16875.95
504.562	17105.32
504.765	17322.4
504.968	17615.26
505.17	17795.48
505.373	17748.38
505.576	18014.62
505.779	18205.08
505.982	18571.66
506.185	18956.68
506.387	18710.93
506.59	18989.45
506.793	19280.26
506.996	19313.03
507.198	19765.63
507.401	19609.98
507.604	20193.65
507.807	20304.24
508.009	20332.92
508.212	20652.4
508.415	21000.55
508.617	21125.48
508.82	21262.69
509.022	21479.78
509.225	21737.82
509.428	21776.73
509.63	22436.18
509.833	22092.12
510.035	22921.55
510.238	22718.8
510.44	22978.89
510.643	23173.45
510.845	23484.74
511.048	23454.02
511.25	24127.8
511.453	24066.36
511.655	24891.69
511.858	24377.65
512.06	24690.99
512.262	25375.02
512.465	25194.79
512.667	25884.96
512.87	25733.41
513.072	25674.02
513.274	26355.99
513.477	26609.94
513.679	26824.98
513.881	27101.45
514.084	27425.03
514.286	27422.98
514.488	27896.06
514.69	28463.35
514.893	28451.06
515.095	28698.87
515.297	28993.78
515.499	29180.14
515.701	29726.95
515.904	29843.68
516.106	30302.43
516.308	30363.87
516.51	30720.21
516.712	30687.45
516.914	30709.97
517.116	31623.37
517.318	31492.3
517.52	31873.22
517.722	32321.73
517.925	32131.26
518.127	32700.6
518.329	32833.72
518.531	32934.07
518.733	33517.74
518.935	33755.3
519.136	33333.42
519.338	34576.54
519.54	34533.53
519.742	34818.2
519.944	34975.89
520.146	35641.48
520.348	35764.36
520.55	36018.31
520.752	36401.28
520.954	36851.83
521.155	36458.62
521.357	37148.79
521.559	37527.66
521.761	38041.7
521.963	37498.99
522.164	38316.13
522.366	38336.61
522.568	38266.98
522.77	38973.53
522.971	39200.85
523.173	39587.92
523.375	39549.01
523.576	39979.08
523.778	39934.03
523.98	40566.85
524.181	40941.63
524.383	41138.23
524.584	41347.12
524.786	41334.84
524.988	41076.79
525.189	41517.11
525.391	41834.54
525.592	42174.5
525.794	42199.08
525.995	42500.13
526.197	42637.34
526.398	42514.47
526.6	43417.62
526.801	43198.49
527.003	43290.65
527.204	43702.29
527.406	44032.01
527.607	43751.44
527.808	44453.89
528.01	43909.13
528.211	44120.07
528.412	45191.16
528.614	44806.14
528.815	44566.53
529.016	44797.95
529.218	44955.64
529.419	45094.91
529.62	45211.64
529.822	45012.99
530.023	45164.54
530.224	45146.11
530.425	45352.95
530.626	45490.16
530.828	44902.4
531.029	46225.39
531.23	45768.69
531.431	45670.39
531.632	46204.91
531.833	46270.44
532.035	46127.08
532.236	46313.45
532.437	46446.57
532.638	45955.05
532.839	46508.01
533.04	46667.75
533.241	46090.22
533.442	47273.95
533.643	46964.7
533.844	46716.9
534.045	46839.78
534.246	46505.96
534.447	46917.6
534.648	46841.82
534.849	47232.99
535.05	46606.31
535.251	46690.27
535.451	46972.89
535.652	47232.99
535.853	46761.95
536.054	47071.2
536.255	47550.42
536.456	46802.91
536.657	47065.05
536.857	46624.74
537.058	46954.46
537.259	47120.35
537.46	47013.85
537.66	46583.78
537.861	47257.56
538.062	46827.49
538.263	47448.02
538.463	46569.44
538.664	47054.81
538.865	47316.95
539.065	47224.79
539.266	46604.26
539.466	47552.47
539.667	46657.51
539.868	47548.37
540.068	47298.52
540.269	46966.75
540.469	47319
540.67	46958.56
540.87	47128.54
541.071	47175.64
541.271	47144.92
541.472	47259.61
541.672	47216.6
541.873	47226.84
542.073	46868.45
542.274	47874
542.474	46909.41
542.675	46862.3
542.875	47405.02
543.075	47177.69
543.276	46585.83
543.476	47181.79
543.676	47093.72
543.877	47024.09
544.077	46895.07
544.277	46893.02
544.478	46852.06
544.678	47020
544.878	46995.42
545.078	46954.46
545.279	46802.91
545.479	46546.92
545.679	46956.51
545.879	46528.48
546.079	47028.19
546.28	46831.58
546.48	46659.55
546.68	46921.69
546.88	47196.12
547.08	47146.97
547.28	46802.91
547.48	46610.4
547.68	46897.12
547.88	46561.25
548.081	47265.75
548.281	46880.74
548.481	46520.29
548.681	46970.85
548.881	46686.18
549.081	46774.24
549.28	46882.78
549.48	46991.33
549.68	46424.04
549.88	47108.06
550.08	46505.96
550.28	46626.79
550.48	46702.56
550.68	46938.08
550.88	46634.98
551.08	46258.15
551.279	46811.1
551.479	46409.7
551.679	46329.83
551.879	46125.03
552.079	46704.61
552.278	46594.02
552.478	46495.72
552.678	46634.98
552.878	46452.71
553.077	46305.26
553.277	45940.72
553.477	46778.34
553.676	46714.85
553.876	46419.94
554.076	46221.29
554.275	46014.44
554.475	46002.16
554.674	46481.38
554.874	46489.57
555.074	45905.9
555.273	46495.72
555.473	46290.92
555.672	45697.01
555.872	45766.64
556.071	46424.04
556.271	46161.9
556.47	45660.15
556.67	45320.18
556.869	45719.54
557.068	45787.12
557.268	45492.21
557.467	45355
557.667	45455.35
557.866	45541.36
558.065	45414.39
558.265	45459.44
558.464	45268.98
558.663	45610.99
558.863	44736.51
559.062	45694.96
559.261	44705.79
559.461	45406.2
559.66	44570.63
559.859	45084.67
560.058	44922.88
560.258	45463.54
560.457	44177.42
560.656	45418.49
560.855	44294.15
561.054	44816.38
561.253	44245
561.453	44695.55
561.652	44718.08
561.851	44787.71
562.05	44197.9
562.249	43810.83
562.448	44535.81
562.647	44011.53
562.846	44001.29
563.045	44310.53
563.244	43569.17
563.443	43886.61
563.642	43302.93
563.841	43837.45
564.04	43477.01
564.239	43816.97
564.438	43309.08
564.637	43714.58
564.836	43309.08
565.035	42854.43
565.234	43304.98
565.432	43098.14
565.631	42919.96
565.83	43180.06
566.029	42911.77
566.228	42530.85
566.427	42450.98
566.625	42393.64
566.824	41785.39
567.023	42584.1
567.222	41758.77
567.42	42250.28
567.619	42043.43
567.818	41945.13
568.016	41912.36
568.215	41887.79
568.414	41408.56
568.612	41580.59
568.811	41222.2
569.01	41281.59
569.208	40716.35
569.407	41474.1
569.605	40675.39
569.804	40958.01
570.002	40050.76
570.201	40736.83
570.4	40833.08
570.598	40548.42
570.797	40192.07
570.995	40417.35
571.193	39817.29
571.392	40736.83
571.59	39862.35
571.789	39389.27
571.987	39913.55
572.186	39469.14
572.384	39510.1
572.582	39831.63
572.781	39626.83
572.979	38907.99
573.177	39172.18
573.376	39258.2
573.574	38766.68
573.772	38981.72
573.971	38498.4
574.169	38580.32
574.367	38674.52
574.565	38830.17
574.763	38547.55
574.962	38328.42
575.16	37924.97
575.358	38586.46
575.556	37890.15
575.754	38189.16
575.952	37478.51
576.151	37636.2
576.349	37527.66
576.547	37773.42
576.745	37345.39
576.943	37619.82
577.141	37353.58
577.339	37412.98
577.537	37066.87
577.735	37130.36
577.933	36954.23
578.131	36786.3
578.329	36962.42
578.527	36407.42
578.725	36442.24
578.923	36731
579.121	36411.52
579.319	36436.09
579.516	36399.23
579.714	36173.95
579.912	36075.65
580.11	35862.66
580.308	35870.86
580.506	35997.83
580.704	35420.3
580.901	35709.07
581.099	35795.08
581.297	35176.59
581.495	35352.72
581.692	35457.17
581.89	34924.69
582.088	35137.68
582.285	34318.5
582.483	34986.13
582.681	34838.68
582.878	34691.23
583.076	34308.26
583.274	34392.22
583.471	34027.68
583.669	34095.27
583.866	34138.27
584.064	34052.26
584.262	33685.67
584.459	33667.24
584.657	33695.91
584.854	33937.57
585.052	33274.03
585.249	33595.56
585.447	33503.4
585.644	32862.39
585.841	33192.11
586.039	33298.61
586.236	32917.68
586.434	33208.5
586.631	32592.06
586.828	32739.51
587.026	32782.52
587.223	32520.38
587.42	32512.19
587.618	32301.25
587.815	32037.06
588.012	31920.32
588.21	32071.87
588.407	32248
588.604	32014.53
588.801	32159.94
588.999	31934.66
589.196	31293.65
589.393	31733.96
589.59	31396.04
589.787	31465.67
589.984	31561.93
590.182	31008.98
590.379	31045.84
590.576	31172.81
590.773	30804.18
590.97	30728.41
591.167	31078.61
591.364	30445.79
591.561	30830.8
591.758	30335.2
591.955	30529.75
592.152	30433.5
592.349	30439.64
592.546	30197.98
592.743	30236.89
592.94	29716.71
593.137	30261.47
593.334	29763.81
593.531	29599.97
593.727	29827.3
593.924	29513.96
594.121	29278.44
594.318	29597.93
594.515	29186.29
594.712	29284.59
594.908	28999.92
595.105	29217
595.302	28768.5
595.499	29104.37
595.696	28864.75
595.892	28424.44
596.089	28666.1
596.286	28575.99
596.482	28559.61
596.679	28487.93
596.876	28164.35
597.072	28242.17
597.269	28590.33
597.466	28059.9
597.662	27955.46
597.859	28248.32
598.055	28096.77
598.252	27920.64
598.448	27580.68
598.645	26939.66
598.841	27220.24
599.038	27457.8
599.234	27439.37
599.431	27097.36
599.627	27177.23
599.824	27226.38
600.02	26767.63
600.217	26781.97
600.413	26597.65
600.609	26669.33
600.806	26431.77
601.002	26628.37
601.198	26355.99
601.395	26480.92
601.591	25983.26
601.787	26411.29
601.984	25825.57
602.18	26298.65
602.376	25909.54
602.572	25889.06
602.769	25788.71
602.965	25624.87
603.161	25835.81
603.357	25383.21
603.553	25684.26
603.75	25526.57
603.946	25098.54
604.142	25571.62
604.338	24983.85
604.534	25141.55
604.73	24793.39
604.926	24795.44
605.122	24977.71
605.318	24674.61
605.514	24762.67
605.71	24686.9
605.906	24496.44
606.102	24402.23
606.298	24762.67
606.494	24654.13
606.69	24416.57
606.886	24295.74
607.082	24039.74
607.278	24049.98
607.474	23882.05
607.67	24070.46
607.866	23249.22
608.062	24105.27
608.257	23558.47
608.453	23693.63
608.649	23877.95
608.845	23437.64
609.041	23451.97
609.236	23644.48
609.432	23417.16
609.628	23597.38
609.824	23517.51
610.019	23191.88
610.215	23200.07
610.411	23460.16
610.606	23021.9
610.802	23601.47
610.998	23112.01
611.193	23120.2
611.389	22896.97
611.584	22976.84
611.78	22888.78
611.976	22737.23
612.171	22821.2
612.367	22618.45
612.562	22880.59
612.758	22344.02
612.953	22434.13
613.149	22763.86
613.344	22468.95
613.539	22819.15
613.735	22376.79
613.93	22341.97
614.126	22360.41
614.321	22554.96
614.517	22239.58
614.712	22016.35
614.907	22135.13
615.103	21913.95
615.298	21789.02
615.493	22274.39
615.688	22059.35
615.884	22286.68
616.079	21688.67
616.274	22047.07
616.47	21776.73
616.665	21786.97
616.86	21750.11
617.055	21571.94
617.25	21508.45
617.445	21381.48
617.641	21250.41
617.836	21631.33
618.031	21111.14
618.226	21397.86
618.421	20994.41
618.616	21178.73
618.811	20816.24
619.006	21293.41
619.201	20687.22
619.396	20906.35
619.591	20531.57
619.786	21018.99
619.981	20347.25
620.176	20658.54
620.371	20130.17
620.566	20275.57
620.761	20322.68
620.956	20138.36
621.151	20035.96
621.346	20017.53
621.541	19677.57
621.735	19917.18
621.93	19546.5
622.125	19741.05
622.32	19237.25
622.515	19597.7
622.709	19003.78
622.904	19231.11
623.099	19149.19
623.294	19079.56
623.488	18948.49
623.683	19216.77
623.878	18626.96
624.072	18786.7
624.267	18540.94
624.462	18334.1
624.656	18366.87
624.851	18446.74
625.046	18024.86
625.24	18031
625.435	17742.24
625.629	17953.18
625.824	17590.69
626.018	17715.61
626.213	17320.35
626.407	17256.87
626.602	17441.18
626.796	17234.34
626.991	17252.77
627.185	16972.2
627.38	16986.54
627.574	16734.64
627.768	16705.96
627.963	16462.26
628.157	16548.27
628.352	16460.21
628.546	16009.65
628.74	16558.51
628.935	16212.4
629.129	16384.43
629.323	15940.02
629.517	16001.46
629.712	15774.14
629.906	15681.98
630.1	15598.01
630.294	15563.2
630.489	15559.1
630.683	15720.89
630.877	15124.93
631.071	15204.8
631.265	15235.52
631.459	15069.64
631.653	14895.56
631.848	15061.44
632.042	14784.97
632.236	14864.84
632.43	14451.15
632.624	14645.71
632.818	14606.8
633.012	14430.67
633.206	14387.66
633.4	14477.77
633.594	13973.97
633.788	14182.87
633.982	13992.41
634.176	14035.41
634.369	14002.64
634.563	14092.76
634.757	13691.35
634.951	14051.8
635.145	13787.61
635.339	13887.96
635.533	13468.13
635.726	13650.39
635.92	13386.21
636.114	13523.42
636.308	13300.19
636.501	13269.47
636.695	13199.84
636.889	12917.22
637.083	13109.73
637.276	12810.73
637.47	12739.05
637.664	12782.06
637.857	12806.63
638.051	12597.74
638.244	12583.4
638.438	12706.28
638.632	12464.62
638.825	12519.92
639.019	12302.83
639.212	12243.44
639.406	12091.89
639.599	12110.32
639.793	12120.56
639.986	11825.65
640.18	11979.25
640.373	11938.29
640.567	11698.68
640.76	11686.39
640.954	11414.01
641.147	11657.72
641.34	11403.77
641.534	11610.62
641.727	11420.16
641.92	11305.47
642.114	11162.11
642.307	11194.88
642.5	11262.46
642.694	10920.45
642.887	10998.27
643.08	11213.31
643.273	10947.08
643.467	10717.7
643.66	10697.22
643.853	10793.48
644.046	10613.26
644.239	10428.94
644.432	10539.53
644.626	10355.21
644.819	10590.73
645.012	10371.6
645.205	10314.25
645.398	10248.72
645.591	10066.45
645.784	10095.12
645.977	10185.23
646.17	10334.73
646.363	9896.47
646.556	9947.67
646.749	9796.12
646.942	9822.74
647.135	9773.59
647.328	9593.37
647.521	9781.78
647.714	9572.89
647.907	9644.57
648.099	9531.93
648.292	9560.6
648.485	9376.28
648.678	9443.87
648.871	9220.64
649.064	9335.32
649.256	9478.68
649.449	9079.33
649.642	8950.31
649.835	9249.31
650.027	9001.51
650.22	9151.01
650.413	8895.01
650.605	9013.79
650.798	8800.8
650.991	8765.99
651.183	8796.71
651.376	8686.12
651.568	8745.51
651.761	8796.71
651.954	8448.55
652.146	8563.24
652.339	8505.9
652.531	8389.16
652.724	8411.69
652.916	8366.64
653.109	8278.57
653.301	8335.92
653.494	8114.73
653.686	7885.36
653.879	8170.03
654.071	7965.23
654.263	8120.88
654.456	7942.71
654.648	8067.63
654.84	7979.57
655.033	7889.46
655.225	7791.16
655.417	7653.94
655.61	7647.8
655.802	7760.44
655.994	7551.54
656.186	7594.55
656.379	7631.41
656.571	7688.76
656.763	7438.91
656.955	7367.23
657.148	7574.07
657.34	7529.02
657.532	7320.12
657.724	7354.94
657.916	7348.79
658.108	7498.3
658.3	7270.97
658.492	7318.07
658.684	7219.77
658.876	7133.76
659.068	7084.61
659.26	7119.42
659.452	7000.64
659.644	7041.6
659.836	6978.11
660.028	6974.02
660.22	6785.6
660.412	6888
660.604	6871.62
660.796	6949.44
660.988	6742.6
661.18	6632.01
661.372	6646.34
661.563	6820.42
661.755	6494.79
661.947	6605.38
662.139	6470.22
662.331	6435.4
662.522	6355.53
662.714	6378.06
662.906	6345.29
663.097	6406.73
663.289	6480.46
663.481	6228.56
663.673	6361.67
663.864	6169.16
664.056	6281.8
664.247	6169.16
664.439	6007.38
664.631	6091.34
664.822	6197.84
665.014	6146.64
665.205	5978.7
665.397	5988.94
665.588	5902.93
665.78	6046.29
665.971	6042.19
666.163	5929.55
666.354	5747.28
666.546	5864.02
666.737	5735
666.929	5794.39
667.12	5847.63
667.311	5796.43
667.503	5724.76
667.694	5726.8
667.885	5757.52
668.077	5704.28
668.268	5585.49
668.459	5679.7
668.651	5593.69
668.842	5608.02
669.033	5493.33
669.224	5362.26
669.416	5511.77
669.607	5524.05
669.798	5362.26
669.989	5575.25
670.18	5409.37
670.371	5397.08
670.563	5435.99
670.754	5440.09
670.945	5284.44
671.136	5360.22
671.327	5296.73
671.518	5122.65
671.709	5196.38
671.9	5263.96
672.091	5134.94
672.282	5194.33
672.473	5259.87
672.664	5167.71
672.855	5108.32
673.046	5165.66
673.237	5073.5
673.428	5120.6
673.619	5180
673.809	5071.45
674	5036.64
674.191	5253.72
674.382	4872.8
674.573	5091.93
674.764	4854.37
674.954	4901.47
675.145	4932.19
675.336	4946.53
675.527	4837.98
675.717	4919.9
675.908	4885.09
676.099	4924
676.289	4940.38
676.48	4946.53
676.671	4823.65
676.861	4739.68
677.052	4721.25
677.243	4528.74
677.433	4842.08
677.624	4792.93
677.814	4700.77
678.005	4821.6
678.195	4694.63
678.386	4674.15
678.576	4737.63
678.767	4760.16
678.957	4682.34
679.148	4655.72
679.338	4635.24
679.529	4690.53
679.719	4620.9
679.909	4633.19
680.1	4571.75
680.29	4659.81
680.481	4573.8
680.671	4620.9
680.861	4600.42
681.052	4538.98
681.242	4483.69
681.432	4545.13
681.622	4405.86
681.813	4647.52
682.003	4534.89
682.193	4600.42
682.383	4534.89
682.573	4430.44
682.764	4473.45
682.954	4522.6
683.144	4465.25
683.334	4526.69
683.524	4369
683.714	4500.07
683.904	4444.77
684.094	4362.86
684.284	4391.53
684.474	4520.55
684.664	4424.3
684.854	4504.17
685.044	4250.22
685.234	4387.43
685.424	4440.68
685.614	4399.72
685.804	4311.66
685.994	4377.19
686.184	4567.65
686.374	4213.35
686.564	4303.47
686.753	4186.73
686.943	4201.07
687.133	4276.84
687.323	4295.27
687.513	4289.13
687.702	4143.72
687.892	4250.22
688.082	4135.53
688.272	4180.59
688.461	4059.76
688.651	4080.24
688.841	4104.81
689.03	3965.55
689.22	4033.13
689.41	4061.8
689.599	4176.49
689.789	4117.1
689.979	3930.73
690.168	3895.92
690.358	3949.17
690.547	3885.68
690.737	3916.4
690.926	3918.45
691.116	3781.23
691.305	3902.06
691.495	4051.56
691.684	3900.02
691.874	3932.78
692.063	3719.79
692.252	3873.39
692.442	3920.49
692.631	3783.28
692.82	3877.49
693.01	3676.79
693.199	3775.09
693.388	3576.44
693.578	3783.28
693.767	3633.78
693.956	3779.18
694.146	3699.31
694.335	3623.54
694.524	3666.55
694.713	3719.79
694.902	3637.88
695.092	3768.95
695.281	3723.89
695.47	3660.4
695.659	3629.68
695.848	3527.28
696.037	3805.81
696.226	3641.97
696.415	3510.9
696.604	3703.41
696.793	3678.83
696.982	3637.88
697.171	3666.55
697.36	3709.55
697.549	3537.52
697.738	3465.85
697.927	3560.05
698.116	3504.76
698.305	3449.46
698.494	3609.2
698.683	3555.96
698.872	3695.22
699.061	3539.57
699.25	3500.66
699.438	3641.97
699.627	3535.48
699.816	3555.96
700.005	3517.05
700.193	3447.41
700.382	3531.38
700.571	3498.61
700.76	3484.28
700.948	3547.76
701.137	3398.26
701.326	3603.06
701.514	3351.16
701.703	3476.09
701.892	3492.47
702.08	3492.47
702.269	3424.89
702.457	3478.13
702.646	3588.72
702.834	3431.03
703.023	3471.99
703.212	3582.58
703.4	3445.37
703.589	3547.76
703.777	3586.68
703.965	3471.99
704.154	3560.05
704.342	3424.89
704.531	3582.58
704.719	3474.04
704.907	3406.45
705.096	3424.89
705.284	3510.9
705.472	3533.43
705.661	3504.76
705.849	3531.38
706.037	3641.97
706.226	3517.05
706.414	3474.04
706.602	3521.14
706.79	3523.19
706.979	3410.55
707.167	3508.85
707.355	3330.68
707.543	3422.84
707.731	3459.7
707.919	3322.49
708.107	3484.28
708.296	3531.38
708.484	3474.04
708.672	3519.09
708.86	3586.68
709.048	3418.74
709.236	3416.69
709.424	3506.81
709.612	3506.81
709.8	3492.47
709.988	3480.18
710.176	3355.26
710.364	3488.37
710.551	3498.61
710.739	3385.97
710.927	3455.61
711.115	3385.97
711.303	3590.77
711.491	3453.56
711.679	3457.65
711.866	3402.36
712.054	3408.5
712.242	3510.9
712.43	3613.3
712.617	3437.17
712.805	3445.37
712.993	3392.12
713.181	3469.94
713.368	3447.41
713.556	3480.18
713.744	3498.61
713.931	3443.32
714.119	3433.08
714.306	3381.88
714.494	3590.77
714.682	3498.61
714.869	3412.6
715.057	3459.7
715.244	3447.41
715.432	3373.69
715.619	3500.66
715.807	3336.82
715.994	3324.54
716.182	3428.98
716.369	3461.75
716.556	3381.88
716.744	3375.74
716.931	3412.6
717.119	3318.39
717.306	3467.89
717.493	3418.74
717.681	3537.52
717.868	3416.69
718.055	3437.17
718.242	3371.64
718.43	3439.22
718.617	3396.21
718.804	3463.8
718.991	3306.1
719.179	3385.97
719.366	3461.75
719.553	3482.23
719.74	3340.92
719.927	3379.83
720.114	3355.26
720.301	3420.79
720.488	3187.32
720.676	3385.97
720.863	3340.92
721.05	3375.74
721.237	3355.26
721.424	3236.47
721.611	3498.61
721.798	3314.3
721.985	3359.35
722.172	3406.45
722.358	3246.71
722.545	3308.15
722.732	3490.42
722.919	3453.56
723.106	3218.04
723.293	3306.1
723.48	3306.1
723.667	3183.23
723.853	3248.76
724.04	3277.43
724.227	3394.17
724.414	3455.61
724.6	3328.63
724.787	3254.9
724.974	3345.02
725.161	3246.71
725.347	3134.07
725.534	3285.62
725.72	3234.43
725.907	3271.29
726.094	3371.64
726.28	3138.17
726.467	3265.14
726.653	3164.79
726.84	3252.86
727.027	3273.34
727.213	3193.47
727.4	3355.26
727.586	3316.34
727.773	3320.44
727.959	3259
728.145	3322.49
728.332	3263.1
728.518	3330.68
728.705	3197.56
728.891	3404.41
729.077	3183.23
729.264	3215.99
729.45	3107.45
729.636	3248.76
729.823	3166.84
730.009	3234.43
730.195	3179.13
730.382	3238.52
730.568	3121.79
730.754	3220.09
730.94	3181.18
731.126	3183.23
731.313	3164.79
731.499	3156.6
731.685	3175.03
731.871	3113.6
732.057	3203.71
732.243	3201.66
732.429	3203.71
732.615	3215.99
732.801	3105.4
732.987	3072.64
733.173	3091.07
733.359	3127.93
733.545	3150.46
733.731	3103.36
733.917	3035.77
734.103	3146.36
734.289	3226.23
734.475	3084.92
734.661	3158.65
734.847	3091.07
735.033	3222.14
735.219	3203.71
735.404	3039.87
735.59	2986.62
735.776	2953.85
735.962	3117.69
736.148	2904.7
736.333	3084.92
736.519	3015.29
736.705	3025.53
736.89	2992.77
737.076	3158.65
737.262	2935.42
737.447	2998.91
737.633	3050.11
737.819	2953.85
738.004	3076.73
738.19	2982.53
738.375	3035.77
738.561	2982.53
738.747	2896.51
738.932	2992.77
739.118	2882.17
739.303	2951.81
739.489	2916.99
739.674	2826.88
739.859	2886.27
740.045	2822.78
740.23	2790.02
740.416	2765.44
740.601	2935.42
740.786	2929.28
740.972	2660.99
741.157	2781.82
741.342	2769.54
741.528	2880.13
741.713	2804.35
741.898	2693.76
742.084	2837.12
742.269	2818.69
742.454	2699.91
742.639	2841.22
742.824	2675.33
743.01	2652.8
743.195	2736.77
743.38	2622.08
743.565	2630.27
743.75	2714.24
743.935	2601.6
744.12	2607.75
744.305	2667.14
744.49	2646.66
744.675	2517.64
744.86	2601.6
745.045	2495.11
745.23	2640.51
745.415	2546.31
745.6	2527.88
745.785	2501.25
745.97	2593.41
746.155	2437.77
746.34	2560.64
746.525	2388.61
746.71	2415.24
746.895	2486.92
747.079	2396.81
747.264	2364.04
747.449	2478.72
747.634	2368.13
747.819	2368.13
748.003	2278.02
748.188	2394.76
748.373	2267.78
748.557	2232.97
748.742	2318.98
748.927	2255.5
749.111	2167.43
749.296	2228.87
749.481	2187.91
749.665	2239.11
749.85	2165.39
750.034	2198.15
750.219	2222.73
750.404	2177.67
750.588	2085.51
750.773	2026.12
750.957	2036.36
751.141	2120.33
751.326	2101.9
751.51	1927.82
751.695	1993.36
751.879	2056.84
752.064	1952.4
752.248	2054.8
752.432	2093.71
752.617	1942.16
752.801	1905.29
752.985	1997.45
753.17	1972.88
753.354	1952.4
753.538	1893.01
753.722	1888.91
753.907	1884.81
754.091	1823.37
754.275	1852.05
754.459	1845.9
754.643	1823.37
754.828	1882.77
755.012	1911.44
755.196	1804.94
755.38	1811.09
755.564	1712.78
755.748	1776.27
755.932	1720.98
756.116	1761.94
756.3	1632.91
756.484	1624.72
756.668	1698.45
756.852	1682.07
757.036	1569.43
757.22	1651.35
757.404	1634.96
757.588	1694.35
757.772	1604.24
757.956	1651.35
758.14	1714.83
758.323	1618.58
758.507	1618.58
758.691	1639.06
758.875	1536.66
759.059	1634.96
759.242	1479.32
759.426	1538.71
759.61	1536.66
759.794	1479.32
759.977	1446.55
760.161	1542.8
760.345	1497.75
760.528	1428.12
760.712	1411.73
760.895	1481.36
761.079	1495.7
761.263	1335.96
761.446	1413.78
761.63	1430.16
761.813	1448.6
761.997	1397.4
762.18	1387.16
762.364	1348.25
762.547	1317.53
762.731	1366.68
762.914	1458.84
763.098	1413.78
763.281	1352.34
763.464	1290.9
763.648	1327.77
763.831	1405.59
764.015	1254.04
764.198	1245.85
764.381	1284.76
764.564	1344.15
764.748	1329.81
764.931	1309.33
765.114	1299.09
765.297	1276.57
765.481	1315.48
765.664	1262.23
765.847	1299.09
766.03	1297.05
766.213	1274.52
766.397	1245.85
766.58	1159.83
766.763	1264.28
766.946	1245.85
767.129	1237.66
767.312	1143.45
767.495	1180.31
767.678	1192.6
767.861	1186.46
768.044	1147.55
768.227	1129.11
768.41	1133.21
768.593	1247.9
768.776	1104.54
768.959	1135.26
769.142	1190.55
769.324	1165.98
769.507	1194.65
769.69	1041.05
769.873	1165.98
770.056	1075.87
770.239	1215.13
770.421	1096.35
770.604	1112.73
770.787	948.89
770.97	1147.55
771.152	1145.5
771.335	1090.2
771.518	1057.43
771.7	1182.36
771.883	1051.29
772.066	1143.45
772.248	1067.67
772.431	1041.05
772.613	1039
772.796	969.37
772.978	1010.33
773.161	1041.05
773.343	1016.48
773.526	963.23
773.708	959.13
773.891	955.04
774.073	895.65
774.256	938.65
774.438	1079.96
774.621	967.32
774.803	979.61
774.985	967.32
775.168	967.32
775.35	975.52
775.532	905.88
775.715	926.36
775.897	916.12
776.079	815.77
776.261	905.88
776.444	922.27
776.626	842.4
776.808	807.58
776.99	821.92
777.173	897.69
777.355	819.87
777.537	877.21
777.719	897.69
777.901	842.4
778.083	809.63
778.265	811.68
778.447	787.1
778.629	848.54
778.811	883.36
778.993	914.08
779.175	795.29
779.357	840.35
779.539	744.1
779.721	758.43
779.903	774.81
780.085	758.43
780.267	783.01
780.449	764.58
780.631	793.25
780.812	768.67
780.994	680.61
781.176	701.09
781.358	783.01
781.54	676.51
781.721	699.04
781.903	696.99
782.085	672.42
782.267	678.56
782.448	688.8
782.63	674.46
782.812	649.89
782.993	699.04
783.175	715.42
783.357	674.46
783.538	676.51
783.72	594.59
783.901	617.12
784.083	629.41
784.264	686.75
784.446	619.17
784.627	567.97
784.809	619.17
784.99	541.35
785.172	610.98
785.353	592.55
785.535	555.68
785.716	617.12
785.897	586.4
786.079	543.39
786.26	553.63
786.441	524.96
786.623	559.78
786.804	619.17
786.985	537.25
787.167	594.59
787.348	520.87
787.529	512.67
787.71	647.84
787.891	516.77
788.073	463.52
788.254	508.58
788.435	594.59
788.616	572.07
788.797	479.91
788.978	490.15
789.159	473.76
789.34	498.34
789.522	516.77
789.703	441
789.884	467.62
790.065	461.48
790.246	576.16
790.427	449.19
790.607	477.86
790.788	543.39
790.969	535.2
791.15	488.1
791.331	336.55
791.512	453.28
791.693	395.94
791.874	395.94
792.054	455.33
792.235	457.38
792.416	412.32
792.597	381.6
792.778	477.86
792.958	578.21
793.139	395.94
793.32	391.84
793.5	320.17
793.681	479.91
793.862	432.8
794.042	365.22
794.223	379.56
794.404	438.95
794.584	434.85
794.765	391.84
794.945	369.32
795.126	449.19
795.306	408.23
795.487	328.36
795.667	455.33
795.848	365.22
796.028	412.32
796.209	387.75
796.389	443.04
796.57	393.89
796.75	320.17
796.93	420.52
797.111	314.02
797.291	428.71
797.471	395.94
797.652	365.22
797.832	348.84
798.012	365.22
798.192	262.82
798.373	383.65
798.553	307.88
798.733	389.8
798.913	365.22
799.093	221.86
799.274	311.97
799.454	352.93
799.634	301.73
799.814	322.21
799.994	307.88
800.174	406.18
800.354	217.77
800.534	340.65
800.714	326.31
800.894	262.82
801.074	305.83
801.254	309.93
801.434	275.11
801.614	266.92
801.794	352.93
801.974	791.2
802.154	309.93
802.334	248.49
802.514	289.45
802.693	201.38
802.873	293.54
803.053	307.88
803.233	271.01
803.413	318.12
803.592	268.97
803.772	266.92
803.952	264.87
804.131	334.5
804.311	303.78
804.491	330.41
804.67	189.1
804.85	291.49
805.03	309.93
805.209	271.01
805.389	293.54
805.568	275.11
805.748	234.15
805.928	234.15
806.107	289.45
806.287	303.78
806.466	258.73
806.646	256.68
806.825	324.26
807.004	217.77
807.184	266.92
807.363	311.97
807.543	225.96
807.722	260.77
807.901	303.78
808.081	328.36
808.26	176.81
808.439	197.29
808.619	242.34
808.798	252.58
808.977	250.53
809.156	289.45
809.336	205.48
809.515	242.34
809.694	197.29
809.873	281.25
810.052	180.9
810.231	238.25
810.411	238.25
810.59	225.96
810.769	182.95
810.948	215.72
811.127	238.25
811.306	119.46
811.485	207.53
811.664	283.3
811.843	260.77
812.022	254.63
812.201	303.78
812.38	187.05
812.559	160.42
812.737	287.4
812.916	144.04
813.095	195.24
813.274	217.77
813.453	217.77
813.632	209.58
813.811	189.1
813.989	154.28
814.168	256.68
814.347	238.25
814.526	205.48
814.704	205.48
814.883	185
815.062	203.43
815.24	191.14
815.419	215.72
815.598	228.01
815.776	144.04
815.955	150.18
816.133	148.14
816.312	197.29
816.49	201.38
816.669	131.75
816.847	168.62
817.026	131.75
817.204	141.99
817.383	230.06
817.561	168.62
817.74	129.7
817.918	205.48
818.097	185
818.275	129.7
818.453	223.91
818.632	209.58
818.81	217.77
818.988	158.38
819.167	182.95
819.345	195.24
819.523	168.62
819.701	213.67
819.879	264.87
820.058	127.66
820.236	78.51
820.414	201.38
820.592	117.42
820.77	262.82
820.948	96.94
821.127	148.14
821.305	76.46
821.483	84.65
821.661	215.72
821.839	150.18
822.017	115.37
822.195	92.84
822.373	156.33
822.551	144.04
822.729	164.52
822.907	135.85
823.085	182.95
823.262	131.75
823.44	119.46
823.618	166.57
823.796	133.8
823.974	160.42
824.152	201.38
824.329	125.61
824.507	96.94
824.685	111.27
824.863	107.18
825.04	170.66
825.218	111.27
825.396	203.43
825.574	232.1
825.751	125.61
825.929	185
826.107	86.7
826.284	113.32
826.462	109.23
826.639	60.07
826.817	86.7
826.994	135.85
827.172	131.75
827.349	191.14
827.527	111.27
827.704	62.12
827.882	31.4
828.059	178.86
828.237	103.08
828.414	160.42
828.591	88.75
828.769	180.9
828.946	103.08
829.124	139.94
829.301	180.9
829.478	148.14
829.655	193.19
829.833	115.37
830.01	107.18
830.187	131.75
830.364	84.65
830.542	115.37
830.719	103.08
830.896	105.13
831.073	111.27
831.25	129.7
831.427	101.03
831.604	94.89
831.782	90.79
831.959	117.42
832.136	152.23
832.313	139.94
832.49	119.46
832.667	111.27
832.844	98.99
833.021	109.23
833.198	146.09
833.374	193.19
833.551	115.37
833.728	111.27
833.905	109.23
834.082	107.18
834.259	90.79
834.436	180.9
834.612	49.83
834.789	96.94
834.966	35.5
835.143	205.48
835.319	117.42
835.496	148.14
835.673	158.38
835.85	68.27
836.026	113.32
836.203	101.03
836.38	41.64
836.556	133.8
836.733	94.89
836.909	98.99
837.086	105.13
837.262	29.35
837.439	131.75
837.616	144.04
837.792	78.51
837.968	84.65
838.145	51.88
838.321	101.03
838.498	55.98
838.674	123.56
838.851	62.12
839.027	113.32
839.203	58.03
839.38	103.08
839.556	78.51
839.732	19.11
839.909	68.27
840.085	45.74
840.261	98.99
840.437	78.51
840.614	33.45
840.79	98.99
840.966	41.64
841.142	115.37
841.318	119.46
841.494	137.9
841.671	123.56
841.847	6.83
842.023	101.03
842.199	94.89
842.375	148.14
842.551	88.75
842.727	62.12
842.903	92.84
843.079	60.07
843.255	98.99
843.431	74.41
843.607	88.75
843.783	70.31
843.959	92.84
844.134	-11.61
844.31	111.27
844.486	64.17
844.662	144.04
844.838	66.22
845.013	58.03
845.189	76.46
845.365	117.42
845.541	23.21
845.716	82.6
845.892	90.79
846.068	29.35
846.244	88.75
846.419	70.31
846.595	21.16
846.77	-13.65
846.946	43.69
847.122	74.41
847.297	98.99
847.473	82.6
847.648	49.83
847.824	37.55
847.999	33.45
848.175	41.64
848.35	78.51
848.526	66.22
848.701	58.03
848.876	82.6
849.052	144.04
849.227	64.17
849.403	41.64
849.578	78.51
849.753	86.7
849.929	51.88
850.104	62.12
850.279	82.6
850.454	82.6
850.63	47.79
850.805	105.13
850.98	27.31
851.155	80.55
851.33	66.22
851.505	68.27
851.681	127.66
851.856	29.35
852.031	-7.51
852.206	21.16
852.381	-30.04
852.556	23.21
852.731	70.31
852.906	74.41
853.081	113.32
853.256	60.07
853.431	45.74
853.606	25.26
853.781	-40.28
853.956	2.73
854.131	49.83
854.305	43.69
854.48	31.4
854.655	17.07
854.83	47.79
855.005	33.45
855.18	103.08
855.354	-25.94
855.529	53.93
855.704	12.97
855.879	115.37
856.053	62.12
856.228	92.84
856.403	37.55
856.577	90.79
856.752	-3.41
856.926	21.16
857.101	37.55
857.276	37.55
857.45	47.79
857.625	80.55
857.799	47.79
857.974	8.87
858.148	-15.7
858.323	74.41
858.497	103.08
858.672	10.92
858.846	62.12
859.02	35.5
859.195	-5.46
859.369	37.55
859.543	53.93
859.718	12.97
859.892	-44.37
860.066	66.22
860.241	49.83
860.415	-5.46
860.589	-27.99
860.763	41.64
860.938	41.64
861.112	2.73
861.286	107.18
861.46	88.75
861.634	8.87
861.808	27.31
861.982	8.87
862.157	4.78
862.331	25.26
862.505	12.97
862.679	64.17
862.853	33.45
863.027	117.42
863.201	27.31
863.375	62.12
863.549	66.22
863.722	-19.8
863.896	29.35
864.07	-77.14
864.244	84.65
864.418	23.21
864.592	23.21
864.766	49.83
864.939	60.07
865.113	-7.51
865.287	115.37
865.461	-27.99
865.634	68.27
865.808	84.65
865.982	55.98
866.156	-34.13
866.329	-5.46
866.503	66.22
866.676	45.74
866.85	62.12
867.024	25.26
867.197	27.31
867.371	31.4
867.544	10.92
867.718	4.78
867.891	17.07
868.065	27.31
868.238	33.45
868.412	0.68
868.585	12.97
868.759	49.83
868.932	37.55
869.105	0.68
869.279	4.78
869.452	43.69
869.625	90.79
869.799	58.03
869.972	-3.41
870.145	29.35
870.319	51.88
870.492	94.89
870.665	8.87
870.838	4.78
871.011	-17.75
871.185	78.51
871.358	74.41
871.531	109.23
871.704	-30.04
871.877	19.11
872.05	10.92
872.223	-44.37
872.396	37.55
872.569	17.07
872.742	-17.75
872.915	-1.37
873.088	45.74
873.261	37.55
873.434	131.75
873.607	-9.56
873.78	62.12
873.953	19.11
874.126	33.45
874.299	12.97
874.471	2.73
874.644	35.5
874.817	10.92
874.99	66.22
875.163	62.12
875.335	23.21
875.508	29.35
875.681	115.37
875.853	-40.28
876.026	25.26
876.199	-9.56
876.371	25.26
876.544	27.31
876.717	35.5
876.889	-44.37
877.062	12.97
877.234	98.99
877.407	-5.46
877.579	-15.7
877.752	10.92
877.924	111.27
878.097	-3.41
878.269	12.97
878.442	-3.41
878.614	62.12
878.786	64.17
878.959	76.46
879.131	15.02
879.303	-89.43
879.476	78.51
879.648	55.98
879.82	33.45
879.993	45.74
880.165	21.16
880.337	-48.47
880.509	86.7
880.681	-23.89
880.854	21.16
881.026	29.35
881.198	62.12
881.37	41.64
881.542	64.17
881.714	49.83
881.886	-23.89
882.058	12.97
882.23	70.31
882.402	12.97
882.574	6.83
882.746	39.59
882.918	78.51
883.09	60.07
883.262	68.27
883.434	86.7
883.606	-1.37
883.778	2.73
883.95	66.22
884.122	25.26
884.293	25.26
884.465	-36.18
884.637	88.75
884.809	51.88
884.98	49.83
885.152	29.35
885.324	-3.41
885.496	39.59
885.667	41.64
885.839	-38.23
886.011	49.83
886.182	0.68
886.354	39.59
886.525	4.78
886.697	-11.61
886.869	12.97
887.04	-40.28
887.212	-27.99
887.383	53.93
887.555	60.07
887.726	-3.41
887.897	45.74
888.069	82.6
888.24	17.07
888.412	-30.04
888.583	74.41
888.754	41.64
888.926	-118.1
889.097	-7.51
889.268	-27.99
889.44	6.83
889.611	-38.23
889.782	39.59
889.953	-23.89
890.125	33.45
890.296	-17.75
890.467	-13.65
890.638	-11.61
890.809	-7.51
890.98	15.02
891.151	60.07
891.323	66.22
891.494	33.45
891.665	47.79
891.836	8.87
892.007	33.45
892.178	66.22
892.349	39.59
892.52	47.79
892.691	101.03
892.862	37.55
893.032	-9.56
893.203	35.5
893.374	31.4
893.545	66.22
893.716	92.84
893.887	72.36
894.057	45.74
894.228	45.74
894.399	19.11
894.57	84.65
894.74	-19.8
894.911	21.16
895.082	-11.61
895.253	8.87
895.423	19.11
895.594	111.27
895.764	37.55
895.935	6.83
896.106	41.64
896.276	37.55
896.447	101.03
896.617	39.59
896.788	-85.33
896.958	47.79
897.129	10.92
897.299	19.11
897.47	4.78
897.64	25.26
897.81	27.31
897.981	-34.13
898.151	8.87
898.322	0.68
898.492	29.35
898.662	-19.8
898.832	43.69
899.003	21.16
899.173	60.07
899.343	-83.28
899.513	19.11
