Data from USB4F104151__201__10-29-32-828.txt Node

Date: Wed Mar 12 10:29:32 EDT 2025
User: louis
Spectrometer: USB4F10415
Trigger mode: 4
Integration Time (sec): 3.000000E-2
Scans to average: 1
Electric dark correction enabled: true
Nonlinearity correction enabled: false
Boxcar width: 0
XAxis mode: Wavelengths
Number of Pixels in Spectrum: 3648
>>>>>Begin Spectral Data<<<<<
178.204	-139.77
178.424	-139.77
178.644	-139.77
178.864	-82.43
179.084	-96.77
179.304	22.02
179.524	-12.8
179.744	-0.51
179.964	48.64
180.184	1.54
180.404	-53.76
180.624	36.35
180.844	15.87
181.064	-49.66
181.283	7.68
181.503	13.82
181.723	-29.18
181.943	-64
182.163	44.54
182.383	89.6
182.602	60.93
182.822	32.26
183.042	42.5
183.262	32.26
183.482	56.83
183.701	7.68
183.921	-2.56
184.141	38.4
184.361	19.97
184.58	11.78
184.8	42.5
185.02	46.59
185.239	50.69
185.459	26.11
185.679	67.07
185.898	56.83
186.118	48.64
186.338	108.03
186.557	81.41
186.777	97.79
186.997	11.78
187.216	34.3
187.436	52.74
187.655	67.07
187.875	93.69
188.095	91.65
188.314	83.45
188.534	-16.9
188.753	38.4
188.973	56.83
189.192	81.41
189.412	36.35
189.631	24.06
189.851	40.45
190.07	79.36
190.29	38.4
190.509	50.69
190.729	11.78
190.948	112.13
191.168	122.37
191.387	83.45
191.607	62.98
191.826	83.45
192.045	38.4
192.265	50.69
192.484	32.26
192.704	46.59
192.923	-29.18
193.142	175.61
193.362	77.31
193.581	87.55
193.8	19.97
194.02	105.98
194.239	-29.18
194.458	24.06
194.678	17.92
194.897	-6.66
195.116	38.4
195.335	95.74
195.555	81.41
195.774	71.17
195.993	52.74
196.212	69.12
196.432	-0.51
196.651	13.82
196.87	71.17
197.089	75.26
197.308	81.41
197.528	13.82
197.747	52.74
197.966	65.02
198.185	1.54
198.404	62.98
198.623	40.45
198.842	69.12
199.062	60.93
199.281	69.12
199.5	73.21
199.719	54.78
199.938	69.12
200.157	-6.66
200.376	24.06
200.595	44.54
200.814	97.79
201.033	-37.38
201.252	15.87
201.471	30.21
201.69	54.78
201.909	24.06
202.128	75.26
202.347	42.5
202.566	48.64
202.785	13.82
203.004	-4.61
203.223	175.61
203.442	65.02
203.661	62.98
203.879	19.97
204.098	50.69
204.317	-10.75
204.536	101.89
204.755	83.45
204.974	89.6
205.193	-2.56
205.411	83.45
205.63	71.17
205.849	22.02
206.068	48.64
206.287	15.87
206.505	7.68
206.724	-45.57
206.943	46.59
207.162	101.89
207.381	46.59
207.599	19.97
207.818	36.35
208.037	30.21
208.255	7.68
208.474	91.65
208.693	52.74
208.911	44.54
209.13	36.35
209.349	42.5
209.567	108.03
209.786	-10.75
210.005	67.07
210.223	26.11
210.442	71.17
210.661	50.69
210.879	71.17
211.098	52.74
211.316	130.56
211.535	73.21
211.753	56.83
211.972	73.21
212.191	42.5
212.409	42.5
212.628	69.12
212.846	13.82
213.065	50.69
213.283	50.69
213.502	58.88
213.72	75.26
213.938	11.78
214.157	73.21
214.375	62.98
214.594	24.06
214.812	-18.94
215.031	48.64
215.249	28.16
215.467	75.26
215.686	46.59
215.904	52.74
216.122	81.41
216.341	52.74
216.559	62.98
216.778	93.69
216.996	83.45
217.214	13.82
217.432	11.78
217.651	65.02
217.869	-0.51
218.087	30.21
218.306	19.97
218.524	73.21
218.742	11.78
218.96	36.35
219.179	7.68
219.397	46.59
219.615	144.89
219.833	-0.51
220.051	65.02
220.27	83.45
220.488	103.93
220.706	26.11
220.924	-27.14
221.142	56.83
221.36	17.92
221.578	5.63
221.796	52.74
222.015	75.26
222.233	101.89
222.451	126.46
222.669	60.93
222.887	163.33
223.105	26.11
223.323	-29.18
223.541	-57.86
223.759	67.07
223.977	83.45
224.195	116.22
224.413	22.02
224.631	79.36
224.849	-18.94
225.067	122.37
225.285	44.54
225.503	65.02
225.721	11.78
225.939	7.68
226.157	58.88
226.375	128.51
226.592	19.97
226.81	81.41
227.028	89.6
227.246	56.83
227.464	65.02
227.682	81.41
227.9	22.02
228.117	101.89
228.335	56.83
228.553	36.35
228.771	42.5
228.989	-20.99
229.206	1.54
229.424	48.64
229.642	22.02
229.86	85.5
230.077	110.08
230.295	105.98
230.513	85.5
230.731	69.12
230.948	24.06
231.166	36.35
231.384	9.73
231.601	19.97
231.819	54.78
232.037	50.69
232.254	-29.18
232.472	17.92
232.689	-4.61
232.907	122.37
233.125	71.17
233.342	44.54
233.56	108.03
233.777	-2.56
233.995	24.06
234.213	138.75
234.43	77.31
234.648	54.78
234.865	65.02
235.083	24.06
235.3	112.13
235.518	144.89
235.735	44.54
235.953	67.07
236.17	48.64
236.388	24.06
236.605	40.45
236.822	56.83
237.04	7.68
237.257	58.88
237.475	116.22
237.692	34.3
237.909	73.21
238.127	-16.9
238.344	13.82
238.562	56.83
238.779	3.58
238.996	44.54
239.214	52.74
239.431	108.03
239.648	11.78
239.865	81.41
240.083	97.79
240.3	69.12
240.517	126.46
240.735	44.54
240.952	122.37
241.169	15.87
241.386	99.84
241.603	-4.61
241.821	-33.28
242.038	-12.8
242.255	48.64
242.472	87.55
242.689	-0.51
242.907	69.12
243.124	44.54
243.341	19.97
243.558	24.06
243.775	103.93
243.992	71.17
244.209	44.54
244.426	73.21
244.643	83.45
244.86	15.87
245.078	3.58
245.295	11.78
245.512	122.37
245.729	87.55
245.946	13.82
246.163	77.31
246.38	-6.66
246.597	79.36
246.814	7.68
247.031	32.26
247.248	52.74
247.464	24.06
247.681	69.12
247.898	-0.51
248.115	48.64
248.332	-10.75
248.549	77.31
248.766	81.41
248.983	19.97
249.2	36.35
249.417	140.8
249.633	36.35
249.85	40.45
250.067	69.12
250.284	89.6
250.501	81.41
250.717	95.74
250.934	28.16
251.151	7.68
251.368	38.4
251.585	19.97
251.801	60.93
252.018	15.87
252.235	87.55
252.451	69.12
252.668	26.11
252.885	95.74
253.102	89.6
253.318	32.26
253.535	15.87
253.752	81.41
253.968	17.92
254.185	44.54
254.401	3.58
254.618	67.07
254.835	97.79
255.051	3.58
255.268	151.04
255.484	81.41
255.701	-25.09
255.917	83.45
256.134	73.21
256.351	38.4
256.567	-27.14
256.784	122.37
257	17.92
257.217	105.98
257.433	114.17
257.65	81.41
257.866	50.69
258.082	36.35
258.299	24.06
258.515	-20.99
258.732	34.3
258.948	58.88
259.165	48.64
259.381	50.69
259.597	71.17
259.814	36.35
260.03	108.03
260.246	9.73
260.463	60.93
260.679	36.35
260.895	-8.7
261.112	30.21
261.328	30.21
261.544	103.93
261.761	87.55
261.977	3.58
262.193	-16.9
262.409	11.78
262.626	15.87
262.842	77.31
263.058	19.97
263.274	142.85
263.49	34.3
263.707	103.93
263.923	65.02
264.139	5.63
264.355	60.93
264.571	87.55
264.787	97.79
265.004	69.12
265.22	32.26
265.436	9.73
265.652	75.26
265.868	73.21
266.084	89.6
266.3	22.02
266.516	5.63
266.732	130.56
266.948	116.22
267.164	77.31
267.38	62.98
267.596	50.69
267.812	44.54
268.028	69.12
268.244	30.21
268.46	69.12
268.676	81.41
268.892	126.46
269.108	17.92
269.324	85.5
269.54	114.17
269.756	67.07
269.972	58.88
270.188	48.64
270.403	-23.04
270.619	112.13
270.835	103.93
271.051	40.45
271.267	28.16
271.483	-64
271.698	83.45
271.914	15.87
272.13	-12.8
272.346	77.31
272.562	44.54
272.777	1.54
272.993	40.45
273.209	36.35
273.425	60.93
273.64	-6.66
273.856	73.21
274.072	73.21
274.287	-16.9
274.503	73.21
274.719	83.45
274.934	54.78
275.15	-18.94
275.366	89.6
275.581	-16.9
275.797	46.59
276.012	65.02
276.228	40.45
276.444	44.54
276.659	95.74
276.875	112.13
277.09	34.3
277.306	38.4
277.521	24.06
277.737	19.97
277.952	44.54
278.168	118.27
278.383	69.12
278.599	81.41
278.814	101.89
279.03	48.64
279.245	48.64
279.461	110.08
279.676	56.83
279.892	-25.09
280.107	3.58
280.322	-2.56
280.538	-0.51
280.753	30.21
280.969	99.84
281.184	-8.7
281.399	52.74
281.615	40.45
281.83	11.78
282.045	11.78
282.26	19.97
282.476	89.6
282.691	77.31
282.906	50.69
283.122	62.98
283.337	7.68
283.552	65.02
283.767	34.3
283.983	75.26
284.198	50.69
284.413	-29.18
284.628	81.41
284.843	56.83
285.058	85.5
285.274	52.74
285.489	60.93
285.704	124.41
285.919	81.41
286.134	71.17
286.349	-20.99
286.564	24.06
286.779	161.28
286.995	148.99
287.21	60.93
287.425	44.54
287.64	50.69
287.855	97.79
288.07	54.78
288.285	69.12
288.5	85.5
288.715	95.74
288.93	-29.18
289.145	13.82
289.36	161.28
289.575	-8.7
289.79	87.55
290.004	-20.99
290.219	62.98
290.434	34.3
290.649	-12.8
290.864	148.99
291.079	46.59
291.294	103.93
291.509	93.69
291.724	73.21
291.938	95.74
292.153	108.03
292.368	38.4
292.583	-20.99
292.798	19.97
293.012	34.3
293.227	87.55
293.442	112.13
293.657	71.17
293.871	48.64
294.086	91.65
294.301	79.36
294.516	130.56
294.73	101.89
294.945	34.3
295.16	97.79
295.374	95.74
295.589	34.3
295.804	-66.05
296.018	77.31
296.233	153.09
296.447	99.84
296.662	28.16
296.877	62.98
297.091	62.98
297.306	91.65
297.52	99.84
297.735	13.82
297.949	89.6
298.164	52.74
298.378	69.12
298.593	69.12
298.807	62.98
299.022	71.17
299.236	44.54
299.451	56.83
299.665	7.68
299.88	81.41
300.094	38.4
300.309	32.26
300.523	81.41
300.737	71.17
300.952	97.79
301.166	69.12
301.381	9.73
301.595	26.11
301.809	105.98
302.024	52.74
302.238	-12.8
302.452	118.27
302.667	48.64
302.881	81.41
303.095	36.35
303.309	93.69
303.524	11.78
303.738	52.74
303.952	52.74
304.166	52.74
304.381	-78.33
304.595	89.6
304.809	65.02
305.023	83.45
305.237	36.35
305.452	52.74
305.666	-20.99
305.88	144.89
306.094	42.5
306.308	114.17
306.522	89.6
306.736	28.16
306.95	87.55
307.164	71.17
307.379	46.59
307.593	79.36
307.807	28.16
308.021	79.36
308.235	32.26
308.449	75.26
308.663	60.93
308.877	155.13
309.091	54.78
309.305	44.54
309.519	65.02
309.733	132.61
309.947	48.64
310.161	108.03
310.374	116.22
310.588	44.54
310.802	-43.52
311.016	71.17
311.23	11.78
311.444	79.36
311.658	44.54
311.872	50.69
312.085	56.83
312.299	77.31
312.513	58.88
312.727	52.74
312.941	103.93
313.154	44.54
313.368	56.83
313.582	101.89
313.796	26.11
314.009	52.74
314.223	77.31
314.437	130.56
314.651	48.64
314.864	50.69
315.078	97.79
315.292	62.98
315.505	-49.66
315.719	40.45
315.933	15.87
316.146	19.97
316.36	48.64
316.573	52.74
316.787	7.68
317.001	99.84
317.214	73.21
317.428	101.89
317.641	69.12
317.855	7.68
318.068	62.98
318.282	38.4
318.495	134.65
318.709	17.92
318.922	-29.18
319.136	56.83
319.349	95.74
319.563	-49.66
319.776	75.26
319.99	36.35
320.203	40.45
320.417	95.74
320.63	19.97
320.843	73.21
321.057	103.93
321.27	60.93
321.483	73.21
321.697	73.21
321.91	65.02
322.124	89.6
322.337	77.31
322.55	19.97
322.763	118.27
322.977	13.82
323.19	87.55
323.403	13.82
323.617	56.83
323.83	32.26
324.043	48.64
324.256	56.83
324.469	13.82
324.683	112.13
324.896	28.16
325.109	52.74
325.322	15.87
325.535	112.13
325.748	91.65
325.962	87.55
326.175	62.98
326.388	46.59
326.601	46.59
326.814	5.63
327.027	54.78
327.24	19.97
327.453	34.3
327.666	56.83
327.879	114.17
328.092	122.37
328.305	1.54
328.518	-0.51
328.731	3.58
328.944	9.73
329.157	87.55
329.37	36.35
329.583	71.17
329.796	54.78
330.009	42.5
330.222	95.74
330.435	73.21
330.648	52.74
330.861	112.13
331.073	56.83
331.286	52.74
331.499	69.12
331.712	50.69
331.925	-6.66
332.138	93.69
332.35	89.6
332.563	-25.09
332.776	56.83
332.989	60.93
333.202	52.74
333.414	50.69
333.627	40.45
333.84	24.06
334.053	112.13
334.265	81.41
334.478	3.58
334.691	32.26
334.903	54.78
335.116	62.98
335.329	50.69
335.541	79.36
335.754	9.73
335.966	87.55
336.179	30.21
336.392	-12.8
336.604	24.06
336.817	32.26
337.029	83.45
337.242	48.64
337.454	114.17
337.667	46.59
337.88	79.36
338.092	105.98
338.305	136.7
338.517	79.36
338.729	93.69
338.942	93.69
339.154	40.45
339.367	11.78
339.579	83.45
339.792	-20.99
340.004	28.16
340.217	81.41
340.429	7.68
340.641	48.64
340.854	17.92
341.066	73.21
341.278	114.17
341.491	89.6
341.703	73.21
341.915	22.02
342.128	60.93
342.34	58.88
342.552	91.65
342.764	91.65
342.977	89.6
343.189	26.11
343.401	13.82
343.613	19.97
343.826	5.63
344.038	50.69
344.25	81.41
344.462	-47.62
344.674	46.59
344.886	-10.75
345.099	79.36
345.311	-16.9
345.523	105.98
345.735	52.74
345.947	97.79
346.159	30.21
346.371	79.36
346.583	50.69
346.795	128.51
347.007	58.88
347.219	71.17
347.431	40.45
347.643	65.02
347.855	81.41
348.067	103.93
348.279	24.06
348.491	93.69
348.703	77.31
348.915	169.47
349.127	19.97
349.339	79.36
349.551	52.74
349.763	19.97
349.975	97.79
350.187	62.98
350.399	136.7
350.61	56.83
350.822	134.65
351.034	91.65
351.246	56.83
351.458	151.04
351.669	71.17
351.881	46.59
352.093	75.26
352.305	110.08
352.517	17.92
352.728	157.18
352.94	-27.14
353.152	105.98
353.363	81.41
353.575	44.54
353.787	73.21
353.999	105.98
354.21	28.16
354.422	34.3
354.633	110.08
354.845	24.06
355.057	5.63
355.268	79.36
355.48	73.21
355.692	42.5
355.903	62.98
356.115	38.4
356.326	83.45
356.538	-0.51
356.749	15.87
356.961	122.37
357.172	7.68
357.384	52.74
357.595	112.13
357.807	75.26
358.018	81.41
358.23	97.79
358.441	81.41
358.653	97.79
358.864	67.07
359.075	83.45
359.287	73.21
359.498	73.21
359.709	50.69
359.921	79.36
360.132	81.41
360.344	105.98
360.555	108.03
360.766	120.32
360.977	73.21
361.189	93.69
361.4	48.64
361.611	69.12
361.823	105.98
362.034	105.98
362.245	60.93
362.456	73.21
362.667	50.69
362.879	34.3
363.09	87.55
363.301	73.21
363.512	97.79
363.723	77.31
363.935	73.21
364.146	140.8
364.357	105.98
364.568	89.6
364.779	-0.51
364.99	48.64
365.201	54.78
365.412	65.02
365.623	36.35
365.834	81.41
366.045	52.74
366.256	108.03
366.467	83.45
366.678	60.93
366.889	83.45
367.1	24.06
367.311	124.41
367.522	50.69
367.733	44.54
367.944	130.56
368.155	-8.7
368.366	69.12
368.577	120.32
368.788	101.89
368.999	60.93
369.209	38.4
369.42	126.46
369.631	112.13
369.842	36.35
370.053	101.89
370.264	95.74
370.474	132.61
370.685	5.63
370.896	50.69
371.107	134.65
371.317	97.79
371.528	122.37
371.739	163.33
371.95	65.02
372.16	65.02
372.371	71.17
372.582	93.69
372.792	75.26
373.003	19.97
373.214	32.26
373.424	19.97
373.635	48.64
373.846	153.09
374.056	93.69
374.267	105.98
374.477	110.08
374.688	44.54
374.898	44.54
375.109	77.31
375.319	112.13
375.53	124.41
375.74	87.55
375.951	110.08
376.161	114.17
376.372	52.74
376.582	95.74
376.793	58.88
377.003	40.45
377.214	17.92
377.424	69.12
377.635	91.65
377.845	93.69
378.055	95.74
378.266	77.31
378.476	116.22
378.686	67.07
378.897	112.13
379.107	71.17
379.317	101.89
379.528	11.78
379.738	120.32
379.948	75.26
380.158	112.13
380.369	93.69
380.579	65.02
380.789	48.64
380.999	81.41
381.21	81.41
381.42	120.32
381.63	91.65
381.84	42.5
382.05	36.35
382.261	97.79
382.471	93.69
382.681	24.06
382.891	105.98
383.101	75.26
383.311	36.35
383.521	3.58
383.731	142.85
383.941	101.89
384.151	52.74
384.361	11.78
384.571	114.17
384.781	52.74
384.991	124.41
385.201	151.04
385.411	81.41
385.621	126.46
385.831	105.98
386.041	48.64
386.251	95.74
386.461	44.54
386.671	69.12
386.881	122.37
387.091	79.36
387.301	52.74
387.511	122.37
387.72	52.74
387.93	89.6
388.14	11.78
388.35	69.12
388.56	75.26
388.769	103.93
388.979	79.36
389.189	85.5
389.399	65.02
389.609	69.12
389.818	42.5
390.028	48.64
390.238	85.5
390.447	28.16
390.657	151.04
390.867	138.75
391.076	-0.51
391.286	91.65
391.496	46.59
391.705	-6.66
391.915	175.61
392.125	103.93
392.334	75.26
392.544	146.94
392.753	91.65
392.963	85.5
393.172	198.14
393.382	32.26
393.591	181.76
393.801	36.35
394.01	159.23
394.22	83.45
394.429	101.89
394.639	89.6
394.848	105.98
395.058	48.64
395.267	105.98
395.477	175.61
395.686	122.37
395.895	97.79
396.105	112.13
396.314	155.13
396.524	58.88
396.733	40.45
396.942	171.52
397.152	126.46
397.361	153.09
397.57	122.37
397.78	177.66
397.989	171.52
398.198	177.66
398.407	73.21
398.617	185.85
398.826	163.33
399.035	130.56
399.244	159.23
399.453	136.7
399.663	101.89
399.872	173.57
400.081	75.26
400.29	130.56
400.499	101.89
400.708	157.18
400.917	212.48
401.127	99.84
401.336	112.13
401.545	187.9
401.754	179.71
401.963	140.8
402.172	163.33
402.381	71.17
402.59	208.38
402.799	204.28
403.008	161.28
403.217	167.42
403.426	163.33
403.635	142.85
403.844	167.42
404.053	146.94
404.262	159.23
404.471	257.53
404.68	118.27
404.888	194.05
405.097	177.66
405.306	228.86
405.515	161.28
405.724	198.14
405.933	237.05
406.142	196.09
406.35	212.48
406.559	259.58
406.768	226.81
406.977	265.72
407.185	239.1
407.394	300.54
407.603	192
407.812	298.49
408.02	404.99
408.229	237.05
408.438	296.44
408.646	235
408.855	364.03
409.064	263.68
409.272	308.73
409.481	325.12
409.69	327.16
409.898	318.97
410.107	376.31
410.315	382.46
410.524	445.95
410.733	411.13
410.941	445.95
411.15	400.89
411.358	409.08
411.567	511.48
411.775	507.38
411.984	470.52
412.192	523.77
412.401	507.38
412.609	579.06
412.818	521.72
413.026	570.87
413.234	679.41
413.443	695.8
413.651	679.41
413.86	689.65
414.068	695.8
414.276	755.19
414.485	738.8
414.693	744.95
414.901	806.39
415.11	820.72
415.318	816.63
415.526	925.17
415.734	957.94
415.943	912.88
416.151	1046
416.359	1050.1
416.567	1000.94
416.776	998.9
416.984	1101.3
417.192	1179.12
417.4	1152.49
417.608	1091.06
417.817	1209.84
418.025	1267.18
418.233	1398.25
418.441	1371.63
418.649	1367.53
418.857	1519.08
419.065	1557.99
419.273	1568.23
419.481	1531.37
419.689	1789.41
419.897	1805.8
420.105	1832.42
420.313	1904.1
420.521	1883.62
420.729	1881.57
420.937	1994.21
421.145	2055.65
421.353	2270.69
421.561	2313.69
421.769	2428.38
421.977	2463.19
422.185	2409.95
422.393	2627.03
422.601	2694.61
422.809	2674.14
423.017	2733.53
423.224	2887.12
423.432	2979.28
423.64	2880.98
423.848	3296.72
424.056	3085.78
424.263	3331.53
424.471	3329.49
424.679	3528.14
424.887	3646.92
425.094	3829.19
425.302	3847.62
425.51	3890.63
425.718	4001.22
425.925	4249.02
426.133	4265.41
426.341	4414.91
426.548	4595.13
426.756	4580.79
426.964	4656.57
427.171	4926.9
427.379	4998.58
427.586	5189.04
427.794	5432.75
428.001	5551.53
428.209	5858.73
428.417	5619.11
428.624	6045.09
428.832	6249.89
429.039	6045.09
429.247	6063.52
429.454	6722.97
429.662	7159.19
429.869	6675.87
430.076	7210.39
430.284	6923.67
430.491	7294.35
430.699	7738.76
430.906	7753.1
431.114	7765.39
431.321	8021.38
431.528	8082.82
431.736	8705.4
431.943	9039.22
432.15	8703.36
432.358	8957.3
432.565	9477.49
432.772	9506.16
432.979	9786.73
433.187	9915.75
433.394	10116.45
433.601	10861.91
433.808	10648.93
434.016	10616.16
434.223	11093.33
434.43	11908.43
434.637	11722.06
434.844	12250.44
435.052	12760.38
435.259	12455.23
435.466	12737.85
435.673	12444.99
435.88	13286.71
436.087	14071.08
436.294	13978.92
436.501	13559.09
436.708	14095.66
436.915	14656.8
437.122	15080.73
437.329	14914.84
437.537	15557.91
437.743	15947.02
437.95	15797.52
438.157	16473.35
438.364	17102.08
438.571	16903.42
438.778	16807.17
438.985	18812.13
439.192	18033.9
439.399	18357.48
439.606	18042.09
439.813	19064.03
440.02	20356.3
440.227	20108.49
440.433	19451.1
440.64	20270.28
440.847	20423.88
441.054	20769.99
441.261	21892.27
441.467	21660.85
441.674	22217.9
441.881	22996.13
442.088	22820
442.294	22738.09
442.501	23338.14
442.708	23784.6
442.914	24945.8
443.121	25691.26
443.328	25158.78
443.534	26696.81
443.741	25910.39
443.948	25853.05
444.154	27792.47
444.361	27399.26
444.568	27602.01
444.774	27505.76
444.981	28023.89
445.187	28542.03
445.394	29965.37
445.6	29477.95
445.807	32295.96
446.013	30868.52
446.22	31163.43
446.426	32744.46
446.633	33008.65
446.839	33819.64
447.046	32785.42
447.252	34223.09
447.459	34520.05
447.665	34288.63
447.871	35761.12
448.078	36914.12
448.284	35605.47
448.491	36436.95
448.697	38196.15
448.903	38796.21
449.11	38359.99
449.316	37639.11
449.522	38460.34
449.728	39637.92
449.935	39381.93
450.141	39537.57
450.347	40444.82
450.553	39234.47
450.76	39777.19
450.966	41167.76
451.172	40461.21
451.378	41483.14
451.584	40647.57
451.791	41362.31
451.997	41532.29
452.203	42396.54
452.409	41743.24
452.615	41939.84
452.821	40362.9
453.027	40043.42
453.233	42038.14
453.44	40119.2
453.646	40670.1
453.852	41145.23
454.058	41589.64
454.264	39758.75
454.47	40850.32
454.676	40106.91
454.882	41599.88
455.088	37725.12
455.294	38298.55
455.5	38415.29
455.705	38974.38
455.911	37753.79
456.117	36815.82
456.323	36180.95
456.529	34266.1
456.735	36205.53
456.941	35175.4
457.147	34309.11
457.352	33459.2
457.558	32906.25
457.764	33371.14
457.97	32461.84
458.176	31886.36
458.381	31876.12
458.587	30166.07
458.793	30030.9
458.999	28666.95
459.204	30526.51
459.41	29881.4
459.616	27640.92
459.821	27634.78
460.027	27980.89
460.233	27184.23
460.438	26004.6
460.644	26215.54
460.85	25003.14
461.055	24896.64
461.261	24493.19
461.466	22434.99
461.672	22076.59
461.878	23704.73
462.083	22152.37
462.289	21935.28
462.494	21578.93
462.7	20591.81
462.905	20104.4
463.111	20909.25
463.316	20896.96
463.522	20610.25
463.727	20274.38
463.932	20309.19
464.138	20182.22
464.343	20231.37
464.549	19729.62
464.754	20368.59
464.959	20260.04
465.165	19590.36
465.37	19164.38
465.575	18824.42
465.781	19309.79
465.986	19729.62
466.191	18783.46
466.397	18466.02
466.602	17497.33
466.807	17837.3
467.012	18121.96
467.218	18031.85
467.423	18119.92
467.628	17896.69
467.833	18820.32
468.038	17911.02
468.244	17779.95
468.449	18132.2
468.654	17683.7
468.859	17448.18
469.064	17454.33
469.269	16825.6
469.474	16801.02
469.679	17280.25
469.885	16884.99
470.09	16913.66
470.295	16723.2
470.5	16483.59
470.705	16477.44
470.91	15844.62
471.115	16190.73
471.32	16094.47
471.525	16114.95
471.73	15854.86
471.935	15736.08
472.139	15174.94
472.344	15170.84
472.549	15080.73
472.754	15039.77
472.959	14845.21
473.164	14247.21
473.369	14241.06
473.574	14705.95
473.778	14517.54
473.983	14409
474.188	14365.99
474.393	13694.26
474.598	13960.49
474.802	13688.11
475.007	13415.73
475.212	13710.64
475.417	13217.08
475.621	13186.36
475.826	13172.02
476.031	12889.4
476.235	12746.05
476.44	12791.1
476.645	12791.1
476.849	12707.13
477.054	12655.93
477.259	12201.29
477.463	12369.22
477.668	12135.75
477.872	12123.46
478.077	11994.44
478.282	11636.05
478.486	11697.49
478.691	11466.07
478.895	11533.65
479.1	11316.56
479.304	11461.97
479.509	11058.52
479.713	11421.01
479.918	11007.32
480.122	10919.26
480.326	11267.41
480.531	11212.12
480.735	10960.22
480.94	10894.68
481.144	11363.67
481.348	10751.32
481.553	10876.25
481.757	10607.97
481.961	10698.08
482.166	10734.94
482.37	10691.93
482.574	10763.61
482.778	10714.46
482.983	11070.81
483.187	10509.66
483.391	10906.97
483.595	10702.17
483.8	10425.7
484.004	10825.05
484.208	10736.99
484.412	10419.55
484.616	10542.43
484.821	10683.74
485.025	10380.64
485.229	10851.67
485.433	10614.11
485.637	10689.88
485.841	10622.3
486.045	10669.41
486.249	10741.08
486.453	10675.55
486.657	10689.88
486.861	10925.4
487.065	10333.54
487.269	10591.58
487.473	10411.36
487.677	10759.52
487.881	10859.87
488.085	10603.87
488.289	10610.01
488.493	10620.25
488.697	10898.78
488.901	10689.88
489.105	10771.8
489.309	10802.52
489.512	10896.73
489.716	10798.43
489.92	10814.81
490.124	10790.24
490.328	11062.62
490.531	10874.2
490.735	11035.99
490.939	11197.78
491.143	10945.88
491.346	10876.25
491.55	11040.09
491.754	11013.46
491.958	11535.7
492.161	11285.84
492.365	11261.27
492.569	11244.88
492.772	11138.39
492.976	11308.37
493.18	11537.74
493.383	11801.93
493.587	11689.29
493.79	11742.54
493.994	11380.05
494.197	11898.19
494.401	11853.13
494.605	11941.19
494.808	11963.72
495.012	12105.03
495.215	12264.77
495.419	12426.56
495.622	12504.39
495.825	12514.63
496.029	12612.93
496.232	13014.33
496.436	12422.47
496.639	13079.86
496.843	12926.27
497.046	13143.35
497.249	13362.48
497.453	13423.92
497.656	13471.03
497.859	13495.6
498.063	13829.42
498.266	14081.32
498.469	13950.25
498.673	14066.99
498.876	14390.56
499.079	14640.42
499.282	14460.2
499.485	14742.82
499.689	15066.39
499.892	15187.22
500.095	15379.73
500.298	15635.73
500.501	15467.8
500.705	15901.97
500.908	15975.69
501.111	16168.2
501.314	16284.94
501.517	16375.05
501.72	16653.57
501.923	16780.54
502.126	16905.47
502.329	17071.36
502.532	17444.09
502.735	17454.33
502.938	17751.28
503.141	17911.02
503.344	18158.83
503.547	18078.96
503.75	18271.47
503.953	18715.87
504.156	18855.14
504.359	19156.19
504.562	19213.53
504.765	19479.77
504.968	19545.3
505.17	19815.63
505.373	20038.86
505.576	20202.7
505.779	20321.48
505.982	20792.51
506.185	21107.9
506.387	21343.42
506.59	21284.03
506.793	21779.64
506.996	21705.91
507.198	22420.65
507.401	21982.38
507.604	22344.88
507.807	23076
508.009	23153.82
508.212	23202.97
508.415	23467.16
508.617	23686.29
508.82	23848.08
509.022	23854.23
509.225	24581.26
509.428	24900.74
509.63	24673.42
509.833	24972.42
510.035	25422.97
510.238	25349.25
510.44	25830.52
510.643	26096.75
510.845	26287.21
511.048	26147.95
511.25	26707.05
511.453	26895.46
511.655	27690.07
511.858	27403.36
512.06	27923.54
512.262	27903.06
512.465	27970.65
512.667	28660.81
512.87	28949.57
513.072	29023.3
513.274	29525.05
513.477	29840.44
513.679	29959.22
513.881	30024.76
514.084	30512.17
514.286	30704.68
514.488	30698.54
514.69	31769.63
514.893	31773.72
515.095	31847.45
515.297	32011.29
515.499	32226.32
515.701	32818.19
515.904	33238.02
516.106	33100.81
516.308	33502.21
516.51	33737.73
516.712	33883.13
516.914	34309.11
517.116	34931.69
517.318	35187.69
517.52	35173.35
517.722	35415.01
517.925	35384.29
518.127	35957.72
518.329	36152.28
518.531	36584.4
518.733	37217.22
518.935	36983.76
519.136	37469.12
519.338	37878.72
519.54	38003.64
519.742	38509.49
519.944	38505.4
520.146	39058.35
520.348	39928.73
520.55	39486.37
520.752	39453.61
520.954	40573.84
521.155	40248.22
521.357	41231.24
521.559	41083.79
521.761	41554.82
521.963	41591.69
522.164	41315.21
522.366	41954.18
522.568	42713.97
522.77	42437.5
522.971	43381.61
523.173	43029.36
523.375	43518.82
523.576	43494.25
523.778	43615.08
523.98	44100.45
524.181	44436.31
524.383	44469.08
524.584	44878.68
524.786	44704.6
524.988	44700.5
525.189	45345.61
525.391	45777.73
525.592	45945.67
525.794	46048.07
525.995	46117.7
526.197	46371.64
526.398	46529.34
526.6	46885.68
526.801	46805.81
527.003	47158.06
527.204	47326
527.406	47614.76
527.607	47588.14
527.808	48345.89
528.01	46949.17
528.211	47756.07
528.412	48792.34
528.614	48423.71
528.815	48325.41
529.016	49070.87
529.218	47942.44
529.419	49130.26
529.62	49132.31
529.822	48694.04
530.023	48849.69
530.224	49224.46
530.425	49302.29
530.626	48821.02
530.828	48614.17
531.029	50209.54
531.23	49132.31
531.431	49507.08
531.632	49799.94
531.833	49806.09
532.035	49963.78
532.236	49402.64
532.437	50328.32
532.638	49885.96
532.839	50348.8
533.04	50520.83
533.241	50070.28
533.442	50848.5
533.643	50557.69
533.844	50064.13
534.045	50535.16
534.246	50291.46
534.447	50823.93
534.648	50455.29
534.849	50543.36
535.05	50123.52
535.251	50524.93
535.451	49939.21
535.652	51004.15
535.853	50561.79
536.054	50633.47
536.255	51301.11
536.456	49896.2
536.657	51176.18
536.857	50391.81
537.058	50189.06
537.259	50991.86
537.46	50602.75
537.66	50569.98
537.861	50395.9
538.062	50701.05
538.263	50561.79
538.463	50219.78
538.664	50334.46
538.865	50787.07
539.065	50955
539.266	50266.88
539.466	50694.91
539.667	50187.01
539.868	50852.6
540.068	50647.8
540.269	50492.16
540.469	50930.42
540.67	50103.04
540.87	50750.2
541.071	50737.91
541.271	50979.57
541.472	50524.93
541.672	50406.14
541.873	50227.97
542.073	50066.18
542.274	51135.22
542.474	50199.3
542.675	50197.25
542.875	50918.14
543.075	50742.01
543.276	49888.01
543.476	51063.54
543.676	50412.29
543.877	50369.28
544.077	50643.71
544.277	50338.56
544.478	50799.35
544.678	50684.67
544.878	50193.15
545.078	50836.22
545.279	49806.09
545.479	50152.19
545.679	50273.02
545.879	50512.64
546.079	50520.83
546.28	50451.2
546.48	49961.73
546.68	50858.74
546.88	50504.45
547.08	50316.03
547.28	50787.07
547.48	49595.15
547.68	50471.68
547.88	49818.38
548.081	50375.42
548.281	50322.18
548.481	50176.77
548.681	50651.9
548.881	50113.28
549.081	50504.45
549.28	49949.45
549.48	50481.92
549.68	50281.22
549.88	50782.97
550.08	49924.87
550.28	50217.73
550.48	50463.49
550.68	50705.15
550.88	50064.13
551.08	49990.41
551.279	50170.63
551.479	49849.1
551.679	49861.38
551.879	50168.58
552.079	50158.34
552.278	50043.65
552.478	50463.49
552.678	49562.38
552.878	50299.65
553.077	49851.14
553.277	49906.44
553.477	50174.72
553.676	49697.55
553.876	50060.04
554.076	49457.93
554.275	49804.04
554.475	49632.01
554.674	49894.15
554.874	49621.77
555.074	49267.47
555.273	50107.14
555.473	50066.18
555.672	49259.28
555.872	49709.83
556.071	49828.62
556.271	49552.14
556.47	49203.99
556.67	49165.07
556.869	49535.76
557.068	49566.48
557.268	49214.23
557.467	49077.01
557.667	49021.72
557.866	49128.21
558.065	49142.55
558.265	48704.28
558.464	48663.32
558.663	49431.31
558.863	48167.71
559.062	49529.61
559.261	48614.17
559.461	49292.05
559.66	48186.14
559.859	48456.48
560.058	48286.5
560.258	48468.76
560.457	47846.18
560.656	48560.92
560.855	48198.43
561.054	48079.65
561.253	47717.16
561.453	48091.94
561.652	48132.9
561.851	48272.16
562.05	47940.39
562.249	47424.3
562.448	48012.07
562.647	47784.74
562.846	47602.47
563.045	47584.04
563.244	46697.27
563.443	47588.14
563.642	46687.03
563.841	47141.68
564.04	46951.22
564.239	47317.81
564.438	47176.5
564.637	47029.04
564.836	46799.67
565.035	46605.11
565.234	46457.66
565.432	46039.87
565.631	46605.11
565.83	46457.66
566.029	46428.99
566.228	45964.1
566.427	45943.62
566.625	46322.49
566.824	45200.21
567.023	45761.35
567.222	44862.29
567.42	45564.74
567.619	45437.77
567.818	45742.92
568.016	44870.48
568.215	45611.85
568.414	45169.49
568.612	45663.05
568.811	45321.04
569.01	44813.14
569.208	44663.64
569.407	45208.4
569.605	44172.13
569.804	44778.32
570.002	44082.02
570.201	44710.74
570.4	43993.95
570.598	43959.14
570.797	43897.7
570.995	44090.21
571.193	43352.94
571.392	44116.83
571.59	43436.91
571.789	43359.08
571.987	43246.44
572.186	43135.85
572.384	43164.53
572.582	43576.17
572.781	43436.91
572.979	42367.87
573.177	42756.98
573.376	42982.26
573.574	42265.47
573.772	43041.65
573.971	42087.29
574.169	42238.84
574.367	42337.15
574.565	42431.35
574.763	42027.9
574.962	41741.19
575.16	41622.4
575.358	41788.29
575.556	41161.61
575.754	41816.96
575.952	41214.86
576.151	41784.19
576.349	41145.23
576.547	41067.41
576.745	40766.35
576.943	41112.46
577.141	40965.01
577.339	41208.72
577.537	40575.89
577.735	40618.9
577.933	40362.9
578.131	40465.3
578.329	40508.31
578.527	39881.63
578.725	40330.14
578.923	40121.24
579.121	39682.98
579.319	39916.45
579.516	39990.17
579.714	39732.13
579.912	39650.21
580.11	39674.79
580.308	39494.57
580.506	39578.53
580.704	38798.26
580.901	39367.59
581.099	39275.43
581.297	38718.39
581.495	38437.81
581.692	38964.14
581.89	38636.47
582.088	38615.99
582.285	38568.88
582.483	38716.34
582.681	38142.91
582.878	38302.65
583.076	37950.4
583.274	38194.11
583.471	37841.85
583.669	37852.09
583.866	37671.87
584.064	37874.62
584.262	37151.69
584.459	37575.62
584.657	37696.45
584.854	37508.04
585.052	36615.12
585.249	37053.39
585.447	36758.48
585.644	36668.37
585.841	36828.11
586.039	37194.7
586.236	36365.27
586.434	36334.55
586.631	36096.99
586.828	36094.94
587.026	36195.29
587.223	35929.05
587.42	36058.07
587.618	35906.52
587.815	35531.75
588.012	35683.3
588.21	35480.55
588.407	35744.73
588.604	35226.6
588.801	35103.72
588.999	35048.43
589.196	35032.04
589.393	35044.33
589.59	34870.25
589.787	34855.92
589.984	34411.51
590.182	34270.2
590.379	34730.99
590.576	34339.83
590.773	34413.55
590.97	34149.37
591.167	34374.64
591.364	33620.99
591.561	33979.39
591.758	33567.74
591.955	33678.33
592.152	33907.71
592.349	33307.65
592.546	33444.87
592.743	33584.13
592.94	32949.26
593.137	32982.02
593.334	33338.37
593.531	32957.45
593.727	32928.78
593.924	32842.76
594.121	32476.18
594.318	32744.46
594.515	32367.63
594.712	32789.52
594.908	32189.46
595.105	32386.07
595.302	32091.16
595.499	32281.62
595.696	31851.55
595.892	31919.13
596.089	32001.05
596.286	31763.48
596.482	31493.15
596.679	31622.17
596.876	31583.26
597.072	30925.86
597.269	31474.72
597.466	31140.9
597.662	31022.12
597.859	30970.92
598.055	31216.68
598.252	30620.72
598.448	30903.34
598.645	30508.08
598.841	30549.04
599.038	30809.13
599.234	30569.52
599.431	30342.19
599.627	30094.39
599.824	30190.64
600.02	29774.91
600.217	29776.95
600.413	29905.98
600.609	29981.75
600.806	29389.89
601.002	29791.29
601.198	29348.93
601.395	29234.24
601.591	29277.25
601.787	29131.84
601.984	28929.09
602.18	29434.94
602.376	29027.4
602.572	28767.31
602.769	28976.2
602.965	28492.88
603.161	28681.29
603.357	27997.27
603.553	28040.28
603.75	28365.9
603.946	28081.24
604.142	28146.77
604.338	27575.39
604.534	28306.51
604.73	27663.45
604.926	27798.62
605.122	27700.31
605.318	27425.89
605.514	27722.84
605.71	27493.47
605.906	27532.38
606.102	27227.23
606.298	27200.61
606.494	27216.99
606.69	27042.92
606.886	27300.96
607.082	26664.04
607.278	26993.76
607.474	26549.35
607.67	26983.52
607.866	26510.44
608.062	26700.9
608.257	26522.73
608.453	26688.62
608.649	26715.24
608.845	26346.61
609.041	26035.31
609.236	26551.4
609.432	26172.53
609.628	26158.19
609.824	25896.05
610.019	25879.67
610.215	25904.24
610.411	26170.48
610.606	25963.64
610.802	25746.55
610.998	25611.39
611.193	25736.31
611.389	25463.93
611.584	25617.53
611.78	25101.44
611.976	25437.31
612.171	25695.35
612.367	25304.19
612.562	25265.28
612.758	25042.05
612.953	25064.58
613.149	25269.37
613.344	24790.15
613.539	25304.19
613.735	24982.66
613.93	25019.52
614.126	24945.8
614.321	25095.3
614.517	24945.8
614.712	24908.93
614.907	24487.05
615.103	24603.78
615.298	24530.06
615.493	24650.89
615.688	24325.26
615.884	24548.49
616.079	24087.7
616.274	24611.98
616.47	24532.11
616.665	23995.54
616.86	24040.59
617.055	23776.41
617.25	24116.37
617.445	24286.35
617.641	23665.81
617.836	23973.01
618.031	23594.14
618.226	23639.19
618.421	23493.79
618.616	23930
618.811	23309.47
619.006	23661.72
619.201	23200.93
619.396	23252.13
619.591	22932.64
619.786	23041.18
619.981	22746.28
620.176	22820
620.371	22336.68
620.566	22701.22
620.761	22402.22
620.956	22533.29
621.151	22066.35
621.346	22310.06
621.541	21697.72
621.735	22072.5
621.93	21462.2
622.125	21900.47
622.32	21636.28
622.515	21763.25
622.709	21519.54
622.904	21494.97
623.099	21218.49
623.294	21222.59
623.488	20954.3
623.683	21171.39
623.878	20649.16
624.072	20661.44
624.267	20577.48
624.462	20382.92
624.656	20372.68
624.851	20049.1
625.046	20145.36
625.24	20028.62
625.435	19846.35
625.629	20151.5
625.824	19877.07
626.018	19733.71
626.213	19422.42
626.407	19817.68
626.602	19256.54
626.796	19500.25
626.991	19160.28
627.185	18789.6
627.38	18941.15
627.574	18810.08
627.768	19031.26
627.963	18549.99
628.157	18412.78
628.352	18881.76
628.546	18199.79
628.74	18511.08
628.935	17847.54
629.129	18089.2
629.323	17917.17
629.517	18070.76
629.712	17607.92
629.906	17616.12
630.1	17360.12
630.294	17759.47
630.489	17345.78
630.683	17308.92
630.877	17038.59
631.071	17155.32
631.265	17253.62
631.459	16995.58
631.653	16852.22
631.848	16803.07
632.042	16680.19
632.236	16565.51
632.43	16391.43
632.624	16502.02
632.818	16600.32
633.012	16106.76
633.206	16229.64
633.4	16270.6
633.594	16018.7
633.788	16004.36
633.982	16041.23
634.176	15770.9
634.369	15713.55
634.563	15754.51
634.757	15318.29
634.951	15621.39
635.145	15475.99
635.339	15349.01
635.533	15127.83
635.726	15160.6
635.92	14920.99
636.114	15093.02
636.308	15070.49
636.501	15052.06
636.695	14660.9
636.889	14599.46
637.083	14429.48
637.276	14607.65
637.47	14394.66
637.664	14212.39
637.857	14187.82
638.051	14314.79
638.244	14118.18
638.438	14073.13
638.632	13985.07
638.825	13837.61
639.019	13831.47
639.212	13526.32
639.406	13552.95
639.599	13442.35
639.793	13626.67
639.986	13299
640.18	13651.25
640.373	13073.72
640.567	13198.65
640.76	13299
640.954	12956.99
641.147	13057.34
641.34	12893.5
641.534	12842.3
641.727	12836.16
641.92	12739.9
642.114	12676.41
642.307	12657.98
642.5	12506.43
642.694	12203.33
642.887	12365.12
643.08	12363.08
643.273	12289.35
643.467	12195.14
643.66	12080.46
643.853	12053.83
644.046	11955.53
644.239	12102.98
644.432	11754.83
644.626	11941.19
644.819	11699.53
645.012	11668.81
645.205	11842.89
645.398	11672.91
645.591	11470.16
645.784	11527.5
645.977	11302.23
646.17	11365.71
646.363	11199.83
646.556	11050.33
646.749	11079
646.942	11122.01
647.135	10976.6
647.328	11066.71
647.521	10984.79
647.714	10614.11
647.907	10884.44
648.099	10726.75
648.292	10736.99
648.485	10804.57
648.678	10573.15
648.871	10491.23
649.064	10564.96
649.256	10534.24
649.449	10296.67
649.642	10282.34
649.835	10292.58
650.027	10208.61
650.22	10067.3
650.413	9989.48
650.605	10100.07
650.798	9747.82
650.991	9796.97
651.183	9995.62
651.376	9762.16
651.568	9756.01
651.761	9842.03
651.954	9696.62
652.146	9633.13
652.339	9477.49
652.531	9620.85
652.724	9608.56
652.916	9241.97
653.109	9219.44
653.301	9340.27
653.494	9160.05
653.686	9045.37
653.879	9014.65
654.071	9063.8
654.263	9237.88
654.456	9209.2
654.648	9162.1
654.84	8476.03
655.033	8838.52
655.225	8775.03
655.417	8961.4
655.61	8844.67
655.802	8740.22
655.994	8510.85
656.186	8578.43
656.379	8639.87
656.571	8631.68
656.763	8480.13
656.955	8465.79
657.148	8519.04
657.34	8283.52
657.532	8181.12
657.724	8320.39
657.916	8177.03
658.108	8144.26
658.3	8215.94
658.492	8072.58
658.684	8076.68
658.876	7869.83
659.068	8158.6
659.26	7910.79
659.452	8168.84
659.644	8027.53
659.836	7763.34
660.028	7910.79
660.22	7792.01
660.412	7601.55
660.604	7597.45
660.796	7646.6
660.988	7732.62
661.18	7437.71
661.372	7429.52
661.563	7560.59
661.755	7568.78
661.947	7353.74
662.139	7230.87
662.331	7355.79
662.522	7208.34
662.714	7296.4
662.906	7167.38
663.097	7177.62
663.289	7130.52
663.481	7097.75
663.673	7044.5
663.864	7044.5
664.056	7024.02
664.247	7005.59
664.439	6778.26
664.631	6897.05
664.822	6905.24
665.014	6733.21
665.205	6725.02
665.397	6790.55
665.588	6868.38
665.78	6667.67
665.971	6585.76
666.163	6690.2
666.354	6698.39
666.546	6630.81
666.737	6499.74
666.929	6471.07
667.12	6561.18
667.311	6450.59
667.503	6491.55
667.694	6483.36
667.885	6421.92
668.077	6634.91
668.268	6489.5
668.459	6405.53
668.651	6225.31
668.842	6335.9
669.033	6362.53
669.224	6200.74
669.416	6233.5
669.607	6235.55
669.798	6127.01
669.989	6208.93
670.18	5969.32
670.371	5926.31
670.563	6065.57
670.754	6043.04
670.945	5911.97
671.136	6045.09
671.327	5924.26
671.518	5993.89
671.709	5871.01
671.9	5938.6
672.091	5858.73
672.282	5875.11
672.473	5748.14
672.664	5842.34
672.855	5862.82
673.046	5846.44
673.237	5758.38
673.428	5780.9
673.619	5805.48
673.809	5698.99
674	5600.68
674.191	5649.83
674.382	5762.47
674.573	5729.7
674.764	5615.02
674.954	5547.44
675.145	5500.33
675.336	5600.68
675.527	5475.76
675.717	5508.52
675.908	5371.31
676.099	5471.66
676.289	5418.41
676.48	5477.8
676.671	5410.22
676.861	5447.08
677.052	5342.64
677.243	5365.17
677.433	5264.82
677.624	5332.4
677.814	5225.9
678.005	5318.06
678.195	5232.05
678.386	5207.47
678.576	5168.56
678.767	5154.23
678.957	5195.18
679.148	5395.89
679.338	5232.05
679.529	5277.1
679.719	5133.75
679.909	5246.38
680.1	5092.79
680.29	5240.24
680.481	5234.1
680.671	5109.17
680.861	5273.01
681.052	5238.19
681.242	5035.44
681.432	5191.09
681.622	5137.84
681.813	5053.87
682.003	5080.5
682.193	5012.92
682.383	5002.68
682.573	4996.53
682.764	5008.82
682.954	5055.92
683.144	4984.24
683.334	5047.73
683.524	5031.35
683.714	4959.67
683.904	4791.73
684.094	4957.62
684.284	5094.83
684.474	4941.24
684.664	5021.11
684.854	5074.35
685.044	4959.67
685.234	4965.81
685.424	4951.48
685.614	4951.48
685.804	4844.98
685.994	4892.09
686.184	4847.03
686.374	4779.45
686.564	4804.02
686.753	4791.73
686.943	4799.93
687.133	4734.39
687.323	4765.11
687.513	4679.1
687.702	4574.65
687.892	4474.3
688.082	4537.79
688.272	4523.45
688.461	4582.84
688.651	4738.49
688.841	4668.86
689.03	4570.55
689.22	4558.27
689.41	4591.03
689.599	4554.17
689.789	4664.76
689.979	4437.44
690.168	4355.52
690.358	4515.26
690.547	4296.13
690.737	4361.66
690.926	4396.48
691.116	4271.55
691.305	4392.38
691.495	4193.73
691.684	4244.93
691.874	4431.29
692.063	4380.09
692.252	4255.17
692.442	4263.36
692.631	4158.91
692.82	4279.74
693.01	4105.67
693.199	4269.5
693.388	4048.32
693.578	3993.03
693.767	4117.95
693.956	3997.12
694.146	4124.1
694.335	4210.11
694.524	4021.7
694.713	4083.14
694.902	4038.08
695.092	4183.49
695.281	4040.13
695.47	4068.8
695.659	4058.56
695.848	4060.61
696.037	4029.89
696.226	3892.68
696.415	4011.46
696.604	4042.18
696.793	3841.48
696.982	3814.85
697.171	3933.64
697.36	3945.92
697.549	3964.36
697.738	3909.06
697.927	3902.92
698.116	3831.24
698.305	3997.12
698.494	3868.1
698.683	3999.17
698.872	3962.31
699.061	3902.92
699.25	3753.41
699.438	3792.33
699.627	3790.28
699.816	3872.2
700.005	3859.91
700.193	3892.68
700.382	3798.47
700.571	3839.43
700.76	3720.65
700.948	3732.94
701.137	3956.16
701.326	3739.08
701.514	3716.55
701.703	3655.11
701.892	3821
702.08	3702.22
702.269	3767.75
702.457	3726.79
702.646	3775.94
702.834	3747.27
703.023	3780.04
703.212	3700.17
703.4	3653.06
703.589	3706.31
703.777	3685.83
703.965	3759.56
704.154	3810.76
704.342	3821
704.531	3726.79
704.719	3667.4
704.907	3790.28
705.096	3608.01
705.284	3761.61
705.472	3691.98
705.661	3661.26
705.849	3714.5
706.037	3724.74
706.226	3663.3
706.414	3722.7
706.602	3728.84
706.79	3689.93
706.979	3694.02
707.167	3640.78
707.355	3567.05
707.543	3677.64
707.731	3657.16
707.919	3669.45
708.107	3636.68
708.296	3751.37
708.484	3632.58
708.672	3618.25
708.86	3644.87
709.048	3669.45
709.236	3683.78
709.424	3677.64
709.612	3655.11
709.8	3620.3
709.988	3610.06
710.176	3562.95
710.364	3595.72
710.551	3524.04
710.739	3587.53
710.927	3587.53
711.115	3583.43
711.303	3743.17
711.491	3638.73
711.679	3560.91
711.866	3526.09
712.054	3732.94
712.242	3505.61
712.43	3671.5
712.617	3499.47
712.805	3651.02
712.993	3612.1
713.181	3499.47
713.368	3716.55
713.556	3628.49
713.744	3511.75
713.931	3788.23
714.119	3517.9
714.306	3618.25
714.494	3636.68
714.682	3546.57
714.869	3499.47
715.057	3679.69
715.244	3616.2
715.432	3700.17
715.619	3640.78
715.807	3675.59
715.994	3587.53
716.182	3651.02
716.369	3534.28
716.556	3677.64
716.744	3620.3
716.931	3597.77
717.119	3689.93
717.306	3603.91
717.493	3616.2
717.681	3587.53
717.868	3562.95
718.055	3667.4
718.242	3608.01
718.43	3597.77
718.617	3665.35
718.804	3601.87
718.991	3667.4
719.179	3472.84
719.366	3593.67
719.553	3700.17
719.74	3507.66
719.927	3483.08
720.114	3460.56
720.301	3608.01
720.488	3481.03
720.676	3456.46
720.863	3550.67
721.05	3696.07
721.237	3573.19
721.424	3540.43
721.611	3550.67
721.798	3448.27
721.985	3542.47
722.172	3456.46
722.358	3487.18
722.545	3659.21
722.732	3390.92
722.919	3431.88
723.106	3653.06
723.293	3511.75
723.48	3513.8
723.667	3456.46
723.853	3374.54
724.04	3478.99
724.227	3558.86
724.414	3374.54
724.6	3472.84
724.787	3556.81
724.974	3587.53
725.161	3421.64
725.347	3440.08
725.534	3497.42
725.72	3395.02
725.907	3390.92
726.094	3354.06
726.28	3505.61
726.467	3366.35
726.653	3329.49
726.84	3411.4
727.027	3511.75
727.213	3509.71
727.4	3476.94
727.586	3454.41
727.773	3481.03
727.959	3337.68
728.145	3309.01
728.332	3395.02
728.518	3423.69
728.705	3515.85
728.891	3528.14
729.077	3425.74
729.264	3345.87
729.45	3286.48
729.636	3460.56
729.823	3325.39
730.009	3339.73
730.195	3452.36
730.382	3470.8
730.568	3452.36
730.754	3388.88
730.94	3325.39
731.126	3438.03
731.313	3466.7
731.499	3415.5
731.685	3345.87
731.871	3216.85
732.057	3306.96
732.243	3290.57
732.429	3288.53
732.615	3345.87
732.801	3243.47
732.987	3370.44
733.173	3300.81
733.359	3321.29
733.545	3349.96
733.731	3288.53
733.917	3358.16
734.103	3415.5
734.289	3309.01
734.475	3159.5
734.661	3276.24
734.847	3241.42
735.033	3313.1
735.219	3218.89
735.404	3220.94
735.59	3358.16
735.776	3149.26
735.962	3268.05
736.148	3239.37
736.333	3274.19
736.519	3173.84
736.705	3128.78
736.89	3225.04
737.076	3116.5
737.262	3329.49
737.447	3175.89
737.633	3186.13
737.819	3231.18
738.004	3165.65
738.19	3069.39
738.375	3132.88
738.561	3087.82
738.747	3010
738.932	3087.82
739.118	3055.06
739.303	3083.73
739.489	2993.62
739.674	3087.82
739.859	3038.67
740.045	3067.35
740.23	3036.63
740.416	2960.85
740.601	3042.77
740.786	3110.35
740.972	3038.67
741.157	2833.88
741.342	2997.71
741.528	2942.42
741.713	2926.04
741.898	2956.75
742.084	3001.81
742.269	2919.89
742.454	2878.93
742.639	2913.75
742.824	2846.16
743.01	2766.29
743.195	2893.27
743.38	2891.22
743.565	2792.92
743.75	2821.59
743.935	2850.26
744.12	2872.79
744.305	2837.97
744.49	2799.06
744.675	2667.99
744.86	2768.34
745.045	2842.07
745.23	2743.77
745.415	2588.12
745.6	2665.94
745.785	2680.28
745.97	2596.31
746.155	2711
746.34	2639.32
746.525	2569.69
746.71	2495.96
746.895	2524.63
747.079	2555.35
747.264	2485.72
747.449	2565.59
747.634	2487.77
747.819	2536.92
748.003	2481.63
748.188	2461.15
748.373	2467.29
748.557	2399.71
748.742	2364.89
748.927	2401.76
749.111	2317.79
749.296	2379.23
749.481	2319.84
749.665	2336.22
749.85	2389.47
750.034	2356.7
750.219	2377.18
750.404	2323.93
750.588	2338.27
750.773	2350.56
750.957	2119.14
751.141	2117.09
751.326	2184.67
751.51	2176.48
751.695	2209.25
751.879	2129.38
752.064	2190.81
752.248	2112.99
752.432	2061.79
752.617	2092.51
752.801	1979.87
752.985	2088.42
753.17	2065.89
753.354	2080.22
753.538	2061.79
753.722	2076.13
753.907	2086.37
754.091	1930.72
754.275	2059.74
754.459	1992.16
754.643	1975.78
754.828	1906.15
755.012	1961.44
755.196	1842.66
755.38	1875.43
755.564	1842.66
755.748	1854.95
755.932	1914.34
756.116	1801.7
756.3	1842.66
756.484	1770.98
756.668	1756.65
756.852	1740.26
757.036	1820.13
757.22	1721.83
757.404	1766.89
757.588	1707.49
757.772	1822.18
757.956	1629.67
758.14	1762.79
758.323	1594.86
758.507	1609.19
758.691	1594.86
758.875	1629.67
759.059	1539.56
759.242	1740.26
759.426	1605.1
759.61	1576.42
759.794	1582.57
759.977	1572.33
760.161	1594.86
760.345	1543.66
760.528	1539.56
760.712	1547.75
760.895	1457.64
761.079	1519.08
761.263	1375.72
761.446	1541.61
761.63	1412.59
761.813	1549.8
761.997	1494.51
762.18	1443.31
762.364	1484.27
762.547	1383.91
762.731	1449.45
762.914	1416.68
763.098	1424.87
763.281	1459.69
763.464	1402.35
763.648	1314.28
763.831	1394.15
764.015	1371.63
764.198	1367.53
764.381	1357.29
764.564	1369.58
764.748	1363.44
764.931	1447.4
765.114	1326.57
765.297	1414.63
765.481	1312.24
765.664	1240.56
765.847	1336.81
766.03	1289.71
766.213	1302
766.397	1338.86
766.58	1287.66
766.763	1347.05
766.946	1244.65
767.129	1261.04
767.312	1234.41
767.495	1342.96
767.678	1291.76
767.861	1209.84
768.044	1291.76
768.227	1310.19
768.41	1267.18
768.593	1314.28
768.776	1308.14
768.959	1107.44
769.142	1228.27
769.324	1177.07
769.507	1273.32
769.69	1228.27
769.873	1199.6
770.056	1136.11
770.239	1177.07
770.421	1203.69
770.604	1117.68
770.787	1183.21
770.97	1175.02
771.152	1146.35
771.335	1154.54
771.518	1095.15
771.7	1119.73
771.883	1089.01
772.066	1105.39
772.248	1117.68
772.431	1140.21
772.613	1050.1
772.796	1035.76
772.978	1172.97
773.161	1111.54
773.343	1123.82
773.526	1086.96
773.708	1062.38
773.891	982.51
774.073	996.85
774.256	1015.28
774.438	1101.3
774.621	984.56
774.803	1035.76
774.985	947.7
775.168	1039.86
775.35	1039.86
775.532	947.7
775.715	974.32
775.897	896.5
776.079	869.87
776.261	929.27
776.444	873.97
776.626	964.08
776.808	968.18
776.99	853.49
777.173	947.7
777.355	892.4
777.537	964.08
777.719	867.83
777.901	945.65
778.083	916.98
778.265	849.4
778.447	867.83
778.629	808.44
778.811	861.68
778.993	818.68
779.175	886.26
779.357	738.8
779.539	851.44
779.721	855.54
779.903	828.92
780.085	771.57
780.267	724.47
780.449	802.29
780.631	724.47
780.812	853.49
780.994	757.24
781.176	701.94
781.358	747
781.54	794.1
781.721	751.09
781.903	701.94
782.085	626.17
782.267	765.43
782.448	595.45
782.63	695.8
782.812	679.41
782.993	679.41
783.175	765.43
783.357	634.36
783.538	699.89
783.72	617.97
783.901	738.8
784.083	683.51
784.264	628.21
784.446	507.38
784.627	634.36
784.809	695.8
784.99	613.88
785.172	665.08
785.353	617.97
785.535	626.17
785.716	595.45
785.897	605.69
786.079	634.36
786.26	607.73
786.441	585.21
786.623	536.06
786.804	589.3
786.985	550.39
787.167	519.67
787.348	556.54
787.529	624.12
787.71	628.21
787.891	497.14
788.073	538.1
788.254	493.05
788.435	540.15
788.616	544.25
788.797	470.52
788.978	611.83
789.159	525.82
789.34	488.95
789.522	556.54
789.703	534.01
789.884	552.44
790.065	568.82
790.246	503.29
790.427	456.19
790.607	495.1
790.788	495.1
790.969	560.63
791.15	435.71
791.331	462.33
791.512	509.43
791.693	439.8
791.874	536.06
792.054	540.15
792.235	495.1
792.416	454.14
792.597	359.93
792.778	419.32
792.958	382.46
793.139	402.94
793.32	460.28
793.5	456.19
793.681	445.95
793.862	439.8
794.042	458.23
794.223	441.85
794.404	413.18
794.584	429.56
794.765	398.84
794.945	400.89
795.126	407.03
795.306	445.95
795.487	534.01
795.667	257.53
795.848	407.03
796.028	441.85
796.209	398.84
796.389	470.52
796.57	312.83
796.75	429.56
796.93	364.03
797.111	413.18
797.291	343.55
797.471	376.31
797.652	372.22
797.832	380.41
798.012	423.42
798.192	314.88
798.373	335.35
798.553	345.59
798.733	327.16
798.913	318.97
799.093	431.61
799.274	314.88
799.454	355.83
799.634	349.69
799.814	357.88
799.994	318.97
800.174	339.45
800.354	364.03
800.534	341.5
800.714	374.27
800.894	388.6
801.074	302.59
801.254	241.15
801.434	294.4
801.614	347.64
801.794	306.68
801.974	775.67
802.154	312.83
802.334	292.35
802.514	302.59
802.693	269.82
802.873	331.26
803.053	372.22
803.233	308.73
803.413	220.67
803.592	286.2
803.772	200.19
803.952	314.88
804.131	280.06
804.311	337.4
804.491	351.74
804.67	200.19
804.85	255.48
805.03	294.4
805.209	310.78
805.389	310.78
805.568	224.76
805.748	235
805.928	327.16
806.107	333.31
806.287	351.74
806.466	306.68
806.646	235
806.825	251.39
807.004	218.62
807.184	253.44
807.363	251.39
807.543	249.34
807.722	204.28
807.901	294.4
808.081	230.91
808.26	179.71
808.439	241.15
808.619	226.81
808.798	298.49
808.977	259.58
809.156	232.96
809.336	296.44
809.515	282.11
809.694	179.71
809.873	204.28
810.052	347.64
810.231	271.87
810.411	253.44
810.59	261.63
810.769	249.34
810.948	251.39
811.127	196.09
811.306	318.97
811.485	226.81
811.664	228.86
811.843	253.44
812.022	310.78
812.201	218.62
812.38	210.43
812.559	179.71
812.737	210.43
812.916	226.81
813.095	163.33
813.274	153.09
813.453	232.96
813.632	286.2
813.811	292.35
813.989	216.57
814.168	177.66
814.347	142.85
814.526	179.71
814.704	230.91
814.883	175.61
815.062	177.66
815.24	187.9
815.419	185.85
815.598	128.51
815.776	179.71
815.955	267.77
816.133	153.09
816.312	204.28
816.49	189.95
816.669	202.24
816.847	159.23
817.026	130.56
817.204	114.17
817.383	187.9
817.561	146.94
817.74	230.91
817.918	194.05
818.097	173.57
818.275	192
818.453	130.56
818.632	181.76
818.81	196.09
818.988	153.09
819.167	214.52
819.345	220.67
819.523	179.71
819.701	155.13
819.879	196.09
820.058	116.22
820.236	232.96
820.414	202.24
820.592	218.62
820.77	179.71
820.948	112.13
821.127	200.19
821.305	161.28
821.483	157.18
821.661	140.8
821.839	163.33
822.017	132.61
822.195	128.51
822.373	148.99
822.551	194.05
822.729	103.93
822.907	110.08
823.085	206.33
823.262	122.37
823.44	159.23
823.618	136.7
823.796	222.72
823.974	101.89
824.152	130.56
824.329	116.22
824.507	181.76
824.685	210.43
824.863	110.08
825.04	175.61
825.218	228.86
825.396	138.75
825.574	124.41
825.751	105.98
825.929	169.47
826.107	120.32
826.284	161.28
826.462	87.55
826.639	99.84
826.817	140.8
826.994	91.65
827.172	77.31
827.349	202.24
827.527	194.05
827.704	148.99
827.882	175.61
828.059	163.33
828.237	151.04
828.414	165.37
828.591	52.74
828.769	62.98
828.946	71.17
829.124	146.94
829.301	151.04
829.478	124.41
829.655	202.24
829.833	140.8
830.01	91.65
830.187	187.9
830.364	101.89
830.542	105.98
830.719	118.27
830.896	130.56
831.073	97.79
831.25	103.93
831.427	146.94
831.604	105.98
831.782	132.61
831.959	169.47
832.136	97.79
832.313	101.89
832.49	112.13
832.667	151.04
832.844	159.23
833.021	110.08
833.198	105.98
833.374	103.93
833.551	-16.9
833.728	101.89
833.905	103.93
834.082	151.04
834.259	118.27
834.436	130.56
834.612	126.46
834.789	97.79
834.966	105.98
835.143	132.61
835.319	142.85
835.496	71.17
835.673	103.93
835.85	114.17
836.026	118.27
836.203	118.27
836.38	48.64
836.556	122.37
836.733	83.45
836.909	71.17
837.086	93.69
837.262	97.79
837.439	85.5
837.616	110.08
837.792	171.52
837.968	73.21
838.145	67.07
838.321	140.8
838.498	79.36
838.674	58.88
838.851	114.17
839.027	95.74
839.203	22.02
839.38	56.83
839.556	108.03
839.732	71.17
839.909	30.21
840.085	105.98
840.261	48.64
840.437	24.06
840.614	91.65
840.79	185.85
840.966	54.78
841.142	52.74
841.318	75.26
841.494	144.89
841.671	73.21
841.847	91.65
842.023	73.21
842.199	79.36
842.375	161.28
842.551	36.35
842.727	13.82
842.903	114.17
843.079	-12.8
843.255	54.78
843.431	13.82
843.607	69.12
843.783	13.82
843.959	146.94
844.134	89.6
844.31	89.6
844.486	108.03
844.662	93.69
844.838	97.79
845.013	103.93
845.189	97.79
845.365	134.65
845.541	65.02
845.716	77.31
845.892	58.88
846.068	71.17
846.244	30.21
846.419	-18.94
846.595	50.69
846.77	62.98
846.946	54.78
847.122	81.41
847.297	97.79
847.473	93.69
847.648	22.02
847.824	52.74
847.999	7.68
848.175	38.4
848.35	79.36
848.526	138.75
848.701	77.31
848.876	114.17
849.052	114.17
849.227	112.13
849.403	122.37
849.578	60.93
849.753	75.26
849.929	118.27
850.104	56.83
850.279	11.78
850.454	65.02
850.63	48.64
850.805	69.12
850.98	97.79
851.155	54.78
851.33	65.02
851.505	52.74
851.681	44.54
851.856	-23.04
852.031	75.26
852.206	75.26
852.381	114.17
852.556	79.36
852.731	30.21
852.906	48.64
853.081	-2.56
853.256	81.41
853.431	85.5
853.606	36.35
853.781	79.36
853.956	-59.9
854.131	48.64
854.305	73.21
854.48	91.65
854.655	42.5
854.83	54.78
855.005	32.26
855.18	65.02
855.354	30.21
855.529	1.54
855.704	110.08
855.879	52.74
856.053	24.06
856.228	50.69
856.403	3.58
856.577	46.59
856.752	-31.23
856.926	24.06
857.101	101.89
857.276	126.46
857.45	36.35
857.625	60.93
857.799	26.11
857.974	62.98
858.148	48.64
858.323	91.65
858.497	46.59
858.672	13.82
858.846	13.82
859.02	128.51
859.195	-31.23
859.369	91.65
859.543	77.31
859.718	52.74
859.892	122.37
860.066	22.02
860.241	38.4
860.415	36.35
860.589	65.02
860.763	62.98
860.938	-8.7
861.112	67.07
861.286	7.68
861.46	48.64
861.634	36.35
861.808	32.26
861.982	-29.18
862.157	44.54
862.331	13.82
862.505	95.74
862.679	26.11
862.853	54.78
863.027	19.97
863.201	85.5
863.375	71.17
863.549	65.02
863.722	22.02
863.896	1.54
864.07	17.92
864.244	54.78
864.418	3.58
864.592	36.35
864.766	95.74
864.939	40.45
865.113	75.26
865.287	-2.56
865.461	73.21
865.634	62.98
865.808	-20.99
865.982	71.17
866.156	-0.51
866.329	-25.09
866.503	24.06
866.676	24.06
866.85	77.31
867.024	15.87
867.197	48.64
867.371	60.93
867.544	93.69
867.718	44.54
867.891	91.65
868.065	50.69
868.238	1.54
868.412	52.74
868.585	-2.56
868.759	79.36
868.932	77.31
869.105	-14.85
869.279	24.06
869.452	22.02
869.625	48.64
869.799	56.83
869.972	52.74
870.145	26.11
870.319	79.36
870.492	24.06
870.665	38.4
870.838	11.78
871.011	-2.56
871.185	52.74
871.358	34.3
871.531	-2.56
871.704	-16.9
871.877	58.88
872.05	97.79
872.223	-10.75
872.396	44.54
872.569	7.68
872.742	-29.18
872.915	32.26
873.088	105.98
873.261	26.11
873.434	77.31
873.607	28.16
873.78	40.45
873.953	56.83
874.126	-4.61
874.299	116.22
874.471	3.58
874.644	40.45
874.817	75.26
874.99	163.33
875.163	75.26
875.335	58.88
875.508	3.58
875.681	32.26
875.853	24.06
876.026	26.11
876.199	73.21
876.371	73.21
876.544	36.35
876.717	105.98
876.889	67.07
877.062	105.98
877.234	-18.94
877.407	44.54
877.579	75.26
877.752	38.4
877.924	40.45
878.097	40.45
878.269	30.21
878.442	22.02
878.614	17.92
878.786	101.89
878.959	9.73
879.131	60.93
879.303	-0.51
879.476	-0.51
879.648	-2.56
879.82	62.98
879.993	-35.33
880.165	-23.04
880.337	-53.76
880.509	-2.56
880.681	-25.09
880.854	13.82
881.026	-10.75
881.198	40.45
881.37	101.89
881.542	103.93
881.714	-20.99
881.886	75.26
882.058	40.45
882.23	56.83
882.402	32.26
882.574	52.74
882.746	-8.7
882.918	3.58
883.09	19.97
883.262	73.21
883.434	9.73
883.606	-6.66
883.778	-18.94
883.95	103.93
884.122	15.87
884.293	36.35
884.465	19.97
884.637	118.27
884.809	71.17
884.98	32.26
885.152	17.92
885.324	56.83
885.496	11.78
885.667	26.11
885.839	93.69
886.011	44.54
886.182	13.82
886.354	-2.56
886.525	28.16
886.697	-2.56
886.869	-41.47
887.04	-51.71
887.212	38.4
887.383	52.74
887.555	56.83
887.726	-12.8
887.897	48.64
888.069	22.02
888.24	-29.18
888.412	60.93
888.583	42.5
888.754	105.98
888.926	79.36
889.097	-2.56
889.268	-4.61
889.44	-0.51
889.611	56.83
889.782	30.21
889.953	-39.42
890.125	97.79
890.296	46.59
890.467	81.41
890.638	89.6
890.809	65.02
890.98	54.78
891.151	-6.66
891.323	40.45
891.494	44.54
891.665	-37.38
891.836	44.54
892.007	50.69
892.178	-33.28
892.349	-14.85
892.52	-6.66
892.691	-16.9
892.862	3.58
893.032	3.58
893.203	17.92
893.374	1.54
893.545	103.93
893.716	9.73
893.887	69.12
894.057	-51.71
894.228	11.78
894.399	3.58
894.57	5.63
894.74	-16.9
894.911	62.98
895.082	-25.09
895.253	65.02
895.423	32.26
895.594	38.4
895.764	19.97
895.935	-31.23
896.106	50.69
896.276	44.54
896.447	5.63
896.617	-8.7
896.788	-31.23
896.958	48.64
897.129	38.4
897.299	1.54
897.47	83.45
897.64	42.5
897.81	38.4
897.981	46.59
898.151	-12.8
898.322	-35.33
898.492	46.59
898.662	-10.75
898.832	105.98
899.003	89.6
899.173	3.58
899.343	77.31
899.513	-8.7
