Data from USB4F104151__38__10-22-38-721.txt Node

Date: Wed Mar 12 10:22:38 EDT 2025
User: louis
Spectrometer: USB4F10415
Trigger mode: 4
Integration Time (sec): 3.000000E-2
Scans to average: 1
Electric dark correction enabled: true
Nonlinearity correction enabled: false
Boxcar width: 0
XAxis mode: Wavelengths
Number of Pixels in Spectrum: 3648
>>>>>Begin Spectral Data<<<<<
178.204	-43.86
178.424	-43.86
178.644	-43.86
178.864	-160.59
179.084	-99.16
179.304	-2.9
179.524	-19.29
179.744	-29.52
179.964	101.55
180.184	-64.34
180.404	29.87
180.624	52.39
180.844	-41.81
181.064	-82.77
181.283	19.63
181.503	-11.09
181.723	48.3
181.943	-54.1
182.163	40.11
182.383	17.58
182.602	64.68
182.822	29.87
183.042	91.31
183.262	17.58
183.482	-35.67
183.701	-35.67
183.921	-2.9
184.141	21.67
184.361	-2.9
184.58	33.96
184.8	-9.05
185.02	5.29
185.239	58.54
185.459	-4.95
185.679	44.2
185.898	7.34
186.118	64.68
186.338	38.06
186.557	-2.9
186.777	-70.48
186.997	-21.33
187.216	-17.24
187.436	70.83
187.655	58.54
187.875	11.43
188.095	-31.57
188.314	50.35
188.534	46.25
188.753	-17.24
188.973	62.63
189.192	81.07
189.412	-11.09
189.631	-31.57
189.851	46.25
190.07	122.02
190.29	15.53
190.509	42.15
190.729	29.87
190.948	-13.14
191.168	160.94
191.387	87.21
191.607	1.19
191.826	60.59
192.045	3.24
192.265	7.34
192.484	3.24
192.704	-47.96
192.923	15.53
193.142	66.73
193.362	19.63
193.581	11.43
193.8	46.25
194.02	54.44
194.239	-13.14
194.458	68.78
194.678	-0.85
194.897	42.15
195.116	-50
195.335	13.48
195.555	33.96
195.774	33.96
195.993	5.29
196.212	-27.48
196.432	-27.48
196.651	21.67
196.87	23.72
197.089	56.49
197.308	-17.24
197.528	-19.29
197.747	-43.86
197.966	72.87
198.185	-2.9
198.404	-0.85
198.623	42.15
198.842	-23.38
199.062	56.49
199.281	-7
199.5	62.63
199.719	58.54
199.938	11.43
200.157	33.96
200.376	40.11
200.595	91.31
200.814	58.54
201.033	23.72
201.252	-13.14
201.471	5.29
201.69	21.67
201.909	-2.9
202.128	44.2
202.347	31.91
202.566	38.06
202.785	-9.05
203.004	-56.15
203.223	99.5
203.442	-29.52
203.661	60.59
203.879	-43.86
204.098	27.82
204.317	-9.05
204.536	56.49
204.755	27.82
204.974	5.29
205.193	27.82
205.411	17.58
205.63	36.01
205.849	-27.48
206.068	21.67
206.287	-27.48
206.505	-27.48
206.724	-15.19
206.943	-45.91
207.162	13.48
207.381	42.15
207.599	64.68
207.818	25.77
208.037	-13.14
208.255	25.77
208.474	-54.1
208.693	-0.85
208.911	31.91
209.13	-37.72
209.349	38.06
209.567	27.82
209.786	48.3
210.005	62.63
210.223	38.06
210.442	-7
210.661	-29.52
210.879	-35.67
211.098	42.15
211.316	-31.57
211.535	36.01
211.753	-19.29
211.972	5.29
212.191	-19.29
212.409	17.58
212.628	11.43
212.846	64.68
213.065	15.53
213.283	7.34
213.502	17.58
213.72	72.87
213.938	50.35
214.157	-64.34
214.375	62.63
214.594	83.11
214.812	44.2
215.031	9.39
215.249	42.15
215.467	54.44
215.686	15.53
215.904	97.45
216.122	11.43
216.341	44.2
216.559	-4.95
216.778	46.25
216.996	17.58
217.214	27.82
217.432	-23.38
217.651	-58.2
217.869	56.49
218.087	62.63
218.306	40.11
218.524	83.11
218.742	-21.33
218.96	97.45
219.179	38.06
219.397	-29.52
219.615	-4.95
219.833	60.59
220.051	62.63
220.27	-66.39
220.488	50.35
220.706	62.63
220.924	-11.09
221.142	-9.05
221.36	-17.24
221.578	1.19
221.796	-21.33
222.015	46.25
222.233	46.25
222.451	48.3
222.669	87.21
222.887	-0.85
223.105	38.06
223.323	83.11
223.541	5.29
223.759	40.11
223.977	40.11
224.195	68.78
224.413	36.01
224.631	29.87
224.849	21.67
225.067	13.48
225.285	42.15
225.503	52.39
225.721	-35.67
225.939	-68.44
226.157	-11.09
226.375	142.5
226.592	-0.85
226.81	-70.48
227.028	52.39
227.246	76.97
227.464	-13.14
227.682	27.82
227.9	5.29
228.117	58.54
228.335	-31.57
228.553	31.91
228.771	13.48
228.989	17.58
229.206	95.4
229.424	38.06
229.642	56.49
229.86	38.06
230.077	81.07
230.295	62.63
230.513	31.91
230.731	33.96
230.948	62.63
231.166	74.92
231.384	11.43
231.601	-15.19
231.819	70.83
232.037	15.53
232.254	38.06
232.472	-27.48
232.689	-56.15
232.907	33.96
233.125	29.87
233.342	21.67
233.56	70.83
233.777	-25.43
233.995	21.67
234.213	74.92
234.43	-35.67
234.648	52.39
234.865	13.48
235.083	74.92
235.3	-39.76
235.518	-33.62
235.735	50.35
235.953	29.87
236.17	-35.67
236.388	70.83
236.605	-43.86
236.822	58.54
237.04	29.87
237.257	42.15
237.475	36.01
237.692	-29.52
237.909	9.39
238.127	54.44
238.344	-9.05
238.562	58.54
238.779	-52.05
238.996	15.53
239.214	85.16
239.431	107.69
239.648	33.96
239.865	27.82
240.083	50.35
240.3	60.59
240.517	-60.24
240.735	11.43
240.952	25.77
241.169	25.77
241.386	42.15
241.603	-17.24
241.821	-4.95
242.038	64.68
242.255	13.48
242.472	19.63
242.689	-19.29
242.907	21.67
243.124	42.15
243.341	-31.57
243.558	-19.29
243.775	95.4
243.992	-17.24
244.209	-13.14
244.426	83.11
244.643	60.59
244.86	52.39
245.078	62.63
245.295	27.82
245.512	-15.19
245.729	7.34
245.946	89.26
246.163	21.67
246.38	17.58
246.597	-4.95
246.814	70.83
247.031	-11.09
247.248	46.25
247.464	52.39
247.681	66.73
247.898	-11.09
248.115	70.83
248.332	19.63
248.549	36.01
248.766	60.59
248.983	13.48
249.2	60.59
249.417	79.02
249.633	-2.9
249.85	62.63
250.067	-19.29
250.284	46.25
250.501	72.87
250.717	117.93
250.934	-11.09
251.151	-47.96
251.368	19.63
251.585	25.77
251.801	66.73
252.018	-43.86
252.235	33.96
252.451	23.72
252.668	62.63
252.885	87.21
253.102	9.39
253.318	66.73
253.535	33.96
253.752	-13.14
253.968	25.77
254.185	-103.25
254.401	17.58
254.618	23.72
254.835	3.24
255.051	9.39
255.268	64.68
255.484	5.29
255.701	38.06
255.917	72.87
256.134	-52.05
256.351	-13.14
256.567	-0.85
256.784	52.39
257	25.77
257.217	76.97
257.433	52.39
257.65	50.35
257.866	140.46
258.082	-27.48
258.299	27.82
258.515	42.15
258.732	9.39
258.948	-9.05
259.165	-7
259.381	42.15
259.597	68.78
259.814	64.68
260.03	40.11
260.246	64.68
260.463	62.63
260.679	54.44
260.895	87.21
261.112	113.83
261.328	-39.76
261.544	7.34
261.761	64.68
261.977	-27.48
262.193	-7
262.409	97.45
262.626	42.15
262.842	-17.24
263.058	-41.81
263.274	85.16
263.49	70.83
263.707	93.35
263.923	-21.33
264.139	62.63
264.355	-21.33
264.571	19.63
264.787	1.19
265.004	5.29
265.22	103.59
265.436	33.96
265.652	19.63
265.868	31.91
266.084	-11.09
266.3	58.54
266.516	-52.05
266.732	70.83
266.948	38.06
267.164	74.92
267.38	54.44
267.596	52.39
267.812	56.49
268.028	54.44
268.244	-7
268.46	87.21
268.676	17.58
268.892	72.87
269.108	-11.09
269.324	-2.9
269.54	-4.95
269.756	52.39
269.972	83.11
270.188	11.43
270.403	-4.95
270.619	25.77
270.835	-2.9
271.051	66.73
271.267	42.15
271.483	50.35
271.698	-7
271.914	103.59
272.13	-43.86
272.346	-2.9
272.562	99.5
272.777	-7
272.993	-25.43
273.209	9.39
273.425	-27.48
273.64	52.39
273.856	50.35
274.072	54.44
274.287	21.67
274.503	19.63
274.719	-11.09
274.934	44.2
275.15	-0.85
275.366	15.53
275.581	5.29
275.797	25.77
276.012	62.63
276.228	46.25
276.444	74.92
276.659	89.26
276.875	-35.67
277.09	33.96
277.306	-11.09
277.521	42.15
277.737	42.15
277.952	-15.19
278.168	62.63
278.383	25.77
278.599	-13.14
278.814	72.87
279.03	-19.29
279.245	42.15
279.461	-0.85
279.676	70.83
279.892	-13.14
280.107	29.87
280.322	-4.95
280.538	29.87
280.753	62.63
280.969	27.82
281.184	-15.19
281.399	83.11
281.615	-0.85
281.83	72.87
282.045	56.49
282.26	58.54
282.476	58.54
282.691	3.24
282.906	3.24
283.122	66.73
283.337	54.44
283.552	68.78
283.767	5.29
283.983	9.39
284.198	58.54
284.413	44.2
284.628	27.82
284.843	-11.09
285.058	115.88
285.274	36.01
285.489	46.25
285.704	79.02
285.919	11.43
286.134	1.19
286.349	42.15
286.564	33.96
286.779	91.31
286.995	-11.09
287.21	-33.62
287.425	54.44
287.64	81.07
287.855	79.02
288.07	27.82
288.285	13.48
288.5	62.63
288.715	68.78
288.93	-4.95
289.145	3.24
289.36	54.44
289.575	17.58
289.79	54.44
290.004	-58.2
290.219	62.63
290.434	5.29
290.649	-56.15
290.864	-15.19
291.079	81.07
291.294	62.63
291.509	-45.91
291.724	-84.82
291.938	33.96
292.153	25.77
292.368	25.77
292.583	50.35
292.798	54.44
293.012	-2.9
293.227	15.53
293.442	48.3
293.657	21.67
293.871	36.01
294.086	29.87
294.301	83.11
294.516	87.21
294.73	60.59
294.945	-54.1
295.16	62.63
295.374	21.67
295.589	103.59
295.804	-7
296.018	46.25
296.233	70.83
296.447	54.44
296.662	83.11
296.877	29.87
297.091	74.92
297.306	13.48
297.52	-109.4
297.735	15.53
297.949	46.25
298.164	66.73
298.378	89.26
298.593	40.11
298.807	66.73
299.022	103.59
299.236	-2.9
299.451	60.59
299.665	74.92
299.88	1.19
300.094	74.92
300.309	44.2
300.523	76.97
300.737	-15.19
300.952	46.25
301.166	91.31
301.381	-43.86
301.595	-11.09
301.809	109.74
302.024	38.06
302.238	97.45
302.452	54.44
302.667	44.2
302.881	38.06
303.095	54.44
303.309	29.87
303.524	-4.95
303.738	38.06
303.952	7.34
304.166	13.48
304.381	-60.24
304.595	66.73
304.809	72.87
305.023	50.35
305.237	13.48
305.452	23.72
305.666	-25.43
305.88	9.39
306.094	50.35
306.308	62.63
306.522	31.91
306.736	97.45
306.95	29.87
307.164	-4.95
307.379	23.72
307.593	95.4
307.807	5.29
308.021	60.59
308.235	54.44
308.449	21.67
308.663	1.19
308.877	56.49
309.091	93.35
309.305	25.77
309.519	-11.09
309.733	-2.9
309.947	21.67
310.161	95.4
310.374	-31.57
310.588	29.87
310.802	-27.48
311.016	46.25
311.23	79.02
311.444	-43.86
311.658	40.11
311.872	58.54
312.085	46.25
312.299	79.02
312.513	101.55
312.727	111.78
312.941	-52.05
313.154	3.24
313.368	5.29
313.582	46.25
313.796	93.35
314.009	101.55
314.223	91.31
314.437	-11.09
314.651	27.82
314.864	70.83
315.078	-23.38
315.292	29.87
315.505	-17.24
315.719	62.63
315.933	7.34
316.146	13.48
316.36	-25.43
316.573	79.02
316.787	13.48
317.001	27.82
317.214	13.48
317.428	29.87
317.641	-64.34
317.855	17.58
318.068	70.83
318.282	5.29
318.495	87.21
318.709	-4.95
318.922	48.3
319.136	103.59
319.349	66.73
319.563	-27.48
319.776	79.02
319.99	27.82
320.203	62.63
320.417	42.15
320.63	-13.14
320.843	1.19
321.057	38.06
321.27	56.49
321.483	48.3
321.697	132.26
321.91	70.83
322.124	144.55
322.337	95.4
322.55	85.16
322.763	-15.19
322.977	83.11
323.19	7.34
323.403	31.91
323.617	58.54
323.83	66.73
324.043	-39.76
324.256	126.12
324.469	25.77
324.683	-7
324.896	9.39
325.109	11.43
325.322	-25.43
325.535	74.92
325.748	44.2
325.962	60.59
326.175	38.06
326.388	107.69
326.601	54.44
326.814	56.49
327.027	31.91
327.24	105.64
327.453	-2.9
327.666	60.59
327.879	50.35
328.092	62.63
328.305	95.4
328.518	-15.19
328.731	7.34
328.944	36.01
329.157	40.11
329.37	66.73
329.583	68.78
329.796	79.02
330.009	-76.63
330.222	52.39
330.435	17.58
330.648	44.2
330.861	117.93
331.073	52.39
331.286	25.77
331.499	-23.38
331.712	-35.67
331.925	-25.43
332.138	36.01
332.35	25.77
332.563	-39.76
332.776	136.36
332.989	-0.85
333.202	119.98
333.414	-0.85
333.627	21.67
333.84	50.35
334.053	29.87
334.265	62.63
334.478	52.39
334.691	103.59
334.903	5.29
335.116	-31.57
335.329	21.67
335.541	46.25
335.754	56.49
335.966	-2.9
336.179	50.35
336.392	-2.9
336.604	58.54
336.817	74.92
337.029	74.92
337.242	58.54
337.454	140.46
337.667	42.15
337.88	66.73
338.092	87.21
338.305	87.21
338.517	-4.95
338.729	54.44
338.942	144.55
339.154	23.72
339.367	-19.29
339.579	40.11
339.792	62.63
340.004	66.73
340.217	56.49
340.429	54.44
340.641	-47.96
340.854	70.83
341.066	81.07
341.278	-2.9
341.491	58.54
341.703	19.63
341.915	19.63
342.128	66.73
342.34	36.01
342.552	17.58
342.764	-19.29
342.977	54.44
343.189	81.07
343.401	13.48
343.613	-11.09
343.826	36.01
344.038	-13.14
344.25	52.39
344.462	19.63
344.674	36.01
344.886	60.59
345.099	25.77
345.311	-7
345.523	89.26
345.735	5.29
345.947	-56.15
346.159	-19.29
346.371	64.68
346.583	76.97
346.795	70.83
347.007	19.63
347.219	76.97
347.431	-15.19
347.643	42.15
347.855	134.31
348.067	44.2
348.279	40.11
348.491	40.11
348.703	54.44
348.915	13.48
349.127	-70.48
349.339	21.67
349.551	40.11
349.763	113.83
349.975	25.77
350.187	101.55
350.399	29.87
350.61	11.43
350.822	19.63
351.034	3.24
351.246	64.68
351.458	25.77
351.669	-2.9
351.881	66.73
352.093	52.39
352.305	66.73
352.517	36.01
352.728	-11.09
352.94	66.73
353.152	-37.72
353.363	-45.91
353.575	-2.9
353.787	124.07
353.999	74.92
354.21	142.5
354.422	29.87
354.633	38.06
354.845	29.87
355.057	44.2
355.268	21.67
355.48	52.39
355.692	-21.33
355.903	33.96
356.115	70.83
356.326	-54.1
356.538	140.46
356.749	-2.9
356.961	105.64
357.172	17.58
357.384	3.24
357.595	124.07
357.807	79.02
358.018	-35.67
358.23	56.49
358.441	146.6
358.653	3.24
358.864	25.77
359.075	-56.15
359.287	31.91
359.498	42.15
359.709	83.11
359.921	83.11
360.132	85.16
360.344	15.53
360.555	74.92
360.766	56.49
360.977	46.25
361.189	17.58
361.4	19.63
361.611	52.39
361.823	107.69
362.034	42.15
362.245	25.77
362.456	87.21
362.667	74.92
362.879	38.06
363.09	103.59
363.301	68.78
363.512	48.3
363.723	44.2
363.935	74.92
364.146	31.91
364.357	27.82
364.568	103.59
364.779	21.67
364.99	107.69
365.201	66.73
365.412	79.02
365.623	60.59
365.834	111.78
366.045	17.58
366.256	66.73
366.467	29.87
366.678	101.55
366.889	1.19
367.1	60.59
367.311	66.73
367.522	70.83
367.733	44.2
367.944	103.59
368.155	31.91
368.366	62.63
368.577	130.22
368.788	29.87
368.999	19.63
369.209	54.44
369.42	68.78
369.631	130.22
369.842	-23.38
370.053	52.39
370.264	50.35
370.474	-64.34
370.685	48.3
370.896	36.01
371.107	107.69
371.317	128.17
371.528	36.01
371.739	56.49
371.95	91.31
372.16	93.35
372.371	-21.33
372.582	95.4
372.792	89.26
373.003	132.26
373.214	-11.09
373.424	3.24
373.635	5.29
373.846	99.5
374.056	99.5
374.267	17.58
374.477	54.44
374.688	83.11
374.898	23.72
375.109	5.29
375.319	9.39
375.53	54.44
375.74	38.06
375.951	21.67
376.161	50.35
376.372	162.98
376.582	27.82
376.793	21.67
377.003	38.06
377.214	54.44
377.424	25.77
377.635	44.2
377.845	11.43
378.055	83.11
378.266	42.15
378.476	-21.33
378.686	31.91
378.897	70.83
379.107	107.69
379.317	58.54
379.528	-0.85
379.738	17.58
379.948	7.34
380.158	60.59
380.369	158.89
380.579	48.3
380.789	-4.95
380.999	36.01
381.21	64.68
381.42	111.78
381.63	70.83
381.84	15.53
382.05	89.26
382.261	79.02
382.471	25.77
382.681	74.92
382.891	128.17
383.101	105.64
383.311	54.44
383.521	95.4
383.731	29.87
383.941	111.78
384.151	93.35
384.361	62.63
384.571	87.21
384.781	89.26
384.991	58.54
385.201	130.22
385.411	36.01
385.621	40.11
385.831	52.39
386.041	79.02
386.251	58.54
386.461	62.63
386.671	91.31
386.881	38.06
387.091	66.73
387.301	56.49
387.511	76.97
387.72	93.35
387.93	70.83
388.14	31.91
388.35	-21.33
388.56	119.98
388.769	62.63
388.979	46.25
389.189	36.01
389.399	60.59
389.609	136.36
389.818	93.35
390.028	33.96
390.238	187.56
390.447	70.83
390.657	29.87
390.867	68.78
391.076	50.35
391.286	68.78
391.496	76.97
391.705	46.25
391.915	70.83
392.125	109.74
392.334	152.74
392.544	54.44
392.753	62.63
392.963	21.67
393.172	115.88
393.382	5.29
393.591	44.2
393.801	81.07
394.01	74.92
394.22	111.78
394.429	25.77
394.639	23.72
394.848	33.96
395.058	117.93
395.267	95.4
395.477	42.15
395.686	138.41
395.895	115.88
396.105	169.13
396.314	136.36
396.524	74.92
396.733	38.06
396.942	119.98
397.152	101.55
397.361	177.32
397.57	105.64
397.78	150.7
397.989	124.07
398.198	85.16
398.407	76.97
398.617	107.69
398.826	128.17
399.035	23.72
399.244	93.35
399.453	115.88
399.663	128.17
399.872	93.35
400.081	144.55
400.29	91.31
400.499	44.2
400.708	91.31
400.917	119.98
401.127	134.31
401.336	48.3
401.545	171.18
401.754	140.46
401.963	189.61
402.172	136.36
402.381	183.46
402.59	87.21
402.799	128.17
403.008	136.36
403.217	70.83
403.426	179.37
403.635	68.78
403.844	136.36
404.053	124.07
404.262	130.22
404.471	230.57
404.68	191.66
404.888	38.06
405.097	87.21
405.306	185.51
405.515	216.23
405.724	189.61
405.933	242.85
406.142	142.5
406.35	236.71
406.559	144.55
406.768	224.42
406.977	238.76
407.185	230.57
407.394	177.32
407.603	185.51
407.812	224.42
408.02	283.81
408.229	238.76
408.438	283.81
408.646	259.24
408.855	253.09
409.064	322.73
409.272	279.72
409.481	273.57
409.69	298.15
409.898	304.29
410.107	263.33
410.315	355.49
410.524	390.31
410.733	285.86
410.941	382.12
411.15	410.79
411.358	382.12
411.567	408.74
411.775	380.07
411.984	439.46
412.192	421.03
412.401	453.8
412.609	519.33
412.818	490.66
413.026	490.66
413.234	595.11
413.443	617.63
413.651	591.01
413.86	670.88
414.068	627.87
414.276	681.12
414.485	599.2
414.693	685.22
414.901	812.19
415.11	636.06
415.318	822.43
415.526	824.48
415.734	828.57
415.943	883.87
416.151	914.59
416.359	963.74
416.567	941.21
416.776	963.74
416.984	994.46
417.192	1103
417.4	1070.23
417.608	1123.48
417.817	1045.66
418.025	1201.3
418.233	1189.02
418.441	1221.78
418.649	1250.46
418.857	1326.23
419.065	1397.91
419.273	1449.11
419.481	1447.06
419.689	1520.79
419.897	1672.34
420.105	1682.58
420.313	1660.05
420.521	1784.98
420.729	1807.5
420.937	1856.65
421.145	1909.9
421.353	1868.94
421.561	2088.07
421.769	2131.08
421.977	2286.73
422.185	2143.37
422.393	2342.02
422.601	2540.68
422.809	2446.47
423.017	2532.48
423.224	2593.92
423.432	2741.38
423.64	2727.04
423.848	2978.94
424.056	2858.11
424.263	3153.02
424.471	3064.96
424.679	3124.35
424.887	3314.81
425.094	3535.99
425.302	3335.29
425.51	3517.56
425.718	3820.66
425.925	3804.27
426.133	3890.29
426.341	3921.01
426.548	4174.95
426.756	4346.98
426.964	4244.59
427.171	4476.01
427.379	4668.52
427.586	4740.19
427.794	4983.9
428.001	5090.4
428.209	5508.18
428.417	5149.79
428.624	5643.35
428.832	5645.4
429.039	5604.44
429.247	5659.73
429.454	6257.74
429.662	6411.34
429.869	6065.23
430.076	6532.17
430.284	6390.86
430.491	6798.4
430.699	6908.99
430.906	7005.25
431.114	6974.53
431.321	7173.18
431.528	7558.2
431.736	7820.34
431.943	8365.1
432.15	8004.66
432.358	8102.96
432.565	8696.87
432.772	8545.32
432.979	9045.02
433.187	9235.49
433.394	9282.59
433.601	9794.58
433.808	9780.25
434.016	9567.26
434.223	10200.08
434.43	10800.13
434.637	10652.68
434.844	11176.96
435.052	11598.84
435.259	11351.04
435.466	11465.72
435.673	11136
435.88	12291.06
436.087	12682.22
436.294	12549.1
436.501	12530.67
436.708	12655.59
436.915	13253.6
437.122	13593.56
437.329	13673.43
437.537	14334.93
437.743	14261.2
437.95	14332.88
438.157	15094.72
438.364	15414.21
438.571	15430.59
438.778	15676.35
438.985	17038.25
439.192	16315.31
439.399	16853.93
439.606	16554.93
439.813	17138.6
440.02	18523.02
440.227	18086.81
440.433	18113.43
440.64	18439.06
440.847	18539.41
441.054	18883.47
441.261	19913.59
441.467	19770.24
441.674	20028.28
441.881	20996.97
442.088	20775.79
442.294	20618.1
442.501	21250.92
442.708	21531.49
442.914	22557.52
443.121	23644.99
443.328	22793.04
443.534	24662.83
443.741	23733.06
443.948	23395.14
444.154	25271.08
444.361	24879.92
444.568	25131.82
444.774	25334.57
444.981	25135.92
445.187	26065.69
445.394	27110.16
445.6	26651.41
445.807	29166.32
446.013	28220.16
446.22	28439.29
446.426	29428.46
446.633	30272.22
446.839	31068.88
447.046	29780.71
447.252	31437.51
447.459	31359.69
447.665	31204.05
447.871	32551.61
448.078	34032.29
448.284	32602.81
448.491	33084.08
448.697	34462.36
448.903	34769.56
449.11	34734.74
449.316	34742.94
449.522	35007.12
449.728	35871.37
449.935	36006.53
450.141	36276.87
450.347	37055.09
450.553	35783.3
450.76	36196.99
450.966	36895.35
451.172	36944.5
451.378	37546.61
451.584	37034.61
451.791	37929.58
451.997	37585.52
452.203	38107.75
452.409	37825.13
452.615	38165.09
452.821	36612.73
453.027	36285.06
453.233	38652.51
453.44	36452.99
453.646	37163.64
453.852	37182.07
454.058	37456.5
454.264	36649.6
454.47	36967.03
454.676	36268.67
454.882	37386.86
455.088	33968.8
455.294	34955.93
455.5	35101.33
455.705	35508.88
455.911	34226.85
456.117	33303.21
456.323	32957.11
456.529	31126.22
456.735	32400.06
456.941	31687.37
457.147	31423.18
457.352	30255.84
457.558	29811.43
457.764	29717.22
457.97	29307.63
458.176	28592.89
458.381	28683
458.587	27185.93
458.793	27210.51
458.999	26039.07
459.204	27851.52
459.41	26956.56
459.616	25043.76
459.821	25117.48
460.027	25072.43
460.233	24765.23
460.438	23329.61
460.644	23620.42
460.85	22580.05
461.055	22293.33
461.261	22156.12
461.466	20581.23
461.672	19868.54
461.878	21306.21
462.083	19993.47
462.289	19499.91
462.494	19475.33
462.7	18518.93
462.905	18213.78
463.111	18865.03
463.316	18703.25
463.522	18463.63
463.727	18324.37
463.932	18586.51
464.138	18353.04
464.343	18258.84
464.549	17779.61
464.754	18543.5
464.959	18133.91
465.165	17929.11
465.37	17333.15
465.575	16845.74
465.781	17398.69
465.986	17599.39
466.191	17003.43
466.397	16815.02
466.602	15784.89
466.807	16407.47
467.012	16425.9
467.218	16323.51
467.423	16315.31
467.628	16057.27
467.833	16729
468.038	16266.16
468.244	15868.86
468.449	16518.06
468.654	15842.23
468.859	15680.44
469.064	15913.91
469.269	15168.45
469.474	15227.84
469.679	15422.4
469.885	15324.1
470.09	15276.99
470.295	15137.73
470.5	14744.52
470.705	14959.56
470.91	14480.33
471.115	14554.06
471.32	14515.15
471.525	14633.93
471.73	14259.15
471.935	14349.26
472.139	13634.52
472.344	13822.94
472.549	13810.65
472.754	13519.84
472.959	13306.85
473.164	12891.11
473.369	12848.1
473.574	13456.35
473.778	13196.26
473.983	12962.79
474.188	12876.77
474.393	12436.46
474.598	12618.73
474.802	12211.18
475.007	12280.82
475.212	12061.68
475.417	12026.87
475.621	11680.76
475.826	11777.01
476.031	11604.99
476.235	11432.96
476.44	11580.41
476.645	11205.63
476.849	11469.82
477.054	11308.03
477.259	11006.98
477.463	11332.61
477.668	10791.94
477.872	10824.71
478.077	10677.26
478.282	10322.96
478.486	10490.89
478.691	10417.16
478.895	10212.37
479.1	10341.39
479.304	10423.31
479.509	9874.45
479.713	10150.93
479.918	9913.36
480.122	9735.19
480.326	9923.6
480.531	9868.31
480.735	9796.63
480.94	9647.13
481.144	9884.69
481.348	9673.75
481.553	9741.33
481.757	9411.61
481.961	9589.78
482.166	9739.29
482.37	9604.12
482.574	9346.08
482.778	9434.14
482.983	9600.02
483.187	9505.82
483.391	9487.39
483.595	9653.27
483.8	9440.28
484.004	9487.39
484.208	9757.72
484.412	9567.26
484.616	9581.59
484.821	9636.89
485.025	9440.28
485.229	9518.11
485.433	9305.12
485.637	9634.84
485.841	9651.22
486.045	9475.1
486.249	9571.35
486.453	9563.16
486.657	9268.25
486.861	9645.08
487.065	9229.34
487.269	9591.83
487.473	9358.36
487.677	9526.3
487.881	9530.39
488.085	9561.11
488.289	9630.74
488.493	9438.23
488.697	9487.39
488.901	9526.3
489.105	9569.3
489.309	9741.33
489.512	9847.83
489.716	9712.66
489.92	9604.12
490.124	9663.51
490.328	9765.91
490.531	9720.85
490.735	9780.25
490.939	9606.17
491.143	9778.2
491.346	9569.3
491.55	9896.98
491.754	9823.25
491.958	9976.85
492.161	9845.78
492.365	9985.04
492.569	10089.49
492.772	9880.6
492.976	10073.1
493.18	10269.71
493.383	10404.88
493.587	10411.02
493.79	10544.14
493.994	10214.41
494.197	10329.1
494.401	10675.21
494.605	10486.79
494.808	10857.48
495.012	10816.52
495.215	10855.43
495.419	10845.19
495.622	10982.4
495.825	10984.45
496.029	11097.09
496.232	11492.35
496.436	11447.29
496.639	11555.83
496.843	11308.03
497.046	11832.31
497.249	11858.93
497.453	12141.55
497.656	11947
497.859	12186.61
498.063	12235.76
498.266	12413.93
498.469	12217.33
498.673	12493.8
498.876	12596.2
499.079	13011.94
499.282	12659.69
499.485	13020.13
499.689	13272.03
499.892	13372.38
500.095	13507.55
500.298	13857.75
500.501	13870.04
500.705	14195.67
500.908	14181.33
501.111	14463.95
501.314	14445.52
501.517	14527.44
501.72	14713.8
501.923	14980.04
502.126	15133.64
502.329	15305.67
502.532	15381.44
502.735	15723.45
502.938	15782.84
503.141	15848.38
503.344	16026.55
503.547	16311.22
503.75	16597.93
503.953	16704.43
504.156	16829.35
504.359	16858.03
504.562	17228.71
504.765	17548.19
504.968	17658.78
505.17	17863.58
505.373	17818.52
505.576	17953.69
505.779	18281.36
505.982	18353.04
506.185	18791.31
506.387	18840.46
506.59	18998.15
506.793	19370.88
506.996	19442.56
507.198	19991.42
507.401	19596.16
507.604	19891.07
507.807	20552.56
508.009	20659.06
508.212	20697.97
508.415	21142.38
508.617	21271.4
508.82	21457.76
509.022	21271.4
509.225	21850.97
509.428	22086.49
509.63	22293.33
509.833	22346.58
510.035	22664.02
510.238	22567.76
510.44	23053.13
510.643	23323.46
510.845	23427.91
511.048	23393.09
511.25	23960.38
511.453	23833.41
511.655	24750.9
511.858	24763.18
512.06	24857.39
512.262	25152.3
512.465	25117.48
512.667	25434.92
512.87	25793.31
513.072	25975.58
513.274	26477.33
513.477	26438.42
513.679	26663.7
513.881	27474.7
514.084	27558.66
514.286	27267.85
514.488	27607.81
514.69	28363.51
514.893	28490.49
515.095	28533.5
515.297	28918.51
515.499	28842.74
515.701	29500.14
515.904	29842.15
516.106	29909.73
516.308	30268.12
516.51	30495.45
516.712	30501.59
516.914	31060.69
517.116	31625.93
517.318	31824.58
517.52	31845.06
517.722	31527.63
517.925	32291.52
518.127	32979.64
518.329	33061.55
518.531	32758.45
518.733	33659.56
518.935	34038.44
519.136	33946.28
519.338	34230.94
519.54	34790.04
519.742	34839.19
519.944	35207.83
520.146	35725.96
520.348	35736.2
520.55	35955.33
520.752	36002.44
520.954	36426.37
521.155	36498.05
521.357	37298.8
521.559	37571.18
521.761	38038.12
521.963	37943.91
522.164	37991.01
522.366	38052.45
522.568	38943.32
522.77	39070.29
522.971	39438.93
523.173	39346.77
523.375	39789.13
523.576	39770.7
523.778	39981.64
523.98	40546.88
524.181	40579.65
524.383	40411.71
524.584	40985.15
524.786	41378.36
524.988	41134.65
525.189	41835.05
525.391	42177.06
525.592	41845.29
525.794	42615.33
525.995	42441.25
526.197	42748.45
526.398	42525.22
526.6	43106.84
526.801	43297.3
527.003	43596.31
527.204	43706.9
527.406	43862.54
527.607	43829.77
527.808	44177.93
528.01	43645.46
528.211	43950.6
528.412	44857.85
528.614	44538.37
528.815	44583.43
529.016	45203.96
529.218	44841.47
529.419	45152.76
529.62	45543.92
529.822	45212.15
530.023	45187.58
530.224	45505.01
530.425	45623.79
530.626	45570.55
530.828	45339.13
531.029	46367.21
531.23	45808.11
531.431	45744.62
531.632	45849.07
531.833	46170.6
532.035	46201.32
532.236	46377.45
532.437	46524.9
532.638	46088.68
532.839	46229.99
533.04	47028.7
533.241	46287.34
533.442	46758.37
533.643	46608.87
533.844	46590.44
534.045	46930.4
534.246	46225.9
534.447	46748.13
534.648	46662.11
534.849	46881.25
535.05	46619.11
535.251	46881.25
535.451	46811.62
535.652	47133.15
535.853	46754.27
536.054	47024.61
536.255	47100.38
536.456	46402.02
536.657	47544.79
536.857	47014.37
537.058	46856.67
537.259	47481.3
537.46	46995.93
537.66	46799.33
537.861	46815.71
538.062	46655.97
538.263	47450.58
538.463	46840.29
538.664	47188.44
538.865	47395.29
539.065	47692.24
539.266	47008.22
539.466	47532.5
539.667	46946.78
539.868	47780.31
540.068	47333.85
540.269	47280.6
540.469	47239.64
540.67	46885.34
540.87	47333.85
541.071	46950.88
541.271	47667.67
541.472	47380.95
541.672	46578.15
541.873	47192.54
542.073	46127.59
542.274	47575.51
542.474	47036.89
542.675	46973.41
542.875	47507.93
543.075	46678.5
543.276	46389.73
543.476	47471.06
543.676	46942.69
543.877	47294.94
544.077	46954.97
544.277	46672.35
544.478	46727.65
544.678	47059.42
544.878	47032.8
545.078	46639.59
545.279	46533.09
545.479	46828
545.679	46977.5
545.879	46713.31
546.079	46746.08
546.28	46567.91
546.48	46649.83
546.68	46995.93
546.88	46772.7
547.08	47155.68
547.28	46873.06
547.48	47094.24
547.68	46938.59
547.88	46526.95
548.081	46529
548.281	46735.84
548.481	46819.81
548.681	47096.28
548.881	46918.11
549.081	47040.99
549.28	46449.13
549.48	46854.62
549.68	46432.74
549.88	47288.79
550.08	46995.93
550.28	46979.55
550.48	46555.62
550.68	46938.59
550.88	46064.11
551.08	46531.04
551.279	46842.34
551.479	46191.08
551.679	46438.89
551.879	46830.05
552.079	46690.79
552.278	46547.43
552.478	46737.89
552.678	46481.89
552.878	46549.48
553.077	46512.61
553.277	46238.19
553.477	46930.4
553.676	46129.64
553.876	46283.24
554.076	46234.09
554.275	46275.05
554.475	45900.27
554.674	46524.9
554.874	46324.2
555.074	46561.76
555.273	46217.71
555.473	46215.66
555.672	45656.56
555.872	46041.58
556.071	46004.72
556.271	46311.91
556.47	46311.91
556.67	45861.36
556.869	45992.43
557.068	46221.8
557.268	45693.43
557.467	45636.08
557.667	45439.48
557.866	45627.89
558.065	45144.57
558.265	45296.12
558.464	44964.35
558.663	45801.97
558.863	45214.2
559.062	46008.81
559.261	45292.02
559.461	45666.8
559.66	44831.23
559.859	45181.43
560.058	44753.41
560.258	45087.23
560.457	44261.9
560.656	44907.01
560.855	44448.26
561.054	45007.36
561.253	44114.44
561.453	44743.17
561.652	43909.64
561.851	44788.22
562.05	44280.33
562.249	43823.63
562.448	44648.96
562.647	44173.83
562.846	43938.32
563.045	43754
563.244	43573.78
563.443	44298.76
563.642	42940.96
563.841	43604.5
564.04	43280.92
564.239	43821.58
564.438	43022.87
564.637	43352.6
564.836	43129.37
565.035	42689.06
565.234	43014.68
565.432	42433.06
565.631	43031.07
565.83	43090.46
566.029	42238.5
566.228	42801.69
566.427	42539.55
566.625	42191.4
566.824	42146.34
567.023	42375.72
567.222	41912.88
567.42	42265.13
567.619	41767.47
567.818	41886.25
568.016	41753.13
568.215	41949.74
568.414	41271.86
568.612	41861.68
568.811	41255.48
569.01	41314.87
569.208	41060.92
569.407	41165.37
569.605	40700.48
569.804	41062.97
570.002	40221.25
570.201	40845.88
570.4	40622.65
570.598	40264.26
570.797	40354.37
570.995	40278.6
571.193	39811.66
571.392	40419.91
571.59	39762.51
571.789	39608.91
571.987	39705.16
572.186	39608.91
572.384	39739.98
572.582	39844.43
572.781	39404.11
572.979	38867.55
573.177	38763.1
573.376	39279.19
573.574	38748.76
573.772	39311.95
573.971	38797.91
574.169	38791.77
574.367	38107.75
574.565	38595.17
574.763	38081.13
574.962	38437.47
575.16	37710.44
575.358	38099.56
575.556	37898.86
575.754	38199.91
575.952	37436.02
576.151	38171.24
576.349	37395.06
576.547	36915.83
576.745	37501.55
576.943	37468.78
577.141	37194.36
577.339	37501.55
577.537	37061.24
577.735	36964.98
577.933	36543.1
578.131	37184.12
578.329	36870.78
578.527	36395.65
578.725	36549.24
578.923	36375.17
579.121	36528.77
579.319	36117.12
579.516	36637.31
579.714	36110.98
579.912	35932.81
580.11	35762.82
580.308	35834.5
580.506	35818.12
580.704	35357.33
580.901	35601.04
581.099	35400.33
581.297	35185.3
581.495	34847.38
581.692	35506.83
581.89	34695.83
582.088	34949.78
582.285	34798.23
582.483	35218.07
582.681	34687.64
582.878	34843.29
583.076	34697.88
583.274	34656.92
583.471	34017.96
583.669	34368.16
583.866	34077.35
584.064	34273.95
584.262	33886.89
584.459	34110.11
584.657	33608.36
584.854	34075.3
585.052	33061.55
585.249	33749.67
585.447	33378.99
585.644	33307.31
585.841	33331.89
586.039	33686.18
586.236	33057.46
586.434	32981.68
586.631	32797.37
586.828	32709.3
587.026	32445.12
587.223	32570.04
587.42	32426.68
587.618	32862.9
587.815	32070.34
588.012	31974.08
588.21	32271.04
588.407	31988.42
588.604	31840.96
588.801	31601.35
588.999	31648.46
589.196	31621.83
589.393	31748.81
589.59	31253.2
589.787	31376.08
589.984	31261.39
590.182	30907.09
590.379	31142.61
590.576	31036.11
590.773	31236.81
590.97	30726.87
591.167	30614.23
591.364	30382.81
591.561	30493.4
591.758	30419.67
591.955	30354.14
592.152	30362.33
592.349	30290.65
592.546	29993.7
592.743	29778.66
592.94	29739.75
593.137	30108.38
593.334	30210.78
593.531	29590.25
593.727	29649.64
593.924	29471.46
594.121	29192.94
594.318	29596.39
594.515	29070.06
594.712	29610.73
594.908	29055.73
595.105	29151.98
595.302	28838.64
595.499	28973.81
595.696	28943.09
595.892	28496.63
596.089	28961.52
596.286	28723.96
596.482	28195.58
596.679	28039.93
596.876	28490.49
597.072	28525.3
597.269	28056.32
597.466	27656.96
597.662	27538.18
597.859	28031.74
598.055	27822.85
598.252	27697.92
598.448	27646.72
598.645	27828.99
598.841	27507.46
599.038	27503.37
599.234	27294.47
599.431	27370.25
599.627	26905.36
599.824	27429.64
600.02	26972.94
600.217	27241.23
600.413	26833.68
600.609	26587.92
600.806	26223.39
601.002	26921.74
601.198	26397.46
601.395	26161.95
601.591	26032.93
601.787	26356.5
601.984	26151.71
602.18	26393.37
602.376	26010.4
602.572	26065.69
602.769	25879.33
602.965	25461.54
603.161	25815.84
603.357	25641.76
603.553	25568.04
603.75	25635.62
603.946	25344.81
604.142	25353
604.338	24818.48
604.534	24841.01
604.73	25035.56
604.926	25051.95
605.122	25133.87
605.318	24648.5
605.514	24697.65
605.71	24372.02
605.906	24709.94
606.102	24548.15
606.298	24550.2
606.494	24439.61
606.69	24331.06
606.886	24310.58
607.082	23692.1
607.278	24236.86
607.474	23888.7
607.67	24050.49
607.866	23532.36
608.062	24068.92
608.257	23688
608.453	23706.43
608.649	23616.32
608.845	23518.02
609.041	23495.49
609.236	23440.2
609.432	23444.29
609.628	23337.8
609.824	23329.61
610.019	23225.16
610.215	23282.5
610.411	23333.7
610.606	23079.75
610.802	23450.44
610.998	22960.97
611.193	23110.47
611.389	22860.62
611.584	22713.17
611.78	22909.77
611.976	22838.09
612.171	22721.36
612.367	22608.72
612.562	22719.31
612.758	22498.13
612.953	22313.81
613.149	22580.05
613.344	22317.91
613.539	22580.05
613.735	22643.54
613.93	22446.93
614.126	22066.01
614.321	22270.81
614.517	22485.84
614.712	22190.94
614.907	21746.53
615.103	22113.11
615.298	21930.84
615.493	22084.44
615.688	21990.24
615.884	22360.92
616.079	21818.21
616.274	21805.92
616.47	21484.39
616.665	21617.5
616.86	21549.92
617.055	21574.5
617.25	21603.17
617.445	21478.24
617.641	21103.46
617.836	21377.89
618.031	21146.47
618.226	21427.04
618.421	21136.23
618.616	21408.61
618.811	20958.06
619.006	21164.9
619.201	20394.87
619.396	21039.98
619.591	20358
619.786	20618.1
619.981	20298.61
620.176	20712.3
620.371	20308.85
620.566	20302.71
620.761	20097.91
620.956	20198.26
621.151	19852.16
621.346	20278.13
621.541	19784.57
621.735	19696.51
621.93	19448.71
622.125	19860.35
622.32	19528.58
622.515	19360.64
622.709	19131.27
622.904	19479.43
623.099	19233.67
623.294	19010.44
623.488	18506.64
623.683	18932.62
623.878	18617.23
624.072	18654.09
624.267	18643.85
624.462	18500.5
624.656	18201.49
624.851	18523.02
625.046	18135.96
625.24	18037.66
625.435	17839
625.629	17890.2
625.824	17841.05
626.018	17683.36
626.213	17152.93
626.407	17421.22
626.602	17277.86
626.796	17443.74
626.991	17296.29
627.185	17150.88
627.38	16948.14
627.574	16974.76
627.768	16757.67
627.963	16636.84
628.157	16489.39
628.352	16696.24
628.546	16481.2
628.74	16591.79
628.935	16147.38
629.129	16534.45
629.323	16094.13
629.517	16094.13
629.712	16063.41
629.906	16038.84
630.1	15707.07
630.294	15659.96
630.489	15567.81
630.683	15598.52
630.877	15250.37
631.071	15076.29
631.265	15346.62
631.459	15219.65
631.653	15207.36
631.848	14713.8
632.042	14687.18
632.236	15070.15
632.43	14492.62
632.624	14746.57
632.818	14420.94
633.012	14584.78
633.206	14228.43
633.4	14443.47
633.594	14160.85
633.788	14347.22
633.982	14216.15
634.176	14083.03
634.369	13718.49
634.563	14130.13
634.757	13949.91
634.951	13716.44
635.145	13921.24
635.339	13865.94
635.533	13495.26
635.726	13431.77
635.92	13429.73
636.114	13300.7
636.308	13151.2
636.501	13038.56
636.695	13095.91
636.889	13093.86
637.083	13206.5
637.276	13177.83
637.47	12729.32
637.664	13032.42
637.857	12694.5
638.051	12545
638.244	12411.89
638.438	12532.72
638.632	12514.28
638.825	12620.78
639.019	12202.99
639.212	12153.84
639.406	12254.19
639.599	11990
639.793	11979.76
639.986	12020.72
640.18	11686.9
640.373	11826.17
640.567	11463.68
640.76	11772.92
640.954	11455.48
641.147	11486.2
641.34	11326.46
641.534	11547.64
641.727	11410.43
641.92	11609.08
642.114	11205.63
642.307	11205.63
642.5	11248.64
642.694	10890.24
642.887	10996.74
643.08	11013.12
643.273	10933.25
643.467	10927.11
643.66	10961.92
643.853	10775.56
644.046	10460.17
644.239	10589.19
644.432	10497.03
644.626	10234.89
644.819	10333.2
645.012	10208.27
645.205	10589.19
645.398	10300.43
645.591	10150.93
645.784	10421.26
645.977	10128.4
646.17	10097.68
646.363	10028.05
646.556	9724.95
646.749	10032.15
646.942	10048.53
647.135	9810.96
647.328	9927.7
647.521	9612.31
647.714	9540.63
647.907	9620.5
648.099	9573.4
648.292	9634.84
648.485	9597.98
648.678	9329.69
648.871	9425.95
649.064	9135.14
649.256	9331.74
649.449	9055.26
649.642	9088.03
649.835	8922.15
650.027	8950.82
650.22	8924.19
650.413	8817.7
650.605	8932.39
650.798	8907.81
650.991	8717.35
651.183	8862.76
651.376	8746.02
651.568	8465.45
651.761	8780.84
651.954	8494.12
652.146	8670.25
652.339	8698.92
652.531	8565.8
652.724	8440.87
652.916	8412.2
653.109	8428.59
653.301	8090.67
653.494	8430.63
653.686	8002.61
653.879	8387.63
654.071	8080.43
654.263	7984.18
654.456	8059.95
654.648	8102.96
654.84	7892.02
655.033	7810.1
655.225	7812.15
655.417	7887.92
655.61	7836.72
655.802	7826.48
655.994	7693.37
656.186	7773.24
656.379	7654.45
656.571	7590.97
656.763	7429.18
656.955	7189.56
657.148	7435.32
657.34	7443.51
657.532	7326.78
657.724	7345.21
657.916	7423.03
658.108	7218.24
658.3	7193.66
658.492	7070.78
658.684	7175.23
658.876	7083.07
659.068	7187.52
659.26	7121.98
659.452	7103.55
659.644	7031.87
659.836	6966.34
660.028	7038.02
660.22	6827.07
660.412	6837.31
660.604	6784.07
660.796	6868.03
660.988	6763.59
661.18	6700.1
661.372	6646.85
661.563	6517.83
661.755	6607.94
661.947	6630.47
662.139	6560.84
662.331	6415.43
662.522	6448.2
662.714	6566.98
662.906	6372.43
663.097	6368.33
663.289	6433.86
663.481	6235.21
663.673	6353.99
663.864	6169.68
664.056	6175.82
664.247	6263.88
664.439	6005.84
664.631	6294.6
664.822	6222.92
665.014	6022.22
665.205	5999.7
665.397	6065.23
665.588	5958.74
665.78	5956.69
665.971	5983.31
666.163	5940.3
666.354	5983.31
666.546	5942.35
666.737	5774.42
666.929	5833.81
667.12	5645.4
667.311	5635.16
667.503	5876.82
667.694	5702.74
667.885	5575.77
668.077	5579.86
668.268	5567.57
668.459	5643.35
668.651	5637.2
668.842	5676.12
669.033	5379.16
669.224	5411.93
669.416	5413.98
669.607	5491.8
669.798	5467.22
669.989	5489.75
670.18	5303.39
670.371	5407.83
670.563	5246.04
670.754	5362.78
670.945	5293.15
671.136	5317.72
671.327	5174.36
671.518	5207.13
671.709	5235.8
671.9	5284.95
672.091	5168.22
672.282	5164.12
672.473	5076.06
672.664	5176.41
672.855	4981.85
673.046	5022.81
673.237	5221.47
673.428	5057.63
673.619	5067.87
673.809	4983.9
674	5022.81
674.191	4998.24
674.382	4936.8
674.573	5022.81
674.764	4971.61
674.954	5084.25
675.145	4856.93
675.336	4963.42
675.527	4971.61
675.717	4926.56
675.908	4836.45
676.099	5012.57
676.289	4822.11
676.48	4811.87
676.671	4697.19
676.861	4881.5
677.052	4740.19
677.243	4770.91
677.433	4670.56
677.624	4803.68
677.814	4799.59
678.005	4863.07
678.195	4793.44
678.386	4635.75
678.576	4793.44
678.767	4717.67
678.957	4529.25
679.148	4799.59
679.338	4625.51
679.529	4686.95
679.719	4502.63
679.909	4799.59
680.1	4650.08
680.29	4623.46
680.481	4703.33
680.671	4578.4
680.861	4641.89
681.052	4721.76
681.242	4574.31
681.432	4553.83
681.622	4400.23
681.813	4715.62
682.003	4504.68
682.193	4607.08
682.383	4578.4
682.573	4494.44
682.764	4459.62
682.954	4547.69
683.144	4531.3
683.334	4471.91
683.524	4650.08
683.714	4566.12
683.904	4549.73
684.094	4451.43
684.284	4512.87
684.474	4379.75
684.664	4549.73
684.854	4510.82
685.044	4267.11
685.234	4232.3
685.424	4424.81
685.614	4373.61
685.804	4369.51
685.994	4426.86
686.184	4451.43
686.374	4244.59
686.564	4299.88
686.753	4406.38
686.943	4338.79
687.133	4134
687.323	4263.02
687.513	4150.38
687.702	4181.1
687.892	4148.33
688.082	4248.68
688.272	4224.11
688.461	4142.19
688.651	4306.02
688.841	4123.76
689.03	4209.77
689.22	4201.58
689.41	4072.56
689.599	3980.4
689.789	4109.42
689.979	3912.81
690.168	4017.26
690.358	3892.34
690.547	3959.92
690.737	3918.96
690.926	4058.22
691.116	3886.19
691.305	3859.57
691.495	3921.01
691.684	3957.87
691.874	3796.08
692.063	3863.66
692.252	3904.62
692.442	3865.71
692.631	3855.47
692.82	3748.98
693.01	3759.22
693.199	3918.96
693.388	3701.87
693.578	3789.94
693.767	3697.78
693.956	3753.07
694.146	3662.96
694.335	3642.48
694.524	3585.14
694.713	3716.21
694.902	3579
695.092	3646.58
695.281	3765.36
695.47	3714.16
695.659	3726.45
695.848	3658.87
696.037	3587.19
696.226	3660.91
696.415	3570.8
696.604	3480.69
696.793	3527.8
696.982	3591.28
697.171	3665.01
697.36	3742.83
697.549	3662.96
697.738	3511.41
697.927	3599.48
698.116	3511.41
698.305	3529.84
698.494	3556.47
698.683	3503.22
698.872	3593.33
699.061	3644.53
699.25	3495.03
699.438	3470.45
699.627	3505.27
699.816	3566.71
700.005	3476.6
700.193	3632.24
700.382	3587.19
700.571	3441.78
700.76	3486.84
700.948	3472.5
701.137	3501.17
701.326	3507.32
701.514	3478.65
701.703	3603.57
701.892	3497.08
702.08	3521.65
702.269	3603.57
702.457	3429.49
702.646	3437.69
702.834	3452.02
703.023	3413.11
703.212	3439.73
703.4	3454.07
703.589	3538.04
703.777	3478.65
703.965	3400.82
704.154	3560.56
704.342	3443.83
704.531	3527.8
704.719	3499.13
704.907	3501.17
705.096	3501.17
705.284	3478.65
705.472	3415.16
705.661	3392.63
705.849	3411.06
706.037	3521.65
706.226	3439.73
706.414	3533.94
706.602	3411.06
706.79	3392.63
706.979	3372.15
707.167	3437.69
707.355	3329.14
707.543	3452.02
707.731	3466.36
707.919	3462.26
708.107	3396.73
708.296	3413.11
708.484	3427.45
708.672	3462.26
708.86	3482.74
709.048	3519.6
709.236	3495.03
709.424	3554.42
709.612	3413.11
709.8	3366.01
709.988	3456.12
710.176	3433.59
710.364	3413.11
710.551	3531.89
710.739	3437.69
710.927	3470.45
711.115	3548.28
711.303	3454.07
711.491	3458.17
711.679	3384.44
711.866	3413.11
712.054	3492.98
712.242	3404.92
712.43	3558.52
712.617	3542.13
712.805	3384.44
712.993	3402.87
713.181	3441.78
713.368	3394.68
713.556	3519.6
713.744	3335.29
713.931	3484.79
714.119	3454.07
714.306	3355.77
714.494	3390.58
714.682	3409.01
714.869	3400.82
715.057	3458.17
715.244	3302.52
715.432	3533.94
715.619	3363.96
715.807	3482.74
715.994	3456.12
716.182	3427.45
716.369	3306.62
716.556	3339.38
716.744	3433.59
716.931	3454.07
717.119	3357.82
717.306	3519.6
717.493	3441.78
717.681	3435.64
717.868	3349.62
718.055	3474.55
718.242	3482.74
718.43	3392.63
718.617	3433.59
718.804	3435.64
718.991	3374.2
719.179	3368.06
719.366	3447.93
719.553	3355.77
719.74	3368.06
719.927	3435.64
720.114	3378.3
720.301	3402.87
720.488	3286.14
720.676	3409.01
720.863	3318.9
721.05	3466.36
721.237	3366.01
721.424	3460.21
721.611	3269.75
721.798	3304.57
721.985	3296.38
722.172	3347.58
722.358	3273.85
722.545	3470.45
722.732	3236.99
722.919	3335.29
723.106	3294.33
723.293	3306.62
723.48	3435.64
723.667	3294.33
723.853	3257.46
724.04	3349.62
724.227	3396.73
724.414	3259.51
724.6	3306.62
724.787	3249.27
724.974	3351.67
725.161	3398.77
725.347	3284.09
725.534	3415.16
725.72	3302.52
725.907	3361.91
726.094	3394.68
726.28	3310.71
726.467	3200.12
726.653	3335.29
726.84	3177.59
727.027	3308.66
727.213	3378.3
727.4	3298.42
727.586	3181.69
727.773	3179.64
727.959	3323
728.145	3181.69
728.332	3216.51
728.518	3279.99
728.705	3159.16
728.891	3329.14
729.077	3101.82
729.264	3138.68
729.45	3138.68
729.636	3253.37
729.823	3183.74
730.009	3263.61
730.195	3275.9
730.382	3198.07
730.568	3150.97
730.754	3273.85
730.94	3038.33
731.126	3234.94
731.313	3153.02
731.499	3163.26
731.685	3212.41
731.871	3185.79
732.057	3155.07
732.243	3255.42
732.429	3124.35
732.615	3085.44
732.801	3253.37
732.987	3216.51
733.173	3161.21
733.359	3200.12
733.545	2925.69
733.731	3150.97
733.917	3138.68
734.103	3009.66
734.289	3159.16
734.475	3060.86
734.661	3175.55
734.847	3001.47
735.033	2958.46
735.219	3036.28
735.404	2931.84
735.59	3017.85
735.776	3091.58
735.962	3064.96
736.148	3024
736.333	3024
736.519	2999.42
736.705	2954.37
736.89	3024
737.076	2991.23
737.262	2956.41
737.447	2954.37
737.633	2972.8
737.819	3040.38
738.004	2870.4
738.19	2925.69
738.375	2985.09
738.561	3032.19
738.747	3015.8
738.932	2880.64
739.118	3009.66
739.303	2921.6
739.489	2952.32
739.674	2866.3
739.859	2907.26
740.045	2798.72
740.23	2819.2
740.416	2741.38
740.601	2923.65
740.786	2856.06
740.972	2888.83
741.157	2819.2
741.342	2735.23
741.528	2854.02
741.713	2749.57
741.898	2784.38
742.084	2868.35
742.269	2677.89
742.454	2733.18
742.639	2735.23
742.824	2700.42
743.01	2714.75
743.195	2833.54
743.38	2710.66
743.565	2731.14
743.75	2727.04
743.935	2628.74
744.12	2675.84
744.305	2548.87
744.49	2581.64
744.675	2577.54
744.86	2595.97
745.045	2516.1
745.23	2610.31
745.415	2526.34
745.6	2583.68
745.785	2493.57
745.97	2565.25
746.155	2659.46
746.34	2526.34
746.525	2524.29
746.71	2514.05
746.895	2409.61
747.079	2479.24
747.264	2364.55
747.449	2313.35
747.634	2440.33
747.819	2364.55
748.003	2401.41
748.188	2280.58
748.373	2272.39
748.557	2192.52
748.742	2303.11
748.927	2323.59
749.111	2387.08
749.296	2348.17
749.481	2313.35
749.665	2223.24
749.85	2151.56
750.034	2270.34
750.219	2135.18
750.404	2131.08
750.588	2051.21
750.773	2141.32
750.957	2126.99
751.141	2114.7
751.326	2030.73
751.51	2098.31
751.695	2010.25
751.879	2102.41
752.064	2090.12
752.248	1969.29
752.432	2030.73
752.617	1903.76
752.801	1979.53
752.985	2012.3
753.17	1827.98
753.354	1924.24
753.538	1963.15
753.722	1883.28
753.907	1883.28
754.091	1934.48
754.275	1815.69
754.459	1850.51
754.643	1735.82
754.828	1887.37
755.012	1746.06
755.196	1782.93
755.38	1754.26
755.564	1670.29
755.748	1784.98
755.932	1680.53
756.116	1795.22
756.3	1608.85
756.484	1664.15
756.668	1709.2
756.852	1664.15
757.036	1641.62
757.22	1555.6
757.404	1635.47
757.588	1549.46
757.772	1614.99
757.956	1604.75
758.14	1512.6
758.323	1557.65
758.507	1561.75
758.691	1672.34
758.875	1569.94
759.059	1481.88
759.242	1473.68
759.426	1418.39
759.61	1563.79
759.794	1445.01
759.977	1606.8
760.161	1537.17
760.345	1438.87
760.528	1457.3
760.712	1481.88
760.895	1461.4
761.079	1483.92
761.263	1504.4
761.446	1410.2
761.63	1397.91
761.813	1404.05
761.997	1430.68
762.18	1348.76
762.364	1332.37
762.547	1227.93
762.731	1389.72
762.914	1348.76
763.098	1395.86
763.281	1367.19
763.464	1332.37
763.648	1342.61
763.831	1315.99
764.015	1285.27
764.198	1365.14
764.381	1336.47
764.564	1303.7
764.748	1283.22
764.931	1340.57
765.114	1305.75
765.297	1332.37
765.481	1189.02
765.664	1209.5
765.847	1162.39
766.03	1258.65
766.213	1275.03
766.397	1283.22
766.58	1215.64
766.763	1287.32
766.946	1170.58
767.129	1176.73
767.312	1143.96
767.495	1180.82
767.678	1250.46
767.861	1191.06
768.044	1150.11
768.227	1184.92
768.41	1156.25
768.593	1137.82
768.776	1184.92
768.959	1176.73
769.142	1123.48
769.324	1195.16
769.507	1068.19
769.69	1025.18
769.873	1103
770.056	1082.52
770.239	1049.75
770.421	1074.33
770.604	1092.76
770.787	1123.48
770.97	1014.94
771.152	1037.47
771.335	1133.72
771.518	1045.66
771.7	1070.23
771.883	1244.31
772.066	1059.99
772.248	1117.34
772.431	1037.47
772.613	1051.8
772.796	1084.57
772.978	1037.47
773.161	1053.85
773.343	959.64
773.526	951.45
773.708	935.07
773.891	937.12
774.073	955.55
774.256	949.4
774.438	1014.94
774.621	945.31
774.803	949.4
774.985	947.36
775.168	894.11
775.35	881.82
775.532	980.12
775.715	902.3
775.897	976.03
776.079	836.77
776.261	906.4
776.444	930.97
776.626	896.16
776.808	904.35
776.99	875.68
777.173	855.2
777.355	857.25
777.537	933.02
777.719	851.1
777.901	769.18
778.083	822.43
778.265	763.04
778.447	756.9
778.629	779.42
778.811	758.94
778.993	795.81
779.175	851.1
779.357	857.25
779.539	814.24
779.721	812.19
779.903	781.47
780.085	625.83
780.267	779.42
780.449	711.84
780.631	705.7
780.812	795.81
780.994	746.66
781.176	627.87
781.358	777.37
781.54	742.56
781.721	636.06
781.903	664.74
782.085	652.45
782.267	707.74
782.448	646.3
782.63	674.98
782.812	648.35
782.993	668.83
783.175	709.79
783.357	717.98
783.538	619.68
783.72	566.43
783.901	605.35
784.083	521.38
784.264	611.49
784.446	529.57
784.627	636.06
784.809	648.35
784.99	640.16
785.172	578.72
785.353	539.81
785.535	574.63
785.716	519.33
785.897	562.34
786.079	548
786.26	550.05
786.441	562.34
786.623	504.99
786.804	550.05
786.985	545.95
787.167	574.63
787.348	519.33
787.529	509.09
787.71	523.43
787.891	435.36
788.073	523.43
788.254	480.42
788.435	535.71
788.616	537.76
788.797	545.95
788.978	466.08
789.159	527.52
789.34	476.32
789.522	541.86
789.703	412.84
789.884	558.24
790.065	468.13
790.246	441.51
790.427	447.65
790.607	418.98
790.788	365.73
790.969	509.09
791.15	382.12
791.331	468.13
791.512	410.79
791.693	494.76
791.874	437.41
792.054	416.93
792.235	492.71
792.416	386.21
792.597	390.31
792.778	384.16
792.958	396.45
793.139	492.71
793.32	418.98
793.5	396.45
793.681	365.73
793.862	431.27
794.042	404.64
794.223	308.39
794.404	345.25
794.584	265.38
794.765	328.87
794.945	361.64
795.126	386.21
795.306	361.64
795.487	339.11
795.667	365.73
795.848	351.4
796.028	343.21
796.209	353.45
796.389	398.5
796.57	384.16
796.75	349.35
796.93	343.21
797.111	322.73
797.291	349.35
797.471	349.35
797.652	316.58
797.832	271.53
798.012	320.68
798.192	371.88
798.373	341.16
798.553	279.72
798.733	298.15
798.913	349.35
799.093	353.45
799.274	302.25
799.454	271.53
799.634	378.02
799.814	326.82
799.994	345.25
800.174	320.68
800.354	255.14
800.534	330.92
800.714	332.97
800.894	359.59
801.074	277.67
801.254	314.53
801.434	357.54
801.614	226.47
801.794	244.9
801.974	871.58
802.154	279.72
802.334	349.35
802.514	265.38
802.693	232.62
802.873	214.18
803.053	357.54
803.233	316.58
803.413	214.18
803.592	232.62
803.772	302.25
803.952	298.15
804.131	265.38
804.311	287.91
804.491	287.91
804.67	251.05
804.85	275.62
805.03	283.81
805.209	228.52
805.389	259.24
805.568	292.01
805.748	308.39
805.928	177.32
806.107	279.72
806.287	218.28
806.466	193.7
806.646	253.09
806.825	234.66
807.004	214.18
807.184	183.46
807.363	300.2
807.543	234.66
807.722	314.53
807.901	337.06
808.081	279.72
808.26	187.56
808.439	218.28
808.619	187.56
808.798	173.22
808.977	255.14
809.156	271.53
809.336	154.79
809.515	271.53
809.694	275.62
809.873	255.14
810.052	294.05
810.231	232.62
810.411	251.05
810.59	177.32
810.769	214.18
810.948	251.05
811.127	177.32
811.306	185.51
811.485	201.9
811.664	257.19
811.843	230.57
812.022	189.61
812.201	220.33
812.38	169.13
812.559	226.47
812.737	224.42
812.916	189.61
813.095	185.51
813.274	238.76
813.453	242.85
813.632	238.76
813.811	173.22
813.989	185.51
814.168	195.75
814.347	144.55
814.526	199.85
814.704	267.43
814.883	183.46
815.062	158.89
815.24	269.48
815.419	154.79
815.598	203.94
815.776	138.41
815.955	195.75
816.133	134.31
816.312	152.74
816.49	193.7
816.669	62.63
816.847	197.8
817.026	160.94
817.204	169.13
817.383	220.33
817.561	160.94
817.74	185.51
817.918	232.62
818.097	140.46
818.275	99.5
818.453	136.36
818.632	238.76
818.81	187.56
818.988	124.07
819.167	138.41
819.345	152.74
819.523	140.46
819.701	124.07
819.879	195.75
820.058	175.27
820.236	173.22
820.414	111.78
820.592	167.08
820.77	122.02
820.948	95.4
821.127	119.98
821.305	152.74
821.483	38.06
821.661	165.03
821.839	136.36
822.017	74.92
822.195	152.74
822.373	162.98
822.551	128.17
822.729	181.42
822.907	124.07
823.085	105.64
823.262	165.03
823.44	126.12
823.618	154.79
823.796	107.69
823.974	119.98
824.152	130.22
824.329	91.31
824.507	140.46
824.685	101.55
824.863	83.11
825.04	83.11
825.218	134.31
825.396	185.51
825.574	93.35
825.751	142.5
825.929	226.47
826.107	72.87
826.284	72.87
826.462	85.16
826.639	93.35
826.817	109.74
826.994	107.69
827.172	54.44
827.349	115.88
827.527	97.45
827.704	173.22
827.882	44.2
828.059	144.55
828.237	91.31
828.414	50.35
828.591	72.87
828.769	138.41
828.946	103.59
829.124	150.7
829.301	177.32
829.478	144.55
829.655	136.36
829.833	109.74
830.01	38.06
830.187	70.83
830.364	29.87
830.542	62.63
830.719	156.84
830.896	187.56
831.073	142.5
831.25	150.7
831.427	128.17
831.604	119.98
831.782	72.87
831.959	93.35
832.136	144.55
832.313	54.44
832.49	152.74
832.667	74.92
832.844	66.73
833.021	128.17
833.198	66.73
833.374	144.55
833.551	130.22
833.728	33.96
833.905	160.94
834.082	66.73
834.259	119.98
834.436	191.66
834.612	21.67
834.789	111.78
834.966	126.12
835.143	48.3
835.319	62.63
835.496	117.93
835.673	109.74
835.85	58.54
836.026	185.51
836.203	56.49
836.38	105.64
836.556	-17.24
836.733	-19.29
836.909	52.39
837.086	128.17
837.262	97.45
837.439	70.83
837.616	33.96
837.792	83.11
837.968	165.03
838.145	46.25
838.321	76.97
838.498	87.21
838.674	103.59
838.851	62.63
839.027	46.25
839.203	54.44
839.38	99.5
839.556	83.11
839.732	97.45
839.909	91.31
840.085	79.02
840.261	103.59
840.437	95.4
840.614	138.41
840.79	91.31
840.966	3.24
841.142	46.25
841.318	68.78
841.494	103.59
841.671	58.54
841.847	87.21
842.023	56.49
842.199	105.64
842.375	126.12
842.551	103.59
842.727	64.68
842.903	103.59
843.079	36.01
843.255	193.7
843.431	103.59
843.607	62.63
843.783	50.35
843.959	50.35
844.134	5.29
844.31	91.31
844.486	107.69
844.662	93.35
844.838	95.4
845.013	52.39
845.189	66.73
845.365	93.35
845.541	9.39
845.716	15.53
845.892	76.97
846.068	58.54
846.244	9.39
846.419	89.26
846.595	23.72
846.77	3.24
846.946	128.17
847.122	85.16
847.297	19.63
847.473	91.31
847.648	46.25
847.824	31.91
847.999	46.25
848.175	70.83
848.35	56.49
848.526	29.87
848.701	60.59
848.876	40.11
849.052	89.26
849.227	29.87
849.403	3.24
849.578	56.49
849.753	44.2
849.929	111.78
850.104	48.3
850.279	56.49
850.454	23.72
850.63	3.24
850.805	103.59
850.98	107.69
851.155	-7
851.33	-15.19
851.505	-50
851.681	113.83
851.856	48.3
852.031	167.08
852.206	93.35
852.381	62.63
852.556	7.34
852.731	74.92
852.906	38.06
853.081	33.96
853.256	113.83
853.431	60.59
853.606	68.78
853.781	74.92
853.956	3.24
854.131	9.39
854.305	56.49
854.48	27.82
854.655	38.06
854.83	58.54
855.005	70.83
855.18	70.83
855.354	7.34
855.529	87.21
855.704	17.58
855.879	38.06
856.053	-4.95
856.228	83.11
856.403	62.63
856.577	58.54
856.752	9.39
856.926	95.4
857.101	101.55
857.276	50.35
857.45	150.7
857.625	11.43
857.799	38.06
857.974	33.96
858.148	27.82
858.323	52.39
858.497	-33.62
858.672	1.19
858.846	60.59
859.02	19.63
859.195	3.24
859.369	56.49
859.543	85.16
859.718	66.73
859.892	97.45
860.066	83.11
860.241	13.48
860.415	23.72
860.589	44.2
860.763	60.59
860.938	46.25
861.112	54.44
861.286	42.15
861.46	-7
861.634	85.16
861.808	95.4
861.982	-7
862.157	7.34
862.331	33.96
862.505	44.2
862.679	-7
862.853	-68.44
863.027	70.83
863.201	79.02
863.375	46.25
863.549	85.16
863.722	3.24
863.896	64.68
864.07	31.91
864.244	11.43
864.418	21.67
864.592	29.87
864.766	-13.14
864.939	-27.48
865.113	1.19
865.287	74.92
865.461	-23.38
865.634	9.39
865.808	70.83
865.982	79.02
866.156	46.25
866.329	11.43
866.503	-35.67
866.676	76.97
866.85	-27.48
867.024	17.58
867.197	58.54
867.371	-4.95
867.544	27.82
867.718	-52.05
867.891	58.54
868.065	5.29
868.238	17.58
868.412	60.59
868.585	23.72
868.759	15.53
868.932	19.63
869.105	54.44
869.279	25.77
869.452	23.72
869.625	70.83
869.799	11.43
869.972	3.24
870.145	62.63
870.319	87.21
870.492	33.96
870.665	-11.09
870.838	64.68
871.011	-47.96
871.185	5.29
871.358	-19.29
871.531	3.24
871.704	29.87
871.877	-54.1
872.05	-27.48
872.223	-21.33
872.396	-27.48
872.569	62.63
872.742	21.67
872.915	74.92
873.088	-15.19
873.261	42.15
873.434	-19.29
873.607	-4.95
873.78	54.44
873.953	-9.05
874.126	38.06
874.299	91.31
874.471	-60.24
874.644	74.92
874.817	3.24
874.99	13.48
875.163	-4.95
875.335	-27.48
875.508	44.2
875.681	52.39
875.853	56.49
876.026	9.39
876.199	-29.52
876.371	-27.48
876.544	21.67
876.717	-37.72
876.889	58.54
877.062	46.25
877.234	-35.67
877.407	56.49
877.579	19.63
877.752	17.58
877.924	13.48
878.097	44.2
878.269	87.21
878.442	23.72
878.614	19.63
878.786	3.24
878.959	21.67
879.131	13.48
879.303	27.82
879.476	62.63
879.648	-19.29
879.82	68.78
879.993	-0.85
880.165	-29.52
880.337	-29.52
880.509	13.48
880.681	-4.95
880.854	-29.52
881.026	58.54
881.198	3.24
881.37	-39.76
881.542	-7
881.714	-9.05
881.886	17.58
882.058	40.11
882.23	-62.29
882.402	17.58
882.574	19.63
882.746	25.77
882.918	13.48
883.09	-23.38
883.262	-60.24
883.434	21.67
883.606	-52.05
883.778	-21.33
883.95	9.39
884.122	-35.67
884.293	3.24
884.465	-35.67
884.637	58.54
884.809	42.15
884.98	27.82
885.152	-2.9
885.324	109.74
885.496	23.72
885.667	27.82
885.839	60.59
886.011	23.72
886.182	-9.05
886.354	-15.19
886.525	23.72
886.697	17.58
886.869	21.67
887.04	17.58
887.212	74.92
887.383	72.87
887.555	-84.82
887.726	60.59
887.897	44.2
888.069	-11.09
888.24	23.72
888.412	23.72
888.583	-2.9
888.754	-19.29
888.926	7.34
889.097	-50
889.268	-43.86
889.44	5.29
889.611	-15.19
889.782	19.63
889.953	-7
890.125	31.91
890.296	-39.76
890.467	50.35
890.638	-19.29
890.809	74.92
890.98	-35.67
891.151	-29.52
891.323	21.67
891.494	21.67
891.665	9.39
891.836	-4.95
892.007	29.87
892.178	46.25
892.349	58.54
892.52	21.67
892.691	91.31
892.862	-4.95
893.032	-31.57
893.203	44.2
893.374	44.2
893.545	23.72
893.716	-21.33
893.887	-0.85
894.057	-19.29
894.228	58.54
894.399	-41.81
894.57	54.44
894.74	70.83
894.911	5.29
895.082	-11.09
895.253	-27.48
895.423	-21.33
895.594	1.19
895.764	13.48
895.935	-23.38
896.106	29.87
896.276	50.35
896.447	48.3
896.617	3.24
896.788	-19.29
896.958	1.19
897.129	-45.91
897.299	54.44
897.47	60.59
897.64	58.54
897.81	15.53
897.981	13.48
898.151	62.63
898.322	13.48
898.492	46.25
898.662	17.58
898.832	54.44
899.003	-0.85
899.173	-64.34
899.343	-29.52
899.513	-50
