Data from USB4F104151__298__10-43-22-805.txt Node

Date: Wed Mar 12 10:43:22 EDT 2025
User: louis
Spectrometer: USB4F10415
Trigger mode: 4
Integration Time (sec): 3.000000E-2
Scans to average: 1
Electric dark correction enabled: true
Nonlinearity correction enabled: false
Boxcar width: 0
XAxis mode: Wavelengths
Number of Pixels in Spectrum: 3648
>>>>>Begin Spectral Data<<<<<
178.204	-105.3
178.424	-105.3
178.644	-105.3
178.864	-146.26
179.084	-127.83
179.304	-35.67
179.524	-33.62
179.744	-37.72
179.964	54.44
180.184	-19.29
180.404	85.16
180.624	-39.76
180.844	111.78
181.064	-50
181.283	48.3
181.503	-107.35
181.723	23.72
181.943	-35.67
182.163	76.97
182.383	-43.86
182.602	62.63
182.822	60.59
183.042	50.35
183.262	-27.48
183.482	46.25
183.701	-60.24
183.921	42.15
184.141	-2.9
184.361	97.45
184.58	66.73
184.8	33.96
185.02	33.96
185.239	70.83
185.459	-0.85
185.679	97.45
185.898	-15.19
186.118	50.35
186.338	-9.05
186.557	93.35
186.777	40.11
186.997	-31.57
187.216	25.77
187.436	48.3
187.655	54.44
187.875	13.48
188.095	-17.24
188.314	36.01
188.534	-23.38
188.753	87.21
188.973	19.63
189.192	27.82
189.412	33.96
189.631	3.24
189.851	-0.85
190.07	36.01
190.29	62.63
190.509	29.87
190.729	9.39
190.948	5.29
191.168	138.41
191.387	99.5
191.607	-11.09
191.826	15.53
192.045	33.96
192.265	15.53
192.484	-80.72
192.704	25.77
192.923	-0.85
193.142	140.46
193.362	58.54
193.581	48.3
193.8	-39.76
194.02	66.73
194.239	-23.38
194.458	72.87
194.678	68.78
194.897	21.67
195.116	1.19
195.335	11.43
195.555	40.11
195.774	-0.85
195.993	54.44
196.212	21.67
196.432	95.4
196.651	40.11
196.87	23.72
197.089	54.44
197.308	38.06
197.528	31.91
197.747	15.53
197.966	29.87
198.185	64.68
198.404	1.19
198.623	13.48
198.842	-4.95
199.062	23.72
199.281	21.67
199.5	5.29
199.719	50.35
199.938	1.19
200.157	-37.72
200.376	19.63
200.595	91.31
200.814	132.26
201.033	-15.19
201.252	85.16
201.471	40.11
201.69	-0.85
201.909	99.5
202.128	-2.9
202.347	132.26
202.566	87.21
202.785	-4.95
203.004	5.29
203.223	103.59
203.442	44.2
203.661	60.59
203.879	52.39
204.098	40.11
204.317	-7
204.536	44.2
204.755	-2.9
204.974	5.29
205.193	15.53
205.411	81.07
205.63	-2.9
205.849	25.77
206.068	64.68
206.287	132.26
206.505	38.06
206.724	5.29
206.943	48.3
207.162	7.34
207.381	-27.48
207.599	9.39
207.818	74.92
208.037	62.63
208.255	-39.76
208.474	1.19
208.693	56.49
208.911	74.92
209.13	162.98
209.349	7.34
209.567	29.87
209.786	89.26
210.005	33.96
210.223	60.59
210.442	-9.05
210.661	87.21
210.879	-11.09
211.098	-138.07
211.316	62.63
211.535	9.39
211.753	52.39
211.972	31.91
212.191	-31.57
212.409	-41.81
212.628	54.44
212.846	23.72
213.065	83.11
213.283	56.49
213.502	31.91
213.72	44.2
213.938	9.39
214.157	27.82
214.375	60.59
214.594	27.82
214.812	36.01
215.031	46.25
215.249	-13.14
215.467	-15.19
215.686	-23.38
215.904	95.4
216.122	36.01
216.341	64.68
216.559	25.77
216.778	31.91
216.996	-11.09
217.214	58.54
217.432	36.01
217.651	50.35
217.869	56.49
218.087	107.69
218.306	-4.95
218.524	13.48
218.742	-66.39
218.96	31.91
219.179	-17.24
219.397	36.01
219.615	-11.09
219.833	29.87
220.051	5.29
220.27	25.77
220.488	23.72
220.706	72.87
220.924	25.77
221.142	81.07
221.36	9.39
221.578	-0.85
221.796	54.44
222.015	83.11
222.233	-0.85
222.451	79.02
222.669	1.19
222.887	58.54
223.105	-74.58
223.323	-29.52
223.541	1.19
223.759	25.77
223.977	62.63
224.195	99.5
224.413	42.15
224.631	70.83
224.849	66.73
225.067	124.07
225.285	9.39
225.503	-9.05
225.721	-9.05
225.939	-60.24
226.157	15.53
226.375	91.31
226.592	5.29
226.81	19.63
227.028	42.15
227.246	54.44
227.464	70.83
227.682	81.07
227.9	46.25
228.117	1.19
228.335	62.63
228.553	-31.57
228.771	5.29
228.989	29.87
229.206	31.91
229.424	-41.81
229.642	-7
229.86	-7
230.077	91.31
230.295	38.06
230.513	91.31
230.731	25.77
230.948	79.02
231.166	48.3
231.384	-33.62
231.601	-11.09
231.819	105.64
232.037	7.34
232.254	29.87
232.472	-4.95
232.689	74.92
232.907	-11.09
233.125	-35.67
233.342	46.25
233.56	-2.9
233.777	38.06
233.995	-9.05
234.213	91.31
234.43	64.68
234.648	52.39
234.865	-11.09
235.083	23.72
235.3	62.63
235.518	119.98
235.735	44.2
235.953	5.29
236.17	-4.95
236.388	25.77
236.605	54.44
236.822	95.4
237.04	23.72
237.257	46.25
237.475	42.15
237.692	58.54
237.909	79.02
238.127	-2.9
238.344	15.53
238.562	60.59
238.779	-56.15
238.996	-27.48
239.214	66.73
239.431	79.02
239.648	27.82
239.865	27.82
240.083	1.19
240.3	5.29
240.517	-0.85
240.735	48.3
240.952	13.48
241.169	58.54
241.386	5.29
241.603	15.53
241.821	-4.95
242.038	54.44
242.255	107.69
242.472	-64.34
242.689	50.35
242.907	68.78
243.124	31.91
243.341	5.29
243.558	-17.24
243.775	38.06
243.992	-39.76
244.209	-17.24
244.426	54.44
244.643	-15.19
244.86	17.58
245.078	46.25
245.295	11.43
245.512	-7
245.729	40.11
245.946	23.72
246.163	21.67
246.38	58.54
246.597	-11.09
246.814	40.11
247.031	58.54
247.248	56.49
247.464	38.06
247.681	42.15
247.898	36.01
248.115	15.53
248.332	38.06
248.549	54.44
248.766	99.5
248.983	29.87
249.2	27.82
249.417	1.19
249.633	-9.05
249.85	-11.09
250.067	-13.14
250.284	64.68
250.501	70.83
250.717	62.63
250.934	17.58
251.151	46.25
251.368	50.35
251.585	60.59
251.801	19.63
252.018	-0.85
252.235	-17.24
252.451	-25.43
252.668	17.58
252.885	95.4
253.102	42.15
253.318	46.25
253.535	-4.95
253.752	54.44
253.968	64.68
254.185	-33.62
254.401	-7
254.618	23.72
254.835	-19.29
255.051	56.49
255.268	23.72
255.484	117.93
255.701	52.39
255.917	33.96
256.134	-7
256.351	-7
256.567	-0.85
256.784	56.49
257	17.58
257.217	68.78
257.433	40.11
257.65	-0.85
257.866	111.78
258.082	-11.09
258.299	-37.72
258.515	33.96
258.732	11.43
258.948	11.43
259.165	25.77
259.381	33.96
259.597	33.96
259.814	68.78
260.03	52.39
260.246	60.59
260.463	38.06
260.679	33.96
260.895	-2.9
261.112	107.69
261.328	81.07
261.544	-23.38
261.761	93.35
261.977	50.35
262.193	9.39
262.409	83.11
262.626	15.53
262.842	-21.33
263.058	-9.05
263.274	85.16
263.49	-7
263.707	68.78
263.923	27.82
264.139	62.63
264.355	36.01
264.571	99.5
264.787	48.3
265.004	40.11
265.22	25.77
265.436	48.3
265.652	38.06
265.868	68.78
266.084	17.58
266.3	33.96
266.516	5.29
266.732	79.02
266.948	29.87
267.164	42.15
267.38	7.34
267.596	21.67
267.812	101.55
268.028	21.67
268.244	79.02
268.46	33.96
268.676	9.39
268.892	7.34
269.108	5.29
269.324	-58.2
269.54	13.48
269.756	76.97
269.972	11.43
270.188	56.49
270.403	25.77
270.619	81.07
270.835	54.44
271.051	-27.48
271.267	23.72
271.483	9.39
271.698	52.39
271.914	58.54
272.13	66.73
272.346	15.53
272.562	27.82
272.777	58.54
272.993	29.87
273.209	9.39
273.425	72.87
273.64	-21.33
273.856	105.64
274.072	33.96
274.287	70.83
274.503	23.72
274.719	109.74
274.934	52.39
275.15	-43.86
275.366	17.58
275.581	-2.9
275.797	21.67
276.012	27.82
276.228	21.67
276.444	76.97
276.659	83.11
276.875	-11.09
277.09	-4.95
277.306	64.68
277.521	58.54
277.737	89.26
277.952	21.67
278.168	-0.85
278.383	89.26
278.599	9.39
278.814	56.49
279.03	52.39
279.245	29.87
279.461	21.67
279.676	27.82
279.892	-74.58
280.107	38.06
280.322	25.77
280.538	93.35
280.753	76.97
280.969	54.44
281.184	54.44
281.399	89.26
281.615	46.25
281.83	95.4
282.045	15.53
282.26	13.48
282.476	76.97
282.691	85.16
282.906	103.59
283.122	46.25
283.337	13.48
283.552	89.26
283.767	33.96
283.983	60.59
284.198	-0.85
284.413	3.24
284.628	52.39
284.843	72.87
285.058	111.78
285.274	58.54
285.489	62.63
285.704	111.78
285.919	33.96
286.134	33.96
286.349	-11.09
286.564	3.24
286.779	40.11
286.995	74.92
287.21	-47.96
287.425	64.68
287.64	-0.85
287.855	56.49
288.07	-15.19
288.285	105.64
288.5	66.73
288.715	95.4
288.93	-37.72
289.145	21.67
289.36	5.29
289.575	-2.9
289.79	-2.9
290.004	48.3
290.219	38.06
290.434	1.19
290.649	58.54
290.864	-4.95
291.079	33.96
291.294	158.89
291.509	33.96
291.724	-11.09
291.938	-37.72
292.153	83.11
292.368	56.49
292.583	-13.14
292.798	5.29
293.012	42.15
293.227	62.63
293.442	66.73
293.657	-7
293.871	91.31
294.086	46.25
294.301	74.92
294.516	42.15
294.73	62.63
294.945	66.73
295.16	27.82
295.374	48.3
295.589	66.73
295.804	21.67
296.018	72.87
296.233	50.35
296.447	56.49
296.662	76.97
296.877	87.21
297.091	17.58
297.306	33.96
297.52	36.01
297.735	64.68
297.949	29.87
298.164	76.97
298.378	-23.38
298.593	31.91
298.807	52.39
299.022	3.24
299.236	76.97
299.451	54.44
299.665	64.68
299.88	23.72
300.094	62.63
300.309	36.01
300.523	15.53
300.737	23.72
300.952	38.06
301.166	-7
301.381	11.43
301.595	13.48
301.809	40.11
302.024	122.02
302.238	42.15
302.452	66.73
302.667	7.34
302.881	60.59
303.095	25.77
303.309	46.25
303.524	64.68
303.738	1.19
303.952	33.96
304.166	74.92
304.381	87.21
304.595	42.15
304.809	76.97
305.023	109.74
305.237	33.96
305.452	54.44
305.666	79.02
305.88	50.35
306.094	66.73
306.308	79.02
306.522	103.59
306.736	17.58
306.95	81.07
307.164	72.87
307.379	50.35
307.593	66.73
307.807	85.16
308.021	79.02
308.235	95.4
308.449	27.82
308.663	-17.24
308.877	140.46
309.091	109.74
309.305	130.22
309.519	-76.63
309.733	56.49
309.947	11.43
310.161	54.44
310.374	-2.9
310.588	70.83
310.802	68.78
311.016	48.3
311.23	79.02
311.444	44.2
311.658	25.77
311.872	40.11
312.085	136.36
312.299	52.39
312.513	97.45
312.727	66.73
312.941	27.82
313.154	21.67
313.368	5.29
313.582	52.39
313.796	124.07
314.009	38.06
314.223	74.92
314.437	74.92
314.651	13.48
314.864	52.39
315.078	54.44
315.292	25.77
315.505	58.54
315.719	91.31
315.933	9.39
316.146	-52.05
316.36	-4.95
316.573	31.91
316.787	46.25
317.001	72.87
317.214	-2.9
317.428	81.07
317.641	15.53
317.855	21.67
318.068	103.59
318.282	70.83
318.495	122.02
318.709	46.25
318.922	7.34
319.136	52.39
319.349	64.68
319.563	29.87
319.776	42.15
319.99	17.58
320.203	109.74
320.417	87.21
320.63	31.91
320.843	91.31
321.057	76.97
321.27	42.15
321.483	48.3
321.697	87.21
321.91	66.73
322.124	85.16
322.337	99.5
322.55	15.53
322.763	87.21
322.977	54.44
323.19	58.54
323.403	76.97
323.617	23.72
323.83	85.16
324.043	9.39
324.256	56.49
324.469	23.72
324.683	138.41
324.896	-0.85
325.109	3.24
325.322	19.63
325.535	48.3
325.748	68.78
325.962	3.24
326.175	17.58
326.388	81.07
326.601	79.02
326.814	-2.9
327.027	21.67
327.24	44.2
327.453	23.72
327.666	101.55
327.879	79.02
328.092	62.63
328.305	36.01
328.518	38.06
328.731	21.67
328.944	46.25
329.157	29.87
329.37	38.06
329.583	42.15
329.796	79.02
330.009	31.91
330.222	76.97
330.435	66.73
330.648	54.44
330.861	58.54
331.073	66.73
331.286	9.39
331.499	83.11
331.712	-33.62
331.925	44.2
332.138	83.11
332.35	33.96
332.563	38.06
332.776	95.4
332.989	66.73
333.202	66.73
333.414	31.91
333.627	19.63
333.84	-19.29
334.053	33.96
334.265	-43.86
334.478	54.44
334.691	-15.19
334.903	29.87
335.116	11.43
335.329	25.77
335.541	58.54
335.754	119.98
335.966	68.78
336.179	23.72
336.392	52.39
336.604	58.54
336.817	93.35
337.029	42.15
337.242	38.06
337.454	87.21
337.667	56.49
337.88	83.11
338.092	58.54
338.305	13.48
338.517	-15.19
338.729	76.97
338.942	64.68
339.154	1.19
339.367	91.31
339.579	72.87
339.792	79.02
340.004	42.15
340.217	7.34
340.429	17.58
340.641	42.15
340.854	21.67
341.066	15.53
341.278	122.02
341.491	91.31
341.703	-35.67
341.915	33.96
342.128	1.19
342.34	87.21
342.552	1.19
342.764	52.39
342.977	-60.24
343.189	58.54
343.401	17.58
343.613	31.91
343.826	38.06
344.038	58.54
344.25	38.06
344.462	19.63
344.674	89.26
344.886	-35.67
345.099	36.01
345.311	72.87
345.523	50.35
345.735	23.72
345.947	46.25
346.159	81.07
346.371	9.39
346.583	-15.19
346.795	79.02
347.007	40.11
347.219	76.97
347.431	124.07
347.643	87.21
347.855	33.96
348.067	74.92
348.279	9.39
348.491	-11.09
348.703	62.63
348.915	-50
349.127	50.35
349.339	74.92
349.551	60.59
349.763	99.5
349.975	60.59
350.187	117.93
350.399	111.78
350.61	42.15
350.822	70.83
351.034	91.31
351.246	115.88
351.458	1.19
351.669	128.17
351.881	13.48
352.093	64.68
352.305	48.3
352.517	48.3
352.728	66.73
352.94	62.63
353.152	64.68
353.363	-19.29
353.575	107.69
353.787	64.68
353.999	40.11
354.21	119.98
354.422	62.63
354.633	56.49
354.845	7.34
355.057	-7
355.268	-23.38
355.48	91.31
355.692	42.15
355.903	48.3
356.115	15.53
356.326	13.48
356.538	167.08
356.749	29.87
356.961	107.69
357.172	29.87
357.384	44.2
357.595	187.56
357.807	42.15
358.018	70.83
358.23	105.64
358.441	58.54
358.653	56.49
358.864	68.78
359.075	83.11
359.287	-33.62
359.498	25.77
359.709	72.87
359.921	66.73
360.132	70.83
360.344	54.44
360.555	36.01
360.766	48.3
360.977	33.96
361.189	56.49
361.4	15.53
361.611	70.83
361.823	3.24
362.034	89.26
362.245	-19.29
362.456	-4.95
362.667	52.39
362.879	-4.95
363.09	48.3
363.301	97.45
363.512	33.96
363.723	70.83
363.935	85.16
364.146	87.21
364.357	72.87
364.568	-0.85
364.779	29.87
364.99	91.31
365.201	46.25
365.412	91.31
365.623	-2.9
365.834	17.58
366.045	64.68
366.256	42.15
366.467	111.78
366.678	42.15
366.889	85.16
367.1	-19.29
367.311	23.72
367.522	66.73
367.733	99.5
367.944	52.39
368.155	111.78
368.366	85.16
368.577	103.59
368.788	36.01
368.999	89.26
369.209	76.97
369.42	85.16
369.631	87.21
369.842	103.59
370.053	148.65
370.264	58.54
370.474	21.67
370.685	31.91
370.896	19.63
371.107	74.92
371.317	103.59
371.528	44.2
371.739	60.59
371.95	109.74
372.16	64.68
372.371	70.83
372.582	-15.19
372.792	85.16
373.003	50.35
373.214	56.49
373.424	48.3
373.635	13.48
373.846	66.73
374.056	62.63
374.267	54.44
374.477	13.48
374.688	48.3
374.898	74.92
375.109	66.73
375.319	17.58
375.53	154.79
375.74	40.11
375.951	31.91
376.161	91.31
376.372	89.26
376.582	25.77
376.793	89.26
377.003	5.29
377.214	56.49
377.424	5.29
377.635	97.45
377.845	54.44
378.055	56.49
378.266	-35.67
378.476	68.78
378.686	74.92
378.897	113.83
379.107	64.68
379.317	109.74
379.528	40.11
379.738	48.3
379.948	81.07
380.158	54.44
380.369	38.06
380.579	21.67
380.789	54.44
380.999	105.64
381.21	48.3
381.42	115.88
381.63	76.97
381.84	74.92
382.05	7.34
382.261	93.35
382.471	177.32
382.681	107.69
382.891	76.97
383.101	7.34
383.311	76.97
383.521	91.31
383.731	68.78
383.941	111.78
384.151	27.82
384.361	33.96
384.571	50.35
384.781	109.74
384.991	89.26
385.201	140.46
385.411	74.92
385.621	103.59
385.831	66.73
386.041	130.22
386.251	9.39
386.461	83.11
386.671	87.21
386.881	91.31
387.091	132.26
387.301	132.26
387.511	42.15
387.72	103.59
387.93	74.92
388.14	70.83
388.35	60.59
388.56	113.83
388.769	38.06
388.979	132.26
389.189	40.11
389.399	111.78
389.609	150.7
389.818	50.35
390.028	58.54
390.238	44.2
390.447	46.25
390.657	101.55
390.867	29.87
391.076	56.49
391.286	76.97
391.496	85.16
391.705	142.5
391.915	66.73
392.125	83.11
392.334	50.35
392.544	11.43
392.753	42.15
392.963	29.87
393.172	158.89
393.382	38.06
393.591	140.46
393.801	70.83
394.01	122.02
394.22	48.3
394.429	81.07
394.639	87.21
394.848	87.21
395.058	179.37
395.267	103.59
395.477	130.22
395.686	130.22
395.895	240.81
396.105	152.74
396.314	124.07
396.524	83.11
396.733	109.74
396.942	105.64
397.152	140.46
397.361	95.4
397.57	54.44
397.78	60.59
397.989	171.18
398.198	167.08
398.407	111.78
398.617	99.5
398.826	119.98
399.035	152.74
399.244	105.64
399.453	117.93
399.663	99.5
399.872	107.69
400.081	132.26
400.29	101.55
400.499	177.32
400.708	175.27
400.917	150.7
401.127	130.22
401.336	146.6
401.545	210.09
401.754	160.94
401.963	144.55
402.172	165.03
402.381	212.14
402.59	91.31
402.799	111.78
403.008	101.55
403.217	208.04
403.426	187.56
403.635	132.26
403.844	95.4
404.053	124.07
404.262	107.69
404.471	132.26
404.68	134.31
404.888	83.11
405.097	201.9
405.306	257.19
405.515	124.07
405.724	142.5
405.933	193.7
406.142	214.18
406.35	271.53
406.559	132.26
406.768	195.75
406.977	287.91
407.185	175.27
407.394	189.61
407.603	257.19
407.812	246.95
408.02	255.14
408.229	234.66
408.438	234.66
408.646	246.95
408.855	265.38
409.064	292.01
409.272	263.33
409.481	328.87
409.69	296.1
409.898	308.39
410.107	371.88
410.315	392.36
410.524	273.57
410.733	459.94
410.941	261.29
411.15	402.6
411.358	459.94
411.567	459.94
411.775	490.66
411.984	472.23
412.192	492.71
412.401	541.86
412.609	517.28
412.818	572.58
413.026	498.85
413.234	548
413.443	595.11
413.651	650.4
413.86	656.54
414.068	656.54
414.276	666.78
414.485	711.84
414.693	728.22
414.901	812.19
415.11	742.56
415.318	791.71
415.526	861.34
415.734	879.77
415.943	847.01
416.151	928.92
416.359	914.59
416.567	943.26
416.776	990.36
416.984	1111.19
417.192	1037.47
417.4	1107.1
417.608	1133.72
417.817	1242.26
418.025	1209.5
418.233	1471.64
418.441	1299.61
418.649	1258.65
418.857	1428.63
419.065	1500.31
419.273	1416.34
419.481	1428.63
419.689	1684.62
419.897	1709.2
420.105	1682.58
420.313	1885.33
420.521	1918.09
420.729	1772.69
420.937	1918.09
421.145	1920.14
421.353	2225.29
421.561	2290.82
421.769	2131.08
421.977	2374.79
422.185	2327.69
422.393	2571.4
422.601	2673.79
422.809	2573.44
423.017	2694.27
423.224	2706.56
423.432	2735.23
423.64	2804.86
423.848	3089.53
424.056	2974.85
424.263	3271.8
424.471	3212.41
424.679	3425.4
424.887	3607.67
425.094	3673.2
425.302	3669.11
425.51	3740.79
425.718	3753.07
425.925	3908.72
426.133	3982.45
426.341	4349.03
426.548	4465.77
426.756	4406.38
426.964	4650.08
427.171	4850.78
427.379	5086.3
427.586	5002.33
427.794	5168.22
428.001	5375.06
428.209	5567.57
428.417	5586.01
428.624	6016.08
428.832	5915.73
429.039	5823.57
429.247	5950.54
429.454	6501.45
429.662	6806.59
429.869	6526.02
430.076	6880.32
430.284	6732.87
430.491	6935.62
430.699	7302.2
430.906	7445.56
431.114	7382.07
431.321	7681.08
431.528	7857.2
431.736	8461.35
431.943	8840.23
432.15	8492.07
432.358	8662.05
432.565	9206.81
432.772	9223.2
432.979	9808.92
433.187	9831.44
433.394	9917.46
433.601	10523.66
433.808	10503.18
434.016	10433.55
434.223	10929.16
434.43	11361.28
434.637	11385.85
434.844	11875.32
435.052	12157.94
435.259	12334.06
435.466	12241.9
435.673	11867.13
435.88	12844.01
436.087	13372.38
436.294	13945.81
436.501	13394.91
436.708	13534.17
436.915	14152.66
437.122	14623.69
437.329	14601.16
437.537	14934.98
437.743	15383.49
437.95	15014.85
438.157	16012.21
438.364	16378.8
438.571	16405.42
438.778	16870.31
438.985	18129.81
439.192	17583.01
439.399	17800.09
439.606	17619.87
439.813	18498.45
440.02	19751.81
440.227	19409.79
440.433	19321.73
440.64	20151.16
440.847	19815.29
441.054	20337.52
441.261	21525.35
441.467	21019.5
441.674	21889.88
441.881	22352.73
442.088	22471.51
442.294	21982.04
442.501	23014.22
442.708	23391.05
442.914	24230.71
443.121	25010.99
443.328	24773.42
443.534	26491.67
443.741	25338.66
443.948	25031.47
444.154	27566.85
444.361	26741.52
444.568	26862.35
444.774	27034.38
444.981	27482.89
445.187	28195.58
445.394	29608.68
445.6	29176.56
445.807	31894.21
446.013	30339.8
446.22	30898.9
446.426	31984.32
446.633	32322.24
446.839	33422
447.046	31969.99
447.252	33819.3
447.459	33915.56
447.665	34001.57
447.871	34781.85
448.078	36530.81
448.284	34839.19
448.491	35875.46
448.697	37425.78
448.903	37599.85
449.11	38083.17
449.316	37411.44
449.522	37945.96
449.728	38779.48
449.935	39350.87
450.141	38894.17
450.347	40641.09
450.553	38713.95
450.76	39260.76
450.966	40317.51
451.172	39965.26
451.378	40725.05
451.584	40272.45
451.791	41316.92
451.997	41060.92
452.203	41620.02
452.409	41216.57
452.615	41310.77
452.821	39701.07
453.027	39375.44
453.233	41624.11
453.44	39662.16
453.646	40266.31
453.852	40274.5
454.058	41032.25
454.264	39920.2
454.47	40577.6
454.676	39074.39
454.882	40612.41
455.088	37360.24
455.294	37956.2
455.5	38298.21
455.705	38638.17
455.911	36991.61
456.117	36287.1
456.323	35728.01
456.529	33536.68
456.735	35412.62
456.941	34523.8
457.147	33956.52
457.352	32905.91
457.558	32228.03
457.764	32817.85
457.97	32256.7
458.176	31220.43
458.381	30681.81
458.587	29893.35
458.793	29571.82
458.999	27906.82
459.204	30139.1
459.41	29022.96
459.616	27308.81
459.821	27409.16
460.027	27190.03
460.233	26868.5
460.438	25123.63
460.644	25551.65
460.85	24525.62
461.055	24101.69
461.261	23909.18
461.466	22530.9
461.672	21648.22
461.878	23688
462.083	21613.41
462.289	21336.93
462.494	20867.95
462.7	20089.72
462.905	19469.19
463.111	20431.73
463.316	20374.39
463.522	19929.98
463.727	19848.06
463.932	20112.25
464.138	19628.93
464.343	19665.79
464.549	19254.15
464.754	20104.06
464.959	19821.44
465.165	19321.73
465.37	18627.47
465.575	18342.8
465.781	19090.31
465.986	19004.3
466.191	18322.32
466.397	17927.07
466.602	17310.63
466.807	17828.76
467.012	17998.74
467.218	17787.8
467.423	17517.47
467.628	17849.24
467.833	18355.09
468.038	17695.64
468.244	17071.01
468.449	17828.76
468.654	17329.06
468.859	17339.3
469.064	17011.62
469.269	16448.43
469.474	16731.05
469.679	16735.15
469.885	16104.37
470.09	16921.51
470.295	16630.7
470.5	16137.14
470.705	16266.16
470.91	15737.79
471.115	15778.75
471.32	15881.14
471.525	15883.19
471.73	15569.85
471.935	15434.69
472.139	14926.79
472.344	15119.3
472.549	15055.81
472.754	14744.52
472.959	14668.75
473.164	14205.91
473.369	13964.25
473.574	14580.68
473.778	14146.51
473.983	14193.62
474.188	13882.33
474.393	13306.85
474.598	13566.94
474.802	13274.08
475.007	13509.6
475.212	13272.03
475.417	12680.17
475.621	12680.17
475.826	13046.76
476.031	12637.16
476.235	12397.55
476.44	12731.37
476.645	12155.89
476.849	12493.8
477.054	12135.41
477.259	12035.06
477.463	12098.55
477.668	11738.1
477.872	11979.76
478.077	11738.1
478.282	11332.61
478.486	11367.42
478.691	11547.64
478.895	11326.46
479.1	11105.28
479.304	11377.66
479.509	10923.01
479.713	11070.47
479.918	10959.88
480.122	10974.21
480.326	10812.42
480.531	10767.37
480.735	10595.34
480.94	10499.08
481.144	11123.71
481.348	10425.36
481.553	10585.1
481.757	10433.55
481.961	10521.61
482.166	10626.06
482.37	10519.56
482.574	10466.31
482.778	10245.13
482.983	10738.69
483.187	10421.26
483.391	10656.78
483.595	10294.29
483.8	10431.5
484.004	10243.09
484.208	10484.75
484.412	10347.53
484.616	10400.78
484.821	10441.74
485.025	10167.31
485.229	10521.61
485.433	10282
485.637	10310.67
485.841	10148.88
486.045	10337.29
486.249	10451.98
486.453	10322.96
486.657	10447.88
486.861	10439.69
487.065	10097.68
487.269	10339.34
487.473	10112.02
487.677	10425.36
487.881	10505.23
488.085	10322.96
488.289	10593.29
488.493	10669.06
488.697	10540.04
488.901	10492.94
489.105	10357.77
489.309	10837
489.512	10417.16
489.716	10603.53
489.92	10435.6
490.124	10474.51
490.328	10798.09
490.531	10554.38
490.735	10730.5
490.939	10787.85
491.143	10703.88
491.346	10789.89
491.55	11013.12
491.754	10906.63
491.958	10920.96
492.161	10908.68
492.365	11203.58
492.569	11136
492.772	11074.56
492.976	11013.12
493.18	11318.27
493.383	11322.37
493.587	11359.23
493.79	11658.23
493.994	11441.15
494.197	11615.23
494.401	11633.66
494.605	11836.41
494.808	11895.8
495.012	11848.69
495.215	11891.7
495.419	11979.76
495.622	11953.14
495.825	12420.08
496.029	12420.08
496.232	12454.89
496.436	12321.77
496.639	12911.59
496.843	12489.71
497.046	12723.18
497.249	12940.26
497.453	13167.59
497.656	13245.41
497.859	13431.77
498.063	13347.81
498.266	13564.89
498.469	13734.87
498.673	13902.81
498.876	14074.84
499.079	13999.06
499.282	14277.58
499.485	14615.5
499.689	14670.79
499.892	14773.19
500.095	14943.17
500.298	15428.54
500.501	15076.29
500.705	15289.28
500.908	15778.75
501.111	15942.58
501.314	15854.52
501.517	16186.29
501.72	16374.7
501.923	16235.44
502.126	16604.08
502.329	17273.76
502.532	16923.56
502.735	17091.49
502.938	17427.36
503.141	17556.38
503.344	18045.85
503.547	18332.56
503.75	18178.97
503.953	18428.82
504.156	18412.43
504.359	18709.39
504.562	18910.09
504.765	19354.5
504.968	19420.03
505.17	19993.47
505.373	19772.28
505.576	20140.92
505.779	20333.43
505.982	20681.58
506.185	20769.65
506.387	20972.39
506.59	21267.3
506.793	21740.38
506.996	21601.12
507.198	22086.49
507.401	21777.25
507.604	22448.98
507.807	22547.28
508.009	22893.39
508.212	22989.64
508.415	23374.66
508.617	23571.27
508.82	23698.24
509.022	23620.42
509.225	24296.25
509.428	24587.06
509.63	24820.53
509.833	24623.92
510.035	25365.29
510.238	25508.65
510.44	25729.83
510.643	26266.39
510.845	26315.55
511.048	26239.77
511.25	26755.86
511.453	26929.94
511.655	28136.19
511.858	27460.36
512.06	27724.55
512.262	28062.46
512.465	28326.65
512.667	28726
512.87	29068.02
513.072	29141.74
513.274	29790.95
513.477	29629.16
513.679	30077.66
513.881	30399.19
514.084	30960.34
514.286	30761.69
514.488	30886.61
514.69	31720.13
514.893	31757
515.095	31720.13
515.297	32137.92
515.499	32594.62
515.701	32676.54
515.904	33530.54
516.106	33299.12
516.308	33700.52
516.51	34378.4
516.712	34443.93
516.914	34876.05
517.116	35064.47
517.318	35211.92
517.52	35310.22
517.722	35840.65
517.925	35922.57
518.127	36696.7
518.329	36797.05
518.531	36588.16
518.733	37223.03
518.935	37915.24
519.136	37642.86
519.338	38490.72
519.54	38570.59
519.742	38781.53
519.944	39078.49
520.146	39828.04
520.348	40266.31
520.55	39563.85
520.752	40239.68
520.954	40892.99
521.155	40346.18
521.357	41564.72
521.559	41744.94
521.761	41720.37
521.963	42248.74
522.164	42469.92
522.366	42404.39
522.568	42844.7
522.77	42953.24
522.971	43848.21
523.173	43047.45
523.375	44292.61
523.576	44161.54
523.778	44239.37
523.98	44655.11
524.181	45027.84
524.383	44945.92
524.584	45758.96
524.786	45672.95
524.988	45328.89
525.189	46049.77
525.391	46340.58
525.592	46137.83
525.794	46989.79
525.995	46727.65
526.197	46768.61
526.398	46969.31
526.6	47423.96
526.801	47325.66
527.003	47989.2
527.204	47677.91
527.406	48329.16
527.607	48075.21
527.808	48853.44
528.01	47968.72
528.211	48337.35
528.412	49502.65
528.614	48851.39
528.815	49179.07
529.016	49760.69
529.218	48992.7
529.419	49762.74
529.62	49772.98
529.822	49080.77
530.023	49408.44
530.224	49539.51
530.425	49869.23
530.626	49553.85
530.828	49510.84
531.029	50792.87
531.23	49863.09
531.431	50147.76
531.632	50098.61
531.833	50477.48
532.035	50622.89
532.236	50121.13
532.437	50831.78
532.638	50262.44
532.839	51210.65
533.04	50684.33
533.241	50088.37
533.442	51341.72
533.643	51067.3
533.844	50721.19
534.045	51171.74
534.246	50692.52
534.447	51046.82
534.648	50936.23
534.849	50878.88
535.05	50799.01
535.251	50973.09
535.451	51063.2
535.652	51018.14
535.853	50948.51
536.054	50850.21
536.255	51513.75
536.456	50678.18
536.657	51552.66
536.857	51243.42
537.058	50923.94
537.259	51122.59
537.46	51456.41
537.66	51063.2
537.861	51464.6
538.062	51018.14
538.263	51311
538.463	51534.23
538.664	51421.59
538.865	51030.43
539.065	51538.33
539.266	50592.17
539.466	51526.04
539.667	50325.93
539.868	51304.86
540.068	51122.59
540.269	51730.84
540.469	51200.41
540.67	50870.69
540.87	51304.86
541.071	51171.74
541.271	51202.46
541.472	50964.9
541.672	51302.81
541.873	50973.09
542.073	50805.16
542.274	51673.49
542.474	50596.26
542.675	50500.01
542.875	51653.01
543.075	51003.81
543.276	50651.56
543.476	51229.08
543.676	50719.14
543.877	50997.66
544.077	51132.83
544.277	50878.88
544.478	50903.46
544.678	50944.42
544.878	50698.66
545.078	50917.79
545.279	50835.87
545.479	50555.3
545.679	50825.64
545.879	50719.14
546.079	50678.18
546.28	50694.57
546.48	50373.03
546.68	51286.43
546.88	50989.47
547.08	50776.48
547.28	50465.19
547.48	50276.78
547.68	50899.36
547.88	50266.54
548.081	50858.4
548.281	50678.18
548.481	50792.87
548.681	50801.06
548.881	50409.9
549.081	50579.88
549.28	50311.59
549.48	50430.38
549.68	50059.69
549.88	50817.44
550.08	50366.89
550.28	50612.65
550.48	50366.89
550.68	50547.11
550.88	50209.2
551.08	50125.23
551.279	50727.33
551.479	49924.53
551.679	50043.31
551.879	49770.93
552.079	50284.97
552.278	50041.26
552.478	50184.62
552.678	50504.1
552.878	50442.66
553.077	49854.9
553.277	49326.52
553.477	50915.75
553.676	50090.41
553.876	50026.93
554.076	49600.95
554.275	49985.97
554.475	49283.51
554.674	50284.97
554.874	49783.22
555.074	49803.7
555.273	49559.99
555.473	49961.39
555.672	49658.29
555.872	49441.21
556.071	49770.93
556.271	49824.18
556.47	49078.72
556.67	48961.98
556.869	49451.45
557.068	49433.02
557.268	48988.61
557.467	49293.75
557.667	49277.37
557.866	49338.81
558.065	49058.24
558.265	49125.82
558.464	48837.06
558.663	49252.8
558.863	48271.82
559.062	49418.68
559.261	48359.88
559.461	48503.24
559.66	48540.1
559.859	48349.64
560.058	48064.97
560.258	48939.46
560.457	47643.09
560.656	48263.63
560.855	47753.68
561.054	48396.74
561.253	47630.8
561.453	47524.31
561.652	48161.23
561.851	47841.74
562.05	47819.22
562.249	47563.22
562.448	47784.4
562.647	47223.26
562.846	47417.82
563.045	47673.81
563.244	47180.25
563.443	47671.76
563.642	46889.44
563.841	47073.76
564.04	47077.85
564.239	47372.76
564.438	46344.68
564.637	47133.15
564.836	46711.27
565.035	46387.69
565.234	46414.31
565.432	45877.74
565.631	45687.28
565.83	45965.81
566.029	46076.4
566.228	45615.6
566.427	45543.92
566.625	45320.7
566.824	44886.53
567.023	45851.12
567.222	44816.89
567.42	45642.23
567.619	45265.4
567.818	45017.6
568.016	44724.74
568.215	45576.69
568.414	44933.63
568.612	44685.82
568.811	44638.72
569.01	44616.19
569.208	44155.4
569.407	44327.43
569.605	43909.64
569.804	44675.58
570.002	44286.47
570.201	43874.83
570.4	43883.02
570.598	43428.37
570.797	43368.98
570.995	43665.94
571.193	43037.21
571.392	43667.98
571.59	43252.25
571.789	43338.26
571.987	43061.79
572.186	43192.86
572.384	42705.44
572.582	42822.17
572.781	42562.08
572.979	42215.97
573.177	42592.8
573.376	42697.25
573.574	42089
573.772	42742.3
573.971	41835.05
574.169	41933.35
574.367	41982.51
574.565	41740.85
574.763	41617.97
574.962	41249.33
575.16	41210.42
575.358	41521.71
575.556	40643.13
575.754	41163.32
575.952	40634.94
576.151	41007.67
576.349	40114.76
576.547	40462.91
576.745	40735.29
576.943	40557.12
577.141	40368.71
577.339	40555.07
577.537	39944.78
577.735	40393.28
577.933	39793.23
578.131	40079.94
578.329	39762.51
578.527	39174.74
578.725	39565.9
578.923	39649.87
579.121	39529.04
579.319	39045.72
579.516	39326.29
579.714	39103.06
579.912	38730.33
580.11	38693.47
580.308	38759
580.506	38781.53
580.704	38191.72
580.901	38623.84
581.099	38472.29
581.297	38330.98
581.495	38021.73
581.692	38138.47
581.89	37821.03
582.088	38034.02
582.285	37909.1
582.483	38066.79
582.681	37694.06
582.878	37636.72
583.076	37010.04
583.274	37300.85
583.471	37218.93
583.669	37292.66
583.866	36727.42
584.064	37345.9
584.262	36600.44
584.459	36881.02
584.657	36582.01
584.854	36657.79
585.052	36072.07
585.249	36420.22
585.447	36465.28
585.644	36153.99
585.841	35934.85
586.039	36205.19
586.236	35834.5
586.434	35584.65
586.631	35437.2
586.828	35236.5
587.026	35521.16
587.223	35379.85
587.42	35054.23
587.618	35113.62
587.815	35048.08
588.012	35035.8
588.21	34626.2
588.407	34949.78
588.604	34493.08
588.801	34364.06
588.999	34421.41
589.196	34026.15
589.393	34118.31
589.59	33979.04
589.787	34005.67
589.984	34038.44
590.182	33653.42
590.379	33903.27
590.576	33704.62
590.773	33573.55
590.97	33090.23
591.167	33135.28
591.364	32709.3
591.561	33276.59
591.758	32916.15
591.955	32785.08
592.152	33200.82
592.349	32815.8
592.546	32684.73
592.743	32688.82
592.94	32019.14
593.137	32588.47
593.334	32344.77
593.531	31757
593.727	31941.32
593.924	31834.82
594.121	31783.62
594.318	31830.72
594.515	31347.4
594.712	31869.64
594.908	31367.88
595.105	31640.26
595.302	31464.14
595.499	31343.31
595.696	30980.82
595.892	30825.17
596.089	31113.94
596.286	30837.46
596.482	30769.88
596.679	30722.77
596.876	30583.51
597.072	30431.96
597.269	30626.52
597.466	30368.48
597.662	30280.41
597.859	29954.79
598.055	30366.43
598.252	29954.79
598.448	30073.57
598.645	30102.24
598.841	29940.45
599.038	29899.49
599.234	29696.74
599.431	29184.75
599.627	29154.03
599.824	29297.39
600.02	28875.51
600.217	29647.59
600.413	29135.6
600.609	28898.03
600.806	28617.46
601.002	28762.87
601.198	28697.33
601.395	28484.34
601.591	28513.02
601.787	28726
601.984	28330.75
602.18	28383.99
602.376	27826.95
602.572	28021.5
602.769	28113.66
602.965	27720.45
603.161	27972.35
603.357	28119.81
603.553	27513.61
603.75	27626.25
603.946	27245.32
604.142	27915.01
604.338	26950.42
604.534	27312.91
604.73	26819.35
604.926	26907.41
605.122	27196.17
605.318	26843.92
605.514	26592.02
605.71	26602.26
605.906	26714.9
606.102	26512.15
606.298	26587.92
606.494	26401.56
606.69	26538.77
606.886	26639.12
607.082	25856.8
607.278	26626.84
607.474	25899.81
607.67	26166.04
607.866	25815.84
608.062	26018.59
608.257	26047.26
608.453	25758.5
608.649	25811.74
608.845	25408.29
609.041	25987.87
609.236	25617.19
609.432	25699.11
609.628	25256.75
609.824	25275.18
610.019	25010.99
610.215	25303.85
610.411	25088.81
610.606	24937.26
610.802	25113.39
610.998	24949.55
611.193	24974.13
611.389	24763.18
611.584	24787.76
611.78	24695.6
611.976	24924.97
612.171	24757.04
612.367	24380.21
612.562	24746.8
612.758	24294.2
612.953	24202.04
613.149	24767.28
613.344	24314.68
613.539	24902.45
613.735	24023.87
613.93	24269.62
614.126	24068.92
614.321	24599.35
614.517	24150.84
614.712	24185.66
614.907	24064.83
615.103	24021.82
615.298	23835.45
615.493	24138.55
615.688	23610.18
615.884	24306.49
616.079	23315.27
616.274	24060.73
616.47	23763.78
616.665	23731.01
616.86	23546.69
617.055	23530.31
617.25	23464.77
617.445	23522.12
617.641	23266.12
617.836	23270.22
618.031	23233.35
618.226	23558.98
618.421	22917.96
618.616	23204.68
618.811	22836.05
619.006	22995.79
619.201	22303.57
619.396	22926.16
619.591	22410.07
619.786	22408.02
619.981	22129.5
620.176	22629.2
620.371	22016.86
620.566	22121.31
620.761	22076.25
620.956	22020.95
621.151	21709.66
621.346	21891.93
621.541	21603.17
621.735	21738.33
621.93	21564.26
622.125	21500.77
622.32	21031.79
622.515	21302.12
622.709	20923.24
622.904	20958.06
623.099	20677.49
623.294	21025.64
623.488	20575.09
623.683	20761.45
623.878	20306.8
624.072	20370.29
624.267	20267.89
624.462	20237.17
624.656	19792.76
624.851	19942.27
625.046	19626.88
625.24	19807.1
625.435	19575.68
625.629	19649.41
625.824	19405.7
626.018	19219.33
626.213	18729.87
626.407	19243.91
626.602	18568.08
626.796	19016.58
626.991	18797.45
627.185	18877.32
627.38	18545.55
627.574	18586.51
627.768	18496.4
627.963	18264.98
628.157	17996.7
628.352	18119.57
628.546	17984.41
628.74	18058.14
628.935	17750.94
629.129	18002.84
629.323	17529.76
629.517	17499.04
629.712	17580.96
629.906	17425.31
630.1	17005.48
630.294	17122.21
630.489	17142.69
630.683	17210.28
630.877	16997.29
631.071	17003.43
631.265	16915.37
631.459	16831.4
631.653	16382.9
631.848	16595.89
632.042	16522.16
632.236	16409.52
632.43	16108.47
632.624	16190.39
632.818	16225.2
633.012	16145.33
633.206	15926.2
633.4	16153.52
633.594	15610.81
633.788	15762.36
633.982	15831.99
634.176	15459.26
634.369	15330.24
634.563	15539.13
634.757	15406.02
634.951	15270.85
635.145	15211.46
635.339	15127.49
635.533	14955.46
635.726	15074.24
635.92	14810.06
636.114	14820.3
636.308	14750.67
636.501	14529.48
636.695	14513.1
636.889	14568.4
637.083	14470.09
637.276	14588.88
637.47	14128.08
637.664	14336.98
637.857	14271.44
638.051	13767.64
638.244	13925.33
638.438	14089.17
638.632	13892.57
638.825	13704.15
639.019	13708.25
639.212	13532.12
639.406	13523.93
639.599	13284.32
639.793	13237.22
639.986	13067.24
640.18	13259.74
640.373	13214.69
640.567	13024.23
640.76	13057
640.954	12788.71
641.147	12751.85
641.34	12780.52
641.534	12717.03
641.727	12604.39
641.92	12665.83
642.114	12377.07
642.307	12395.5
642.5	12520.43
642.694	12178.42
642.887	12166.13
643.08	12348.4
643.273	12112.88
643.467	11990
643.66	11914.23
643.853	11928.56
644.046	11762.68
644.239	11889.65
644.432	11721.72
644.626	11664.38
644.819	11721.72
645.012	11592.7
645.205	11465.72
645.398	11713.53
645.591	11125.76
645.784	11217.92
645.977	11152.38
646.17	11228.16
646.363	11148.29
646.556	11041.79
646.749	11080.71
646.942	11017.22
647.135	10810.37
647.328	10765.32
647.521	10785.8
647.714	10857.48
647.907	10726.41
648.099	10642.44
648.292	10421.26
648.485	10601.48
648.678	10415.12
648.871	10501.13
649.064	10224.65
649.256	10286.09
649.449	10232.85
649.642	10173.46
649.835	9872.4
650.027	10112.02
650.22	10046.48
650.413	9978.9
650.605	9835.54
650.798	9817.11
650.991	9554.97
651.183	9683.99
651.376	9735.19
651.568	9661.46
651.761	9415.71
651.954	9536.54
652.146	9468.95
652.339	9378.84
652.531	9475.1
652.724	9450.52
652.916	9151.52
653.109	9423.9
653.301	9368.6
653.494	9176.09
653.686	8954.91
653.879	9159.71
654.071	8850.47
654.263	8995.87
654.456	8989.73
654.648	8901.67
654.84	8612.9
655.033	8762.4
655.225	8492.07
655.417	8586.28
655.61	8664.1
655.802	8567.85
655.994	8426.54
656.186	8631.33
656.379	8500.26
656.571	8363.05
656.763	8236.08
656.955	8213.55
657.148	8412.2
657.34	8287.28
657.532	8197.17
657.724	8102.96
657.916	8096.82
658.108	8201.26
658.3	7892.02
658.492	7980.08
658.684	7822.39
658.876	8016.94
659.068	7910.45
659.26	7822.39
659.452	7627.83
659.644	7861.3
659.836	7730.23
660.028	7795.76
660.22	7279.68
660.412	7695.41
660.604	7435.32
660.796	7558.2
660.988	7517.24
661.18	7369.79
661.372	7146.56
661.563	7322.68
661.755	7191.61
661.947	7416.89
662.139	7203.9
662.331	7138.37
662.522	7193.66
662.714	7121.98
662.906	7056.45
663.097	6900.8
663.289	6917.19
663.481	6896.71
663.673	6935.62
663.864	6943.81
664.056	6900.8
664.247	6663.24
664.439	6532.17
664.631	6841.41
664.822	6722.63
665.014	6663.24
665.205	6726.72
665.397	6698.05
665.588	6487.11
665.78	6456.39
665.971	6530.12
666.163	6392.91
666.354	6536.26
666.546	6523.98
666.737	6284.36
666.929	6335.56
667.12	6480.97
667.311	6339.66
667.503	6124.62
667.694	6249.55
667.885	6235.21
668.077	6202.44
668.268	6145.1
668.459	6134.86
668.651	5936.21
668.842	6100.05
669.033	5813.33
669.224	6036.56
669.416	6098
669.607	5923.92
669.798	5952.59
669.989	5966.93
670.18	5780.56
670.371	6075.47
670.563	5848.15
670.754	5798.99
670.945	5688.4
671.136	5747.79
671.327	5737.56
671.518	5659.73
671.709	5737.56
671.9	5659.73
672.091	5665.88
672.282	5692.5
672.473	5461.08
672.664	5657.68
672.855	5538.9
673.046	5567.57
673.237	5669.97
673.428	5551.19
673.619	5469.27
673.809	5489.75
674	5555.29
674.191	5514.33
674.382	5356.63
674.573	5497.94
674.764	5317.72
674.954	5375.06
675.145	5334.11
675.336	5299.29
675.527	5162.08
675.717	5274.71
675.908	5209.18
676.099	5315.67
676.289	5258.33
676.48	5381.21
676.671	5383.26
676.861	5229.66
677.052	5217.37
677.243	5084.25
677.433	5196.89
677.624	5059.68
677.814	5082.21
678.005	5229.66
678.195	5172.32
678.386	5108.83
678.576	5092.44
678.767	5108.83
678.957	5090.4
679.148	5119.07
679.338	5002.33
679.529	4977.76
679.719	5104.73
679.909	5031.01
680.1	4969.57
680.29	4852.83
680.481	4983.9
680.671	4881.5
680.861	4949.09
681.052	4740.19
681.242	5031.01
681.432	4985.95
681.622	4979.81
681.813	4863.07
682.003	4883.55
682.193	4838.5
682.383	5010.53
682.573	4832.35
682.764	4801.63
682.954	4926.56
683.144	4844.64
683.334	4842.59
683.524	4689
683.714	4705.38
683.904	4645.99
684.094	4838.5
684.284	4674.66
684.474	4873.31
684.664	4547.69
684.854	4777.06
685.044	4615.27
685.234	4580.45
685.424	4578.4
685.614	4680.8
685.804	4641.89
685.994	4609.12
686.184	4703.33
686.374	4703.33
686.564	4514.92
686.753	4545.64
686.943	4519.01
687.133	4465.77
687.323	4433
687.513	4482.15
687.702	4363.37
687.892	4445.29
688.082	4437.09
688.272	4361.32
688.461	4357.22
688.651	4455.53
688.841	4299.88
689.03	4381.8
689.22	4289.64
689.41	4250.73
689.599	4355.18
689.789	4281.45
689.979	4213.87
690.168	4183.15
690.358	4142.19
690.547	4201.58
690.737	4183.15
690.926	4090.99
691.116	4095.08
691.305	4207.72
691.495	4017.26
691.684	4021.36
691.874	3976.3
692.063	3996.78
692.252	4060.27
692.442	4101.23
692.631	4041.84
692.82	3980.4
693.01	3964.01
693.199	3929.2
693.388	3853.42
693.578	3974.25
693.767	3947.63
693.956	3884.14
694.146	3765.36
694.335	3751.03
694.524	3871.86
694.713	3869.81
694.902	3976.3
695.092	3853.42
695.281	3708.02
695.47	3769.46
695.659	3878
695.848	3753.07
696.037	3763.31
696.226	3732.59
696.415	3728.5
696.604	3712.11
696.793	3671.15
696.982	3626.1
697.171	3695.73
697.36	3665.01
697.549	3609.72
697.738	3699.83
697.927	3665.01
698.116	3742.83
698.305	3601.52
698.494	3622
698.683	3712.11
698.872	3525.75
699.061	3568.76
699.25	3535.99
699.438	3449.97
699.627	3527.8
699.816	3632.24
700.005	3445.88
700.193	3671.15
700.382	3646.58
700.571	3550.32
700.76	3617.91
700.948	3533.94
701.137	3535.99
701.326	3523.7
701.514	3558.52
701.703	3529.84
701.892	3390.58
702.08	3544.18
702.269	3400.82
702.457	3388.53
702.646	3544.18
702.834	3370.1
703.023	3351.67
703.212	3454.07
703.4	3460.21
703.589	3277.94
703.777	3343.48
703.965	3384.44
704.154	3550.32
704.342	3263.61
704.531	3308.66
704.719	3404.92
704.907	3449.97
705.096	3380.34
705.284	3380.34
705.472	3390.58
705.661	3337.34
705.849	3349.62
706.037	3241.08
706.226	3267.7
706.414	3363.96
706.602	3292.28
706.79	3439.73
706.979	3353.72
707.167	3343.48
707.355	3318.9
707.543	3357.82
707.731	3443.83
707.919	3193.98
708.107	3234.94
708.296	3329.14
708.484	3226.75
708.672	3282.04
708.86	3275.9
709.048	3263.61
709.236	3288.18
709.424	3273.85
709.612	3302.52
709.8	3222.65
709.988	3259.51
710.176	3427.45
710.364	3267.7
710.551	3353.72
710.739	3327.1
710.927	3300.47
711.115	3161.21
711.303	3189.88
711.491	3191.93
711.679	3179.64
711.866	3245.18
712.054	3308.66
712.242	3241.08
712.43	3157.11
712.617	3181.69
712.805	3089.53
712.993	3167.35
713.181	3249.27
713.368	3292.28
713.556	3214.46
713.744	3019.9
713.931	3136.63
714.119	3196.03
714.306	3167.35
714.494	3159.16
714.682	3153.02
714.869	3091.58
715.057	3183.74
715.244	3142.78
715.432	3095.68
715.619	3163.26
715.807	3277.94
715.994	3216.51
716.182	3122.3
716.369	3157.11
716.556	3107.96
716.744	3134.59
716.931	3236.99
717.119	3167.35
717.306	3204.22
717.493	3165.31
717.681	3056.76
717.868	3116.16
718.055	3150.97
718.242	3153.02
718.43	3136.63
718.617	3097.72
718.804	3114.11
718.991	3183.74
719.179	3163.26
719.366	3067
719.553	3021.95
719.74	3048.57
719.927	3048.57
720.114	3005.56
720.301	3040.38
720.488	3048.57
720.676	3075.2
720.863	3015.8
721.05	3128.44
721.237	3060.86
721.424	3005.56
721.611	3155.07
721.798	3036.28
721.985	2966.65
722.172	2970.75
722.358	3067
722.545	2976.89
722.732	2983.04
722.919	3021.95
723.106	2972.8
723.293	3021.95
723.48	2980.99
723.667	3034.24
723.853	2829.44
724.04	2897.02
724.227	2985.09
724.414	3054.72
724.6	2987.13
724.787	3048.57
724.974	2964.61
725.161	2944.13
725.347	2911.36
725.534	2937.98
725.72	2866.3
725.907	3034.24
726.094	3085.44
726.28	2856.06
726.467	2901.12
726.653	2892.93
726.84	2942.08
727.027	2942.08
727.213	2768
727.4	3083.39
727.586	2899.07
727.773	2815.1
727.959	2903.17
728.145	2884.73
728.332	2905.21
728.518	2890.88
728.705	2899.07
728.891	2780.29
729.077	2894.97
729.264	2856.06
729.45	2823.3
729.636	2839.68
729.823	2790.53
730.009	2854.02
730.195	2880.64
730.382	2843.78
730.568	2894.97
730.754	2870.4
730.94	2808.96
731.126	2872.45
731.313	2794.62
731.499	2854.02
731.685	2686.08
731.871	2983.04
732.057	2745.47
732.243	2776.19
732.429	2761.86
732.615	2819.2
732.801	2890.88
732.987	2753.66
733.173	2710.66
733.359	2704.51
733.545	2776.19
733.731	2761.86
733.917	2737.28
734.103	2604.16
734.289	2827.39
734.475	2776.19
734.661	2802.82
734.847	2724.99
735.033	2696.32
735.219	2751.62
735.404	2681.99
735.59	2653.31
735.776	2675.84
735.962	2696.32
736.148	2667.65
736.333	2647.17
736.519	2630.79
736.705	2512
736.89	2661.51
737.076	2702.47
737.262	2528.39
737.447	2659.46
737.633	2774.14
737.819	2585.73
738.004	2559.11
738.19	2614.4
738.375	2606.21
738.561	2655.36
738.747	2610.31
738.932	2540.68
739.118	2692.23
739.303	2544.77
739.489	2610.31
739.674	2544.77
739.859	2548.87
740.045	2487.43
740.23	2563.2
740.416	2530.44
740.601	2475.14
740.786	2442.37
740.972	2479.24
741.157	2440.33
741.342	2436.23
741.528	2442.37
741.713	2497.67
741.898	2421.89
742.084	2389.13
742.269	2450.57
742.454	2417.8
742.639	2522.24
742.824	2448.52
743.01	2335.88
743.195	2397.32
743.38	2382.98
743.565	2346.12
743.75	2425.99
743.935	2256.01
744.12	2413.7
744.305	2378.89
744.49	2280.58
744.675	2196.62
744.86	2268.3
745.045	2278.54
745.23	2245.77
745.415	2221.19
745.6	2382.98
745.785	2104.46
745.97	2141.32
746.155	2260.1
746.34	2260.1
746.525	2114.7
746.71	2122.89
746.895	2143.37
747.079	2131.08
747.264	2114.7
747.449	2094.22
747.634	2286.73
747.819	2139.27
748.003	2061.45
748.188	1905.81
748.373	2065.55
748.557	2022.54
748.742	1961.1
748.927	1969.29
749.111	1932.43
749.296	1934.48
749.481	1926.29
749.665	1852.56
749.85	1838.22
750.034	2000.01
750.219	1895.57
750.404	1934.48
750.588	1883.28
750.773	1848.46
750.957	1817.74
751.141	1748.11
751.326	1770.64
751.51	1809.55
751.695	1842.32
751.879	1750.16
752.064	1827.98
752.248	1844.37
752.432	1762.45
752.617	1780.88
752.801	1782.93
752.985	1746.06
753.17	1705.1
753.354	1606.8
753.538	1701.01
753.722	1752.21
753.907	1660.05
754.091	1584.27
754.275	1666.19
754.459	1539.22
754.643	1639.57
754.828	1594.51
755.012	1537.17
755.196	1598.61
755.38	1512.6
755.564	1492.12
755.748	1555.6
755.932	1539.22
756.116	1516.69
756.3	1522.84
756.484	1512.6
756.668	1479.83
756.852	1442.96
757.036	1498.26
757.22	1459.35
757.404	1467.54
757.588	1369.24
757.772	1397.91
757.956	1451.16
758.14	1453.2
758.323	1391.77
758.507	1383.57
758.691	1397.91
758.875	1383.57
759.059	1422.48
759.242	1315.99
759.426	1402.01
759.61	1377.43
759.794	1283.22
759.977	1287.32
760.161	1365.14
760.345	1328.28
760.528	1270.94
760.712	1277.08
760.895	1287.32
761.079	1225.88
761.263	1320.09
761.446	1330.33
761.63	1262.74
761.813	1281.18
761.997	1180.82
762.18	1189.02
762.364	1189.02
762.547	1197.21
762.731	1248.41
762.914	1176.73
763.098	1238.17
763.281	1209.5
763.464	1180.82
763.648	1164.44
763.831	1189.02
764.015	1066.14
764.198	1236.12
764.381	1201.3
764.564	1131.67
764.748	1129.63
764.931	1098.91
765.114	1074.33
765.297	1123.48
765.481	1076.38
765.664	1131.67
765.847	1043.61
766.03	990.36
766.213	1113.24
766.397	1174.68
766.58	1025.18
766.763	992.41
766.946	1004.7
767.129	1080.47
767.312	1092.76
767.495	1049.75
767.678	963.74
767.861	1029.27
768.044	1115.29
768.227	1027.23
768.41	1059.99
768.593	1006.75
768.776	994.46
768.959	918.68
769.142	1160.34
769.324	1025.18
769.507	1049.75
769.69	875.68
769.873	980.12
770.056	971.93
770.239	969.88
770.421	1062.04
770.604	935.07
770.787	933.02
770.97	996.51
771.152	965.79
771.335	887.97
771.518	877.73
771.7	1012.89
771.883	890.01
772.066	908.44
772.248	885.92
772.431	1008.8
772.613	916.64
772.796	887.97
772.978	904.35
773.161	902.3
773.343	867.49
773.526	851.1
773.708	824.48
773.891	816.29
774.073	756.9
774.256	916.64
774.438	918.68
774.621	922.78
774.803	867.49
774.985	773.28
775.168	836.77
775.35	881.82
775.532	844.96
775.715	791.71
775.897	894.11
776.079	812.19
776.261	808.09
776.444	720.03
776.626	855.2
776.808	793.76
776.99	760.99
777.173	771.23
777.355	722.08
777.537	787.61
777.719	707.74
777.901	699.55
778.083	783.52
778.265	674.98
778.447	750.75
778.629	697.5
778.811	717.98
778.993	697.5
779.175	650.4
779.357	783.52
779.539	740.51
779.721	701.6
779.903	672.93
780.085	717.98
780.267	703.65
780.449	685.22
780.631	695.46
780.812	713.89
780.994	650.4
781.176	599.2
781.358	699.55
781.54	619.68
781.721	627.87
781.903	617.63
782.085	566.43
782.267	656.54
782.448	548
782.63	558.24
782.812	572.58
782.993	670.88
783.175	552.1
783.357	545.95
783.538	586.91
783.72	580.77
783.901	498.85
784.083	638.11
784.264	529.57
784.446	537.76
784.627	566.43
784.809	607.39
784.99	545.95
785.172	582.82
785.353	490.66
785.535	504.99
785.716	564.39
785.897	437.41
786.079	453.8
786.26	492.71
786.441	515.23
786.623	486.56
786.804	484.52
786.985	488.61
787.167	464.04
787.348	517.28
787.529	478.37
787.71	423.08
787.891	429.22
788.073	457.89
788.254	380.07
788.435	484.52
788.616	427.17
788.797	459.94
788.978	482.47
789.159	427.17
789.34	492.71
789.522	373.92
789.703	556.19
789.884	449.7
790.065	470.18
790.246	421.03
790.427	496.8
790.607	384.16
790.788	461.99
790.969	461.99
791.15	314.53
791.331	375.97
791.512	361.64
791.693	410.79
791.874	410.79
792.054	408.74
792.235	455.84
792.416	396.45
792.597	347.3
792.778	402.6
792.958	378.02
793.139	312.49
793.32	328.87
793.5	314.53
793.681	347.3
793.862	412.84
794.042	351.4
794.223	375.97
794.404	435.36
794.584	384.16
794.765	326.82
794.945	355.49
795.126	361.64
795.306	326.82
795.487	355.49
795.667	314.53
795.848	324.77
796.028	314.53
796.209	369.83
796.389	371.88
796.57	310.44
796.75	281.77
796.93	304.29
797.111	279.72
797.291	277.67
797.471	318.63
797.652	349.35
797.832	212.14
798.012	322.73
798.192	283.81
798.373	279.72
798.553	273.57
798.733	363.69
798.913	269.48
799.093	283.81
799.274	310.44
799.454	257.19
799.634	251.05
799.814	294.05
799.994	298.15
800.174	308.39
800.354	267.43
800.534	308.39
800.714	304.29
800.894	316.58
801.074	265.38
801.254	244.9
801.434	365.73
801.614	240.81
801.794	205.99
801.974	851.1
802.154	246.95
802.334	242.85
802.514	253.09
802.693	208.04
802.873	214.18
803.053	244.9
803.233	236.71
803.413	240.81
803.592	148.65
803.772	249
803.952	259.24
804.131	234.66
804.311	283.81
804.491	224.42
804.67	205.99
804.85	345.25
805.03	226.47
805.209	263.33
805.389	210.09
805.568	167.08
805.748	328.87
805.928	275.62
806.107	269.48
806.287	259.24
806.466	199.85
806.646	197.8
806.825	195.75
807.004	236.71
807.184	197.8
807.363	253.09
807.543	296.1
807.722	193.7
807.901	244.9
808.081	308.39
808.26	177.32
808.439	228.52
808.619	251.05
808.798	111.78
808.977	226.47
809.156	226.47
809.336	300.2
809.515	263.33
809.694	105.64
809.873	193.7
810.052	222.38
810.231	197.8
810.411	234.66
810.59	193.7
810.769	173.22
810.948	205.99
811.127	152.74
811.306	156.84
811.485	201.9
811.664	287.91
811.843	140.46
812.022	240.81
812.201	173.22
812.38	158.89
812.559	210.09
812.737	144.55
812.916	105.64
813.095	197.8
813.274	181.42
813.453	259.24
813.632	242.85
813.811	177.32
813.989	191.66
814.168	236.71
814.347	148.65
814.526	134.31
814.704	220.33
814.883	255.14
815.062	197.8
815.24	165.03
815.419	156.84
815.598	201.9
815.776	138.41
815.955	132.26
816.133	128.17
816.312	158.89
816.49	105.64
816.669	144.55
816.847	122.02
817.026	193.7
817.204	193.7
817.383	136.36
817.561	79.02
817.74	66.73
817.918	203.94
818.097	150.7
818.275	179.37
818.453	173.22
818.632	171.18
818.81	132.26
818.988	115.88
819.167	128.17
819.345	140.46
819.523	173.22
819.701	181.42
819.879	173.22
820.058	162.98
820.236	169.13
820.414	70.83
820.592	122.02
820.77	124.07
820.948	142.5
821.127	167.08
821.305	152.74
821.483	148.65
821.661	189.61
821.839	136.36
822.017	85.16
822.195	83.11
822.373	152.74
822.551	136.36
822.729	146.6
822.907	115.88
823.085	169.13
823.262	144.55
823.44	48.3
823.618	93.35
823.796	148.65
823.974	158.89
824.152	76.97
824.329	126.12
824.507	83.11
824.685	173.22
824.863	115.88
825.04	115.88
825.218	142.5
825.396	93.35
825.574	136.36
825.751	87.21
825.929	175.27
826.107	134.31
826.284	72.87
826.462	52.39
826.639	42.15
826.817	89.26
826.994	124.07
827.172	103.59
827.349	138.41
827.527	160.94
827.704	56.49
827.882	107.69
828.059	103.59
828.237	99.5
828.414	158.89
828.591	17.58
828.769	113.83
828.946	58.54
829.124	81.07
829.301	95.4
829.478	113.83
829.655	158.89
829.833	117.93
830.01	64.68
830.187	83.11
830.364	70.83
830.542	117.93
830.719	136.36
830.896	126.12
831.073	132.26
831.25	46.25
831.427	107.69
831.604	111.78
831.782	52.39
831.959	117.93
832.136	119.98
832.313	122.02
832.49	27.82
832.667	101.55
832.844	103.59
833.021	138.41
833.198	130.22
833.374	74.92
833.551	83.11
833.728	33.96
833.905	74.92
834.082	54.44
834.259	113.83
834.436	148.65
834.612	83.11
834.789	165.03
834.966	62.63
835.143	83.11
835.319	105.64
835.496	138.41
835.673	103.59
835.85	79.02
836.026	87.21
836.203	107.69
836.38	62.63
836.556	70.83
836.733	58.54
836.909	179.37
837.086	101.55
837.262	50.35
837.439	115.88
837.616	109.74
837.792	99.5
837.968	56.49
838.145	-19.29
838.321	97.45
838.498	66.73
838.674	50.35
838.851	103.59
839.027	97.45
839.203	83.11
839.38	99.5
839.556	81.07
839.732	48.3
839.909	54.44
840.085	87.21
840.261	27.82
840.437	99.5
840.614	97.45
840.79	128.17
840.966	124.07
841.142	40.11
841.318	85.16
841.494	48.3
841.671	38.06
841.847	66.73
842.023	66.73
842.199	93.35
842.375	44.2
842.551	68.78
842.727	54.44
842.903	107.69
843.079	89.26
843.255	140.46
843.431	-21.33
843.607	74.92
843.783	-45.91
843.959	62.63
844.134	54.44
844.31	111.78
844.486	50.35
844.662	58.54
844.838	-9.05
845.013	101.55
845.189	17.58
845.365	46.25
845.541	115.88
845.716	122.02
845.892	50.35
846.068	83.11
846.244	27.82
846.419	72.87
846.595	1.19
846.77	-62.29
846.946	66.73
847.122	95.4
847.297	33.96
847.473	46.25
847.648	23.72
847.824	38.06
847.999	-39.76
848.175	167.08
848.35	81.07
848.526	23.72
848.701	56.49
848.876	58.54
849.052	97.45
849.227	64.68
849.403	27.82
849.578	36.01
849.753	97.45
849.929	38.06
850.104	44.2
850.279	-13.14
850.454	-7
850.63	60.59
850.805	66.73
850.98	5.29
851.155	38.06
851.33	-15.19
851.505	5.29
851.681	101.55
851.856	33.96
852.031	38.06
852.206	42.15
852.381	29.87
852.556	56.49
852.731	95.4
852.906	-23.38
853.081	44.2
853.256	83.11
853.431	117.93
853.606	-2.9
853.781	5.29
853.956	-15.19
854.131	9.39
854.305	27.82
854.48	44.2
854.655	7.34
854.83	38.06
855.005	11.43
855.18	48.3
855.354	-23.38
855.529	15.53
855.704	21.67
855.879	64.68
856.053	33.96
856.228	64.68
856.403	40.11
856.577	25.77
856.752	-23.38
856.926	7.34
857.101	33.96
857.276	66.73
857.45	54.44
857.625	31.91
857.799	15.53
857.974	46.25
858.148	-82.77
858.323	21.67
858.497	-64.34
858.672	50.35
858.846	-31.57
859.02	9.39
859.195	54.44
859.369	1.19
859.543	74.92
859.718	38.06
859.892	58.54
860.066	15.53
860.241	66.73
860.415	29.87
860.589	76.97
860.763	5.29
860.938	50.35
861.112	15.53
861.286	66.73
861.46	91.31
861.634	-7
861.808	52.39
861.982	-4.95
862.157	-0.85
862.331	40.11
862.505	-37.72
862.679	50.35
862.853	58.54
863.027	21.67
863.201	95.4
863.375	58.54
863.549	54.44
863.722	33.96
863.896	91.31
864.07	-0.85
864.244	23.72
864.418	56.49
864.592	99.5
864.766	-29.52
864.939	81.07
865.113	54.44
865.287	3.24
865.461	-7
865.634	-23.38
865.808	-84.82
865.982	-31.57
866.156	-45.91
866.329	60.59
866.503	66.73
866.676	64.68
866.85	27.82
867.024	-21.33
867.197	1.19
867.371	-47.96
867.544	33.96
867.718	-56.15
867.891	31.91
868.065	25.77
868.238	-82.77
868.412	48.3
868.585	56.49
868.759	21.67
868.932	50.35
869.105	-2.9
869.279	79.02
869.452	-15.19
869.625	68.78
869.799	74.92
869.972	9.39
870.145	-23.38
870.319	81.07
870.492	27.82
870.665	25.77
870.838	58.54
871.011	25.77
871.185	-19.29
871.358	66.73
871.531	-33.62
871.704	33.96
871.877	-17.24
872.05	44.2
872.223	13.48
872.396	-19.29
872.569	-35.67
872.742	60.59
872.915	60.59
873.088	9.39
873.261	-9.05
873.434	13.48
873.607	11.43
873.78	-88.92
873.953	-0.85
874.126	-4.95
874.299	62.63
874.471	23.72
874.644	11.43
874.817	-0.85
874.99	72.87
875.163	81.07
875.335	13.48
875.508	5.29
875.681	29.87
875.853	46.25
876.026	64.68
876.199	21.67
876.371	42.15
876.544	-25.43
876.717	23.72
876.889	-19.29
877.062	70.83
877.234	-23.38
877.407	15.53
877.579	-19.29
877.752	-13.14
877.924	58.54
878.097	95.4
878.269	64.68
878.442	54.44
878.614	17.58
878.786	-15.19
878.959	54.44
879.131	93.35
879.303	-66.39
879.476	25.77
879.648	58.54
879.82	66.73
879.993	-45.91
880.165	-15.19
880.337	-35.67
880.509	13.48
880.681	-15.19
880.854	11.43
881.026	48.3
881.198	66.73
881.37	38.06
881.542	11.43
881.714	17.58
881.886	1.19
882.058	58.54
882.23	-17.24
882.402	56.49
882.574	50.35
882.746	17.58
882.918	25.77
883.09	-21.33
883.262	46.25
883.434	48.3
883.606	-60.24
883.778	15.53
883.95	60.59
884.122	11.43
884.293	38.06
884.465	19.63
884.637	56.49
884.809	-23.38
884.98	-47.96
885.152	27.82
885.324	76.97
885.496	-68.44
885.667	23.72
885.839	38.06
886.011	54.44
886.182	-4.95
886.354	23.72
886.525	50.35
886.697	-27.48
886.869	-13.14
887.04	9.39
887.212	15.53
887.383	-9.05
887.555	3.24
887.726	-15.19
887.897	-31.57
888.069	-58.2
888.24	21.67
888.412	1.19
888.583	-15.19
888.754	33.96
888.926	-4.95
889.097	-52.05
889.268	-52.05
889.44	-7
889.611	-15.19
889.782	-13.14
889.953	-41.81
890.125	17.58
890.296	23.72
890.467	23.72
890.638	-25.43
890.809	-29.52
890.98	25.77
891.151	33.96
891.323	31.91
891.494	25.77
891.665	42.15
891.836	-23.38
892.007	1.19
892.178	19.63
892.349	-7
892.52	-58.2
892.691	-23.38
892.862	9.39
893.032	29.87
893.203	31.91
893.374	-54.1
893.545	70.83
893.716	1.19
893.887	19.63
894.057	-43.86
894.228	17.58
894.399	-33.62
894.57	83.11
894.74	-15.19
894.911	-15.19
895.082	-19.29
895.253	-19.29
895.423	-35.67
895.594	25.77
895.764	-0.85
895.935	50.35
896.106	56.49
896.276	-7
896.447	44.2
896.617	19.63
896.788	25.77
896.958	76.97
897.129	-9.05
897.299	-7
897.47	27.82
897.64	17.58
897.81	1.19
897.981	38.06
898.151	-17.24
898.322	-9.05
898.492	79.02
898.662	-60.24
898.832	-2.9
899.003	-15.19
899.173	-62.29
899.343	-2.9
899.513	-50
