Data from USB4F104151__186__10-27-56-387.txt Node

Date: Wed Mar 12 10:27:56 EDT 2025
User: louis
Spectrometer: USB4F10415
Trigger mode: 4
Integration Time (sec): 3.000000E-2
Scans to average: 1
Electric dark correction enabled: true
Nonlinearity correction enabled: false
Boxcar width: 0
XAxis mode: Wavelengths
Number of Pixels in Spectrum: 3648
>>>>>Begin Spectral Data<<<<<
178.204	-195.75
178.424	-195.75
178.644	-195.75
178.864	-54.44
179.084	-113.83
179.304	-3.24
179.524	2.9
179.744	-27.82
179.964	4.95
180.184	-81.07
180.404	-5.29
180.624	50
180.844	-3.24
181.064	-42.15
181.283	17.24
181.503	35.67
181.723	52.05
181.943	-58.54
182.163	60.24
182.383	-25.77
182.602	60.24
182.822	-36.01
183.042	-27.82
183.262	-40.11
183.482	11.09
183.701	35.67
183.921	31.57
184.141	33.62
184.361	13.14
184.58	-31.91
184.8	17.24
185.02	-17.58
185.239	17.24
185.459	35.67
185.679	29.52
185.898	-50.35
186.118	4.95
186.338	13.14
186.557	-21.67
186.777	-19.63
186.997	-48.3
187.216	41.81
187.436	25.43
187.655	9.05
187.875	50
188.095	68.44
188.314	86.87
188.534	27.48
188.753	-11.43
188.973	54.1
189.192	47.96
189.412	15.19
189.631	43.86
189.851	45.91
190.07	101.2
190.29	15.19
190.509	80.72
190.729	-21.67
190.948	123.73
191.168	113.49
191.387	62.29
191.607	-27.82
191.826	0.85
192.045	15.19
192.265	0.85
192.484	35.67
192.704	0.85
192.923	60.24
193.142	84.82
193.362	43.86
193.581	58.2
193.8	27.48
194.02	29.52
194.239	60.24
194.458	62.29
194.678	66.39
194.897	72.53
195.116	13.14
195.335	29.52
195.555	-9.39
195.774	33.62
195.993	13.14
196.212	39.76
196.432	-3.24
196.651	17.24
196.87	41.81
197.089	37.72
197.308	45.91
197.528	72.53
197.747	-19.63
197.966	17.24
198.185	11.09
198.404	37.72
198.623	11.09
198.842	54.1
199.062	58.2
199.281	103.25
199.5	52.05
199.719	119.64
199.938	93.01
200.157	70.48
200.376	-21.67
200.595	21.33
200.814	-13.48
201.033	-23.72
201.252	-1.19
201.471	86.87
201.69	35.67
201.909	-23.72
202.128	-29.87
202.347	-3.24
202.566	-25.77
202.785	37.72
203.004	39.76
203.223	90.96
203.442	45.91
203.661	29.52
203.879	19.29
204.098	-11.43
204.317	-27.82
204.536	9.05
204.755	74.58
204.974	13.14
205.193	-3.24
205.411	86.87
205.63	56.15
205.849	33.62
206.068	90.96
206.287	17.24
206.505	41.81
206.724	23.38
206.943	0.85
207.162	23.38
207.381	-7.34
207.599	37.72
207.818	-21.67
208.037	17.24
208.255	39.76
208.474	33.62
208.693	25.43
208.911	111.44
209.13	97.11
209.349	7
209.567	-3.24
209.786	11.09
210.005	-1.19
210.223	9.05
210.442	-56.49
210.661	54.1
210.879	11.09
211.098	35.67
211.316	64.34
211.535	-11.43
211.753	29.52
211.972	58.2
212.191	62.29
212.409	13.14
212.628	19.29
212.846	-56.49
213.065	47.96
213.283	31.57
213.502	-31.91
213.72	64.34
213.938	-3.24
214.157	-74.92
214.375	-3.24
214.594	41.81
214.812	54.1
215.031	7
215.249	4.95
215.467	115.54
215.686	-60.59
215.904	43.86
216.122	9.05
216.341	74.58
216.559	19.29
216.778	37.72
216.996	29.52
217.214	60.24
217.432	-11.43
217.651	56.15
217.869	25.43
218.087	17.24
218.306	-11.43
218.524	25.43
218.742	35.67
218.96	11.09
219.179	-9.39
219.397	25.43
219.615	13.14
219.833	76.63
220.051	-9.39
220.27	113.49
220.488	-52.39
220.706	70.48
220.924	-7.34
221.142	-27.82
221.36	-5.29
221.578	76.63
221.796	-66.73
222.015	50
222.233	-17.58
222.451	115.54
222.669	-27.82
222.887	64.34
223.105	-5.29
223.323	-7.34
223.541	58.2
223.759	43.86
223.977	-62.63
224.195	133.97
224.413	17.24
224.631	19.29
224.849	54.1
225.067	58.2
225.285	35.67
225.503	52.05
225.721	2.9
225.939	0.85
226.157	-31.91
226.375	111.44
226.592	0.85
226.81	-56.49
227.028	95.06
227.246	17.24
227.464	31.57
227.682	62.29
227.9	-11.43
228.117	111.44
228.335	-3.24
228.553	54.1
228.771	13.14
228.989	62.29
229.206	7
229.424	-62.63
229.642	43.86
229.86	-15.53
230.077	-15.53
230.295	25.43
230.513	127.83
230.731	2.9
230.948	-23.72
231.166	33.62
231.384	70.48
231.601	0.85
231.819	-58.54
232.037	-7.34
232.254	-40.11
232.472	-3.24
232.689	-52.39
232.907	54.1
233.125	37.72
233.342	0.85
233.56	-60.59
233.777	-3.24
233.995	27.48
234.213	4.95
234.43	41.81
234.648	21.33
234.865	56.15
235.083	23.38
235.3	15.19
235.518	78.68
235.735	-3.24
235.953	54.1
236.17	-7.34
236.388	50
236.605	41.81
236.822	58.2
237.04	80.72
237.257	-46.25
237.475	25.43
237.692	11.09
237.909	-40.11
238.127	0.85
238.344	58.2
238.562	-21.67
238.779	60.24
238.996	-52.39
239.214	31.57
239.431	45.91
239.648	-29.87
239.865	62.29
240.083	-13.48
240.3	41.81
240.517	-19.63
240.735	78.68
240.952	47.96
241.169	39.76
241.386	88.92
241.603	11.09
241.821	2.9
242.038	-11.43
242.255	54.1
242.472	21.33
242.689	-7.34
242.907	82.77
243.124	-29.87
243.341	105.3
243.558	7
243.775	-1.19
243.992	-44.2
244.209	-11.43
244.426	58.2
244.643	142.16
244.86	25.43
245.078	60.24
245.295	43.86
245.512	-33.96
245.729	37.72
245.946	35.67
246.163	37.72
246.38	41.81
246.597	-19.63
246.814	9.05
247.031	2.9
247.248	47.96
247.464	54.1
247.681	17.24
247.898	78.68
248.115	-1.19
248.332	47.96
248.549	99.16
248.766	50
248.983	41.81
249.2	64.34
249.417	-3.24
249.633	-29.87
249.85	19.29
250.067	13.14
250.284	-15.53
250.501	62.29
250.717	45.91
250.934	68.44
251.151	33.62
251.368	19.29
251.585	66.39
251.801	-9.39
252.018	13.14
252.235	-19.63
252.451	-44.2
252.668	-23.72
252.885	62.29
253.102	0.85
253.318	27.48
253.535	66.39
253.752	70.48
253.968	-46.25
254.185	-52.39
254.401	58.2
254.618	33.62
254.835	4.95
255.051	58.2
255.268	62.29
255.484	45.91
255.701	25.43
255.917	115.54
256.134	-54.44
256.351	-3.24
256.567	39.76
256.784	15.19
257	39.76
257.217	15.19
257.433	25.43
257.65	45.91
257.866	70.48
258.082	15.19
258.299	52.05
258.515	88.92
258.732	9.05
258.948	33.62
259.165	58.2
259.381	-11.43
259.597	125.78
259.814	54.1
260.03	9.05
260.246	31.57
260.463	37.72
260.679	29.52
260.895	56.15
261.112	-44.2
261.328	19.29
261.544	-31.91
261.761	29.52
261.977	0.85
262.193	-40.11
262.409	-11.43
262.626	21.33
262.842	25.43
263.058	25.43
263.274	86.87
263.49	-9.39
263.707	-23.72
263.923	56.15
264.139	15.19
264.355	13.14
264.571	68.44
264.787	-36.01
265.004	13.14
265.22	17.24
265.436	56.15
265.652	-17.58
265.868	43.86
266.084	-72.87
266.3	103.25
266.516	-42.15
266.732	-27.82
266.948	37.72
267.164	82.77
267.38	13.14
267.596	31.57
267.812	17.24
268.028	37.72
268.244	-3.24
268.46	-40.11
268.676	-11.43
268.892	84.82
269.108	-11.43
269.324	-19.63
269.54	-50.35
269.756	50
269.972	-52.39
270.188	29.52
270.403	37.72
270.619	25.43
270.835	-33.96
271.051	58.2
271.267	19.29
271.483	88.92
271.698	-25.77
271.914	35.67
272.13	2.9
272.346	66.39
272.562	68.44
272.777	27.48
272.993	54.1
273.209	90.96
273.425	45.91
273.64	25.43
273.856	-27.82
274.072	37.72
274.287	45.91
274.503	27.48
274.719	13.14
274.934	-29.87
275.15	-60.59
275.366	50
275.581	9.05
275.797	50
276.012	21.33
276.228	70.48
276.444	62.29
276.659	19.29
276.875	35.67
277.09	39.76
277.306	-68.78
277.521	11.09
277.737	35.67
277.952	35.67
278.168	7
278.383	86.87
278.599	50
278.814	27.48
279.03	-3.24
279.245	25.43
279.461	37.72
279.676	-3.24
279.892	0.85
280.107	7
280.322	-7.34
280.538	33.62
280.753	-60.59
280.969	54.1
281.184	4.95
281.399	82.77
281.615	41.81
281.83	60.24
282.045	2.9
282.26	-3.24
282.476	43.86
282.691	82.77
282.906	-42.15
283.122	-50.35
283.337	-29.87
283.552	41.81
283.767	-58.54
283.983	144.21
284.198	29.52
284.413	103.25
284.628	9.05
284.843	41.81
285.058	23.38
285.274	78.68
285.489	-13.48
285.704	84.82
285.919	-3.24
286.134	35.67
286.349	80.72
286.564	-11.43
286.779	74.58
286.995	13.14
287.21	-21.67
287.425	39.76
287.64	43.86
287.855	0.85
288.07	25.43
288.285	-3.24
288.5	43.86
288.715	21.33
288.93	23.38
289.145	4.95
289.36	138.07
289.575	58.2
289.79	25.43
290.004	64.34
290.219	82.77
290.434	33.62
290.649	43.86
290.864	-7.34
291.079	52.05
291.294	-21.67
291.509	60.24
291.724	19.29
291.938	4.95
292.153	25.43
292.368	21.33
292.583	-19.63
292.798	95.06
293.012	93.01
293.227	62.29
293.442	-5.29
293.657	56.15
293.871	2.9
294.086	-66.73
294.301	39.76
294.516	60.24
294.73	129.88
294.945	-5.29
295.16	-3.24
295.374	37.72
295.589	142.16
295.804	35.67
296.018	-21.67
296.233	33.62
296.447	58.2
296.662	-7.34
296.877	4.95
297.091	78.68
297.306	50
297.52	-48.3
297.735	29.52
297.949	-5.29
298.164	101.2
298.378	74.58
298.593	25.43
298.807	-74.92
299.022	66.39
299.236	64.34
299.451	27.48
299.665	-46.25
299.88	27.48
300.094	111.44
300.309	82.77
300.523	19.29
300.737	33.62
300.952	72.53
301.166	-17.58
301.381	27.48
301.595	2.9
301.809	-29.87
302.024	-54.44
302.238	45.91
302.452	76.63
302.667	2.9
302.881	13.14
303.095	21.33
303.309	19.29
303.524	-33.96
303.738	-36.01
303.952	25.43
304.166	64.34
304.381	17.24
304.595	74.58
304.809	103.25
305.023	-7.34
305.237	37.72
305.452	-25.77
305.666	21.33
305.88	115.54
306.094	2.9
306.308	7
306.522	121.68
306.736	4.95
306.95	-1.19
307.164	47.96
307.379	11.09
307.593	115.54
307.807	107.35
308.021	70.48
308.235	76.63
308.449	-31.91
308.663	60.24
308.877	19.29
309.091	68.44
309.305	90.96
309.519	21.33
309.733	68.44
309.947	13.14
310.161	2.9
310.374	41.81
310.588	37.72
310.802	27.48
311.016	64.34
311.23	50
311.444	23.38
311.658	-7.34
311.872	82.77
312.085	76.63
312.299	45.91
312.513	107.35
312.727	70.48
312.941	11.09
313.154	19.29
313.368	62.29
313.582	39.76
313.796	52.05
314.009	0.85
314.223	72.53
314.437	74.58
314.651	62.29
314.864	78.68
315.078	23.38
315.292	93.01
315.505	-31.91
315.719	35.67
315.933	25.43
316.146	43.86
316.36	-7.34
316.573	72.53
316.787	90.96
317.001	66.39
317.214	-46.25
317.428	90.96
317.641	-1.19
317.855	-7.34
318.068	9.05
318.282	11.09
318.495	80.72
318.709	107.35
318.922	45.91
319.136	47.96
319.349	90.96
319.563	95.06
319.776	33.62
319.99	-21.67
320.203	19.29
320.417	9.05
320.63	62.29
320.843	90.96
321.057	66.39
321.27	93.01
321.483	62.29
321.697	17.24
321.91	43.86
322.124	78.68
322.337	99.16
322.55	-50.35
322.763	45.91
322.977	62.29
323.19	-13.48
323.403	27.48
323.617	17.24
323.83	17.24
324.043	31.57
324.256	54.1
324.469	35.67
324.683	125.78
324.896	33.62
325.109	4.95
325.322	33.62
325.535	103.25
325.748	103.25
325.962	-11.43
326.175	23.38
326.388	70.48
326.601	9.05
326.814	72.53
327.027	99.16
327.24	97.11
327.453	-56.49
327.666	99.16
327.879	80.72
328.092	35.67
328.305	64.34
328.518	-48.3
328.731	70.48
328.944	35.67
329.157	68.44
329.37	86.87
329.583	66.39
329.796	19.29
330.009	39.76
330.222	29.52
330.435	123.73
330.648	125.78
330.861	-21.67
331.073	-13.48
331.286	23.38
331.499	11.09
331.712	37.72
331.925	-17.58
332.138	-19.63
332.35	27.48
332.563	-9.39
332.776	60.24
332.989	-36.01
333.202	45.91
333.414	99.16
333.627	33.62
333.84	0.85
334.053	9.05
334.265	41.81
334.478	13.14
334.691	-52.39
334.903	45.91
335.116	-70.83
335.329	-13.48
335.541	58.2
335.754	66.39
335.966	29.52
336.179	72.53
336.392	35.67
336.604	35.67
336.817	86.87
337.029	78.68
337.242	50
337.454	29.52
337.667	-7.34
337.88	60.24
338.092	86.87
338.305	80.72
338.517	13.14
338.729	80.72
338.942	62.29
339.154	23.38
339.367	-23.72
339.579	21.33
339.792	-33.96
340.004	56.15
340.217	43.86
340.429	50
340.641	-19.63
340.854	-36.01
341.066	-40.11
341.278	66.39
341.491	70.48
341.703	54.1
341.915	0.85
342.128	25.43
342.34	7
342.552	19.29
342.764	35.67
342.977	0.85
343.189	47.96
343.401	45.91
343.613	-60.59
343.826	60.24
344.038	-9.39
344.25	33.62
344.462	-27.82
344.674	60.24
344.886	50
345.099	25.43
345.311	0.85
345.523	52.05
345.735	-3.24
345.947	-29.87
346.159	43.86
346.371	-1.19
346.583	70.48
346.795	117.59
347.007	0.85
347.219	60.24
347.431	15.19
347.643	60.24
347.855	35.67
348.067	13.14
348.279	19.29
348.491	25.43
348.703	17.24
348.915	62.29
349.127	-52.39
349.339	93.01
349.551	39.76
349.763	19.29
349.975	27.48
350.187	88.92
350.399	37.72
350.61	27.48
350.822	43.86
351.034	64.34
351.246	39.76
351.458	41.81
351.669	68.44
351.881	74.58
352.093	66.39
352.305	4.95
352.517	-19.63
352.728	111.44
352.94	27.48
353.152	90.96
353.363	-1.19
353.575	93.01
353.787	78.68
353.999	39.76
354.21	52.05
354.422	-72.87
354.633	52.05
354.845	27.48
355.057	50
355.268	4.95
355.48	58.2
355.692	82.77
355.903	45.91
356.115	13.14
356.326	2.9
356.538	119.64
356.749	82.77
356.961	62.29
357.172	7
357.384	15.19
357.595	52.05
357.807	33.62
358.018	68.44
358.23	86.87
358.441	50
358.653	56.15
358.864	33.62
359.075	21.33
359.287	86.87
359.498	97.11
359.709	33.62
359.921	50
360.132	41.81
360.344	-48.3
360.555	66.39
360.766	39.76
360.977	74.58
361.189	68.44
361.4	33.62
361.611	62.29
361.823	70.48
362.034	39.76
362.245	-44.2
362.456	58.2
362.667	45.91
362.879	93.01
363.09	97.11
363.301	45.91
363.512	72.53
363.723	-15.53
363.935	11.09
364.146	47.96
364.357	45.91
364.568	70.48
364.779	84.82
364.99	93.01
365.201	27.48
365.412	54.1
365.623	31.57
365.834	31.57
366.045	103.25
366.256	25.43
366.467	60.24
366.678	0.85
366.889	-29.87
367.1	-13.48
367.311	60.24
367.522	-1.19
367.733	78.68
367.944	-1.19
368.155	27.48
368.366	25.43
368.577	23.38
368.788	52.05
368.999	-95.4
369.209	62.29
369.42	93.01
369.631	156.5
369.842	58.2
370.053	45.91
370.264	31.57
370.474	86.87
370.685	123.73
370.896	60.24
371.107	47.96
371.317	60.24
371.528	93.01
371.739	58.2
371.95	23.38
372.16	64.34
372.371	-9.39
372.582	-19.63
372.792	11.09
373.003	4.95
373.214	27.48
373.424	-11.43
373.635	-9.39
373.846	76.63
374.056	90.96
374.267	-5.29
374.477	25.43
374.688	29.52
374.898	17.24
375.109	90.96
375.319	74.58
375.53	58.2
375.74	80.72
375.951	0.85
376.161	-31.91
376.372	72.53
376.582	41.81
376.793	29.52
377.003	82.77
377.214	35.67
377.424	37.72
377.635	33.62
377.845	101.2
378.055	56.15
378.266	70.48
378.476	7
378.686	23.38
378.897	-29.87
379.107	47.96
379.317	56.15
379.528	-3.24
379.738	107.35
379.948	39.76
380.158	93.01
380.369	19.29
380.579	0.85
380.789	50
380.999	62.29
381.21	129.88
381.42	13.14
381.63	31.57
381.84	-36.01
382.05	-3.24
382.261	140.12
382.471	25.43
382.681	19.29
382.891	54.1
383.101	68.44
383.311	56.15
383.521	7
383.731	27.48
383.941	50
384.151	64.34
384.361	31.57
384.571	60.24
384.781	52.05
384.991	115.54
385.201	80.72
385.411	56.15
385.621	31.57
385.831	131.92
386.041	93.01
386.251	52.05
386.461	70.48
386.671	31.57
386.881	11.09
387.091	78.68
387.301	45.91
387.511	-31.91
387.72	58.2
387.93	-1.19
388.14	-15.53
388.35	35.67
388.56	-1.19
388.769	47.96
388.979	37.72
389.189	43.86
389.399	109.4
389.609	35.67
389.818	78.68
390.028	25.43
390.238	82.77
390.447	54.1
390.657	56.15
390.867	13.14
391.076	62.29
391.286	62.29
391.496	33.62
391.705	19.29
391.915	103.25
392.125	123.73
392.334	19.29
392.544	37.72
392.753	11.09
392.963	56.15
393.172	82.77
393.382	50
393.591	113.49
393.801	140.12
394.01	66.39
394.22	72.53
394.429	25.43
394.639	99.16
394.848	84.82
395.058	115.54
395.267	52.05
395.477	111.44
395.686	101.2
395.895	90.96
396.105	39.76
396.314	88.92
396.524	56.15
396.733	25.43
396.942	86.87
397.152	140.12
397.361	129.88
397.57	93.01
397.78	72.53
397.989	74.58
398.198	158.55
398.407	70.48
398.617	60.24
398.826	62.29
399.035	37.72
399.244	54.1
399.453	113.49
399.663	131.92
399.872	115.54
400.081	47.96
400.29	125.78
400.499	78.68
400.708	82.77
400.917	58.2
401.127	115.54
401.336	58.2
401.545	144.21
401.754	127.83
401.963	152.4
402.172	43.86
402.381	113.49
402.59	37.72
402.799	168.79
403.008	133.97
403.217	213.84
403.426	138.07
403.635	70.48
403.844	101.2
404.053	168.79
404.262	99.16
404.471	115.54
404.68	156.5
404.888	121.68
405.097	50
405.306	142.16
405.515	144.21
405.724	217.94
405.933	150.36
406.142	199.51
406.35	168.79
406.559	123.73
406.768	109.4
406.977	222.03
407.185	140.12
407.394	203.6
407.603	150.36
407.812	160.59
408.02	271.19
408.229	207.7
408.438	189.27
408.646	213.84
408.855	213.84
409.064	262.99
409.272	258.9
409.481	246.61
409.69	201.55
409.898	160.59
410.107	246.61
410.315	328.53
410.524	252.75
410.733	349.01
410.941	295.76
411.15	353.1
411.358	283.47
411.567	371.54
411.775	387.92
411.984	371.54
412.192	455.5
412.401	357.2
412.609	492.37
412.818	377.68
413.026	478.03
413.234	500.56
413.443	443.21
413.651	506.7
413.86	504.65
414.068	584.52
414.276	531.28
414.485	562
414.693	584.52
414.901	648.01
415.11	598.86
415.318	639.82
415.526	699.21
415.734	721.74
415.943	750.41
416.151	861
416.359	758.6
416.567	750.41
416.776	838.47
416.984	889.67
417.192	863.05
417.4	865.1
417.608	928.58
417.817	940.87
418.025	955.21
418.233	1123.14
418.441	1110.85
418.649	1180.48
418.857	1184.58
419.065	1258.31
419.273	1237.83
419.481	1280.83
419.689	1366.85
419.897	1348.42
420.105	1434.43
420.313	1444.67
420.521	1389.38
420.729	1504.06
420.937	1608.51
421.145	1706.81
421.353	1706.81
421.561	1782.59
421.769	1905.46
421.977	1846.07
422.185	1921.85
422.393	1927.99
422.601	2149.17
422.809	2188.08
423.017	2122.55
423.224	2229.04
423.432	2216.76
423.64	2282.29
423.848	2448.18
424.056	2339.63
424.263	2614.06
424.471	2593.58
424.679	2609.97
424.887	2718.51
425.094	3013.42
425.302	2847.53
425.51	3167.01
425.718	3025.7
425.925	3228.45
426.133	3154.73
426.341	3408.67
426.548	3414.82
426.756	3558.18
426.964	3685.15
427.171	3951.39
427.379	3912.47
427.586	4023.06
427.794	4098.84
428.001	4309.78
428.209	4596.5
428.417	4569.87
428.624	4813.58
428.832	4616.97
429.039	4789
429.247	4801.29
429.454	4963.08
429.662	5597.95
429.869	5131.02
430.076	5550.85
430.284	5331.72
430.491	5540.61
430.699	5759.74
430.906	6009.59
431.114	6038.27
431.321	6060.79
431.528	6435.57
431.736	6691.57
431.943	7084.78
432.15	6695.66
432.358	6970.09
432.565	7195.37
432.772	7185.13
432.979	7561.95
433.187	7836.38
433.394	7779.04
433.601	8397.53
433.808	8229.59
434.016	8405.72
434.223	8610.51
434.43	9102.03
434.637	9011.92
434.844	9677.51
435.052	9874.11
435.259	9661.12
435.466	9689.79
435.673	9824.96
435.88	10367.67
436.087	10848.94
436.294	10834.61
436.501	10515.12
436.708	10924.72
436.915	11248.3
437.122	11653.8
437.329	11416.23
437.537	11979.42
437.743	12194.46
437.95	12151.45
438.157	12933.78
438.364	13202.06
438.571	13066.89
438.778	13027.98
438.985	14547.58
439.192	13890.18
439.399	14316.15
439.606	13992.58
439.813	14924.4
440.02	15721.06
440.227	15493.74
440.433	15272.56
440.64	15753.83
440.847	15714.92
441.054	15848.04
441.261	17111.63
441.467	16814.68
441.674	17377.87
441.881	17762.89
442.088	17556.04
442.294	17607.24
442.501	17801.8
442.708	18281.02
442.914	19159.6
443.121	19790.38
443.328	19456.56
443.534	20826.65
443.741	20300.32
443.948	19782.18
444.154	21482
444.361	21264.91
444.568	21291.54
444.774	21262.86
444.981	21678.6
445.187	22336
445.394	23392.75
445.6	22733.31
445.807	24797.66
446.013	23878.12
446.22	24406.5
446.426	25197.01
446.633	25539.02
446.839	26642.88
447.046	25604.56
447.252	26581.44
447.459	26399.17
447.665	26616.26
447.871	27464.11
448.078	28895.64
448.284	27359.67
448.491	27961.77
448.697	29153.69
448.903	29712.78
449.11	30249.35
449.316	28967.32
449.522	29987.21
449.728	30296.46
449.935	30763.39
450.141	30517.64
450.347	31168.89
450.553	30443.91
450.76	30734.72
450.966	31414.65
451.172	31447.41
451.378	32084.33
451.584	31558
451.791	32188.78
451.997	32121.2
452.203	32526.69
452.409	32489.83
452.615	32135.53
452.821	31256.95
453.027	30960
453.233	32129.39
453.44	30751.1
453.646	31953.26
453.852	31826.29
454.058	32061.8
454.264	30824.83
454.47	31596.92
454.676	30738.82
454.882	31988.08
455.088	29153.69
455.294	29237.66
455.5	29819.28
455.705	29950.35
455.911	28864.92
456.117	28432.8
456.323	28359.08
456.529	26458.56
456.735	27595.18
456.941	26669.5
457.147	26558.91
457.352	25643.47
457.558	25258.45
457.764	25360.85
457.97	24986.07
458.176	24254.95
458.381	24422.88
458.587	22880.76
458.793	22866.42
458.999	21643.79
459.204	23366.13
459.41	22823.42
459.616	21164.56
459.821	21301.78
460.027	21250.58
460.233	21070.36
460.438	19849.77
460.644	20222.5
460.85	19112.5
461.055	18805.3
461.261	18840.12
461.466	17375.82
461.672	16720.47
461.878	18104.9
462.083	16708.18
462.289	16505.43
462.494	16206.43
462.7	15610.47
462.905	15168.11
463.111	15735.4
463.316	15880.8
463.522	15575.66
463.727	15323.76
463.932	15303.28
464.138	15620.71
464.343	15239.79
464.549	14985.84
464.754	15460.97
464.959	15237.74
465.165	15184.49
465.37	14641.78
465.575	14234.24
465.781	14787.19
465.986	14748.28
466.191	14516.86
466.397	13951.62
466.602	13345.42
466.807	14023.3
467.012	13730.44
467.218	13912.71
467.423	13566.6
467.628	13838.98
467.833	14396.03
468.038	13904.51
468.244	13271.69
468.449	14078.59
468.654	13521.54
468.859	13320.84
469.064	13398.66
469.269	12843.67
469.474	12675.73
469.679	13269.64
469.885	12958.35
470.09	12726.93
470.295	12671.64
470.5	12743.31
470.705	12614.29
470.91	12259.99
471.115	12247.71
471.32	12649.11
471.525	12571.29
471.73	11895.46
471.935	11940.51
472.139	11879.07
472.344	11748
472.549	11676.32
472.754	11414.18
472.959	11045.55
473.164	10879.66
473.369	10846.9
473.574	11367.08
473.778	11090.6
473.983	10789.55
474.188	11023.02
474.393	10527.41
474.598	10678.96
474.802	10435.25
475.007	10279.61
475.212	10498.74
475.417	9988.8
475.621	10080.96
475.826	10064.57
476.031	9706.18
476.235	9601.73
476.44	9886.4
476.645	9489.09
476.849	9665.22
477.054	9454.28
477.259	9501.38
477.463	9337.54
477.668	9292.49
477.872	9255.62
478.077	9241.29
478.282	9032.4
478.486	9110.22
478.691	8692.43
478.895	8923.85
479.1	8831.69
479.304	8805.07
479.509	8573.65
479.713	8551.12
479.918	8516.31
480.122	8495.83
480.326	8729.3
480.531	8432.34
480.735	8397.53
480.94	8321.75
481.144	8700.62
481.348	7979.74
481.553	8215.26
481.757	8096.47
481.961	8219.35
482.166	8395.48
482.37	8346.33
482.574	8057.56
482.778	8215.26
482.983	8233.69
483.187	8108.76
483.391	8168.15
483.595	8116.95
483.8	7973.6
484.004	8084.19
484.208	8205.02
484.412	8194.78
484.616	8192.73
484.821	8282.84
485.025	7815.9
485.229	8209.11
485.433	8180.44
485.637	8119
485.841	7940.83
486.045	7971.55
486.249	8098.52
486.453	8080.09
486.657	8305.37
486.861	8155.86
487.065	8026.84
487.269	8141.53
487.473	8018.65
487.677	8055.51
487.881	8370.9
488.085	8198.87
488.289	8141.53
488.493	8188.63
488.697	8250.07
488.901	8368.85
489.105	8190.68
489.309	8123.1
489.512	8098.52
489.716	8282.84
489.92	8377.05
490.124	8213.21
490.328	8399.57
490.531	8243.93
490.735	8438.48
490.939	8397.53
491.143	8428.24
491.346	8528.6
491.55	8704.72
491.754	8409.81
491.958	8336.09
492.161	8553.17
492.365	8796.88
492.569	8594.13
492.772	8620.75
492.976	8616.66
493.18	8694.48
493.383	8944.33
493.587	9040.59
493.79	9196.23
493.994	8872.65
494.197	9145.03
494.401	9032.4
494.605	9149.13
494.808	9405.13
495.012	9435.85
495.215	9407.17
495.419	9485
495.622	9523.91
495.825	9607.87
496.029	9495.24
496.232	9827.01
496.436	9773.76
496.639	10087.1
496.843	9794.24
497.046	10242.75
497.249	10302.14
497.453	10441.4
497.656	10449.59
497.859	10298.04
498.063	10709.68
498.266	10681.01
498.469	10562.23
498.673	10736.31
498.876	10861.23
499.079	11348.65
499.282	11188.91
499.485	11539.11
499.689	11471.53
499.892	11510.44
500.095	11649.7
500.298	11854.5
500.501	11846.3
500.705	12233.37
500.908	12298.91
501.111	12499.61
501.314	12554.9
501.517	12712.6
501.72	12694.16
501.923	12907.15
502.126	13152.91
502.329	13204.11
502.532	13292.17
502.735	13333.13
502.938	13550.21
503.141	13752.96
503.344	13881.99
503.547	14002.82
503.75	14166.65
503.953	14494.33
504.156	14588.53
504.359	14615.16
504.562	14566.01
504.765	15065.71
504.968	15209.07
505.17	15325.8
505.373	15295.08
505.576	15557.22
505.779	15854.18
505.982	15925.86
506.185	16228.96
506.387	16304.73
506.59	16452.19
506.793	16955.99
506.996	16638.55
507.198	17353.29
507.401	17177.17
507.604	17336.91
507.807	17390.16
508.009	18004.55
508.212	18131.52
508.415	18166.34
508.617	18207.3
508.82	18371.13
509.022	18596.41
509.225	18653.75
509.428	19016.24
509.63	19040.82
509.833	19235.38
510.035	19798.57
510.238	19665.45
510.44	19905.06
510.643	20277.79
510.845	20584.99
511.048	20392.48
511.25	20498.97
511.453	20759.06
511.655	21651.98
511.858	21105.17
512.06	21596.68
512.262	21676.55
512.465	21701.13
512.667	22153.73
512.87	21897.74
513.072	22272.51
513.274	22712.83
513.477	22886.9
513.679	23259.63
513.881	23435.76
514.084	23865.83
514.286	23681.52
514.488	23865.83
514.69	24551.9
514.893	24818.14
515.095	24480.22
515.297	24994.26
515.499	25027.03
515.701	25438.67
515.904	25651.66
516.106	25770.44
516.308	26069.45
516.51	26302.92
516.712	26489.28
516.914	26710.46
517.116	27240.89
517.318	27204.02
517.52	27591.09
517.722	27279.8
517.925	27969.96
518.127	28088.74
518.329	28379.56
518.531	28473.76
518.733	28948.89
518.935	29348.25
519.136	29022.62
519.338	29579.67
519.54	29743.5
519.742	30120.33
519.944	30204.3
520.146	30845.31
520.348	31070.59
520.55	30966.14
520.752	30990.72
520.954	31547.76
521.155	31418.74
521.357	31971.69
521.559	32055.66
521.761	32790.88
521.963	32575.84
522.164	32698.72
522.366	32645.48
522.568	33235.29
522.77	33489.24
522.971	33980.75
523.173	33429.85
523.375	34103.63
523.576	34132.3
523.778	34070.86
523.98	34507.08
524.181	35150.14
524.383	34607.43
524.584	35377.47
524.786	35307.83
524.988	35313.98
525.189	35748.15
525.391	35791.16
525.592	36149.55
525.794	36333.87
525.995	36495.66
526.197	36342.06
526.398	36276.52
526.6	36735.27
526.801	36774.18
527.003	36999.46
527.204	37316.89
527.406	37548.31
527.607	37533.98
527.808	38402.32
528.01	37624.09
528.211	37781.78
528.412	38414.6
528.614	38193.42
528.815	38353.16
529.016	38527.24
529.218	37904.66
529.419	38404.36
529.62	38568.2
529.822	38484.23
530.023	38500.62
530.224	38844.68
530.425	38906.12
530.626	38609.16
530.828	38517
531.029	38906.12
531.23	38750.47
531.431	39045.38
531.632	39000.32
531.833	39371
532.035	39266.56
532.236	39350.52
532.437	39694.58
532.638	39631.1
532.839	39641.34
533.04	39778.55
533.241	39397.63
533.442	40257.78
533.643	39747.83
533.844	39678.2
534.045	40028.4
534.246	39227.65
534.447	39917.81
534.648	39876.85
534.849	39641.34
535.05	39407.87
535.251	39930.1
535.451	39532.79
535.652	40198.38
535.853	39893.24
536.054	40110.32
536.255	40229.1
536.456	39545.08
536.657	40689.9
536.857	39979.25
537.058	39760.12
537.259	40331.5
537.46	39983.35
537.66	39942.39
537.861	40206.58
538.062	39842.04
538.263	40081.65
538.463	39819.51
538.664	40024.31
538.865	40255.73
539.065	40313.07
539.266	39702.78
539.466	40456.43
539.667	39731.45
539.868	40614.12
540.068	40134.9
540.269	40030.45
540.469	40423.66
540.67	40067.31
540.87	40122.61
541.071	39950.58
541.271	40403.18
541.472	40061.17
541.672	40106.23
541.873	39796.98
542.073	39551.23
542.274	40425.71
542.474	39629.05
542.675	39942.39
542.875	40102.13
543.075	39989.49
543.276	39608.57
543.476	40280.3
543.676	39993.59
543.877	40081.65
544.077	39962.87
544.277	39598.33
544.478	40114.42
544.678	39958.77
544.878	39799.03
545.078	40218.86
545.279	39389.44
545.479	39471.36
545.679	39807.22
545.879	39874.8
546.079	39481.59
546.28	39610.62
546.48	39676.15
546.68	39848.18
546.88	39635.19
547.08	39715.06
547.28	39858.42
547.48	39469.31
547.68	39717.11
547.88	39375.1
548.081	39571.71
548.281	39504.12
548.481	39336.19
548.681	39901.43
548.881	39688.44
549.081	39530.75
549.28	39256.32
549.48	39706.87
549.68	39360.76
549.88	39379.2
550.08	39377.15
550.28	39753.97
550.48	39362.81
550.68	39547.13
550.88	39489.79
551.08	39198.98
551.279	39651.58
551.479	39000.32
551.679	39977.2
551.879	39334.14
552.079	39467.26
552.278	39303.42
552.478	39436.54
552.678	39158.02
552.878	39633.14
553.077	39624.95
553.277	38934.79
553.477	39868.66
553.676	39082.24
553.876	39270.65
554.076	39008.51
554.275	39426.3
554.475	38779.14
554.674	39231.74
554.874	38883.59
555.074	38934.79
555.273	39311.61
555.473	39330.05
555.672	38934.79
555.872	38928.64
556.071	38920.45
556.271	39217.41
556.47	38742.28
556.67	38263.05
556.869	38549.77
557.068	38613.26
557.268	38508.81
557.467	38676.74
557.667	38377.74
557.866	38664.46
558.065	38627.59
558.265	38410.51
558.464	38215.95
558.663	38568.2
558.863	37992.72
559.062	38478.09
559.261	37978.39
559.461	38492.43
559.66	37804.31
559.859	38338.83
560.058	37740.82
560.258	38031.63
560.457	38021.39
560.656	37984.53
560.855	37759.25
561.054	37968.15
561.253	37071.14
561.453	37458.2
561.652	38066.45
561.851	37427.48
562.05	37523.74
562.249	37093.66
562.448	37605.66
562.647	37241.12
562.846	37007.65
563.045	37237.02
563.244	36978.98
563.443	37468.44
563.642	36450.6
563.841	36706.6
564.04	36747.56
564.239	37032.22
564.438	36288.81
564.637	36720.93
564.836	36946.21
565.035	36495.66
565.234	36413.74
565.432	35987.76
565.631	36026.67
565.83	36104.49
566.029	35977.52
566.228	35828.02
566.427	35871.03
566.625	35797.3
566.824	35551.54
567.023	35760.44
567.222	34920.77
567.42	35703.09
567.619	35486.01
567.818	35416.38
568.016	35162.43
568.215	35354.94
568.414	35238.2
568.612	35225.92
568.811	34984.26
569.01	35313.98
569.208	34416.97
569.407	35039.55
569.605	34273.61
569.804	34918.72
570.002	34326.86
570.201	34724.16
570.4	34367.82
570.598	33868.11
570.797	33675.6
570.995	34255.18
571.193	33591.64
571.392	34128.2
571.59	33708.37
571.789	33548.63
571.987	33585.49
572.186	33882.45
572.384	33352.02
572.582	33745.23
572.781	33902.93
572.979	33087.84
573.177	33208.67
573.376	33495.38
573.574	32915.81
573.772	33489.24
573.971	32967.01
574.169	32502.12
574.367	32856.42
574.565	32764.26
574.763	32733.54
574.962	32158.06
575.16	32356.71
575.358	32465.25
575.556	32063.85
575.754	32414.05
575.952	32072.04
576.151	32643.43
576.349	31627.63
576.547	31897.97
576.745	31435.13
576.943	31986.03
577.141	31701.36
577.339	31644.02
577.537	31713.65
577.735	31592.82
577.933	31132.03
578.131	31551.86
578.329	31328.63
578.527	30988.67
578.725	31025.53
578.923	31242.62
579.121	31041.92
579.319	30613.89
579.516	30955.9
579.714	30634.37
579.912	30873.98
580.11	30599.55
580.308	30511.49
580.506	30468.48
580.704	29919.63
580.901	30216.58
581.099	30323.08
581.297	29903.25
581.495	29974.92
581.692	29841.81
581.89	29579.67
582.088	30062.99
582.285	29626.77
582.483	30028.17
582.681	29557.14
582.878	29454.74
583.076	29301.14
583.274	29677.97
583.471	29116.83
583.669	29194.65
583.866	28959.13
584.064	29184.41
584.262	28461.48
584.459	28893.6
584.657	28885.4
584.854	29206.94
585.052	28514.72
585.249	28893.6
585.447	28563.87
585.644	28332.45
585.841	28584.35
586.039	28426.66
586.236	28068.27
586.434	28080.55
586.631	28010.92
586.828	28082.6
587.026	28025.26
587.223	27660.72
587.42	27603.38
587.618	27894.19
587.815	27457.97
588.012	27300.28
588.21	27613.62
588.407	27306.42
588.604	27296.18
588.801	27185.59
588.999	27171.25
589.196	27105.72
589.393	27253.17
589.59	26943.93
589.787	26808.76
589.984	26636.73
590.182	26386.88
590.379	26710.46
590.576	26517.95
590.773	26659.26
590.97	26401.22
591.167	26530.24
591.364	26044.87
591.561	26286.53
591.758	25637.33
591.955	26089.93
592.152	26288.58
592.349	25971.15
592.546	26012.1
592.743	26040.78
592.94	25622.99
593.137	25680.33
593.334	25590.22
593.531	25301.46
593.727	25866.7
593.924	25829.84
594.121	25135.57
594.318	25387.47
594.515	24975.83
594.712	25319.89
594.908	24793.56
595.105	25250.26
595.302	24545.76
595.499	24725.98
595.696	24824.28
595.892	24457.7
596.089	24652.25
596.286	24572.38
596.482	24564.19
596.679	24426.98
596.876	24689.12
597.072	24504.8
597.269	24347.11
597.466	24007.14
597.662	23978.47
597.859	23917.03
598.055	24007.14
598.252	23679.47
598.448	23644.65
598.645	23601.65
598.841	23458.29
599.038	23581.17
599.234	23732.72
599.431	23208.44
599.627	23112.18
599.824	23333.36
600.02	22940.15
600.217	23222.77
600.413	23163.38
600.609	23433.71
600.806	23200.24
601.002	23165.43
601.198	22684.16
601.395	22690.3
601.591	22542.85
601.787	22821.37
601.984	22839.8
602.18	22858.23
602.376	22581.76
602.572	22225.41
602.769	22282.75
602.965	21850.63
603.161	22546.94
603.357	22032.9
603.553	21858.82
603.75	21975.56
603.946	21905.93
604.142	21860.87
604.338	21623.31
604.534	21613.07
604.73	21342.74
604.926	21500.43
605.122	21746.19
605.318	21338.64
605.514	21221.91
605.71	21176.85
605.906	21080.6
606.102	21494.29
606.298	21240.34
606.494	21180.95
606.69	21008.92
606.886	21002.77
607.082	20886.04
607.278	20986.39
607.474	20918.81
607.67	20845.08
607.866	20599.32
608.062	20978.2
608.257	20660.76
608.453	20476.44
608.649	20748.82
608.845	20558.36
609.041	20537.88
609.236	20638.23
609.432	20470.3
609.628	20521.5
609.824	20591.13
610.019	20185.63
610.215	20242.98
610.411	20087.33
610.606	19792.42
610.802	20208.16
610.998	20019.75
611.193	20173.35
611.389	20199.97
611.584	20070.95
611.78	19767.85
611.976	20126.24
612.171	19657.26
612.367	19853.86
612.562	19671.59
612.758	19450.41
612.953	19690.02
613.149	19644.97
613.344	19530.28
613.539	19759.66
613.735	19790.38
613.93	19599.91
614.126	19497.52
614.321	19495.47
614.517	19479.08
614.712	19550.76
614.907	19317.29
615.103	19489.32
615.298	19315.25
615.493	19372.59
615.688	19042.87
615.884	19552.81
616.079	18754.1
616.274	19204.66
616.47	19010.1
616.665	18848.31
616.86	18905.65
617.055	18797.11
617.25	18692.66
617.445	19116.59
617.641	18659.9
617.836	18790.97
618.031	18612.79
618.226	18829.88
618.421	18543.16
618.616	18909.75
618.811	18211.39
619.006	18463.29
619.201	18176.58
619.396	18252.35
619.591	17818.18
619.786	18104.9
619.981	18072.13
620.176	17959.49
620.371	17836.61
620.566	17986.11
620.761	17578.57
620.956	17863.24
621.151	17670.73
621.346	17558.09
621.541	17408.59
621.735	17361.48
621.93	17046.1
622.125	16990.8
622.32	17132.11
622.515	17140.3
622.709	17150.54
622.904	16921.17
623.099	16642.65
623.294	16837.2
623.488	16505.43
623.683	16609.88
623.878	16388.7
624.072	16347.74
624.267	16364.12
624.462	16171.61
624.656	16061.02
624.851	15919.71
625.046	15917.67
625.24	15669.86
625.435	15567.46
625.629	15569.51
625.824	15624.81
626.018	15405.67
626.213	15043.18
626.407	15264.36
626.602	15063.66
626.796	15233.64
626.991	15161.97
627.185	15047.28
627.38	14918.26
627.574	14654.07
627.768	14877.3
627.963	14643.83
628.157	14592.63
628.352	14482.04
628.546	14289.53
628.74	14613.11
628.935	14187.13
629.129	14361.21
629.323	14008.96
629.517	14140.03
629.712	13972.1
629.906	13974.14
630.1	13816.45
630.294	14051.97
630.489	13939.33
630.683	13865.6
630.877	13625.99
631.071	13568.65
631.265	13478.54
631.459	13120.14
631.653	13154.96
631.848	13423.24
632.042	13181.58
632.236	13159.05
632.43	12905.1
632.624	13193.87
632.818	12733.08
633.012	12655.25
633.206	12776.08
633.4	12903.06
633.594	12602.01
633.788	12745.36
633.982	12624.53
634.176	12515.99
634.369	12296.86
634.563	12415.64
634.757	12204.7
634.951	12321.43
635.145	12081.82
635.339	12296.86
635.533	12128.92
635.726	12098.2
635.92	11958.94
636.114	11823.78
636.308	11600.55
636.501	11956.89
636.695	11885.22
636.889	11395.75
637.083	11498.15
637.276	11436.71
637.47	11418.28
637.664	11199.15
637.857	11449
638.051	11221.67
638.244	11156.14
638.438	11039.4
638.632	10791.6
638.825	10930.86
639.019	10773.17
639.212	11016.88
639.406	10750.64
639.599	10740.4
639.793	10724.02
639.986	10545.84
640.18	10834.61
640.373	10513.08
640.567	10433.21
640.76	10355.38
640.954	10103.48
641.147	10220.22
641.34	10287.8
641.534	10224.31
641.727	10074.81
641.92	10377.91
642.114	10040
642.307	9976.51
642.5	9827.01
642.694	9849.54
642.887	9693.89
643.08	9579.2
643.273	9712.32
643.467	9657.03
643.66	9439.94
643.853	9468.61
644.046	9407.17
644.239	9466.56
644.432	9188.04
644.626	9149.13
644.819	9190.09
645.012	9214.66
645.205	9077.45
645.398	9149.13
645.591	8968.91
645.784	9102.03
645.977	8882.89
646.17	8962.76
646.363	8780.5
646.556	8755.92
646.749	8798.93
646.942	8841.93
647.135	8733.39
647.328	8645.33
647.521	8504.02
647.714	8542.93
647.907	8342.23
648.099	8452.82
648.292	8413.91
648.485	8481.49
648.678	8272.6
648.871	8319.7
649.064	8145.63
649.256	8104.67
649.449	8080.09
649.642	8129.24
649.835	8075.99
650.027	8043.23
650.22	8012.51
650.413	7963.36
650.605	7803.61
650.798	7832.29
650.991	7672.54
651.183	7822.05
651.376	7865.05
651.568	7719.65
651.761	7666.4
651.954	7699.17
652.146	7494.37
652.339	7623.39
652.531	7314.15
652.724	7191.27
652.916	7328.49
653.109	7525.09
653.301	7240.42
653.494	7340.77
653.686	7189.22
653.879	7064.3
654.071	7101.16
654.263	7095.02
654.456	7066.35
654.648	7006.95
654.84	6812.4
655.033	6957.8
655.225	6841.07
655.417	6914.8
655.61	6777.58
655.802	6929.13
655.994	6720.24
656.186	6820.59
656.379	6882.03
656.571	6730.48
656.763	6638.32
656.955	6454
657.148	6652.66
657.34	6619.89
657.532	6576.88
657.724	6382.32
657.916	6394.61
658.108	6443.76
658.3	6367.99
658.492	6155
658.684	6279.93
658.876	6345.46
659.068	6157.05
659.26	6148.86
659.452	6044.41
659.644	6232.82
659.836	6146.81
660.028	6179.58
660.22	5890.81
660.412	6099.7
660.604	5720.83
660.796	6101.75
660.988	5839.61
661.18	5702.4
661.372	5761.79
661.563	5974.78
661.755	5493.51
661.947	5765.89
662.139	5731.07
662.331	5458.69
662.522	5632.77
662.714	5620.48
662.906	5622.53
663.097	5665.53
663.289	5540.61
663.481	5591.81
663.673	5434.11
663.864	5430.02
664.056	5303.04
664.247	5382.92
664.439	5251.85
664.631	5329.67
664.822	5354.24
665.014	5401.35
665.205	5174.02
665.397	5260.04
665.588	5178.12
665.78	5241.61
665.971	5243.65
666.163	5235.46
666.354	5182.21
666.546	5069.58
666.737	4995.85
666.929	5073.67
667.12	5038.86
667.311	4870.92
667.503	5073.67
667.694	4895.5
667.885	4938.51
668.077	4909.83
668.268	4885.26
668.459	4961.03
668.651	4887.31
668.842	4811.53
669.033	4711.18
669.224	4655.89
669.416	4725.52
669.607	4655.89
669.798	4563.73
669.989	4715.28
670.18	4612.88
670.371	4692.75
670.563	4596.5
670.754	4555.54
670.945	4522.77
671.136	4326.16
671.327	4512.53
671.518	4623.12
671.709	4625.17
671.9	4477.71
672.091	4510.48
672.282	4377.36
672.473	4297.49
672.664	4449.04
672.855	4379.41
673.046	4338.45
673.237	4342.55
673.428	4231.96
673.619	4279.06
673.809	4238.1
674	4215.57
674.191	4406.03
674.382	4135.7
674.573	4211.48
674.764	4274.96
674.954	4170.52
675.145	4234
675.336	4133.65
675.527	4066.07
675.717	4125.46
675.908	4154.13
676.099	4100.89
676.289	4098.84
676.48	4014.87
676.671	4121.37
676.861	4107.03
677.052	4104.98
677.243	3871.51
677.433	4115.22
677.624	4002.58
677.814	4051.74
678.005	3930.91
678.195	4021.02
678.386	3822.36
678.576	3861.27
678.767	3885.85
678.957	3908.38
679.148	4002.58
679.338	3910.43
679.529	3844.89
679.719	3846.94
679.909	3904.28
680.1	3922.71
680.29	3994.39
680.481	3754.78
680.671	3883.8
680.861	3760.92
681.052	3777.31
681.242	3715.87
681.432	3787.55
681.622	3697.44
681.813	3601.18
682.003	3730.2
682.193	3738.4
682.383	3689.25
682.573	3603.23
682.764	3744.54
682.954	3719.96
683.144	3726.11
683.334	3660.57
683.524	3435.3
683.714	3683.1
683.904	3709.72
684.094	3560.22
684.284	3592.99
684.474	3658.53
684.664	3531.55
684.854	3535.65
685.044	3502.88
685.234	3470.11
685.424	3549.98
685.614	3474.21
685.804	3437.34
685.994	3535.65
686.184	3414.82
686.374	3388.19
686.564	3451.68
686.753	3425.06
686.943	3453.73
687.133	3500.83
687.323	3347.23
687.513	3406.63
687.702	3347.23
687.892	3248.93
688.082	3302.18
688.272	3314.47
688.461	3318.56
688.651	3384.1
688.841	3189.54
689.03	3312.42
689.22	3197.73
689.41	3162.92
689.599	3255.08
689.789	3257.12
689.979	3185.44
690.168	3187.49
690.358	3091.24
690.547	3164.97
690.737	3162.92
690.926	3199.78
691.116	3058.47
691.305	3109.67
691.495	3142.44
691.684	2980.65
691.874	3138.34
692.063	3171.11
692.252	3113.77
692.442	3207.97
692.631	2915.11
692.82	3033.9
693.01	3081
693.199	2855.72
693.388	2956.07
693.578	2902.83
693.767	3078.95
693.956	3068.71
694.146	2849.58
694.335	3037.99
694.524	2876.2
694.713	2960.17
694.902	2919.21
695.092	2984.74
695.281	3042.09
695.47	3040.04
695.659	2935.59
695.848	2777.9
696.037	3023.66
696.226	3023.66
696.415	2894.63
696.604	2900.78
696.793	2880.3
696.982	2894.63
697.171	2808.62
697.36	2859.82
697.549	2822.95
697.738	2722.6
697.927	2868.01
698.116	2788.14
698.305	2892.59
698.494	2913.06
698.683	2767.66
698.872	2880.3
699.061	2900.78
699.25	2872.11
699.438	2816.81
699.627	2816.81
699.816	2933.54
700.005	2743.08
700.193	2820.91
700.382	2906.92
700.571	2806.57
700.76	2712.36
700.948	2861.87
701.137	2884.39
701.326	2816.81
701.514	2855.72
701.703	2800.43
701.892	2818.86
702.08	2949.93
702.269	2732.84
702.457	2722.6
702.646	2732.84
702.834	2749.23
703.023	2736.94
703.212	2960.17
703.4	2747.18
703.589	2779.95
703.777	2827.05
703.965	2741.04
704.154	2792.23
704.342	2781.99
704.531	2720.56
704.719	2732.84
704.907	2618.16
705.096	2714.41
705.284	2671.4
705.472	2720.56
705.661	2849.58
705.849	2691.88
706.037	2724.65
706.226	2708.27
706.414	2757.42
706.602	2659.12
706.79	2767.66
706.979	2706.22
707.167	2775.85
707.355	2624.3
707.543	2753.32
707.731	2724.65
707.919	2730.8
708.107	2558.77
708.296	2677.55
708.484	2781.99
708.672	2700.08
708.86	2695.98
709.048	2755.37
709.236	2609.97
709.424	2687.79
709.612	2683.69
709.8	2603.82
709.988	2732.84
710.176	2706.22
710.364	2681.64
710.551	2700.08
710.739	2679.6
710.927	2708.27
711.115	2681.64
711.303	2704.17
711.491	2648.88
711.679	2597.68
711.866	2702.12
712.054	2702.12
712.242	2609.97
712.43	2689.84
712.617	2773.8
712.805	2700.08
712.993	2738.99
713.181	2609.97
713.368	2634.54
713.556	2624.3
713.744	2712.36
713.931	2741.04
714.119	2708.27
714.306	2644.78
714.494	2741.04
714.682	2691.88
714.869	2618.16
715.057	2618.16
715.244	2540.33
715.432	2667.31
715.619	2749.23
715.807	2609.97
715.994	2612.01
716.182	2691.88
716.369	2708.27
716.556	2599.73
716.744	2693.93
716.931	2585.39
717.119	2622.25
717.306	2712.36
717.493	2749.23
717.681	2691.88
717.868	2693.93
718.055	2835.24
718.242	2536.24
718.43	2589.49
718.617	2564.91
718.804	2626.35
718.991	2595.63
719.179	2513.71
719.366	2679.6
719.553	2708.27
719.74	2587.44
719.927	2644.78
720.114	2630.45
720.301	2554.67
720.488	2423.6
720.676	2620.21
720.863	2648.88
721.05	2650.92
721.237	2681.64
721.424	2569.01
721.611	2569.01
721.798	2485.04
721.985	2558.77
722.172	2556.72
722.358	2569.01
722.545	2614.06
722.732	2491.18
722.919	2614.06
723.106	2593.58
723.293	2569.01
723.48	2540.33
723.667	2446.13
723.853	2546.48
724.04	2622.25
724.227	2560.81
724.414	2519.85
724.6	2585.39
724.787	2558.77
724.974	2591.53
725.161	2618.16
725.347	2548.53
725.534	2560.81
725.72	2517.81
725.907	2661.16
726.094	2544.43
726.28	2501.42
726.467	2448.18
726.653	2487.09
726.84	2499.38
727.027	2511.66
727.213	2429.74
727.4	2620.21
727.586	2515.76
727.773	2421.55
727.959	2556.72
728.145	2519.85
728.332	2530.09
728.518	2442.03
728.705	2556.72
728.891	2493.23
729.077	2487.09
729.264	2372.4
729.45	2485.04
729.636	2515.76
729.823	2384.69
730.009	2368.31
730.195	2442.03
730.382	2378.55
730.568	2437.94
730.754	2587.44
730.94	2360.11
731.126	2464.56
731.313	2462.51
731.499	2323.25
731.685	2362.16
731.871	2302.77
732.057	2384.69
732.243	2233.14
732.429	2270
732.615	2446.13
732.801	2249.52
732.987	2284.34
733.173	2439.98
733.359	2323.25
733.545	2290.48
733.731	2356.02
733.917	2296.63
734.103	2376.5
734.289	2337.59
734.475	2435.89
734.661	2423.6
734.847	2231.09
735.033	2296.63
735.219	2347.83
735.404	2349.87
735.59	2362.16
735.776	2437.94
735.962	2298.67
736.148	2315.06
736.333	2231.09
736.519	2263.86
736.705	2286.39
736.89	2343.73
737.076	2315.06
737.262	2302.77
737.447	2175.8
737.633	2087.73
737.819	2224.95
738.004	2231.09
738.19	2243.38
738.375	2130.74
738.561	2259.76
738.747	2140.98
738.932	2280.24
739.118	2175.8
739.303	2151.22
739.489	2085.69
739.674	1954.62
739.859	2108.21
740.045	2124.6
740.23	2038.58
740.416	2091.83
740.601	2198.32
740.786	2108.21
740.972	2048.82
741.157	2110.26
741.342	2003.77
741.528	2102.07
741.713	2155.32
741.898	2110.26
742.084	1999.67
742.269	2116.41
742.454	1999.67
742.639	2145.08
742.824	1897.27
743.01	1993.53
743.195	1999.67
743.38	2108.21
743.565	1993.53
743.75	1983.29
743.935	1915.7
744.12	1971
744.305	2003.77
744.49	2016.05
744.675	1925.94
744.86	1946.42
745.045	1901.37
745.23	1815.35
745.415	1854.27
745.6	1983.29
745.785	1880.89
745.97	1923.9
746.155	1827.64
746.34	1870.65
746.525	1792.83
746.71	1958.71
746.895	1839.93
747.079	1741.63
747.264	1704.76
747.449	1766.2
747.634	1766.2
747.819	1721.15
748.003	1786.68
748.188	1739.58
748.373	1755.96
748.557	1663.8
748.742	1633.08
748.927	1772.35
749.111	1741.63
749.296	1749.82
749.481	1674.04
749.665	1616.7
749.85	1600.32
750.034	1553.21
750.219	1729.34
750.404	1620.8
750.588	1598.27
750.773	1491.77
750.957	1491.77
751.141	1547.07
751.326	1565.5
751.51	1510.21
751.695	1446.72
751.879	1499.97
752.064	1459.01
752.248	1495.87
752.432	1489.73
752.617	1504.06
752.801	1430.34
752.985	1450.82
753.17	1413.95
753.354	1479.49
753.538	1463.1
753.722	1405.76
753.907	1491.77
754.091	1510.21
754.275	1346.37
754.459	1332.03
754.643	1411.9
754.828	1305.41
755.012	1346.37
755.196	1356.61
755.38	1313.6
755.564	1370.94
755.748	1340.22
755.932	1307.46
756.116	1311.55
756.3	1315.65
756.484	1205.06
756.668	1286.98
756.852	1184.58
757.036	1362.75
757.22	1186.63
757.404	1270.59
757.588	1121.09
757.772	1221.44
757.956	1207.11
758.14	1209.15
758.323	1092.42
758.507	1137.48
758.691	1170.24
758.875	1254.21
759.059	1110.85
759.242	1104.71
759.426	1082.18
759.61	1149.76
759.794	1071.94
759.977	1067.85
760.161	1145.67
760.345	1254.21
760.528	1180.48
760.712	1096.52
760.895	1020.74
761.079	1110.85
761.263	983.88
761.446	1069.89
761.63	1022.79
761.813	1086.28
761.997	983.88
762.18	1002.31
762.364	1082.18
762.547	930.63
762.731	983.88
762.914	1051.46
763.098	990.02
763.281	1047.37
763.464	928.58
763.648	1012.55
763.831	981.83
764.015	947.01
764.198	1063.75
764.381	930.63
764.564	1096.52
764.748	987.97
764.931	1030.98
765.114	967.49
765.297	908.1
765.481	871.24
765.664	957.25
765.847	1016.65
766.03	947.01
766.213	899.91
766.397	973.64
766.58	963.4
766.763	897.86
766.946	901.96
767.129	967.49
767.312	961.35
767.495	885.58
767.678	893.77
767.861	869.19
768.044	846.66
768.227	836.42
768.41	863.05
768.593	824.14
768.776	879.43
768.959	807.75
769.142	906.06
769.324	877.38
769.507	856.9
769.69	875.34
769.873	848.71
770.056	881.48
770.239	793.42
770.421	897.86
770.604	914.25
770.787	881.48
770.97	836.42
771.152	813.9
771.335	889.67
771.518	772.94
771.7	813.9
771.883	750.41
772.066	826.18
772.248	848.71
772.431	787.27
772.613	869.19
772.796	811.85
772.978	850.76
773.161	772.94
773.343	750.41
773.526	787.27
773.708	770.89
773.891	711.5
774.073	738.12
774.256	770.89
774.438	783.18
774.621	840.52
774.803	748.36
774.985	799.56
775.168	731.98
775.35	693.07
775.532	734.03
775.715	715.59
775.897	641.87
776.079	699.21
776.261	674.64
776.444	723.79
776.626	568.14
776.808	660.3
776.99	672.59
777.173	758.6
777.355	664.4
777.537	668.49
777.719	654.16
777.901	584.52
778.083	662.35
778.265	619.34
778.447	688.97
778.629	650.06
778.811	570.19
778.993	594.76
779.175	645.96
779.357	592.72
779.539	600.91
779.721	562
779.903	539.47
780.085	553.8
780.267	623.44
780.449	582.48
780.631	578.38
780.812	584.52
780.994	535.37
781.176	512.85
781.358	512.85
781.54	492.37
781.721	570.19
781.903	611.15
782.085	465.74
782.267	551.76
782.448	488.27
782.63	437.07
782.812	494.41
782.993	525.13
783.175	527.18
783.357	459.6
783.538	510.8
783.72	480.08
783.901	471.89
784.083	453.45
784.264	459.6
784.446	414.54
784.627	478.03
784.809	459.6
784.99	418.64
785.172	410.45
785.353	484.17
785.535	451.41
785.716	539.47
785.897	381.78
786.079	496.46
786.26	428.88
786.441	389.97
786.623	414.54
786.804	406.35
786.985	426.83
787.167	418.64
787.348	494.41
787.529	392.02
787.71	445.26
787.891	377.68
788.073	332.62
788.254	418.64
788.435	389.97
788.616	402.26
788.797	357.2
788.978	369.49
789.159	392.02
789.34	465.74
789.522	379.73
789.703	389.97
789.884	371.54
790.065	365.39
790.246	389.97
790.427	355.15
790.607	398.16
790.788	338.77
790.969	367.44
791.15	394.06
791.331	277.33
791.512	404.3
791.693	318.29
791.874	291.66
792.054	394.06
792.235	346.96
792.416	299.86
792.597	312.14
792.778	437.07
792.958	295.76
793.139	373.58
793.32	236.37
793.5	271.19
793.681	406.35
793.862	340.82
794.042	318.29
794.223	201.55
794.404	226.13
794.584	283.47
794.765	240.47
794.945	238.42
795.126	306
795.306	344.91
795.487	318.29
795.667	346.96
795.848	334.67
796.028	283.47
796.209	279.38
796.389	338.77
796.57	334.67
796.75	275.28
796.93	301.9
797.111	265.04
797.291	201.55
797.471	230.23
797.652	256.85
797.832	209.75
798.012	324.43
798.192	203.6
798.373	287.57
798.553	140.12
798.733	248.66
798.913	289.62
799.093	273.23
799.274	209.75
799.454	287.57
799.634	250.71
799.814	250.71
799.994	287.57
800.174	250.71
800.354	295.76
800.534	230.23
800.714	246.61
800.894	176.98
801.074	240.47
801.254	267.09
801.434	250.71
801.614	213.84
801.794	195.41
801.974	789.32
802.154	283.47
802.334	287.57
802.514	224.08
802.693	209.75
802.873	219.99
803.053	183.12
803.233	189.27
803.413	119.64
803.592	226.13
803.772	232.27
803.952	176.98
804.131	217.94
804.311	183.12
804.491	283.47
804.67	148.31
804.85	240.47
805.03	297.81
805.209	222.03
805.389	219.99
805.568	162.64
805.748	168.79
805.928	213.84
806.107	90.96
806.287	213.84
806.466	160.59
806.646	201.55
806.825	121.68
807.004	217.94
807.184	217.94
807.363	142.16
807.543	162.64
807.722	119.64
807.901	181.07
808.081	254.8
808.26	93.01
808.439	256.85
808.619	146.26
808.798	162.64
808.977	248.66
809.156	238.42
809.336	162.64
809.515	209.75
809.694	154.45
809.873	185.17
810.052	111.44
810.231	156.5
810.411	267.09
810.59	201.55
810.769	213.84
810.948	179.03
811.127	152.4
811.306	136.02
811.485	187.22
811.664	140.12
811.843	119.64
812.022	199.51
812.201	121.68
812.38	107.35
812.559	166.74
812.737	160.59
812.916	41.81
813.095	162.64
813.274	166.74
813.453	164.69
813.632	172.88
813.811	156.5
813.989	144.21
814.168	125.78
814.347	115.54
814.526	179.03
814.704	105.3
814.883	201.55
815.062	131.92
815.24	209.75
815.419	144.21
815.598	125.78
815.776	131.92
815.955	107.35
816.133	119.64
816.312	86.87
816.49	47.96
816.669	176.98
816.847	70.48
817.026	142.16
817.204	72.53
817.383	101.2
817.561	23.38
817.74	174.93
817.918	107.35
818.097	152.4
818.275	101.2
818.453	140.12
818.632	115.54
818.81	103.25
818.988	105.3
819.167	52.05
819.345	156.5
819.523	107.35
819.701	133.97
819.879	133.97
820.058	148.31
820.236	115.54
820.414	113.49
820.592	113.49
820.77	86.87
820.948	109.4
821.127	111.44
821.305	52.05
821.483	103.25
821.661	131.92
821.839	45.91
822.017	35.67
822.195	84.82
822.373	117.59
822.551	101.2
822.729	86.87
822.907	109.4
823.085	144.21
823.262	119.64
823.44	70.48
823.618	13.14
823.796	111.44
823.974	140.12
824.152	148.31
824.329	123.73
824.507	150.36
824.685	111.44
824.863	70.48
825.04	86.87
825.218	168.79
825.396	62.29
825.574	136.02
825.751	103.25
825.929	80.72
826.107	41.81
826.284	78.68
826.462	76.63
826.639	152.4
826.817	113.49
826.994	115.54
827.172	68.44
827.349	148.31
827.527	86.87
827.704	80.72
827.882	127.83
828.059	105.3
828.237	82.77
828.414	115.54
828.591	29.52
828.769	45.91
828.946	103.25
829.124	90.96
829.301	66.39
829.478	99.16
829.655	109.4
829.833	72.53
830.01	88.92
830.187	74.58
830.364	86.87
830.542	93.01
830.719	111.44
830.896	76.63
831.073	66.39
831.25	43.86
831.427	82.77
831.604	62.29
831.782	117.59
831.959	117.59
832.136	37.72
832.313	66.39
832.49	148.31
832.667	64.34
832.844	45.91
833.021	78.68
833.198	45.91
833.374	93.01
833.551	43.86
833.728	131.92
833.905	74.58
834.082	9.05
834.259	-3.24
834.436	99.16
834.612	113.49
834.789	111.44
834.966	93.01
835.143	56.15
835.319	33.62
835.496	56.15
835.673	109.4
835.85	45.91
836.026	123.73
836.203	66.39
836.38	86.87
836.556	80.72
836.733	33.62
836.909	52.05
837.086	50
837.262	2.9
837.439	88.92
837.616	45.91
837.792	136.02
837.968	86.87
838.145	-42.15
838.321	142.16
838.498	60.24
838.674	93.01
838.851	82.77
839.027	99.16
839.203	103.25
839.38	27.48
839.556	97.11
839.732	43.86
839.909	60.24
840.085	93.01
840.261	33.62
840.437	86.87
840.614	41.81
840.79	107.35
840.966	103.25
841.142	101.2
841.318	27.48
841.494	27.48
841.671	4.95
841.847	76.63
842.023	19.29
842.199	109.4
842.375	66.39
842.551	-25.77
842.727	19.29
842.903	62.29
843.079	-11.43
843.255	76.63
843.431	54.1
843.607	54.1
843.783	-27.82
843.959	54.1
844.134	60.24
844.31	68.44
844.486	131.92
844.662	47.96
844.838	-9.39
845.013	19.29
845.189	39.76
845.365	105.3
845.541	50
845.716	45.91
845.892	107.35
846.068	27.48
846.244	62.29
846.419	78.68
846.595	52.05
846.77	17.24
846.946	58.2
847.122	62.29
847.297	93.01
847.473	101.2
847.648	39.76
847.824	45.91
847.999	-44.2
848.175	50
848.35	-5.29
848.526	45.91
848.701	107.35
848.876	140.12
849.052	-15.53
849.227	39.76
849.403	56.15
849.578	95.06
849.753	27.48
849.929	62.29
850.104	21.33
850.279	84.82
850.454	50
850.63	62.29
850.805	17.24
850.98	27.48
851.155	19.29
851.33	93.01
851.505	4.95
851.681	60.24
851.856	2.9
852.031	66.39
852.206	-23.72
852.381	-21.67
852.556	-19.63
852.731	107.35
852.906	-21.67
853.081	58.2
853.256	70.48
853.431	-23.72
853.606	29.52
853.781	76.63
853.956	-11.43
854.131	0.85
854.305	31.57
854.48	95.06
854.655	-11.43
854.83	21.33
855.005	-19.63
855.18	2.9
855.354	15.19
855.529	31.57
855.704	66.39
855.879	70.48
856.053	-13.48
856.228	-5.29
856.403	-17.58
856.577	56.15
856.752	0.85
856.926	0.85
857.101	-52.39
857.276	-3.24
857.45	33.62
857.625	9.05
857.799	25.43
857.974	58.2
858.148	-29.87
858.323	43.86
858.497	2.9
858.672	7
858.846	-54.44
859.02	15.19
859.195	-66.73
859.369	15.19
859.543	19.29
859.718	-9.39
859.892	15.19
860.066	35.67
860.241	76.63
860.415	54.1
860.589	-5.29
860.763	41.81
860.938	-56.49
861.112	117.59
861.286	58.2
861.46	-21.67
861.634	31.57
861.808	0.85
861.982	-29.87
862.157	11.09
862.331	2.9
862.505	4.95
862.679	-62.63
862.853	-13.48
863.027	45.91
863.201	76.63
863.375	-3.24
863.549	9.05
863.722	-23.72
863.896	41.81
864.07	39.76
864.244	9.05
864.418	-19.63
864.592	-21.67
864.766	7
864.939	39.76
865.113	17.24
865.287	35.67
865.461	17.24
865.634	13.14
865.808	41.81
865.982	-19.63
866.156	52.05
866.329	23.38
866.503	11.09
866.676	39.76
866.85	43.86
867.024	-11.43
867.197	9.05
867.371	43.86
867.544	21.33
867.718	-64.68
867.891	54.1
868.065	-38.06
868.238	-27.82
868.412	66.39
868.585	-23.72
868.759	62.29
868.932	-23.72
869.105	-23.72
869.279	-13.48
869.452	33.62
869.625	45.91
869.799	-1.19
869.972	17.24
870.145	52.05
870.319	66.39
870.492	-29.87
870.665	-44.2
870.838	17.24
871.011	-19.63
871.185	58.2
871.358	0.85
871.531	62.29
871.704	-66.73
871.877	33.62
872.05	70.48
872.223	-3.24
872.396	-23.72
872.569	17.24
872.742	37.72
872.915	-76.97
873.088	-13.48
873.261	-19.63
873.434	17.24
873.607	4.95
873.78	74.58
873.953	-23.72
874.126	29.52
874.299	-25.77
874.471	-25.77
874.644	-19.63
874.817	4.95
874.99	33.62
875.163	35.67
875.335	-7.34
875.508	-5.29
875.681	86.87
875.853	-46.25
876.026	17.24
876.199	66.39
876.371	37.72
876.544	-3.24
876.717	25.43
876.889	-21.67
877.062	99.16
877.234	37.72
877.407	19.29
877.579	-9.39
877.752	29.52
877.924	27.48
878.097	-17.58
878.269	9.05
878.442	113.49
878.614	29.52
878.786	-7.34
878.959	62.29
879.131	66.39
879.303	-60.59
879.476	60.24
879.648	-44.2
879.82	11.09
879.993	-66.73
880.165	25.43
880.337	-3.24
880.509	41.81
880.681	11.09
880.854	21.33
881.026	-31.91
881.198	95.06
881.37	-29.87
881.542	37.72
881.714	-3.24
881.886	15.19
882.058	-46.25
882.23	-36.01
882.402	11.09
882.574	78.68
882.746	-1.19
882.918	-5.29
883.09	45.91
883.262	-5.29
883.434	-13.48
883.606	7
883.778	-40.11
883.95	19.29
884.122	-76.97
884.293	9.05
884.465	-36.01
884.637	45.91
884.809	54.1
884.98	-33.96
885.152	35.67
885.324	56.15
885.496	-7.34
885.667	-9.39
885.839	-9.39
886.011	62.29
886.182	52.05
886.354	62.29
886.525	-21.67
886.697	37.72
886.869	-33.96
887.04	21.33
887.212	19.29
887.383	93.01
887.555	-23.72
887.726	13.14
887.897	-11.43
888.069	-52.39
888.24	25.43
888.412	-56.49
888.583	33.62
888.754	17.24
888.926	-87.21
889.097	13.14
889.268	-19.63
889.44	58.2
889.611	45.91
889.782	-13.48
889.953	-29.87
890.125	74.58
890.296	27.48
890.467	72.53
890.638	-21.67
890.809	-9.39
890.98	-7.34
891.151	52.05
891.323	-31.91
891.494	-25.77
891.665	52.05
891.836	15.19
892.007	-9.39
892.178	-40.11
892.349	21.33
892.52	7
892.691	9.05
892.862	-31.91
893.032	-36.01
893.203	-3.24
893.374	-13.48
893.545	62.29
893.716	-40.11
893.887	15.19
894.057	-21.67
894.228	39.76
894.399	43.86
894.57	25.43
894.74	56.15
894.911	-44.2
895.082	-23.72
895.253	19.29
895.423	-3.24
895.594	11.09
895.764	-27.82
895.935	-38.06
896.106	15.19
896.276	19.29
896.447	-21.67
896.617	-58.54
896.788	43.86
896.958	-7.34
897.129	13.14
897.299	-27.82
897.47	19.29
897.64	-25.77
897.81	41.81
897.981	-13.48
898.151	15.19
898.322	-11.43
898.492	58.2
898.662	-11.43
898.832	29.52
899.003	15.19
899.173	-62.63
899.343	-36.01
899.513	-11.43
