Data from USB4F104151__6__10-20-09-158.txt Node

Date: Wed Mar 12 10:20:09 EDT 2025
User: louis
Spectrometer: USB4F10415
Trigger mode: 4
Integration Time (sec): 3.000000E-2
Scans to average: 1
Electric dark correction enabled: true
Nonlinearity correction enabled: false
Boxcar width: 0
XAxis mode: Wavelengths
Number of Pixels in Spectrum: 3648
>>>>>Begin Spectral Data<<<<<
178.204	-111.61
178.424	-111.61
178.644	-111.61
178.864	-25.6
179.084	-72.7
179.304	78.85
179.524	-27.65
179.744	-33.79
179.964	-31.74
180.184	11.26
180.404	-27.65
180.624	-9.22
180.844	-21.5
181.064	54.27
181.283	25.6
181.503	-21.5
181.723	3.07
181.943	11.26
182.163	95.23
182.383	23.55
182.602	62.46
182.822	25.6
183.042	5.12
183.262	-7.17
183.482	39.94
183.701	19.46
183.921	60.42
184.141	-23.55
184.361	146.43
184.58	37.89
184.8	48.13
185.02	17.41
185.239	80.89
185.459	64.51
185.679	46.08
185.898	39.94
186.118	103.42
186.338	91.13
186.557	134.14
186.777	5.12
186.997	41.98
187.216	25.6
187.436	117.76
187.655	50.18
187.875	84.99
188.095	-1.02
188.314	82.94
188.534	46.08
188.753	15.36
188.973	72.7
189.192	89.09
189.412	66.56
189.631	78.85
189.851	5.12
190.07	29.7
190.29	25.6
190.509	60.42
190.729	70.65
190.948	66.56
191.168	101.37
191.387	46.08
191.607	76.8
191.826	19.46
192.045	33.79
192.265	5.12
192.484	29.7
192.704	27.65
192.923	13.31
193.142	50.18
193.362	97.28
193.581	54.27
193.8	48.13
194.02	76.8
194.239	39.94
194.458	54.27
194.678	76.8
194.897	-25.6
195.116	52.22
195.335	103.42
195.555	58.37
195.774	-39.94
195.993	68.61
196.212	64.51
196.432	33.79
196.651	31.74
196.87	101.37
197.089	87.04
197.308	115.71
197.528	1.02
197.747	-64.51
197.966	35.84
198.185	72.7
198.404	48.13
198.623	31.74
198.842	99.33
199.062	13.31
199.281	46.08
199.5	84.99
199.719	107.52
199.938	64.51
200.157	62.46
200.376	1.02
200.595	37.89
200.814	35.84
201.033	3.07
201.252	-7.17
201.471	60.42
201.69	33.79
201.909	52.22
202.128	66.56
202.347	39.94
202.566	15.36
202.785	33.79
203.004	-1.02
203.223	105.47
203.442	27.65
203.661	54.27
203.879	5.12
204.098	160.77
204.317	64.51
204.536	103.42
204.755	41.98
204.974	91.13
205.193	72.7
205.411	91.13
205.63	15.36
205.849	5.12
206.068	-21.5
206.287	64.51
206.505	107.52
206.724	21.5
206.943	50.18
207.162	70.65
207.381	37.89
207.599	70.65
207.818	-3.07
208.037	41.98
208.255	27.65
208.474	113.66
208.693	70.65
208.911	70.65
209.13	37.89
209.349	76.8
209.567	11.26
209.786	117.76
210.005	80.89
210.223	25.6
210.442	-39.94
210.661	-13.31
210.879	41.98
211.098	17.41
211.316	33.79
211.535	41.98
211.753	72.7
211.972	50.18
212.191	9.22
212.409	74.75
212.628	87.04
212.846	82.94
213.065	144.38
213.283	56.32
213.502	-9.22
213.72	15.36
213.938	105.47
214.157	54.27
214.375	89.09
214.594	-9.22
214.812	-25.6
215.031	39.94
215.249	-15.36
215.467	33.79
215.686	99.33
215.904	50.18
216.122	-27.65
216.341	93.18
216.559	62.46
216.778	78.85
216.996	54.27
217.214	95.23
217.432	25.6
217.651	1.02
217.869	37.89
218.087	35.84
218.306	103.42
218.524	113.66
218.742	-25.6
218.96	97.28
219.179	19.46
219.397	58.37
219.615	103.42
219.833	74.75
220.051	62.46
220.27	70.65
220.488	87.04
220.706	35.84
220.924	25.6
221.142	21.5
221.36	78.85
221.578	76.8
221.796	29.7
222.015	46.08
222.233	95.23
222.451	-80.89
222.669	74.75
222.887	105.47
223.105	-17.41
223.323	78.85
223.541	50.18
223.759	76.8
223.977	13.31
224.195	66.56
224.413	48.13
224.631	78.85
224.849	111.61
225.067	41.98
225.285	41.98
225.503	9.22
225.721	-62.46
225.939	1.02
226.157	80.89
226.375	111.61
226.592	41.98
226.81	41.98
227.028	115.71
227.246	46.08
227.464	35.84
227.682	105.47
227.9	3.07
228.117	15.36
228.335	80.89
228.553	87.04
228.771	95.23
228.989	74.75
229.206	113.66
229.424	-19.46
229.642	35.84
229.86	99.33
230.077	56.32
230.295	1.02
230.513	66.56
230.731	111.61
230.948	37.89
231.166	87.04
231.384	58.37
231.601	-23.55
231.819	66.56
232.037	64.51
232.254	46.08
232.472	35.84
232.689	66.56
232.907	64.51
233.125	111.61
233.342	7.17
233.56	72.7
233.777	-52.22
233.995	33.79
234.213	78.85
234.43	17.41
234.648	97.28
234.865	37.89
235.083	39.94
235.3	-9.22
235.518	-5.12
235.735	97.28
235.953	117.76
236.17	54.27
236.388	66.56
236.605	31.74
236.822	95.23
237.04	19.46
237.257	-3.07
237.475	97.28
237.692	-7.17
237.909	1.02
238.127	-7.17
238.344	66.56
238.562	58.37
238.779	46.08
238.996	-7.17
239.214	50.18
239.431	70.65
239.648	58.37
239.865	39.94
240.083	60.42
240.3	7.17
240.517	78.85
240.735	99.33
240.952	130.05
241.169	27.65
241.386	58.37
241.603	84.99
241.821	82.94
242.038	66.56
242.255	-9.22
242.472	31.74
242.689	-1.02
242.907	25.6
243.124	9.22
243.341	72.7
243.558	-23.55
243.775	21.5
243.992	-3.07
244.209	7.17
244.426	68.61
244.643	41.98
244.86	37.89
245.078	5.12
245.295	101.37
245.512	21.5
245.729	64.51
245.946	132.09
246.163	52.22
246.38	7.17
246.597	27.65
246.814	35.84
247.031	54.27
247.248	54.27
247.464	54.27
247.681	87.04
247.898	31.74
248.115	91.13
248.332	-33.79
248.549	142.33
248.766	91.13
248.983	-23.55
249.2	15.36
249.417	-7.17
249.633	-9.22
249.85	60.42
250.067	-11.26
250.284	-56.32
250.501	17.41
250.717	93.18
250.934	44.03
251.151	-5.12
251.368	-35.84
251.585	64.51
251.801	97.28
252.018	17.41
252.235	80.89
252.451	-9.22
252.668	113.66
252.885	76.8
253.102	19.46
253.318	44.03
253.535	-15.36
253.752	101.37
253.968	23.55
254.185	48.13
254.401	87.04
254.618	66.56
254.835	39.94
255.051	91.13
255.268	41.98
255.484	119.81
255.701	50.18
255.917	121.85
256.134	33.79
256.351	72.7
256.567	21.5
256.784	25.6
257	29.7
257.217	-27.65
257.433	25.6
257.65	52.22
257.866	44.03
258.082	17.41
258.299	5.12
258.515	23.55
258.732	23.55
258.948	33.79
259.165	9.22
259.381	-1.02
259.597	80.89
259.814	74.75
260.03	25.6
260.246	41.98
260.463	58.37
260.679	144.38
260.895	87.04
261.112	60.42
261.328	70.65
261.544	-7.17
261.761	62.46
261.977	5.12
262.193	74.75
262.409	70.65
262.626	91.13
262.842	80.89
263.058	-56.32
263.274	33.79
263.49	64.51
263.707	87.04
263.923	117.76
264.139	-44.03
264.355	91.13
264.571	138.24
264.787	23.55
265.004	50.18
265.22	99.33
265.436	48.13
265.652	35.84
265.868	123.9
266.084	58.37
266.3	9.22
266.516	-15.36
266.732	107.52
266.948	13.31
267.164	31.74
267.38	60.42
267.596	56.32
267.812	78.85
268.028	-9.22
268.244	-31.74
268.46	70.65
268.676	99.33
268.892	66.56
269.108	52.22
269.324	54.27
269.54	54.27
269.756	52.22
269.972	17.41
270.188	87.04
270.403	-11.26
270.619	15.36
270.835	-11.26
271.051	91.13
271.267	66.56
271.483	105.47
271.698	101.37
271.914	33.79
272.13	15.36
272.346	89.09
272.562	-21.5
272.777	66.56
272.993	33.79
273.209	-7.17
273.425	64.51
273.64	33.79
273.856	33.79
274.072	-23.55
274.287	52.22
274.503	58.37
274.719	39.94
274.934	19.46
275.15	17.41
275.366	138.24
275.581	72.7
275.797	68.61
276.012	37.89
276.228	56.32
276.444	-23.55
276.659	33.79
276.875	56.32
277.09	64.51
277.306	-37.89
277.521	103.42
277.737	31.74
277.952	17.41
278.168	78.85
278.383	66.56
278.599	31.74
278.814	105.47
279.03	15.36
279.245	82.94
279.461	33.79
279.676	78.85
279.892	-48.13
280.107	35.84
280.322	13.31
280.538	23.55
280.753	52.22
280.969	41.98
281.184	50.18
281.399	-17.41
281.615	74.75
281.83	119.81
282.045	56.32
282.26	62.46
282.476	41.98
282.691	109.57
282.906	44.03
283.122	99.33
283.337	99.33
283.552	68.61
283.767	70.65
283.983	68.61
284.198	31.74
284.413	52.22
284.628	-1.02
284.843	39.94
285.058	64.51
285.274	31.74
285.489	82.94
285.704	115.71
285.919	-21.5
286.134	41.98
286.349	56.32
286.564	31.74
286.779	111.61
286.995	21.5
287.21	13.31
287.425	78.85
287.64	23.55
287.855	33.79
288.07	-1.02
288.285	41.98
288.5	25.6
288.715	31.74
288.93	29.7
289.145	60.42
289.36	87.04
289.575	21.5
289.79	29.7
290.004	15.36
290.219	23.55
290.434	9.22
290.649	46.08
290.864	33.79
291.079	74.75
291.294	103.42
291.509	64.51
291.724	33.79
291.938	50.18
292.153	103.42
292.368	66.56
292.583	44.03
292.798	50.18
293.012	80.89
293.227	82.94
293.442	25.6
293.657	93.18
293.871	119.81
294.086	78.85
294.301	78.85
294.516	125.95
294.73	68.61
294.945	31.74
295.16	5.12
295.374	130.05
295.589	68.61
295.804	-3.07
296.018	33.79
296.233	105.47
296.447	101.37
296.662	82.94
296.877	132.09
297.091	97.28
297.306	95.23
297.52	5.12
297.735	82.94
297.949	134.14
298.164	9.22
298.378	33.79
298.593	23.55
298.807	107.52
299.022	56.32
299.236	76.8
299.451	64.51
299.665	-3.07
299.88	99.33
300.094	123.9
300.309	37.89
300.523	76.8
300.737	37.89
300.952	33.79
301.166	99.33
301.381	17.41
301.595	105.47
301.809	1.02
302.024	68.61
302.238	62.46
302.452	52.22
302.667	25.6
302.881	72.7
303.095	103.42
303.309	95.23
303.524	97.28
303.738	46.08
303.952	35.84
304.166	-27.65
304.381	66.56
304.595	66.56
304.809	1.02
305.023	113.66
305.237	-56.32
305.452	64.51
305.666	25.6
305.88	33.79
306.094	82.94
306.308	80.89
306.522	66.56
306.736	107.52
306.95	56.32
307.164	121.85
307.379	80.89
307.593	148.48
307.807	-27.65
308.021	70.65
308.235	-3.07
308.449	23.55
308.663	-17.41
308.877	97.28
309.091	25.6
309.305	31.74
309.519	7.17
309.733	103.42
309.947	1.02
310.161	60.42
310.374	33.79
310.588	33.79
310.802	74.75
311.016	121.85
311.23	25.6
311.444	-15.36
311.658	15.36
311.872	87.04
312.085	41.98
312.299	123.9
312.513	58.37
312.727	54.27
312.941	50.18
313.154	78.85
313.368	9.22
313.582	66.56
313.796	125.95
314.009	121.85
314.223	70.65
314.437	23.55
314.651	74.75
314.864	15.36
315.078	121.85
315.292	15.36
315.505	33.79
315.719	93.18
315.933	99.33
316.146	82.94
316.36	1.02
316.573	56.32
316.787	31.74
317.001	25.6
317.214	13.31
317.428	89.09
317.641	25.6
317.855	80.89
318.068	97.28
318.282	144.38
318.495	99.33
318.709	54.27
318.922	-50.18
319.136	33.79
319.349	70.65
319.563	56.32
319.776	99.33
319.99	25.6
320.203	3.07
320.417	46.08
320.63	56.32
320.843	70.65
321.057	41.98
321.27	66.56
321.483	91.13
321.697	103.42
321.91	91.13
322.124	87.04
322.337	103.42
322.55	-11.26
322.763	9.22
322.977	52.22
323.19	21.5
323.403	62.46
323.617	15.36
323.83	95.23
324.043	48.13
324.256	70.65
324.469	89.09
324.683	103.42
324.896	19.46
325.109	60.42
325.322	58.37
325.535	29.7
325.748	37.89
325.962	123.9
326.175	41.98
326.388	123.9
326.601	109.57
326.814	60.42
327.027	31.74
327.24	87.04
327.453	-11.26
327.666	87.04
327.879	13.31
328.092	58.37
328.305	74.75
328.518	68.61
328.731	-15.36
328.944	68.61
329.157	80.89
329.37	74.75
329.583	84.99
329.796	82.94
330.009	9.22
330.222	72.7
330.435	134.14
330.648	117.76
330.861	70.65
331.073	128
331.286	37.89
331.499	33.79
331.712	17.41
331.925	54.27
332.138	11.26
332.35	97.28
332.563	103.42
332.776	78.85
332.989	41.98
333.202	15.36
333.414	-3.07
333.627	70.65
333.84	11.26
334.053	91.13
334.265	9.22
334.478	91.13
334.691	1.02
334.903	74.75
335.116	-54.27
335.329	54.27
335.541	91.13
335.754	117.76
335.966	99.33
336.179	119.81
336.392	62.46
336.604	103.42
336.817	103.42
337.029	39.94
337.242	107.52
337.454	97.28
337.667	13.31
337.88	25.6
338.092	103.42
338.305	50.18
338.517	48.13
338.729	160.77
338.942	113.66
339.154	60.42
339.367	-15.36
339.579	99.33
339.792	56.32
340.004	25.6
340.217	33.79
340.429	136.19
340.641	58.37
340.854	66.56
341.066	72.7
341.278	101.37
341.491	80.89
341.703	107.52
341.915	-44.03
342.128	99.33
342.34	46.08
342.552	84.99
342.764	82.94
342.977	60.42
343.189	35.84
343.401	154.62
343.613	62.46
343.826	58.37
344.038	111.61
344.25	97.28
344.462	89.09
344.674	84.99
344.886	35.84
345.099	113.66
345.311	25.6
345.523	95.23
345.735	58.37
345.947	70.65
346.159	64.51
346.371	99.33
346.583	99.33
346.795	99.33
347.007	7.17
347.219	95.23
347.431	3.07
347.643	123.9
347.855	27.65
348.067	33.79
348.279	-25.6
348.491	72.7
348.703	31.74
348.915	37.89
349.127	27.65
349.339	-3.07
349.551	74.75
349.763	109.57
349.975	107.52
350.187	121.85
350.399	99.33
350.61	101.37
350.822	105.47
351.034	46.08
351.246	21.5
351.458	9.22
351.669	84.99
351.881	158.72
352.093	89.09
352.305	89.09
352.517	76.8
352.728	138.24
352.94	87.04
353.152	21.5
353.363	87.04
353.575	41.98
353.787	119.81
353.999	84.99
354.21	25.6
354.422	48.13
354.633	17.41
354.845	46.08
355.057	72.7
355.268	66.56
355.48	48.13
355.692	3.07
355.903	72.7
356.115	-37.89
356.326	33.79
356.538	171.01
356.749	80.89
356.961	58.37
357.172	78.85
357.384	11.26
357.595	66.56
357.807	82.94
358.018	19.46
358.23	50.18
358.441	150.53
358.653	27.65
358.864	82.94
359.075	74.75
359.287	113.66
359.498	93.18
359.709	91.13
359.921	87.04
360.132	99.33
360.344	29.7
360.555	84.99
360.766	19.46
360.977	164.86
361.189	33.79
361.4	80.89
361.611	91.13
361.823	101.37
362.034	74.75
362.245	117.76
362.456	48.13
362.667	82.94
362.879	87.04
363.09	95.23
363.301	148.48
363.512	134.14
363.723	70.65
363.935	93.18
364.146	76.8
364.357	87.04
364.568	29.7
364.779	58.37
364.99	119.81
365.201	31.74
365.412	132.09
365.623	33.79
365.834	130.05
366.045	21.5
366.256	136.19
366.467	50.18
366.678	-11.26
366.889	64.51
367.1	80.89
367.311	113.66
367.522	68.61
367.733	15.36
367.944	39.94
368.155	101.37
368.366	70.65
368.577	111.61
368.788	80.89
368.999	-13.31
369.209	56.32
369.42	46.08
369.631	130.05
369.842	64.51
370.053	70.65
370.264	46.08
370.474	48.13
370.685	17.41
370.896	60.42
371.107	130.05
371.317	132.09
371.528	123.9
371.739	123.9
371.95	70.65
372.16	84.99
372.371	-52.22
372.582	15.36
372.792	39.94
373.003	89.09
373.214	46.08
373.424	109.57
373.635	17.41
373.846	150.53
374.056	41.98
374.267	66.56
374.477	132.09
374.688	101.37
374.898	44.03
375.109	39.94
375.319	72.7
375.53	9.22
375.74	115.71
375.951	84.99
376.161	91.13
376.372	142.33
376.582	23.55
376.793	33.79
377.003	97.28
377.214	70.65
377.424	54.27
377.635	80.89
377.845	-13.31
378.055	60.42
378.266	23.55
378.476	25.6
378.686	62.46
378.897	123.9
379.107	134.14
379.317	89.09
379.528	60.42
379.738	54.27
379.948	56.32
380.158	56.32
380.369	164.86
380.579	72.7
380.789	72.7
380.999	97.28
381.21	41.98
381.42	128
381.63	64.51
381.84	89.09
382.05	105.47
382.261	121.85
382.471	82.94
382.681	31.74
382.891	72.7
383.101	103.42
383.311	9.22
383.521	21.5
383.731	119.81
383.941	89.09
384.151	68.61
384.361	148.48
384.571	97.28
384.781	148.48
384.991	148.48
385.201	105.47
385.411	62.46
385.621	74.75
385.831	74.75
386.041	97.28
386.251	87.04
386.461	87.04
386.671	41.98
386.881	130.05
387.091	68.61
387.301	156.67
387.511	72.7
387.72	93.18
387.93	7.17
388.14	46.08
388.35	78.85
388.56	74.75
388.769	93.18
388.979	89.09
389.189	-23.55
389.399	150.53
389.609	37.89
389.818	115.71
390.028	164.86
390.238	82.94
390.447	99.33
390.657	54.27
390.867	95.23
391.076	21.5
391.286	99.33
391.496	58.37
391.705	115.71
391.915	185.34
392.125	93.18
392.334	111.61
392.544	173.05
392.753	91.13
392.963	144.38
393.172	150.53
393.382	70.65
393.591	115.71
393.801	84.99
394.01	164.86
394.22	87.04
394.429	115.71
394.639	87.04
394.848	123.9
395.058	119.81
395.267	91.13
395.477	66.56
395.686	115.71
395.895	117.76
396.105	103.42
396.314	209.92
396.524	166.91
396.733	58.37
396.942	164.86
397.152	134.14
397.361	211.96
397.57	87.04
397.78	156.67
397.989	136.19
398.198	193.53
398.407	91.13
398.617	136.19
398.826	130.05
399.035	123.9
399.244	168.96
399.453	134.14
399.663	95.23
399.872	97.28
400.081	132.09
400.29	156.67
400.499	132.09
400.708	187.39
400.917	177.15
401.127	91.13
401.336	160.77
401.545	252.92
401.754	138.24
401.963	144.38
402.172	156.67
402.381	164.86
402.59	156.67
402.799	89.09
403.008	173.05
403.217	148.48
403.426	197.63
403.635	173.05
403.844	156.67
404.053	240.64
404.262	111.61
404.471	185.34
404.68	173.05
404.888	209.92
405.097	150.53
405.306	197.63
405.515	234.49
405.724	150.53
405.933	179.2
406.142	179.2
406.35	236.54
406.559	193.53
406.768	185.34
406.977	263.16
407.185	214.01
407.394	271.36
407.603	205.82
407.812	279.55
408.02	267.26
408.229	238.59
408.438	248.83
408.646	269.31
408.855	336.89
409.064	361.47
409.272	295.93
409.481	320.51
409.69	345.08
409.898	308.22
410.107	390.14
410.315	332.79
410.524	334.84
410.733	472.06
410.941	408.57
411.15	459.77
411.358	449.53
411.567	443.39
411.775	463.86
411.984	560.12
412.192	488.44
412.401	533.5
412.609	601.08
412.818	533.5
413.026	619.51
413.234	545.78
413.443	623.61
413.651	623.61
413.86	615.41
414.068	717.81
414.276	711.67
414.485	668.66
414.693	812.02
414.901	771.06
415.11	764.92
415.318	816.12
415.526	828.4
415.734	873.46
415.943	941.04
416.151	1002.48
416.359	812.02
416.567	1014.77
416.776	893.94
416.984	1088.5
417.192	1104.88
417.4	1053.68
417.608	1092.59
417.817	1123.31
418.025	1211.37
418.233	1295.34
418.441	1258.48
418.649	1352.68
418.857	1436.65
419.065	1506.28
419.273	1369.07
419.481	1465.32
419.689	1577.96
419.897	1659.88
420.105	1594.34
420.313	1758.18
420.521	1819.62
420.729	1848.29
420.937	1836
421.145	1885.16
421.353	1967.07
421.561	2071.52
421.769	2171.87
421.977	2300.89
422.185	2231.26
422.393	2372.57
422.601	2530.27
422.809	2528.22
423.017	2571.22
423.224	2601.94
423.432	2704.34
423.64	2827.22
423.848	2984.91
424.056	2948.05
424.263	3136.46
424.471	3228.62
424.679	3398.6
424.887	3374.03
425.094	3408.84
425.302	3421.13
425.51	3773.38
425.718	3707.85
425.925	3726.28
426.133	3969.99
426.341	4105.15
426.548	4271.04
426.756	4297.66
426.964	4375.49
427.171	4637.63
427.379	4592.57
427.586	4885.43
427.794	4981.68
428.001	5213.1
428.209	5249.97
428.417	5211.06
428.624	5469.1
428.832	5690.28
429.039	5491.63
429.247	5505.96
429.454	6265.76
429.662	6615.96
429.869	6220.71
430.076	6661.02
430.284	6411.17
430.491	6798.23
430.699	7154.58
430.906	7216.02
431.114	7168.91
431.321	7373.71
431.528	7650.19
431.736	7959.43
431.943	8426.37
432.15	8276.87
432.358	8174.47
432.565	8776.57
432.772	8741.75
432.979	9130.87
433.187	9122.68
433.394	9378.67
433.601	10011.5
433.808	9927.53
434.016	9900.9
434.223	10314.59
434.43	10953.56
434.637	10716
434.844	11227.99
435.052	11498.32
435.259	11400.02
435.466	11565.9
435.673	11498.32
435.88	12125
436.087	12860.22
436.294	12864.32
436.501	12739.39
436.708	12935.99
436.915	13490.99
437.122	13869.87
437.329	13814.57
437.537	14433.06
437.743	14506.79
437.95	14273.32
438.157	15000.35
438.364	15684.37
438.571	15612.69
438.778	15772.43
438.985	17203.96
439.192	16399.11
439.399	16986.88
439.606	16532.23
439.813	17664.75
440.02	18701.03
440.227	18211.56
440.433	18070.25
440.64	18954.97
440.847	18418.41
441.054	18877.15
441.261	20337.35
441.467	20103.89
441.674	20230.86
441.881	21052.09
442.088	21320.38
442.294	20875.97
442.501	21535.42
442.708	21897.91
442.914	22770.34
443.121	23730.84
443.328	23032.48
443.534	24541.83
443.741	23982.74
443.948	23761.56
444.154	25346.69
444.361	24994.43
444.568	25266.81
444.774	25596.54
444.981	25567.87
445.187	26356.33
445.394	27535.96
445.6	27083.36
445.807	29897.27
446.013	28043.86
446.22	28996.17
446.426	29811.26
446.633	30132.79
446.839	31242.79
447.046	30061.11
447.252	31636
447.459	31873.56
447.665	31451.68
447.871	32811.53
448.078	34218.49
448.284	32504.34
448.491	33430.02
448.697	34931.18
448.903	35500.51
449.11	34922.99
449.316	34744.81
449.522	35353.06
449.728	36157.91
449.935	36788.69
450.141	36397.52
450.347	37542.34
450.553	36221.4
450.76	36579.79
450.966	37540.29
451.172	37530.05
451.378	38199.74
451.584	37403.08
451.791	38267.32
451.997	38136.25
452.203	38312.38
452.409	38508.98
452.615	38162.87
452.821	37161.42
453.027	36596.18
453.233	38212.02
453.44	36610.51
453.646	37179.85
453.852	37190.09
454.058	37702.08
454.264	36403.67
454.47	37286.34
454.676	36544.98
454.882	37710.27
455.088	34343.41
455.294	35117.54
455.5	35152.36
455.705	35801.57
455.911	34298.36
456.117	33550.85
456.323	32895.5
456.529	31291.94
456.735	32547.34
456.941	31734.3
457.147	31355.43
457.352	30360.11
457.558	29989.43
457.764	30220.85
457.97	29350.46
458.176	28701.26
458.381	28715.59
458.587	27062.88
458.793	27603.55
458.999	26165.87
459.204	27904.6
459.41	26937.96
459.616	25313.92
459.821	25438.84
460.027	25404.03
460.233	24689.29
460.438	23288.48
460.644	23687.83
460.85	22778.53
461.055	22336.17
461.261	22151.85
461.466	20777.67
461.672	20183.76
461.878	21412.54
462.083	20148.94
462.289	19415.77
462.494	19495.64
462.7	18942.69
462.905	17951.47
463.111	18496.23
463.316	18727.65
463.522	18408.17
463.727	18516.71
463.932	18623.2
464.138	18352.87
464.343	18217.71
464.549	17720.05
464.754	18336.49
464.959	18258.67
465.165	18238.19
465.37	17210.11
465.575	16874.24
465.781	17351.42
465.986	17873.65
466.191	16859.9
466.397	16794.37
466.602	16212.74
466.807	16694.02
467.012	16567.04
467.218	16429.83
467.423	16431.88
467.628	16288.52
467.833	16968.45
468.038	16405.25
468.244	15770.38
468.449	16483.08
468.654	15950.6
468.859	15788.82
469.064	15864.59
469.269	15125.27
469.474	15411.99
469.679	15663.89
469.885	14959.39
470.09	15244.06
470.295	15260.44
470.5	14852.89
470.705	14957.34
470.91	14301.99
471.115	14289.7
471.32	14666.53
471.525	14449.44
471.73	14250.79
471.935	14381.86
472.139	13902.64
472.344	13755.18
472.549	13800.24
472.754	13482.8
472.959	13273.91
473.164	12784.44
473.369	13048.63
473.574	13382.45
473.778	13351.73
473.983	13052.73
474.188	12872.51
474.393	12399.43
474.598	12528.45
474.802	12395.33
475.007	12313.41
475.212	12235.59
475.417	11858.76
475.621	11889.48
475.826	11930.44
476.031	11475.79
476.235	11641.68
476.44	11713.36
476.645	11713.36
476.849	11303.76
477.054	11574.1
477.259	10994.52
477.463	11062.1
477.668	10861.4
477.872	10908.51
478.077	10769.24
478.282	10273.64
478.486	10476.38
478.691	10472.29
478.895	10480.48
479.1	10427.23
479.304	10146.66
479.509	10101.61
479.713	10298.21
479.918	10003.3
480.122	9929.58
480.326	10132.33
480.531	10126.18
480.735	10074.98
480.94	9964.39
481.144	10373.99
481.348	9612.14
481.553	10027.88
481.757	9573.23
481.961	9790.31
482.166	9735.02
482.37	9796.46
482.574	9581.42
482.778	9505.65
482.983	9841.51
483.187	9720.68
483.391	9790.31
483.595	9687.92
483.8	9562.99
484.004	9700.2
484.208	9702.25
484.412	9646.96
484.616	9749.36
484.821	9821.03
485.025	9347.95
485.229	9827.18
485.433	9618.29
485.637	9700.2
485.841	9665.39
486.045	9593.71
486.249	9548.65
486.453	9524.08
486.657	9608.05
486.861	9825.13
487.065	9487.22
487.269	9460.59
487.473	9419.63
487.677	9761.64
487.881	9868.14
488.085	9671.53
488.289	9808.75
488.493	9681.77
488.697	9923.43
488.901	9986.92
489.105	9694.06
489.309	9827.18
489.512	9788.27
489.716	9812.84
489.92	9634.67
490.124	9538.41
490.328	10040.17
490.531	9960.3
490.735	9790.31
490.939	10001.26
491.143	9966.44
491.346	9970.54
491.55	10117.99
491.754	10230.63
491.958	10064.74
492.161	10210.15
492.365	10439.52
492.569	10183.52
492.772	10214.24
492.976	10068.84
493.18	10365.79
493.383	10515.3
493.587	10433.38
493.79	10689.37
493.994	10533.73
494.197	10632.03
494.401	10699.61
494.605	10816.35
494.808	11078.49
495.012	11025.24
495.215	10879.83
495.419	11182.93
495.622	11029.34
495.825	11301.72
496.029	11289.43
496.232	11674.45
496.436	11463.51
496.639	11701.07
496.843	11647.82
497.046	11852.62
497.249	11967.31
497.453	12010.31
497.656	12260.16
497.859	12417.86
498.063	12313.41
498.266	12680
498.469	12479.3
498.673	12682.05
498.876	12991.29
499.079	13011.77
499.282	12868.41
499.485	13306.68
499.689	13476.66
499.892	13826.86
500.095	13693.74
500.298	13998.89
500.501	13962.03
500.705	14261.03
500.908	14400.29
501.111	14488.35
501.314	14584.61
501.517	14918.43
501.72	14777.12
501.923	14924.57
502.126	15375.13
502.329	15590.16
502.532	15579.92
502.735	15981.32
502.938	15803.15
503.141	16096.01
503.344	16384.77
503.547	16581.38
503.75	16616.19
503.953	16872.19
504.156	16790.27
504.359	17328.89
504.562	17257.21
504.765	17769.2
504.968	17720.05
505.17	18129.64
505.373	17947.37
505.576	18432.74
505.779	18510.57
505.982	18815.71
506.185	19272.41
506.387	19372.76
506.59	19053.28
506.793	19567.32
506.996	19622.61
507.198	20118.22
507.401	20101.84
507.604	20433.61
507.807	20710.08
508.009	21021.38
508.212	21084.86
508.415	21267.13
508.617	21498.55
508.82	21623.48
509.022	21676.73
509.225	22227.63
509.428	22252.2
509.63	22463.15
509.833	22643.37
510.035	23220.89
510.238	23012
510.44	23126.69
510.643	23708.31
510.845	24124.05
511.048	23648.92
511.25	24230.54
511.453	24259.21
511.655	25356.93
511.858	24824.45
512.06	25463.42
512.262	25657.98
512.465	25549.43
512.667	25819.77
512.87	26120.82
513.072	26235.5
513.274	26618.47
513.477	26907.24
513.679	27320.93
513.881	27675.23
514.084	27877.97
514.286	27927.13
514.488	28023.38
514.69	28871.24
514.893	28414.54
515.095	28940.87
515.297	29592.12
515.499	29354.56
515.701	29596.22
515.904	30036.53
516.106	30065.21
516.308	30685.74
516.51	31205.92
516.712	30851.63
516.914	31355.43
517.116	31523.36
517.318	31623.71
517.52	32533.01
517.722	32436.75
517.925	32444.94
518.127	33026.57
518.329	33278.47
518.531	33057.29
518.733	33913.34
518.935	34443.76
519.136	34275.83
519.338	34671.09
519.54	34753.01
519.742	35273.19
519.944	35449.32
520.146	35834.33
520.348	36272.6
520.55	36071.9
520.752	36434.39
520.954	37112.27
521.155	37063.11
521.357	37827.01
521.559	38117.82
521.761	38169.02
521.963	38582.71
522.164	38461.88
522.366	38820.27
522.568	38953.39
522.77	39338.41
522.971	40040.86
523.173	39442.85
523.375	40249.75
523.576	39958.94
523.778	40335.77
523.98	40700.31
524.181	40825.23
524.383	41060.75
524.584	41363.85
524.786	42043.77
524.988	41478.54
525.189	41998.72
525.391	42234.24
525.592	42275.19
525.794	42783.09
525.995	42660.21
526.197	42885.49
526.398	43151.73
526.6	43845.99
526.801	43594.09
527.003	43891.04
527.204	43749.73
527.406	44214.62
527.607	44484.95
527.808	44820.82
528.01	43903.33
528.211	44558.68
528.412	45295.95
528.614	45037.9
528.815	45455.69
529.016	45865.28
529.218	45216.08
529.419	45527.37
529.62	45611.34
529.822	45754.69
530.023	45887.81
530.224	45936.96
530.425	46113.09
530.626	45801.8
530.828	45783.37
531.029	47124.78
531.23	46059.84
531.431	46205.25
531.632	46047.55
531.833	47055.15
532.035	46831.93
532.236	46770.49
532.437	46971.19
532.638	46889.27
532.839	46852.41
533.04	47294.77
533.241	47012.15
533.442	47606.06
533.643	47548.71
533.844	47118.64
534.045	47175.98
534.246	46813.49
534.447	47276.33
534.648	47311.15
534.849	47370.54
535.05	47282.48
535.251	47278.38
535.451	47425.84
535.652	47474.99
535.853	47474.99
536.054	47579.43
536.255	47618.35
536.456	47083.83
536.657	48290.08
536.857	47593.77
537.058	47155.5
537.259	48077.09
537.46	47550.76
537.66	47515.95
537.861	48257.31
538.062	47397.16
538.263	48290.08
538.463	47743.27
538.664	47786.28
538.865	47962.4
539.065	48134.43
539.266	47167.79
539.466	47778.09
539.667	47274.29
539.868	47917.35
540.068	48122.15
540.269	47608.11
540.469	48142.63
540.67	47542.57
540.87	47761.7
541.071	47845.67
541.271	48007.46
541.472	47733.03
541.672	47708.46
541.873	47714.6
542.073	47147.31
542.274	48449.82
542.474	47675.69
542.675	47544.62
542.875	48253.22
543.075	47360.3
543.276	47352.11
543.476	48285.98
543.676	47685.93
543.877	47446.32
544.077	47579.43
544.277	48058.66
544.478	47425.84
544.678	47726.89
544.878	47900.97
545.078	47696.17
545.279	47413.55
545.479	47606.06
545.679	47763.75
545.879	47591.72
546.079	47413.55
546.28	47565.1
546.48	47317.29
546.68	47896.87
546.88	47620.39
547.08	47434.03
547.28	47264.05
547.48	47143.22
547.68	47814.95
547.88	47233.33
548.081	47419.69
548.281	47663.4
548.481	47360.3
548.681	48007.46
548.881	47745.32
549.081	47677.74
549.28	47042.87
549.48	47634.73
549.68	47444.27
549.88	48224.54
550.08	47677.74
550.28	47421.74
550.48	47503.66
550.68	47888.68
550.88	47778.09
551.08	47374.64
551.279	47200.56
551.479	47204.66
551.679	47556.91
551.879	47210.8
552.079	48054.56
552.278	47466.8
552.478	47188.27
552.678	47419.69
552.878	47266.09
553.077	47118.64
553.277	47067.44
553.477	47935.78
553.676	46917.94
553.876	47335.73
554.076	47008.05
554.275	46907.7
554.475	46737.72
554.674	46885.17
554.874	46999.86
555.074	47057.2
555.273	47284.53
555.473	47305.01
555.672	46909.75
555.872	46643.51
556.071	46786.87
556.271	47163.7
556.47	46635.32
556.67	46246.21
556.869	46608.7
557.068	46557.5
557.268	46688.57
557.467	46872.88
557.667	46893.36
557.866	46541.11
558.065	46262.59
558.265	46350.65
558.464	45777.22
558.663	46543.16
558.863	46147.9
559.062	46983.48
559.261	45863.24
559.461	46518.59
559.66	45373.77
559.859	46041.41
560.058	45566.28
560.258	46139.71
560.457	45857.09
560.656	46254.4
560.855	45594.95
561.054	45875.52
561.253	45003.09
561.453	45459.79
561.652	45316.43
561.851	45711.69
562.05	45500.75
562.249	44683.61
562.448	45617.48
562.647	45324.62
562.846	45119.82
563.045	45461.83
563.244	44579.16
563.443	45302.09
563.642	44321.12
563.841	44642.65
564.04	44300.64
564.239	44964.18
564.438	44247.39
564.637	44319.07
564.836	44392.79
565.035	43821.41
565.234	44374.36
565.432	43911.52
565.631	44005.73
565.83	43995.49
566.029	43403.63
566.228	43624.81
566.427	43567.46
566.625	43000.18
566.824	43022.7
567.023	43450.73
567.222	42871.15
567.42	43702.63
567.619	43065.71
567.818	42574.2
568.016	42983.79
568.215	42940.78
568.414	42334.59
568.612	42410.36
568.811	42557.81
569.01	42297.72
569.208	41771.39
569.407	42256.76
569.605	41623.94
569.804	42281.34
570.002	41822.59
570.201	41986.43
570.4	41431.43
570.598	41462.15
570.797	41247.11
570.995	41681.28
571.193	40790.42
571.392	41212.3
571.59	41075.09
571.789	41200.01
571.987	40800.66
572.186	41050.51
572.384	40444.31
572.582	41107.85
572.781	41050.51
572.979	40173.98
573.177	40843.66
573.376	40290.71
573.574	39352.74
573.772	40331.67
573.971	40049.05
574.169	39594.4
574.367	39565.73
574.565	40067.48
574.763	39506.34
574.962	39618.98
575.16	39014.83
575.358	39131.56
575.556	38730.16
575.754	39291.3
575.952	38621.62
576.151	39182.76
576.349	38310.33
576.547	38531.51
576.745	38660.53
576.943	38410.68
577.141	38318.52
577.339	38504.88
577.537	38324.66
577.735	38013.37
577.933	38005.18
578.131	38085.05
578.329	37456.32
578.527	37511.62
578.725	37953.98
578.923	37446.08
579.121	37468.61
579.319	36983.24
579.516	37460.42
579.714	36979.15
579.912	36923.85
580.11	36970.96
580.308	36981.2
580.506	37102.03
580.704	36028.89
580.901	36811.21
581.099	36782.54
581.297	36028.89
581.495	36073.95
581.692	36362.71
581.89	35901.92
582.088	36463.06
582.285	35951.07
582.483	36106.71
582.681	35793.37
582.878	35832.29
583.076	35697.12
583.274	35637.73
583.471	34984.43
583.669	35539.43
583.866	35252.71
584.064	35439.08
584.262	35006.95
584.459	35144.17
584.657	34953.71
584.854	34818.54
585.052	34445.81
585.249	34728.43
585.447	34806.25
585.644	34585.07
585.841	34304.5
586.039	34327.03
586.236	34136.57
586.434	33923.58
586.631	33853.95
586.828	33968.63
587.026	34068.98
587.223	33876.48
587.42	33305.09
587.618	33595.9
587.815	33337.86
588.012	33374.72
588.21	33190.41
588.407	33470.98
588.604	32608.78
588.801	32680.46
588.999	32623.12
589.196	32909.83
589.393	32817.68
589.59	32418.32
589.787	32533.01
589.984	32285.2
590.182	31846.94
590.379	32647.69
590.576	31717.92
590.773	32143.89
590.97	31521.31
591.167	31812.12
591.364	31543.84
591.561	31640.09
591.758	31609.37
591.955	31558.17
592.152	31386.15
592.349	31281.7
592.546	31298.08
592.743	31455.78
592.94	31015.46
593.137	30732.84
593.334	31246.88
593.531	30640.68
593.727	30730.8
593.924	30708.27
594.121	30421.55
594.318	30695.98
594.515	30263.86
594.712	30290.48
594.908	30003.77
595.105	30274.1
595.302	29960.76
595.499	30020.15
595.696	29764.15
595.892	29700.67
596.089	29870.65
596.286	29588.03
596.482	29487.68
596.679	29282.88
596.876	29475.39
597.072	29160
597.269	29450.81
597.466	29043.27
597.662	28926.53
597.859	28955.21
598.055	29028.93
598.252	28510.8
598.448	28916.29
598.645	28553.8
598.841	28316.24
599.038	28682.83
599.234	27816.54
599.431	27986.52
599.627	27980.37
599.824	28381.77
600.02	28189.27
600.217	27986.52
600.413	28041.81
600.609	27564.64
600.806	27484.76
601.002	27732.57
601.198	27413.09
601.395	27394.65
601.591	27263.58
601.787	26997.35
601.984	27011.68
602.18	27226.72
602.376	26540.65
602.572	26669.67
602.769	26409.58
602.965	26729.06
603.161	26665.58
603.357	26389.1
603.553	26032.75
603.75	26161.78
603.946	26034.8
604.142	26608.23
604.338	26118.77
604.534	26065.52
604.73	25844.34
604.926	26016.37
605.122	25727.61
605.318	25696.89
605.514	25635.45
605.71	25451.13
605.906	25500.28
606.102	25152.13
606.298	25569.91
606.494	25088.64
606.69	25211.52
606.886	25279.1
607.082	24613.51
607.278	25275.01
607.474	24849.03
607.67	25051.78
607.866	24603.27
608.062	24775.3
608.257	24857.22
608.453	24513.16
608.649	24734.34
608.845	24197.77
609.041	24267.41
609.236	24265.36
609.432	24562.31
609.628	24226.45
609.824	24531.59
610.019	24201.87
610.215	24081.04
610.411	24103.57
610.606	23798.42
610.802	23831.19
610.998	23696.02
611.193	23825.04
611.389	23782.04
611.584	24050.32
611.78	23591.58
611.976	23655.06
612.171	23618.2
612.367	23730.84
612.562	23343.77
612.758	23177.89
612.953	23216.8
613.149	23567
613.344	23083.68
613.539	23274.14
613.735	23141.02
613.93	23104.16
614.126	22858.4
614.321	23118.5
614.517	23200.41
614.712	23083.68
614.907	22790.82
615.103	22946.47
615.298	22301.36
615.493	23192.22
615.688	22270.64
615.884	23202.46
616.079	22428.33
616.274	22667.94
616.47	22360.75
616.665	22780.58
616.86	22336.17
617.055	22528.68
617.25	22313.64
617.445	22274.73
617.641	21754.55
617.836	22297.26
618.031	21871.28
618.226	21945.01
618.421	21598.9
618.616	21650.1
618.811	21740.21
619.006	21846.71
619.201	21324.47
619.396	21627.57
619.591	21166.78
619.786	21598.9
619.981	21207.74
620.176	21189.31
620.371	20951.74
620.566	21203.64
620.761	20896.45
620.956	20835.01
621.151	20415.18
621.346	20730.56
621.541	20396.74
621.735	20568.77
621.93	20110.03
622.125	20021.97
622.32	20249.29
622.515	20181.71
622.709	19925.71
622.904	19894.99
623.099	19559.13
623.294	19917.52
623.488	19428.06
623.683	19569.37
623.878	19102.43
624.072	19321.56
624.267	19204.83
624.462	19061.47
624.656	18926.3
624.851	18619.11
625.046	18846.43
625.24	18612.96
625.435	18354.92
625.629	18129.64
625.824	18586.34
626.018	18270.95
626.213	17879.79
626.407	17832.69
626.602	17963.76
626.796	17890.03
626.991	18074.35
627.185	17582.84
627.38	17611.51
627.574	17490.68
627.768	17388.28
627.963	17224.44
628.157	17115.9
628.352	17400.57
628.546	17029.88
628.74	16808.7
628.935	16790.27
629.129	16706.31
629.323	16552.71
629.517	16624.39
629.712	16370.44
629.906	16489.22
630.1	16233.22
630.294	16335.62
630.489	15983.37
630.683	16077.58
630.877	15860.49
631.071	15590.16
631.265	16018.19
631.459	15618.83
631.653	15629.07
631.848	15518.48
632.042	15348.5
632.236	15553.3
632.43	14975.77
632.624	15186.71
632.818	15229.72
633.012	14738.21
633.206	14871.33
633.4	15121.18
633.594	14508.83
633.788	14754.59
633.982	14654.24
634.176	14672.67
634.369	14373.67
634.563	14652.19
634.757	14377.76
634.951	14222.12
635.145	14250.79
635.339	14234.41
635.533	13980.46
635.726	13925.16
635.92	13720.37
636.114	13835.05
636.308	13763.37
636.501	13724.46
636.695	13615.92
636.889	13384.5
637.083	13474.61
637.276	13175.61
637.47	13402.93
637.664	12935.99
637.857	13212.47
638.051	13251.38
638.244	12931.9
638.438	12825.4
638.632	12843.84
638.825	12774.21
639.019	12692.29
639.212	12647.23
639.406	12704.57
639.599	12340.04
639.793	12481.35
639.986	12155.72
640.18	12337.99
640.373	12278.6
640.567	12254.02
640.76	12098.38
640.954	11971.4
641.147	11797.32
641.34	11752.27
641.534	12000.07
641.727	11840.33
641.92	11584.34
642.114	11674.45
642.307	11625.29
642.5	11590.48
642.694	11297.62
642.887	11148.12
643.08	11586.38
643.273	11250.52
643.467	11287.38
643.66	11156.31
643.853	10828.63
644.046	10838.87
644.239	10857.31
644.432	11006.81
644.626	10742.62
644.819	10982.23
645.012	10828.63
645.205	10679.13
645.398	10427.23
645.591	10582.88
645.784	10464.1
645.977	10433.38
646.17	10273.64
646.363	10386.27
646.556	10244.96
646.749	10068.84
646.942	10066.79
647.135	10179.43
647.328	10050.41
647.521	10015.59
647.714	9806.7
647.907	9825.13
648.099	9798.51
648.292	9816.94
648.485	9831.27
648.678	9608.05
648.871	9540.46
649.064	9606
649.256	9530.22
649.449	9474.93
649.642	9479.02
649.835	9282.42
650.027	9184.12
650.22	9290.61
650.413	9073.53
650.605	9438.06
650.798	9053.05
650.991	9024.37
651.183	9012.09
651.376	8950.65
651.568	9012.09
651.761	8881.02
651.954	8850.3
652.146	8848.25
652.339	8737.66
652.531	8856.44
652.724	8690.56
652.916	8688.51
653.109	8635.26
653.301	8487.81
653.494	8678.27
653.686	8428.42
653.879	8496
654.071	8434.56
654.263	8436.61
654.456	8223.62
654.648	8455.04
654.84	8194.95
655.033	8110.98
655.225	8139.65
655.417	7934.85
655.61	8143.75
655.802	8242.05
655.994	7924.62
656.186	7967.62
656.379	7912.33
656.571	7947.14
656.763	7803.78
656.955	7715.72
657.148	7787.4
657.34	7639.95
657.532	7523.21
657.724	7672.71
657.916	7539.6
658.108	7482.25
658.3	7226.26
658.492	7410.57
658.684	7349.14
658.876	7474.06
659.068	7369.62
659.26	7332.75
659.452	7388.05
659.644	7299.98
659.836	7138.2
660.028	7117.72
660.22	7046.04
660.412	7062.42
660.604	6974.36
660.796	6939.54
660.988	7185.3
661.18	6849.43
661.372	6839.19
661.563	7007.13
661.755	6785.94
661.947	6871.96
662.139	6816.66
662.331	6689.69
662.522	6673.31
662.714	6618.01
662.906	6564.76
663.097	6677.4
663.289	6538.14
663.481	6495.13
663.673	6495.13
663.864	6486.94
664.056	6443.93
664.247	6362.01
664.439	6396.83
664.631	6427.55
664.822	6427.55
665.014	6427.55
665.205	6327.2
665.397	6239.14
665.588	6284.19
665.78	6036.39
665.971	6038.44
666.163	6339.49
666.354	6220.71
666.546	6048.68
666.737	5913.51
666.929	6198.18
667.12	5905.32
667.311	6013.86
667.503	5929.89
667.694	6036.39
667.885	5737.38
668.077	5995.43
668.268	5835.69
668.459	5845.93
668.651	5852.07
668.842	5821.35
669.033	5757.86
669.224	5690.28
669.416	5827.5
669.607	5661.61
669.798	5600.17
669.989	5673.9
670.18	5634.99
670.371	5587.88
670.563	5516.2
670.754	5561.26
670.945	5460.91
671.136	5477.29
671.327	5503.92
671.518	5460.91
671.709	5362.61
671.9	5518.25
672.091	5628.84
672.282	5444.52
672.473	5415.85
672.664	5424.05
672.855	5335.98
673.046	5444.52
673.237	5376.94
673.428	5317.55
673.619	5295.02
673.809	5317.55
674	5209.01
674.191	5378.99
674.382	5276.59
674.573	5264.3
674.764	5278.64
674.954	5276.59
675.145	5256.11
675.336	5082.03
675.527	5170.1
675.717	5182.38
675.908	5010.36
676.099	5137.33
676.289	5223.34
676.48	5006.26
676.671	5016.5
676.861	4957.11
677.052	5018.55
677.243	5014.45
677.433	4920.24
677.624	5030.84
677.814	5053.36
678.005	5112.75
678.195	4860.85
678.386	4965.3
678.576	4940.72
678.767	4922.29
678.957	4963.25
679.148	5036.98
679.338	4885.43
679.529	4922.29
679.719	4807.61
679.909	4918.2
680.1	4797.37
680.29	4905.91
680.481	4807.61
680.671	4967.35
680.861	5008.31
681.052	4873.14
681.242	4801.46
681.432	5047.22
681.622	4768.7
681.813	4858.81
682.003	4877.24
682.193	4793.27
682.383	4842.42
682.573	4891.57
682.764	4760.5
682.954	4953.01
683.144	4817.85
683.334	4867
683.524	4744.12
683.714	4735.93
683.904	4721.59
684.094	4760.5
684.284	4678.58
684.474	4856.76
684.664	4871.09
684.854	4760.5
685.044	4789.17
685.234	4549.56
685.424	4715.45
685.614	4584.38
685.804	4815.8
685.994	4670.39
686.184	4645.82
686.374	4633.53
686.564	4574.14
686.753	4606.91
686.943	4393.92
687.133	4471.74
687.323	4398.01
687.513	4580.28
687.702	4490.17
687.892	4477.88
688.082	4492.22
688.272	4338.62
688.461	4389.82
688.651	4344.77
688.841	4236.22
689.03	4395.96
689.22	4199.36
689.41	4303.81
689.599	4271.04
689.789	4258.75
689.979	4228.03
690.168	4228.03
690.358	4252.61
690.547	4228.03
690.737	4199.36
690.926	4162.5
691.116	4228.03
691.305	4195.26
691.495	3992.52
691.684	4213.7
691.874	3994.56
692.063	3967.94
692.252	4096.96
692.442	4137.92
692.631	3974.08
692.82	3943.36
693.01	4053.95
693.199	4053.95
693.388	4006.85
693.578	4070.34
693.767	4002.75
693.956	4029.38
694.146	3816.39
694.335	4019.14
694.524	3949.51
694.713	3906.5
694.902	3843.01
695.092	3892.16
695.281	3937.22
695.47	3980.23
695.659	3820.49
695.848	3949.51
696.037	4058.05
696.226	3920.84
696.415	3822.53
696.604	3859.4
696.793	3769.29
696.982	3793.86
697.171	3812.29
697.36	3740.61
697.549	3728.33
697.738	3834.82
697.927	3879.88
698.116	3824.58
698.305	3843.01
698.494	3742.66
698.683	3752.9
698.872	3849.16
699.061	3605.45
699.25	3650.5
699.438	3640.26
699.627	3808.2
699.816	3691.46
700.005	3746.76
700.193	3746.76
700.382	3812.29
700.571	3580.87
700.76	3742.66
700.948	3693.51
701.137	3728.33
701.326	3765.19
701.514	3701.7
701.703	3695.56
701.892	3814.34
702.08	3716.04
702.269	3720.14
702.457	3650.5
702.646	3849.16
702.834	3754.95
703.023	3607.5
703.212	3761.09
703.4	3859.4
703.589	3720.14
703.777	3816.39
703.965	3621.83
704.154	3683.27
704.342	3625.93
704.531	3605.45
704.719	3544.01
704.907	3681.22
705.096	3611.59
705.284	3660.74
705.472	3660.74
705.661	3589.07
705.849	3787.72
706.037	3619.78
706.226	3636.17
706.414	3742.66
706.602	3580.87
706.79	3646.41
706.979	3546.06
707.167	3675.08
707.355	3638.22
707.543	3601.35
707.731	3664.84
707.919	3711.94
708.107	3679.18
708.296	3630.02
708.484	3757
708.672	3681.22
708.86	3718.09
709.048	3492.81
709.236	3580.87
709.424	3654.6
709.612	3699.66
709.8	3619.78
709.988	3744.71
710.176	3808.2
710.364	3695.56
710.551	3783.62
710.739	3652.55
710.927	3695.56
711.115	3707.85
711.303	3800.01
711.491	3589.07
711.679	3742.66
711.866	3554.25
712.054	3544.01
712.242	3617.74
712.43	3703.75
712.617	3527.63
712.805	3675.08
712.993	3615.69
713.181	3611.59
713.368	3697.61
713.556	3654.6
713.744	3617.74
713.931	3810.25
714.119	3765.19
714.306	3658.7
714.494	3675.08
714.682	3605.45
714.869	3699.66
715.057	3564.49
715.244	3570.63
715.432	3619.78
715.619	3658.7
715.807	3740.61
715.994	3576.78
716.182	3564.49
716.369	3627.98
716.556	3779.53
716.744	3668.94
716.931	3687.37
717.119	3785.67
717.306	3611.59
717.493	3455.95
717.681	3826.63
717.868	3597.26
718.055	3679.18
718.242	3716.04
718.43	3619.78
718.617	3701.7
718.804	3603.4
718.991	3584.97
719.179	3484.62
719.366	3609.54
719.553	3646.41
719.74	3613.64
719.927	3580.87
720.114	3488.71
720.301	3666.89
720.488	3601.35
720.676	3654.6
720.863	3709.9
721.05	3654.6
721.237	3539.91
721.424	3646.41
721.611	3664.84
721.798	3656.65
721.985	3638.22
722.172	3591.11
722.358	3587.02
722.545	3638.22
722.732	3488.71
722.919	3736.52
723.106	3564.49
723.293	3570.63
723.48	3484.62
723.667	3564.49
723.853	3654.6
724.04	3556.3
724.227	3668.94
724.414	3513.29
724.6	3513.29
724.787	3572.68
724.974	3630.02
725.161	3435.47
725.347	3482.57
725.534	3685.32
725.72	3527.63
725.907	3580.87
726.094	3664.84
726.28	3468.24
726.467	3599.31
726.653	3609.54
726.84	3535.82
727.027	3570.63
727.213	3388.36
727.4	3490.76
727.586	3488.71
727.773	3521.48
727.959	3584.97
728.145	3668.94
728.332	3695.56
728.518	3437.52
728.705	3529.67
728.891	3552.2
729.077	3564.49
729.264	3523.53
729.45	3474.38
729.636	3638.22
729.823	3544.01
730.009	3523.53
730.195	3361.74
730.382	3507.15
730.568	3503.05
730.754	3458
730.94	3427.28
731.126	3595.21
731.313	3357.64
731.499	3472.33
731.685	3498.95
731.871	3587.02
732.057	3496.91
732.243	3546.06
732.429	3400.65
732.615	3539.91
732.801	3449.8
732.987	3369.93
733.173	3433.42
733.359	3498.95
733.545	3359.69
733.731	3443.66
733.917	3505.1
734.103	3318.73
734.289	3365.84
734.475	3335.12
734.661	3304.4
734.847	3464.14
735.033	3326.93
735.219	3232.72
735.404	3435.47
735.59	3445.71
735.776	3275.73
735.962	3224.53
736.148	3396.56
736.333	3363.79
736.519	3445.71
736.705	3220.43
736.89	3298.25
737.076	3316.69
737.262	3253.2
737.447	3255.25
737.633	3240.91
737.819	3414.99
738.004	3269.58
738.19	3236.81
738.375	3212.24
738.561	3302.35
738.747	3265.49
738.932	3224.53
739.118	3355.6
739.303	3281.87
739.489	3138.51
739.674	3152.85
739.859	3075.03
740.045	3165.14
740.23	3099.6
740.416	3167.18
740.601	3171.28
740.786	3101.65
740.972	3113.94
741.157	3113.94
741.342	3107.79
741.528	3087.31
741.713	3093.46
741.898	3177.42
742.084	2931.67
742.269	3027.92
742.454	3070.93
742.639	3005.39
742.824	3099.6
743.01	2958.29
743.195	3091.41
743.38	2933.72
743.565	2880.47
743.75	3124.18
743.935	2855.89
744.12	2974.67
744.305	2952.15
744.49	2855.89
744.675	2886.61
744.86	2898.9
745.045	2870.23
745.23	2903
745.415	2917.33
745.6	2733.01
745.785	2821.08
745.97	2790.36
746.155	2837.46
746.34	2745.3
746.525	2831.32
746.71	2796.5
746.895	2679.77
747.079	2853.84
747.264	2759.64
747.449	2687.96
747.634	2593.75
747.819	2741.21
748.003	2558.94
748.188	2663.38
748.373	2601.94
748.557	2659.29
748.742	2470.87
748.927	2593.75
749.111	2450.39
749.296	2479.07
749.481	2563.03
749.665	2614.23
749.85	2397.15
750.034	2421.72
750.219	2382.81
750.404	2384.86
750.588	2479.07
750.773	2339.8
750.957	2409.44
751.141	2358.24
751.326	2335.71
751.51	2188.25
751.695	2286.56
751.879	2184.16
752.064	2282.46
752.248	2280.41
752.432	2354.14
752.617	2221.02
752.801	2135.01
752.985	2120.67
753.17	2159.58
753.354	2247.65
753.538	2048.99
753.722	2147.3
753.907	2122.72
754.091	2098.14
754.275	1983.46
754.459	1999.84
754.643	2040.8
754.828	2061.28
755.012	2005.99
755.196	1944.55
755.38	1975.27
755.564	1981.41
755.748	1887.2
755.932	1922.02
756.116	1977.31
756.3	1850.34
756.484	1930.21
756.668	1897.44
756.852	1801.19
757.036	1827.81
757.22	1848.29
757.404	1752.04
757.588	1797.09
757.772	1813.48
757.956	1766.37
758.14	1846.24
758.323	1727.46
758.507	1803.24
758.691	1663.97
758.875	1651.69
759.059	1612.78
759.242	1668.07
759.426	1561.58
759.61	1594.34
759.794	1768.42
759.977	1600.49
760.161	1623.02
760.345	1635.3
760.528	1580.01
760.712	1584.1
760.895	1647.59
761.079	1618.92
761.263	1516.52
761.446	1524.71
761.63	1573.86
761.813	1627.11
761.997	1530.86
762.18	1512.42
762.364	1463.27
762.547	1496.04
762.731	1405.93
762.914	1516.52
763.098	1526.76
763.281	1448.94
763.464	1414.12
763.648	1457.13
763.831	1479.66
764.015	1555.43
764.198	1524.71
764.381	1450.99
764.564	1420.27
764.748	1434.6
764.931	1410.03
765.114	1393.64
765.297	1477.61
765.481	1403.88
765.664	1391.59
765.847	1442.79
766.03	1467.37
766.213	1393.64
766.397	1403.88
766.58	1309.68
766.763	1321.96
766.946	1352.68
767.129	1364.97
767.312	1383.4
767.495	1332.2
767.678	1309.68
767.861	1231.85
768.044	1326.06
768.227	1319.92
768.41	1338.35
768.593	1278.96
768.776	1270.76
768.959	1260.52
769.142	1297.39
769.324	1147.89
769.507	1246.19
769.69	1235.95
769.873	1252.33
770.056	1287.15
770.239	1238
770.421	1291.24
770.604	1278.96
770.787	1250.28
770.97	1188.85
771.152	1258.48
771.335	1266.67
771.518	1223.66
771.7	1233.9
771.883	1254.38
772.066	1086.45
772.248	1111.02
772.431	1221.61
772.613	1160.17
772.796	1174.51
772.978	1147.89
773.161	1197.04
773.343	1168.37
773.526	984.05
773.708	1080.3
773.891	1037.3
774.073	1137.65
774.256	1090.54
774.438	1086.45
774.621	1106.93
774.803	1072.11
774.985	1033.2
775.168	1072.11
775.35	992.24
775.532	1020.91
775.715	1074.16
775.897	988.14
776.079	1037.3
776.261	998.38
776.444	949.23
776.626	965.62
776.808	912.37
776.99	1049.58
777.173	943.09
777.355	873.46
777.537	990.19
777.719	902.13
777.901	990.19
778.083	994.29
778.265	857.07
778.447	998.38
778.629	922.61
778.811	934.9
778.993	824.31
779.175	887.79
779.357	846.84
779.539	787.44
779.721	838.64
779.903	895.99
780.085	779.25
780.267	709.62
780.449	812.02
780.631	932.85
780.812	828.4
780.994	824.31
781.176	875.51
781.358	726
781.54	795.64
781.721	711.67
781.903	689.14
782.085	730.1
782.267	709.62
782.448	762.87
782.63	685.05
782.812	689.14
782.993	801.78
783.175	730.1
783.357	711.67
783.538	683
783.72	646.13
783.901	701.43
784.083	705.53
784.264	721.91
784.446	707.57
784.627	599.03
784.809	676.85
784.99	654.33
785.172	615.41
785.353	580.6
785.535	699.38
785.716	687.09
785.897	619.51
786.079	656.37
786.26	637.94
786.441	566.26
786.623	656.37
786.804	639.99
786.985	539.64
787.167	535.54
787.348	656.37
787.529	533.5
787.71	594.93
787.891	596.98
788.073	531.45
788.254	508.92
788.435	609.27
788.616	566.26
788.797	496.63
788.978	529.4
789.159	525.3
789.34	517.11
789.522	562.17
789.703	519.16
789.884	611.32
790.065	463.86
790.246	553.98
790.427	523.26
790.607	537.59
790.788	437.24
790.969	515.06
791.15	484.34
791.331	539.64
791.512	513.02
791.693	465.91
791.874	474.1
792.054	574.46
792.235	539.64
792.416	488.44
792.597	410.62
792.778	441.34
792.958	535.54
793.139	414.71
793.32	517.11
793.5	404.47
793.681	586.74
793.862	437.24
794.042	500.73
794.223	377.85
794.404	463.86
794.584	367.61
794.765	383.99
794.945	410.62
795.126	410.62
795.306	515.06
795.487	431.1
795.667	429.05
795.848	408.57
796.028	412.67
796.209	422.91
796.389	463.86
796.57	386.04
796.75	386.04
796.93	431.1
797.111	457.72
797.291	373.75
797.471	357.37
797.652	386.04
797.832	379.9
798.012	461.82
798.192	355.32
798.373	365.56
798.553	392.19
798.733	427
798.913	357.37
799.093	345.08
799.274	410.62
799.454	377.85
799.634	379.9
799.814	402.43
799.994	351.23
800.174	302.08
800.354	340.99
800.534	353.27
800.714	345.08
800.894	340.99
801.074	254.97
801.254	281.6
801.434	351.23
801.614	304.12
801.794	283.64
801.974	771.06
802.154	336.89
802.334	410.62
802.514	308.22
802.693	312.32
802.873	281.6
803.053	375.8
803.233	328.7
803.413	355.32
803.592	289.79
803.772	308.22
803.952	351.23
804.131	269.31
804.311	228.35
804.491	308.22
804.67	259.07
804.85	283.64
805.03	334.84
805.209	318.46
805.389	316.41
805.568	271.36
805.748	306.17
805.928	259.07
806.107	318.46
806.287	244.73
806.466	318.46
806.646	281.6
806.825	261.12
807.004	326.65
807.184	353.27
807.363	287.74
807.543	238.59
807.722	312.32
807.901	328.7
808.081	306.17
808.26	230.4
808.439	234.49
808.619	283.64
808.798	324.6
808.977	252.92
809.156	300.03
809.336	240.64
809.515	293.88
809.694	197.63
809.873	252.92
810.052	336.89
810.231	332.79
810.411	222.2
810.59	248.83
810.769	259.07
810.948	295.93
811.127	252.92
811.306	289.79
811.485	236.54
811.664	316.41
811.843	240.64
812.022	234.49
812.201	197.63
812.38	234.49
812.559	250.88
812.737	295.93
812.916	160.77
813.095	220.16
813.274	222.2
813.453	226.3
813.632	187.39
813.811	218.11
813.989	197.63
814.168	203.77
814.347	187.39
814.526	207.87
814.704	205.82
814.883	320.51
815.062	238.59
815.24	248.83
815.419	211.96
815.598	275.45
815.776	197.63
815.955	164.86
816.133	197.63
816.312	164.86
816.49	197.63
816.669	238.59
816.847	238.59
817.026	238.59
817.204	185.34
817.383	179.2
817.561	214.01
817.74	189.44
817.918	189.44
818.097	173.05
818.275	173.05
818.453	250.88
818.632	175.1
818.81	185.34
818.988	234.49
819.167	222.2
819.345	191.49
819.523	222.2
819.701	207.87
819.879	181.25
820.058	246.78
820.236	183.29
820.414	146.43
820.592	197.63
820.77	164.86
820.948	314.36
821.127	166.91
821.305	181.25
821.483	144.38
821.661	244.73
821.839	152.57
822.017	168.96
822.195	201.72
822.373	189.44
822.551	148.48
822.729	209.92
822.907	134.14
823.085	181.25
823.262	205.82
823.44	115.71
823.618	189.44
823.796	146.43
823.974	152.57
824.152	160.77
824.329	171.01
824.507	105.47
824.685	144.38
824.863	146.43
825.04	201.72
825.218	121.85
825.396	103.42
825.574	152.57
825.751	109.57
825.929	207.87
826.107	70.65
826.284	132.09
826.462	211.96
826.639	128
826.817	119.81
826.994	164.86
827.172	158.72
827.349	168.96
827.527	78.85
827.704	121.85
827.882	56.32
828.059	121.85
828.237	76.8
828.414	156.67
828.591	138.24
828.769	156.67
828.946	107.52
829.124	107.52
829.301	205.82
829.478	214.01
829.655	150.53
829.833	78.85
830.01	144.38
830.187	162.81
830.364	154.62
830.542	154.62
830.719	238.59
830.896	197.63
831.073	185.34
831.25	123.9
831.427	189.44
831.604	99.33
831.782	130.05
831.959	181.25
832.136	113.66
832.313	109.57
832.49	78.85
832.667	111.61
832.844	101.37
833.021	119.81
833.198	93.18
833.374	146.43
833.551	84.99
833.728	111.61
833.905	185.34
834.082	123.9
834.259	74.75
834.436	132.09
834.612	64.51
834.789	146.43
834.966	76.8
835.143	109.57
835.319	109.57
835.496	95.23
835.673	60.42
835.85	211.96
836.026	115.71
836.203	148.48
836.38	54.27
836.556	89.09
836.733	146.43
836.909	121.85
837.086	119.81
837.262	113.66
837.439	66.56
837.616	123.9
837.792	97.28
837.968	74.75
838.145	103.42
838.321	62.46
838.498	52.22
838.674	119.81
838.851	89.09
839.027	130.05
839.203	130.05
839.38	64.51
839.556	68.61
839.732	154.62
839.909	109.57
840.085	70.65
840.261	23.55
840.437	82.94
840.614	107.52
840.79	199.68
840.966	152.57
841.142	109.57
841.318	99.33
841.494	82.94
841.671	130.05
841.847	27.65
842.023	39.94
842.199	66.56
842.375	89.09
842.551	68.61
842.727	74.75
842.903	156.67
843.079	138.24
843.255	60.42
843.431	101.37
843.607	123.9
843.783	50.18
843.959	80.89
844.134	84.99
844.31	109.57
844.486	33.79
844.662	17.41
844.838	140.29
845.013	115.71
845.189	72.7
845.365	115.71
845.541	136.19
845.716	44.03
845.892	91.13
846.068	144.38
846.244	84.99
846.419	58.37
846.595	95.23
846.77	64.51
846.946	74.75
847.122	156.67
847.297	13.31
847.473	97.28
847.648	9.22
847.824	168.96
847.999	111.61
848.175	166.91
848.35	46.08
848.526	162.81
848.701	115.71
848.876	130.05
849.052	134.14
849.227	87.04
849.403	66.56
849.578	89.09
849.753	74.75
849.929	150.53
850.104	91.13
850.279	56.32
850.454	68.61
850.63	62.46
850.805	64.51
850.98	164.86
851.155	78.85
851.33	66.56
851.505	-13.31
851.681	74.75
851.856	46.08
852.031	64.51
852.206	109.57
852.381	60.42
852.556	41.98
852.731	115.71
852.906	44.03
853.081	93.18
853.256	21.5
853.431	25.6
853.606	97.28
853.781	84.99
853.956	82.94
854.131	99.33
854.305	130.05
854.48	99.33
854.655	72.7
854.83	13.31
855.005	76.8
855.18	37.89
855.354	107.52
855.529	60.42
855.704	21.5
855.879	99.33
856.053	52.22
856.228	97.28
856.403	-33.79
856.577	195.58
856.752	37.89
856.926	70.65
857.101	97.28
857.276	80.89
857.45	140.29
857.625	25.6
857.799	138.24
857.974	54.27
858.148	-3.07
858.323	78.85
858.497	66.56
858.672	41.98
858.846	68.61
859.02	136.19
859.195	56.32
859.369	72.7
859.543	70.65
859.718	76.8
859.892	-27.65
860.066	107.52
860.241	37.89
860.415	21.5
860.589	66.56
860.763	54.27
860.938	80.89
861.112	60.42
861.286	82.94
861.46	54.27
861.634	15.36
861.808	56.32
861.982	105.47
862.157	64.51
862.331	-66.56
862.505	76.8
862.679	27.65
862.853	48.13
863.027	23.55
863.201	109.57
863.375	19.46
863.549	17.41
863.722	31.74
863.896	70.65
864.07	23.55
864.244	21.5
864.418	66.56
864.592	37.89
864.766	46.08
864.939	25.6
865.113	80.89
865.287	89.09
865.461	50.18
865.634	7.17
865.808	115.71
865.982	80.89
866.156	17.41
866.329	70.65
866.503	-15.36
866.676	162.81
866.85	-3.07
867.024	50.18
867.197	74.75
867.371	95.23
867.544	-19.46
867.718	66.56
867.891	89.09
868.065	62.46
868.238	-5.12
868.412	109.57
868.585	58.37
868.759	23.55
868.932	62.46
869.105	54.27
869.279	9.22
869.452	7.17
869.625	41.98
869.799	115.71
869.972	1.02
870.145	-7.17
870.319	91.13
870.492	78.85
870.665	91.13
870.838	21.5
871.011	19.46
871.185	50.18
871.358	5.12
871.531	50.18
871.704	58.37
871.877	115.71
872.05	68.61
872.223	62.46
872.396	52.22
872.569	66.56
872.742	-39.94
872.915	105.47
873.088	46.08
873.261	103.42
873.434	66.56
873.607	-41.98
873.78	50.18
873.953	66.56
874.126	50.18
874.299	-1.02
874.471	13.31
874.644	107.52
874.817	82.94
874.99	99.33
875.163	1.02
875.335	9.22
875.508	23.55
875.681	119.81
875.853	41.98
876.026	37.89
876.199	109.57
876.371	101.37
876.544	64.51
876.717	9.22
876.889	62.46
877.062	66.56
877.234	-52.22
877.407	-1.02
877.579	25.6
877.752	31.74
877.924	27.65
878.097	72.7
878.269	48.13
878.442	35.84
878.614	-1.02
878.786	84.99
878.959	103.42
879.131	41.98
879.303	1.02
879.476	82.94
879.648	-9.22
879.82	91.13
879.993	25.6
880.165	-9.22
880.337	37.89
880.509	37.89
880.681	-19.46
880.854	48.13
881.026	41.98
881.198	48.13
881.37	9.22
881.542	9.22
881.714	5.12
881.886	-27.65
882.058	99.33
882.23	101.37
882.402	56.32
882.574	41.98
882.746	87.04
882.918	37.89
883.09	-17.41
883.262	91.13
883.434	-21.5
883.606	29.7
883.778	5.12
883.95	66.56
884.122	87.04
884.293	64.51
884.465	29.7
884.637	-9.22
884.809	62.46
884.98	66.56
885.152	62.46
885.324	70.65
885.496	52.22
885.667	17.41
885.839	50.18
886.011	91.13
886.182	103.42
886.354	21.5
886.525	-11.26
886.697	95.23
886.869	56.32
887.04	41.98
887.212	87.04
887.383	101.37
887.555	89.09
887.726	-7.17
887.897	37.89
888.069	3.07
888.24	91.13
888.412	21.5
888.583	33.79
888.754	-3.07
888.926	15.36
889.097	58.37
889.268	-23.55
889.44	84.99
889.611	-25.6
889.782	-46.08
889.953	27.65
890.125	17.41
890.296	-7.17
890.467	99.33
890.638	-1.02
890.809	64.51
890.98	41.98
891.151	74.75
891.323	62.46
891.494	-33.79
891.665	80.89
891.836	95.23
892.007	-72.7
892.178	37.89
892.349	44.03
892.52	82.94
892.691	-1.02
892.862	5.12
893.032	35.84
893.203	25.6
893.374	48.13
893.545	33.79
893.716	78.85
893.887	80.89
894.057	41.98
894.228	37.89
894.399	17.41
894.57	54.27
894.74	23.55
894.911	-9.22
895.082	35.84
895.253	46.08
895.423	33.79
895.594	21.5
895.764	56.32
895.935	17.41
896.106	72.7
896.276	23.55
896.447	48.13
896.617	31.74
896.788	21.5
896.958	27.65
897.129	78.85
897.299	-11.26
897.47	78.85
897.64	89.09
897.81	-9.22
897.981	-29.7
898.151	23.55
898.322	33.79
898.492	39.94
898.662	1.02
898.832	21.5
899.003	5.12
899.173	58.37
899.343	-19.46
899.513	46.08
