Data from USB4F104151__232__10-30-25-830.txt Node

Date: Wed Mar 12 10:30:25 EDT 2025
User: louis
Spectrometer: USB4F10415
Trigger mode: 4
Integration Time (sec): 3.000000E-2
Scans to average: 1
Electric dark correction enabled: true
Nonlinearity correction enabled: false
Boxcar width: 0
XAxis mode: Wavelengths
Number of Pixels in Spectrum: 3648
>>>>>Begin Spectral Data<<<<<
178.204	-162.13
178.424	-162.13
178.644	-162.13
178.864	-133.46
179.084	-145.75
179.304	9.9
179.524	-31.06
179.744	7.85
179.964	42.67
180.184	-14.68
180.404	-37.2
180.624	-35.16
180.844	-8.53
181.064	54.95
181.283	-37.2
181.503	-12.63
181.723	61.1
181.943	-33.11
182.163	73.39
182.383	52.91
182.602	108.2
182.822	34.47
183.042	-10.58
183.262	-14.68
183.482	73.39
183.701	-12.63
183.921	-16.73
184.141	-94.55
184.361	34.47
184.58	-39.25
184.8	1.71
185.02	-55.64
185.239	20.14
185.459	28.33
185.679	65.19
185.898	5.8
186.118	40.62
186.338	28.33
186.557	50.86
186.777	9.9
186.997	50.86
187.216	-4.44
187.436	28.33
187.655	24.23
187.875	83.63
188.095	-2.39
188.314	-12.63
188.534	3.75
188.753	-102.74
188.973	73.39
189.192	30.38
189.412	24.23
189.631	59.05
189.851	44.71
190.07	38.57
190.29	-10.58
190.509	32.43
190.729	-31.06
190.948	-14.68
191.168	169.64
191.387	91.82
191.607	36.52
191.826	-6.49
192.045	-8.53
192.265	48.81
192.484	-35.16
192.704	85.67
192.923	26.28
193.142	44.71
193.362	28.33
193.581	-4.44
193.8	28.33
194.02	40.62
194.239	-8.53
194.458	-0.34
194.678	13.99
194.897	7.85
195.116	-47.44
195.335	-6.49
195.555	122.54
195.774	63.15
195.993	1.71
196.212	-22.87
196.432	28.33
196.651	18.09
196.87	-86.36
197.089	57
197.308	7.85
197.528	87.72
197.747	-12.63
197.966	28.33
198.185	-12.63
198.404	18.09
198.623	52.91
198.842	13.99
199.062	32.43
199.281	61.1
199.5	-39.25
199.719	-12.63
199.938	11.95
200.157	169.64
200.376	16.04
200.595	42.67
200.814	42.67
201.033	5.8
201.252	83.63
201.471	-0.34
201.69	59.05
201.909	30.38
202.128	-10.58
202.347	63.15
202.566	28.33
202.785	-22.87
203.004	-8.53
203.223	67.24
203.442	16.04
203.661	36.52
203.879	30.38
204.098	36.52
204.317	-16.73
204.536	69.29
204.755	-12.63
204.974	-0.34
205.193	7.85
205.411	108.2
205.63	-0.34
205.849	-0.34
206.068	-63.83
206.287	24.23
206.505	5.8
206.724	40.62
206.943	46.76
207.162	32.43
207.381	34.47
207.599	11.95
207.818	87.72
208.037	-53.59
208.255	28.33
208.474	-8.53
208.693	89.77
208.911	3.75
209.13	46.76
209.349	59.05
209.567	3.75
209.786	28.33
210.005	57
210.223	7.85
210.442	13.99
210.661	44.71
210.879	16.04
211.098	-49.49
211.316	-29.01
211.535	5.8
211.753	-16.73
211.972	100.01
212.191	-6.49
212.409	13.99
212.628	1.71
212.846	13.99
213.065	32.43
213.283	-0.34
213.502	-57.68
213.72	-8.53
213.938	13.99
214.157	-90.45
214.375	48.81
214.594	79.53
214.812	50.86
215.031	73.39
215.249	-0.34
215.467	-45.4
215.686	46.76
215.904	79.53
216.122	9.9
216.341	71.34
216.559	28.33
216.778	128.68
216.996	81.58
217.214	13.99
217.432	16.04
217.651	40.62
217.869	-37.2
218.087	1.71
218.306	24.23
218.524	-12.63
218.742	18.09
218.96	36.52
219.179	-51.54
219.397	9.9
219.615	122.54
219.833	28.33
220.051	-55.64
220.27	28.33
220.488	-4.44
220.706	-2.39
220.924	38.57
221.142	40.62
221.36	11.95
221.578	26.28
221.796	36.52
222.015	-26.96
222.233	-4.44
222.451	-4.44
222.669	-6.49
222.887	-31.06
223.105	16.04
223.323	-2.39
223.541	-16.73
223.759	32.43
223.977	-2.39
224.195	18.09
224.413	9.9
224.631	-37.2
224.849	57
225.067	93.87
225.285	34.47
225.503	40.62
225.721	61.1
225.939	48.81
226.157	69.29
226.375	44.71
226.592	-0.34
226.81	-22.87
227.028	87.72
227.246	11.95
227.464	-4.44
227.682	40.62
227.9	40.62
228.117	46.76
228.335	3.75
228.553	44.71
228.771	-22.87
228.989	13.99
229.206	38.57
229.424	16.04
229.642	13.99
229.86	34.47
230.077	-6.49
230.295	-24.92
230.513	16.04
230.731	59.05
230.948	24.23
231.166	44.71
231.384	11.95
231.601	44.71
231.819	95.91
232.037	-26.96
232.254	11.95
232.472	30.38
232.689	40.62
232.907	57
233.125	3.75
233.342	81.58
233.56	-10.58
233.777	-37.2
233.995	-8.53
234.213	36.52
234.43	108.2
234.648	75.43
234.865	-8.53
235.083	7.85
235.3	36.52
235.518	13.99
235.735	104.11
235.953	44.71
236.17	-0.34
236.388	-57.68
236.605	-33.11
236.822	3.75
237.04	61.1
237.257	-31.06
237.475	20.14
237.692	-4.44
237.909	-0.34
238.127	67.24
238.344	-14.68
238.562	-63.83
238.779	-72.02
238.996	-59.73
239.214	34.47
239.431	36.52
239.648	-0.34
239.865	44.71
240.083	81.58
240.3	-16.73
240.517	11.95
240.735	20.14
240.952	26.28
241.169	52.91
241.386	-18.77
241.603	3.75
241.821	-41.3
242.038	91.82
242.255	9.9
242.472	38.57
242.689	79.53
242.907	-49.49
243.124	18.09
243.341	46.76
243.558	61.1
243.775	22.19
243.992	-2.39
244.209	-29.01
244.426	106.15
244.643	93.87
244.86	42.67
245.078	69.29
245.295	102.06
245.512	50.86
245.729	11.95
245.946	-29.01
246.163	24.23
246.38	75.43
246.597	36.52
246.814	93.87
247.031	42.67
247.248	34.47
247.464	3.75
247.681	28.33
247.898	52.91
248.115	13.99
248.332	11.95
248.549	57
248.766	87.72
248.983	26.28
249.2	9.9
249.417	11.95
249.633	26.28
249.85	30.38
250.067	-2.39
250.284	22.19
250.501	32.43
250.717	50.86
250.934	-16.73
251.151	1.71
251.368	-8.53
251.585	59.05
251.801	-29.01
252.018	-6.49
252.235	11.95
252.451	-49.49
252.668	26.28
252.885	42.67
253.102	-2.39
253.318	112.3
253.535	32.43
253.752	40.62
253.968	-6.49
254.185	18.09
254.401	81.58
254.618	42.67
254.835	-55.64
255.051	112.3
255.268	-0.34
255.484	50.86
255.701	40.62
255.917	75.43
256.134	-14.68
256.351	-2.39
256.567	13.99
256.784	42.67
257	-53.59
257.217	81.58
257.433	30.38
257.65	50.86
257.866	-4.44
258.082	54.95
258.299	-35.16
258.515	67.24
258.732	-4.44
258.948	38.57
259.165	34.47
259.381	-4.44
259.597	-6.49
259.814	-10.58
260.03	79.53
260.246	57
260.463	26.28
260.679	102.06
260.895	36.52
261.112	77.48
261.328	-29.01
261.544	-0.34
261.761	50.86
261.977	-16.73
262.193	-31.06
262.409	110.25
262.626	-41.3
262.842	24.23
263.058	73.39
263.274	61.1
263.49	-47.44
263.707	102.06
263.923	7.85
264.139	57
264.355	9.9
264.571	81.58
264.787	-29.01
265.004	-29.01
265.22	-4.44
265.436	13.99
265.652	7.85
265.868	48.81
266.084	-4.44
266.3	57
266.516	3.75
266.732	73.39
266.948	-10.58
267.164	42.67
267.38	50.86
267.596	30.38
267.812	-20.82
268.028	7.85
268.244	-4.44
268.46	28.33
268.676	38.57
268.892	69.29
269.108	16.04
269.324	-26.96
269.54	-49.49
269.756	-12.63
269.972	11.95
270.188	40.62
270.403	-33.11
270.619	13.99
270.835	-12.63
271.051	52.91
271.267	-8.53
271.483	-10.58
271.698	13.99
271.914	1.71
272.13	-12.63
272.346	-12.63
272.562	5.8
272.777	69.29
272.993	-61.78
273.209	-6.49
273.425	38.57
273.64	7.85
273.856	30.38
274.072	-4.44
274.287	-14.68
274.503	32.43
274.719	42.67
274.934	67.24
275.15	-63.83
275.366	85.67
275.581	81.58
275.797	-8.53
276.012	-84.31
276.228	40.62
276.444	44.71
276.659	69.29
276.875	-33.11
277.09	18.09
277.306	-65.88
277.521	69.29
277.737	3.75
277.952	34.47
278.168	-0.34
278.383	32.43
278.599	18.09
278.814	128.68
279.03	44.71
279.245	95.91
279.461	38.57
279.676	110.25
279.892	-22.87
280.107	9.9
280.322	-29.01
280.538	26.28
280.753	18.09
280.969	28.33
281.184	-24.92
281.399	26.28
281.615	11.95
281.83	71.34
282.045	-24.92
282.26	-59.73
282.476	20.14
282.691	-0.34
282.906	57
283.122	20.14
283.337	-10.58
283.552	7.85
283.767	24.23
283.983	100.01
284.198	20.14
284.413	-49.49
284.628	-14.68
284.843	5.8
285.058	59.05
285.274	24.23
285.489	-6.49
285.704	11.95
285.919	-12.63
286.134	7.85
286.349	36.52
286.564	11.95
286.779	85.67
286.995	-2.39
287.21	34.47
287.425	-51.54
287.64	5.8
287.855	122.54
288.07	-26.96
288.285	40.62
288.5	-20.82
288.715	-22.87
288.93	36.52
289.145	34.47
289.36	91.82
289.575	13.99
289.79	16.04
290.004	44.71
290.219	40.62
290.434	26.28
290.649	-22.87
290.864	-4.44
291.079	-16.73
291.294	67.24
291.509	-49.49
291.724	7.85
291.938	-29.01
292.153	48.81
292.368	44.71
292.583	9.9
292.798	13.99
293.012	38.57
293.227	16.04
293.442	-4.44
293.657	3.75
293.871	100.01
294.086	42.67
294.301	110.25
294.516	81.58
294.73	-6.49
294.945	-26.96
295.16	20.14
295.374	73.39
295.589	40.62
295.804	52.91
296.018	87.72
296.233	13.99
296.447	30.38
296.662	30.38
296.877	50.86
297.091	50.86
297.306	22.19
297.52	52.91
297.735	50.86
297.949	-14.68
298.164	18.09
298.378	-6.49
298.593	11.95
298.807	-22.87
299.022	44.71
299.236	93.87
299.451	-29.01
299.665	-8.53
299.88	22.19
300.094	73.39
300.309	28.33
300.523	-49.49
300.737	16.04
300.952	69.29
301.166	7.85
301.381	-8.53
301.595	59.05
301.809	44.71
302.024	-6.49
302.238	-45.4
302.452	22.19
302.667	48.81
302.881	-8.53
303.095	71.34
303.309	93.87
303.524	13.99
303.738	-6.49
303.952	13.99
304.166	52.91
304.381	20.14
304.595	32.43
304.809	-49.49
305.023	44.71
305.237	13.99
305.452	7.85
305.666	32.43
305.88	57
306.094	79.53
306.308	100.01
306.522	120.49
306.736	20.14
306.95	-29.01
307.164	48.81
307.379	-16.73
307.593	-8.53
307.807	-16.73
308.021	114.34
308.235	61.1
308.449	-2.39
308.663	-22.87
308.877	59.05
309.091	77.48
309.305	-67.92
309.519	-49.49
309.733	38.57
309.947	1.71
310.161	-59.73
310.374	36.52
310.588	5.8
310.802	-49.49
311.016	1.71
311.23	1.71
311.444	-18.77
311.658	57
311.872	79.53
312.085	26.28
312.299	24.23
312.513	75.43
312.727	57
312.941	20.14
313.154	34.47
313.368	-31.06
313.582	36.52
313.796	52.91
314.009	44.71
314.223	13.99
314.437	50.86
314.651	65.19
314.864	38.57
315.078	7.85
315.292	-2.39
315.505	-10.58
315.719	57
315.933	40.62
316.146	81.58
316.36	48.81
316.573	40.62
316.787	7.85
317.001	48.81
317.214	-39.25
317.428	32.43
317.641	13.99
317.855	32.43
318.068	30.38
318.282	3.75
318.495	67.24
318.709	-0.34
318.922	-26.96
319.136	59.05
319.349	-39.25
319.563	-16.73
319.776	95.91
319.99	59.05
320.203	32.43
320.417	32.43
320.63	20.14
320.843	7.85
321.057	67.24
321.27	48.81
321.483	-20.82
321.697	54.95
321.91	-8.53
322.124	20.14
322.337	20.14
322.55	7.85
322.763	-49.49
322.977	13.99
323.19	44.71
323.403	5.8
323.617	1.71
323.83	7.85
324.043	11.95
324.256	16.04
324.469	3.75
324.683	114.34
324.896	73.39
325.109	28.33
325.322	24.23
325.535	71.34
325.748	28.33
325.962	28.33
326.175	-74.07
326.388	5.8
326.601	93.87
326.814	97.96
327.027	22.19
327.24	69.29
327.453	-22.87
327.666	26.28
327.879	13.99
328.092	24.23
328.305	44.71
328.518	65.19
328.731	24.23
328.944	57
329.157	-12.63
329.37	18.09
329.583	77.48
329.796	7.85
330.009	110.25
330.222	87.72
330.435	7.85
330.648	-55.64
330.861	65.19
331.073	36.52
331.286	102.06
331.499	61.1
331.712	102.06
331.925	18.09
332.138	69.29
332.35	13.99
332.563	77.48
332.776	77.48
332.989	-26.96
333.202	65.19
333.414	-0.34
333.627	-0.34
333.84	20.14
334.053	36.52
334.265	67.24
334.478	-31.06
334.691	24.23
334.903	34.47
335.116	-14.68
335.329	11.95
335.541	52.91
335.754	165.54
335.966	-39.25
336.179	-39.25
336.392	40.62
336.604	79.53
336.817	18.09
337.029	110.25
337.242	-4.44
337.454	79.53
337.667	34.47
337.88	67.24
338.092	5.8
338.305	30.38
338.517	-4.44
338.729	-31.06
338.942	83.63
339.154	-16.73
339.367	-53.59
339.579	42.67
339.792	-65.88
340.004	83.63
340.217	-49.49
340.429	89.77
340.641	-37.2
340.854	69.29
341.066	40.62
341.278	73.39
341.491	24.23
341.703	16.04
341.915	50.86
342.128	57
342.34	46.76
342.552	-4.44
342.764	61.1
342.977	85.67
343.189	11.95
343.401	63.15
343.613	5.8
343.826	28.33
344.038	-37.2
344.25	11.95
344.462	13.99
344.674	73.39
344.886	3.75
345.099	-2.39
345.311	32.43
345.523	38.57
345.735	28.33
345.947	48.81
346.159	-0.34
346.371	7.85
346.583	16.04
346.795	114.34
347.007	40.62
347.219	100.01
347.431	20.14
347.643	112.3
347.855	50.86
348.067	-14.68
348.279	-35.16
348.491	73.39
348.703	57
348.915	-0.34
349.127	-33.11
349.339	24.23
349.551	3.75
349.763	36.52
349.975	11.95
350.187	52.91
350.399	34.47
350.61	5.8
350.822	69.29
351.034	9.9
351.246	26.28
351.458	13.99
351.669	28.33
351.881	-2.39
352.093	67.24
352.305	34.47
352.517	57
352.728	36.52
352.94	85.67
353.152	65.19
353.363	26.28
353.575	11.95
353.787	71.34
353.999	61.1
354.21	69.29
354.422	61.1
354.633	11.95
354.845	-29.01
355.057	5.8
355.268	44.71
355.48	26.28
355.692	-8.53
355.903	1.71
356.115	52.91
356.326	7.85
356.538	20.14
356.749	20.14
356.961	11.95
357.172	7.85
357.384	32.43
357.595	42.67
357.807	24.23
358.018	7.85
358.23	95.91
358.441	30.38
358.653	34.47
358.864	-26.96
359.075	20.14
359.287	52.91
359.498	100.01
359.709	-14.68
359.921	16.04
360.132	18.09
360.344	24.23
360.555	-0.34
360.766	42.67
360.977	7.85
361.189	153.26
361.4	20.14
361.611	132.78
361.823	-6.49
362.034	18.09
362.245	48.81
362.456	57
362.667	61.1
362.879	38.57
363.09	36.52
363.301	77.48
363.512	30.38
363.723	-29.01
363.935	57
364.146	93.87
364.357	73.39
364.568	61.1
364.779	-39.25
364.99	24.23
365.201	9.9
365.412	-20.82
365.623	24.23
365.834	-4.44
366.045	7.85
366.256	65.19
366.467	-6.49
366.678	48.81
366.889	77.48
367.1	-26.96
367.311	77.48
367.522	13.99
367.733	48.81
367.944	95.91
368.155	57
368.366	65.19
368.577	112.3
368.788	18.09
368.999	73.39
369.209	50.86
369.42	91.82
369.631	73.39
369.842	13.99
370.053	34.47
370.264	42.67
370.474	24.23
370.685	42.67
370.896	69.29
371.107	69.29
371.317	22.19
371.528	122.54
371.739	18.09
371.95	18.09
372.16	32.43
372.371	-14.68
372.582	34.47
372.792	48.81
373.003	93.87
373.214	-12.63
373.424	30.38
373.635	-14.68
373.846	28.33
374.056	73.39
374.267	67.24
374.477	81.58
374.688	40.62
374.898	77.48
375.109	77.48
375.319	20.14
375.53	79.53
375.74	69.29
375.951	32.43
376.161	13.99
376.372	16.04
376.582	42.67
376.793	67.24
377.003	40.62
377.214	91.82
377.424	59.05
377.635	11.95
377.845	-16.73
378.055	100.01
378.266	36.52
378.476	116.39
378.686	1.71
378.897	-4.44
379.107	77.48
379.317	81.58
379.528	93.87
379.738	116.39
379.948	20.14
380.158	93.87
380.369	71.34
380.579	-22.87
380.789	75.43
380.999	77.48
381.21	73.39
381.42	48.81
381.63	-18.77
381.84	67.24
382.05	16.04
382.261	75.43
382.471	89.77
382.681	-57.68
382.891	104.11
383.101	83.63
383.311	7.85
383.521	13.99
383.731	67.24
383.941	42.67
384.151	34.47
384.361	83.63
384.571	89.77
384.781	40.62
384.991	89.77
385.201	132.78
385.411	116.39
385.621	28.33
385.831	79.53
386.041	-37.2
386.251	20.14
386.461	57
386.671	61.1
386.881	110.25
387.091	22.19
387.301	9.9
387.511	44.71
387.72	40.62
387.93	69.29
388.14	18.09
388.35	46.76
388.56	30.38
388.769	32.43
388.979	-6.49
389.189	-37.2
389.399	28.33
389.609	106.15
389.818	46.76
390.028	32.43
390.238	28.33
390.447	83.63
390.657	69.29
390.867	59.05
391.076	-2.39
391.286	7.85
391.496	11.95
391.705	71.34
391.915	36.52
392.125	52.91
392.334	57
392.544	120.49
392.753	50.86
392.963	95.91
393.172	44.71
393.382	-22.87
393.591	91.82
393.801	-8.53
394.01	77.48
394.22	57
394.429	97.96
394.639	91.82
394.848	132.78
395.058	11.95
395.267	124.58
395.477	36.52
395.686	97.96
395.895	95.91
396.105	140.97
396.314	32.43
396.524	122.54
396.733	69.29
396.942	69.29
397.152	93.87
397.361	157.35
397.57	63.15
397.78	36.52
397.989	100.01
398.198	161.45
398.407	61.1
398.617	91.82
398.826	52.91
399.035	112.3
399.244	44.71
399.453	-8.53
399.663	192.17
399.872	81.58
400.081	104.11
400.29	126.63
400.499	34.47
400.708	136.87
400.917	77.48
401.127	147.11
401.336	155.3
401.545	126.63
401.754	54.95
401.963	177.83
402.172	116.39
402.381	149.16
402.59	57
402.799	112.3
403.008	120.49
403.217	163.5
403.426	151.21
403.635	85.67
403.844	167.59
404.053	126.63
404.262	110.25
404.471	220.84
404.68	128.68
404.888	181.93
405.097	159.4
405.306	73.39
405.515	118.44
405.724	140.97
405.933	157.35
406.142	177.83
406.35	200.36
406.559	175.78
406.768	169.64
406.977	157.35
407.185	149.16
407.394	171.69
407.603	177.83
407.812	300.71
408.02	288.42
408.229	265.89
408.438	265.89
408.646	261.8
408.855	278.18
409.064	321.19
409.272	274.09
409.481	313
409.69	347.81
409.898	313
410.107	372.39
410.315	341.67
410.524	372.39
410.733	413.35
410.941	399.01
411.15	339.62
411.358	411.3
411.567	433.83
411.775	364.2
411.984	427.68
412.192	458.4
412.401	517.79
412.609	568.99
412.818	525.99
413.026	583.33
413.234	644.77
413.443	558.75
413.651	511.65
413.86	591.52
414.068	609.95
414.276	616.1
414.485	693.92
414.693	681.63
414.901	757.41
415.11	773.79
415.318	790.17
415.526	859.81
415.734	777.89
415.943	849.57
416.151	911
416.359	919.2
416.567	900.76
416.776	994.97
416.984	1017.5
417.192	1037.98
417.4	1119.9
417.608	1076.89
417.817	1187.48
418.025	1191.58
418.233	1269.4
418.441	1296.02
418.649	1353.37
418.857	1408.66
419.065	1394.33
419.273	1427.09
419.481	1490.58
419.689	1672.85
419.897	1601.17
420.105	1656.47
420.313	1701.52
420.521	1713.81
420.729	1756.82
420.937	1879.69
421.145	1963.66
421.353	2107.02
421.561	2070.16
421.769	2107.02
421.977	2346.63
422.185	2283.14
422.393	2393.73
422.601	2471.56
422.809	2576
423.017	2565.76
423.224	2619.01
423.432	2793.09
423.64	2752.13
423.848	3016.32
424.056	2918.01
424.263	3004.03
424.471	3192.44
424.679	3194.49
424.887	3360.38
425.094	3419.77
425.302	3526.26
425.51	3536.5
425.718	3763.83
425.925	3786.35
426.133	3985.01
426.341	4138.6
426.548	4363.88
426.756	4277.87
426.964	4337.26
427.171	4644.45
427.379	4818.53
427.586	4890.21
427.794	4916.83
428.001	5203.55
428.209	5338.71
428.417	5408.34
428.624	5676.63
428.832	5770.83
429.039	5678.68
429.247	5819.99
429.454	6110.8
429.662	6563.4
429.869	6329.93
430.076	6610.5
430.284	6549.06
430.491	6626.89
430.699	7036.48
430.906	7009.86
431.114	7347.77
431.321	7511.61
431.528	7548.47
431.736	8212.01
431.943	8640.04
432.15	8152.62
432.358	8398.38
432.565	8635.94
432.772	8658.47
432.979	8963.62
433.187	9274.91
433.394	9506.33
433.601	9991.7
433.808	10126.86
434.016	9848.34
434.223	10296.85
434.43	11134.46
434.637	10780.17
434.844	11499
435.052	11742.71
435.259	11603.45
435.466	11763.19
435.673	11496.96
435.88	12518.89
436.087	12955.11
436.294	13090.27
436.501	12713.45
436.708	13127.14
436.915	13256.16
437.122	13886.93
437.329	13747.67
437.537	14257.62
437.743	14872.01
437.95	14165.46
438.157	15199.68
438.364	15779.26
438.571	15723.96
438.778	15703.48
438.985	17690.01
439.192	16731.56
439.399	16985.51
439.606	16762.28
439.813	17810.84
440.02	18652.56
440.227	18374.03
440.433	18560.4
440.64	18941.32
440.847	18623.89
441.054	18965.9
441.261	20497.78
441.467	20067.7
441.674	20555.12
441.881	21187.94
442.088	21218.66
442.294	20989.29
442.501	21675.36
442.708	22275.41
442.914	23278.92
443.121	23651.65
443.328	23170.38
443.534	24956.21
443.741	24364.34
443.948	24048.96
444.154	25515.3
444.361	25279.78
444.568	25427.24
444.774	25593.12
444.981	25836.83
445.187	26543.38
445.394	27555.08
445.6	27088.14
445.807	29791.46
446.013	28617.97
446.22	29166.83
446.426	29986.02
446.633	30209.25
446.839	31528.14
447.046	30287.07
447.252	31917.25
447.459	31794.37
447.665	31339.72
447.871	33143.98
448.078	34600.09
448.284	32990.39
448.491	33737.9
448.697	34931.86
448.903	35306.64
449.11	35726.47
449.316	34995.35
449.522	35239.06
449.728	36344.96
449.935	36588.67
450.141	36625.53
450.347	37383.28
450.553	36361.34
450.76	36648.06
450.966	37751.91
451.172	37229.68
451.378	38190.18
451.584	37846.12
451.791	38470.75
451.997	37958.76
452.203	38710.36
452.409	38513.76
452.615	38624.35
452.821	37106.8
453.027	36723.83
453.233	38917.21
453.44	36820.09
453.646	37575.79
453.852	37770.35
454.058	38202.47
454.264	37192.82
454.47	38089.83
454.676	36516.99
454.882	38106.21
455.088	34905.24
455.294	35626.12
455.5	35703.95
455.705	36430.97
455.911	34708.63
456.117	34061.47
456.323	33438.89
456.529	31597.77
456.735	33129.65
456.941	32324.8
457.147	31884.48
457.352	30923.99
457.558	30516.44
457.764	30389.47
457.97	29963.49
458.176	28964.08
458.381	29385.96
458.587	27802.88
458.793	27669.76
458.999	26264.86
459.204	28341.5
459.41	27567.37
459.616	25744.67
459.821	25672.99
460.027	25330.98
460.233	25113.9
460.438	23954.75
460.644	24096.06
460.85	23237.96
461.055	22478.16
461.261	22580.56
461.466	20716.91
461.672	20477.3
461.878	21413.22
462.083	20176.25
462.289	19977.59
462.494	19809.66
462.7	18845.07
462.905	18404.75
463.111	19039.62
463.316	18965.9
463.522	18593.17
463.727	18517.39
463.932	18709.9
464.138	18521.49
464.343	18482.58
464.549	17933.72
464.754	18859.4
464.959	18306.45
465.165	18410.9
465.37	17446.3
465.575	16997.8
465.781	17823.13
465.986	17876.38
466.191	17343.91
466.397	17012.14
466.602	16129.46
466.807	16862.63
467.012	16750
467.218	16715.18
467.423	16508.33
467.628	16610.73
467.833	17159.59
468.038	16551.34
468.244	16053.69
468.449	16946.6
468.654	16293.3
468.859	16235.95
469.064	16229.81
469.269	15201.73
469.474	15547.84
469.679	15795.64
469.885	15316.42
470.09	15519.17
470.295	15478.21
470.5	15166.92
470.705	15232.45
470.91	14663.11
471.115	14536.14
471.32	14785.99
471.525	14532.04
471.73	14468.56
471.935	14300.62
472.139	13952.47
472.344	14214.61
472.549	13825.5
472.754	13727.19
472.959	13370.85
473.164	13063.65
473.369	13002.21
473.574	13407.71
473.778	13450.72
473.983	13258.21
474.188	13284.83
474.393	12525.04
474.598	12756.46
474.802	12471.79
475.007	12645.87
475.212	12545.52
475.417	11890.17
475.621	12084.72
475.826	12043.76
476.031	11791.86
476.235	11513.34
476.44	11765.24
476.645	11924.98
476.849	11468.28
477.054	11474.43
477.259	11486.72
477.463	11458.04
477.668	10991.11
477.872	11202.05
478.077	10933.76
478.282	10948.1
478.486	10661.38
478.691	10569.23
478.895	10391.05
479.1	10446.35
479.304	10382.86
479.509	10122.77
479.713	10489.35
479.918	10124.82
480.122	10186.26
480.326	10229.26
480.531	9971.22
480.735	9834
480.94	9877.01
481.144	10462.73
481.348	9674.26
481.553	9885.2
481.757	9657.88
481.961	9899.54
482.166	9938.45
482.37	9934.36
482.574	9760.28
482.778	9864.72
482.983	9981.46
483.187	9924.12
483.391	9944.59
483.595	9653.78
483.8	9651.74
484.004	9621.02
484.208	9956.88
484.412	9645.59
484.616	9760.28
484.821	9700.89
485.025	9465.37
485.229	9844.24
485.433	9674.26
485.637	9604.63
485.841	9522.71
486.045	9692.69
486.249	9899.54
486.453	9504.28
486.657	9448.99
486.861	10081.81
487.065	9649.69
487.269	9682.45
487.473	9674.26
487.677	9940.5
487.881	9864.72
488.085	9829.91
488.289	9946.64
488.493	9596.44
488.697	9944.59
488.901	9545.24
489.105	9631.26
489.309	9819.67
489.512	9870.87
489.716	9668.12
489.92	9948.69
490.124	9680.41
490.328	10204.69
490.531	9799.19
490.735	10157.58
490.939	10018.32
491.143	10026.51
491.346	10051.09
491.55	10153.49
491.754	10106.38
491.958	10391.05
492.161	10278.41
492.365	10341.9
492.569	10266.13
492.772	10298.89
492.976	10356.24
493.18	10495.5
493.383	10495.5
493.587	10511.88
493.79	10833.41
493.994	10784.26
494.197	10659.34
494.401	10915.33
494.605	10798.6
494.808	10968.58
495.012	10712.58
495.215	10849.8
495.419	11128.32
495.622	11132.42
495.825	11357.69
496.029	11326.97
496.232	11654.65
496.436	11638.27
496.639	11808.25
496.843	11798.01
497.046	12074.48
497.249	12033.52
497.453	12158.45
497.656	12469.74
497.859	12318.19
498.063	12461.55
498.266	12955.11
498.469	12631.53
498.673	12746.22
498.876	12987.88
499.079	13303.26
499.282	13227.49
499.485	13549.02
499.689	13434.33
499.892	13528.54
500.095	13917.65
500.298	14095.83
500.501	13993.43
500.705	14302.67
500.908	14327.25
501.111	14360.02
501.314	14896.58
501.517	14806.47
501.72	15230.4
501.923	15179.2
502.126	15570.37
502.329	15971.77
502.532	15762.87
502.735	15740.35
502.938	16231.86
503.141	16188.85
503.344	16594.35
503.547	16215.48
503.75	16776.62
503.953	16827.82
504.156	17208.74
504.359	17331.62
504.562	17165.73
504.765	17747.36
504.968	17872.28
505.17	18202
505.373	18165.14
505.576	18509.2
505.779	18648.46
505.982	18781.58
506.185	18929.03
506.387	19236.23
506.59	19305.86
506.793	19690.88
506.996	19541.38
507.198	20729.2
507.401	20063.61
507.604	20331.89
507.807	20790.64
508.009	20981.1
508.212	21124.46
508.415	21374.31
508.617	21622.11
508.82	21742.94
509.022	21607.78
509.225	22242.65
509.428	22486.36
509.63	22449.49
509.833	22615.38
510.035	23190.86
510.238	23133.51
510.44	23551.3
510.643	23891.26
510.845	23944.51
511.048	24065.34
511.25	24292.66
511.453	24329.53
511.655	25455.91
511.858	25013.55
512.06	25535.78
512.262	25636.13
512.465	25525.54
512.667	26015.01
512.87	25902.37
513.072	26404.12
513.274	27059.47
513.477	27391.24
513.679	27208.97
513.881	27653.38
514.084	28003.58
514.286	28179.71
514.488	27819.27
514.69	28929.27
514.893	28992.75
515.095	28982.51
515.297	29465.83
515.499	29607.14
515.701	30137.57
515.904	29943.01
516.106	30221.53
516.308	30604.5
516.51	31208.65
516.712	31159.5
516.914	31384.78
517.116	31921.35
517.318	32365.76
517.52	32376
517.722	32255.17
517.925	32971.96
518.127	33146.03
518.329	33389.74
518.531	33389.74
518.733	33797.29
518.935	34686.11
519.136	34935.96
519.338	34958.49
519.54	34755.74
519.742	35390.61
519.944	35579.02
520.146	36328.58
520.348	36107.4
520.55	36177.03
520.752	36535.42
520.954	37475.44
521.155	37252.21
521.357	37610.6
521.559	37778.54
521.761	38329.44
521.963	38511.71
522.164	38806.62
522.366	39023.7
522.568	39617.61
522.77	39375.95
522.971	40062.02
523.173	39640.14
523.375	40418.37
523.576	40100.93
523.778	40358.98
523.98	41143.35
524.181	40916.03
524.383	41495.6
524.584	41868.33
524.786	41446.45
524.988	41407.54
525.189	42361.89
525.391	42196.01
525.592	42503.2
525.794	42931.23
525.995	43029.53
526.197	43263
526.398	43467.8
526.6	43496.47
526.801	43994.12
527.003	44071.95
527.204	43836.43
527.406	44362.76
527.607	44368.9
527.808	44628.99
528.01	43983.88
528.211	44774.4
528.412	45421.56
528.614	44856.32
528.815	45130.75
529.016	45499.38
529.218	45415.41
529.419	45915.12
529.62	45618.16
529.822	45487.09
530.023	46093.29
530.224	45577.2
530.425	46228.46
530.626	45954.03
530.828	45982.7
531.029	46873.57
531.23	46126.06
531.431	46629.86
531.632	46584.8
531.833	46545.89
532.035	46576.61
532.236	46715.87
532.437	46762.98
532.638	46461.93
532.839	47059.93
533.04	47002.59
533.241	46334.95
533.442	47475.67
533.643	46830.56
533.844	47037.4
534.045	47408.09
534.246	46844.9
534.447	47139.8
534.648	47162.33
534.849	47365.08
535.05	46879.71
535.251	47092.7
535.451	47166.43
535.652	47481.81
535.853	47367.13
536.054	47391.7
536.255	47584.21
536.456	47150.04
536.657	48178.12
536.857	47164.38
537.058	47266.78
537.259	47864.78
537.46	47899.6
537.66	47186.91
537.861	47612.88
538.062	47616.98
538.263	47944.66
538.463	46801.89
538.664	47340.5
538.865	47606.74
539.065	47731.67
539.266	47133.66
539.466	47987.66
539.667	47064.03
539.868	48096.2
540.068	47315.93
540.269	47592.4
540.469	47969.23
540.67	47479.77
540.87	47043.55
541.071	47727.57
541.271	47670.23
541.472	47244.25
541.672	46932.96
541.873	47522.77
542.073	46666.72
542.274	48081.87
542.474	47424.47
542.675	47234.01
542.875	47504.34
543.075	47098.84
543.276	46719.97
543.476	47623.12
543.676	47258.59
543.877	47592.4
544.077	47461.33
544.277	47352.79
544.478	47152.09
544.678	47270.87
544.878	47094.75
545.078	47231.96
545.279	46777.31
545.479	46805.98
545.679	47170.52
545.879	46953.44
546.079	47436.76
546.28	47117.28
546.48	46570.47
546.68	47256.54
546.88	47588.31
547.08	47111.13
547.28	46908.38
547.48	46523.36
547.68	47406.04
547.88	46580.71
548.081	47049.69
548.281	47199.19
548.481	46386.15
548.681	47250.39
548.881	47131.61
549.081	47170.52
549.28	46664.67
549.48	46939.1
549.68	46840.8
549.88	47473.62
550.08	47176.67
550.28	47051.74
550.48	47023.07
550.68	47565.78
550.88	46666.72
551.08	46834.66
551.279	46584.8
551.479	46406.63
551.679	46543.84
551.879	46584.8
552.079	47301.59
552.278	46646.24
552.478	46304.23
552.678	46918.62
552.878	46816.22
553.077	46615.52
553.277	46408.68
553.477	46988.25
553.676	46838.75
553.876	46881.76
554.076	46539.75
554.275	45923.31
554.475	45671.41
554.674	46990.3
554.874	46306.28
555.074	46089.2
555.273	46425.06
555.473	46455.78
555.672	46040.04
555.872	45915.12
556.071	45847.54
556.271	46535.65
556.47	45681.65
556.67	45921.26
556.869	45884.4
557.068	46097.39
557.268	45790.19
557.467	45982.7
557.667	45767.66
557.866	45718.51
558.065	45591.54
558.265	45687.79
558.464	45177.85
558.663	46128.11
558.863	45308.92
559.062	45962.22
559.261	45014.01
559.461	45554.68
559.66	44928
559.859	45405.17
560.058	45257.72
560.258	45155.32
560.457	44829.69
560.656	45362.17
560.855	44837.89
561.054	44975.1
561.253	44362.76
561.453	44557.31
561.652	44684.29
561.851	44901.37
562.05	44483.59
562.249	43627.54
562.448	44639.23
562.647	44381.19
562.846	44129.29
563.045	44049.42
563.244	43723.79
563.443	44389.38
563.642	43508.75
563.841	43738.13
564.04	43402.26
564.239	43910.16
564.438	43263
564.637	43406.36
564.836	43717.65
565.035	42791.97
565.234	43277.33
565.432	43185.18
565.631	42888.22
565.83	43271.19
566.029	43004.95
566.228	42751.01
566.427	42196.01
566.625	42857.5
566.824	41694.25
567.023	42443.81
567.222	41557.04
567.42	42472.48
567.619	41940.01
567.818	42243.11
568.016	41542.7
568.215	41954.35
568.414	41552.94
568.612	41706.54
568.811	41415.73
569.01	41520.18
569.208	40997.95
569.407	41176.12
569.605	40864.83
569.804	40860.73
570.002	40809.53
570.201	41112.63
570.4	40455.23
570.598	40346.69
570.797	40227.91
570.995	40682.56
571.193	40059.98
571.392	40424.51
571.59	39812.17
571.789	39930.95
571.987	39734.35
572.186	40119.37
572.384	39312.47
572.582	39740.49
572.781	39724.11
572.979	39298.13
573.177	39423.06
573.376	38984.79
573.574	38890.59
573.772	39433.3
573.971	38790.23
574.169	38478.94
574.367	38460.51
574.565	38661.21
574.763	38341.73
574.962	38321.25
575.16	38026.34
575.358	38110.31
575.556	37876.84
575.754	38265.95
575.952	37819.5
576.151	37995.62
576.349	37731.43
576.547	37680.24
576.745	37416.05
576.943	37647.47
577.141	37084.28
577.339	37426.29
577.537	36713.59
577.735	37098.61
577.933	36891.77
578.131	36940.92
578.329	36834.42
578.527	36787.32
578.725	36766.84
578.923	36611.2
579.121	36455.55
579.319	36469.89
579.516	36443.26
579.714	35970.18
579.912	36156.55
580.11	35968.13
580.308	35533.96
580.506	36002.95
580.704	34962.58
580.901	35607.69
581.099	35581.07
581.297	35517.58
581.495	35493.01
581.692	35421.33
581.89	34864.28
582.088	35339.41
582.285	34954.39
582.483	34964.63
582.681	34890.9
582.878	34655.39
583.076	34223.26
583.274	34854.04
583.471	34618.52
583.669	34675.87
583.866	33795.24
584.064	34573.47
584.262	33666.22
584.459	34256.03
584.657	33506.48
584.854	34190.5
585.052	33387.69
585.249	33608.87
585.447	33854.63
585.644	33256.62
585.841	33539.24
586.039	33381.55
586.236	33211.57
586.434	33178.8
586.631	32842.93
586.828	32836.79
587.026	32826.55
587.223	32941.24
587.42	32656.57
587.618	32586.94
587.815	32074.95
588.012	31950.02
588.21	31915.2
588.407	31982.79
588.604	31663.3
588.801	31843.52
588.999	31997.12
589.196	31638.73
589.393	31866.05
589.59	31427.79
589.787	31567.05
589.984	31274.19
590.182	31165.65
590.379	31241.42
590.576	30633.18
590.773	30977.23
590.97	30713.05
591.167	31114.45
591.364	30457.05
591.561	30663.89
591.758	30524.63
591.955	30184.67
592.152	30692.57
592.349	30321.88
592.546	30213.34
592.743	30500.06
592.94	29848.8
593.137	30377.18
593.334	30536.92
593.531	29457.64
593.727	29490.41
593.924	29658.34
594.121	29648.1
594.318	29619.43
594.515	29168.88
594.712	29494.5
594.908	29285.61
595.105	29678.82
595.302	29013.23
595.499	29289.71
595.696	29142.25
595.892	28671.22
596.089	28560.63
596.286	28974.32
596.482	28611.83
596.679	28822.77
596.876	28740.85
597.072	28484.86
597.269	28388.6
597.466	28255.48
597.662	28257.53
597.859	28243.2
598.055	28284.16
598.252	27602.18
598.448	27804.93
598.645	27770.11
598.841	27544.84
599.038	27792.64
599.234	27415.82
599.431	27286.79
599.627	26873.1
599.824	27096.33
600.02	26725.65
600.217	26901.78
600.413	27000.08
600.609	26764.56
600.806	26498.33
601.002	27028.75
601.198	26414.36
601.395	26406.17
601.591	26156.32
601.787	26473.75
601.984	25992.48
602.18	26684.69
602.376	26066.2
602.572	26051.87
602.769	25791.78
602.965	25896.22
603.161	25998.62
603.357	25896.22
603.553	25609.51
603.75	25732.39
603.946	25361.7
604.142	25529.64
604.338	24882.48
604.534	25777.44
604.73	24851.76
604.926	25204.01
605.122	25134.38
605.318	24841.52
605.514	24907.05
605.71	24751.41
605.906	24522.04
606.102	24962.35
606.298	24706.35
606.494	24751.41
606.69	24563
606.886	24517.94
607.082	24276.28
607.278	24556.85
607.474	23964.99
607.67	24491.32
607.866	23960.89
608.062	24468.79
608.257	23991.61
608.453	24198.46
608.649	24040.76
608.845	23934.27
609.041	23713.09
609.236	24085.82
609.432	23805.25
609.628	23489.86
609.824	23780.67
610.019	23676.23
610.215	23354.69
610.411	23604.55
610.606	23393.61
610.802	23326.02
610.998	23280.97
611.193	23143.75
611.389	23278.92
611.584	23287.11
611.78	23035.21
611.976	23055.69
612.171	22961.48
612.367	23096.65
612.562	22904.14
612.758	22521.17
612.953	22521.17
613.149	23018.83
613.344	22789.45
613.539	23029.07
613.735	22603.09
613.93	22771.02
614.126	22922.57
614.321	22957.39
614.517	22461.78
614.712	22502.74
614.907	22236.5
615.103	22461.78
615.298	22394.2
615.493	22666.58
615.688	21921.12
615.884	22287.7
616.079	21888.35
616.274	22375.77
616.47	21800.29
616.665	22150.49
616.86	21865.82
617.055	21593.44
617.25	21831.01
617.445	21831.01
617.641	21423.46
617.836	21759.33
618.031	21622.11
618.226	21697.89
618.421	21636.45
618.616	21581.15
618.811	21345.64
619.006	21550.43
619.201	20759.92
619.396	21142.89
619.591	20958.57
619.786	20995.43
619.981	20696.43
620.176	20934
620.371	20628.85
620.566	20792.69
620.761	20409.72
620.956	20839.79
621.151	20508.02
621.346	20368.76
621.541	19821.95
621.735	20266.36
621.93	19912.06
622.125	20049.27
622.32	19842.43
622.515	19987.83
622.709	19137.93
622.904	19682.69
623.099	19678.59
623.294	19176.84
623.488	19029.38
623.683	19379.59
623.878	18933.13
624.072	19002.76
624.267	19160.45
624.462	18752.91
624.656	18517.39
624.851	18849.16
625.046	18425.23
625.24	18539.92
625.435	18040.22
625.629	18242.96
625.824	17880.47
626.018	18025.88
626.213	17472.93
626.407	17978.78
626.602	17388.96
626.796	17812.89
626.991	17538.46
627.185	17405.35
627.38	17247.65
627.574	17427.87
627.768	17026.47
627.963	17137.06
628.157	17130.92
628.352	16608.69
628.546	16563.63
628.74	16760.23
628.935	16657.84
629.129	16512.43
629.323	16209.33
629.517	16145.84
629.712	16090.55
629.906	16133.56
630.1	15920.57
630.294	15795.64
630.489	15832.51
630.683	15762.87
630.877	15701.44
631.071	15482.3
631.265	15650.24
631.459	15394.24
631.653	15404.48
631.848	15373.76
632.042	15140.29
632.236	15201.73
632.43	14804.42
632.624	15089.09
632.818	14960.07
633.012	14702.03
633.206	14853.58
633.4	14960.07
633.594	14366.16
633.788	14595.53
633.982	14355.92
634.176	14251.47
634.369	14292.43
634.563	14220.75
634.757	14202.32
634.951	13850.07
635.145	14144.98
635.339	13893.08
635.533	13608.41
635.726	13626.84
635.92	13532.64
636.114	13499.87
636.308	13532.64
636.501	13589.98
636.695	13397.47
636.889	13360.61
637.083	13233.63
637.276	13184.48
637.47	12994.02
637.664	13061.6
637.857	12971.49
638.051	12893.67
638.244	12877.29
638.438	12676.59
638.632	12746.22
638.825	12512.75
639.019	12512.75
639.212	12295.66
639.406	12328.43
639.599	12318.19
639.793	12387.82
639.986	12011
640.18	12080.63
640.373	12056.05
640.567	11884.02
640.76	11970.04
640.954	11931.12
641.147	11777.53
641.34	11910.64
641.534	11822.58
641.727	11740.66
641.92	11656.7
642.114	11382.27
642.307	11511.29
642.5	11488.76
642.694	11013.63
642.887	11093.51
643.08	11191.81
643.273	11183.62
643.467	11040.26
643.66	10915.33
643.853	10913.28
644.046	10978.82
644.239	10884.61
644.432	10720.78
644.626	10579.47
644.819	10612.23
645.012	10679.82
645.205	10282.51
645.398	10376.72
645.591	10350.09
645.784	10583.56
645.977	10223.12
646.17	10141.2
646.363	10221.07
646.556	9963.03
646.749	9979.41
646.942	9971.22
647.135	9915.92
647.328	9866.77
647.521	9795.09
647.714	9659.93
647.907	9584.15
648.099	9702.93
648.292	9743.89
648.485	9573.91
648.678	9344.54
648.871	9545.24
649.064	9238.05
649.256	9475.61
649.449	9442.84
649.642	9182.75
649.835	9127.46
650.027	9154.08
650.22	9053.73
650.413	8836.64
650.605	8949.28
650.798	9039.39
650.991	8881.7
651.183	8762.92
651.376	8767.01
651.568	8963.62
651.761	8842.79
651.954	8717.86
652.146	8672.81
652.339	8621.61
652.531	8568.36
652.724	8570.41
652.916	8433.19
653.109	8377.9
653.301	8511.02
653.494	8621.61
653.686	8146.48
653.879	8224.3
654.071	8248.88
654.263	8152.62
654.456	8105.52
654.648	8146.48
654.84	8007.22
655.033	7941.68
655.225	8064.56
655.417	7769.65
655.61	7847.47
655.802	8021.55
655.994	7800.37
656.186	7790.13
656.379	7716.4
656.571	7777.84
656.763	7636.53
656.955	7753.27
657.148	7532.09
657.34	7718.45
657.532	7521.85
657.724	7448.12
657.916	7540.28
658.108	7530.04
658.3	7441.98
658.492	7331.39
658.684	7165.5
658.876	7216.7
659.068	7095.87
659.26	7097.92
659.452	7196.22
659.644	7077.44
659.836	7003.71
660.028	7142.97
660.22	6991.42
660.412	6817.35
660.604	6884.93
660.796	7007.81
660.988	7003.71
661.18	6837.83
661.372	6803.01
661.563	6794.82
661.755	6694.47
661.947	6747.72
662.139	6755.91
662.331	6751.81
662.522	6739.52
662.714	6655.56
662.906	6499.91
663.097	6452.81
663.289	6573.64
663.481	6360.65
663.673	6522.44
663.864	6233.68
664.056	6164.04
664.247	6346.31
664.439	6202.96
664.631	6284.87
664.822	6248.01
665.014	6139.47
665.205	6270.54
665.397	6110.8
665.588	5932.62
665.78	5996.11
665.971	5994.06
666.163	6041.17
666.354	6032.97
666.546	5885.52
666.737	5832.27
666.929	5906
667.12	5865.04
667.311	5912.14
667.503	5815.89
667.694	5901.9
667.885	5873.23
668.077	5883.47
668.268	5693.01
668.459	5779.03
668.651	5791.31
668.842	5731.92
669.033	5631.57
669.224	5733.97
669.416	5607
669.607	5592.66
669.798	5598.81
669.989	5758.55
670.18	5504.6
670.371	5463.64
670.563	5320.28
670.754	5432.92
670.945	5394.01
671.136	5439.06
671.327	5426.78
671.518	5439.06
671.709	5283.42
671.9	5449.3
672.091	5342.81
672.282	5402.2
672.473	5207.64
672.664	5394.01
672.855	5240.41
673.046	5140.06
673.237	5254.75
673.428	5205.6
673.619	5252.7
673.809	5193.31
674	5193.31
674.191	5207.64
674.382	5221.98
674.573	5211.74
674.764	5199.45
674.954	5267.03
675.145	5090.91
675.336	5193.31
675.527	5125.72
675.717	4992.61
675.908	5058.14
676.099	4994.65
676.289	5185.12
676.48	5013.09
676.671	5084.77
676.861	5080.67
677.052	4920.93
677.243	4904.54
677.433	5080.67
677.624	5082.72
677.814	5027.42
678.005	4943.46
678.195	5004.89
678.386	4920.93
678.576	4857.44
678.767	4836.96
678.957	4845.15
679.148	4816.48
679.338	4998.75
679.529	4968.03
679.719	4851.3
679.909	4814.43
680.1	4869.73
680.29	4929.12
680.481	4785.76
680.671	4959.84
680.861	4605.54
681.052	4898.4
681.242	4824.67
681.432	4886.11
681.622	4865.63
681.813	4689.51
682.003	4908.64
682.193	4757.09
682.383	4869.73
682.573	4804.19
682.764	4718.18
682.954	5013.09
683.144	4685.41
683.334	4773.47
683.524	4810.34
683.714	4847.2
683.904	4798.05
684.094	4621.92
684.284	4740.71
684.474	4759.14
684.664	4722.27
684.854	4693.6
685.044	4685.41
685.234	4845.15
685.424	4599.4
685.614	4701.79
685.804	4603.49
685.994	4673.12
686.184	4535.91
686.374	4685.41
686.564	4695.65
686.753	4406.89
686.943	4626.02
687.133	4480.61
687.323	4552.29
687.513	4513.38
687.702	4501.09
687.892	4390.5
688.082	4503.14
688.272	4468.33
688.461	4456.04
688.651	4443.75
688.841	4324.97
689.03	4306.54
689.22	4273.77
689.41	4355.69
689.599	4195.95
689.789	4234.86
689.979	4226.67
690.168	4075.12
690.358	4279.91
690.547	4195.95
690.737	4152.94
690.926	4171.37
691.116	3989.1
691.305	4066.92
691.495	4134.51
691.684	4124.27
691.874	4120.17
692.063	4095.6
692.252	4128.36
692.442	4015.73
692.631	3993.2
692.82	4034.16
693.01	4073.07
693.199	4066.92
693.388	3939.95
693.578	4097.64
693.767	4058.73
693.956	3931.76
694.146	3929.71
694.335	3821.17
694.524	3753.59
694.713	3995.25
694.902	3819.12
695.092	3860.08
695.281	3858.03
695.47	3808.88
695.659	3810.93
695.848	3673.71
696.037	3796.59
696.226	3792.5
696.415	3669.62
696.604	3911.28
696.793	3815.02
696.982	3780.21
697.171	3692.15
697.36	3788.4
697.549	3657.33
697.738	3796.59
697.927	3657.33
698.116	3628.66
698.305	3722.87
698.494	3649.14
698.683	3745.39
698.872	3735.15
699.061	3784.3
699.25	3757.68
699.438	3704.43
699.627	3729.01
699.816	3651.19
700.005	3700.34
700.193	3812.98
700.382	3655.28
700.571	3620.47
700.76	3681.91
700.948	3759.73
701.137	3712.63
701.326	3720.82
701.514	3473.01
701.703	3583.6
701.892	3569.27
702.08	3620.47
702.269	3602.04
702.457	3587.7
702.646	3696.24
702.834	3581.56
703.023	3563.12
703.212	3673.71
703.4	3692.15
703.589	3616.37
703.777	3706.48
703.965	3692.15
704.154	3616.37
704.342	3565.17
704.531	3673.71
704.719	3534.45
704.907	3628.66
705.096	3528.31
705.284	3653.23
705.472	3491.45
705.661	3681.91
705.849	3692.15
706.037	3659.38
706.226	3645.04
706.414	3714.67
706.602	3532.4
706.79	3681.91
706.979	3645.04
707.167	3665.52
707.355	3626.61
707.543	3602.04
707.731	3749.49
707.919	3573.36
708.107	3579.51
708.296	3491.45
708.484	3661.43
708.672	3579.51
708.86	3593.84
709.048	3624.56
709.236	3554.93
709.424	3704.43
709.612	3616.37
709.8	3604.08
709.988	3643
710.176	3686
710.364	3565.17
710.551	3599.99
710.739	3518.07
710.927	3612.28
711.115	3573.36
711.303	3569.27
711.491	3618.42
711.679	3669.62
711.866	3585.65
712.054	3645.04
712.242	3495.54
712.43	3649.14
712.617	3532.4
712.805	3569.27
712.993	3554.93
713.181	3563.12
713.368	3624.56
713.556	3657.33
713.744	3477.11
713.931	3583.6
714.119	3665.52
714.306	3616.37
714.494	3647.09
714.682	3589.75
714.869	3665.52
715.057	3669.62
715.244	3573.36
715.432	3550.84
715.619	3583.6
715.807	3616.37
715.994	3767.92
716.182	3581.56
716.369	3681.91
716.556	3665.52
716.744	3587.7
716.931	3567.22
717.119	3663.47
717.306	3559.03
717.493	3665.52
717.681	3602.04
717.868	3561.08
718.055	3714.67
718.242	3595.89
718.43	3585.65
718.617	3567.22
718.804	3530.36
718.991	3563.12
719.179	3722.87
719.366	3620.47
719.553	3608.18
719.74	3608.18
719.927	3591.8
720.114	3522.16
720.301	3522.16
720.488	3550.84
720.676	3595.89
720.863	3614.32
721.05	3622.52
721.237	3522.16
721.424	3667.57
721.611	3419.77
721.798	3505.78
721.985	3604.08
722.172	3626.61
722.358	3495.54
722.545	3569.27
722.732	3530.36
722.919	3423.86
723.106	3612.28
723.293	3587.7
723.48	3491.45
723.667	3481.21
723.853	3563.12
724.04	3483.25
724.227	3640.95
724.414	3387
724.6	3448.44
724.787	3532.4
724.974	3513.97
725.161	3573.36
725.347	3546.74
725.534	3470.97
725.72	3458.68
725.907	3411.57
726.094	3548.79
726.28	3638.9
726.467	3423.86
726.653	3569.27
726.84	3499.64
727.027	3538.55
727.213	3419.77
727.4	3460.73
727.586	3419.77
727.773	3526.26
727.959	3524.21
728.145	3501.69
728.332	3511.93
728.518	3440.25
728.705	3569.27
728.891	3374.71
729.077	3343.99
729.264	3464.82
729.45	3503.73
729.636	3464.82
729.823	3329.66
730.009	3552.88
730.195	3384.95
730.382	3579.51
730.568	3452.53
730.754	3487.35
730.94	3405.43
731.126	3493.49
731.313	3393.14
731.499	3364.47
731.685	3452.53
731.871	3456.63
732.057	3411.57
732.243	3413.62
732.429	3421.81
732.615	3579.51
732.801	3331.7
732.987	3329.66
733.173	3323.51
733.359	3384.95
733.545	3315.32
733.731	3251.83
733.917	3419.77
734.103	3372.66
734.289	3276.41
734.475	3296.89
734.661	3466.87
734.847	3352.18
735.033	3366.52
735.219	3366.52
735.404	3282.55
735.59	3399.29
735.776	3145.34
735.962	3204.73
736.148	3466.87
736.333	3427.96
736.519	3257.98
736.705	3346.04
736.89	3221.11
737.076	3311.22
737.262	3145.34
737.447	3282.55
737.633	3305.08
737.819	3292.79
738.004	3221.11
738.19	3260.02
738.375	3137.15
738.561	3180.15
738.747	3221.11
738.932	3198.59
739.118	3286.65
739.303	3165.82
739.489	3122.81
739.674	3073.66
739.859	3110.52
740.045	3196.54
740.23	3171.96
740.416	3092.09
740.601	3067.52
740.786	2979.45
740.972	3073.66
741.157	3044.99
741.342	3055.23
741.528	2958.97
741.713	3149.43
741.898	3077.76
742.084	2981.5
742.269	3063.42
742.454	3096.19
742.639	3110.52
742.824	2934.4
743.01	2985.6
743.195	2950.78
743.38	2920.06
743.565	3055.23
743.75	2934.4
743.935	2809.47
744.12	2872.96
744.305	2766.46
744.49	2856.58
744.675	2711.17
744.86	2866.81
745.045	2768.51
745.23	2715.27
745.415	2875.01
745.6	2827.9
745.785	2666.11
745.97	2748.03
746.155	2762.37
746.34	2756.22
746.525	2690.69
746.71	2764.42
746.895	2713.22
747.079	2635.39
747.264	2664.07
747.449	2719.36
747.634	2592.39
747.819	2659.97
748.003	2561.67
748.188	2584.2
748.373	2539.14
748.557	2578.05
748.742	2469.51
748.927	2559.62
749.111	2533
749.296	2446.98
749.481	2406.02
749.665	2506.37
749.85	2326.15
750.034	2354.82
750.219	2428.55
750.404	2297.48
750.588	2420.36
750.773	2383.49
750.957	2213.51
751.141	2205.32
751.326	2227.85
751.51	2178.7
751.695	2180.75
751.879	2233.99
752.064	2279.05
752.248	2160.27
752.432	2268.81
752.617	2266.76
752.801	2176.65
752.985	2133.64
753.17	2182.79
753.354	2137.74
753.538	2027.15
753.722	1957.52
753.907	2127.5
754.091	2018.96
754.275	2055.82
754.459	2014.86
754.643	2014.86
754.828	2068.11
755.012	1939.09
755.196	1928.85
755.38	2008.72
755.564	1908.37
755.748	1836.69
755.932	1912.46
756.116	1916.56
756.3	1842.83
756.484	1891.98
756.668	1787.54
756.852	1709.71
757.036	1848.97
757.22	1777.3
757.404	1760.91
757.588	1732.24
757.772	1760.91
757.956	1740.43
758.14	1762.96
758.323	1611.41
758.507	1777.3
758.691	1736.34
758.875	1658.51
759.059	1713.81
759.242	1711.76
759.426	1588.88
759.61	1670.8
759.794	1564.31
759.977	1644.18
760.161	1601.17
760.345	1609.36
760.528	1572.5
760.712	1590.93
760.895	1601.17
761.079	1588.88
761.263	1558.16
761.446	1549.97
761.63	1582.74
761.813	1597.07
761.997	1560.21
762.18	1527.44
762.364	1535.64
762.547	1537.68
762.731	1500.82
762.914	1416.85
763.098	1470.1
763.281	1535.64
763.464	1443.48
763.648	1371.8
763.831	1482.39
764.015	1427.09
764.198	1502.87
764.381	1445.52
764.564	1437.33
764.748	1468.05
764.931	1461.91
765.114	1351.32
765.297	1289.88
765.481	1351.32
765.664	1351.32
765.847	1220.25
766.03	1408.66
766.213	1355.41
766.397	1402.52
766.58	1263.26
766.763	1261.21
766.946	1339.03
767.129	1398.42
767.312	1339.03
767.495	1334.93
767.678	1347.22
767.861	1271.45
768.044	1293.97
768.227	1289.88
768.41	1212.06
768.593	1279.64
768.776	1318.55
768.959	1205.91
769.142	1281.69
769.324	1298.07
769.507	1232.54
769.69	1236.63
769.873	1240.73
770.056	1228.44
770.239	1156.76
770.421	1293.97
770.604	1261.21
770.787	1230.49
770.97	1216.15
771.152	1107.61
771.335	1164.95
771.518	1167
771.7	1210.01
771.883	1134.23
772.066	1179.29
772.248	1207.96
772.431	1138.33
772.613	1126.04
772.796	1150.62
772.978	1058.46
773.161	1093.27
773.343	1027.74
773.526	984.73
773.708	911
773.891	1003.16
774.073	1056.41
774.256	1132.19
774.438	1015.45
774.621	954.01
774.803	1015.45
774.985	976.54
775.168	1007.26
775.35	1031.83
775.532	1083.03
775.715	960.16
775.897	1019.55
776.079	917.15
776.261	984.73
776.444	861.85
776.626	962.2
776.808	927.39
776.99	933.53
777.173	929.44
777.355	913.05
777.537	870.05
777.719	857.76
777.901	851.61
778.083	837.28
778.265	863.9
778.447	966.3
778.629	790.17
778.811	837.28
778.993	880.29
779.175	915.1
779.357	835.23
779.539	775.84
779.721	751.26
779.903	888.48
780.085	812.7
780.267	806.56
780.449	829.09
780.631	835.23
780.812	790.17
780.994	698.02
781.176	761.5
781.358	683.68
781.54	712.35
781.721	777.89
781.903	724.64
782.085	708.26
782.267	777.89
782.448	730.78
782.63	704.16
782.812	681.63
782.993	681.63
783.175	706.21
783.357	597.67
783.538	655.01
783.72	659.1
783.901	638.62
784.083	573.09
784.264	657.06
784.446	638.62
784.627	665.25
784.809	642.72
784.99	683.68
785.172	609.95
785.353	732.83
785.535	593.57
785.716	642.72
785.897	538.27
786.079	579.23
786.26	587.43
786.441	585.38
786.623	605.86
786.804	652.96
786.985	534.18
787.167	591.52
787.348	519.84
787.529	620.19
787.71	564.9
787.891	544.42
788.073	515.75
788.254	566.95
788.435	536.23
788.616	491.17
788.797	540.32
788.978	548.51
789.159	597.67
789.34	573.09
789.522	413.35
789.703	503.46
789.884	499.36
790.065	417.44
790.246	509.6
790.427	427.68
790.607	480.93
790.788	493.22
790.969	458.4
791.15	413.35
791.331	437.92
791.512	433.83
791.693	413.35
791.874	499.36
792.054	487.08
792.235	435.88
792.416	442.02
792.597	427.68
792.778	421.54
792.958	470.69
793.139	433.83
793.32	501.41
793.5	472.74
793.681	433.83
793.862	392.87
794.042	462.5
794.223	419.49
794.404	411.3
794.584	407.2
794.765	442.02
794.945	413.35
795.126	478.88
795.306	417.44
795.487	413.35
795.667	372.39
795.848	399.01
796.028	313
796.209	423.59
796.389	376.48
796.57	362.15
796.75	370.34
796.93	360.1
797.111	304.81
797.291	280.23
797.471	337.57
797.652	370.34
797.832	358.05
798.012	427.68
798.192	407.2
798.373	263.85
798.553	368.29
798.733	364.2
798.913	399.01
799.093	380.58
799.274	315.05
799.454	380.58
799.634	366.25
799.814	343.72
799.994	292.52
800.174	364.2
800.354	319.14
800.534	288.42
800.714	360.1
800.894	329.38
801.074	306.85
801.254	280.23
801.434	327.33
801.614	298.66
801.794	306.85
801.974	839.33
802.154	290.47
802.334	292.52
802.514	290.47
802.693	310.95
802.873	212.65
803.053	310.95
803.233	286.37
803.413	310.95
803.592	372.39
803.772	298.66
803.952	325.29
804.131	208.55
804.311	308.9
804.491	290.47
804.67	327.33
804.85	300.71
805.03	298.66
805.209	356.01
805.389	280.23
805.568	327.33
805.748	280.23
805.928	239.27
806.107	222.89
806.287	276.13
806.466	261.8
806.646	253.61
806.825	274.09
807.004	229.03
807.184	274.09
807.363	218.79
807.543	339.62
807.722	224.94
807.901	313
808.081	261.8
808.26	233.13
808.439	235.18
808.619	192.17
808.798	251.56
808.977	202.41
809.156	292.52
809.336	278.18
809.515	300.71
809.694	155.3
809.873	253.61
810.052	274.09
810.231	278.18
810.411	85.67
810.59	255.65
810.769	151.21
810.948	216.74
811.127	196.26
811.306	269.99
811.485	253.61
811.664	265.89
811.843	183.98
812.022	173.74
812.201	286.37
812.38	265.89
812.559	134.82
812.737	288.42
812.916	169.64
813.095	198.31
813.274	261.8
813.453	214.7
813.632	229.03
813.811	235.18
813.989	151.21
814.168	212.65
814.347	231.08
814.526	229.03
814.704	190.12
814.883	229.03
815.062	190.12
815.24	255.65
815.419	194.22
815.598	175.78
815.776	224.94
815.955	208.55
816.133	122.54
816.312	220.84
816.49	108.2
816.669	200.36
816.847	157.35
817.026	206.5
817.204	132.78
817.383	155.3
817.561	173.74
817.74	167.59
817.918	147.11
818.097	212.65
818.275	188.07
818.453	120.49
818.632	140.97
818.81	218.79
818.988	145.06
819.167	167.59
819.345	175.78
819.523	202.41
819.701	190.12
819.879	120.49
820.058	108.2
820.236	95.91
820.414	151.21
820.592	93.87
820.77	190.12
820.948	253.61
821.127	112.3
821.305	147.11
821.483	161.45
821.661	165.54
821.839	145.06
822.017	138.92
822.195	97.96
822.373	181.93
822.551	169.64
822.729	161.45
822.907	171.69
823.085	249.51
823.262	52.91
823.44	171.69
823.618	77.48
823.796	120.49
823.974	67.24
824.152	93.87
824.329	192.17
824.507	85.67
824.685	145.06
824.863	183.98
825.04	151.21
825.218	87.72
825.396	163.5
825.574	130.73
825.751	40.62
825.929	132.78
826.107	91.82
826.284	235.18
826.462	118.44
826.639	104.11
826.817	153.26
826.994	106.15
827.172	75.43
827.349	81.58
827.527	93.87
827.704	165.54
827.882	106.15
828.059	120.49
828.237	114.34
828.414	155.3
828.591	118.44
828.769	110.25
828.946	89.77
829.124	147.11
829.301	159.4
829.478	114.34
829.655	126.63
829.833	97.96
830.01	52.91
830.187	97.96
830.364	83.63
830.542	77.48
830.719	89.77
830.896	112.3
831.073	106.15
831.25	93.87
831.427	67.24
831.604	85.67
831.782	83.63
831.959	132.78
832.136	118.44
832.313	91.82
832.49	67.24
832.667	69.29
832.844	46.76
833.021	67.24
833.198	85.67
833.374	134.82
833.551	102.06
833.728	71.34
833.905	114.34
834.082	65.19
834.259	91.82
834.436	108.2
834.612	97.96
834.789	126.63
834.966	147.11
835.143	79.53
835.319	83.63
835.496	77.48
835.673	65.19
835.85	140.97
836.026	75.43
836.203	118.44
836.38	54.95
836.556	95.91
836.733	106.15
836.909	188.07
837.086	83.63
837.262	61.1
837.439	-0.34
837.616	13.99
837.792	57
837.968	159.4
838.145	7.85
838.321	124.58
838.498	52.91
838.674	63.15
838.851	118.44
839.027	83.63
839.203	114.34
839.38	83.63
839.556	85.67
839.732	124.58
839.909	87.72
840.085	102.06
840.261	63.15
840.437	50.86
840.614	79.53
840.79	44.71
840.966	67.24
841.142	52.91
841.318	122.54
841.494	77.48
841.671	48.81
841.847	52.91
842.023	7.85
842.199	32.43
842.375	140.97
842.551	34.47
842.727	85.67
842.903	120.49
843.079	-12.63
843.255	75.43
843.431	59.05
843.607	106.15
843.783	-26.96
843.959	48.81
844.134	20.14
844.31	79.53
844.486	-2.39
844.662	-33.11
844.838	32.43
845.013	71.34
845.189	102.06
845.365	61.1
845.541	91.82
845.716	34.47
845.892	7.85
846.068	69.29
846.244	18.09
846.419	9.9
846.595	69.29
846.77	44.71
846.946	52.91
847.122	9.9
847.297	9.9
847.473	69.29
847.648	46.76
847.824	106.15
847.999	73.39
848.175	85.67
848.35	104.11
848.526	40.62
848.701	38.57
848.876	100.01
849.052	77.48
849.227	3.75
849.403	97.96
849.578	38.57
849.753	18.09
849.929	50.86
850.104	20.14
850.279	20.14
850.454	7.85
850.63	24.23
850.805	52.91
850.98	93.87
851.155	26.28
851.33	42.67
851.505	20.14
851.681	91.82
851.856	-20.82
852.031	124.58
852.206	50.86
852.381	57
852.556	11.95
852.731	61.1
852.906	42.67
853.081	22.19
853.256	42.67
853.431	7.85
853.606	40.62
853.781	100.01
853.956	-47.44
854.131	77.48
854.305	-55.64
854.48	-24.92
854.655	65.19
854.83	22.19
855.005	-6.49
855.18	46.76
855.354	24.23
855.529	83.63
855.704	11.95
855.879	32.43
856.053	-12.63
856.228	7.85
856.403	40.62
856.577	61.1
856.752	28.33
856.926	28.33
857.101	11.95
857.276	46.76
857.45	77.48
857.625	-6.49
857.799	63.15
857.974	110.25
858.148	3.75
858.323	75.43
858.497	40.62
858.672	1.71
858.846	-0.34
859.02	24.23
859.195	40.62
859.369	-8.53
859.543	34.47
859.718	93.87
859.892	59.05
860.066	3.75
860.241	100.01
860.415	-18.77
860.589	63.15
860.763	52.91
860.938	-24.92
861.112	16.04
861.286	26.28
861.46	24.23
861.634	-0.34
861.808	48.81
861.982	18.09
862.157	9.9
862.331	42.67
862.505	40.62
862.679	7.85
862.853	-12.63
863.027	-69.97
863.201	36.52
863.375	-12.63
863.549	118.44
863.722	-45.4
863.896	63.15
864.07	-12.63
864.244	50.86
864.418	69.29
864.592	22.19
864.766	50.86
864.939	-24.92
865.113	59.05
865.287	79.53
865.461	46.76
865.634	16.04
865.808	22.19
865.982	-12.63
866.156	-29.01
866.329	9.9
866.503	52.91
866.676	-49.49
866.85	61.1
867.024	46.76
867.197	3.75
867.371	20.14
867.544	42.67
867.718	69.29
867.891	34.47
868.065	20.14
868.238	-6.49
868.412	18.09
868.585	54.95
868.759	-49.49
868.932	-2.39
869.105	-14.68
869.279	-24.92
869.452	34.47
869.625	67.24
869.799	50.86
869.972	-33.11
870.145	-24.92
870.319	24.23
870.492	-2.39
870.665	-29.01
870.838	-4.44
871.011	-24.92
871.185	3.75
871.358	18.09
871.531	-35.16
871.704	1.71
871.877	-8.53
872.05	-0.34
872.223	26.28
872.396	-47.44
872.569	-14.68
872.742	-61.78
872.915	-37.2
873.088	-4.44
873.261	44.71
873.434	-20.82
873.607	20.14
873.78	18.09
873.953	79.53
874.126	-4.44
874.299	-6.49
874.471	44.71
874.644	-55.64
874.817	-33.11
874.99	65.19
875.163	40.62
875.335	73.39
875.508	48.81
875.681	1.71
875.853	22.19
876.026	-12.63
876.199	-53.59
876.371	24.23
876.544	-33.11
876.717	-49.49
876.889	-61.78
877.062	-53.59
877.234	-24.92
877.407	-20.82
877.579	-43.35
877.752	18.09
877.924	-24.92
878.097	13.99
878.269	-0.34
878.442	46.76
878.614	5.8
878.786	42.67
878.959	3.75
879.131	16.04
879.303	-47.44
879.476	-14.68
879.648	-37.2
879.82	-16.73
879.993	26.28
880.165	-12.63
880.337	-41.3
880.509	-14.68
880.681	9.9
880.854	7.85
881.026	-0.34
881.198	73.39
881.37	-8.53
881.542	20.14
881.714	-6.49
881.886	-2.39
882.058	9.9
882.23	44.71
882.402	7.85
882.574	24.23
882.746	-14.68
882.918	5.8
883.09	-16.73
883.262	-2.39
883.434	-20.82
883.606	-8.53
883.778	-22.87
883.95	42.67
884.122	-47.44
884.293	13.99
884.465	-94.55
884.637	-18.77
884.809	36.52
884.98	5.8
885.152	59.05
885.324	-37.2
885.496	-61.78
885.667	22.19
885.839	30.38
886.011	57
886.182	-33.11
886.354	36.52
886.525	61.1
886.697	13.99
886.869	-24.92
887.04	7.85
887.212	77.48
887.383	50.86
887.555	28.33
887.726	-33.11
887.897	-67.92
888.069	-49.49
888.24	20.14
888.412	-14.68
888.583	16.04
888.754	-10.58
888.926	30.38
889.097	-55.64
889.268	1.71
889.44	26.28
889.611	-59.73
889.782	-12.63
889.953	-16.73
890.125	-37.2
890.296	48.81
890.467	-0.34
890.638	-37.2
890.809	22.19
890.98	26.28
891.151	69.29
891.323	28.33
891.494	-37.2
891.665	-55.64
891.836	-2.39
892.007	-47.44
892.178	73.39
892.349	16.04
892.52	-18.77
892.691	3.75
892.862	-10.58
893.032	-74.07
893.203	-33.11
893.374	-10.58
893.545	-6.49
893.716	-26.96
893.887	-12.63
894.057	-39.25
894.228	30.38
894.399	-16.73
894.57	32.43
894.74	-67.92
894.911	9.9
895.082	24.23
895.253	-41.3
895.423	20.14
895.594	65.19
895.764	-4.44
895.935	-39.25
896.106	44.71
896.276	7.85
896.447	-8.53
896.617	-49.49
896.788	-61.78
896.958	-18.77
897.129	-24.92
897.299	54.95
897.47	61.1
897.64	40.62
897.81	-47.44
897.981	-14.68
898.151	11.95
898.322	13.99
898.492	-43.35
898.662	-76.12
898.832	-45.4
899.003	-104.79
899.173	9.9
899.343	-78.16
899.513	-16.73
