Data from USB4F104151__119__10-25-04-236.txt Node

Date: Wed Mar 12 10:25:04 EDT 2025
User: louis
Spectrometer: USB4F10415
Trigger mode: 4
Integration Time (sec): 3.000000E-2
Scans to average: 1
Electric dark correction enabled: true
Nonlinearity correction enabled: false
Boxcar width: 0
XAxis mode: Wavelengths
Number of Pixels in Spectrum: 3648
>>>>>Begin Spectral Data<<<<<
178.204	55.47
178.424	55.47
178.644	55.47
178.864	-61.27
179.084	-135
179.304	-48.98
179.524	0.17
179.744	-1.88
179.964	69.8
180.184	-36.69
180.404	-32.6
180.624	18.6
180.844	8.36
181.064	-53.08
181.283	32.94
181.503	8.36
181.723	34.99
181.943	-14.17
182.163	63.66
182.383	8.36
182.602	123.05
182.822	98.47
183.042	26.79
183.262	69.8
183.482	22.7
183.701	20.65
183.921	43.18
184.141	65.71
184.361	112.81
184.58	123.05
184.8	61.61
185.02	98.47
185.239	139.43
185.459	51.37
185.679	26.79
185.898	41.13
186.118	47.27
186.338	84.14
186.557	110.76
186.777	2.22
186.997	127.14
187.216	-40.79
187.436	110.76
187.655	65.71
187.875	94.38
188.095	18.6
188.314	71.85
188.534	127.14
188.753	49.32
188.973	57.51
189.192	84.14
189.412	92.33
189.631	51.37
189.851	71.85
190.07	73.9
190.29	6.31
190.509	110.76
190.729	61.61
190.948	51.37
191.168	137.38
191.387	63.66
191.607	59.56
191.826	49.32
192.045	26.79
192.265	106.67
192.484	30.89
192.704	61.61
192.923	45.23
193.142	112.81
193.362	37.03
193.581	45.23
193.8	59.56
194.02	18.6
194.239	4.27
194.458	86.19
194.678	94.38
194.897	90.28
195.116	82.09
195.335	30.89
195.555	114.86
195.774	45.23
195.993	112.81
196.212	63.66
196.432	4.27
196.651	4.27
196.87	77.99
197.089	145.58
197.308	73.9
197.528	75.95
197.747	18.6
197.966	102.57
198.185	102.57
198.404	-12.12
198.623	114.86
198.842	114.86
199.062	53.42
199.281	57.51
199.5	43.18
199.719	41.13
199.938	10.41
200.157	84.14
200.376	57.51
200.595	102.57
200.814	41.13
201.033	67.75
201.252	71.85
201.471	102.57
201.69	39.08
201.909	84.14
202.128	59.56
202.347	41.13
202.566	39.08
202.785	28.84
203.004	-18.26
203.223	98.47
203.442	34.99
203.661	39.08
203.879	22.7
204.098	116.9
204.317	94.38
204.536	131.24
204.755	61.61
204.974	55.47
205.193	59.56
205.411	129.19
205.63	32.94
205.849	14.51
206.068	45.23
206.287	-1.88
206.505	49.32
206.724	12.46
206.943	47.27
207.162	16.55
207.381	102.57
207.599	57.51
207.818	30.89
208.037	24.75
208.255	118.95
208.474	26.79
208.693	133.29
208.911	57.51
209.13	94.38
209.349	69.8
209.567	12.46
209.786	30.89
210.005	96.43
210.223	100.52
210.442	12.46
210.661	82.09
210.879	37.03
211.098	2.22
211.316	73.9
211.535	28.84
211.753	90.28
211.972	53.42
212.191	34.99
212.409	102.57
212.628	51.37
212.846	45.23
213.065	116.9
213.283	57.51
213.502	8.36
213.72	-24.4
213.938	39.08
214.157	26.79
214.375	45.23
214.594	75.95
214.812	118.95
215.031	28.84
215.249	73.9
215.467	71.85
215.686	34.99
215.904	69.8
216.122	-16.21
216.341	75.95
216.559	114.86
216.778	53.42
216.996	53.42
217.214	39.08
217.432	67.75
217.651	16.55
217.869	53.42
218.087	65.71
218.306	94.38
218.524	37.03
218.742	67.75
218.96	129.19
219.179	49.32
219.397	0.17
219.615	176.3
219.833	61.61
220.051	26.79
220.27	92.33
220.488	84.14
220.706	14.51
220.924	-69.46
221.142	43.18
221.36	102.57
221.578	37.03
221.796	77.99
222.015	16.55
222.233	57.51
222.451	116.9
222.669	14.51
222.887	67.75
223.105	55.47
223.323	98.47
223.541	-8.02
223.759	82.09
223.977	6.31
224.195	47.27
224.413	63.66
224.631	129.19
224.849	26.79
225.067	170.15
225.285	16.55
225.503	80.04
225.721	-20.31
225.939	86.19
226.157	73.9
226.375	86.19
226.592	34.99
226.81	102.57
227.028	112.81
227.246	127.14
227.464	53.42
227.682	41.13
227.9	110.76
228.117	106.67
228.335	77.99
228.553	84.14
228.771	49.32
228.989	69.8
229.206	61.61
229.424	4.27
229.642	65.71
229.86	43.18
230.077	45.23
230.295	24.75
230.513	135.34
230.731	61.61
230.948	34.99
231.166	116.9
231.384	116.9
231.601	32.94
231.819	92.33
232.037	53.42
232.254	-34.64
232.472	73.9
232.689	39.08
232.907	164.01
233.125	100.52
233.342	90.28
233.56	39.08
233.777	141.48
233.995	43.18
234.213	77.99
234.43	37.03
234.648	112.81
234.865	53.42
235.083	45.23
235.3	100.52
235.518	53.42
235.735	94.38
235.953	90.28
236.17	32.94
236.388	37.03
236.605	18.6
236.822	41.13
237.04	104.62
237.257	61.61
237.475	100.52
237.692	59.56
237.909	6.31
238.127	20.65
238.344	65.71
238.562	18.6
238.779	-5.97
238.996	-71.51
239.214	16.55
239.431	71.85
239.648	59.56
239.865	12.46
240.083	84.14
240.3	45.23
240.517	39.08
240.735	45.23
240.952	153.77
241.169	67.75
241.386	-14.17
241.603	63.66
241.821	92.33
242.038	86.19
242.255	86.19
242.472	-12.12
242.689	18.6
242.907	49.32
243.124	123.05
243.341	41.13
243.558	41.13
243.775	59.56
243.992	18.6
244.209	69.8
244.426	139.43
244.643	55.47
244.86	47.27
245.078	75.95
245.295	59.56
245.512	73.9
245.729	71.85
245.946	43.18
246.163	100.52
246.38	90.28
246.597	28.84
246.814	45.23
247.031	32.94
247.248	69.8
247.464	53.42
247.681	51.37
247.898	69.8
248.115	86.19
248.332	80.04
248.549	10.41
248.766	67.75
248.983	92.33
249.2	-8.02
249.417	51.37
249.633	65.71
249.85	110.76
250.067	45.23
250.284	129.19
250.501	94.38
250.717	45.23
250.934	-3.93
251.151	10.41
251.368	67.75
251.585	174.25
251.801	84.14
252.018	94.38
252.235	151.72
252.451	-63.32
252.668	-1.88
252.885	92.33
253.102	37.03
253.318	41.13
253.535	53.42
253.752	32.94
253.968	98.47
254.185	71.85
254.401	2.22
254.618	133.29
254.835	49.32
255.051	139.43
255.268	71.85
255.484	18.6
255.701	12.46
255.917	32.94
256.134	47.27
256.351	92.33
256.567	28.84
256.784	47.27
257	34.99
257.217	67.75
257.433	71.85
257.65	141.48
257.866	4.27
258.082	61.61
258.299	53.42
258.515	43.18
258.732	41.13
258.948	106.67
259.165	41.13
259.381	51.37
259.597	24.75
259.814	102.57
260.03	69.8
260.246	-12.12
260.463	94.38
260.679	71.85
260.895	28.84
261.112	139.43
261.328	34.99
261.544	45.23
261.761	45.23
261.977	69.8
262.193	34.99
262.409	73.9
262.626	2.22
262.842	88.23
263.058	53.42
263.274	106.67
263.49	-8.02
263.707	121
263.923	57.51
264.139	-16.21
264.355	90.28
264.571	51.37
264.787	49.32
265.004	164.01
265.22	86.19
265.436	39.08
265.652	69.8
265.868	65.71
266.084	8.36
266.3	69.8
266.516	82.09
266.732	131.24
266.948	2.22
267.164	45.23
267.38	166.06
267.596	18.6
267.812	59.56
268.028	82.09
268.244	10.41
268.46	96.43
268.676	8.36
268.892	-16.21
269.108	14.51
269.324	32.94
269.54	-8.02
269.756	86.19
269.972	49.32
270.188	61.61
270.403	16.55
270.619	57.51
270.835	121
271.051	108.71
271.267	24.75
271.483	26.79
271.698	71.85
271.914	96.43
272.13	61.61
272.346	108.71
272.562	20.65
272.777	86.19
272.993	102.57
273.209	32.94
273.425	55.47
273.64	45.23
273.856	65.71
274.072	45.23
274.287	28.84
274.503	55.47
274.719	65.71
274.934	123.05
275.15	49.32
275.366	57.51
275.581	-8.02
275.797	32.94
276.012	69.8
276.228	8.36
276.444	69.8
276.659	45.23
276.875	-44.88
277.09	24.75
277.306	88.23
277.521	102.57
277.737	49.32
277.952	94.38
278.168	41.13
278.383	63.66
278.599	39.08
278.814	135.34
279.03	-26.45
279.245	118.95
279.461	69.8
279.676	28.84
279.892	-3.93
280.107	43.18
280.322	45.23
280.538	147.62
280.753	2.22
280.969	61.61
281.184	65.71
281.399	6.31
281.615	8.36
281.83	-1.88
282.045	34.99
282.26	53.42
282.476	133.29
282.691	6.31
282.906	51.37
283.122	65.71
283.337	41.13
283.552	149.67
283.767	18.6
283.983	61.61
284.198	86.19
284.413	106.67
284.628	106.67
284.843	45.23
285.058	57.51
285.274	88.23
285.489	34.99
285.704	53.42
285.919	88.23
286.134	41.13
286.349	104.62
286.564	57.51
286.779	77.99
286.995	94.38
287.21	30.89
287.425	61.61
287.64	45.23
287.855	14.51
288.07	12.46
288.285	84.14
288.5	143.53
288.715	80.04
288.93	80.04
289.145	6.31
289.36	84.14
289.575	45.23
289.79	53.42
290.004	88.23
290.219	45.23
290.434	20.65
290.649	12.46
290.864	-24.4
291.079	53.42
291.294	37.03
291.509	49.32
291.724	47.27
291.938	80.04
292.153	16.55
292.368	51.37
292.583	94.38
292.798	88.23
293.012	80.04
293.227	118.95
293.442	65.71
293.657	41.13
293.871	102.57
294.086	90.28
294.301	73.9
294.516	73.9
294.73	53.42
294.945	45.23
295.16	102.57
295.374	69.8
295.589	41.13
295.804	90.28
296.018	77.99
296.233	-10.07
296.447	94.38
296.662	41.13
296.877	69.8
297.091	73.9
297.306	49.32
297.52	49.32
297.735	-8.02
297.949	4.27
298.164	75.95
298.378	84.14
298.593	43.18
298.807	127.14
299.022	53.42
299.236	65.71
299.451	34.99
299.665	4.27
299.88	55.47
300.094	135.34
300.309	84.14
300.523	59.56
300.737	55.47
300.952	106.67
301.166	51.37
301.381	28.84
301.595	84.14
301.809	51.37
302.024	61.61
302.238	37.03
302.452	80.04
302.667	41.13
302.881	108.71
303.095	88.23
303.309	61.61
303.524	53.42
303.738	20.65
303.952	20.65
304.166	94.38
304.381	6.31
304.595	137.38
304.809	-36.69
305.023	8.36
305.237	26.79
305.452	45.23
305.666	86.19
305.88	96.43
306.094	12.46
306.308	108.71
306.522	37.03
306.736	86.19
306.95	110.76
307.164	2.22
307.379	106.67
307.593	143.53
307.807	37.03
308.021	63.66
308.235	116.9
308.449	24.75
308.663	75.95
308.877	77.99
309.091	24.75
309.305	77.99
309.519	6.31
309.733	65.71
309.947	12.46
310.161	108.71
310.374	10.41
310.588	135.34
310.802	28.84
311.016	8.36
311.23	61.61
311.444	26.79
311.658	100.52
311.872	-44.88
312.085	123.05
312.299	102.57
312.513	151.72
312.727	80.04
312.941	82.09
313.154	67.75
313.368	63.66
313.582	127.14
313.796	41.13
314.009	51.37
314.223	106.67
314.437	61.61
314.651	110.76
314.864	102.57
315.078	47.27
315.292	47.27
315.505	102.57
315.719	96.43
315.933	61.61
316.146	77.99
316.36	18.6
316.573	55.47
316.787	37.03
317.001	63.66
317.214	77.99
317.428	24.75
317.641	106.67
317.855	51.37
318.068	51.37
318.282	39.08
318.495	84.14
318.709	57.51
318.922	125.1
319.136	90.28
319.349	139.43
319.563	32.94
319.776	30.89
319.99	63.66
320.203	139.43
320.417	100.52
320.63	22.7
320.843	82.09
321.057	102.57
321.27	73.9
321.483	108.71
321.697	73.9
321.91	63.66
322.124	30.89
322.337	77.99
322.55	61.61
322.763	106.67
322.977	123.05
323.19	67.75
323.403	80.04
323.617	100.52
323.83	65.71
324.043	-46.93
324.256	51.37
324.469	6.31
324.683	94.38
324.896	26.79
325.109	20.65
325.322	-8.02
325.535	4.27
325.748	100.52
325.962	55.47
326.175	77.99
326.388	39.08
326.601	161.96
326.814	28.84
327.027	63.66
327.24	157.86
327.453	24.75
327.666	37.03
327.879	137.38
328.092	-20.31
328.305	67.75
328.518	45.23
328.731	80.04
328.944	-3.93
329.157	63.66
329.37	112.81
329.583	90.28
329.796	106.67
330.009	77.99
330.222	137.38
330.435	86.19
330.648	65.71
330.861	43.18
331.073	102.57
331.286	77.99
331.499	153.77
331.712	65.71
331.925	112.81
332.138	110.76
332.35	131.24
332.563	-24.4
332.776	100.52
332.989	-8.02
333.202	75.95
333.414	8.36
333.627	0.17
333.84	77.99
334.053	98.47
334.265	12.46
334.478	63.66
334.691	55.47
334.903	45.23
335.116	45.23
335.329	118.95
335.541	55.47
335.754	108.71
335.966	92.33
336.179	55.47
336.392	53.42
336.604	16.55
336.817	125.1
337.029	65.71
337.242	47.27
337.454	112.81
337.667	88.23
337.88	75.95
338.092	32.94
338.305	94.38
338.517	67.75
338.729	53.42
338.942	135.34
339.154	57.51
339.367	51.37
339.579	82.09
339.792	16.55
340.004	59.56
340.217	127.14
340.429	82.09
340.641	18.6
340.854	18.6
341.066	90.28
341.278	153.77
341.491	71.85
341.703	69.8
341.915	28.84
342.128	65.71
342.34	67.75
342.552	96.43
342.764	168.1
342.977	8.36
343.189	88.23
343.401	131.24
343.613	127.14
343.826	84.14
344.038	63.66
344.25	53.42
344.462	-12.12
344.674	73.9
344.886	82.09
345.099	84.14
345.311	65.71
345.523	41.13
345.735	84.14
345.947	77.99
346.159	61.61
346.371	61.61
346.583	47.27
346.795	96.43
347.007	41.13
347.219	41.13
347.431	94.38
347.643	90.28
347.855	106.67
348.067	86.19
348.279	22.7
348.491	73.9
348.703	49.32
348.915	67.75
349.127	61.61
349.339	61.61
349.551	65.71
349.763	28.84
349.975	61.61
350.187	20.65
350.399	71.85
350.61	114.86
350.822	90.28
351.034	96.43
351.246	43.18
351.458	104.62
351.669	100.52
351.881	73.9
352.093	82.09
352.305	94.38
352.517	51.37
352.728	82.09
352.94	86.19
353.152	100.52
353.363	55.47
353.575	57.51
353.787	69.8
353.999	114.86
354.21	94.38
354.422	110.76
354.633	55.47
354.845	65.71
355.057	37.03
355.268	51.37
355.48	147.62
355.692	-30.55
355.903	61.61
356.115	26.79
356.326	-20.31
356.538	45.23
356.749	86.19
356.961	129.19
357.172	-8.02
357.384	43.18
357.595	180.39
357.807	53.42
358.018	90.28
358.23	121
358.441	133.29
358.653	86.19
358.864	49.32
359.075	123.05
359.287	47.27
359.498	92.33
359.709	57.51
359.921	39.08
360.132	-3.93
360.344	49.32
360.555	6.31
360.766	88.23
360.977	41.13
361.189	106.67
361.4	133.29
361.611	20.65
361.823	61.61
362.034	106.67
362.245	28.84
362.456	57.51
362.667	84.14
362.879	90.28
363.09	110.76
363.301	53.42
363.512	20.65
363.723	73.9
363.935	22.7
364.146	43.18
364.357	22.7
364.568	34.99
364.779	10.41
364.99	22.7
365.201	-36.69
365.412	28.84
365.623	63.66
365.834	94.38
366.045	129.19
366.256	65.71
366.467	77.99
366.678	118.95
366.889	110.76
367.1	61.61
367.311	59.56
367.522	24.75
367.733	104.62
367.944	112.81
368.155	28.84
368.366	71.85
368.577	69.8
368.788	145.58
368.999	127.14
369.209	127.14
369.42	129.19
369.631	102.57
369.842	98.47
370.053	131.24
370.264	84.14
370.474	8.36
370.685	61.61
370.896	90.28
371.107	55.47
371.317	133.29
371.528	69.8
371.739	116.9
371.95	63.66
372.16	135.34
372.371	51.37
372.582	37.03
372.792	131.24
373.003	57.51
373.214	75.95
373.424	127.14
373.635	2.22
373.846	112.81
374.056	37.03
374.267	30.89
374.477	102.57
374.688	114.86
374.898	57.51
375.109	59.56
375.319	125.1
375.53	104.62
375.74	73.9
375.951	49.32
376.161	108.71
376.372	41.13
376.582	24.75
376.793	88.23
377.003	6.31
377.214	65.71
377.424	90.28
377.635	110.76
377.845	100.52
378.055	135.34
378.266	59.56
378.476	71.85
378.686	49.32
378.897	96.43
379.107	71.85
379.317	69.8
379.528	127.14
379.738	90.28
379.948	106.67
380.158	14.51
380.369	37.03
380.579	92.33
380.789	20.65
380.999	69.8
381.21	96.43
381.42	39.08
381.63	90.28
381.84	65.71
382.05	110.76
382.261	145.58
382.471	123.05
382.681	59.56
382.891	69.8
383.101	100.52
383.311	51.37
383.521	172.2
383.731	22.7
383.941	32.94
384.151	61.61
384.361	67.75
384.571	49.32
384.781	186.54
384.991	155.82
385.201	57.51
385.411	141.48
385.621	43.18
385.831	61.61
386.041	61.61
386.251	26.79
386.461	24.75
386.671	84.14
386.881	2.22
387.091	43.18
387.301	149.67
387.511	16.55
387.72	77.99
387.93	37.03
388.14	102.57
388.35	88.23
388.56	114.86
388.769	149.67
388.979	69.8
389.189	90.28
389.399	116.9
389.609	125.1
389.818	71.85
390.028	137.38
390.238	30.89
390.447	88.23
390.657	102.57
390.867	102.57
391.076	45.23
391.286	151.72
391.496	121
391.705	112.81
391.915	131.24
392.125	75.95
392.334	69.8
392.544	73.9
392.753	67.75
392.963	20.65
393.172	121
393.382	86.19
393.591	192.68
393.801	86.19
394.01	129.19
394.22	123.05
394.429	106.67
394.639	143.53
394.848	92.33
395.058	116.9
395.267	34.99
395.477	149.67
395.686	94.38
395.895	127.14
396.105	155.82
396.314	176.3
396.524	71.85
396.733	118.95
396.942	139.43
397.152	94.38
397.361	209.06
397.57	32.94
397.78	151.72
397.989	145.58
398.198	94.38
398.407	112.81
398.617	92.33
398.826	143.53
399.035	82.09
399.244	118.95
399.453	49.32
399.663	164.01
399.872	98.47
400.081	137.38
400.29	147.62
400.499	149.67
400.708	69.8
400.917	143.53
401.127	53.42
401.336	184.49
401.545	170.15
401.754	116.9
401.963	237.74
402.172	139.43
402.381	75.95
402.59	127.14
402.799	123.05
403.008	157.86
403.217	110.76
403.426	225.45
403.635	164.01
403.844	176.3
404.053	71.85
404.262	121
404.471	233.64
404.68	151.72
404.888	88.23
405.097	141.48
405.306	147.62
405.515	141.48
405.724	96.43
405.933	135.34
406.142	159.91
406.35	223.4
406.559	207.02
406.768	157.86
406.977	159.91
407.185	237.74
407.394	221.35
407.603	247.97
407.812	288.93
408.02	282.79
408.229	237.74
408.438	315.56
408.646	176.3
408.855	237.74
409.064	215.21
409.272	282.79
409.481	325.8
409.69	290.98
409.898	272.55
410.107	305.32
410.315	411.81
410.524	329.89
410.733	317.61
410.941	331.94
411.15	344.23
411.358	428.2
411.567	467.11
411.775	399.52
411.984	387.24
412.192	452.77
412.401	409.76
412.609	463.01
412.818	489.64
413.026	497.83
413.234	493.73
413.443	479.4
413.651	555.17
413.86	536.74
414.068	575.65
414.276	630.95
414.485	536.74
414.693	700.58
414.901	637.09
415.11	686.24
415.318	684.19
415.526	733.34
415.734	741.54
415.943	702.62
416.151	788.64
416.359	731.3
416.567	753.82
416.776	802.97
416.984	909.47
417.192	1001.63
417.4	956.57
417.608	852.13
417.817	909.47
418.025	1013.92
418.233	1018.01
418.441	987.29
418.649	999.58
418.857	1165.46
419.065	1165.46
419.273	1214.62
419.481	1175.7
419.689	1300.63
419.897	1403.03
420.105	1360.02
420.313	1392.79
420.521	1538.2
420.729	1564.82
420.937	1593.49
421.145	1710.22
421.353	1650.83
421.561	1765.52
421.769	1835.15
421.977	1826.96
422.185	1839.25
422.393	1933.45
422.601	2101.39
422.809	2025.61
423.017	2023.56
423.224	2150.54
423.432	2250.89
423.64	2224.26
423.848	2474.12
424.056	2367.62
424.263	2541.7
424.471	2513.03
424.679	2637.95
424.887	2754.69
425.094	2738.3
425.302	2904.19
425.51	2990.21
425.718	3033.21
425.925	2955.39
426.133	3319.93
426.341	3364.98
426.548	3367.03
426.756	3526.77
426.964	3598.45
427.171	3678.32
427.379	3801.2
427.586	3864.69
427.794	4083.82
428.001	4135.02
428.209	4333.67
428.417	4368.49
428.624	4585.57
428.832	4663.4
429.039	4644.96
429.247	4608.1
429.454	5062.75
429.662	5267.55
429.869	5001.31
430.076	5240.92
430.284	5163.1
430.491	5679.19
430.699	5771.35
430.906	5722.2
431.114	5812.31
431.321	6033.49
431.528	6068.3
431.736	6748.23
431.943	6692.93
432.15	6705.22
432.358	6791.24
432.565	7086.14
432.772	7008.32
432.979	7288.89
433.187	7481.4
433.394	7546.94
433.601	8130.61
433.808	7966.77
434.016	8030.26
434.223	8306.73
434.43	8884.26
434.637	8804.39
434.844	9326.62
435.052	9472.03
435.259	9281.57
435.466	9562.14
435.673	9392.16
435.88	10070.03
436.087	10491.91
436.294	10522.63
436.501	10301.45
436.708	10475.53
436.915	10833.93
437.122	11114.5
437.329	11315.2
437.537	11374.59
437.743	11851.77
437.95	11769.85
438.157	12224.5
438.364	12761.06
438.571	12668.91
438.778	12836.84
438.985	14053.33
439.192	13524.96
439.399	13725.66
439.606	13545.44
439.813	14284.75
440.02	15318.98
440.227	15040.45
440.433	14804.94
440.64	15136.71
440.847	15083.46
441.054	15433.66
441.261	16418.74
441.467	16138.16
441.674	16576.43
441.881	17168.29
442.088	16996.26
442.294	16828.33
442.501	17809.31
442.708	17536.93
442.914	18415.51
443.121	19109.77
443.328	18605.97
443.534	19857.28
443.741	19414.91
443.948	19328.9
444.154	20748.14
444.361	20596.59
444.568	20580.21
444.774	20565.87
444.981	20746.09
445.187	21428.07
445.394	22718.29
445.6	22056.79
445.807	24434.49
446.013	23258.95
446.22	23729.98
446.426	24037.18
446.633	24839.98
446.839	25229.1
447.046	24364.85
447.252	25556.77
447.459	25794.34
447.665	25366.31
447.871	27119.37
448.078	27907.84
448.284	26545.94
448.491	27137.8
448.697	28387.07
448.903	28370.68
449.11	28743.41
449.316	28206.84
449.522	28514.04
449.728	29542.12
449.935	29734.63
450.141	29533.93
450.347	30340.83
450.553	29044.46
450.76	29843.17
450.966	30250.72
451.172	30394.07
451.378	30922.45
451.584	30056.16
451.791	30914.26
451.997	30918.35
452.203	31387.34
452.409	31348.43
452.615	31598.28
452.821	30045.92
453.027	29859.56
453.233	31299.28
453.44	30086.88
453.646	30580.44
453.852	30521.05
454.058	30848.72
454.264	29845.22
454.47	30312.16
454.676	29714.15
454.882	30488.28
455.088	28223.23
455.294	28290.81
455.5	29126.38
455.705	29089.52
455.911	27795.2
456.117	27645.7
456.323	26789.65
456.529	25782.05
456.735	26277.66
456.941	25982.75
457.147	25626.4
457.352	24706.87
457.558	24459.06
457.764	24491.83
457.97	23854.91
458.176	23236.42
458.381	23586.63
458.587	22415.19
458.793	22134.62
458.999	20969.32
459.204	22695.76
459.41	21909.34
459.616	20756.33
459.821	20678.51
460.027	20467.57
460.233	19992.44
460.438	19146.63
460.644	19296.13
460.85	18196.37
461.055	18173.85
461.261	18157.46
461.466	17020.84
461.672	16476.08
461.878	17368.99
462.083	16242.61
462.289	16326.58
462.494	15742.91
462.7	15486.91
462.905	14893
463.111	15558.59
463.316	15470.53
463.522	14917.58
463.727	14880.71
463.932	14983.11
464.138	14729.16
464.343	14847.94
464.549	14415.82
464.754	14897.1
464.959	14860.23
465.165	14823.37
465.37	14211.03
465.575	13553.63
465.781	14348.24
465.986	14237.65
466.191	13643.74
466.397	13672.41
466.602	13029.35
466.807	13410.27
467.012	13297.63
467.218	13291.49
467.423	13203.43
467.628	13242.34
467.833	13897.69
468.038	13389.79
468.244	13242.34
468.449	13518.81
468.654	12990.44
468.859	13049.83
469.064	13008.87
469.269	12287.98
469.474	12482.54
469.679	12541.93
469.885	12212.21
470.09	12316.65
470.295	12382.19
470.5	12113.91
470.705	12109.81
470.91	11694.07
471.115	11845.62
471.32	12054.51
471.525	11728.89
471.73	11722.74
471.935	11444.22
472.139	11390.97
472.344	11296.77
472.549	11139.07
472.754	10702.86
472.959	10991.62
473.164	10698.76
473.369	10571.79
473.574	10891.27
473.778	10639.37
473.983	10573.83
474.188	10612.74
474.393	10332.17
474.598	10233.87
474.802	10092.56
475.007	10000.4
475.212	9918.48
475.417	9764.89
475.621	9947.15
475.826	9510.94
476.031	9627.67
476.235	9263.13
476.44	9455.64
476.645	9228.32
476.849	9170.97
477.054	9216.03
477.259	9101.34
477.463	9013.28
477.668	8642.6
477.872	8962.08
478.077	9013.28
478.282	8511.53
478.486	8572.97
478.691	8605.74
478.895	8407.08
479.1	8413.23
479.304	8319.02
479.509	8153.13
479.713	8347.69
479.918	8212.53
480.122	8036.4
480.326	8300.59
480.531	8216.62
480.735	8011.82
480.94	8247.34
481.144	8382.51
481.348	7782.45
481.553	8173.61
481.757	7776.31
481.961	8003.63
482.166	7964.72
482.37	7870.51
482.574	7747.64
482.778	7948.34
482.983	8040.5
483.187	7766.07
483.391	7940.15
483.595	7884.85
483.8	7651.38
484.004	7872.56
484.208	7936.05
484.412	7860.27
484.616	7956.53
484.821	7880.75
485.025	7663.67
485.229	7983.15
485.433	7854.13
485.637	7958.58
485.841	7639.09
486.045	7790.64
486.249	7964.72
486.453	7721.01
486.657	7837.75
486.861	7974.96
487.065	7696.44
487.269	8022.06
487.473	7600.18
487.677	7890.99
487.881	7997.49
488.085	7934
488.289	7798.84
488.493	7839.8
488.697	7757.88
488.901	7835.7
489.105	7944.24
489.309	7944.24
489.512	7934
489.716	7919.67
489.92	7858.23
490.124	7972.91
490.328	8204.33
490.531	8112.17
490.735	8007.73
490.939	8095.79
491.143	7981.1
491.346	8079.41
491.55	8167.47
491.754	8118.32
491.958	8310.83
492.161	8124.46
492.365	8355.88
492.569	8271.92
492.772	8435.75
492.976	8425.51
493.18	8216.62
493.383	8605.74
493.587	8704.04
493.79	8765.48
493.994	8648.74
494.197	8593.45
494.401	8822.82
494.605	8826.92
494.808	8826.92
495.012	8951.84
495.215	8869.92
495.419	9117.73
495.622	9021.47
495.825	9236.51
496.029	9209.89
496.232	9316.38
496.436	9396.25
496.639	9541.66
496.843	9580.57
497.046	9740.31
497.249	9895.96
497.453	9949.2
497.656	10022.93
497.859	10012.69
498.063	10260.49
498.266	10045.46
498.469	10338.32
498.673	10483.72
498.876	10721.29
499.079	10709
499.282	10612.74
499.485	11051.01
499.689	11186.18
499.892	11341.82
500.095	11255.81
500.298	11458.56
500.501	11198.46
500.705	11620.35
500.908	11812.85
501.111	11950.07
501.314	12124.15
501.517	12431.34
501.72	12208.11
501.923	12558.32
502.126	12750.82
502.329	12840.93
502.532	12799.98
502.735	12888.04
502.938	12974.05
503.141	13049.83
503.344	13223.9
503.547	13266.91
503.75	13592.54
503.953	13828.06
504.156	14079.96
504.359	14092.24
504.562	14467.02
504.765	14397.39
504.968	14811.08
505.17	14868.42
505.373	14854.09
505.576	15003.59
505.779	15220.67
505.982	15235.01
506.185	15642.56
506.387	15364.03
506.59	15759.29
506.793	16125.88
506.996	16093.11
507.198	16533.42
507.401	16476.08
507.604	16785.32
507.807	17166.24
508.009	17063.85
508.212	17229.73
508.415	17428.38
508.617	17659.81
508.82	17956.76
509.022	17864.6
509.225	18175.89
509.428	18501.52
509.63	18538.38
509.833	18673.55
510.035	19103.62
510.238	19349.38
510.44	19099.53
510.643	19320.71
510.845	19588.99
511.048	19582.85
511.25	19986.3
511.453	20098.94
511.655	20696.94
511.858	20338.55
512.06	20817.77
512.262	21051.24
512.465	21198.7
512.667	21499.75
512.87	21589.86
513.072	21667.68
513.274	22060.89
513.477	22208.34
513.679	22294.36
513.881	22781.78
514.084	23043.92
514.286	22976.33
514.488	23191.37
514.69	23781.18
514.893	24121.15
515.095	23877.44
515.297	24491.83
515.499	24401.72
515.701	25007.92
515.904	25104.17
516.106	24893.23
516.308	25313.06
516.51	25704.23
516.712	25499.43
516.914	26097.44
517.116	26355.48
517.318	26453.78
517.52	26834.71
517.722	26924.82
517.925	27156.24
518.127	27641.6
518.329	27817.73
518.531	27891.46
518.733	28266.24
518.935	28276.48
519.136	28507.9
519.338	29071.09
519.54	29138.67
519.742	29701.86
519.944	29685.48
520.146	30140.13
520.348	30379.74
520.55	30260.96
520.752	30465.75
520.954	31174.35
521.155	30834.39
521.357	31608.52
521.559	31829.7
521.761	32040.64
521.963	32151.23
522.164	32442.04
522.366	32677.56
522.568	32655.03
522.77	32771.77
522.971	33496.75
523.173	33152.69
523.375	33619.63
523.576	33812.13
523.778	33867.43
523.98	34426.53
524.181	34350.75
524.383	34459.29
524.584	34909.85
524.786	34944.66
524.988	35186.32
525.189	35245.71
525.391	35712.65
525.592	35880.58
525.794	35952.26
525.995	36384.38
526.197	36273.79
526.398	36318.85
526.6	36597.37
526.801	36787.83
527.003	36947.57
527.204	36923
527.406	37213.81
527.607	37402.22
527.808	37508.72
528.01	37062.26
528.211	37619.31
528.412	38282.85
528.614	37916.26
528.815	37828.2
529.016	38704.73
529.218	37973.61
529.419	38364.77
529.62	38522.46
529.822	38512.22
530.023	38397.54
530.224	38565.47
530.425	38631.01
530.626	38665.82
530.828	38481.5
531.029	39550.54
531.23	39112.28
531.431	38901.34
531.632	39294.55
531.833	39667.28
532.035	39411.28
532.236	38962.78
532.437	39687.76
532.638	39482.96
532.839	40025.67
533.04	40013.38
533.241	39605.84
533.442	40173.13
533.643	40164.93
533.844	40007.24
534.045	39837.26
534.246	39491.15
534.447	39970.38
534.648	39679.57
534.849	39788.11
535.05	39929.42
535.251	39941.71
535.451	39618.13
535.652	40384.07
535.853	40089.16
536.054	39964.23
536.255	40285.76
536.456	39923.27
536.657	40615.49
536.857	40212.04
537.058	39556.69
537.259	40269.38
537.46	40035.91
537.66	40203.85
537.861	40193.61
538.062	40078.92
538.263	40468.03
538.463	40189.51
538.664	40066.63
538.865	40416.83
539.065	40695.36
539.266	40056.39
539.466	40089.16
539.667	39626.32
539.868	40400.45
540.068	39802.44
540.269	40136.26
540.469	40431.17
540.67	40113.73
540.87	39755.34
541.071	40074.82
541.271	40615.49
541.472	39839.31
541.672	39941.71
541.873	39818.83
542.073	39681.61
542.274	40130.12
542.474	39771.72
542.675	39734.86
542.875	40615.49
543.075	40146.5
543.276	39337.55
543.476	40205.89
543.676	39738.96
543.877	39892.55
544.077	39964.23
544.277	40128.07
544.478	39806.54
544.678	39581.26
544.878	39736.91
545.078	39980.62
545.279	39603.79
545.479	39628.37
545.679	39796.3
545.879	39841.35
546.079	39984.71
546.28	39745.1
546.48	39149.14
546.68	39827.02
546.88	39849.55
547.08	39810.64
547.28	39505.49
547.48	39708.24
547.68	39908.94
547.88	39763.53
548.081	39960.14
548.281	39433.81
548.481	39681.61
548.681	39966.28
548.881	39542.35
549.081	39704.14
549.28	39476.82
549.48	39964.23
549.68	39884.36
549.88	40136.26
550.08	39433.81
550.28	39409.23
550.48	39284.31
550.68	39953.99
550.88	39413.33
551.08	39298.64
551.279	39140.95
551.479	39003.74
551.679	39493.2
551.879	39321.17
552.079	39654.99
552.278	39198.29
552.478	39343.7
552.678	39302.74
552.878	39493.2
553.077	39026.26
553.277	39030.36
553.477	39661.13
553.676	39179.86
553.876	39040.6
554.076	38917.72
554.275	38936.15
554.475	38995.54
554.674	39030.36
554.874	39108.18
555.074	38719.07
555.273	38585.95
555.473	38741.6
555.672	38688.35
555.872	38606.43
556.071	38551.13
556.271	39104.09
556.47	38323.81
556.67	38610.53
556.869	38594.14
557.068	38504.03
557.268	38264.42
557.467	38168.16
557.667	38499.94
557.866	38108.77
558.065	37906.02
558.265	38196.84
558.464	37787.24
558.663	38141.54
558.863	37553.77
559.062	38438.5
559.261	37504.62
559.461	38381.15
559.66	37756.52
559.859	37676.65
560.058	37627.5
560.258	37451.38
560.457	37322.35
560.656	37631.6
560.855	36970.1
561.054	37600.88
561.253	36892.28
561.453	37209.71
561.652	37412.46
561.851	37508.72
562.05	36908.66
562.249	37049.97
562.448	37045.88
562.647	36724.35
562.846	36501.12
563.045	36648.57
563.244	36454.01
563.443	36701.82
563.642	36152.96
563.841	36583.04
564.04	36073.09
564.239	36503.17
564.438	35921.54
564.637	36038.28
564.836	35769.99
565.035	35415.69
565.234	35835.53
565.432	35622.54
565.631	35405.45
565.83	35741.32
566.029	35534.48
566.228	35378.83
566.427	35053.2
566.625	34930.33
566.824	34836.12
567.023	35118.74
567.222	34526.88
567.42	34877.08
567.619	34334.37
567.818	34512.54
568.016	34315.94
568.215	35124.88
568.414	34537.12
568.612	34657.95
568.811	33887.91
569.01	33849
569.208	33693.35
569.407	34152.1
569.605	33842.85
569.804	34057.89
570.002	33398.45
570.201	33500.84
570.4	33269.42
570.598	33420.97
570.797	33488.56
570.995	33162.93
571.193	33042.1
571.392	32962.23
571.59	33001.14
571.789	33062.58
571.987	32827.06
572.186	32315.07
572.384	32622.26
572.582	32573.11
572.781	32483
572.979	32040.64
573.177	32130.75
573.376	32245.44
573.574	31708.87
573.772	32247.49
573.971	31987.39
574.169	31610.57
574.367	31557.32
574.565	31667.91
574.763	31508.17
574.962	31489.74
575.16	31129.3
575.358	31123.15
575.556	31104.72
575.754	31307.47
575.952	30895.83
576.151	31139.54
576.349	30353.12
576.547	30607.06
576.745	30631.64
576.943	30340.83
577.141	30480.09
577.339	30568.15
577.537	30377.69
577.735	30621.4
577.933	30103.26
578.131	30277.34
578.329	30189.28
578.527	29847.27
578.725	29632.23
578.923	29834.98
579.121	29519.59
579.319	29640.42
579.516	29656.81
579.714	29337.32
579.912	29380.33
580.11	29128.43
580.308	29148.91
580.506	29118.19
580.704	28649.21
580.901	29073.14
581.099	29001.46
581.297	28618.49
581.495	28737.27
581.692	28747.51
581.89	28395.26
582.088	28608.25
582.285	28352.25
582.483	28323.58
582.681	28376.83
582.878	28235.52
583.076	28178.17
583.274	28065.53
583.471	27860.74
583.669	28038.91
583.866	27563.78
584.064	27729.67
584.262	27557.64
584.459	27889.41
584.657	27522.82
584.854	27451.14
585.052	26971.92
585.249	27029.26
585.447	27574.02
585.644	27080.46
585.841	27025.17
586.039	27361.03
586.236	26709.78
586.434	26902.29
586.631	26541.85
586.828	26806.03
587.026	26406.68
587.223	26412.82
587.42	26314.52
587.618	26291.99
587.815	25835.3
588.012	26081.05
588.21	26117.92
588.407	26302.23
588.604	25943.84
588.801	25806.62
588.999	25704.23
589.196	25958.17
589.393	25401.13
589.59	26050.33
589.787	25343.78
589.984	25607.97
590.182	25026.35
590.379	25616.16
590.576	25198.38
590.773	25044.78
590.97	25104.17
591.167	25098.03
591.364	24993.58
591.561	24815.41
591.758	24708.91
591.955	24713.01
592.152	25003.82
592.349	24426.29
592.546	24829.74
592.743	24616.76
592.94	24049.47
593.137	24520.5
593.334	24512.31
593.531	24289.08
593.727	24139.58
593.924	24055.61
594.121	23854.91
594.318	24096.57
594.515	23639.87
594.712	23684.93
594.908	23531.33
595.105	23519.04
595.302	23539.52
595.499	23457.6
595.696	23498.56
595.892	22990.67
596.089	23349.06
596.286	23428.93
596.482	23267.14
596.679	23086.92
596.876	23269.19
597.072	22873.93
597.269	22923.08
597.466	22783.82
597.662	22896.46
597.859	22992.72
598.055	22562.64
598.252	22394.71
598.448	22499.16
598.645	22282.07
598.841	22128.47
599.038	22450
599.234	22284.12
599.431	21952.35
599.627	22083.42
599.824	22204.25
600.02	22155.1
600.217	21978.97
600.413	22142.81
600.609	21778.27
600.806	21651.3
601.002	21765.98
601.198	21372.77
601.395	21321.57
601.591	21325.67
601.787	21380.96
601.984	21471.08
602.18	21528.42
602.376	21163.88
602.572	21387.11
602.769	21260.13
602.965	20862.83
603.161	21229.41
603.357	20930.41
603.553	20983.66
603.75	20995.95
603.946	20729.71
604.142	20592.5
604.338	20168.57
604.534	21061.48
604.73	20221.81
604.926	20197.24
605.122	20279.16
605.318	20285.3
605.514	20389.75
605.71	20094.84
605.906	19912.57
606.102	19801.98
606.298	20273.01
606.494	19885.95
606.69	20021.11
606.886	20031.35
607.082	19857.28
607.278	19828.6
607.474	19554.18
607.67	19505.03
607.866	19289.99
608.062	19847.04
608.257	19296.13
608.453	19242.89
608.649	19447.68
608.845	19300.23
609.041	19255.17
609.236	19439.49
609.432	19003.27
609.628	19263.36
609.824	19046.28
610.019	19046.28
610.215	18964.36
610.411	18941.83
610.606	18984.84
610.802	18751.37
610.998	18710.41
611.193	18767.76
611.389	18513.81
611.584	18573.2
611.78	18706.32
611.976	18519.95
612.171	18468.75
612.367	18679.69
612.562	18474.9
612.758	18249.62
612.953	18249.62
613.149	18399.12
613.344	18124.69
613.539	18552.72
613.735	18515.86
613.93	18276.24
614.126	18071.45
614.321	18458.51
614.517	17895.32
614.712	18018.2
614.907	17954.71
615.103	18370.45
615.298	18124.69
615.493	18087.83
615.688	17698.72
615.884	18026.39
616.079	17782.68
616.274	17909.66
616.47	17721.24
616.665	17817.5
616.86	17477.54
617.055	17557.41
617.25	17637.28
617.445	17702.81
617.641	17215.4
617.836	17522.59
618.031	16965.54
618.226	17260.45
618.421	17285.03
618.616	17395.62
618.811	17246.12
619.006	17258.4
619.201	16621.49
619.396	17176.48
619.591	16826.28
619.786	16699.31
619.981	16617.39
620.176	16910.25
620.371	16576.43
620.566	16607.15
620.761	16553.9
620.956	16633.77
621.151	15929.27
621.346	16228.28
621.541	16082.87
621.735	16539.57
621.93	15959.99
622.125	15892.41
622.32	15654.84
622.515	15777.72
622.709	15712.19
622.904	15583.16
623.099	15812.54
623.294	15697.85
623.488	15476.67
623.683	15384.51
623.878	15163.33
624.072	15347.65
624.267	14843.85
624.462	14876.62
624.656	14964.68
624.851	14970.82
625.046	14753.74
625.24	14817.22
625.435	14708.68
625.629	14702.54
625.824	14272.46
626.018	14393.3
626.213	14034.9
626.407	14401.49
626.602	14079.96
626.796	14186.45
626.991	14219.22
627.185	13899.73
627.38	13764.57
627.574	13742.04
627.768	13703.13
627.963	13631.45
628.157	13524.96
628.352	13625.31
628.546	13322.21
628.74	13361.12
628.935	13223.9
629.129	13248.48
629.323	13168.61
629.517	13043.68
629.712	12867.56
629.906	12879.85
630.1	12824.55
630.294	12787.69
630.489	12742.63
630.683	12574.7
630.877	12525.55
631.071	12527.6
631.265	12570.6
631.459	12169.2
631.653	12439.53
631.848	12068.85
632.042	12185.58
632.236	12230.64
632.43	11839.48
632.624	12238.83
632.818	11945.97
633.012	11878.39
633.206	11653.11
633.4	11812.85
633.594	11628.54
633.788	11692.02
633.982	11548.67
634.176	11542.52
634.369	11345.92
634.563	11436.03
634.757	11393.02
634.951	11487.23
635.145	11143.17
635.339	11313.15
635.533	11032.58
635.726	11151.36
635.92	10889.22
636.114	10936.32
636.308	10766.34
636.501	10872.84
636.695	10842.12
636.889	10741.77
637.083	10604.55
637.276	10610.7
637.47	10424.33
637.664	10154
637.857	10414.09
638.051	10444.81
638.244	10186.77
638.438	10076.18
638.632	10176.53
638.825	9912.34
639.019	9963.54
639.212	10047.51
639.406	9947.15
639.599	9818.13
639.793	9855
639.986	9566.23
640.18	9814.04
640.373	9711.64
640.567	9480.22
640.76	9416.73
640.954	9527.32
641.147	9363.48
641.34	9314.33
641.534	9252.89
641.727	9195.55
641.92	9175.07
642.114	9332.76
642.307	9213.98
642.5	9058.34
642.694	8941.6
642.887	8816.68
643.08	8966.18
643.273	8921.12
643.467	8900.64
643.66	8667.17
643.853	8658.98
644.046	8611.88
644.239	8615.98
644.432	8570.92
644.626	8523.82
644.819	8316.97
645.012	8509.48
645.205	8417.32
645.398	8489
645.591	8216.62
645.784	8314.92
645.977	7962.67
646.17	8106.03
646.363	8007.73
646.556	7782.45
646.749	7868.47
646.942	8081.46
647.135	7768.12
647.328	7700.53
647.521	7899.19
647.714	7655.48
647.907	7635
648.099	7690.29
648.292	7813.17
648.485	7475.26
648.678	7499.83
648.871	7585.85
649.064	7352.38
649.256	7565.37
649.449	7327.8
649.642	7401.53
649.835	7254.08
650.027	7280.7
650.22	7362.62
650.413	7186.49
650.605	7237.69
650.798	7147.58
650.991	7002.18
651.183	7043.14
651.376	7137.34
651.568	7063.61
651.761	6793.28
651.954	6787.14
652.146	6805.57
652.339	6768.71
652.531	6844.48
652.724	6719.56
652.916	6619.21
653.109	6740.04
653.301	6643.78
653.494	6785.09
653.686	6492.23
653.879	6537.29
654.071	6525
654.263	6383.69
654.456	6389.83
654.648	6326.35
654.84	6289.48
655.033	6180.94
655.225	6293.58
655.417	6307.91
655.61	6074.45
655.802	6176.84
655.994	6090.83
656.186	5869.65
656.379	6148.17
656.571	6088.78
656.763	5916.75
656.955	5994.58
657.148	6148.17
657.34	5904.46
657.532	5951.57
657.724	5883.98
657.916	6111.31
658.108	5990.48
658.3	5722.2
658.492	5787.73
658.684	5648.47
658.876	5664.85
659.068	5759.06
659.26	5584.98
659.452	5673.04
659.644	5595.22
659.836	5673.04
660.028	5544.02
660.22	5507.16
660.412	5476.44
660.604	5343.32
660.796	5394.52
660.988	5562.45
661.18	5316.7
661.372	5267.55
661.563	5296.22
661.755	5204.06
661.947	5175.39
662.139	5263.45
662.331	5138.52
662.522	5144.67
662.714	5048.41
662.906	5072.99
663.097	5068.89
663.289	4913.25
663.481	4898.91
663.673	5107.8
663.864	5068.89
664.056	4892.77
664.247	5015.65
664.439	4874.34
664.631	4868.19
664.822	5021.79
665.014	5107.8
665.205	4714.59
665.397	4991.07
665.588	4730.98
665.78	4796.51
665.971	4773.99
666.163	4780.13
666.354	4616.29
666.546	4753.51
666.737	4726.88
666.929	4655.2
667.12	4581.48
667.311	4767.84
667.503	4558.95
667.694	4489.32
667.885	4604
668.077	4487.27
668.268	4561
668.459	4468.84
668.651	4571.24
668.842	4579.43
669.033	4438.12
669.224	4499.56
669.416	4517.99
669.607	4352.1
669.798	4231.27
669.989	4491.37
670.18	4343.91
670.371	4321.38
670.563	4175.98
670.754	4243.56
670.945	4255.85
671.136	4245.61
671.327	4333.67
671.518	4249.71
671.709	4210.79
671.9	4423.78
672.091	4200.55
672.282	4192.36
672.473	4204.65
672.664	4313.19
672.855	4210.79
673.046	4212.84
673.237	4155.5
673.428	4245.61
673.619	4128.88
673.809	4075.63
674	4079.72
674.191	4157.55
674.382	4167.79
674.573	4132.97
674.764	4061.29
674.954	4182.12
675.145	4108.4
675.336	4151.4
675.527	4106.35
675.717	4096.11
675.908	4049
676.099	3944.56
676.289	4182.12
676.48	4085.87
676.671	4053.1
676.861	4010.09
677.052	3989.61
677.243	3926.13
677.433	3981.42
677.624	4112.49
677.814	3825.78
678.005	4008.05
678.195	4053.1
678.386	4022.38
678.576	3897.46
678.767	3872.88
678.957	3940.46
679.148	3985.52
679.338	3854.45
679.529	4089.96
679.719	3907.7
679.909	4067.44
680.1	3940.46
680.29	3919.98
680.481	3915.89
680.671	3985.52
680.861	4036.72
681.052	4063.34
681.242	4038.77
681.432	3981.42
681.622	3842.16
681.813	3985.52
682.003	3833.97
682.193	3915.89
682.383	3870.83
682.573	3950.7
682.764	4034.67
682.954	3917.93
683.144	3928.17
683.334	3917.93
683.524	3862.64
683.714	3936.37
683.904	3860.59
684.094	3883.12
684.284	4028.53
684.474	3909.74
684.664	3760.24
684.854	3973.23
685.044	3936.37
685.234	3836.02
685.424	3840.11
685.614	3743.86
685.804	3870.83
685.994	3731.57
686.184	3874.93
686.374	3668.08
686.564	3809.39
686.753	3788.91
686.943	3838.06
687.133	3813.49
687.323	3704.95
687.513	3768.43
687.702	3659.89
687.892	3629.17
688.082	3801.2
688.272	3793.01
688.461	3571.83
688.651	3657.84
688.841	3414.13
689.03	3561.59
689.22	3571.83
689.41	3711.09
689.599	3618.93
689.789	3651.7
689.979	3481.72
690.168	3551.35
690.358	3500.15
690.547	3549.3
690.737	3481.72
690.926	3541.11
691.116	3461.24
691.305	3428.47
691.495	3524.72
691.684	3436.66
691.874	3440.76
692.063	3575.92
692.252	3457.14
692.442	3444.85
692.631	3463.29
692.82	3389.56
693.01	3235.96
693.199	3254.39
693.388	3309.69
693.578	3348.6
693.767	3330.17
693.956	3336.31
694.146	3258.49
694.335	3276.92
694.524	3334.26
694.713	3412.09
694.902	3143.8
695.092	3301.5
695.281	3102.84
695.47	3416.18
695.659	3082.36
695.848	3285.11
696.037	3186.81
696.226	3231.87
696.415	3328.12
696.604	3305.59
696.793	3190.91
696.982	3362.94
697.171	3217.53
697.36	3113.08
697.549	3158.14
697.738	3133.56
697.927	3324.02
698.116	3147.9
698.305	3186.81
698.494	3149.95
698.683	3201.15
698.872	3186.81
699.061	3229.82
699.25	3139.71
699.438	3252.35
699.627	3143.8
699.816	3219.58
700.005	3100.8
700.193	3129.47
700.382	3240.06
700.571	3088.51
700.76	3213.43
700.948	3223.67
701.137	3149.95
701.326	3250.3
701.514	3205.24
701.703	3111.04
701.892	3113.08
702.08	3176.57
702.269	3133.56
702.457	3235.96
702.646	3195
702.834	3100.8
703.023	3127.42
703.212	3195
703.4	3160.19
703.589	3070.08
703.777	3219.58
703.965	3092.6
704.154	3104.89
704.342	3252.35
704.531	3192.95
704.719	3246.2
704.907	3151.99
705.096	3098.75
705.284	3039.36
705.472	3170.43
705.661	3199.1
705.849	3197.05
706.037	3252.35
706.226	3127.42
706.414	3276.92
706.602	3149.95
706.79	3190.91
706.979	3225.72
707.167	3115.13
707.355	3215.48
707.543	3223.67
707.731	3295.35
707.919	3276.92
708.107	3256.44
708.296	3100.8
708.484	3278.97
708.672	3289.21
708.86	3352.7
709.048	3266.68
709.236	3235.96
709.424	3307.64
709.612	3328.12
709.8	3215.48
709.988	3242.11
710.176	3172.47
710.364	3227.77
710.551	3094.65
710.739	3287.16
710.927	3205.24
711.115	3231.87
711.303	3221.63
711.491	3362.94
711.679	3272.82
711.866	3305.59
712.054	3195
712.242	3289.21
712.43	3383.42
712.617	3272.82
712.805	3223.67
712.993	3364.98
713.181	3215.48
713.368	3242.11
713.556	3166.33
713.744	3307.64
713.931	3334.26
714.119	3199.1
714.306	3305.59
714.494	3301.5
714.682	3229.82
714.869	3190.91
715.057	3100.8
715.244	3170.43
715.432	3383.42
715.619	3412.09
715.807	3250.3
715.994	3283.06
716.182	3305.59
716.369	3350.65
716.556	3270.78
716.744	3238.01
716.931	3319.93
717.119	3321.98
717.306	3317.88
717.493	3178.62
717.681	3305.59
717.868	3340.41
718.055	3293.3
718.242	3289.21
718.43	3416.18
718.617	3338.36
718.804	3405.94
718.991	3336.31
719.179	3233.91
719.366	3299.45
719.553	3336.31
719.74	3289.21
719.927	3403.89
720.114	3186.81
720.301	3270.78
720.488	3154.04
720.676	3211.39
720.863	3297.4
721.05	3321.98
721.237	3321.98
721.424	3403.89
721.611	3293.3
721.798	3305.59
721.985	3211.39
722.172	3278.97
722.358	3217.53
722.545	3381.37
722.732	3281.02
722.919	3321.98
723.106	3405.94
723.293	3332.22
723.48	3344.5
723.667	3293.3
723.853	3336.31
724.04	3319.93
724.227	3270.78
724.414	3281.02
724.6	3278.97
724.787	3346.55
724.974	3272.82
725.161	3338.36
725.347	3268.73
725.534	3328.12
725.72	3278.97
725.907	3385.46
726.094	3375.22
726.28	3281.02
726.467	3272.82
726.653	3182.71
726.84	3248.25
727.027	3491.96
727.213	3258.49
727.4	3246.2
727.586	3184.76
727.773	3276.92
727.959	3328.12
728.145	3328.12
728.332	3283.06
728.518	3250.3
728.705	3326.07
728.891	3305.59
729.077	3311.74
729.264	3143.8
729.45	3319.93
729.636	3321.98
729.823	3076.22
730.009	3217.53
730.195	3215.48
730.382	3164.28
730.568	3283.06
730.754	3197.05
730.94	3141.75
731.126	3190.91
731.313	3266.68
731.499	3326.07
731.685	3301.5
731.871	3219.58
732.057	3305.59
732.243	3225.72
732.429	3197.05
732.615	3190.91
732.801	3266.68
732.987	3055.74
733.173	3293.3
733.359	3289.21
733.545	3141.75
733.731	3166.33
733.917	3139.71
734.103	3215.48
734.289	3188.86
734.475	3186.81
734.661	3100.8
734.847	3195
735.033	3055.74
735.219	3264.63
735.404	3262.58
735.59	3088.51
735.776	3170.43
735.962	3115.13
736.148	3166.33
736.333	3221.63
736.519	3129.47
736.705	3039.36
736.89	3188.86
737.076	3065.98
737.262	3188.86
737.447	3043.45
737.633	3141.75
737.819	3047.55
738.004	3047.55
738.19	3053.69
738.375	3014.78
738.561	3127.42
738.747	2973.82
738.932	2924.67
739.118	2996.35
739.303	3084.41
739.489	3018.88
739.674	2949.25
739.859	3070.08
740.045	3074.17
740.23	3035.26
740.416	2986.11
740.601	2904.19
740.786	2979.97
740.972	2932.86
741.157	3006.59
741.342	2850.94
741.528	2879.61
741.713	2957.44
741.898	2900.09
742.084	2928.77
742.269	2852.99
742.454	2838.66
742.639	2797.7
742.824	2852.99
743.01	2797.7
743.195	2893.95
743.38	2805.89
743.565	2822.27
743.75	2789.5
743.935	2781.31
744.12	2721.92
744.305	2814.08
744.49	2848.9
744.675	2631.81
744.86	2773.12
745.045	2683.01
745.23	2730.11
745.415	2723.97
745.6	2695.3
745.785	2642.05
745.97	2656.39
746.155	2551.94
746.34	2699.39
746.525	2515.08
746.71	2574.47
746.895	2558.08
747.079	2566.28
747.264	2527.36
747.449	2519.17
747.634	2570.37
747.819	2449.54
748.003	2480.26
748.188	2494.6
748.373	2488.45
748.557	2429.06
748.742	2502.79
748.927	2367.62
749.111	2347.14
749.296	2445.45
749.481	2345.09
749.665	2394.25
749.85	2293.9
750.034	2248.84
750.219	2187.4
750.404	2263.18
750.588	2166.92
750.773	2156.68
750.957	2203.79
751.141	2236.55
751.326	2254.98
751.51	2197.64
751.695	2111.63
751.879	2140.3
752.064	2187.4
752.248	2089.1
752.432	2134.15
752.617	2199.69
752.801	2103.43
752.985	1984.65
753.17	2093.19
753.354	2125.96
753.538	1998.99
753.722	2044.04
753.907	2035.85
754.091	1976.46
754.275	2072.72
754.459	1859.73
754.643	1886.35
754.828	1921.17
755.012	1872.01
755.196	1933.45
755.38	1802.38
755.564	1984.65
755.748	1831.05
755.932	1788.05
756.116	1722.51
756.3	1845.39
756.484	1884.3
756.668	1708.18
756.852	1669.27
757.036	1656.98
757.22	1910.93
757.404	1781.9
757.588	1673.36
757.772	1699.98
757.956	1716.37
758.14	1712.27
758.323	1691.79
758.507	1624.21
758.691	1654.93
758.875	1605.78
759.059	1679.51
759.242	1519.76
759.426	1595.54
759.61	1536.15
759.794	1620.11
759.977	1646.74
760.161	1765.52
760.345	1601.68
760.528	1519.76
760.712	1503.38
760.895	1554.58
761.079	1472.66
761.263	1515.67
761.446	1517.72
761.63	1464.47
761.813	1443.99
761.997	1347.73
762.18	1435.8
762.364	1452.18
762.547	1319.06
762.731	1501.33
762.914	1419.41
763.098	1364.12
763.281	1372.31
763.464	1437.84
763.648	1487
763.831	1323.16
764.015	1388.69
764.198	1517.72
764.381	1355.93
764.564	1357.97
764.748	1376.41
764.931	1290.39
765.114	1345.69
765.297	1261.72
765.481	1304.73
765.664	1351.83
765.847	1282.2
766.03	1386.65
766.213	1319.06
766.397	1224.86
766.58	1192.09
766.763	1296.53
766.946	1339.54
767.129	1286.3
767.312	1257.62
767.495	1276.06
767.678	1226.9
767.861	1247.38
768.044	1163.42
768.227	1288.34
768.41	1169.56
768.593	1228.95
768.776	1185.94
768.959	1286.3
769.142	1200.28
769.324	1153.18
769.507	1091.74
769.69	1282.2
769.873	1159.32
770.056	1167.51
770.239	1167.51
770.421	1052.83
770.604	1099.93
770.787	1071.26
770.97	1079.45
771.152	1069.21
771.335	1118.36
771.518	1106.07
771.7	1239.19
771.883	1169.56
772.066	1065.11
772.248	1079.45
772.431	1167.51
772.613	1167.51
772.796	977.05
772.978	1147.03
773.161	1018.01
773.343	1081.5
773.526	1091.74
773.708	1022.11
773.891	991.39
774.073	1005.72
774.256	960.67
774.438	1048.73
774.621	1022.11
774.803	1020.06
774.985	932
775.168	940.19
775.35	1044.63
775.532	960.67
775.715	938.14
775.897	903.32
776.079	837.79
776.261	975
776.444	919.71
776.626	858.27
776.808	901.28
776.99	862.37
777.173	880.8
777.355	856.22
777.537	921.76
777.719	864.41
777.901	798.88
778.083	874.65
778.265	790.69
778.447	917.66
778.629	798.88
778.811	790.69
778.993	835.74
779.175	809.12
779.357	819.36
779.539	766.11
779.721	802.97
779.903	821.41
780.085	737.44
780.267	778.4
780.449	848.03
780.631	790.69
780.812	813.21
780.994	721.06
781.176	782.49
781.358	659.62
781.54	684.19
781.721	719.01
781.903	684.19
782.085	641.18
782.267	704.67
782.448	649.38
782.63	706.72
782.812	696.48
782.993	583.84
783.175	729.25
783.357	688.29
783.538	604.32
783.72	630.95
783.901	706.72
784.083	678.05
784.264	551.07
784.446	704.67
784.627	544.93
784.809	614.56
784.99	614.56
785.172	610.47
785.353	657.57
785.535	602.27
785.716	600.23
785.897	565.41
786.079	534.69
786.26	589.99
786.441	628.9
786.623	594.08
786.804	569.51
786.985	530.59
787.167	596.13
787.348	530.59
787.529	538.79
787.71	657.57
787.891	546.98
788.073	571.55
788.254	530.59
788.435	559.27
788.616	571.55
788.797	497.83
788.978	512.16
789.159	497.83
789.34	411.81
789.522	481.44
789.703	422.05
789.884	549.03
790.065	446.63
790.246	555.17
790.427	422.05
790.607	469.16
790.788	473.25
790.969	485.54
791.15	520.35
791.331	483.49
791.512	465.06
791.693	481.44
791.874	485.54
792.054	583.84
792.235	477.35
792.416	444.58
792.597	395.43
792.778	401.57
792.958	503.97
793.139	422.05
793.32	483.49
793.5	430.24
793.681	450.72
793.862	534.69
794.042	417.96
794.223	346.28
794.404	434.34
794.584	436.39
794.765	450.72
794.945	364.71
795.126	442.53
795.306	432.29
795.487	336.04
795.667	399.52
795.848	405.67
796.028	370.85
796.209	381.09
796.389	297.13
796.57	372.9
796.75	395.43
796.93	311.46
797.111	391.33
797.291	311.46
797.471	323.75
797.652	342.18
797.832	385.19
798.012	389.28
798.192	288.93
798.373	397.48
798.553	329.89
798.733	348.33
798.913	348.33
799.093	348.33
799.274	360.61
799.454	364.71
799.634	372.9
799.814	362.66
799.994	411.81
800.174	389.28
800.354	385.19
800.534	340.13
800.714	303.27
800.894	356.52
801.074	309.41
801.254	381.09
801.434	342.18
801.614	323.75
801.794	350.37
801.974	864.41
802.154	280.74
802.334	342.18
802.514	282.79
802.693	356.52
802.873	221.35
803.053	315.56
803.233	417.96
803.413	284.84
803.592	290.98
803.772	225.45
803.952	333.99
804.131	274.6
804.311	321.7
804.491	254.12
804.67	329.89
804.85	252.07
805.03	297.13
805.209	362.66
805.389	321.7
805.568	264.36
805.748	309.41
805.928	243.88
806.107	348.33
806.287	333.99
806.466	364.71
806.646	336.04
806.825	278.69
807.004	282.79
807.184	280.74
807.363	258.21
807.543	307.37
807.722	196.78
807.901	274.6
808.081	331.94
808.26	172.2
808.439	239.78
808.619	286.89
808.798	282.79
808.977	329.89
809.156	200.87
809.336	338.09
809.515	311.46
809.694	184.49
809.873	286.89
810.052	254.12
810.231	258.21
810.411	215.21
810.59	288.93
810.769	190.63
810.948	254.12
811.127	121
811.306	250.02
811.485	235.69
811.664	274.6
811.843	299.17
812.022	260.26
812.201	118.95
812.38	258.21
812.559	196.78
812.737	202.92
812.916	147.62
813.095	250.02
813.274	252.07
813.453	260.26
813.632	227.5
813.811	250.02
813.989	198.82
814.168	213.16
814.347	239.78
814.526	282.79
814.704	247.97
814.883	223.4
815.062	186.54
815.24	309.41
815.419	149.67
815.598	198.82
815.776	143.53
815.955	233.64
816.133	229.54
816.312	204.97
816.49	256.17
816.669	129.19
816.847	202.92
817.026	190.63
817.204	237.74
817.383	164.01
817.561	170.15
817.74	192.68
817.918	178.34
818.097	252.07
818.275	219.3
818.453	219.3
818.632	254.12
818.81	170.15
818.988	108.71
819.167	131.24
819.345	245.93
819.523	166.06
819.701	217.26
819.879	164.01
820.058	172.2
820.236	266.41
820.414	209.06
820.592	166.06
820.77	184.49
820.948	139.43
821.127	202.92
821.305	166.06
821.483	168.1
821.661	239.78
821.839	190.63
822.017	184.49
822.195	129.19
822.373	202.92
822.551	250.02
822.729	202.92
822.907	202.92
823.085	133.29
823.262	118.95
823.44	149.67
823.618	192.68
823.796	116.9
823.974	125.1
824.152	145.58
824.329	159.91
824.507	100.52
824.685	94.38
824.863	161.96
825.04	100.52
825.218	143.53
825.396	112.81
825.574	168.1
825.751	178.34
825.929	200.87
826.107	116.9
826.284	151.72
826.462	239.78
826.639	121
826.817	106.67
826.994	145.58
827.172	137.38
827.349	178.34
827.527	164.01
827.704	135.34
827.882	176.3
828.059	153.77
828.237	129.19
828.414	151.72
828.591	131.24
828.769	211.11
828.946	155.82
829.124	127.14
829.301	190.63
829.478	92.33
829.655	98.47
829.833	137.38
830.01	184.49
830.187	110.76
830.364	135.34
830.542	233.64
830.719	106.67
830.896	194.73
831.073	92.33
831.25	172.2
831.427	161.96
831.604	200.87
831.782	65.71
831.959	102.57
832.136	153.77
832.313	137.38
832.49	82.09
832.667	96.43
832.844	114.86
833.021	182.44
833.198	123.05
833.374	213.16
833.551	157.86
833.728	147.62
833.905	157.86
834.082	49.32
834.259	131.24
834.436	243.88
834.612	59.56
834.789	65.71
834.966	82.09
835.143	102.57
835.319	135.34
835.496	159.91
835.673	131.24
835.85	88.23
836.026	168.1
836.203	151.72
836.38	63.66
836.556	159.91
836.733	57.51
836.909	137.38
837.086	161.96
837.262	110.76
837.439	133.29
837.616	135.34
837.792	53.42
837.968	131.24
838.145	69.8
838.321	67.75
838.498	121
838.674	139.43
838.851	147.62
839.027	88.23
839.203	96.43
839.38	157.86
839.556	102.57
839.732	147.62
839.909	102.57
840.085	129.19
840.261	94.38
840.437	118.95
840.614	90.28
840.79	37.03
840.966	108.71
841.142	59.56
841.318	123.05
841.494	77.99
841.671	133.29
841.847	147.62
842.023	86.19
842.199	75.95
842.375	186.54
842.551	67.75
842.727	98.47
842.903	94.38
843.079	45.23
843.255	161.96
843.431	67.75
843.607	159.91
843.783	47.27
843.959	118.95
844.134	118.95
844.31	71.85
844.486	92.33
844.662	75.95
844.838	127.14
845.013	106.67
845.189	112.81
845.365	118.95
845.541	49.32
845.716	151.72
845.892	100.52
846.068	41.13
846.244	118.95
846.419	118.95
846.595	20.65
846.77	102.57
846.946	110.76
847.122	139.43
847.297	133.29
847.473	125.1
847.648	53.42
847.824	49.32
847.999	-8.02
848.175	61.61
848.35	108.71
848.526	53.42
848.701	45.23
848.876	100.52
849.052	143.53
849.227	30.89
849.403	69.8
849.578	61.61
849.753	159.91
849.929	84.14
850.104	102.57
850.279	55.47
850.454	77.99
850.63	65.71
850.805	100.52
850.98	127.14
851.155	43.18
851.33	59.56
851.505	77.99
851.681	149.67
851.856	51.37
852.031	69.8
852.206	61.61
852.381	106.67
852.556	47.27
852.731	102.57
852.906	86.19
853.081	94.38
853.256	59.56
853.431	139.43
853.606	43.18
853.781	34.99
853.956	75.95
854.131	104.62
854.305	14.51
854.48	57.51
854.655	43.18
854.83	45.23
855.005	69.8
855.18	125.1
855.354	63.66
855.529	51.37
855.704	88.23
855.879	116.9
856.053	45.23
856.228	34.99
856.403	67.75
856.577	82.09
856.752	24.75
856.926	49.32
857.101	75.95
857.276	69.8
857.45	73.9
857.625	69.8
857.799	10.41
857.974	49.32
858.148	43.18
858.323	12.46
858.497	59.56
858.672	37.03
858.846	65.71
859.02	127.14
859.195	77.99
859.369	77.99
859.543	10.41
859.718	94.38
859.892	51.37
860.066	98.47
860.241	61.61
860.415	67.75
860.589	69.8
860.763	2.22
860.938	100.52
861.112	84.14
861.286	125.1
861.46	67.75
861.634	43.18
861.808	129.19
861.982	24.75
862.157	-3.93
862.331	41.13
862.505	59.56
862.679	24.75
862.853	94.38
863.027	59.56
863.201	47.27
863.375	61.61
863.549	92.33
863.722	12.46
863.896	129.19
864.07	73.9
864.244	8.36
864.418	96.43
864.592	28.84
864.766	49.32
864.939	-24.4
865.113	61.61
865.287	75.95
865.461	51.37
865.634	34.99
865.808	51.37
865.982	2.22
866.156	90.28
866.329	86.19
866.503	32.94
866.676	133.29
866.85	106.67
867.024	65.71
867.197	-8.02
867.371	98.47
867.544	-8.02
867.718	61.61
867.891	26.79
868.065	121
868.238	22.7
868.412	131.24
868.585	100.52
868.759	22.7
868.932	8.36
869.105	-12.12
869.279	55.47
869.452	45.23
869.625	67.75
869.799	86.19
869.972	43.18
870.145	92.33
870.319	77.99
870.492	28.84
870.665	69.8
870.838	45.23
871.011	26.79
871.185	108.71
871.358	18.6
871.531	77.99
871.704	73.9
871.877	100.52
872.05	37.03
872.223	-22.36
872.396	-3.93
872.569	102.57
872.742	18.6
872.915	51.37
873.088	49.32
873.261	51.37
873.434	-1.88
873.607	37.03
873.78	94.38
873.953	37.03
874.126	53.42
874.299	104.62
874.471	43.18
874.644	57.51
874.817	41.13
874.99	151.72
875.163	2.22
875.335	108.71
875.508	106.67
875.681	53.42
875.853	92.33
876.026	73.9
876.199	47.27
876.371	2.22
876.544	73.9
876.717	86.19
876.889	14.51
877.062	80.04
877.234	77.99
877.407	20.65
877.579	41.13
877.752	63.66
877.924	18.6
878.097	-12.12
878.269	61.61
878.442	69.8
878.614	-5.97
878.786	90.28
878.959	59.56
879.131	98.47
879.303	69.8
879.476	61.61
879.648	24.75
879.82	77.99
879.993	88.23
880.165	51.37
880.337	-44.88
880.509	45.23
880.681	2.22
880.854	-20.31
881.026	14.51
881.198	90.28
881.37	26.79
881.542	26.79
881.714	86.19
881.886	57.51
882.058	67.75
882.23	39.08
882.402	51.37
882.574	-22.36
882.746	37.03
882.918	112.81
883.09	-24.4
883.262	39.08
883.434	114.86
883.606	-12.12
883.778	26.79
883.95	59.56
884.122	6.31
884.293	67.75
884.465	53.42
884.637	121
884.809	-8.02
884.98	34.99
885.152	110.76
885.324	43.18
885.496	73.9
885.667	24.75
885.839	-32.6
886.011	65.71
886.182	133.29
886.354	53.42
886.525	24.75
886.697	-18.26
886.869	18.6
887.04	0.17
887.212	59.56
887.383	67.75
887.555	61.61
887.726	82.09
887.897	90.28
888.069	100.52
888.24	18.6
888.412	10.41
888.583	73.9
888.754	-22.36
888.926	-57.17
889.097	43.18
889.268	30.89
889.44	118.95
889.611	28.84
889.782	67.75
889.953	-22.36
890.125	116.9
890.296	-38.74
890.467	22.7
890.638	118.95
890.809	47.27
890.98	28.84
891.151	45.23
891.323	108.71
891.494	30.89
891.665	45.23
891.836	8.36
892.007	43.18
892.178	22.7
892.349	106.67
892.52	24.75
892.691	69.8
892.862	22.7
893.032	12.46
893.203	55.47
893.374	84.14
893.545	47.27
893.716	49.32
893.887	16.55
894.057	53.42
894.228	20.65
894.399	-8.02
894.57	32.94
894.74	37.03
894.911	139.43
895.082	20.65
895.253	-30.55
895.423	24.75
895.594	82.09
895.764	-3.93
895.935	-40.79
896.106	80.04
896.276	12.46
896.447	69.8
896.617	69.8
896.788	12.46
896.958	-5.97
897.129	6.31
897.299	-8.02
897.47	80.04
897.64	102.57
897.81	34.99
897.981	88.23
898.151	-51.03
898.322	-16.21
898.492	12.46
898.662	49.32
898.832	14.51
899.003	-12.12
899.173	28.84
899.343	106.67
899.513	16.55
