Data from USB4F104151__249__10-31-04-436.txt Node

Date: Wed Mar 12 10:31:04 EDT 2025
User: louis
Spectrometer: USB4F10415
Trigger mode: 4
Integration Time (sec): 3.000000E-2
Scans to average: 1
Electric dark correction enabled: true
Nonlinearity correction enabled: false
Boxcar width: 0
XAxis mode: Wavelengths
Number of Pixels in Spectrum: 3648
>>>>>Begin Spectral Data<<<<<
178.204	-176.64
178.424	-176.64
178.644	-176.64
178.864	-90.62
179.084	-86.53
179.304	48.64
179.524	-49.66
179.744	15.87
179.964	44.54
180.184	-25.09
180.404	-25.09
180.624	-12.8
180.844	22.02
181.064	-20.99
181.283	5.63
181.503	5.63
181.723	-8.7
181.943	-100.86
182.163	40.45
182.383	-6.66
182.602	-23.04
182.822	-49.66
183.042	28.16
183.262	5.63
183.482	-23.04
183.701	7.68
183.921	-29.18
184.141	-66.05
184.361	38.4
184.58	-2.56
184.8	13.82
185.02	-4.61
185.239	26.11
185.459	38.4
185.679	34.3
185.898	9.73
186.118	-12.8
186.338	22.02
186.557	50.69
186.777	-12.8
186.997	-59.9
187.216	67.07
187.436	38.4
187.655	71.17
187.875	48.64
188.095	-39.42
188.314	38.4
188.534	79.36
188.753	-68.09
188.973	19.97
189.192	52.74
189.412	83.45
189.631	-35.33
189.851	-35.33
190.07	11.78
190.29	1.54
190.509	-12.8
190.729	44.54
190.948	-39.42
191.168	36.35
191.387	38.4
191.607	1.54
191.826	32.26
192.045	44.54
192.265	-35.33
192.484	13.82
192.704	-10.75
192.923	-29.18
193.142	56.83
193.362	56.83
193.581	24.06
193.8	-0.51
194.02	32.26
194.239	22.02
194.458	28.16
194.678	-51.71
194.897	15.87
195.116	36.35
195.335	-27.14
195.555	3.58
195.774	-14.85
195.993	26.11
196.212	-18.94
196.432	9.73
196.651	-100.86
196.87	-55.81
197.089	77.31
197.308	9.73
197.528	-45.57
197.747	1.54
197.966	9.73
198.185	71.17
198.404	-45.57
198.623	34.3
198.842	-14.85
199.062	3.58
199.281	85.5
199.5	-6.66
199.719	71.17
199.938	5.63
200.157	30.21
200.376	19.97
200.595	11.78
200.814	58.88
201.033	5.63
201.252	-18.94
201.471	-27.14
201.69	3.58
201.909	9.73
202.128	11.78
202.347	-37.38
202.566	-14.85
202.785	-29.18
203.004	32.26
203.223	91.65
203.442	48.64
203.661	-47.62
203.879	-0.51
204.098	-14.85
204.317	-57.86
204.536	9.73
204.755	9.73
204.974	87.55
205.193	-55.81
205.411	26.11
205.63	36.35
205.849	46.59
206.068	-25.09
206.287	13.82
206.505	83.45
206.724	3.58
206.943	-18.94
207.162	-31.23
207.381	7.68
207.599	54.78
207.818	11.78
208.037	9.73
208.255	-10.75
208.474	-33.28
208.693	-39.42
208.911	62.98
209.13	3.58
209.349	38.4
209.567	-0.51
209.786	1.54
210.005	38.4
210.223	24.06
210.442	-29.18
210.661	-14.85
210.879	26.11
211.098	5.63
211.316	-0.51
211.535	-31.23
211.753	-6.66
211.972	40.45
212.191	38.4
212.409	24.06
212.628	-25.09
212.846	36.35
213.065	34.3
213.283	60.93
213.502	46.59
213.72	22.02
213.938	-72.19
214.157	62.98
214.375	-51.71
214.594	-47.62
214.812	15.87
215.031	73.21
215.249	13.82
215.467	1.54
215.686	-0.51
215.904	30.21
216.122	3.58
216.341	13.82
216.559	58.88
216.778	42.5
216.996	62.98
217.214	-6.66
217.432	38.4
217.651	24.06
217.869	54.78
218.087	22.02
218.306	-25.09
218.524	11.78
218.742	-20.99
218.96	-35.33
219.179	11.78
219.397	7.68
219.615	19.97
219.833	-35.33
220.051	-92.67
220.27	73.21
220.488	22.02
220.706	32.26
220.924	-31.23
221.142	5.63
221.36	15.87
221.578	-4.61
221.796	-37.38
222.015	9.73
222.233	46.59
222.451	42.5
222.669	-10.75
222.887	13.82
223.105	-4.61
223.323	7.68
223.541	5.63
223.759	-25.09
223.977	34.3
224.195	17.92
224.413	-23.04
224.631	1.54
224.849	-6.66
225.067	108.03
225.285	3.58
225.503	15.87
225.721	-33.28
225.939	40.45
226.157	-74.24
226.375	75.26
226.592	-37.38
226.81	13.82
227.028	48.64
227.246	-4.61
227.464	-43.52
227.682	26.11
227.9	-45.57
228.117	36.35
228.335	-31.23
228.553	-37.38
228.771	-66.05
228.989	22.02
229.206	5.63
229.424	-2.56
229.642	-20.99
229.86	-35.33
230.077	36.35
230.295	-25.09
230.513	1.54
230.731	42.5
230.948	-45.57
231.166	13.82
231.384	-25.09
231.601	-29.18
231.819	-10.75
232.037	71.17
232.254	-102.91
232.472	5.63
232.689	-72.19
232.907	77.31
233.125	-35.33
233.342	-49.66
233.56	-31.23
233.777	13.82
233.995	-10.75
234.213	-0.51
234.43	44.54
234.648	73.21
234.865	-49.66
235.083	65.02
235.3	-35.33
235.518	91.65
235.735	58.88
235.953	22.02
236.17	38.4
236.388	42.5
236.605	-20.99
236.822	69.12
237.04	9.73
237.257	-59.9
237.475	-31.23
237.692	-4.61
237.909	50.69
238.127	13.82
238.344	-41.47
238.562	26.11
238.779	7.68
238.996	54.78
239.214	-20.99
239.431	95.74
239.648	-119.29
239.865	34.3
240.083	56.83
240.3	-10.75
240.517	-41.47
240.735	93.69
240.952	-6.66
241.169	-16.9
241.386	-33.28
241.603	-4.61
241.821	3.58
242.038	42.5
242.255	30.21
242.472	-20.99
242.689	22.02
242.907	38.4
243.124	-23.04
243.341	26.11
243.558	-2.56
243.775	-4.61
243.992	-20.99
244.209	11.78
244.426	40.45
244.643	5.63
244.86	28.16
245.078	42.5
245.295	5.63
245.512	-16.9
245.729	-37.38
245.946	22.02
246.163	-55.81
246.38	17.92
246.597	-6.66
246.814	5.63
247.031	-35.33
247.248	36.35
247.464	38.4
247.681	-51.71
247.898	40.45
248.115	-27.14
248.332	-45.57
248.549	28.16
248.766	19.97
248.983	1.54
249.2	24.06
249.417	-6.66
249.633	-6.66
249.85	3.58
250.067	-33.28
250.284	24.06
250.501	28.16
250.717	-33.28
250.934	-43.52
251.151	50.69
251.368	62.98
251.585	7.68
251.801	-59.9
252.018	-10.75
252.235	22.02
252.451	-64
252.668	-12.8
252.885	52.74
253.102	-18.94
253.318	-33.28
253.535	-47.62
253.752	-31.23
253.968	-0.51
254.185	-12.8
254.401	60.93
254.618	11.78
254.835	-41.47
255.051	3.58
255.268	-6.66
255.484	40.45
255.701	-0.51
255.917	19.97
256.134	40.45
256.351	-33.28
256.567	5.63
256.784	15.87
257	-35.33
257.217	1.54
257.433	97.79
257.65	38.4
257.866	-14.85
258.082	-51.71
258.299	42.5
258.515	-14.85
258.732	62.98
258.948	36.35
259.165	26.11
259.381	-0.51
259.597	46.59
259.814	-4.61
260.03	22.02
260.246	54.78
260.463	-0.51
260.679	87.55
260.895	13.82
261.112	22.02
261.328	24.06
261.544	-18.94
261.761	77.31
261.977	-57.86
262.193	50.69
262.409	19.97
262.626	38.4
262.842	19.97
263.058	-37.38
263.274	38.4
263.49	-27.14
263.707	-8.7
263.923	-25.09
264.139	-27.14
264.355	-43.52
264.571	62.98
264.787	1.54
265.004	19.97
265.22	13.82
265.436	-37.38
265.652	73.21
265.868	-10.75
266.084	-35.33
266.3	9.73
266.516	-2.56
266.732	40.45
266.948	3.58
267.164	34.3
267.38	-12.8
267.596	17.92
267.812	54.78
268.028	40.45
268.244	-59.9
268.46	7.68
268.676	11.78
268.892	5.63
269.108	-53.76
269.324	-23.04
269.54	-2.56
269.756	15.87
269.972	-39.42
270.188	38.4
270.403	1.54
270.619	40.45
270.835	54.78
271.051	1.54
271.267	-53.76
271.483	67.07
271.698	71.17
271.914	75.26
272.13	-20.99
272.346	30.21
272.562	-12.8
272.777	22.02
272.993	13.82
273.209	-25.09
273.425	17.92
273.64	-27.14
273.856	34.3
274.072	-12.8
274.287	26.11
274.503	-10.75
274.719	-12.8
274.934	36.35
275.15	5.63
275.366	-33.28
275.581	22.02
275.797	56.83
276.012	-119.29
276.228	56.83
276.444	-14.85
276.659	44.54
276.875	-2.56
277.09	-10.75
277.306	36.35
277.521	-10.75
277.737	-47.62
277.952	15.87
278.168	34.3
278.383	-12.8
278.599	-43.52
278.814	17.92
279.03	7.68
279.245	60.93
279.461	97.79
279.676	44.54
279.892	-31.23
280.107	15.87
280.322	-20.99
280.538	46.59
280.753	54.78
280.969	-27.14
281.184	13.82
281.399	81.41
281.615	48.64
281.83	62.98
282.045	-20.99
282.26	30.21
282.476	58.88
282.691	9.73
282.906	48.64
283.122	3.58
283.337	-47.62
283.552	-41.47
283.767	5.63
283.983	22.02
284.198	-2.56
284.413	99.84
284.628	34.3
284.843	-39.42
285.058	-0.51
285.274	-39.42
285.489	32.26
285.704	3.58
285.919	-12.8
286.134	34.3
286.349	-39.42
286.564	24.06
286.779	62.98
286.995	22.02
287.21	-47.62
287.425	-2.56
287.64	-8.7
287.855	62.98
288.07	-43.52
288.285	-0.51
288.5	58.88
288.715	5.63
288.93	-78.33
289.145	67.07
289.36	9.73
289.575	46.59
289.79	87.55
290.004	-45.57
290.219	85.5
290.434	36.35
290.649	-20.99
290.864	17.92
291.079	36.35
291.294	13.82
291.509	1.54
291.724	22.02
291.938	1.54
292.153	9.73
292.368	-43.52
292.583	-0.51
292.798	-20.99
293.012	79.36
293.227	-33.28
293.442	52.74
293.657	69.12
293.871	5.63
294.086	38.4
294.301	69.12
294.516	17.92
294.73	-29.18
294.945	-10.75
295.16	5.63
295.374	1.54
295.589	-23.04
295.804	1.54
296.018	7.68
296.233	22.02
296.447	-29.18
296.662	-6.66
296.877	62.98
297.091	79.36
297.306	-31.23
297.52	36.35
297.735	11.78
297.949	-27.14
298.164	-27.14
298.378	3.58
298.593	-55.81
298.807	-37.38
299.022	-20.99
299.236	36.35
299.451	13.82
299.665	32.26
299.88	-31.23
300.094	36.35
300.309	19.97
300.523	-6.66
300.737	-80.38
300.952	3.58
301.166	13.82
301.381	-6.66
301.595	-55.81
301.809	17.92
302.024	-10.75
302.238	-18.94
302.452	7.68
302.667	1.54
302.881	34.3
303.095	-51.71
303.309	3.58
303.524	-14.85
303.738	30.21
303.952	-45.57
304.166	126.46
304.381	-59.9
304.595	22.02
304.809	56.83
305.023	-23.04
305.237	5.63
305.452	32.26
305.666	-18.94
305.88	-2.56
306.094	87.55
306.308	-14.85
306.522	-39.42
306.736	44.54
306.95	58.88
307.164	30.21
307.379	-66.05
307.593	52.74
307.807	50.69
308.021	48.64
308.235	9.73
308.449	1.54
308.663	38.4
308.877	-0.51
309.091	-43.52
309.305	38.4
309.519	-23.04
309.733	77.31
309.947	-12.8
310.161	-23.04
310.374	-10.75
310.588	28.16
310.802	-18.94
311.016	67.07
311.23	52.74
311.444	-51.71
311.658	-45.57
311.872	17.92
312.085	26.11
312.299	40.45
312.513	-6.66
312.727	38.4
312.941	-45.57
313.154	24.06
313.368	-29.18
313.582	46.59
313.796	32.26
314.009	7.68
314.223	60.93
314.437	-31.23
314.651	36.35
314.864	32.26
315.078	85.5
315.292	-10.75
315.505	5.63
315.719	44.54
315.933	46.59
316.146	19.97
316.36	26.11
316.573	124.41
316.787	-16.9
317.001	3.58
317.214	-23.04
317.428	-6.66
317.641	-2.56
317.855	26.11
318.068	-35.33
318.282	19.97
318.495	46.59
318.709	99.84
318.922	-8.7
319.136	120.32
319.349	-0.51
319.563	69.12
319.776	58.88
319.99	73.21
320.203	13.82
320.417	58.88
320.63	-0.51
320.843	24.06
321.057	28.16
321.27	5.63
321.483	-43.52
321.697	-2.56
321.91	-45.57
322.124	46.59
322.337	9.73
322.55	-25.09
322.763	22.02
322.977	7.68
323.19	34.3
323.403	26.11
323.617	44.54
323.83	52.74
324.043	-59.9
324.256	67.07
324.469	-14.85
324.683	62.98
324.896	28.16
325.109	-27.14
325.322	-74.24
325.535	65.02
325.748	30.21
325.962	-45.57
326.175	-25.09
326.388	52.74
326.601	48.64
326.814	75.26
327.027	36.35
327.24	89.6
327.453	40.45
327.666	11.78
327.879	19.97
328.092	52.74
328.305	73.21
328.518	75.26
328.731	-35.33
328.944	-20.99
329.157	-6.66
329.37	-25.09
329.583	15.87
329.796	120.32
330.009	-53.76
330.222	-35.33
330.435	-35.33
330.648	7.68
330.861	1.54
331.073	69.12
331.286	58.88
331.499	19.97
331.712	-27.14
331.925	79.36
332.138	60.93
332.35	58.88
332.563	15.87
332.776	44.54
332.989	-59.9
333.202	-14.85
333.414	42.5
333.627	-10.75
333.84	-2.56
334.053	9.73
334.265	-6.66
334.478	50.69
334.691	-8.7
334.903	38.4
335.116	71.17
335.329	34.3
335.541	17.92
335.754	73.21
335.966	-27.14
336.179	-53.76
336.392	42.5
336.604	17.92
336.817	-27.14
337.029	65.02
337.242	-80.38
337.454	-14.85
337.667	-10.75
337.88	87.55
338.092	9.73
338.305	-23.04
338.517	-51.71
338.729	30.21
338.942	44.54
339.154	28.16
339.367	-37.38
339.579	5.63
339.792	46.59
340.004	7.68
340.217	-43.52
340.429	38.4
340.641	26.11
340.854	54.78
341.066	-20.99
341.278	48.64
341.491	54.78
341.703	34.3
341.915	32.26
342.128	-12.8
342.34	-0.51
342.552	-39.42
342.764	28.16
342.977	52.74
343.189	13.82
343.401	19.97
343.613	-68.09
343.826	40.45
344.038	-2.56
344.25	7.68
344.462	19.97
344.674	-6.66
344.886	58.88
345.099	-68.09
345.311	19.97
345.523	11.78
345.735	-20.99
345.947	77.31
346.159	26.11
346.371	-10.75
346.583	5.63
346.795	69.12
347.007	50.69
347.219	36.35
347.431	-23.04
347.643	52.74
347.855	-12.8
348.067	52.74
348.279	-57.86
348.491	-6.66
348.703	46.59
348.915	7.68
349.127	3.58
349.339	30.21
349.551	-8.7
349.763	34.3
349.975	-59.9
350.187	75.26
350.399	56.83
350.61	26.11
350.822	-18.94
351.034	7.68
351.246	-47.62
351.458	71.17
351.669	-43.52
351.881	42.5
352.093	48.64
352.305	36.35
352.517	44.54
352.728	87.55
352.94	60.93
353.152	93.69
353.363	-27.14
353.575	38.4
353.787	77.31
353.999	22.02
354.21	44.54
354.422	-72.19
354.633	13.82
354.845	95.74
355.057	67.07
355.268	17.92
355.48	28.16
355.692	22.02
355.903	24.06
356.115	34.3
356.326	-20.99
356.538	28.16
356.749	34.3
356.961	67.07
357.172	22.02
357.384	38.4
357.595	50.69
357.807	136.7
358.018	30.21
358.23	22.02
358.441	71.17
358.653	13.82
358.864	30.21
359.075	30.21
359.287	22.02
359.498	1.54
359.709	48.64
359.921	-35.33
360.132	-41.47
360.344	56.83
360.555	-29.18
360.766	36.35
360.977	83.45
361.189	17.92
361.4	-35.33
361.611	50.69
361.823	-49.66
362.034	42.5
362.245	-20.99
362.456	24.06
362.667	22.02
362.879	32.26
363.09	32.26
363.301	48.64
363.512	71.17
363.723	-61.95
363.935	-33.28
364.146	44.54
364.357	-18.94
364.568	67.07
364.779	-29.18
364.99	58.88
365.201	-12.8
365.412	65.02
365.623	-43.52
365.834	-23.04
366.045	-10.75
366.256	26.11
366.467	62.98
366.678	42.5
366.889	1.54
367.1	38.4
367.311	79.36
367.522	36.35
367.733	36.35
367.944	-6.66
368.155	-6.66
368.366	32.26
368.577	28.16
368.788	126.46
368.999	-12.8
369.209	32.26
369.42	26.11
369.631	-35.33
369.842	69.12
370.053	22.02
370.264	73.21
370.474	-14.85
370.685	26.11
370.896	-14.85
371.107	30.21
371.317	11.78
371.528	-12.8
371.739	77.31
371.95	-14.85
372.16	91.65
372.371	-37.38
372.582	11.78
372.792	-14.85
373.003	171.52
373.214	-23.04
373.424	-39.42
373.635	87.55
373.846	46.59
374.056	26.11
374.267	56.83
374.477	44.54
374.688	-23.04
374.898	3.58
375.109	15.87
375.319	34.3
375.53	1.54
375.74	-2.56
375.951	26.11
376.161	-29.18
376.372	79.36
376.582	-4.61
376.793	50.69
377.003	-10.75
377.214	54.78
377.424	32.26
377.635	54.78
377.845	-51.71
378.055	73.21
378.266	-2.56
378.476	120.32
378.686	44.54
378.897	34.3
379.107	-39.42
379.317	24.06
379.528	22.02
379.738	40.45
379.948	38.4
380.158	108.03
380.369	30.21
380.579	105.98
380.789	9.73
380.999	56.83
381.21	5.63
381.42	34.3
381.63	19.97
381.84	58.88
382.05	99.84
382.261	81.41
382.471	46.59
382.681	-8.7
382.891	81.41
383.101	5.63
383.311	-27.14
383.521	56.83
383.731	58.88
383.941	75.26
384.151	30.21
384.361	54.78
384.571	71.17
384.781	-47.62
384.991	28.16
385.201	28.16
385.411	-29.18
385.621	73.21
385.831	95.74
386.041	28.16
386.251	-53.76
386.461	93.69
386.671	24.06
386.881	44.54
387.091	87.55
387.301	44.54
387.511	38.4
387.72	42.5
387.93	17.92
388.14	87.55
388.35	93.69
388.56	19.97
388.769	38.4
388.979	34.3
389.189	-43.52
389.399	54.78
389.609	67.07
389.818	108.03
390.028	19.97
390.238	1.54
390.447	58.88
390.657	69.12
390.867	103.93
391.076	-51.71
391.286	62.98
391.496	50.69
391.705	99.84
391.915	108.03
392.125	69.12
392.334	-29.18
392.544	79.36
392.753	105.98
392.963	62.98
393.172	42.5
393.382	-6.66
393.591	67.07
393.801	95.74
394.01	46.59
394.22	44.54
394.429	28.16
394.639	-8.7
394.848	62.98
395.058	50.69
395.267	67.07
395.477	-4.61
395.686	108.03
395.895	144.89
396.105	28.16
396.314	134.65
396.524	87.55
396.733	114.17
396.942	136.7
397.152	110.08
397.361	22.02
397.57	32.26
397.78	169.47
397.989	42.5
398.198	79.36
398.407	87.55
398.617	75.26
398.826	103.93
399.035	58.88
399.244	151.04
399.453	85.5
399.663	120.32
399.872	71.17
400.081	11.78
400.29	118.27
400.499	112.13
400.708	116.22
400.917	-4.61
401.127	155.13
401.336	48.64
401.545	134.65
401.754	91.65
401.963	146.94
402.172	75.26
402.381	75.26
402.59	65.02
402.799	153.09
403.008	105.98
403.217	144.89
403.426	204.28
403.635	91.65
403.844	126.46
404.053	126.46
404.262	144.89
404.471	114.17
404.68	77.31
404.888	183.81
405.097	67.07
405.306	161.28
405.515	173.57
405.724	83.45
405.933	171.52
406.142	167.42
406.35	177.66
406.559	204.28
406.768	128.51
406.977	206.33
407.185	183.81
407.394	179.71
407.603	181.76
407.812	157.18
408.02	179.71
408.229	208.38
408.438	171.52
408.646	214.52
408.855	214.52
409.064	300.54
409.272	204.28
409.481	263.68
409.69	253.44
409.898	177.66
410.107	341.5
410.315	312.83
410.524	226.81
410.733	278.01
410.941	364.03
411.15	335.35
411.358	329.21
411.567	417.27
411.775	402.94
411.984	435.71
412.192	431.61
412.401	439.8
412.609	450.04
412.818	439.8
413.026	460.28
413.234	615.93
413.443	439.8
413.651	579.06
413.86	564.73
414.068	636.41
414.276	644.6
414.485	634.36
414.693	714.23
414.901	714.23
415.11	677.37
415.318	734.71
415.526	747
415.734	769.52
415.943	816.63
416.151	820.72
416.359	888.31
416.567	886.26
416.776	939.51
416.984	968.18
417.192	906.74
417.4	912.88
417.608	996.85
417.817	1056.24
418.025	1187.31
418.233	1213.93
418.441	1203.69
418.649	1185.26
418.857	1390.06
419.065	1312.24
419.273	1295.85
419.481	1269.23
419.689	1525.22
419.897	1578.47
420.105	1498.6
420.313	1576.42
420.521	1682.92
420.729	1668.58
420.937	1854.95
421.145	1852.9
421.353	1916.39
421.561	1990.11
421.769	2047.46
421.977	2082.27
422.185	2112.99
422.393	2207.2
422.601	2444.76
422.809	2340.32
423.017	2364.89
423.224	2430.43
423.432	2665.94
423.64	2602.46
423.848	2817.49
424.056	2622.94
424.263	3050.96
424.471	2987.47
424.679	2997.71
424.887	3202.51
425.094	3282.38
425.302	3368.4
425.51	3462.6
425.718	3579.34
425.925	3478.99
426.133	3624.39
426.341	3952.07
426.548	4038.08
426.756	4136.38
426.964	4017.6
427.171	4339.13
427.379	4539.83
427.586	4531.64
427.794	4634.04
428.001	4781.5
428.209	5223.86
428.417	5088.69
428.624	5295.54
428.832	5354.93
429.039	5318.06
429.247	5203.38
429.454	5862.82
429.662	6071.72
429.869	5809.58
430.076	6268.32
430.284	6157.73
430.491	6321.57
430.699	6772.12
430.906	6704.54
431.114	6761.88
431.321	7148.95
431.528	7230.87
431.736	7697.8
431.943	8084.87
432.15	7875.98
432.358	8086.92
432.565	8351.1
432.772	8179.08
432.979	8762.75
433.187	8863.1
433.394	8775.03
433.601	9516.4
433.808	9504.11
434.016	9483.63
434.223	9790.83
434.43	10225
434.637	10259.81
434.844	10825.05
435.052	11115.86
435.259	10992.98
435.466	11287.89
435.673	11068.76
435.88	11926.86
436.087	12590.4
436.294	12473.67
436.501	11822.41
436.708	12412.23
436.915	12420.42
437.122	13339.96
437.329	13292.85
437.537	13729.07
437.743	13724.97
437.95	13847.85
438.157	14589.22
438.364	15105.31
438.571	14898.46
438.778	14968.09
438.985	16401.67
439.192	15568.15
439.399	16373
439.606	15959.31
439.813	16717.06
440.02	17693.94
440.227	17468.66
440.433	17642.74
440.64	17929.45
440.847	17734.9
441.054	18230.51
441.261	19582.17
441.467	19236.06
441.674	19623.12
441.881	20438.22
442.088	20026.57
442.294	20057.29
442.501	20638.92
442.708	21032.13
442.914	21787.83
443.121	22764.71
443.328	22402.22
443.534	23891.09
443.741	23004.32
443.948	22566.06
444.154	24323.21
444.361	23989.39
444.568	24528.01
444.774	24726.66
444.981	24661.13
445.187	25218.18
445.394	26385.52
445.6	26205.3
445.807	28607.56
446.013	27239.52
446.22	27702.36
446.426	29029.45
446.633	29185.09
446.839	30032.95
447.046	28630.09
447.252	30620.72
447.459	30575.66
447.665	30239.79
447.871	31562.78
448.078	32973.83
448.284	31491.1
448.491	32072.73
448.697	33248.26
448.903	34096.12
449.11	33969.15
449.316	33496.06
449.522	34198.52
449.728	34833.39
449.935	35212.26
450.141	34941.93
450.347	35748.83
450.553	34954.22
450.76	35146.73
450.966	36187.1
451.172	36053.98
451.378	36688.85
451.584	35767.26
451.791	37241.8
451.997	36772.81
452.203	37485.51
452.409	37637.06
452.615	37485.51
452.821	35945.44
453.027	35408.87
453.233	37258.18
453.44	35771.36
453.646	36273.11
453.852	36402.13
454.058	36694.99
454.264	35365.86
454.47	36340.69
454.676	35447.78
454.882	36686.8
455.088	33453.06
455.294	34040.82
455.5	34278.39
455.705	34659.31
455.911	33285.12
456.117	32631.82
456.323	32398.35
456.529	30278.71
456.735	31900.7
456.941	31003.69
457.147	30456.88
457.352	29400.13
457.558	29424.7
457.764	29213.76
457.97	28976.2
458.176	27915.35
458.381	28027.99
458.587	26743.91
458.793	26717.29
458.999	25265.28
459.204	27247.71
459.41	26563.69
459.616	24941.7
459.821	24509.58
460.027	24659.08
460.233	24161.42
460.438	23102.62
460.644	23233.69
460.85	21982.38
461.055	21757.11
461.261	21753.01
461.466	20257.99
461.672	19561.69
461.878	21132.48
462.083	19563.73
462.289	19248.35
462.494	18998.49
462.7	18394.34
462.905	17669.36
463.111	18064.62
463.316	18457.83
463.522	17650.93
463.727	17982.7
463.932	17618.16
464.138	17695.99
464.343	17749.23
464.549	17413.37
464.754	17794.29
464.959	17769.71
465.165	17431.8
465.37	16753.92
465.575	16329.99
465.781	16907.52
465.986	17020.16
466.191	16637.19
466.397	16284.94
466.602	15408.4
466.807	16098.57
467.012	15951.12
467.218	15904.01
467.423	15813.9
467.628	16063.75
467.833	16350.47
468.038	15904.01
468.244	15447.32
468.449	16065.8
468.654	15473.94
468.859	15455.51
469.064	15351.06
469.269	14535.97
469.474	14875.93
469.679	15045.91
469.885	14562.59
470.09	14619.94
470.295	14697.76
470.5	14378.28
470.705	14558.5
470.91	14069.03
471.115	13989.16
471.32	14247.21
471.525	13915.44
471.73	13628.72
471.935	13706.54
472.139	13356.34
472.344	13239.61
472.549	13333.81
472.754	13178.17
472.959	12639.55
473.164	12576.06
473.369	12561.73
473.574	12758.33
473.778	12887.36
473.983	12498.24
474.188	12438.85
474.393	11894.09
474.598	12115.27
474.802	11808.08
475.007	11857.23
475.212	11763.02
475.417	11482.45
475.621	11490.64
475.826	11623.76
476.031	11160.92
476.235	11183.45
476.44	11191.64
476.645	10888.54
476.849	11046.23
477.054	10999.13
477.259	10571.1
477.463	10812.76
477.668	10376.55
477.872	10595.68
478.077	10470.75
478.282	10329.44
478.486	10265.96
478.691	10007.91
478.895	10007.91
479.1	9925.99
479.304	9917.8
479.509	9608.56
479.713	9651.56
479.918	9639.28
480.122	9321.84
480.326	9465.2
480.531	9446.77
480.735	9633.13
480.94	9463.15
481.144	9739.63
481.348	9094.52
481.553	9332.08
481.757	9190.77
481.961	9516.4
482.166	9235.83
482.37	9336.18
482.574	9160.05
482.778	9237.88
482.983	9489.78
483.187	9192.82
483.391	9338.23
483.595	8967.54
483.8	9123.19
484.004	9287.03
484.208	9325.94
484.412	9422.19
484.616	9139.57
484.821	9344.37
485.025	9086.33
485.229	9362.8
485.433	9340.27
485.637	9215.35
485.841	9067.89
486.045	9166.2
486.249	9041.27
486.453	9012.6
486.657	9284.98
486.861	9147.76
487.065	8885.62
487.269	9041.27
487.473	9035.13
487.677	9143.67
487.881	9301.36
488.085	9078.13
488.289	9164.15
488.493	9213.3
488.697	9246.07
488.901	9151.86
489.105	9082.23
489.309	9143.67
489.512	9266.55
489.716	9268.59
489.92	9270.64
490.124	9301.36
490.328	9471.34
490.531	9250.16
490.735	9219.44
490.939	9454.96
491.143	9160.05
491.346	9147.76
491.55	9319.79
491.754	9473.39
491.958	9532.78
492.161	9342.32
492.365	9588.08
492.569	9655.66
492.772	9596.27
492.976	9633.13
493.18	9672.04
493.383	9889.13
493.587	10098.02
493.79	10055.01
493.994	9915.75
494.197	10052.97
494.401	10214.76
494.605	10124.65
494.808	10095.97
495.012	10153.32
495.215	10286.44
495.419	10558.81
495.622	10485.09
495.825	10728.8
496.029	10657.12
496.232	10698.08
496.436	10689.88
496.639	10843.48
496.843	11031.9
497.046	11384.15
497.249	11259.22
497.453	11351.38
497.656	11588.94
497.859	11654.48
498.063	11609.42
498.266	11871.56
498.469	11789.64
498.673	11904.33
498.876	12115.27
499.079	12145.99
499.282	12277.06
499.485	12496.19
499.689	12610.88
499.892	12748.09
500.095	12885.31
500.298	13043
500.501	13051.19
500.705	13284.66
500.908	13665.58
501.111	13569.33
501.314	13534.51
501.517	14109.99
501.72	13999.4
501.923	14124.33
502.126	14415.14
502.329	14734.62
502.532	14546.21
502.735	14927.13
502.938	15078.68
503.141	15299.86
503.344	15506.71
503.547	15340.82
503.75	15559.95
503.953	15760.66
504.156	15783.18
504.359	16035.08
504.562	16354.57
504.765	16504.07
504.968	16776.45
505.17	16848.13
505.373	17132.79
505.576	17227
505.779	17382.65
505.982	17646.83
506.185	17751.28
506.387	17693.94
506.59	18060.52
506.793	18181.35
506.996	18341.1
507.198	18865.38
507.401	18693.35
507.604	18906.34
507.807	19295.45
508.009	19449.05
508.212	19590.36
508.415	19911.89
508.617	20282.57
508.82	20284.62
509.022	20208.84
509.225	20731.08
509.428	20905.15
509.63	20970.69
509.833	21374.14
510.035	21413.05
510.238	21597.37
510.44	22047.92
510.643	22117.55
510.845	22346.92
511.048	22068.4
511.25	22791.33
511.453	22607.02
511.655	23532.7
511.858	23401.63
512.06	23420.06
512.262	23760.02
512.465	23821.46
512.667	24493.19
512.87	24515.72
513.072	24460.43
513.274	24827.01
513.477	25545.85
513.679	25627.77
513.881	25967.73
514.084	25959.54
514.286	26156.14
514.488	26453.1
514.69	26786.92
514.893	27016.29
515.095	27245.66
515.297	27389.02
515.499	27503.71
515.701	27958.36
515.904	28251.22
516.106	28331.09
516.308	28607.56
516.51	29127.75
516.712	28968.01
516.914	29430.85
517.116	29783.1
517.318	29672.51
517.52	30104.63
517.722	30436.4
517.925	30889
518.127	31282.21
518.329	31175.72
518.531	31153.19
518.733	32007.19
518.935	31955.99
519.136	32295.96
519.338	32619.53
519.54	32674.83
519.742	32994.31
519.944	33315.84
520.146	33950.71
520.348	33860.6
520.55	34075.64
520.752	34044.92
520.954	34929.64
521.155	34718.7
521.357	35173.35
521.559	35617.76
521.761	36168.66
521.963	36107.23
522.164	36195.29
522.366	36129.75
522.568	36709.33
522.77	37229.51
522.971	37796.8
523.173	37278.66
523.375	37927.87
523.576	37532.61
523.778	37874.62
523.98	38448.05
524.181	38812.59
524.383	38978.48
524.584	38908.85
524.786	39517.09
524.988	39295.91
525.189	39433.13
525.391	40082.33
525.592	39959.45
525.794	40420.25
525.995	40463.25
526.197	40326.04
526.398	40934.29
526.6	40987.53
526.801	40905.62
527.003	41341.83
527.204	41192.33
527.406	41853.83
527.607	41495.43
527.808	42318.71
528.01	41515.91
528.211	42220.41
528.412	42986.35
528.614	42451.83
528.815	42578.81
529.016	43543.4
529.218	42709.88
529.419	42644.34
529.62	42900.34
529.822	43086.7
530.023	42924.91
530.224	43332.46
530.425	43522.92
530.626	43115.37
530.828	43236.2
531.029	44127.07
531.23	43785.06
531.431	43553.64
531.632	43826.02
531.833	44258.14
532.035	43846.5
532.236	44333.92
532.437	44475.23
532.638	44325.72
532.839	44309.34
533.04	44637.01
533.241	44426.07
533.442	45183.82
533.643	44432.22
533.844	44440.41
534.045	44231.52
534.246	43932.51
534.447	45087.57
534.648	44878.68
534.849	44841.81
535.05	44415.83
535.251	44868.44
535.451	44858.2
535.652	45103.95
535.853	45062.99
536.054	45181.77
536.255	45046.61
536.456	44522.33
536.657	45239.12
536.857	44804.95
537.058	44637.01
537.259	45177.68
537.46	45054.8
537.66	44784.47
537.861	45366.09
538.062	45097.81
538.263	44954.45
538.463	44895.06
538.664	44929.87
538.865	45202.25
539.065	45413.2
539.266	44827.48
539.466	45423.43
539.667	44761.94
539.868	45364.04
540.068	45085.52
540.269	44815.19
540.469	45124.43
540.67	44817.24
540.87	44761.94
541.071	45218.64
541.271	45062.99
541.472	45087.57
541.672	45101.9
541.873	45099.86
542.073	44278.62
542.274	44958.55
542.474	44841.81
542.675	44651.35
542.875	45423.43
543.075	44958.55
543.276	44774.23
543.476	45505.35
543.676	45173.58
543.877	44833.62
544.077	44909.39
544.277	44874.58
544.478	45007.7
544.678	45144.91
544.878	44807
545.078	44890.96
545.279	44575.58
545.479	44845.91
545.679	45202.25
545.879	44804.95
546.079	45032.27
546.28	44745.56
546.48	44706.65
546.68	45099.86
546.88	45067.09
547.08	44735.32
547.28	44661.59
547.48	44368.73
547.68	44964.69
547.88	44479.32
548.081	44817.24
548.281	44555.1
548.481	44563.29
548.681	45278.03
548.881	44784.47
549.081	45095.76
549.28	44518.23
549.48	44981.07
549.68	44774.23
549.88	45288.27
550.08	44559.19
550.28	44870.48
550.48	44624.73
550.68	44708.69
550.88	44473.18
551.08	44890.96
551.279	44688.21
551.479	44483.42
551.679	44632.92
551.879	44579.67
552.079	44397.4
552.278	44763.99
552.478	44553.05
552.678	44378.97
552.878	44800.85
553.077	44266.33
553.277	43903.84
553.477	44948.31
553.676	44307.29
553.876	44538.71
554.076	44018.53
554.275	43809.64
554.475	43580.26
554.674	44122.97
554.874	44360.54
555.074	44282.72
555.273	44088.16
555.473	44014.43
555.672	43631.46
555.872	43791.2
556.071	43830.12
556.271	44049.25
556.47	43881.31
556.67	43215.72
556.869	43479.91
557.068	43819.88
557.268	43293.55
557.467	43893.6
557.667	43555.69
557.866	43490.15
558.065	43338.6
558.265	43105.13
558.464	43105.13
558.663	43334.51
558.863	43080.56
559.062	43330.41
559.261	42580.85
559.461	43547.5
559.66	42509.18
559.859	42738.55
560.058	42503.03
560.258	42982.26
560.457	42552.18
560.656	42388.35
560.855	42584.95
561.054	42650.49
561.253	42275.71
561.453	42249.08
561.652	42744.69
561.851	42509.18
562.05	41943.94
562.249	41765.76
562.448	42533.75
562.647	42050.43
562.846	41767.81
563.045	42263.42
563.244	41302.92
563.443	42187.64
563.642	41108.36
563.841	41829.25
564.04	41483.14
564.239	41526.15
564.438	41151.37
564.637	41149.32
564.836	41165.71
565.035	40442.77
565.234	40442.77
565.432	40434.58
565.631	40539.03
565.83	40577.94
566.029	40342.42
566.228	40403.86
566.427	40311.7
566.625	39994.27
566.824	39848.86
567.023	40264.6
567.222	39216.04
567.42	40024.99
567.619	39521.19
567.818	39533.48
568.016	39246.76
568.215	39668.64
568.414	39429.03
568.612	39553.96
568.811	38851.5
569.01	39338.92
569.208	38595.51
569.407	39195.56
569.605	38292.41
569.804	38892.46
570.002	38069.18
570.201	38747.06
570.4	38249.4
570.598	38251.45
570.797	37813.18
570.995	38286.26
571.193	37835.71
571.392	38276.02
571.59	37395.4
571.789	37530.56
571.987	37614.53
572.186	37694.4
572.384	37336.01
572.582	37280.71
572.781	37166.02
572.979	36883.41
573.177	36914.12
573.376	36936.65
573.574	36608.98
573.772	36529.11
573.971	36617.17
574.169	36047.83
574.367	36260.82
574.565	36551.63
574.763	35742.69
574.962	35990.49
575.16	35533.79
575.358	36047.83
575.556	35296.23
575.754	36058.07
575.952	35390.44
576.151	35691.49
576.349	35355.62
576.547	35023.85
576.745	35044.33
576.943	35212.26
577.141	34943.98
577.339	35029.99
577.537	34864.11
577.735	34331.64
577.933	34507.76
578.131	34348.02
578.329	34282.48
578.527	33797.12
578.725	34243.57
578.923	34325.49
579.121	33932.28
579.319	34118.65
579.516	34282.48
579.714	33926.14
579.912	33518.59
580.11	33209.35
580.308	33575.94
580.506	33231.88
580.704	32941.07
580.901	33467.39
581.099	33104.9
581.297	32789.52
581.495	32701.45
581.692	33043.46
581.89	32392.21
582.088	33000.46
582.285	32494.61
582.483	32732.17
582.681	32564.24
582.878	32455.7
583.076	32224.28
583.274	32451.6
583.471	31796.25
583.669	31906.84
583.866	31394.85
584.064	31931.42
584.262	31249.44
584.459	32003.1
584.657	31165.48
584.854	31310.88
585.052	30669.87
585.249	31226.92
585.447	31165.48
585.644	30669.87
585.841	31058.98
586.039	31050.79
586.236	30444.59
586.434	30348.34
586.631	30655.53
586.828	30407.73
587.026	30516.27
587.223	30364.72
587.42	30247.99
587.618	29895.74
587.815	29590.59
588.012	29969.46
588.21	29426.75
588.407	29600.83
588.604	29414.46
588.801	29277.25
588.999	29649.98
589.196	29115.46
589.393	29162.56
589.59	29041.73
589.787	29125.7
589.984	28898.38
590.182	28582.99
590.379	29150.28
590.576	28511.31
590.773	28597.32
590.97	28415.05
591.167	28521.55
591.364	27950.17
591.561	28449.87
591.758	28054.61
591.955	28255.31
592.152	27898.97
592.349	27880.53
592.546	27782.23
592.743	28138.58
592.94	27868.25
593.137	27470.94
593.334	27608.15
593.531	27163.75
593.727	27395.17
593.924	26842.21
594.121	27042.92
594.318	27016.29
594.515	27020.39
594.712	27282.53
594.908	26602.6
595.105	26891.37
595.302	26530.92
595.499	26539.12
595.696	26420.33
595.892	26166.38
596.089	26332.27
596.286	26295.41
596.482	26115.19
596.679	25994.36
596.876	25957.49
597.072	25738.36
597.269	25812.09
597.466	25443.45
597.662	25488.51
597.859	25656.44
598.055	25631.86
598.252	25240.7
598.448	25316.48
598.645	25126.02
598.841	24925.32
599.038	25134.21
599.234	25021.57
599.431	24800.39
599.627	24886.4
599.824	24892.55
600.02	24454.28
600.217	24700.04
600.413	24505.48
600.609	24378.51
600.806	24165.52
601.002	24364.17
601.198	24153.23
601.395	23938.19
601.591	23809.17
601.787	23882.9
601.984	23809.17
602.18	24032.4
602.376	23563.42
602.572	23612.57
602.769	23559.32
602.965	23526.55
603.161	23534.74
603.357	23332
603.553	23323.8
603.75	23192.73
603.946	23026.85
604.142	22938.79
604.338	22736.04
604.534	22693.03
604.73	22625.45
604.926	22785.19
605.122	22885.54
605.318	22803.62
605.514	22584.49
605.71	22353.07
605.906	22293.68
606.102	22183.09
606.298	22281.39
606.494	22041.78
606.69	22025.39
606.886	22275.24
607.082	21796.02
607.278	22172.85
607.474	21824.69
607.67	21677.24
607.866	21656.76
608.062	21855.41
608.257	21382.33
608.453	21609.65
608.649	21746.87
608.845	21296.32
609.041	21634.23
609.236	21576.89
609.432	21324.99
609.628	21183.68
609.824	21320.89
610.019	20991.17
610.215	20849.86
610.411	21216.44
610.606	20860.1
610.802	20923.58
610.998	20786.37
611.193	20772.04
611.389	20907.2
611.584	20739.27
611.78	20561.09
611.976	20690.12
612.171	20585.67
612.367	20493.51
612.562	20620.49
612.758	20149.45
612.953	20249.8
613.149	20499.66
613.344	20274.38
613.539	20790.47
613.735	20466.89
613.93	20321.48
614.126	20309.19
614.321	20245.71
614.517	20294.86
614.712	20282.57
614.907	20034.77
615.103	20073.68
615.298	19944.66
615.493	20198.6
615.688	19848.4
615.884	19944.66
616.079	19485.91
616.274	19776.72
616.47	19541.21
616.665	19760.34
616.86	19616.98
617.055	19619.03
617.25	19594.45
617.445	19449.05
617.641	19307.74
617.836	19543.25
618.031	19098.84
618.226	19320.03
618.421	19229.91
618.616	19217.63
618.811	19006.69
619.006	19268.83
619.201	18722.02
619.396	18826.46
619.591	18556.13
619.786	18844.9
619.981	18466.02
620.176	18699.49
620.371	18269.42
620.566	18584.8
620.761	18240.75
620.956	18388.2
621.151	18033.9
621.346	18173.16
621.541	17849.58
621.735	18107.63
621.93	17657.07
622.125	17884.4
622.32	17675.51
622.515	17798.38
622.709	17493.24
622.904	17427.7
623.099	17194.23
623.294	17417.46
623.488	16917.76
623.683	17210.62
623.878	16815.36
624.072	16889.09
624.267	17005.82
624.462	16780.54
624.656	16495.88
624.851	16487.68
625.046	16561.41
625.24	16508.16
625.435	16280.84
625.629	16006.41
625.824	16178.44
626.018	15994.12
626.213	15678.74
626.407	15705.36
626.602	15478.04
626.796	15568.15
626.991	15609.11
627.185	15385.88
627.38	15551.76
627.574	15303.96
627.768	15263
627.963	15095.07
628.157	14976.28
628.352	15039.77
628.546	14318.89
628.74	15074.59
628.935	14705.95
629.129	14679.33
629.323	14531.87
629.517	14480.68
629.712	14351.65
629.906	14353.7
630.1	14132.52
630.294	14273.83
630.489	13942.06
630.683	14159.14
630.877	13886.76
631.071	13874.48
631.265	13888.81
631.459	13653.3
631.653	13741.36
631.848	13520.18
632.042	13561.14
632.236	13501.75
632.43	13231.41
632.624	13452.59
632.818	13331.76
633.012	13108.54
633.206	13163.83
633.4	13047.1
633.594	12934.46
633.788	13024.57
633.982	12815.68
634.176	12920.12
634.369	12631.36
634.563	12557.63
634.757	12313.92
634.951	12772.67
635.145	12494.15
635.339	12471.62
635.533	12442.95
635.726	12404.03
635.92	12215.62
636.114	12102.98
636.308	12049.74
636.501	12174.66
636.695	11935.05
636.889	11894.09
637.083	11736.4
637.276	11953.48
637.47	11699.53
637.664	11703.63
637.857	11607.37
638.051	11709.77
638.244	11595.09
638.438	11406.67
638.632	11326.8
638.825	11146.58
639.019	11236.69
639.212	11216.21
639.406	11128.15
639.599	11056.47
639.793	11027.8
639.986	10741.08
640.18	10736.99
640.373	10937.69
640.567	10628.45
640.76	10593.63
640.954	10648.93
641.147	10507.62
641.34	10638.69
641.534	10306.91
641.727	10544.48
641.92	10456.42
642.114	10339.68
642.307	10216.8
642.5	10063.21
642.694	9997.67
642.887	9960.81
643.08	10075.49
643.273	10005.86
643.467	9930.09
643.66	9917.8
643.853	9606.51
644.046	9592.17
644.239	9639.28
644.432	9604.46
644.626	9590.13
644.819	9319.79
645.012	9594.22
645.205	9448.82
645.398	9438.58
645.591	9297.27
645.784	9342.32
645.977	9301.36
646.17	9215.35
646.363	8981.88
646.556	8912.25
646.749	8959.35
646.942	9059.7
647.135	9004.41
647.328	8949.11
647.521	8930.68
647.714	8627.58
647.907	8758.65
648.099	8680.83
648.292	8619.39
648.485	8727.93
648.678	8486.27
648.871	8490.37
649.064	8486.27
649.256	8369.54
649.449	8308.1
649.642	8230.27
649.835	8160.64
650.027	8260.99
650.22	8269.19
650.413	8301.95
650.605	8248.71
650.798	8150.4
650.991	8002.95
651.183	8140.16
651.376	8035.72
651.568	8140.16
651.761	7925.13
651.954	7886.22
652.146	7853.45
652.339	7740.81
652.531	7749
652.724	7753.1
652.916	7501.2
653.109	7484.81
653.301	7601.55
653.494	7499.15
653.686	7480.72
653.879	7673.23
654.071	7513.49
654.263	7294.35
654.456	7503.25
654.648	7331.22
654.84	7388.56
655.033	7331.22
655.225	7267.73
655.417	7243.15
655.61	7181.71
655.802	7171.47
655.994	7220.63
656.186	7081.36
656.379	7075.22
656.571	7175.57
656.763	6976.92
656.955	6835.61
657.148	6796.7
657.34	7011.73
657.532	6671.77
657.724	6761.88
657.916	6759.83
658.108	6815.13
658.3	6815.13
658.492	6688.15
658.684	6573.47
658.876	6602.14
659.068	6579.61
659.26	6493.6
659.452	6591.9
659.644	6581.66
659.836	6342.05
660.028	6477.21
660.22	6217.12
660.412	6219.17
660.604	6327.71
660.796	6299.04
660.988	6118.82
661.18	6159.78
661.372	6151.59
661.563	6124.96
661.755	6000.04
661.947	6157.73
662.139	6088.1
662.331	5821.86
662.522	5950.89
662.714	5903.78
662.906	5901.73
663.097	6084
663.289	5817.77
663.481	5793.19
663.673	5819.82
663.864	5760.42
664.056	5741.99
664.247	5823.91
664.439	5741.99
664.631	5719.46
664.822	5848.49
665.014	5932.45
665.205	5756.33
665.397	5465.52
665.588	5676.46
665.78	5531.05
665.971	5541.29
666.163	5504.43
666.354	5518.76
666.546	5606.83
666.737	5328.3
666.929	5305.78
667.12	5506.48
667.311	5408.17
667.503	5279.15
667.694	5346.73
667.885	5322.16
668.077	5268.91
668.268	5297.58
668.459	5279.15
668.651	5172.66
668.842	5223.86
669.033	5103.03
669.224	5092.79
669.416	5160.37
669.607	5109.17
669.798	5146.03
669.989	5207.47
670.18	5029.3
670.371	5076.4
670.563	4961.72
670.754	4928.95
670.945	5129.65
671.136	5051.83
671.327	5053.87
671.518	4931
671.709	5180.85
671.9	5049.78
672.091	5019.06
672.282	4902.33
672.473	4838.84
672.664	4902.33
672.855	4842.93
673.046	4986.29
673.237	5000.63
673.428	4806.07
673.619	4969.91
673.809	4793.78
674	4754.87
674.191	4744.63
674.382	4750.78
674.573	4754.87
674.764	4742.58
674.954	4675
675.145	4871.61
675.336	4679.1
675.527	4740.54
675.717	4810.17
675.908	4601.27
676.099	4640.19
676.289	4668.86
676.48	4588.99
676.671	4580.79
676.861	4601.27
677.052	4658.62
677.243	4625.85
677.433	4806.07
677.624	4789.69
677.814	4615.61
678.005	4578.75
678.195	4599.23
678.386	4642.23
678.576	4627.9
678.767	4720.06
678.957	4629.95
679.148	4568.51
679.338	4556.22
679.529	4658.62
679.719	4613.56
679.909	4580.79
680.1	4541.88
680.29	4545.98
680.481	4496.83
680.671	4597.18
680.861	4492.73
681.052	4609.47
681.242	4427.2
681.432	4527.55
681.622	4496.83
681.813	4666.81
682.003	4613.56
682.193	4412.86
682.383	4543.93
682.573	4455.87
682.764	4449.72
682.954	4359.61
683.144	4541.88
683.334	4406.72
683.524	4371.9
683.714	4531.64
683.904	4439.48
684.094	4390.33
684.284	4439.48
684.474	4369.85
684.664	4363.71
684.854	4480.44
685.044	4410.81
685.234	4326.85
685.424	4380.09
685.614	4185.54
685.804	4312.51
685.994	4287.93
686.184	4316.61
686.374	4275.65
686.564	4359.61
686.753	4320.7
686.943	4292.03
687.133	4195.78
687.323	4179.39
687.513	4322.75
687.702	4083.14
687.892	4193.73
688.082	4044.23
688.272	4158.91
688.461	4062.66
688.651	4234.69
688.841	4076.99
689.03	4115.91
689.22	4126.15
689.41	4134.34
689.599	3978.69
689.789	3921.35
689.979	3902.92
690.168	3990.98
690.358	4042.18
690.547	3954.12
690.737	3921.35
690.926	4007.36
691.116	3843.53
691.305	3874.24
691.495	3966.4
691.684	3802.57
691.874	3923.4
692.063	3847.62
692.252	3792.33
692.442	3708.36
692.631	3804.61
692.82	3718.6
693.01	3759.56
693.199	3722.7
693.388	3677.64
693.578	3655.11
693.767	3669.45
693.956	3749.32
694.146	3708.36
694.335	3696.07
694.524	3659.21
694.713	3577.29
694.902	3698.12
695.092	3704.26
695.281	3651.02
695.47	3646.92
695.659	3521.99
695.848	3560.91
696.037	3530.19
696.226	3782.09
696.415	3597.77
696.604	3456.46
696.793	3597.77
696.982	3524.04
697.171	3481.03
697.36	3620.3
697.549	3483.08
697.738	3483.08
697.927	3390.92
698.116	3517.9
698.305	3659.21
698.494	3491.27
698.683	3450.32
698.872	3499.47
699.061	3565
699.25	3528.14
699.438	3423.69
699.627	3440.08
699.816	3517.9
700.005	3372.49
700.193	3548.62
700.382	3548.62
700.571	3429.84
700.76	3507.66
700.948	3493.32
701.137	3427.79
701.326	3528.14
701.514	3462.6
701.703	3556.81
701.892	3478.99
702.08	3552.71
702.269	3493.32
702.457	3470.8
702.646	3503.56
702.834	3390.92
703.023	3464.65
703.212	3403.21
703.4	3444.17
703.589	3470.8
703.777	3466.7
703.965	3435.98
704.154	3405.26
704.342	3462.6
704.531	3573.19
704.719	3448.27
704.907	3378.64
705.096	3532.23
705.284	3270.09
705.472	3380.68
705.661	3390.92
705.849	3552.71
706.037	3470.8
706.226	3470.8
706.414	3349.96
706.602	3442.12
706.79	3415.5
706.979	3335.63
707.167	3532.23
707.355	3386.83
707.543	3347.92
707.731	3489.23
707.919	3501.51
708.107	3395.02
708.296	3495.37
708.484	3368.4
708.672	3427.79
708.86	3538.38
709.048	3505.61
709.236	3450.32
709.424	3425.74
709.612	3446.22
709.8	3356.11
709.988	3425.74
710.176	3464.65
710.364	3526.09
710.551	3352.01
710.739	3519.95
710.927	3380.68
711.115	3591.63
711.303	3399.12
711.491	3476.94
711.679	3419.6
711.866	3341.77
712.054	3585.48
712.242	3425.74
712.43	3419.6
712.617	3560.91
712.805	3515.85
712.993	3540.43
713.181	3509.71
713.368	3388.88
713.556	3653.06
713.744	3501.51
713.931	3634.63
714.119	3505.61
714.306	3493.32
714.494	3495.37
714.682	3419.6
714.869	3458.51
715.057	3421.64
715.244	3380.68
715.432	3646.92
715.619	3562.95
715.807	3462.6
715.994	3505.61
716.182	3542.47
716.369	3503.56
716.556	3614.15
716.744	3542.47
716.931	3499.47
717.119	3644.87
717.306	3438.03
717.493	3589.58
717.681	3614.15
717.868	3505.61
718.055	3517.9
718.242	3599.82
718.43	3413.45
718.617	3499.47
718.804	3417.55
718.991	3638.73
719.179	3503.56
719.366	3694.02
719.553	3630.54
719.74	3644.87
719.927	3511.75
720.114	3497.42
720.301	3468.75
720.488	3483.08
720.676	3487.18
720.863	3503.56
721.05	3515.85
721.237	3567.05
721.424	3524.04
721.611	3368.4
721.798	3489.23
721.985	3483.08
722.172	3489.23
722.358	3507.66
722.545	3485.13
722.732	3503.56
722.919	3454.41
723.106	3470.8
723.293	3573.19
723.48	3462.6
723.667	3534.28
723.853	3577.29
724.04	3513.8
724.227	3562.95
724.414	3616.2
724.6	3499.47
724.787	3489.23
724.974	3618.25
725.161	3554.76
725.347	3558.86
725.534	3511.75
725.72	3444.17
725.907	3517.9
726.094	3550.67
726.28	3585.48
726.467	3458.51
726.653	3417.55
726.84	3562.95
727.027	3499.47
727.213	3403.21
727.4	3470.8
727.586	3442.12
727.773	3368.4
727.959	3315.15
728.145	3460.56
728.332	3493.32
728.518	3427.79
728.705	3499.47
728.891	3554.76
729.077	3417.55
729.264	3368.4
729.45	3376.59
729.636	3450.32
729.823	3499.47
730.009	3456.46
730.195	3413.45
730.382	3556.81
730.568	3333.58
730.754	3456.46
730.94	3448.27
731.126	3509.71
731.313	3483.08
731.499	3409.36
731.685	3405.26
731.871	3438.03
732.057	3456.46
732.243	3587.53
732.429	3587.53
732.615	3222.99
732.801	3282.38
732.987	3362.25
733.173	3532.23
733.359	3319.25
733.545	3345.87
733.731	3421.64
733.917	3354.06
734.103	3472.84
734.289	3456.46
734.475	3227.09
734.661	3487.18
734.847	3380.68
735.033	3352.01
735.219	3360.2
735.404	3253.71
735.59	3188.18
735.776	3335.63
735.962	3364.3
736.148	3349.96
736.333	3323.34
736.519	3294.67
736.705	3313.1
736.89	3220.94
737.076	3220.94
737.262	3272.14
737.447	3239.37
737.633	3298.77
737.819	3231.18
738.004	3370.44
738.19	3253.71
738.375	3089.87
738.561	3292.62
738.747	3245.52
738.932	3261.9
739.118	3257.81
739.303	3139.02
739.489	3155.41
739.674	3173.84
739.859	3093.97
740.045	3149.26
740.23	3192.27
740.416	2995.67
740.601	3128.78
740.786	3014.1
740.972	3010
741.157	3020.24
741.342	2991.57
741.528	3096.02
741.713	3079.63
741.898	3134.93
742.084	2983.38
742.269	3128.78
742.454	3059.15
742.639	3014.1
742.824	2936.28
743.01	2864.6
743.195	2991.57
743.38	2954.71
743.565	2966.99
743.75	2952.66
743.935	2942.42
744.12	2977.23
744.305	2966.99
744.49	2866.64
744.675	2801.11
744.86	2801.11
745.045	2872.79
745.23	2938.32
745.415	2776.53
745.6	2823.64
745.785	2823.64
745.97	2788.82
746.155	2772.44
746.34	2682.33
746.525	2754.01
746.71	2731.48
746.895	2627.03
747.079	2565.59
747.264	2557.4
747.449	2526.68
747.634	2627.03
747.819	2606.55
748.003	2598.36
748.188	2479.58
748.373	2426.33
748.557	2438.62
748.742	2479.58
748.927	2459.1
749.111	2455
749.296	2504.15
749.481	2414.04
749.665	2434.52
749.85	2416.09
750.034	2412
750.219	2332.12
750.404	2239.97
750.588	2344.41
750.773	2303.45
750.957	2371.04
751.141	2291.17
751.326	2262.49
751.51	2315.74
751.695	2266.59
751.879	2274.78
752.064	2192.86
752.248	2260.45
752.432	2332.12
752.617	2102.75
752.801	2235.87
752.985	2174.43
753.17	2233.82
753.354	2102.75
753.538	2090.46
753.722	2057.7
753.907	1998.31
754.091	2031.07
754.275	1965.54
754.459	2129.38
754.643	1992.16
754.828	2061.79
755.012	2016.74
755.196	1854.95
755.38	1848.8
755.564	1883.62
755.748	1897.96
755.932	1914.34
756.116	1865.19
756.3	1852.9
756.484	1844.71
756.668	1904.1
756.852	1797.6
757.036	1828.32
757.22	1797.6
757.404	1732.07
757.588	1744.36
757.772	1723.88
757.956	1803.75
758.14	1746.41
758.323	1648.1
758.507	1734.12
758.691	1783.27
758.875	1605.1
759.059	1633.77
759.242	1680.87
759.426	1660.39
759.61	1598.95
759.794	1598.95
759.977	1633.77
760.161	1650.15
760.345	1590.76
760.528	1521.13
760.712	1578.47
760.895	1527.27
761.079	1644.01
761.263	1584.62
761.446	1514.98
761.63	1521.13
761.813	1525.22
761.997	1531.37
762.18	1424.87
762.364	1506.79
762.547	1406.44
762.731	1445.35
762.914	1416.68
763.098	1381.87
763.281	1428.97
763.464	1521.13
763.648	1398.25
763.831	1418.73
764.015	1420.78
764.198	1514.98
764.381	1451.5
764.564	1326.57
764.748	1349.1
764.931	1463.79
765.114	1379.82
765.297	1248.75
765.481	1353.2
765.664	1353.2
765.847	1373.68
766.03	1289.71
766.213	1304.04
766.397	1400.3
766.58	1218.03
766.763	1312.24
766.946	1289.71
767.129	1261.04
767.312	1258.99
767.495	1357.29
767.678	1234.41
767.861	1252.84
768.044	1316.33
768.227	1295.85
768.41	1224.17
768.593	1295.85
768.776	1232.37
768.959	1213.93
769.142	1209.84
769.324	1203.69
769.507	1207.79
769.69	1119.73
769.873	1261.04
770.056	1291.76
770.239	1209.84
770.421	1222.13
770.604	1162.73
770.787	1060.34
770.97	1113.58
771.152	1125.87
771.335	1121.77
771.518	1158.64
771.7	1215.98
771.883	1160.69
772.066	1072.62
772.248	1134.06
772.431	1113.58
772.613	1064.43
772.796	1013.23
772.978	1142.25
773.161	1136.11
773.343	996.85
773.526	1000.94
773.708	1052.14
773.891	988.66
774.073	1019.38
774.256	986.61
774.438	1066.48
774.621	1037.81
774.803	1027.57
774.985	941.55
775.168	939.51
775.35	898.55
775.532	1017.33
775.715	923.12
775.897	1021.42
776.079	1002.99
776.261	1021.42
776.444	957.94
776.626	921.07
776.808	935.41
776.99	835.06
777.173	828.92
777.355	822.77
777.537	853.49
777.719	878.07
777.901	853.49
778.083	941.55
778.265	802.29
778.447	937.46
778.629	830.96
778.811	828.92
778.993	968.18
779.175	949.75
779.357	773.62
779.539	810.48
779.721	849.4
779.903	820.72
780.085	853.49
780.267	781.81
780.449	763.38
780.631	865.78
780.812	849.4
780.994	720.37
781.176	718.33
781.358	652.79
781.54	726.52
781.721	732.66
781.903	685.56
782.085	722.42
782.267	742.9
782.448	634.36
782.63	650.74
782.812	683.51
782.993	683.51
783.175	642.55
783.357	685.56
783.538	677.37
783.72	683.51
783.901	665.08
784.083	611.83
784.264	603.64
784.446	591.35
784.627	566.78
784.809	628.21
784.99	546.3
785.172	636.41
785.353	587.26
785.535	595.45
785.716	593.4
785.897	529.91
786.079	632.31
786.26	581.11
786.441	562.68
786.623	568.82
786.804	550.39
786.985	609.78
787.167	515.58
787.348	552.44
787.529	521.72
787.71	593.4
787.891	456.19
788.073	552.44
788.254	456.19
788.435	529.91
788.616	550.39
788.797	493.05
788.978	472.57
789.159	443.9
789.34	466.42
789.522	499.19
789.703	488.95
789.884	464.38
790.065	452.09
790.246	460.28
790.427	452.09
790.607	484.86
790.788	536.06
790.969	488.95
791.15	513.53
791.331	470.52
791.512	421.37
791.693	390.65
791.874	351.74
792.054	458.23
792.235	474.62
792.416	323.07
792.597	427.51
792.778	431.61
792.958	431.61
793.139	421.37
793.32	398.84
793.5	333.31
793.681	400.89
793.862	435.71
794.042	415.23
794.223	349.69
794.404	374.27
794.584	341.5
794.765	423.42
794.945	388.6
795.126	404.99
795.306	445.95
795.487	364.03
795.667	345.59
795.848	402.94
796.028	447.99
796.209	415.23
796.389	388.6
796.57	353.79
796.75	312.83
796.93	333.31
797.111	384.51
797.291	353.79
797.471	347.64
797.652	339.45
797.832	310.78
798.012	376.31
798.192	364.03
798.373	263.68
798.553	341.5
798.733	345.59
798.913	353.79
799.093	275.96
799.274	237.05
799.454	314.88
799.634	300.54
799.814	323.07
799.994	310.78
800.174	306.68
800.354	343.55
800.534	271.87
800.714	321.02
800.894	329.21
801.074	237.05
801.254	249.34
801.434	261.63
801.614	275.96
801.794	224.76
801.974	742.9
802.154	218.62
802.334	280.06
802.514	228.86
802.693	275.96
802.873	228.86
803.053	275.96
803.233	243.2
803.413	230.91
803.592	263.68
803.772	284.16
803.952	265.72
804.131	280.06
804.311	294.4
804.491	345.59
804.67	294.4
804.85	304.64
805.03	235
805.209	341.5
805.389	337.4
805.568	245.24
805.748	187.9
805.928	224.76
806.107	218.62
806.287	228.86
806.466	208.38
806.646	151.04
806.825	218.62
807.004	239.1
807.184	249.34
807.363	286.2
807.543	286.2
807.722	212.48
807.901	239.1
808.081	249.34
808.26	177.66
808.439	257.53
808.619	284.16
808.798	228.86
808.977	306.68
809.156	198.14
809.336	216.57
809.515	196.09
809.694	208.38
809.873	214.52
810.052	284.16
810.231	241.15
810.411	216.57
810.59	239.1
810.769	136.7
810.948	286.2
811.127	148.99
811.306	155.13
811.485	204.28
811.664	257.53
811.843	153.09
812.022	161.28
812.201	251.39
812.38	79.36
812.559	212.48
812.737	179.71
812.916	189.95
813.095	196.09
813.274	194.05
813.453	120.32
813.632	163.33
813.811	230.91
813.989	192
814.168	228.86
814.347	110.08
814.526	183.81
814.704	181.76
814.883	167.42
815.062	112.13
815.24	212.48
815.419	161.28
815.598	138.75
815.776	177.66
815.955	200.19
816.133	126.46
816.312	144.89
816.49	155.13
816.669	140.8
816.847	157.18
817.026	241.15
817.204	144.89
817.383	155.13
817.561	155.13
817.74	187.9
817.918	183.81
818.097	148.99
818.275	112.13
818.453	179.71
818.632	140.8
818.81	206.33
818.988	185.85
819.167	126.46
819.345	122.37
819.523	136.7
819.701	159.23
819.879	146.94
820.058	136.7
820.236	95.74
820.414	99.84
820.592	116.22
820.77	105.98
820.948	173.57
821.127	120.32
821.305	185.85
821.483	103.93
821.661	128.51
821.839	146.94
822.017	99.84
822.195	108.03
822.373	130.56
822.551	91.65
822.729	194.05
822.907	194.05
823.085	177.66
823.262	118.27
823.44	132.61
823.618	75.26
823.796	116.22
823.974	108.03
824.152	140.8
824.329	126.46
824.507	62.98
824.685	157.18
824.863	151.04
825.04	124.41
825.218	134.65
825.396	75.26
825.574	81.41
825.751	46.59
825.929	69.12
826.107	22.02
826.284	122.37
826.462	85.5
826.639	124.41
826.817	56.83
826.994	105.98
827.172	75.26
827.349	144.89
827.527	134.65
827.704	155.13
827.882	130.56
828.059	97.79
828.237	155.13
828.414	71.17
828.591	73.21
828.769	130.56
828.946	97.79
829.124	132.61
829.301	99.84
829.478	79.36
829.655	91.65
829.833	36.35
830.01	159.23
830.187	83.45
830.364	17.92
830.542	110.08
830.719	105.98
830.896	165.37
831.073	122.37
831.25	110.08
831.427	75.26
831.604	83.45
831.782	34.3
831.959	120.32
832.136	36.35
832.313	48.64
832.49	97.79
832.667	126.46
832.844	95.74
833.021	112.13
833.198	120.32
833.374	36.35
833.551	44.54
833.728	105.98
833.905	85.5
834.082	34.3
834.259	34.3
834.436	93.69
834.612	28.16
834.789	26.11
834.966	34.3
835.143	95.74
835.319	24.06
835.496	62.98
835.673	103.93
835.85	171.52
836.026	89.6
836.203	38.4
836.38	28.16
836.556	108.03
836.733	120.32
836.909	85.5
837.086	89.6
837.262	71.17
837.439	28.16
837.616	-18.94
837.792	87.55
837.968	91.65
838.145	-14.85
838.321	1.54
838.498	91.65
838.674	69.12
838.851	46.59
839.027	46.59
839.203	110.08
839.38	91.65
839.556	50.69
839.732	142.85
839.909	-45.57
840.085	28.16
840.261	13.82
840.437	38.4
840.614	112.13
840.79	71.17
840.966	124.41
841.142	48.64
841.318	114.17
841.494	44.54
841.671	126.46
841.847	126.46
842.023	19.97
842.199	58.88
842.375	44.54
842.551	-10.75
842.727	52.74
842.903	163.33
843.079	38.4
843.255	36.35
843.431	-31.23
843.607	140.8
843.783	-8.7
843.959	58.88
844.134	-8.7
844.31	26.11
844.486	19.97
844.662	-29.18
844.838	-18.94
845.013	67.07
845.189	103.93
845.365	81.41
845.541	11.78
845.716	83.45
845.892	77.31
846.068	13.82
846.244	50.69
846.419	44.54
846.595	-18.94
846.77	77.31
846.946	15.87
847.122	75.26
847.297	13.82
847.473	97.79
847.648	30.21
847.824	34.3
847.999	-31.23
848.175	65.02
848.35	52.74
848.526	67.07
848.701	9.73
848.876	42.5
849.052	40.45
849.227	-27.14
849.403	-16.9
849.578	-14.85
849.753	-6.66
849.929	73.21
850.104	-61.95
850.279	-10.75
850.454	32.26
850.63	-10.75
850.805	-2.56
850.98	69.12
851.155	19.97
851.33	26.11
851.505	-16.9
851.681	9.73
851.856	15.87
852.031	40.45
852.206	7.68
852.381	38.4
852.556	50.69
852.731	-37.38
852.906	40.45
853.081	13.82
853.256	103.93
853.431	52.74
853.606	30.21
853.781	-20.99
853.956	-27.14
854.131	75.26
854.305	30.21
854.48	42.5
854.655	34.3
854.83	17.92
855.005	-23.04
855.18	28.16
855.354	38.4
855.529	-8.7
855.704	-6.66
855.879	44.54
856.053	-10.75
856.228	9.73
856.403	24.06
856.577	24.06
856.752	19.97
856.926	75.26
857.101	-6.66
857.276	44.54
857.45	-6.66
857.625	30.21
857.799	-8.7
857.974	34.3
858.148	-70.14
858.323	-2.56
858.497	3.58
858.672	22.02
858.846	-16.9
859.02	13.82
859.195	32.26
859.369	-47.62
859.543	3.58
859.718	1.54
859.892	52.74
860.066	99.84
860.241	-41.47
860.415	36.35
860.589	30.21
860.763	69.12
860.938	-43.52
861.112	71.17
861.286	-25.09
861.46	26.11
861.634	42.5
861.808	-18.94
861.982	-45.57
862.157	34.3
862.331	-23.04
862.505	-6.66
862.679	-84.48
862.853	1.54
863.027	-31.23
863.201	44.54
863.375	-14.85
863.549	40.45
863.722	-39.42
863.896	22.02
864.07	26.11
864.244	46.59
864.418	56.83
864.592	-20.99
864.766	-23.04
864.939	1.54
865.113	-68.09
865.287	50.69
865.461	-55.81
865.634	17.92
865.808	11.78
865.982	99.84
866.156	40.45
866.329	-29.18
866.503	36.35
866.676	48.64
866.85	52.74
867.024	-35.33
867.197	67.07
867.371	13.82
867.544	5.63
867.718	-57.86
867.891	22.02
868.065	-25.09
868.238	-16.9
868.412	81.41
868.585	-31.23
868.759	-43.52
868.932	40.45
869.105	-8.7
869.279	1.54
869.452	46.59
869.625	17.92
869.799	1.54
869.972	17.92
870.145	-51.71
870.319	-35.33
870.492	-64
870.665	-39.42
870.838	-51.71
871.011	-90.62
871.185	-2.56
871.358	19.97
871.531	-39.42
871.704	36.35
871.877	46.59
872.05	-64
872.223	-74.24
872.396	13.82
872.569	28.16
872.742	-16.9
872.915	26.11
873.088	-80.38
873.261	-27.14
873.434	-10.75
873.607	3.58
873.78	11.78
873.953	30.21
874.126	-27.14
874.299	-43.52
874.471	22.02
874.644	-66.05
874.817	9.73
874.99	50.69
875.163	-35.33
875.335	13.82
875.508	-64
875.681	13.82
875.853	-14.85
876.026	-16.9
876.199	-23.04
876.371	-18.94
876.544	38.4
876.717	-45.57
876.889	-29.18
877.062	38.4
877.234	-29.18
877.407	-10.75
877.579	-61.95
877.752	24.06
877.924	5.63
878.097	-4.61
878.269	7.68
878.442	5.63
878.614	26.11
878.786	-8.7
878.959	9.73
879.131	-59.9
879.303	5.63
879.476	-4.61
879.648	1.54
879.82	-64
879.993	-12.8
880.165	-51.71
880.337	-59.9
880.509	-27.14
880.681	-8.7
880.854	26.11
881.026	-4.61
881.198	19.97
881.37	38.4
881.542	24.06
881.714	-29.18
881.886	-25.09
882.058	-45.57
882.23	-4.61
882.402	-27.14
882.574	15.87
882.746	-25.09
882.918	-27.14
883.09	-10.75
883.262	-29.18
883.434	22.02
883.606	-53.76
883.778	-43.52
883.95	71.17
884.122	-2.56
884.293	30.21
884.465	-16.9
884.637	26.11
884.809	-27.14
884.98	42.5
885.152	15.87
885.324	-2.56
885.496	-61.95
885.667	9.73
885.839	-41.47
886.011	-14.85
886.182	-0.51
886.354	46.59
886.525	-10.75
886.697	54.78
886.869	89.6
887.04	-20.99
887.212	17.92
887.383	-2.56
887.555	24.06
887.726	-0.51
887.897	-20.99
888.069	-18.94
888.24	-20.99
888.412	77.31
888.583	36.35
888.754	-12.8
888.926	-80.38
889.097	-72.19
889.268	-51.71
889.44	9.73
889.611	-4.61
889.782	-64
889.953	-35.33
890.125	46.59
890.296	-51.71
890.467	22.02
890.638	-8.7
890.809	13.82
890.98	-29.18
891.151	-100.86
891.323	22.02
891.494	-6.66
891.665	-59.9
891.836	24.06
892.007	-27.14
892.178	7.68
892.349	60.93
892.52	32.26
892.691	-51.71
892.862	-55.81
893.032	-27.14
893.203	-59.9
893.374	-39.42
893.545	38.4
893.716	-23.04
893.887	46.59
894.057	-59.9
894.228	-14.85
894.399	19.97
894.57	-12.8
894.74	-31.23
894.911	-10.75
895.082	-61.95
895.253	-59.9
895.423	-6.66
895.594	-33.28
895.764	-45.57
895.935	-84.48
896.106	-27.14
896.276	9.73
896.447	13.82
896.617	13.82
896.788	-61.95
896.958	-43.52
897.129	22.02
897.299	-27.14
897.47	36.35
897.64	-18.94
897.81	-53.76
897.981	-2.56
898.151	-41.47
898.322	15.87
898.492	19.97
898.662	19.97
898.832	19.97
899.003	-20.99
899.173	15.87
899.343	-18.94
899.513	-39.42
