Data from USB4F104151__163__10-27-15-170.txt Node

Date: Wed Mar 12 10:27:15 EDT 2025
User: louis
Spectrometer: USB4F10415
Trigger mode: 4
Integration Time (sec): 3.000000E-2
Scans to average: 1
Electric dark correction enabled: true
Nonlinearity correction enabled: false
Boxcar width: 0
XAxis mode: Wavelengths
Number of Pixels in Spectrum: 3648
>>>>>Begin Spectral Data<<<<<
178.204	-86.36
178.424	-86.36
178.644	-86.36
178.864	-65.88
179.084	-121.17
179.304	-45.4
179.524	5.8
179.744	-37.2
179.964	30.38
180.184	-8.53
180.404	73.39
180.624	-33.11
180.844	36.52
181.064	-39.25
181.283	7.85
181.503	13.99
181.723	-4.44
181.943	-55.64
182.163	69.29
182.383	-4.44
182.602	52.91
182.822	20.14
183.042	81.58
183.262	1.71
183.482	42.67
183.701	16.04
183.921	-6.49
184.141	40.62
184.361	87.72
184.58	-67.92
184.8	63.15
185.02	24.23
185.239	48.81
185.459	67.24
185.679	59.05
185.898	3.75
186.118	77.48
186.338	-12.63
186.557	69.29
186.777	20.14
186.997	30.38
187.216	97.96
187.436	-22.87
187.655	28.33
187.875	97.96
188.095	-24.92
188.314	77.48
188.534	151.21
188.753	30.38
188.973	44.71
189.192	24.23
189.412	54.95
189.631	-37.2
189.851	13.99
190.07	52.91
190.29	73.39
190.509	36.52
190.729	11.95
190.948	11.95
191.168	95.91
191.387	18.09
191.607	9.9
191.826	42.67
192.045	22.19
192.265	59.05
192.484	-16.73
192.704	-14.68
192.923	-16.73
193.142	83.63
193.362	13.99
193.581	11.95
193.8	40.62
194.02	36.52
194.239	83.63
194.458	11.95
194.678	85.67
194.897	73.39
195.116	36.52
195.335	69.29
195.555	122.54
195.774	5.8
195.993	1.71
196.212	-26.96
196.432	-10.58
196.651	40.62
196.87	18.09
197.089	34.47
197.308	32.43
197.528	46.76
197.747	50.86
197.966	38.57
198.185	114.34
198.404	-29.01
198.623	48.81
198.842	36.52
199.062	16.04
199.281	20.14
199.5	20.14
199.719	132.78
199.938	36.52
200.157	46.76
200.376	18.09
200.595	89.77
200.814	77.48
201.033	1.71
201.252	18.09
201.471	73.39
201.69	77.48
201.909	20.14
202.128	-26.96
202.347	46.76
202.566	-47.44
202.785	7.85
203.004	7.85
203.223	102.06
203.442	85.67
203.661	-22.87
203.879	18.09
204.098	26.28
204.317	34.47
204.536	69.29
204.755	3.75
204.974	59.05
205.193	75.43
205.411	67.24
205.63	16.04
205.849	79.53
206.068	28.33
206.287	77.48
206.505	61.1
206.724	52.91
206.943	-14.68
207.162	44.71
207.381	40.62
207.599	61.1
207.818	16.04
208.037	40.62
208.255	36.52
208.474	28.33
208.693	106.15
208.911	-16.73
209.13	61.1
209.349	36.52
209.567	42.67
209.786	67.24
210.005	120.49
210.223	5.8
210.442	-10.58
210.661	79.53
210.879	22.19
211.098	71.34
211.316	-0.34
211.535	83.63
211.753	13.99
211.972	3.75
212.191	5.8
212.409	48.81
212.628	77.48
212.846	9.9
213.065	54.95
213.283	75.43
213.502	20.14
213.72	11.95
213.938	32.43
214.157	-37.2
214.375	91.82
214.594	61.1
214.812	22.19
215.031	-31.06
215.249	20.14
215.467	65.19
215.686	52.91
215.904	24.23
216.122	57
216.341	91.82
216.559	13.99
216.778	44.71
216.996	83.63
217.214	30.38
217.432	-20.82
217.651	-14.68
217.869	71.34
218.087	-6.49
218.306	-2.39
218.524	83.63
218.742	106.15
218.96	-2.39
219.179	36.52
219.397	28.33
219.615	81.58
219.833	65.19
220.051	52.91
220.27	108.2
220.488	13.99
220.706	28.33
220.924	22.19
221.142	-24.92
221.36	22.19
221.578	-4.44
221.796	40.62
222.015	32.43
222.233	-4.44
222.451	32.43
222.669	44.71
222.887	-4.44
223.105	38.57
223.323	48.81
223.541	11.95
223.759	40.62
223.977	24.23
224.195	63.15
224.413	93.87
224.631	30.38
224.849	20.14
225.067	79.53
225.285	-8.53
225.503	28.33
225.721	-74.07
225.939	-4.44
226.157	42.67
226.375	20.14
226.592	93.87
226.81	-84.31
227.028	54.95
227.246	89.77
227.464	-4.44
227.682	24.23
227.9	42.67
228.117	13.99
228.335	16.04
228.553	52.91
228.771	-31.06
228.989	16.04
229.206	65.19
229.424	11.95
229.642	75.43
229.86	52.91
230.077	-4.44
230.295	77.48
230.513	11.95
230.731	30.38
230.948	69.29
231.166	32.43
231.384	36.52
231.601	22.19
231.819	114.34
232.037	36.52
232.254	-55.64
232.472	59.05
232.689	-41.3
232.907	77.48
233.125	34.47
233.342	36.52
233.56	-39.25
233.777	59.05
233.995	20.14
234.213	118.44
234.43	65.19
234.648	116.39
234.865	3.75
235.083	65.19
235.3	36.52
235.518	59.05
235.735	28.33
235.953	87.72
236.17	42.67
236.388	-4.44
236.605	52.91
236.822	36.52
237.04	79.53
237.257	59.05
237.475	-4.44
237.692	61.1
237.909	44.71
238.127	-4.44
238.344	20.14
238.562	73.39
238.779	-41.3
238.996	18.09
239.214	28.33
239.431	59.05
239.648	-31.06
239.865	67.24
240.083	77.48
240.3	18.09
240.517	22.19
240.735	77.48
240.952	18.09
241.169	32.43
241.386	54.95
241.603	81.58
241.821	-22.87
242.038	79.53
242.255	50.86
242.472	59.05
242.689	104.11
242.907	54.95
243.124	40.62
243.341	48.81
243.558	30.38
243.775	42.67
243.992	11.95
244.209	69.29
244.426	52.91
244.643	-33.11
244.86	-26.96
245.078	32.43
245.295	32.43
245.512	-12.63
245.729	48.81
245.946	28.33
246.163	52.91
246.38	48.81
246.597	13.99
246.814	-55.64
247.031	-37.2
247.248	63.15
247.464	34.47
247.681	89.77
247.898	52.91
248.115	73.39
248.332	5.8
248.549	52.91
248.766	20.14
248.983	134.82
249.2	46.76
249.417	-10.58
249.633	81.58
249.85	89.77
250.067	3.75
250.284	65.19
250.501	48.81
250.717	63.15
250.934	-49.49
251.151	-20.82
251.368	11.95
251.585	-6.49
251.801	67.24
252.018	28.33
252.235	52.91
252.451	83.63
252.668	-59.73
252.885	112.3
253.102	38.57
253.318	36.52
253.535	20.14
253.752	5.8
253.968	5.8
254.185	52.91
254.401	28.33
254.618	61.1
254.835	5.8
255.051	81.58
255.268	-33.11
255.484	-0.34
255.701	44.71
255.917	89.77
256.134	-20.82
256.351	52.91
256.567	48.81
256.784	32.43
257	-6.49
257.217	32.43
257.433	-0.34
257.65	36.52
257.866	79.53
258.082	16.04
258.299	-35.16
258.515	36.52
258.732	22.19
258.948	-8.53
259.165	3.75
259.381	-16.73
259.597	61.1
259.814	16.04
260.03	102.06
260.246	3.75
260.463	97.96
260.679	71.34
260.895	30.38
261.112	24.23
261.328	11.95
261.544	1.71
261.761	20.14
261.977	40.62
262.193	48.81
262.409	28.33
262.626	28.33
262.842	93.87
263.058	32.43
263.274	34.47
263.49	38.57
263.707	18.09
263.923	24.23
264.139	16.04
264.355	1.71
264.571	48.81
264.787	-47.44
265.004	130.73
265.22	73.39
265.436	-16.73
265.652	9.9
265.868	85.67
266.084	34.47
266.3	11.95
266.516	-49.49
266.732	50.86
266.948	9.9
267.164	11.95
267.38	61.1
267.596	50.86
267.812	28.33
268.028	65.19
268.244	-22.87
268.46	3.75
268.676	-4.44
268.892	134.82
269.108	50.86
269.324	3.75
269.54	9.9
269.756	69.29
269.972	11.95
270.188	1.71
270.403	61.1
270.619	63.15
270.835	69.29
271.051	42.67
271.267	7.85
271.483	11.95
271.698	32.43
271.914	57
272.13	50.86
272.346	32.43
272.562	11.95
272.777	153.26
272.993	28.33
273.209	26.28
273.425	24.23
273.64	-8.53
273.856	79.53
274.072	-2.39
274.287	50.86
274.503	36.52
274.719	81.58
274.934	91.82
275.15	16.04
275.366	44.71
275.581	-29.01
275.797	63.15
276.012	20.14
276.228	65.19
276.444	73.39
276.659	97.96
276.875	11.95
277.09	11.95
277.306	18.09
277.521	40.62
277.737	34.47
277.952	1.71
278.168	24.23
278.383	167.59
278.599	91.82
278.814	54.95
279.03	3.75
279.245	65.19
279.461	9.9
279.676	-16.73
279.892	-45.4
280.107	79.53
280.322	40.62
280.538	36.52
280.753	26.28
280.969	28.33
281.184	3.75
281.399	57
281.615	48.81
281.83	24.23
282.045	-8.53
282.26	46.76
282.476	22.19
282.691	32.43
282.906	57
283.122	67.24
283.337	-0.34
283.552	38.57
283.767	-22.87
283.983	73.39
284.198	24.23
284.413	16.04
284.628	32.43
284.843	50.86
285.058	9.9
285.274	30.38
285.489	3.75
285.704	-31.06
285.919	48.81
286.134	52.91
286.349	57
286.564	138.92
286.779	67.24
286.995	11.95
287.21	-16.73
287.425	44.71
287.64	30.38
287.855	40.62
288.07	32.43
288.285	59.05
288.5	-22.87
288.715	38.57
288.93	32.43
289.145	-82.26
289.36	54.95
289.575	73.39
289.79	69.29
290.004	36.52
290.219	114.34
290.434	40.62
290.649	9.9
290.864	38.57
291.079	-41.3
291.294	-2.39
291.509	48.81
291.724	-0.34
291.938	46.76
292.153	95.91
292.368	20.14
292.583	-8.53
292.798	50.86
293.012	75.43
293.227	44.71
293.442	87.72
293.657	106.15
293.871	73.39
294.086	54.95
294.301	20.14
294.516	-4.44
294.73	22.19
294.945	77.48
295.16	-20.82
295.374	83.63
295.589	73.39
295.804	79.53
296.018	32.43
296.233	69.29
296.447	122.54
296.662	-47.44
296.877	69.29
297.091	81.58
297.306	85.67
297.52	9.9
297.735	52.91
297.949	46.76
298.164	22.19
298.378	54.95
298.593	-22.87
298.807	-24.92
299.022	63.15
299.236	44.71
299.451	93.87
299.665	18.09
299.88	34.47
300.094	-67.92
300.309	48.81
300.523	-12.63
300.737	-4.44
300.952	-18.77
301.166	16.04
301.381	-10.58
301.595	26.28
301.809	-4.44
302.024	38.57
302.238	-14.68
302.452	36.52
302.667	1.71
302.881	75.43
303.095	48.81
303.309	44.71
303.524	30.38
303.738	26.28
303.952	65.19
304.166	122.54
304.381	11.95
304.595	1.71
304.809	-31.06
305.023	-16.73
305.237	18.09
305.452	28.33
305.666	186.02
305.88	32.43
306.094	-22.87
306.308	-2.39
306.522	26.28
306.736	52.91
306.95	42.67
307.164	118.44
307.379	-57.68
307.593	34.47
307.807	7.85
308.021	3.75
308.235	-20.82
308.449	-49.49
308.663	63.15
308.877	126.63
309.091	40.62
309.305	20.14
309.519	1.71
309.733	77.48
309.947	73.39
310.161	16.04
310.374	1.71
310.588	77.48
310.802	81.58
311.016	71.34
311.23	114.34
311.444	1.71
311.658	22.19
311.872	79.53
312.085	-0.34
312.299	71.34
312.513	42.67
312.727	97.96
312.941	26.28
313.154	-59.73
313.368	42.67
313.582	-35.16
313.796	5.8
314.009	-37.2
314.223	11.95
314.437	81.58
314.651	79.53
314.864	-16.73
315.078	3.75
315.292	59.05
315.505	57
315.719	57
315.933	40.62
316.146	36.52
316.36	42.67
316.573	7.85
316.787	30.38
317.001	57
317.214	34.47
317.428	67.24
317.641	50.86
317.855	26.28
318.068	38.57
318.282	24.23
318.495	48.81
318.709	36.52
318.922	-4.44
319.136	69.29
319.349	59.05
319.563	65.19
319.776	65.19
319.99	-37.2
320.203	46.76
320.417	32.43
320.63	18.09
320.843	81.58
321.057	61.1
321.27	32.43
321.483	126.63
321.697	102.06
321.91	11.95
322.124	57
322.337	69.29
322.55	-14.68
322.763	110.25
322.977	93.87
323.19	36.52
323.403	-0.34
323.617	3.75
323.83	48.81
324.043	40.62
324.256	20.14
324.469	28.33
324.683	81.58
324.896	-29.01
325.109	77.48
325.322	-8.53
325.535	13.99
325.748	61.1
325.962	28.33
326.175	93.87
326.388	57
326.601	59.05
326.814	126.63
327.027	18.09
327.24	-10.58
327.453	7.85
327.666	11.95
327.879	102.06
328.092	106.15
328.305	32.43
328.518	73.39
328.731	9.9
328.944	11.95
329.157	28.33
329.37	-10.58
329.583	114.34
329.796	69.29
330.009	32.43
330.222	16.04
330.435	65.19
330.648	1.71
330.861	73.39
331.073	-51.54
331.286	108.2
331.499	67.24
331.712	20.14
331.925	65.19
332.138	-2.39
332.35	69.29
332.563	83.63
332.776	24.23
332.989	46.76
333.202	-22.87
333.414	18.09
333.627	110.25
333.84	81.58
334.053	79.53
334.265	59.05
334.478	77.48
334.691	73.39
334.903	-16.73
335.116	-43.35
335.329	132.78
335.541	75.43
335.754	18.09
335.966	-16.73
336.179	-16.73
336.392	73.39
336.604	87.72
336.817	106.15
337.029	85.67
337.242	26.28
337.454	52.91
337.667	52.91
337.88	24.23
338.092	132.78
338.305	85.67
338.517	73.39
338.729	85.67
338.942	36.52
339.154	13.99
339.367	-37.2
339.579	-0.34
339.792	69.29
340.004	40.62
340.217	28.33
340.429	24.23
340.641	59.05
340.854	7.85
341.066	-6.49
341.278	36.52
341.491	63.15
341.703	18.09
341.915	18.09
342.128	-35.16
342.34	102.06
342.552	61.1
342.764	97.96
342.977	75.43
343.189	59.05
343.401	73.39
343.613	34.47
343.826	116.39
344.038	91.82
344.25	63.15
344.462	28.33
344.674	59.05
344.886	-22.87
345.099	83.63
345.311	32.43
345.523	46.76
345.735	1.71
345.947	79.53
346.159	50.86
346.371	100.01
346.583	-4.44
346.795	71.34
347.007	18.09
347.219	-29.01
347.431	59.05
347.643	79.53
347.855	-12.63
348.067	61.1
348.279	100.01
348.491	26.28
348.703	24.23
348.915	-35.16
349.127	3.75
349.339	106.15
349.551	48.81
349.763	38.57
349.975	20.14
350.187	32.43
350.399	93.87
350.61	13.99
350.822	77.48
351.034	67.24
351.246	52.91
351.458	116.39
351.669	28.33
351.881	57
352.093	61.1
352.305	97.96
352.517	65.19
352.728	65.19
352.94	20.14
353.152	81.58
353.363	24.23
353.575	20.14
353.787	20.14
353.999	48.81
354.21	46.76
354.422	42.67
354.633	-39.25
354.845	54.95
355.057	32.43
355.268	-8.53
355.48	71.34
355.692	40.62
355.903	36.52
356.115	9.9
356.326	42.67
356.538	20.14
356.749	63.15
356.961	34.47
357.172	18.09
357.384	28.33
357.595	93.87
357.807	81.58
358.018	69.29
358.23	91.82
358.441	100.01
358.653	-49.49
358.864	-0.34
359.075	83.63
359.287	67.24
359.498	108.2
359.709	26.28
359.921	102.06
360.132	20.14
360.344	61.1
360.555	30.38
360.766	24.23
360.977	69.29
361.189	73.39
361.4	52.91
361.611	79.53
361.823	126.63
362.034	59.05
362.245	-2.39
362.456	7.85
362.667	165.54
362.879	1.71
363.09	30.38
363.301	38.57
363.512	54.95
363.723	79.53
363.935	69.29
364.146	93.87
364.357	30.38
364.568	67.24
364.779	79.53
364.99	20.14
365.201	-4.44
365.412	87.72
365.623	9.9
365.834	89.77
366.045	50.86
366.256	167.59
366.467	30.38
366.678	20.14
366.889	67.24
367.1	44.71
367.311	61.1
367.522	87.72
367.733	36.52
367.944	52.91
368.155	77.48
368.366	32.43
368.577	11.95
368.788	97.96
368.999	73.39
369.209	40.62
369.42	91.82
369.631	71.34
369.842	153.26
370.053	36.52
370.264	54.95
370.474	-0.34
370.685	28.33
370.896	36.52
371.107	57
371.317	81.58
371.528	18.09
371.739	52.91
371.95	38.57
372.16	106.15
372.371	40.62
372.582	85.67
372.792	89.77
373.003	93.87
373.214	46.76
373.424	50.86
373.635	-20.82
373.846	61.1
374.056	67.24
374.267	11.95
374.477	36.52
374.688	38.57
374.898	28.33
375.109	61.1
375.319	34.47
375.53	126.63
375.74	100.01
375.951	69.29
376.161	1.71
376.372	77.48
376.582	59.05
376.793	77.48
377.003	44.71
377.214	75.43
377.424	28.33
377.635	69.29
377.845	3.75
378.055	87.72
378.266	77.48
378.476	20.14
378.686	3.75
378.897	110.25
379.107	67.24
379.317	44.71
379.528	57
379.738	28.33
379.948	40.62
380.158	157.35
380.369	40.62
380.579	69.29
380.789	71.34
380.999	73.39
381.21	77.48
381.42	130.73
381.63	52.91
381.84	28.33
382.05	57
382.261	57
382.471	52.91
382.681	38.57
382.891	38.57
383.101	89.77
383.311	-2.39
383.521	-55.64
383.731	44.71
383.941	57
384.151	61.1
384.361	85.67
384.571	69.29
384.781	-8.53
384.991	132.78
385.201	44.71
385.411	20.14
385.621	106.15
385.831	9.9
386.041	24.23
386.251	7.85
386.461	140.97
386.671	42.67
386.881	44.71
387.091	57
387.301	87.72
387.511	-12.63
387.72	38.57
387.93	11.95
388.14	-37.2
388.35	67.24
388.56	106.15
388.769	73.39
388.979	97.96
389.189	3.75
389.399	83.63
389.609	167.59
389.818	95.91
390.028	83.63
390.238	81.58
390.447	97.96
390.657	89.77
390.867	77.48
391.076	44.71
391.286	130.73
391.496	13.99
391.705	9.9
391.915	136.87
392.125	65.19
392.334	71.34
392.544	114.34
392.753	48.81
392.963	28.33
393.172	48.81
393.382	57
393.591	118.44
393.801	26.28
394.01	132.78
394.22	57
394.429	28.33
394.639	85.67
394.848	163.5
395.058	59.05
395.267	44.71
395.477	77.48
395.686	130.73
395.895	140.97
396.105	130.73
396.314	93.87
396.524	-29.01
396.733	91.82
396.942	130.73
397.152	89.77
397.361	173.74
397.57	48.81
397.78	87.72
397.989	151.21
398.198	44.71
398.407	18.09
398.617	112.3
398.826	59.05
399.035	130.73
399.244	81.58
399.453	104.11
399.663	165.54
399.872	93.87
400.081	28.33
400.29	157.35
400.499	-4.44
400.708	54.95
400.917	79.53
401.127	124.58
401.336	116.39
401.545	128.68
401.754	106.15
401.963	188.07
402.172	93.87
402.381	130.73
402.59	102.06
402.799	73.39
403.008	116.39
403.217	114.34
403.426	143.02
403.635	95.91
403.844	159.4
404.053	93.87
404.262	175.78
404.471	151.21
404.68	87.72
404.888	190.12
405.097	167.59
405.306	122.54
405.515	192.17
405.724	151.21
405.933	140.97
406.142	136.87
406.35	190.12
406.559	224.94
406.768	155.3
406.977	237.22
407.185	200.36
407.394	241.32
407.603	167.59
407.812	196.26
408.02	245.41
408.229	224.94
408.438	212.65
408.646	190.12
408.855	204.46
409.064	163.5
409.272	214.7
409.481	300.71
409.69	208.55
409.898	253.61
410.107	272.04
410.315	323.24
410.524	298.66
410.733	388.77
410.941	304.81
411.15	386.72
411.358	286.37
411.567	353.96
411.775	323.24
411.984	364.2
412.192	456.36
412.401	317.09
412.609	413.35
412.818	409.25
413.026	474.79
413.234	394.92
413.443	487.08
413.651	470.69
413.86	577.19
414.068	624.29
414.276	601.76
414.485	534.18
414.693	644.77
414.901	632.48
415.11	657.06
415.318	495.27
415.526	601.76
415.734	693.92
415.943	687.78
416.151	751.26
416.359	798.37
416.567	798.37
416.776	861.85
416.984	890.53
417.192	894.62
417.4	845.47
417.608	882.33
417.817	933.53
418.025	984.73
418.233	986.78
418.441	937.63
418.649	1031.83
418.857	1128.09
419.065	1183.38
419.273	1117.85
419.481	1179.29
419.689	1265.3
419.897	1265.3
420.105	1330.84
420.313	1373.85
420.521	1386.13
420.729	1412.76
420.937	1486.48
421.145	1502.87
421.353	1625.75
421.561	1646.23
421.769	1713.81
421.977	1773.2
422.185	1713.81
422.393	1920.65
422.601	1965.71
422.809	1891.98
423.017	2021
423.224	2139.79
423.432	2330.25
423.64	2158.22
423.848	2401.93
424.056	2354.82
424.263	2475.65
424.471	2530.95
424.679	2623.11
424.887	2682.5
425.094	2782.85
425.302	2750.08
425.51	3010.17
425.718	2875.01
425.925	3012.22
426.133	3001.98
426.341	3421.81
426.548	3389.05
426.756	3384.95
426.964	3460.73
427.171	3624.56
427.379	3679.86
427.586	3763.83
427.794	3935.85
428.001	3909.23
428.209	4236.91
428.417	4173.42
428.624	4501.09
428.832	4466.28
429.039	4511.33
429.247	4347.5
429.454	5039.71
429.662	5342.81
429.869	4970.08
430.076	5322.33
430.284	4945.5
430.491	5262.94
430.699	5484.12
430.906	5607
431.114	5617.24
431.321	5922.38
431.528	5940.82
431.736	6299.21
431.943	6581.83
432.15	6469.19
432.358	6587.97
432.565	6917.7
432.772	6958.66
432.979	7366.2
433.187	7265.85
433.394	7345.72
433.601	7931.44
433.808	7767.6
434.016	7876.15
434.223	8349.23
434.43	8623.66
434.637	8654.37
434.844	9014.82
435.052	9240.09
435.259	9324.06
435.466	9338.4
435.673	9096.74
435.88	9635.35
436.087	10196.5
436.294	10368.52
436.501	10030.61
436.708	10075.66
436.915	10481.16
437.122	11021.83
437.329	10956.29
437.537	11238.91
437.743	11529.72
437.95	11564.54
438.157	11886.07
438.364	12453.36
438.571	12303.85
438.778	12572.14
438.985	13737.43
439.192	13110.75
439.399	13442.53
439.606	12996.07
439.813	13784.54
440.02	14716.36
440.227	14323.15
440.433	14360.02
440.64	14984.65
440.847	14849.48
441.054	15228.35
441.261	16205.24
441.467	16006.58
441.674	16397.74
441.881	17016.23
442.088	16706.99
442.294	16395.7
442.501	17016.23
442.708	17438.11
442.914	18242.96
443.121	18937.23
443.328	18445.71
443.534	19748.22
443.741	19068.3
443.948	18738.57
444.154	20235.64
444.361	19932.54
444.568	19961.21
444.774	20143.48
444.981	20354.42
445.187	21130.6
445.394	21792.09
445.6	21722.46
445.807	23958.85
446.013	22750.54
446.22	22900.05
446.426	23776.58
446.633	23924.03
446.839	24823.09
447.046	23811.39
447.252	24905.01
447.459	25023.79
447.665	24933.68
447.871	26055.97
448.078	27176.2
448.284	25814.3
448.491	26434.84
448.697	27530.5
448.903	28206.33
449.11	28003.58
449.316	27362.57
449.522	28208.38
449.728	28830.96
449.935	29037.81
450.141	29144.3
450.347	29668.58
450.553	28859.63
450.76	29076.72
450.966	29779.17
451.172	29678.82
451.378	29897.95
451.584	29818.08
451.791	30602.46
451.997	30633.18
452.203	31171.79
452.409	30651.61
452.615	30561.5
452.821	29715.69
453.027	29129.97
453.233	30670.04
453.44	29551.85
453.646	29662.44
453.852	29385.96
454.058	30151.9
454.264	29336.81
454.47	29656.29
454.676	29117.68
454.882	30100.7
455.088	27596.04
455.294	27651.33
455.5	27995.39
455.705	28691.7
455.911	27200.78
456.117	26801.43
456.323	26371.35
456.529	25029.93
456.735	25902.37
456.941	25326.89
457.147	24765.74
457.352	24139.07
457.558	23743.81
457.764	23893.31
457.97	23362.89
458.176	22783.31
458.381	22953.29
458.587	21859.68
458.793	21687.65
458.999	20612.46
459.204	22156.63
459.41	21443.94
459.616	20301.17
459.821	20182.39
460.027	20186.49
460.233	19664.25
460.438	18437.52
460.644	18632.08
460.85	17868.19
461.055	17812.89
461.261	17624.48
461.466	16336.31
461.672	15803.83
461.878	16928.17
462.083	15891.9
462.289	15513.02
462.494	15236.55
462.7	14757.32
462.905	14626.25
463.111	14734.79
463.316	14972.36
463.522	14921.16
463.727	14757.32
463.932	14550.48
464.138	14431.69
464.343	14663.11
464.549	14271.95
464.754	14603.72
464.959	14542.28
465.165	14030.29
465.37	13571.55
465.575	13352.41
465.781	13784.54
465.986	14241.23
466.191	13467.1
466.397	13182.43
466.602	12549.61
466.807	12996.07
467.012	13110.75
467.218	13223.39
467.423	12912.1
467.628	12860.9
467.833	13532.64
468.038	13024.74
468.244	12670.44
468.449	13010.4
468.654	12611.05
468.859	12762.6
469.064	12404.21
469.269	12146.16
469.474	12129.78
469.679	12402.16
469.885	12070.39
470.09	12226.03
470.295	11945.46
470.5	11943.41
470.705	11933.17
470.91	11525.63
471.115	11456
471.32	11707.9
471.525	11365.89
471.73	11333.12
471.935	11236.86
472.139	10901
472.344	11011.59
472.549	10862.08
472.754	10788.36
472.959	10507.79
473.164	10483.21
473.369	10182.16
473.574	10583.56
473.778	10264.08
473.983	10282.51
474.188	10302.99
474.393	9844.24
474.598	9981.46
474.802	9913.88
475.007	9629.21
475.212	9612.82
475.417	9405.98
475.621	9354.78
475.826	9483.8
476.031	9289.24
476.235	8980
476.44	9274.91
476.645	9233.95
476.849	8998.43
477.054	8949.28
477.259	8789.54
477.463	8846.88
477.668	8676.9
477.872	8767.01
478.077	8648.23
478.282	8316.46
478.486	8306.22
478.691	8193.58
478.895	8130.09
479.1	8074.8
479.304	8336.94
479.509	7982.64
479.713	8025.65
479.918	8023.6
480.122	8005.17
480.326	7851.57
480.531	8060.46
480.735	7857.71
480.94	7781.94
481.144	7931.44
481.348	7786.04
481.553	7724.6
481.757	7577.14
481.961	7745.08
482.166	7974.45
482.37	7564.86
482.574	7450.17
482.778	7687.73
482.983	7798.32
483.187	7663.16
483.391	7616.05
483.595	7675.45
483.8	7439.93
484.004	7384.63
484.208	7695.93
484.412	7702.07
484.616	7626.29
484.821	7646.77
485.025	7530.04
485.229	7849.52
485.433	7673.4
485.637	7595.57
485.841	7460.41
486.045	7634.49
486.249	7577.14
486.453	7636.53
486.657	7599.67
486.861	7646.77
487.065	7562.81
487.269	7640.63
487.473	7564.86
487.677	7683.64
487.881	7757.36
488.085	7519.8
488.289	7521.85
488.493	7597.62
488.697	7765.56
488.901	7689.78
489.105	7700.02
489.309	7925.3
489.512	7740.98
489.716	7751.22
489.92	7839.28
490.124	7554.62
490.328	7933.49
490.531	7783.99
490.735	7929.39
490.939	7880.24
491.143	7847.47
491.346	7769.65
491.55	7906.87
491.754	7857.71
491.958	7827
492.161	7915.06
492.365	7902.77
492.569	8107.57
492.772	8015.41
492.976	8078.9
493.18	8080.94
493.383	8275.5
493.587	8361.52
493.79	8470.06
493.994	8236.59
494.197	8377.9
494.401	8433.19
494.605	8449.58
494.808	8570.41
495.012	8648.23
495.215	8746.53
495.419	8928.8
495.622	8769.06
495.825	8912.42
496.029	9008.67
496.232	9023.01
496.436	9135.65
496.639	9348.64
496.843	9246.24
497.046	9410.08
497.249	9471.51
497.453	9578.01
497.656	9745.94
497.859	9694.74
498.063	9915.92
498.266	10163.73
498.469	9934.36
498.673	10149.39
498.876	10257.93
499.079	10280.46
499.282	10255.89
499.485	10685.96
499.689	10434.06
499.892	10765.83
500.095	10868.23
500.298	11042.31
500.501	11085.31
500.705	11355.65
500.908	11482.62
501.111	11511.29
501.314	11625.98
501.517	11726.33
501.72	11802.1
501.923	11927.03
502.126	12279.28
502.329	12285.42
502.532	12420.59
502.735	12385.77
502.938	12852.71
503.141	12824.04
503.344	13016.55
503.547	13116.9
503.75	13065.7
503.953	13266.4
504.156	13528.54
504.359	13604.32
504.562	13641.18
504.765	13960.66
504.968	14108.12
505.17	13991.38
505.373	14489.04
505.576	14671.31
505.779	14679.5
505.982	14835.14
506.185	14912.97
506.387	15107.52
506.59	15355.33
506.793	15533.5
506.996	15429.06
507.198	15920.57
507.401	16008.63
507.604	15939
507.807	16416.18
508.009	16217.52
508.212	16850.35
508.415	16764.33
508.617	17149.35
508.82	17044.9
509.022	17126.82
509.225	17331.62
509.428	17808.79
509.63	17649.05
509.833	17935.77
510.035	18412.95
510.238	18202
510.44	18568.59
510.643	18867.59
510.845	18818.44
511.048	18890.12
511.25	19045.77
511.453	19195.27
511.655	19944.83
511.858	19756.41
512.06	20123
512.262	20600.18
512.465	19981.69
512.667	20686.19
512.87	20972.91
513.072	21077.35
513.274	21359.97
513.477	21585.25
513.679	21867.87
513.881	21695.84
514.084	21962.08
514.286	21939.55
514.488	22340.95
514.69	22977.87
514.893	22963.53
515.095	22846.8
515.297	23334.21
515.499	23514.44
515.701	23911.74
515.904	23797.06
516.106	24059.2
516.308	24075.58
516.51	24458.55
516.712	24687.92
516.914	24862
517.116	25435.43
517.318	25312.55
517.52	25398.57
517.722	25410.85
517.925	26076.44
518.127	26406.17
518.329	26533.14
518.531	26567.96
518.733	26905.87
518.935	27106.57
519.136	27155.72
519.338	27720.96
519.54	27856.13
519.742	28114.17
519.944	28118.27
520.146	28605.69
520.348	28486.9
520.55	28859.63
520.752	28839.15
520.954	29770.98
521.155	29512.94
521.357	29639.91
521.559	30145.76
521.761	30479.58
521.963	30715.09
522.164	30741.72
522.366	31016.15
522.568	30993.62
522.77	31321.29
522.971	31923.4
523.173	31270.09
523.375	31925.44
523.576	32128.19
523.778	32226.49
523.98	32404.67
524.181	32484.54
524.383	32683.19
524.584	33125.55
524.786	33029.3
524.988	32916.66
525.189	33399.98
525.391	33426.6
525.592	34075.81
525.794	34004.13
525.995	34399.39
526.197	33965.22
526.398	34077.86
526.6	34870.42
526.801	34757.78
527.003	34782.36
527.204	35220.63
527.406	35251.34
527.607	35017.88
527.808	35394.7
528.01	35054.74
528.211	35355.79
528.412	36398.21
528.614	35921.03
528.815	35945.61
529.016	36181.12
529.218	36138.12
529.419	35863.69
529.62	36172.93
529.822	36437.12
530.023	36490.37
530.224	36275.33
530.425	36267.14
530.626	36578.43
530.828	36131.97
531.029	37270.64
531.23	36828.28
531.431	36877.43
531.632	36998.26
531.833	37301.36
532.035	37336.18
532.236	37303.41
532.437	37266.55
532.638	37520.49
532.839	37348.46
533.04	37586.03
533.241	37104.76
533.442	37989.48
533.643	37196.92
533.844	37524.59
534.045	37844.07
534.246	36938.87
534.447	37774.44
534.648	37209.2
534.849	38073.45
535.05	37518.45
535.251	37448.82
535.451	37618.8
535.652	37624.94
535.853	37813.35
536.054	37766.25
536.255	37475.44
536.456	37475.44
536.657	37944.42
536.857	37092.47
537.058	37393.52
537.259	38098.02
537.46	37936.23
537.66	37737.58
537.861	37878.89
538.062	37565.55
538.263	37807.21
538.463	37524.59
538.664	37786.73
538.865	38009.96
539.065	38458.46
539.266	37672.04
539.466	37811.31
539.667	37366.9
539.868	37848.17
540.068	37538.93
540.269	37414
540.469	37987.43
540.67	37655.66
540.87	37471.34
541.071	37659.76
541.271	37776.49
541.472	37612.65
541.672	37397.62
541.873	37543.02
542.073	37241.97
542.274	37952.62
542.474	37704.81
542.675	37393.52
542.875	37670
543.075	37428.34
543.276	37246.07
543.476	38009.96
543.676	37608.56
543.877	37647.47
544.077	37641.32
544.277	37606.51
544.478	37516.4
544.678	37993.57
544.878	37422.19
545.078	37831.79
545.279	37340.27
545.479	37387.38
545.679	37375.09
545.879	37536.88
546.079	37561.45
546.28	37475.44
546.48	36799.61
546.68	37575.79
546.88	37440.62
547.08	37829.74
547.28	37270.64
547.48	37016.69
547.68	37606.51
547.88	37010.55
548.081	37098.61
548.281	37753.96
548.481	37276.79
548.681	37837.93
548.881	37127.28
549.081	37385.33
549.28	37358.7
549.48	37512.3
549.68	37125.24
549.88	37827.69
550.08	37266.55
550.28	37141.62
550.48	36957.3
550.68	37368.94
550.88	37086.32
551.08	37258.35
551.279	37438.58
551.479	36844.66
551.679	37268.59
551.879	37020.79
552.079	37530.73
552.278	37112.95
552.478	37311.6
552.678	37172.34
552.878	37266.55
553.077	36820.09
553.277	36861.05
553.477	37457.01
553.676	36660.35
553.876	36738.17
554.076	36846.71
554.275	36705.4
554.475	36756.6
554.674	37076.08
554.874	36971.64
555.074	36746.36
555.273	36904.06
555.473	36732.03
555.672	36684.92
555.872	36613.24
556.071	36785.27
556.271	36678.78
556.47	36473.98
556.67	35961.99
556.869	36209.79
557.068	36586.62
557.268	36332.67
557.467	36263.04
557.667	36123.78
557.866	36670.59
558.065	36185.22
558.265	36105.35
558.464	35865.74
558.663	36271.23
558.863	35374.22
559.062	36158.59
559.261	35789.96
559.461	36295.81
559.66	35310.74
559.859	35837.06
560.058	35740.81
560.258	35464.33
560.457	35568.78
560.656	35538.06
560.855	35468.43
561.054	35480.72
561.253	35030.16
561.453	35509.39
561.652	35413.13
561.851	35382.41
562.05	35107.99
562.249	34956.44
562.448	35079.32
562.647	34886.81
562.846	34831.51
563.045	34864.28
563.244	34567.32
563.443	35159.19
563.642	34358.43
563.841	34677.91
564.04	34409.63
564.239	34690.2
564.438	34004.13
564.637	34401.44
564.836	34342.05
565.035	33641.64
565.234	34245.79
565.432	33715.37
565.631	33719.46
565.83	33854.63
566.029	33512.62
566.228	33610.92
566.427	33660.07
566.625	33428.65
566.824	33055.92
567.023	33561.77
567.222	32943.28
567.42	33371.31
567.619	33182.9
567.818	33143.98
568.016	33100.98
568.215	33367.21
568.414	33006.77
568.612	33232.05
568.811	32621.75
569.01	32351.42
569.208	32060.61
569.407	32545.98
569.605	31954.12
569.804	32672.95
570.002	32287.93
570.201	32283.84
570.4	32269.5
570.598	31954.12
570.797	31968.45
570.995	31929.54
571.193	31562.95
571.392	31831.24
571.59	31329.48
571.789	31626.44
571.987	31274.19
572.186	31179.98
572.384	31200.46
572.582	31792.33
572.781	31417.55
572.979	31030.48
573.177	30940.37
573.376	31290.57
573.574	30897.36
573.772	31200.46
573.971	30563.54
574.169	30594.26
574.367	30481.63
574.565	30711
574.763	30094.56
574.962	30049.5
575.16	29760.74
575.358	30072.03
575.556	29717.73
575.754	30018.78
575.952	29635.81
576.151	30047.46
576.349	29265.13
576.547	29494.5
576.745	29551.85
576.943	29510.89
577.141	29361.39
577.339	29517.03
577.537	29285.61
577.735	29209.84
577.933	28710.13
578.131	29129.97
578.329	28845.3
578.527	28865.78
578.725	28624.12
578.923	28529.91
579.121	28896.5
579.319	28734.71
579.516	28642.55
579.714	28441.85
579.912	28302.59
580.11	28314.87
580.308	28378.36
580.506	28353.79
580.704	27706.63
580.901	27993.34
581.099	28261.63
581.297	28054.78
581.495	27776.26
581.692	27884.8
581.89	27821.31
582.088	27620.61
582.285	27524.36
582.483	27790.59
582.681	27841.79
582.878	27368.71
583.076	26957.07
583.274	27098.38
583.471	26916.11
583.669	27137.29
583.866	26862.86
584.064	26965.26
584.262	26619.16
584.459	27073.81
584.657	26533.14
584.854	26832.15
585.052	26088.73
585.249	26629.4
585.447	26658.07
585.644	26094.88
585.841	26338.58
586.039	26565.91
586.236	25914.66
586.434	26039.58
586.631	25916.7
586.828	25969.95
587.026	26031.39
587.223	25675.04
587.42	25593.12
587.618	25974.05
587.815	25355.56
588.012	25249.07
588.21	25220.39
588.407	25486.63
588.604	25136.43
588.801	25161
588.999	25087.28
589.196	25222.44
589.393	24941.87
589.59	25191.72
589.787	25040.17
589.984	24474.93
590.182	24610.1
590.379	24726.83
590.576	24255.8
590.773	24501.56
590.97	24114.49
591.167	24552.76
591.364	24010.04
591.561	24368.44
591.758	24137.02
591.955	23881.02
592.152	24169.79
592.349	23702.85
592.546	24100.15
592.743	23989.56
592.94	23479.62
593.137	23708.99
593.334	23641.41
593.531	23354.69
593.727	23551.3
593.924	23409.99
594.121	23221.58
594.318	23457.09
594.515	22936.91
594.712	23319.88
594.908	23207.24
595.105	23057.74
595.302	23029.07
595.499	23033.16
595.696	22955.34
595.892	22594.9
596.089	22758.74
596.286	22795.6
596.482	22134.1
596.679	22353.24
596.876	22320.47
597.072	22639.95
597.269	22420.82
597.466	22031.71
597.662	22123.87
597.859	22136.15
598.055	22295.89
598.252	22027.61
598.448	22066.52
598.645	22021.47
598.841	21546.34
599.038	21736.8
599.234	21785.95
599.431	21615.97
599.627	21562.72
599.824	21568.87
600.02	21632.35
600.217	21658.98
600.413	21263.72
600.609	21200.23
600.806	21103.98
601.002	21237.09
601.198	21151.08
601.395	20667.76
601.591	21112.17
601.787	21181.8
601.984	20983.15
602.18	20956.52
602.376	20655.47
602.572	20786.54
602.769	20608.37
602.965	20419.96
603.161	20546.93
603.357	20829.55
603.553	20092.28
603.75	20501.87
603.946	20252.02
604.142	20381.04
604.338	19895.68
604.534	20194.68
604.73	20004.22
604.926	19811.71
605.122	19961.21
605.318	19760.51
605.514	19559.81
605.71	19750.27
605.906	19639.68
606.102	19664.25
606.298	19639.68
606.494	19510.66
606.69	19426.69
606.886	19619.2
607.082	19271.04
607.278	19563.9
607.474	19156.36
607.67	19408.26
607.866	18965.9
608.062	19547.52
608.257	19258.76
608.453	19160.45
608.649	19328.39
608.845	18761.1
609.041	18967.95
609.236	19027.34
609.432	18836.88
609.628	18996.62
609.824	18883.98
610.019	18378.13
610.215	18832.78
610.411	18607.5
610.606	18656.65
610.802	18763.15
610.998	18660.75
611.193	18691.47
611.389	18216.34
611.584	18601.36
611.78	18353.55
611.976	18302.36
612.171	18281.88
612.367	18318.74
612.562	18044.31
612.758	18048.41
612.953	17986.97
613.149	18298.26
613.344	17669.53
613.539	18212.24
613.735	17915.29
613.93	17780.12
614.126	17878.43
614.321	18040.22
614.517	17816.99
614.712	18179.48
614.907	17716.64
615.103	18003.35
615.298	17710.49
615.493	17868.19
615.688	17675.68
615.884	17898.91
616.079	17616.29
616.274	17458.59
616.47	17483.17
616.665	17614.24
616.86	17321.38
617.055	17565.09
617.25	17108.39
617.445	17411.49
617.641	17141.16
617.836	17325.47
618.031	17022.37
618.226	17102.25
618.421	17108.39
618.616	17370.53
618.811	17008.04
619.006	17180.07
619.201	16778.67
619.396	17143.21
619.591	16469.42
619.786	16649.64
619.981	16475.57
620.176	16872.87
620.371	16571.82
620.566	16360.88
620.761	16420.27
620.956	16143.8
621.151	15838.65
621.346	16502.19
621.541	16074.17
621.735	16068.02
621.93	15971.77
622.125	15803.83
622.32	15590.84
622.515	15797.69
622.709	15472.06
622.904	15654.33
623.099	15650.24
623.294	15416.77
623.488	15435.2
623.683	15420.86
623.878	15148.48
624.072	15277.51
624.267	15072.71
624.462	15121.86
624.656	14900.68
624.851	15007.17
625.046	14697.93
625.24	14712.27
625.435	14540.24
625.629	14437.84
625.824	14235.09
626.018	14345.68
626.213	14284.24
626.407	14222.8
626.602	14175.7
626.796	14052.82
626.991	14140.88
627.185	13702.62
627.38	13948.37
627.574	13823.45
627.768	13569.5
627.963	13592.03
628.157	13485.53
628.352	13622.75
628.546	13428.19
628.74	13688.28
628.935	13168.1
629.129	13336.03
629.323	13102.56
629.517	13161.95
629.712	12645.87
629.906	12901.86
630.1	12877.29
630.294	12897.77
630.489	12678.63
630.683	12576.23
630.877	12664.3
631.071	12453.36
631.265	12670.44
631.459	12615.15
631.653	12420.59
631.848	12281.33
632.042	12262.9
632.236	11974.13
632.43	12123.63
632.624	12129.78
632.818	12025.33
633.012	11767.29
633.206	11849.21
633.4	11873.78
633.594	11912.69
633.788	11578.87
633.982	11742.71
634.176	11539.96
634.369	11499
634.563	11423.23
634.757	11294.21
634.951	11347.45
635.145	11359.74
635.339	11120.13
635.533	11003.39
635.726	11253.25
635.92	10931.72
636.114	10958.34
636.308	10794.5
636.501	11046.4
636.695	10896.9
636.889	10958.34
637.083	10608.14
637.276	10653.19
637.47	10538.51
637.664	10364.43
637.857	10575.37
638.051	10386.96
638.244	10272.27
638.438	10284.56
638.632	10137.1
638.825	10020.37
639.019	10104.34
639.212	9909.78
639.406	10159.63
639.599	9913.88
639.793	9938.45
639.986	9829.91
640.18	9823.76
640.373	9840.15
640.567	9506.33
640.76	9694.74
640.954	9590.3
641.147	9616.92
641.34	9518.62
641.534	9510.43
641.727	9432.6
641.92	9408.03
642.114	9313.82
642.307	9274.91
642.5	9231.9
642.694	9225.76
642.887	9240.09
643.08	9147.94
643.273	9098.78
643.467	8943.14
643.66	8891.94
643.853	8764.96
644.046	8689.19
644.239	8861.22
644.432	8695.33
644.626	8605.22
644.819	8801.83
645.012	8486.44
645.205	8629.8
645.398	8609.32
645.591	8386.09
645.784	8316.46
645.977	8322.6
646.17	8259.12
646.363	8283.69
646.556	8238.64
646.749	8119.85
646.942	8060.46
647.135	8037.94
647.328	8126
647.521	8076.85
647.714	7861.81
647.907	8072.75
648.099	7951.92
648.292	8001.07
648.485	7835.19
648.678	7751.22
648.871	7732.79
649.064	7640.63
649.256	7702.07
649.449	7583.29
649.642	7673.4
649.835	7450.17
650.027	7466.55
650.22	7325.24
650.413	7355.96
650.605	7446.07
650.798	7210.56
650.991	7284.28
651.183	7261.76
651.376	7173.69
651.568	7237.18
651.761	7122.49
651.954	7081.53
652.146	7054.91
652.339	7091.77
652.531	7097.92
652.724	6872.64
652.916	6827.59
653.109	6864.45
653.301	6739.52
653.494	6968.9
653.686	6688.32
653.879	6809.15
654.071	6743.62
654.263	6598.21
654.456	6528.58
654.648	6698.56
654.84	6565.45
655.033	6415.94
655.225	6409.8
655.417	6538.82
655.61	6499.91
655.802	6495.82
655.994	6475.34
656.186	6311.5
656.379	6162
656.571	6360.65
656.763	6139.47
656.955	6157.9
657.148	6123.09
657.34	6153.8
657.532	6153.8
657.724	6049.36
657.916	5877.33
658.108	6047.31
658.3	5951.06
658.492	6084.17
658.684	5906
658.876	5906
659.068	5924.43
659.26	5795.41
659.452	5846.61
659.644	5787.22
659.836	5680.72
660.028	5668.44
660.22	5607
660.412	5721.68
660.604	5672.53
660.796	5582.42
660.988	5631.57
661.18	5566.04
661.372	5633.62
661.563	5580.37
661.755	5344.86
661.947	5418.58
662.139	5262.94
662.331	5439.06
662.522	5283.42
662.714	5172.83
662.906	5201.5
663.097	5338.71
663.289	5326.43
663.481	5199.45
663.673	5164.64
663.864	5310.04
664.056	4996.7
664.247	5174.88
664.439	5160.54
664.631	5092.96
664.822	5121.63
665.014	4894.3
665.205	4982.37
665.397	4882.02
665.588	4902.5
665.78	4978.27
665.971	4939.36
666.163	4841.06
666.354	4939.36
666.546	4664.93
666.737	4693.6
666.929	4812.39
667.12	4730.47
667.311	4771.43
667.503	4701.79
667.694	4693.6
667.885	4589.16
668.077	4847.2
668.268	4562.53
668.459	4687.46
668.651	4492.9
668.842	4574.82
669.033	4537.96
669.224	4501.09
669.416	4580.96
669.607	4517.48
669.798	4503.14
669.989	4464.23
670.18	4468.33
670.371	4406.89
670.563	4335.21
670.754	4431.46
670.945	4400.74
671.136	4312.68
671.327	4331.11
671.518	4222.57
671.709	4232.81
671.9	4386.41
672.091	4195.95
672.282	4247.15
672.473	4335.21
672.664	4150.89
672.855	4200.04
673.046	4056.68
673.237	4200.04
673.428	4120.17
673.619	4144.75
673.809	4152.94
674	4066.92
674.191	4142.7
674.382	4105.84
674.573	4073.07
674.764	4079.21
674.954	4066.92
675.145	3944.05
675.336	4128.36
675.527	3919.47
675.717	3982.96
675.908	3931.76
676.099	3958.38
676.289	3950.19
676.48	3851.89
676.671	3950.19
676.861	3952.24
677.052	3913.33
677.243	3829.36
677.433	3886.7
677.624	3980.91
677.814	3794.54
678.005	3966.57
678.195	3868.27
678.386	3829.36
678.576	3729.01
678.767	3700.34
678.957	3716.72
679.148	3894.9
679.338	3724.91
679.529	3835.5
679.719	3853.94
679.909	3954.29
680.1	3772.02
680.29	3921.52
680.481	3769.97
680.671	3837.55
680.861	3726.96
681.052	3778.16
681.242	3831.41
681.432	3817.07
681.622	3643
681.813	3731.06
682.003	3538.55
682.193	3587.7
682.383	3677.81
682.573	3636.85
682.764	3696.24
682.954	3663.47
683.144	3638.9
683.334	3556.98
683.524	3659.38
683.714	3739.25
683.904	3710.58
684.094	3698.29
684.284	3792.5
684.474	3589.75
684.664	3540.6
684.854	3581.56
685.044	3612.28
685.234	3599.99
685.424	3677.81
685.614	3643
685.804	3604.08
685.994	3645.04
686.184	3626.61
686.374	3481.21
686.564	3599.99
686.753	3419.77
686.943	3366.52
687.133	3432.05
687.323	3575.41
687.513	3368.57
687.702	3423.86
687.892	3206.78
688.082	3374.71
688.272	3348.09
688.461	3425.91
688.651	3477.11
688.841	3309.18
689.03	3284.6
689.22	3430.01
689.41	3243.64
689.599	3319.42
689.789	3251.83
689.979	3178.11
690.168	3235.45
690.358	3233.4
690.547	3202.68
690.737	3151.48
690.926	3210.87
691.116	3012.22
691.305	3237.5
691.495	3143.29
691.684	3128.95
691.874	3106.43
692.063	3214.97
692.252	3098.24
692.442	3116.67
692.631	3034.75
692.82	3124.86
693.01	3163.77
693.199	3128.95
693.388	2872.96
693.578	2907.77
693.767	2995.84
693.956	2999.93
694.146	3112.57
694.335	3006.08
694.524	2866.81
694.713	2956.93
694.902	2932.35
695.092	2967.17
695.281	2948.73
695.47	2969.21
695.659	2860.67
695.848	2825.86
696.037	3075.71
696.226	2952.83
696.415	2821.76
696.604	2961.02
696.793	2918.01
696.982	2829.95
697.171	2918.01
697.36	2891.39
697.549	2846.34
697.738	2928.25
697.927	2811.52
698.116	2705.03
698.305	2891.39
698.494	2920.06
698.683	2836.1
698.872	2864.77
699.061	2885.25
699.25	2834.05
699.438	2836.1
699.627	2879.1
699.816	2889.34
700.005	2811.52
700.193	2827.9
700.382	2958.97
700.571	2770.56
700.76	2786.94
700.948	2942.59
701.137	2739.84
701.326	2813.57
701.514	2696.83
701.703	2815.62
701.892	2735.74
702.08	2809.47
702.269	2725.51
702.457	2750.08
702.646	2641.54
702.834	2752.13
703.023	2829.95
703.212	2690.69
703.4	2786.94
703.589	2786.94
703.777	2643.59
703.965	2772.61
704.154	2862.72
704.342	2733.7
704.531	2576
704.719	2803.33
704.907	2860.67
705.096	2766.46
705.284	2768.51
705.472	2774.66
705.661	2795.14
705.849	2707.07
706.037	2764.42
706.226	2854.53
706.414	2756.22
706.602	2778.75
706.79	2731.65
706.979	2768.51
707.167	2713.22
707.355	2678.4
707.543	2719.36
707.731	2815.62
707.919	2705.03
708.107	2760.32
708.296	2784.9
708.484	2684.55
708.672	2604.67
708.86	2723.46
709.048	2741.89
709.236	2678.4
709.424	2905.73
709.612	2766.46
709.8	2711.17
709.988	2743.94
710.176	2780.8
710.364	2676.35
710.551	2739.84
710.739	2670.21
710.927	2752.13
711.115	2743.94
711.303	2805.38
711.491	2801.28
711.679	2801.28
711.866	2827.9
712.054	2858.62
712.242	2690.69
712.43	2776.7
712.617	2762.37
712.805	2737.79
712.993	2698.88
713.181	2590.34
713.368	2784.9
713.556	2723.46
713.744	2772.61
713.931	2784.9
714.119	2741.89
714.306	2635.39
714.494	2637.44
714.682	2739.84
714.869	2729.6
715.057	2782.85
715.244	2793.09
715.432	2633.35
715.619	2883.2
715.807	2772.61
715.994	2793.09
716.182	2723.46
716.369	2832
716.556	2780.8
716.744	2752.13
716.931	2731.65
717.119	2764.42
717.306	2707.07
717.493	2655.87
717.681	2776.7
717.868	2705.03
718.055	2750.08
718.242	2698.88
718.43	2696.83
718.617	2745.98
718.804	2797.18
718.991	2723.46
719.179	2670.21
719.366	2647.68
719.553	2682.5
719.74	2670.21
719.927	2549.38
720.114	2664.07
720.301	2774.66
720.488	2633.35
720.676	2698.88
720.863	2672.26
721.05	2778.75
721.237	2801.28
721.424	2762.37
721.611	2731.65
721.798	2668.16
721.985	2600.58
722.172	2623.11
722.358	2649.73
722.545	2686.59
722.732	2733.7
722.919	2737.79
723.106	2735.74
723.293	2729.6
723.48	2592.39
723.667	2616.96
723.853	2590.34
724.04	2872.96
724.227	2700.93
724.414	2649.73
724.6	2565.76
724.787	2561.67
724.974	2750.08
725.161	2674.31
725.347	2539.14
725.534	2619.01
725.72	2688.64
725.907	2694.79
726.094	2741.89
726.28	2692.74
726.467	2678.4
726.653	2682.5
726.84	2584.2
727.027	2733.7
727.213	2526.85
727.4	2535.04
727.586	2643.59
727.773	2672.26
727.959	2635.39
728.145	2813.57
728.332	2670.21
728.518	2604.67
728.705	2690.69
728.891	2649.73
729.077	2559.62
729.264	2670.21
729.45	2635.39
729.636	2680.45
729.823	2623.11
730.009	2621.06
730.195	2659.97
730.382	2741.89
730.568	2576
730.754	2633.35
730.94	2700.93
731.126	2590.34
731.313	2569.86
731.499	2649.73
731.685	2619.01
731.871	2614.91
732.057	2588.29
732.243	2504.32
732.429	2590.34
732.615	2555.52
732.801	2596.48
732.987	2481.8
733.173	2512.52
733.359	2576
733.545	2535.04
733.731	2584.2
733.917	2670.21
734.103	2567.81
734.289	2569.86
734.475	2469.51
734.661	2492.04
734.847	2623.11
735.033	2635.39
735.219	2520.71
735.404	2565.76
735.59	2475.65
735.776	2461.32
735.962	2631.3
736.148	2518.66
736.333	2555.52
736.519	2502.28
736.705	2393.73
736.89	2457.22
737.076	2475.65
737.262	2461.32
737.447	2440.84
737.633	2401.93
737.819	2377.35
738.004	2496.13
738.19	2389.64
738.375	2477.7
738.561	2533
738.747	2440.84
738.932	2434.69
739.118	2381.45
739.303	2453.13
739.489	2438.79
739.674	2348.68
739.859	2363.01
740.045	2432.65
740.23	2375.3
740.416	2383.49
740.601	2350.73
740.786	2459.27
740.972	2315.91
741.157	2410.12
741.342	2223.75
741.528	2207.37
741.713	2424.45
741.898	2342.53
742.084	2403.97
742.269	2233.99
742.454	2418.31
742.639	2313.86
742.824	2164.36
743.01	2250.38
743.195	2231.94
743.38	2260.62
743.565	2135.69
743.75	2195.08
743.935	2260.62
744.12	2188.94
744.305	2219.66
744.49	2086.54
744.675	2203.27
744.86	2129.55
745.045	2113.16
745.23	2117.26
745.415	2143.88
745.6	2227.85
745.785	2086.54
745.97	2047.63
746.155	2043.53
746.34	2096.78
746.525	2084.49
746.71	2031.24
746.895	2016.91
747.079	2059.92
747.264	2029.2
747.449	2002.57
747.634	1975.95
747.819	2043.53
748.003	1965.71
748.188	1900.17
748.373	1932.94
748.557	1898.13
748.742	1791.63
748.927	1855.12
749.111	1928.85
749.296	1853.07
749.481	1844.88
749.665	1834.64
749.85	1879.69
750.034	1756.82
750.219	1717.9
750.404	1746.58
750.588	1730.19
750.773	1738.38
750.957	1631.89
751.141	1707.66
751.326	1861.26
751.51	1588.88
751.695	1709.71
751.879	1719.95
752.064	1697.42
752.248	1599.12
752.432	1650.32
752.617	1678.99
752.801	1658.51
752.985	1656.47
753.17	1549.97
753.354	1590.93
753.538	1654.42
753.722	1611.41
753.907	1627.79
754.091	1543.83
754.275	1541.78
754.459	1494.68
754.643	1529.49
754.828	1476.24
755.012	1437.33
755.196	1453.72
755.38	1504.92
755.564	1418.9
755.748	1345.17
755.932	1506.96
756.116	1418.9
756.3	1392.28
756.484	1285.78
756.668	1511.06
756.852	1318.55
757.036	1351.32
757.22	1353.37
757.404	1339.03
757.588	1355.41
757.772	1314.45
757.956	1392.28
758.14	1336.98
758.323	1257.11
758.507	1341.08
758.691	1345.17
758.875	1355.41
759.059	1267.35
759.242	1242.78
759.426	1246.87
759.61	1263.26
759.794	1300.12
759.977	1214.1
760.161	1330.84
760.345	1212.06
760.528	1293.97
760.712	1302.17
760.895	1232.54
761.079	1126.04
761.263	1181.34
761.446	1152.67
761.63	1234.58
761.813	1146.52
761.997	1089.18
762.18	1193.62
762.364	1160.86
762.547	1068.7
762.731	1152.67
762.914	1177.24
763.098	1181.34
763.281	1001.12
763.464	1087.13
763.648	1115.8
763.831	1097.37
764.015	1019.55
764.198	1093.27
764.381	1060.51
764.564	1109.66
764.748	1164.95
764.931	1093.27
765.114	1105.56
765.297	1072.79
765.481	1015.45
765.664	976.54
765.847	1095.32
766.03	1095.32
766.213	949.92
766.397	970.4
766.58	980.64
766.763	1056.41
766.946	947.87
767.129	999.07
767.312	1027.74
767.495	986.78
767.678	999.07
767.861	988.83
768.044	978.59
768.227	925.34
768.41	908.96
768.593	1050.27
768.776	943.77
768.959	890.53
769.142	1060.51
769.324	847.52
769.507	972.44
769.69	962.2
769.873	872.09
770.056	937.63
770.239	978.59
770.421	921.24
770.604	970.4
770.787	945.82
770.97	886.43
771.152	913.05
771.335	976.54
771.518	861.85
771.7	913.05
771.883	857.76
772.066	843.42
772.248	945.82
772.431	919.2
772.613	837.28
772.796	892.57
772.978	861.85
773.161	874.14
773.343	767.65
773.526	872.09
773.708	755.36
773.891	798.37
774.073	902.81
774.256	773.79
774.438	790.17
774.621	794.27
774.803	763.55
774.985	761.5
775.168	777.89
775.35	749.22
775.532	861.85
775.715	761.5
775.897	749.22
776.079	775.84
776.261	779.93
776.444	659.1
776.626	786.08
776.808	738.98
776.99	665.25
777.173	759.46
777.355	761.5
777.537	736.93
777.719	763.55
777.901	659.1
778.083	661.15
778.265	636.58
778.447	675.49
778.629	663.2
778.811	667.3
778.993	691.87
779.175	700.06
779.357	620.19
779.539	560.8
779.721	675.49
779.903	579.23
780.085	605.86
780.267	585.38
780.449	632.48
780.631	671.39
780.812	581.28
780.994	593.57
781.176	566.95
781.358	679.58
781.54	601.76
781.721	593.57
781.903	579.23
782.085	595.62
782.267	552.61
782.448	501.41
782.63	581.28
782.812	638.62
782.993	589.47
783.175	487.08
783.357	528.03
783.538	521.89
783.72	558.75
783.901	503.46
784.083	573.09
784.264	564.9
784.446	421.54
784.627	444.07
784.809	501.41
784.99	439.97
785.172	431.78
785.353	380.58
785.535	417.44
785.716	464.55
785.897	427.68
786.079	413.35
786.26	544.42
786.441	429.73
786.623	399.01
786.804	470.69
786.985	460.45
787.167	470.69
787.348	444.07
787.529	503.46
787.71	519.84
787.891	452.26
788.073	364.2
788.254	466.6
788.435	464.55
788.616	444.07
788.797	378.53
788.978	425.64
789.159	423.59
789.34	431.78
789.522	407.2
789.703	388.77
789.884	454.31
790.065	380.58
790.246	372.39
790.427	396.96
790.607	333.48
790.788	386.72
790.969	374.44
791.15	380.58
791.331	407.2
791.512	421.54
791.693	358.05
791.874	349.86
792.054	386.72
792.235	419.49
792.416	384.68
792.597	341.67
792.778	417.44
792.958	335.53
793.139	331.43
793.32	341.67
793.5	327.33
793.681	405.16
793.862	302.76
794.042	353.96
794.223	229.03
794.404	325.29
794.584	323.24
794.765	384.68
794.945	366.25
795.126	356.01
795.306	366.25
795.487	335.53
795.667	306.85
795.848	317.09
796.028	249.51
796.209	302.76
796.389	263.85
796.57	302.76
796.75	362.15
796.93	304.81
797.111	333.48
797.291	329.38
797.471	296.61
797.652	278.18
797.832	298.66
798.012	269.99
798.192	259.75
798.373	249.51
798.553	263.85
798.733	202.41
798.913	239.27
799.093	192.17
799.274	278.18
799.454	278.18
799.634	356.01
799.814	272.04
799.994	290.47
800.174	280.23
800.354	257.7
800.534	210.6
800.714	343.72
800.894	288.42
801.074	253.61
801.254	245.41
801.434	298.66
801.614	308.9
801.794	192.17
801.974	796.32
802.154	198.31
802.334	224.94
802.514	276.13
802.693	231.08
802.873	245.41
803.053	304.81
803.233	245.41
803.413	200.36
803.592	202.41
803.772	231.08
803.952	204.46
804.131	222.89
804.311	224.94
804.491	304.81
804.67	233.13
804.85	183.98
805.03	224.94
805.209	253.61
805.389	241.32
805.568	294.57
805.748	216.74
805.928	249.51
806.107	216.74
806.287	202.41
806.466	257.7
806.646	214.7
806.825	198.31
807.004	200.36
807.184	235.18
807.363	243.37
807.543	224.94
807.722	251.56
807.901	247.46
808.081	249.51
808.26	190.12
808.439	214.7
808.619	210.6
808.798	255.65
808.977	265.89
809.156	224.94
809.336	175.78
809.515	196.26
809.694	167.59
809.873	167.59
810.052	169.64
810.231	226.98
810.411	188.07
810.59	257.7
810.769	104.11
810.948	181.93
811.127	196.26
811.306	212.65
811.485	175.78
811.664	192.17
811.843	186.02
812.022	239.27
812.201	212.65
812.38	241.32
812.559	132.78
812.737	104.11
812.916	122.54
813.095	143.02
813.274	196.26
813.453	157.35
813.632	132.78
813.811	169.64
813.989	108.2
814.168	136.87
814.347	159.4
814.526	153.26
814.704	208.55
814.883	206.5
815.062	145.06
815.24	161.45
815.419	147.11
815.598	247.46
815.776	18.09
815.955	188.07
816.133	149.16
816.312	157.35
816.49	183.98
816.669	229.03
816.847	167.59
817.026	124.58
817.204	231.08
817.383	87.72
817.561	173.74
817.74	190.12
817.918	140.97
818.097	116.39
818.275	110.25
818.453	77.48
818.632	149.16
818.81	155.3
818.988	173.74
819.167	85.67
819.345	124.58
819.523	161.45
819.701	118.44
819.879	177.83
820.058	134.82
820.236	95.91
820.414	190.12
820.592	122.54
820.77	196.26
820.948	147.11
821.127	140.97
821.305	151.21
821.483	79.53
821.661	140.97
821.839	132.78
822.017	126.63
822.195	140.97
822.373	237.22
822.551	134.82
822.729	134.82
822.907	59.05
823.085	126.63
823.262	71.34
823.44	132.78
823.618	151.21
823.796	75.43
823.974	114.34
824.152	118.44
824.329	181.93
824.507	171.69
824.685	128.68
824.863	149.16
825.04	143.02
825.218	155.3
825.396	106.15
825.574	124.58
825.751	77.48
825.929	102.06
826.107	167.59
826.284	97.96
826.462	106.15
826.639	48.81
826.817	79.53
826.994	71.34
827.172	87.72
827.349	138.92
827.527	173.74
827.704	87.72
827.882	169.64
828.059	124.58
828.237	116.39
828.414	93.87
828.591	73.39
828.769	89.77
828.946	89.77
829.124	87.72
829.301	175.78
829.478	106.15
829.655	120.49
829.833	93.87
830.01	73.39
830.187	79.53
830.364	65.19
830.542	91.82
830.719	157.35
830.896	61.1
831.073	42.67
831.25	67.24
831.427	118.44
831.604	81.58
831.782	26.28
831.959	122.54
832.136	167.59
832.313	110.25
832.49	30.38
832.667	120.49
832.844	28.33
833.021	134.82
833.198	9.9
833.374	89.77
833.551	69.29
833.728	91.82
833.905	126.63
834.082	16.04
834.259	75.43
834.436	59.05
834.612	38.57
834.789	149.16
834.966	48.81
835.143	116.39
835.319	75.43
835.496	24.23
835.673	77.48
835.85	134.82
836.026	26.28
836.203	106.15
836.38	11.95
836.556	83.63
836.733	151.21
836.909	130.73
837.086	140.97
837.262	46.76
837.439	67.24
837.616	112.3
837.792	5.8
837.968	140.97
838.145	38.57
838.321	36.52
838.498	83.63
838.674	87.72
838.851	18.09
839.027	77.48
839.203	100.01
839.38	75.43
839.556	81.58
839.732	52.91
839.909	36.52
840.085	52.91
840.261	13.99
840.437	69.29
840.614	36.52
840.79	69.29
840.966	95.91
841.142	36.52
841.318	69.29
841.494	114.34
841.671	106.15
841.847	65.19
842.023	95.91
842.199	75.43
842.375	50.86
842.551	-24.92
842.727	3.75
842.903	108.2
843.079	73.39
843.255	63.15
843.431	28.33
843.607	67.24
843.783	57
843.959	24.23
844.134	32.43
844.31	97.96
844.486	48.81
844.662	-0.34
844.838	24.23
845.013	89.77
845.189	32.43
845.365	95.91
845.541	30.38
845.716	34.47
845.892	50.86
846.068	69.29
846.244	5.8
846.419	97.96
846.595	26.28
846.77	-31.06
846.946	151.21
847.122	-0.34
847.297	28.33
847.473	71.34
847.648	30.38
847.824	63.15
847.999	5.8
848.175	57
848.35	13.99
848.526	77.48
848.701	93.87
848.876	59.05
849.052	100.01
849.227	81.58
849.403	52.91
849.578	108.2
849.753	75.43
849.929	59.05
850.104	9.9
850.279	63.15
850.454	-29.01
850.63	100.01
850.805	102.06
850.98	89.77
851.155	85.67
851.33	69.29
851.505	69.29
851.681	32.43
851.856	81.58
852.031	65.19
852.206	85.67
852.381	-31.06
852.556	48.81
852.731	48.81
852.906	52.91
853.081	24.23
853.256	42.67
853.431	3.75
853.606	16.04
853.781	67.24
853.956	-29.01
854.131	95.91
854.305	-69.97
854.48	34.47
854.655	36.52
854.83	46.76
855.005	79.53
855.18	18.09
855.354	24.23
855.529	61.1
855.704	61.1
855.879	40.62
856.053	48.81
856.228	9.9
856.403	159.4
856.577	46.76
856.752	18.09
856.926	-37.2
857.101	7.85
857.276	18.09
857.45	18.09
857.625	75.43
857.799	108.2
857.974	24.23
858.148	100.01
858.323	-35.16
858.497	77.48
858.672	46.76
858.846	63.15
859.02	16.04
859.195	-4.44
859.369	52.91
859.543	59.05
859.718	147.11
859.892	104.11
860.066	93.87
860.241	9.9
860.415	50.86
860.589	22.19
860.763	3.75
860.938	89.77
861.112	36.52
861.286	52.91
861.46	79.53
861.634	57
861.808	36.52
861.982	9.9
862.157	7.85
862.331	32.43
862.505	20.14
862.679	-12.63
862.853	-29.01
863.027	110.25
863.201	63.15
863.375	24.23
863.549	-4.44
863.722	-12.63
863.896	52.91
864.07	7.85
864.244	52.91
864.418	50.86
864.592	65.19
864.766	18.09
864.939	69.29
865.113	-14.68
865.287	-4.44
865.461	-14.68
865.634	65.19
865.808	22.19
865.982	-22.87
866.156	-0.34
866.329	-35.16
866.503	-10.58
866.676	59.05
866.85	79.53
867.024	44.71
867.197	106.15
867.371	79.53
867.544	-12.63
867.718	16.04
867.891	-8.53
868.065	-0.34
868.238	44.71
868.412	75.43
868.585	61.1
868.759	20.14
868.932	40.62
869.105	50.86
869.279	28.33
869.452	20.14
869.625	89.77
869.799	34.47
869.972	26.28
870.145	-6.49
870.319	100.01
870.492	-24.92
870.665	28.33
870.838	-8.53
871.011	3.75
871.185	-0.34
871.358	16.04
871.531	13.99
871.704	48.81
871.877	48.81
872.05	50.86
872.223	77.48
872.396	50.86
872.569	75.43
872.742	-0.34
872.915	34.47
873.088	11.95
873.261	3.75
873.434	-18.77
873.607	32.43
873.78	-14.68
873.953	-37.2
874.126	73.39
874.299	20.14
874.471	48.81
874.644	81.58
874.817	83.63
874.99	95.91
875.163	16.04
875.335	24.23
875.508	36.52
875.681	73.39
875.853	48.81
876.026	5.8
876.199	20.14
876.371	7.85
876.544	18.09
876.717	97.96
876.889	-45.4
877.062	52.91
877.234	-6.49
877.407	13.99
877.579	28.33
877.752	28.33
877.924	28.33
878.097	9.9
878.269	54.95
878.442	48.81
878.614	-57.68
878.786	65.19
878.959	-0.34
879.131	85.67
879.303	-18.77
879.476	48.81
879.648	3.75
879.82	54.95
879.993	7.85
880.165	46.76
880.337	-29.01
880.509	5.8
880.681	3.75
880.854	50.86
881.026	46.76
881.198	54.95
881.37	18.09
881.542	22.19
881.714	-14.68
881.886	-49.49
882.058	18.09
882.23	24.23
882.402	-20.82
882.574	28.33
882.746	81.58
882.918	61.1
883.09	-8.53
883.262	26.28
883.434	73.39
883.606	-18.77
883.778	-74.07
883.95	59.05
884.122	44.71
884.293	83.63
884.465	-37.2
884.637	38.57
884.809	20.14
884.98	-24.92
885.152	44.71
885.324	18.09
885.496	24.23
885.667	-84.31
885.839	-29.01
886.011	97.96
886.182	-47.44
886.354	97.96
886.525	7.85
886.697	-29.01
886.869	13.99
887.04	34.47
887.212	5.8
887.383	59.05
887.555	26.28
887.726	-33.11
887.897	22.19
888.069	26.28
888.24	71.34
888.412	-6.49
888.583	-0.34
888.754	28.33
888.926	-33.11
889.097	-18.77
889.268	-53.59
889.44	1.71
889.611	61.1
889.782	46.76
889.953	1.71
890.125	-20.82
890.296	-8.53
890.467	20.14
890.638	32.43
890.809	67.24
890.98	-24.92
891.151	24.23
891.323	42.67
891.494	83.63
891.665	36.52
891.836	-12.63
892.007	9.9
892.178	34.47
892.349	18.09
892.52	-59.73
892.691	18.09
892.862	42.67
893.032	52.91
893.203	26.28
893.374	18.09
893.545	79.53
893.716	20.14
893.887	32.43
894.057	-2.39
894.228	-53.59
894.399	52.91
894.57	34.47
894.74	42.67
894.911	-12.63
895.082	-69.97
895.253	-6.49
895.423	28.33
895.594	26.28
895.764	18.09
895.935	28.33
896.106	30.38
896.276	16.04
896.447	50.86
896.617	79.53
896.788	-72.02
896.958	-31.06
897.129	57
897.299	18.09
897.47	22.19
897.64	28.33
897.81	16.04
897.981	114.34
898.151	-35.16
898.322	-16.73
898.492	-12.63
898.662	36.52
898.832	46.76
899.003	9.9
899.173	59.05
899.343	-35.16
899.513	9.9
