Data from USB4F104151__173__10-27-35-418.txt Node

Date: Wed Mar 12 10:27:35 EDT 2025
User: louis
Spectrometer: USB4F10415
Trigger mode: 4
Integration Time (sec): 3.000000E-2
Scans to average: 1
Electric dark correction enabled: true
Nonlinearity correction enabled: false
Boxcar width: 0
XAxis mode: Wavelengths
Number of Pixels in Spectrum: 3648
>>>>>Begin Spectral Data<<<<<
178.204	-112.81
178.424	-112.81
178.644	-112.81
178.864	-143.53
179.084	-112.81
179.304	12.12
179.524	40.79
179.744	-37.03
179.964	30.55
180.184	-39.08
180.404	-43.18
180.624	14.17
180.844	-69.8
181.064	-22.7
181.283	16.21
181.503	24.4
181.723	73.56
181.943	-24.75
182.163	24.4
182.383	12.12
182.602	14.17
182.822	42.84
183.042	-4.27
183.262	-2.22
183.482	18.26
183.701	53.08
183.921	-16.55
184.141	57.17
184.361	12.12
184.58	26.45
184.8	-18.6
185.02	34.64
185.239	-8.36
185.459	20.31
185.679	69.46
185.898	51.03
186.118	98.13
186.338	26.45
186.557	75.6
186.777	3.93
186.997	32.6
187.216	-16.55
187.436	-10.41
187.655	18.26
187.875	59.22
188.095	-4.27
188.314	83.8
188.534	100.18
188.753	28.5
188.973	59.22
189.192	110.42
189.412	12.12
189.631	32.6
189.851	61.27
190.07	36.69
190.29	16.21
190.509	28.5
190.729	8.02
190.948	65.36
191.168	151.38
191.387	36.69
191.607	-28.84
191.826	26.45
192.045	22.36
192.265	-6.31
192.484	18.26
192.704	59.22
192.923	-28.84
193.142	79.7
193.362	59.22
193.581	36.69
193.8	44.88
194.02	8.02
194.239	28.5
194.458	69.46
194.678	3.93
194.897	28.5
195.116	48.98
195.335	36.69
195.555	83.8
195.774	51.03
195.993	12.12
196.212	-32.94
196.432	16.21
196.651	24.4
196.87	-28.84
197.089	139.09
197.308	16.21
197.528	10.07
197.747	40.79
197.966	-26.79
198.185	108.37
198.404	-12.46
198.623	-45.23
198.842	71.51
199.062	59.22
199.281	89.94
199.5	75.6
199.719	1.88
199.938	65.36
200.157	48.98
200.376	32.6
200.595	36.69
200.814	16.21
201.033	34.64
201.252	73.56
201.471	40.79
201.69	-0.17
201.909	61.27
202.128	22.36
202.347	81.75
202.566	44.88
202.785	34.64
203.004	-28.84
203.223	130.9
203.442	34.64
203.661	24.4
203.879	5.97
204.098	1.88
204.317	40.79
204.536	112.47
204.755	51.03
204.974	26.45
205.193	26.45
205.411	110.42
205.63	32.6
205.849	51.03
206.068	63.32
206.287	89.94
206.505	75.6
206.724	59.22
206.943	-2.22
207.162	46.93
207.381	108.37
207.599	75.6
207.818	53.08
208.037	28.5
208.255	32.6
208.474	57.17
208.693	-4.27
208.911	-26.79
209.13	48.98
209.349	48.98
209.567	106.32
209.786	51.03
210.005	36.69
210.223	44.88
210.442	20.31
210.661	67.41
210.879	67.41
211.098	65.36
211.316	61.27
211.535	22.36
211.753	-30.89
211.972	20.31
212.191	32.6
212.409	-6.31
212.628	-10.41
212.846	-12.46
213.065	81.75
213.283	98.13
213.502	14.17
213.72	-37.03
213.938	32.6
214.157	57.17
214.375	-26.79
214.594	32.6
214.812	51.03
215.031	46.93
215.249	57.17
215.467	-28.84
215.686	30.55
215.904	85.84
216.122	-30.89
216.341	16.21
216.559	16.21
216.778	-8.36
216.996	81.75
217.214	3.93
217.432	20.31
217.651	42.84
217.869	5.97
218.087	30.55
218.306	32.6
218.524	-12.46
218.742	-22.7
218.96	-0.17
219.179	38.74
219.397	14.17
219.615	79.7
219.833	-4.27
220.051	32.6
220.27	91.99
220.488	12.12
220.706	26.45
220.924	69.46
221.142	55.12
221.36	20.31
221.578	30.55
221.796	75.6
222.015	77.65
222.233	59.22
222.451	51.03
222.669	22.36
222.887	26.45
223.105	-20.65
223.323	75.6
223.541	71.51
223.759	12.12
223.977	10.07
224.195	10.07
224.413	18.26
224.631	51.03
224.849	61.27
225.067	26.45
225.285	-43.18
225.503	-4.27
225.721	-73.9
225.939	20.31
226.157	-0.17
226.375	85.84
226.592	16.21
226.81	-2.22
227.028	36.69
227.246	-4.27
227.464	30.55
227.682	118.61
227.9	-12.46
228.117	51.03
228.335	75.6
228.553	51.03
228.771	102.23
228.989	67.41
229.206	18.26
229.424	61.27
229.642	22.36
229.86	36.69
230.077	36.69
230.295	51.03
230.513	87.89
230.731	53.08
230.948	135
231.166	16.21
231.384	22.36
231.601	81.75
231.819	63.32
232.037	38.74
232.254	-61.61
232.472	12.12
232.689	34.64
232.907	149.33
233.125	30.55
233.342	-10.41
233.56	-12.46
233.777	-37.03
233.995	34.64
234.213	96.08
234.43	65.36
234.648	-88.23
234.865	34.64
235.083	65.36
235.3	53.08
235.518	8.02
235.735	106.32
235.953	18.26
236.17	5.97
236.388	51.03
236.605	22.36
236.822	42.84
237.04	57.17
237.257	-14.51
237.475	-12.46
237.692	-30.89
237.909	53.08
238.127	24.4
238.344	24.4
238.562	85.84
238.779	-37.03
238.996	-45.23
239.214	-4.27
239.431	16.21
239.648	53.08
239.865	65.36
240.083	55.12
240.3	10.07
240.517	1.88
240.735	73.56
240.952	75.6
241.169	106.32
241.386	32.6
241.603	51.03
241.821	28.5
242.038	12.12
242.255	-16.55
242.472	81.75
242.689	61.27
242.907	48.98
243.124	8.02
243.341	14.17
243.558	-26.79
243.775	8.02
243.992	1.88
244.209	-32.94
244.426	61.27
244.643	24.4
244.86	73.56
245.078	71.51
245.295	24.4
245.512	46.93
245.729	-16.55
245.946	-2.22
246.163	63.32
246.38	28.5
246.597	48.98
246.814	53.08
247.031	12.12
247.248	53.08
247.464	114.52
247.681	83.8
247.898	69.46
248.115	77.65
248.332	34.64
248.549	22.36
248.766	36.69
248.983	89.94
249.2	5.97
249.417	16.21
249.633	36.69
249.85	-16.55
250.067	42.84
250.284	38.74
250.501	59.22
250.717	16.21
250.934	28.5
251.151	-8.36
251.368	65.36
251.585	32.6
251.801	42.84
252.018	20.31
252.235	44.88
252.451	-20.65
252.668	100.18
252.885	24.4
253.102	48.98
253.318	110.42
253.535	8.02
253.752	-14.51
253.968	69.46
254.185	-0.17
254.401	-20.65
254.618	18.26
254.835	12.12
255.051	85.84
255.268	89.94
255.484	36.69
255.701	14.17
255.917	-4.27
256.134	53.08
256.351	53.08
256.567	-8.36
256.784	77.65
257	-57.51
257.217	38.74
257.433	-12.46
257.65	-6.31
257.866	20.31
258.082	65.36
258.299	48.98
258.515	42.84
258.732	59.22
258.948	46.93
259.165	8.02
259.381	-18.6
259.597	3.93
259.814	-16.55
260.03	32.6
260.246	42.84
260.463	16.21
260.679	83.8
260.895	63.32
261.112	67.41
261.328	18.26
261.544	85.84
261.761	83.8
261.977	-12.46
262.193	12.12
262.409	65.36
262.626	-16.55
262.842	32.6
263.058	3.93
263.274	71.51
263.49	-8.36
263.707	57.17
263.923	-32.94
264.139	-51.37
264.355	67.41
264.571	24.4
264.787	20.31
265.004	3.93
265.22	65.36
265.436	65.36
265.652	114.52
265.868	20.31
266.084	20.31
266.3	20.31
266.516	-47.27
266.732	8.02
266.948	40.79
267.164	48.98
267.38	-0.17
267.596	51.03
267.812	16.21
268.028	38.74
268.244	20.31
268.46	44.88
268.676	53.08
268.892	36.69
269.108	42.84
269.324	5.97
269.54	40.79
269.756	69.46
269.972	12.12
270.188	42.84
270.403	42.84
270.619	46.93
270.835	53.08
271.051	-6.31
271.267	36.69
271.483	34.64
271.698	26.45
271.914	34.64
272.13	5.97
272.346	8.02
272.562	48.98
272.777	61.27
272.993	87.89
273.209	106.32
273.425	63.32
273.64	-55.47
273.856	30.55
274.072	36.69
274.287	44.88
274.503	100.18
274.719	18.26
274.934	-22.7
275.15	40.79
275.366	83.8
275.581	26.45
275.797	12.12
276.012	38.74
276.228	87.89
276.444	5.97
276.659	96.08
276.875	67.41
277.09	-2.22
277.306	63.32
277.521	-2.22
277.737	-0.17
277.952	32.6
278.168	34.64
278.383	40.79
278.599	20.31
278.814	61.27
279.03	57.17
279.245	34.64
279.461	-14.51
279.676	59.22
279.892	-0.17
280.107	-41.13
280.322	-26.79
280.538	63.32
280.753	-20.65
280.969	-20.65
281.184	53.08
281.399	55.12
281.615	-55.47
281.83	26.45
282.045	-71.85
282.26	77.65
282.476	26.45
282.691	59.22
282.906	96.08
283.122	24.4
283.337	3.93
283.552	24.4
283.767	122.71
283.983	73.56
284.198	-22.7
284.413	8.02
284.628	-14.51
284.843	-4.27
285.058	53.08
285.274	18.26
285.489	-65.71
285.704	55.12
285.919	16.21
286.134	75.6
286.349	18.26
286.564	-45.23
286.779	69.46
286.995	63.32
287.21	-41.13
287.425	57.17
287.64	-14.51
287.855	3.93
288.07	-24.75
288.285	73.56
288.5	46.93
288.715	122.71
288.93	-4.27
289.145	-4.27
289.36	87.89
289.575	61.27
289.79	139.09
290.004	32.6
290.219	81.75
290.434	51.03
290.649	67.41
290.864	-8.36
291.079	18.26
291.294	18.26
291.509	12.12
291.724	77.65
291.938	24.4
292.153	10.07
292.368	40.79
292.583	77.65
292.798	46.93
293.012	61.27
293.227	24.4
293.442	-8.36
293.657	18.26
293.871	110.42
294.086	77.65
294.301	98.13
294.516	94.04
294.73	83.8
294.945	-0.17
295.16	22.36
295.374	14.17
295.589	16.21
295.804	10.07
296.018	83.8
296.233	77.65
296.447	14.17
296.662	16.21
296.877	-41.13
297.091	85.84
297.306	22.36
297.52	24.4
297.735	10.07
297.949	59.22
298.164	65.36
298.378	10.07
298.593	28.5
298.807	34.64
299.022	71.51
299.236	46.93
299.451	30.55
299.665	5.97
299.88	69.46
300.094	42.84
300.309	-16.55
300.523	14.17
300.737	77.65
300.952	42.84
301.166	69.46
301.381	-28.84
301.595	69.46
301.809	-47.27
302.024	-8.36
302.238	24.4
302.452	69.46
302.667	69.46
302.881	32.6
303.095	85.84
303.309	5.97
303.524	10.07
303.738	1.88
303.952	67.41
304.166	57.17
304.381	-6.31
304.595	104.28
304.809	75.6
305.023	57.17
305.237	-53.42
305.452	22.36
305.666	1.88
305.88	57.17
306.094	20.31
306.308	40.79
306.522	26.45
306.736	100.18
306.95	46.93
307.164	26.45
307.379	-16.55
307.593	137.04
307.807	69.46
308.021	53.08
308.235	44.88
308.449	18.26
308.663	-30.89
308.877	42.84
309.091	51.03
309.305	-0.17
309.519	-28.84
309.733	126.8
309.947	61.27
310.161	102.23
310.374	-34.99
310.588	122.71
310.802	-57.51
311.016	32.6
311.23	12.12
311.444	3.93
311.658	71.51
311.872	77.65
312.085	22.36
312.299	42.84
312.513	110.42
312.727	16.21
312.941	-45.23
313.154	135
313.368	-6.31
313.582	34.64
313.796	-0.17
314.009	65.36
314.223	40.79
314.437	10.07
314.651	83.8
314.864	38.74
315.078	10.07
315.292	48.98
315.505	-22.7
315.719	81.75
315.933	8.02
316.146	51.03
316.36	-10.41
316.573	-12.46
316.787	40.79
317.001	55.12
317.214	22.36
317.428	-0.17
317.641	61.27
317.855	-41.13
318.068	40.79
318.282	57.17
318.495	3.93
318.709	10.07
318.922	3.93
319.136	73.56
319.349	36.69
319.563	1.88
319.776	65.36
319.99	-77.99
320.203	36.69
320.417	69.46
320.63	-2.22
320.843	87.89
321.057	44.88
321.27	-43.18
321.483	73.56
321.697	85.84
321.91	1.88
322.124	18.26
322.337	67.41
322.55	30.55
322.763	65.36
322.977	63.32
323.19	69.46
323.403	24.4
323.617	20.31
323.83	40.79
324.043	67.41
324.256	-0.17
324.469	44.88
324.683	42.84
324.896	20.31
325.109	65.36
325.322	20.31
325.535	102.23
325.748	26.45
325.962	34.64
326.175	36.69
326.388	5.97
326.601	20.31
326.814	-0.17
327.027	102.23
327.24	89.94
327.453	-10.41
327.666	30.55
327.879	85.84
328.092	48.98
328.305	73.56
328.518	-0.17
328.731	26.45
328.944	51.03
329.157	16.21
329.37	22.36
329.583	91.99
329.796	55.12
330.009	14.17
330.222	124.76
330.435	65.36
330.648	118.61
330.861	73.56
331.073	36.69
331.286	63.32
331.499	5.97
331.712	34.64
331.925	12.12
332.138	10.07
332.35	40.79
332.563	40.79
332.776	77.65
332.989	63.32
333.202	94.04
333.414	20.31
333.627	42.84
333.84	-8.36
334.053	55.12
334.265	53.08
334.478	14.17
334.691	44.88
334.903	67.41
335.116	-0.17
335.329	67.41
335.541	79.7
335.754	24.4
335.966	44.88
336.179	32.6
336.392	53.08
336.604	91.99
336.817	61.27
337.029	63.32
337.242	83.8
337.454	69.46
337.667	-20.65
337.88	40.79
338.092	61.27
338.305	32.6
338.517	-14.51
338.729	44.88
338.942	67.41
339.154	8.02
339.367	1.88
339.579	81.75
339.792	5.97
340.004	42.84
340.217	108.37
340.429	5.97
340.641	85.84
340.854	71.51
341.066	100.18
341.278	24.4
341.491	36.69
341.703	116.56
341.915	-6.31
342.128	14.17
342.34	59.22
342.552	10.07
342.764	53.08
342.977	46.93
343.189	22.36
343.401	53.08
343.613	-4.27
343.826	57.17
344.038	-30.89
344.25	114.52
344.462	24.4
344.674	169.81
344.886	-12.46
345.099	22.36
345.311	53.08
345.523	40.79
345.735	67.41
345.947	100.18
346.159	36.69
346.371	-4.27
346.583	-4.27
346.795	61.27
347.007	94.04
347.219	14.17
347.431	71.51
347.643	32.6
347.855	-32.94
348.067	85.84
348.279	-0.17
348.491	10.07
348.703	16.21
348.915	32.6
349.127	79.7
349.339	-24.75
349.551	106.32
349.763	94.04
349.975	61.27
350.187	-2.22
350.399	79.7
350.61	53.08
350.822	34.64
351.034	16.21
351.246	65.36
351.458	83.8
351.669	20.31
351.881	91.99
352.093	34.64
352.305	137.04
352.517	79.7
352.728	69.46
352.94	118.61
353.152	8.02
353.363	14.17
353.575	38.74
353.787	57.17
353.999	32.6
354.21	28.5
354.422	12.12
354.633	26.45
354.845	12.12
355.057	85.84
355.268	151.38
355.48	59.22
355.692	-80.04
355.903	34.64
356.115	59.22
356.326	5.97
356.538	30.55
356.749	-20.65
356.961	157.52
357.172	-4.27
357.384	22.36
357.595	75.6
357.807	5.97
358.018	91.99
358.23	75.6
358.441	94.04
358.653	59.22
358.864	53.08
359.075	-6.31
359.287	59.22
359.498	114.52
359.709	71.51
359.921	28.5
360.132	147.28
360.344	61.27
360.555	24.4
360.766	53.08
360.977	44.88
361.189	51.03
361.4	30.55
361.611	114.52
361.823	118.61
362.034	61.27
362.245	40.79
362.456	63.32
362.667	-8.36
362.879	26.45
363.09	69.46
363.301	67.41
363.512	73.56
363.723	63.32
363.935	34.64
364.146	36.69
364.357	46.93
364.568	61.27
364.779	-6.31
364.99	91.99
365.201	20.31
365.412	85.84
365.623	59.22
365.834	14.17
366.045	51.03
366.256	73.56
366.467	59.22
366.678	61.27
366.889	61.27
367.1	108.37
367.311	135
367.522	34.64
367.733	77.65
367.944	81.75
368.155	110.42
368.366	106.32
368.577	24.4
368.788	100.18
368.999	73.56
369.209	42.84
369.42	40.79
369.631	112.47
369.842	147.28
370.053	53.08
370.264	77.65
370.474	38.74
370.685	28.5
370.896	83.8
371.107	85.84
371.317	48.98
371.528	1.88
371.739	85.84
371.95	81.75
372.16	34.64
372.371	14.17
372.582	-8.36
372.792	71.51
373.003	77.65
373.214	34.64
373.424	139.09
373.635	32.6
373.846	16.21
374.056	28.5
374.267	28.5
374.477	28.5
374.688	124.76
374.898	85.84
375.109	-55.47
375.319	61.27
375.53	143.19
375.74	57.17
375.951	51.03
376.161	77.65
376.372	79.7
376.582	79.7
376.793	75.6
377.003	102.23
377.214	20.31
377.424	30.55
377.635	57.17
377.845	55.12
378.055	57.17
378.266	24.4
378.476	53.08
378.686	85.84
378.897	-4.27
379.107	34.64
379.317	55.12
379.528	69.46
379.738	71.51
379.948	61.27
380.158	139.09
380.369	85.84
380.579	151.38
380.789	46.93
380.999	89.94
381.21	10.07
381.42	96.08
381.63	16.21
381.84	-12.46
382.05	10.07
382.261	32.6
382.471	126.8
382.681	1.88
382.891	38.74
383.101	57.17
383.311	-8.36
383.521	34.64
383.731	42.84
383.941	114.52
384.151	155.47
384.361	36.69
384.571	81.75
384.781	46.93
384.991	102.23
385.201	65.36
385.411	71.51
385.621	36.69
385.831	42.84
386.041	108.37
386.251	57.17
386.461	114.52
386.671	59.22
386.881	85.84
387.091	-6.31
387.301	100.18
387.511	149.33
387.72	85.84
387.93	89.94
388.14	118.61
388.35	67.41
388.56	53.08
388.769	1.88
388.979	28.5
389.189	24.4
389.399	147.28
389.609	59.22
389.818	30.55
390.028	83.8
390.238	118.61
390.447	77.65
390.657	57.17
390.867	83.8
391.076	79.7
391.286	85.84
391.496	53.08
391.705	24.4
391.915	137.04
392.125	79.7
392.334	112.47
392.544	71.51
392.753	104.28
392.963	67.41
393.172	3.93
393.382	94.04
393.591	87.89
393.801	67.41
394.01	147.28
394.22	110.42
394.429	87.89
394.639	20.31
394.848	175.95
395.058	87.89
395.267	36.69
395.477	63.32
395.686	104.28
395.895	94.04
396.105	132.95
396.314	106.32
396.524	69.46
396.733	75.6
396.942	151.38
397.152	96.08
397.361	157.52
397.57	91.99
397.78	69.46
397.989	143.19
398.198	173.91
398.407	77.65
398.617	159.57
398.826	61.27
399.035	132.95
399.244	130.9
399.453	112.47
399.663	51.03
399.872	141.14
400.081	83.8
400.29	184.15
400.499	91.99
400.708	145.24
400.917	106.32
401.127	100.18
401.336	153.43
401.545	143.19
401.754	73.56
401.963	163.67
402.172	186.19
402.381	139.09
402.59	192.34
402.799	114.52
403.008	159.57
403.217	122.71
403.426	104.28
403.635	91.99
403.844	87.89
404.053	73.56
404.262	161.62
404.471	165.71
404.68	178
404.888	132.95
405.097	149.33
405.306	175.95
405.515	163.67
405.724	184.15
405.933	204.63
406.142	186.19
406.35	225.11
406.559	200.53
406.768	212.82
406.977	227.15
407.185	223.06
407.394	288.59
407.603	106.32
407.812	255.83
408.02	253.78
408.229	221.01
408.438	202.58
408.646	227.15
408.855	214.87
409.064	311.12
409.272	264.02
409.481	319.31
409.69	325.46
409.898	255.83
410.107	364.37
410.315	368.46
410.524	352.08
410.733	339.79
410.941	388.94
411.15	341.84
411.358	460.62
411.567	446.29
411.775	487.25
411.984	485.2
412.192	442.19
412.401	448.33
412.609	462.67
412.818	591.69
413.026	540.49
413.234	536.4
413.443	522.06
413.651	565.07
413.86	644.94
414.068	655.18
414.276	776.01
414.485	663.37
414.693	689.99
414.901	628.56
415.11	784.2
415.318	741.19
415.526	837.45
415.734	812.87
415.943	829.26
416.151	864.07
416.359	876.36
416.567	917.32
416.776	941.89
416.984	1001.29
417.192	1034.05
417.4	1015.62
417.608	1040.2
417.817	1115.97
418.025	1124.16
418.233	1306.43
418.441	1206.08
418.649	1265.47
418.857	1449.79
419.065	1386.3
419.273	1371.97
419.481	1513.28
419.689	1470.27
419.897	1613.63
420.105	1580.86
420.313	1617.72
420.521	1789.75
420.729	1652.54
420.937	1818.43
421.145	1851.19
421.353	1963.83
421.561	2142
421.769	2142
421.977	2230.07
422.185	2223.92
422.393	2207.54
422.601	2463.54
422.809	2424.62
423.017	2451.25
423.224	2522.93
423.432	2516.78
423.64	2834.22
423.848	2897.71
424.056	2776.87
424.263	3174.18
424.471	2993.96
424.679	3084.07
424.887	3264.29
425.094	3309.35
425.302	3358.5
425.51	3520.29
425.718	3661.6
425.925	3671.84
426.133	3860.25
426.341	4169.49
426.548	4163.35
426.756	4163.35
426.964	4271.89
427.171	4501.26
427.379	4542.22
427.586	4671.25
427.794	4929.29
428.001	5060.36
428.209	5342.98
428.417	5041.93
428.624	5519.11
428.832	5357.32
429.039	5492.48
429.247	5580.54
429.454	6100.73
429.662	6276.85
429.869	6266.61
430.076	6459.12
430.284	6123.26
430.491	6475.51
430.699	6881
430.906	6975.21
431.114	6973.16
431.321	7292.65
431.528	7444.2
431.736	7698.14
431.943	8257.24
432.15	7995.1
432.358	8081.11
432.565	8435.41
432.772	8408.79
432.979	8802
433.187	8971.98
433.394	9080.52
433.601	9647.81
433.808	9615.04
434.016	9592.51
434.223	10008.25
434.43	10579.64
434.637	10282.68
434.844	11224.75
435.052	11292.33
435.259	11273.9
435.466	11374.25
435.673	11108.01
435.88	11671.2
436.087	12527.25
436.294	12682.9
436.501	12527.25
436.708	12512.92
436.915	12906.13
437.122	13620.87
437.329	13524.61
437.537	13633.16
437.743	14276.22
437.95	14200.44
438.157	14626.42
438.364	15396.46
438.571	15351.4
438.778	15081.07
438.985	16848.47
439.192	16035.42
439.399	16461.4
439.606	16340.57
439.813	16975.44
440.02	18433.6
440.227	18038.34
440.433	17714.76
440.64	18361.92
440.847	17925.7
441.054	18490.94
441.261	19523.12
441.467	19533.36
441.674	19793.45
441.881	20301.34
442.088	20502.04
442.294	20610.59
442.501	20915.73
442.708	21364.24
442.914	22447.61
443.121	23086.58
443.328	22240.77
443.534	23903.72
443.741	23442.93
443.948	22959.61
444.154	24839.64
444.361	24561.12
444.568	24931.8
444.774	24651.23
444.981	25007.58
445.187	25621.97
445.394	27133.37
445.6	26389.95
445.807	29003.16
446.013	27942.31
446.22	28323.24
446.426	29439.38
446.633	29549.97
446.839	30420.36
447.046	29130.14
447.252	30834.05
447.459	30881.15
447.665	30647.68
447.871	32138.6
448.078	33547.61
448.284	31653.23
448.491	32662.88
448.697	34116.94
448.903	34524.49
449.11	34649.41
449.316	33858.9
449.522	34340.17
449.728	35269.95
449.935	35618.1
450.141	35661.11
450.347	35992.88
450.553	35136.83
450.76	35407.16
450.966	36474.15
451.172	36158.77
451.378	36932.9
451.584	36554.02
451.791	37129.5
451.997	37303.58
452.203	37516.57
452.409	37672.21
452.615	37289.24
452.821	36199.72
453.027	35362.11
453.233	37483.8
453.44	35890.48
453.646	36185.39
453.852	36429.1
454.058	37055.78
454.264	35444.02
454.47	36205.87
454.676	35288.38
454.882	36687.14
455.088	33709.39
455.294	33844.56
455.5	34383.18
455.705	34938.18
455.911	33484.12
456.117	32906.59
456.323	32497
456.529	30590.34
456.735	31905.13
456.941	30958.97
457.147	30395.78
457.352	29851.02
457.558	29072.79
457.764	29193.62
457.97	28677.54
458.176	27897.26
458.381	28028.33
458.587	26803.64
458.793	26635.71
458.999	25441.75
459.204	27198.9
459.41	26584.51
459.616	24597.98
459.821	24540.64
460.027	24514.02
460.233	23893.48
460.438	22824.44
460.644	23264.75
460.85	21900.81
461.055	22048.26
461.261	21644.81
461.466	20131.36
461.672	19615.27
461.878	20784.66
462.083	19357.23
462.289	19371.57
462.494	18810.42
462.7	18183.74
462.905	17710.66
463.111	18343.49
463.316	18417.21
463.522	18273.85
463.727	18075.2
463.932	17892.93
464.138	17475.15
464.343	18060.87
464.549	17651.27
464.754	17937.99
464.959	17776.2
465.165	17419.85
465.37	16815.7
465.575	16160.35
465.781	17243.73
465.986	17118.8
466.191	16590.42
466.397	16227.93
466.602	15474.28
466.807	16029.28
467.012	16016.99
467.218	15900.26
467.423	15885.92
467.628	15926.88
467.833	16764.5
468.038	15765.09
468.244	15394.41
468.449	15941.22
468.654	15461.99
468.859	15554.15
469.064	15275.63
469.269	14765.68
469.474	14714.48
469.679	15097.45
469.885	14640.76
470.09	14831.22
470.295	14872.18
470.5	14509.69
470.705	14622.33
470.91	14229.12
471.115	13950.59
471.32	14085.76
471.525	14079.61
471.73	14112.38
471.935	13749.89
472.139	13371.02
472.344	13246.09
472.549	13264.52
472.754	13127.31
472.959	12830.35
473.164	12396.18
473.369	12455.58
473.574	12977.81
473.778	12793.49
473.983	12613.27
474.188	12496.53
474.393	12142.24
474.598	12373.66
474.802	11880.1
475.007	11722.4
475.212	12031.65
475.417	11679.4
475.621	11384.49
475.826	11474.6
476.031	11478.69
476.235	10981.04
476.44	11284.14
476.645	11198.12
476.849	10927.79
477.054	10907.31
477.259	10964.65
477.463	10882.74
477.668	10532.53
477.872	10784.43
478.077	10258.1
478.282	9936.57
478.486	10215.1
478.691	10196.67
478.895	10184.38
479.1	9955.01
479.304	10180.28
479.509	9705.15
479.713	9846.46
479.918	9961.15
480.122	9666.24
480.326	9803.46
480.531	9721.54
480.735	9610.95
480.94	9455.3
481.144	9830.08
481.348	9369.29
481.553	9477.83
481.757	9215.69
481.961	9465.54
482.166	9494.21
482.37	9428.68
482.574	9182.92
482.778	9420.49
482.983	9443.01
483.187	9342.66
483.391	9535.17
483.595	9400.01
483.8	9248.46
484.004	9350.85
484.208	9428.68
484.412	9332.42
484.616	9260.74
484.821	9516.74
485.025	9402.05
485.229	9658.05
485.433	9303.75
485.637	9141.96
485.841	9430.73
486.045	9287.37
486.249	9326.28
486.453	9361.09
486.657	9238.22
486.861	9400.01
487.065	9105.1
487.269	9189.07
487.473	9154.25
487.677	9318.09
487.881	9297.61
488.085	9471.68
488.289	9234.12
488.493	9289.42
488.697	9535.17
488.901	9273.03
489.105	9367.24
489.309	9377.48
489.512	9408.2
489.716	9354.95
489.92	9500.36
490.124	9481.92
490.328	9588.42
490.531	9359.05
490.735	9621.19
490.939	9875.13
491.143	9461.44
491.346	9520.84
491.55	9768.64
491.754	9799.36
491.958	9875.13
492.161	9647.81
492.365	9821.89
492.569	9635.52
492.772	9760.45
492.976	10010.3
493.18	9987.77
493.383	10014.4
493.587	10110.65
493.79	10237.63
493.994	9844.42
494.197	10282.68
494.401	10299.06
494.605	10397.37
494.808	10438.33
495.012	10659.51
495.215	10624.69
495.419	10739.38
495.622	10796.72
495.825	10952.37
496.029	10804.91
496.232	11175.59
496.436	10978.99
496.639	11318.95
496.843	11142.83
497.046	11574.95
497.249	11746.98
497.453	11759.27
497.656	11945.63
497.859	11732.64
498.063	12015.26
498.266	12336.79
498.469	11959.97
498.673	12363.42
498.876	12379.8
499.079	12553.88
499.282	12547.73
499.485	13147.79
499.689	12992.14
499.892	13242
500.095	13160.08
500.298	13512.33
500.501	13452.94
500.705	13934.21
500.908	13946.5
501.111	14184.06
501.314	14333.56
501.517	14550.65
501.72	14548.6
501.923	14501.5
502.126	14866.03
502.329	15226.48
502.532	15101.55
502.735	15193.71
502.938	15257.2
503.141	15457.9
503.344	15758.95
503.547	15914.59
503.75	16092.77
503.953	16442.97
504.156	16563.8
504.359	16748.12
504.562	16748.12
504.765	17198.67
504.968	17372.75
505.17	17333.84
505.373	17540.68
505.576	17681.99
505.779	18052.67
505.982	18056.77
506.185	18212.42
506.387	18806.33
506.59	18437.69
506.793	19068.47
506.996	18896.44
507.198	19842.6
507.401	19500.59
507.604	19588.65
507.807	20258.34
508.009	20325.92
508.212	20244
508.415	20651.55
508.617	20696.6
508.82	21026.32
509.022	20901.4
509.225	21376.53
509.428	21458.45
509.63	21708.3
509.833	21847.56
510.035	22504.96
510.238	22476.29
510.44	22685.18
510.643	22973.94
510.845	23272.95
511.048	23430.64
511.25	23377.39
511.453	23672.3
511.655	24694.24
511.858	24104.42
512.06	24595.93
512.262	24913.37
512.465	24759.77
512.667	25105.88
512.87	25488.85
513.072	25603.53
513.274	26111.43
513.477	26305.99
513.679	26385.86
513.881	26762.68
514.084	27071.93
514.286	27092.41
514.488	27479.47
514.69	28329.38
514.893	27844.01
515.095	28243.37
515.297	28751.26
515.499	28624.29
515.701	29017.5
515.904	29621.65
516.106	29986.19
516.308	30010.76
516.51	30590.34
516.712	30143.88
516.914	30614.91
517.116	31378.81
517.318	31227.26
517.52	31446.39
517.722	31522.16
517.925	31898.99
518.127	32470.37
518.329	32548.2
518.531	32611.68
518.733	33391.96
518.935	33582.42
519.136	33719.63
519.338	34209.1
519.54	34340.17
519.742	34620.74
519.944	34876.74
520.146	35458.36
520.348	35743.03
520.55	35861.81
520.752	36197.68
520.954	36322.6
521.155	36490.54
521.357	37086.5
521.559	37188.89
521.761	37887.25
521.963	37655.83
522.164	37680.41
522.366	38128.91
522.568	38696.2
522.77	38812.93
522.971	39195.9
523.173	39175.42
523.375	39519.48
523.576	39744.76
523.778	39578.87
523.98	40717.54
524.181	40506.6
524.383	40631.53
524.584	41182.43
524.786	41071.84
524.988	41088.23
525.189	41469.15
525.391	41661.66
525.592	42284.24
525.794	42452.17
525.995	42671.31
526.197	42843.34
526.398	42656.97
526.6	43033.8
526.801	42984.65
527.003	43377.86
527.204	43314.37
527.406	43979.96
527.607	43971.77
527.808	44248.24
528.01	43207.87
528.211	44254.39
528.412	44905.64
528.614	44651.69
528.815	45055.14
529.016	45409.44
529.218	44899.5
529.419	45358.24
529.62	45206.69
529.822	45122.72
530.023	45145.25
530.224	45372.58
530.425	45667.48
530.626	45638.81
530.828	45421.73
531.029	46460.05
531.23	45423.78
531.431	45798.55
531.632	46259.35
531.833	46492.82
532.035	46079.13
532.236	46161.04
532.437	46619.79
532.638	46091.41
532.839	46754.96
533.04	46949.51
533.241	46441.62
533.442	47086.73
533.643	46869.64
533.844	46419.09
534.045	47379.59
534.246	46824.59
534.447	46867.59
534.648	46894.22
534.849	47133.83
535.05	46685.32
535.251	47406.21
535.451	47174.79
535.652	47301.76
535.853	46994.57
536.054	47436.93
536.255	47207.56
536.456	47013
536.657	47506.56
536.857	47199.37
537.058	47037.58
537.259	47690.88
537.46	47445.12
537.66	47072.39
537.861	47326.34
538.062	47248.52
538.263	47289.48
538.463	47146.12
538.664	47350.91
538.865	47443.07
539.065	47815.8
539.266	47531.14
539.466	47649.92
539.667	46963.85
539.868	47690.88
540.068	47486.08
540.269	47369.35
540.469	47271.04
540.67	47121.54
540.87	47080.58
541.071	47309.96
541.271	47461.51
541.472	47117.45
541.672	47121.54
541.873	46914.7
542.073	46800.01
542.274	47754.36
542.474	47279.24
542.675	47420.55
542.875	47365.25
543.075	47178.89
543.276	46509.2
543.476	47508.61
543.676	47320.2
543.877	47307.91
544.077	47146.12
544.277	47162.5
544.478	47293.57
544.678	47559.81
544.878	47334.53
545.078	46834.83
545.279	47019.14
545.479	46703.76
545.679	47305.86
545.879	46916.75
546.079	47547.52
546.28	46750.86
546.48	47019.14
546.68	47119.49
546.88	47160.45
547.08	47494.27
547.28	46740.62
547.48	46691.47
547.68	47281.28
547.88	46929.03
548.081	47219.84
548.281	46978.18
548.481	46974.09
548.681	47256.71
548.881	47494.27
549.081	47013
549.28	46539.92
549.48	47113.35
549.68	46771.34
549.88	47277.19
550.08	46537.87
550.28	46969.99
550.48	46654.61
550.68	47099.01
550.88	46724.24
551.08	47154.31
551.279	47438.98
551.479	46584.97
551.679	46767.24
551.879	46851.21
552.079	47096.97
552.278	46630.03
552.478	47031.43
552.678	46754.96
552.878	46859.4
553.077	46716.04
553.277	46011.54
553.477	47076.49
553.676	46392.47
553.876	46519.44
554.076	46275.73
554.275	46851.21
554.475	45939.86
554.674	46529.68
554.874	46496.91
555.074	46165.14
555.273	46589.07
555.473	46709.9
555.672	46365.84
555.872	45941.91
556.071	46349.46
556.271	46757
556.47	46122.13
556.67	45579.42
556.869	46099.61
557.068	46433.42
557.268	45644.96
557.467	45560.99
557.667	45583.52
557.866	45618.33
558.065	45581.47
558.265	45272.23
558.464	45069.48
558.663	45946.01
558.863	45030.57
559.062	45556.89
559.261	45053.09
559.461	45751.45
559.66	44602.54
559.859	44784.81
560.058	44737.71
560.258	45094.05
560.457	44385.46
560.656	44823.72
560.855	44450.99
561.054	45212.84
561.253	44457.13
561.453	44469.42
561.652	44725.42
561.851	44510.38
562.05	44262.58
562.249	43988.15
562.448	44045.49
562.647	44184.76
562.846	43703.48
563.045	44158.13
563.244	43308.22
563.443	44129.46
563.642	42781.9
563.841	43353.28
564.04	43236.55
564.239	43740.35
564.438	43130.05
564.637	43566.27
564.836	43242.69
565.035	42726.6
565.234	43037.89
565.432	42730.7
565.631	42480.85
565.83	42792.14
566.029	42718.41
566.228	42317.01
566.427	42544.33
566.625	42421.45
566.824	41870.55
567.023	41919.7
567.222	41569.5
567.42	42144.98
567.619	41751.77
567.818	41549.02
568.016	41069.79
568.215	41977.04
568.414	41393.37
568.612	41258.21
568.811	41088.23
569.01	41055.46
569.208	40568.04
569.407	41065.7
569.605	40477.93
569.804	41137.38
570.002	40160.5
570.201	40500.46
570.4	40047.86
570.598	40279.28
570.797	39959.8
570.995	40144.11
571.193	39785.72
571.392	39834.87
571.59	39769.33
571.789	39752.95
571.987	39404.8
572.186	39521.53
572.384	38966.53
572.582	39531.77
572.781	39288.06
572.979	38542.6
573.177	38835.46
573.376	38769.93
573.574	38917.38
573.772	38839.56
573.971	38552.84
574.169	37762.33
574.367	37893.4
574.565	38425.87
574.763	38147.34
574.962	37854.48
575.16	37324.06
575.358	37844.24
575.556	37367.07
575.754	37983.51
575.952	37303.58
576.151	37569.82
576.349	37000.48
576.547	36715.81
576.745	37160.22
576.943	37037.34
577.141	36533.54
577.339	36775.2
577.537	36508.97
577.735	36422.95
577.933	36306.22
578.131	36437.29
578.329	35929.39
578.527	36091.18
578.725	36033.84
578.923	36263.21
579.121	35843.38
579.319	36013.36
579.516	35591.48
579.714	35464.5
579.912	35472.7
580.11	35370.3
580.308	35220.8
580.506	34895.17
580.704	34600.26
580.901	34651.46
581.099	35138.88
581.297	34684.23
581.495	34387.27
581.692	34917.7
581.89	34121.04
582.088	34706.76
582.285	34207.05
582.483	34307.4
582.681	34307.4
582.878	34235.72
583.076	33582.42
583.274	34059.6
583.471	33201.5
583.669	33910.1
583.866	33172.83
584.064	33541.46
584.262	33084.76
584.459	33469.78
584.657	32898.4
584.854	33385.82
585.052	32869.73
585.249	32849.25
585.447	32505.19
585.644	32251.24
585.841	32623.97
586.039	32562.53
586.236	32243.05
586.434	32447.85
586.631	32001.39
586.828	32042.35
587.026	31913.33
587.223	31950.19
587.42	31677.81
587.618	31587.7
587.815	31503.73
588.012	31446.39
588.21	31356.28
588.407	31323.51
588.604	31075.71
588.801	31083.9
588.999	31061.37
589.196	31104.38
589.393	30565.76
589.59	30336.39
589.787	30487.94
589.984	30678.4
590.182	30246.28
590.379	30434.69
590.576	30129.55
590.773	30324.1
590.97	30317.96
591.167	30227.85
591.364	29779.34
591.561	29638.03
591.758	29523.35
591.955	29359.51
592.152	30004.62
592.349	29302.17
592.546	29496.72
592.743	29369.75
592.94	29177.24
593.137	29336.98
593.334	29461.91
593.531	28945.82
593.727	29074.84
593.924	28863.9
594.121	28358.05
594.318	28767.65
594.515	28321.19
594.712	28675.49
594.908	28513.7
595.105	28329.38
595.302	27911.6
595.499	27997.61
595.696	28224.93
595.892	27688.37
596.089	27985.32
596.286	27831.72
596.482	27518.39
596.679	27743.66
596.876	27622.83
597.072	27553.2
597.269	27495.86
597.466	27155.89
597.662	27053.5
597.859	27182.52
598.055	27223.48
598.252	27215.29
598.448	26891.71
598.645	26484.16
598.841	26525.12
599.038	26553.79
599.234	26809.79
599.431	26449.35
599.627	26314.18
599.824	26385.86
600.02	26162.63
600.217	26285.51
600.413	26273.22
600.609	25951.69
600.806	25826.76
601.002	25871.82
601.198	25695.69
601.395	25347.54
601.591	25239
601.787	25415.12
601.984	25134.55
602.18	25685.45
602.376	25109.97
602.572	25359.83
602.769	25316.82
602.965	24806.87
603.161	24792.54
603.357	24649.18
603.553	24745.44
603.75	24745.44
603.946	24667.61
604.142	24497.63
604.338	24446.43
604.534	24577.5
604.73	24184.29
604.926	24290.79
605.122	24208.87
605.318	23754.22
605.514	23934.44
605.71	23881.19
605.906	24137.19
606.102	23928.3
606.298	23635.44
606.494	23504.37
606.69	23635.44
606.886	23508.46
607.082	23219.7
607.278	23414.26
607.474	22865.4
607.67	23139.83
607.866	23037.43
608.062	23311.86
608.257	22930.94
608.453	23092.72
608.649	23021.05
608.845	22687.23
609.041	22830.58
609.236	23109.11
609.432	22666.75
609.628	22949.37
609.824	22695.42
610.019	22502.91
610.215	22562.3
610.411	22502.91
610.606	22210.05
610.802	22480.38
610.998	22572.54
611.193	22175.23
611.389	22064.64
611.584	22029.83
611.78	21990.92
611.976	22138.37
612.171	21990.92
612.367	22165
612.562	21966.34
612.758	21544.46
612.953	21579.28
613.149	21906.95
613.344	21507.6
613.539	21952.01
613.735	21681.67
613.93	21704.2
614.126	21386.77
614.321	21593.61
614.517	21665.29
614.712	21437.97
614.907	21460.49
615.103	21589.52
615.298	21413.39
615.493	21333.52
615.688	20897.3
615.884	21566.99
616.079	20987.41
616.274	21310.99
616.47	21308.94
616.665	20889.11
616.86	20968.98
617.055	20846.1
617.25	20667.93
617.445	20575.77
617.641	20403.74
617.836	20786.71
618.031	20692.51
618.226	20549.15
618.421	20262.43
618.616	20678.17
618.811	20155.94
619.006	20760.09
619.201	19996.2
619.396	20065.83
619.591	19590.7
619.786	20114.98
619.981	19738.15
620.176	19910.18
620.371	19535.4
620.566	19818.02
620.761	19727.91
620.956	19664.43
621.151	19326.51
621.346	19498.54
621.541	18908.72
621.735	19471.92
621.93	18863.67
622.125	18787.89
622.32	18624.06
622.515	18732.6
622.709	18312.77
622.904	18740.79
623.099	18415.16
623.294	18363.97
623.488	18212.42
623.683	18409.02
623.878	17851.97
624.072	18050.63
624.267	18024
624.462	17765.96
624.656	17909.32
624.851	17542.73
625.046	17505.87
625.24	17344.08
625.435	17051.22
625.629	17444.43
625.824	17184.34
626.018	17227.34
626.213	16756.31
626.407	17165.9
626.602	16514.65
626.796	17106.51
626.991	16744.02
627.185	16637.53
627.38	16485.98
627.574	16381.53
627.768	16066.14
627.963	16277.08
628.157	16023.14
628.352	16115.3
628.546	15810.15
628.74	15988.32
628.935	15724.13
629.129	15593.06
629.323	15531.62
629.517	15556.2
629.712	15627.88
629.906	15224.43
630.1	15355.5
630.294	15103.6
630.489	15189.61
630.683	15152.75
630.877	14868.08
631.071	14878.32
631.265	14935.67
631.459	14661.24
631.653	14855.79
631.848	14935.67
632.042	14577.27
632.236	14536.31
632.43	14638.71
632.624	14556.79
632.818	14153.34
633.012	14141.05
633.206	14055.04
633.4	14143.1
633.594	14067.33
633.788	13778.56
633.982	14022.27
634.176	13780.61
634.369	13600.39
634.563	13848.19
634.757	13549.19
634.951	13422.22
635.145	13336.2
635.339	13346.44
635.533	13155.98
635.726	13328.01
635.92	12996.24
636.114	13215.37
636.308	13082.25
636.501	13123.21
636.695	12973.71
636.889	12789.39
637.083	12959.38
637.276	12758.67
637.47	12527.25
637.664	12734.1
637.857	12478.1
638.051	12363.42
638.244	12041.89
638.438	12357.27
638.632	12312.22
638.825	12054.17
639.019	12232.35
639.212	12009.12
639.406	12015.26
639.599	11890.34
639.793	11943.58
639.986	11556.52
640.18	11646.63
640.373	11605.67
640.567	11513.51
640.76	11574.95
640.954	11452.07
641.147	11439.78
641.34	11497.13
641.534	11290.28
641.727	11112.11
641.92	11165.35
642.114	11038.38
642.307	11026.09
642.5	11110.06
642.694	10823.34
642.887	10706.61
643.08	10991.28
643.273	11024.05
643.467	10409.65
643.66	10671.79
643.853	10438.33
644.046	10546.87
644.239	10479.29
644.432	10260.15
644.626	10161.85
644.819	10229.43
645.012	10170.04
645.205	10266.3
645.398	10350.26
645.591	9787.07
645.784	10000.06
645.977	9821.89
646.17	9987.77
646.363	9569.99
646.556	9807.55
646.749	9629.38
646.942	9838.27
647.135	9682.63
647.328	9576.13
647.521	9473.73
647.714	9275.08
647.907	9498.31
648.099	9410.25
648.292	9449.16
648.485	9369.29
648.678	9027.28
648.871	9139.91
649.064	9084.62
649.256	9135.82
649.449	8957.64
649.642	8797.9
649.835	8814.29
650.027	8896.21
650.22	8879.82
650.413	8672.98
650.605	8685.26
650.798	8804.05
650.991	8699.6
651.183	8576.72
651.376	8402.65
651.568	8675.02
651.761	8470.23
651.954	8396.5
652.146	8492.76
652.339	8380.12
652.531	8263.38
652.724	8285.91
652.916	8183.51
653.109	8214.23
653.301	8339.16
653.494	8208.09
653.686	7921.37
653.879	8089.31
654.071	8054.49
654.263	7702.24
654.456	7679.71
654.648	7868.13
654.84	7861.98
655.033	7628.51
655.225	7890.65
655.417	7464.68
655.61	7616.23
655.802	7538.4
655.994	7558.88
656.186	7538.4
656.379	7554.79
656.571	7661.28
656.763	7286.5
656.955	7243.49
657.148	7476.96
657.34	7309.03
657.532	7444.2
657.724	7235.3
657.916	7343.85
658.108	7251.69
658.3	7139.05
658.492	7034.6
658.684	6932.2
658.876	7143.14
659.068	6946.54
659.26	6835.95
659.452	7038.7
659.644	6856.43
659.836	6846.19
660.028	6801.13
660.22	6655.73
660.412	6702.83
660.604	6700.78
660.796	6727.41
660.988	6668.02
661.18	6651.63
661.372	6639.34
661.563	6641.39
661.755	6334.2
661.947	6469.36
662.139	6369.01
662.331	6366.96
662.522	6321.91
662.714	6401.78
662.906	6354.68
663.097	6336.24
663.289	6289.14
663.481	6274.81
663.673	6209.27
663.864	6031.1
664.056	6147.83
664.247	6102.78
664.439	6051.58
664.631	6121.21
664.822	5957.37
665.014	5914.36
665.205	6041.34
665.397	5840.64
665.588	5885.69
665.78	5975.8
665.971	5807.87
666.163	5908.22
666.354	5865.21
666.546	5830.4
666.737	5740.29
666.929	5619.46
667.12	5656.32
667.311	5680.89
667.503	5684.99
667.694	5537.54
667.885	5705.47
668.077	5517.06
668.268	5672.7
668.459	5553.92
668.651	5631.74
668.842	5488.39
669.033	5484.29
669.224	5474.05
669.416	5517.06
669.607	5474.05
669.798	5267.2
669.989	5459.71
670.18	5351.17
670.371	5347.08
670.563	5234.44
670.754	5252.87
670.945	5224.2
671.136	5291.78
671.327	5232.39
671.518	5381.89
671.709	5185.29
671.9	5234.44
672.091	5193.48
672.282	5058.31
672.473	5062.41
672.664	4998.92
672.855	4968.2
673.046	5230.34
673.237	5211.91
673.428	4962.06
673.619	5043.98
673.809	5097.22
674	4966.15
674.191	5058.31
674.382	5121.8
674.573	4939.53
674.764	4935.43
674.954	4935.43
675.145	4730.64
675.336	4837.13
675.527	4742.92
675.717	4923.15
675.908	4898.57
676.099	4765.45
676.289	4804.36
676.48	5033.74
676.671	4767.5
676.861	4992.78
677.052	4736.78
677.243	4925.19
677.433	4878.09
677.624	4951.82
677.814	4843.28
678.005	4804.36
678.195	4744.97
678.386	4785.93
678.576	4734.73
678.767	4740.88
678.957	4667.15
679.148	4812.56
679.338	4826.89
679.529	4826.89
679.719	4738.83
679.909	4751.12
680.1	4636.43
680.29	4765.45
680.481	4622.09
680.671	4738.83
680.861	4583.18
681.052	4517.65
681.242	4622.09
681.432	4718.35
681.622	4534.03
681.813	4648.72
682.003	4736.78
682.193	4613.9
682.383	4501.26
682.573	4587.28
682.764	4577.04
682.954	4534.03
683.144	4654.86
683.334	4501.26
683.524	4579.09
683.714	4517.65
683.904	4513.55
684.094	4611.85
684.284	4456.21
684.474	4558.61
684.664	4505.36
684.854	4634.38
685.044	4466.45
685.234	4398.87
685.424	4454.16
685.614	4534.03
685.804	4417.3
685.994	4333.33
686.184	4519.7
686.374	4308.76
686.564	4468.5
686.753	4394.77
686.943	4427.54
687.133	4271.89
687.323	4286.23
687.513	4251.41
687.702	4402.96
687.892	4247.32
688.082	4310.8
688.272	4333.33
688.461	4151.06
688.651	4312.85
688.841	4249.36
689.03	4321.04
689.22	4249.36
689.41	4189.97
689.599	4126.49
689.789	4224.79
689.979	4210.45
690.168	4138.77
690.358	4181.78
690.547	4034.33
690.737	4013.85
690.926	3999.51
691.116	3827.48
691.305	4011.8
691.495	4058.9
691.684	4044.57
691.874	3829.53
692.063	3972.89
692.252	4034.33
692.442	3829.53
692.631	3993.37
692.82	3907.35
693.01	3751.71
693.199	3831.58
693.388	3798.81
693.578	3841.82
693.767	3913.5
693.956	3811.1
694.146	3874.59
694.335	3739.42
694.524	3796.76
694.713	3819.29
694.902	3888.92
695.092	3915.55
695.281	3731.23
695.47	3809.05
695.659	3755.8
695.848	3653.41
696.037	3761.95
696.226	3753.76
696.415	3618.59
696.604	3809.05
696.793	3641.12
696.982	3704.6
697.171	3817.24
697.36	3696.41
697.549	3675.93
697.738	3723.04
697.927	3548.96
698.116	3673.89
698.305	3727.13
698.494	3649.31
698.683	3602.21
698.872	3651.36
699.061	3608.35
699.25	3720.99
699.438	3606.3
699.627	3618.59
699.816	3591.97
700.005	3573.53
700.193	3585.82
700.382	3587.87
700.571	3733.28
700.76	3649.31
700.948	3698.46
701.137	3682.08
701.326	3677.98
701.514	3573.53
701.703	3524.38
701.892	3624.73
702.08	3583.77
702.269	3665.69
702.457	3606.3
702.646	3516.19
702.834	3657.5
703.023	3637.02
703.212	3690.27
703.4	3690.27
703.589	3583.77
703.777	3565.34
703.965	3501.86
704.154	3608.35
704.342	3469.09
704.531	3606.3
704.719	3657.5
704.907	3624.73
705.096	3546.91
705.284	3587.87
705.472	3594.01
705.661	3614.49
705.849	3624.73
706.037	3659.55
706.226	3600.16
706.414	3606.3
706.602	3518.24
706.79	3598.11
706.979	3663.65
707.167	3565.34
707.355	3456.8
707.543	3471.14
707.731	3577.63
707.919	3475.23
708.107	3532.58
708.296	3561.25
708.484	3469.09
708.672	3516.19
708.86	3639.07
709.048	3481.38
709.236	3581.73
709.424	3514.14
709.612	3602.21
709.8	3540.77
709.988	3557.15
710.176	3546.91
710.364	3555.1
710.551	3618.59
710.739	3489.57
710.927	3548.96
711.115	3559.2
711.303	3491.62
711.491	3434.27
711.679	3606.3
711.866	3530.53
712.054	3583.77
712.242	3559.2
712.43	3604.25
712.617	3444.51
712.805	3493.66
712.993	3524.38
713.181	3428.13
713.368	3442.46
713.556	3565.34
713.744	3419.94
713.931	3606.3
714.119	3469.09
714.306	3600.16
714.494	3487.52
714.682	3551.01
714.869	3358.5
715.057	3667.74
715.244	3497.76
715.432	3471.14
715.619	3518.24
715.807	3481.38
715.994	3555.1
716.182	3530.53
716.369	3630.88
716.556	3718.94
716.744	3454.75
716.931	3526.43
717.119	3661.6
717.306	3616.54
717.493	3460.9
717.681	3501.86
717.868	3534.62
718.055	3489.57
718.242	3434.27
718.43	3573.53
718.617	3403.55
718.804	3632.93
718.991	3540.77
719.179	3567.39
719.366	3469.09
719.553	3446.56
719.74	3395.36
719.927	3489.57
720.114	3551.01
720.301	3634.97
720.488	3610.4
720.676	3362.59
720.863	3661.6
721.05	3495.71
721.237	3448.61
721.424	3540.77
721.611	3432.22
721.798	3471.14
721.985	3477.28
722.172	3354.4
722.358	3413.79
722.545	3430.18
722.732	3524.38
722.919	3411.75
723.106	3452.7
723.293	3415.84
723.48	3518.24
723.667	3469.09
723.853	3358.5
724.04	3460.9
724.227	3426.08
724.414	3405.6
724.6	3342.11
724.787	3329.83
724.974	3417.89
725.161	3417.89
725.347	3333.92
725.534	3391.27
725.72	3405.6
725.907	3551.01
726.094	3473.18
726.28	3387.17
726.467	3409.7
726.653	3376.93
726.84	3358.5
727.027	3424.03
727.213	3446.56
727.4	3450.66
727.586	3358.5
727.773	3247.91
727.959	3270.44
728.145	3395.36
728.332	3381.03
728.518	3436.32
728.705	3170.08
728.891	3329.83
729.077	3417.89
729.264	3352.35
729.45	3325.73
729.636	3421.99
729.823	3319.59
730.009	3430.18
730.195	3317.54
730.382	3444.51
730.568	3352.35
730.754	3319.59
730.94	3213.09
731.126	3321.63
731.313	3292.96
731.499	3331.87
731.685	3297.06
731.871	3286.82
732.057	3321.63
732.243	3329.83
732.429	3290.92
732.615	3245.86
732.801	3327.78
732.987	3209
733.173	3378.98
733.359	3276.58
733.545	3268.39
733.731	3194.66
733.917	3309.35
734.103	3186.47
734.289	3350.31
734.475	3104.55
734.661	3206.95
734.847	3202.85
735.033	3125.03
735.219	3215.14
735.404	3118.89
735.59	3237.67
735.776	3227.43
735.962	3256.1
736.148	3176.23
736.333	3139.37
736.519	3127.08
736.705	3092.26
736.89	3110.69
737.076	3135.27
737.262	3108.65
737.447	3098.41
737.633	3039.01
737.819	3172.13
738.004	3131.17
738.19	3233.57
738.375	3110.69
738.561	3174.18
738.747	3057.45
738.932	3102.5
739.118	3096.36
739.303	2930.47
739.489	3120.93
739.674	3022.63
739.859	2895.66
740.045	2871.08
740.23	2969.38
740.416	2948.9
740.601	2977.58
740.786	3024.68
740.972	2879.27
741.157	3018.54
741.342	2862.89
741.528	2887.47
741.713	2823.98
741.898	2965.29
742.084	2938.66
742.269	2971.43
742.454	2830.12
742.639	2823.98
742.824	2959.14
743.01	2844.46
743.195	2905.9
743.38	2854.7
743.565	2848.55
743.75	2795.31
743.935	2721.58
744.12	2821.93
744.305	2631.47
744.49	2754.35
744.675	2744.11
744.86	2682.67
745.045	2592.56
745.23	2649.9
745.415	2719.53
745.6	2608.94
745.785	2688.81
745.97	2641.71
746.155	2608.94
746.34	2537.26
746.525	2686.76
746.71	2662.19
746.895	2570.03
747.079	2582.32
747.264	2551.6
747.449	2383.66
747.634	2535.21
747.819	2516.78
748.003	2486.06
748.188	2529.07
748.373	2459.44
748.557	2291.51
748.742	2455.34
748.927	2268.98
749.111	2359.09
749.296	2395.95
749.481	2359.09
749.665	2281.27
749.85	2273.07
750.034	2252.59
750.219	2258.74
750.404	2185.01
750.588	2266.93
750.773	2273.07
750.957	2215.73
751.141	2152.24
751.326	2156.34
751.51	2164.53
751.695	2070.33
751.879	2115.38
752.064	2133.81
752.248	2107.19
752.432	2008.89
752.617	2101.05
752.801	2041.65
752.985	1992.5
753.17	2064.18
753.354	2051.89
753.538	1937.21
753.722	1986.36
753.907	1881.91
754.091	1896.25
754.275	1990.45
754.459	1879.86
754.643	1851.19
754.828	1871.67
755.012	1865.53
755.196	1806.14
755.38	1838.91
755.564	1818.43
755.748	1894.2
755.932	1703.74
756.116	1793.85
756.3	1763.13
756.484	1818.43
756.668	1888.06
756.852	1793.85
757.036	1625.92
757.22	1781.56
757.404	1851.19
757.588	1644.35
757.772	1695.55
757.956	1675.07
758.14	1695.55
758.323	1658.68
758.507	1580.86
758.691	1609.53
758.875	1644.35
759.059	1511.23
759.242	1605.44
759.426	1466.17
759.61	1601.34
759.794	1498.94
759.977	1546.05
760.161	1601.34
760.345	1531.71
760.528	1494.85
760.712	1460.03
760.895	1621.82
761.079	1494.85
761.263	1464.13
761.446	1470.27
761.63	1466.17
761.813	1476.41
761.997	1449.79
762.18	1431.36
762.364	1460.03
762.547	1447.74
762.731	1439.55
762.914	1326.91
763.098	1376.06
763.281	1457.98
763.464	1376.06
763.648	1238.85
763.831	1343.3
764.015	1374.02
764.198	1425.22
764.381	1404.74
764.564	1265.47
764.748	1322.82
764.931	1281.86
765.114	1322.82
765.297	1306.43
765.481	1261.38
765.664	1167.17
765.847	1341.25
766.03	1314.63
766.213	1310.53
766.397	1355.58
766.58	1314.63
766.763	1273.67
766.946	1281.86
767.129	1222.47
767.312	1234.75
767.495	1259.33
767.678	1267.52
767.861	1263.43
768.044	1232.71
768.227	1257.28
768.41	1091.4
768.593	1228.61
768.776	1273.67
768.959	1281.86
769.142	1163.08
769.324	1128.26
769.507	1150.79
769.69	1183.56
769.873	1111.88
770.056	1238.85
770.239	1163.08
770.421	1208.13
770.604	1097.54
770.787	1197.89
770.97	1126.21
771.152	1048.39
771.335	1103.68
771.518	1066.82
771.7	1089.35
771.883	1142.6
772.066	1075.01
772.248	1101.64
772.431	1109.83
772.613	1083.2
772.796	1034.05
772.978	1054.53
773.161	1130.31
773.343	991.05
773.526	968.52
773.708	999.24
773.891	935.75
774.073	1019.72
774.256	1052.49
774.438	1072.96
774.621	1060.68
774.803	982.85
774.985	1034.05
775.168	1021.77
775.35	950.09
775.532	954.18
775.715	921.42
775.897	980.81
776.079	909.13
776.261	978.76
776.444	948.04
776.626	894.79
776.808	849.74
776.99	837.45
777.173	911.18
777.355	880.46
777.537	868.17
777.719	872.26
777.901	921.42
778.083	806.73
778.265	845.64
778.447	849.74
778.629	896.84
778.811	814.92
778.993	878.41
779.175	741.19
779.357	870.22
779.539	743.24
779.721	804.68
779.903	880.46
780.085	694.09
780.267	776.01
780.449	804.68
780.631	827.21
780.812	831.3
780.994	663.37
781.176	773.96
781.358	745.29
781.54	769.87
781.721	622.41
781.903	726.86
782.085	778.06
782.267	712.52
782.448	663.37
782.63	642.89
782.812	689.99
782.993	644.94
783.175	692.04
783.357	642.89
783.538	661.32
783.72	640.84
783.901	683.85
784.083	636.75
784.264	630.6
784.446	583.5
784.627	593.74
784.809	597.84
784.99	624.46
785.172	630.6
785.353	503.63
785.535	646.99
785.716	550.73
785.897	577.36
786.079	552.78
786.26	591.69
786.441	630.6
786.623	567.12
786.804	524.11
786.985	583.5
787.167	612.17
787.348	511.82
787.529	477.01
787.71	601.93
787.891	548.68
788.073	515.92
788.254	495.44
788.435	595.79
788.616	569.16
788.797	468.81
788.978	507.73
789.159	454.48
789.34	532.3
789.522	513.87
789.703	489.29
789.884	544.59
790.065	470.86
790.246	501.58
790.427	487.25
790.607	538.45
790.788	517.97
790.969	460.62
791.15	431.95
791.331	448.33
791.512	483.15
791.693	464.72
791.874	405.33
792.054	536.4
792.235	474.96
792.416	417.61
792.597	456.53
792.778	477.01
792.958	505.68
793.139	419.66
793.32	405.33
793.5	368.46
793.681	501.58
793.862	413.52
794.042	438.09
794.223	290.64
794.404	401.23
794.584	413.52
794.765	347.98
794.945	331.6
795.126	450.38
795.306	423.76
795.487	434
795.667	390.99
795.848	368.46
796.028	368.46
796.209	417.61
796.389	477.01
796.57	352.08
796.75	378.7
796.93	446.29
797.111	309.07
797.291	413.52
797.471	421.71
797.652	368.46
797.832	329.55
798.012	413.52
798.192	296.78
798.373	288.59
798.553	397.14
798.733	372.56
798.913	350.03
799.093	397.14
799.274	292.69
799.454	311.12
799.634	360.27
799.814	378.7
799.994	333.65
800.174	296.78
800.354	329.55
800.534	331.6
800.714	282.45
800.894	264.02
801.074	241.49
801.254	225.11
801.434	356.18
801.614	354.13
801.794	350.03
801.974	786.25
802.154	268.11
802.334	372.56
802.514	247.63
802.693	298.83
802.873	268.11
803.053	315.22
803.233	311.12
803.413	282.45
803.592	282.45
803.772	208.72
803.952	274.26
804.131	221.01
804.311	325.46
804.491	321.36
804.67	296.78
804.85	309.07
805.03	286.54
805.209	327.5
805.389	175.95
805.568	290.64
805.748	235.35
805.928	270.16
806.107	339.79
806.287	221.01
806.466	282.45
806.646	266.07
806.825	216.91
807.004	237.39
807.184	225.11
807.363	278.35
807.543	223.06
807.722	192.34
807.901	225.11
808.081	296.78
808.26	296.78
808.439	251.73
808.619	204.63
808.798	225.11
808.977	266.07
809.156	229.2
809.336	255.83
809.515	261.97
809.694	173.91
809.873	223.06
810.052	243.54
810.231	198.48
810.411	233.3
810.59	214.87
810.769	276.31
810.948	243.54
811.127	192.34
811.306	149.33
811.485	175.95
811.664	243.54
811.843	264.02
812.022	200.53
812.201	235.35
812.38	264.02
812.559	202.58
812.737	188.24
812.916	239.44
813.095	249.68
813.274	223.06
813.453	249.68
813.632	159.57
813.811	229.2
813.989	175.95
814.168	253.78
814.347	221.01
814.526	188.24
814.704	192.34
814.883	141.14
815.062	165.71
815.24	167.76
815.419	175.95
815.598	216.91
815.776	102.23
815.955	218.96
816.133	149.33
816.312	188.24
816.49	255.83
816.669	261.97
816.847	159.57
817.026	182.1
817.204	229.2
817.383	214.87
817.561	153.43
817.74	182.1
817.918	196.43
818.097	210.77
818.275	175.95
818.453	143.19
818.632	147.28
818.81	157.52
818.988	173.91
819.167	196.43
819.345	151.38
819.523	143.19
819.701	184.15
819.879	210.77
820.058	218.96
820.236	77.65
820.414	106.32
820.592	188.24
820.77	137.04
820.948	198.48
821.127	153.43
821.305	192.34
821.483	139.09
821.661	216.91
821.839	190.29
822.017	110.42
822.195	118.61
822.373	198.48
822.551	202.58
822.729	180.05
822.907	153.43
823.085	155.47
823.262	249.68
823.44	190.29
823.618	130.9
823.796	206.67
823.974	118.61
824.152	180.05
824.329	126.8
824.507	128.85
824.685	145.24
824.863	120.66
825.04	130.9
825.218	157.52
825.396	85.84
825.574	198.48
825.751	118.61
825.929	106.32
826.107	85.84
826.284	61.27
826.462	139.09
826.639	130.9
826.817	89.94
826.994	102.23
827.172	85.84
827.349	151.38
827.527	143.19
827.704	104.28
827.882	55.12
828.059	151.38
828.237	106.32
828.414	159.57
828.591	165.71
828.769	167.76
828.946	81.75
829.124	114.52
829.301	77.65
829.478	163.67
829.655	135
829.833	132.95
830.01	69.46
830.187	139.09
830.364	110.42
830.542	124.76
830.719	159.57
830.896	141.14
831.073	175.95
831.25	94.04
831.427	157.52
831.604	167.76
831.782	77.65
831.959	91.99
832.136	112.47
832.313	120.66
832.49	75.6
832.667	24.4
832.844	122.71
833.021	85.84
833.198	135
833.374	110.42
833.551	57.17
833.728	18.26
833.905	130.9
834.082	214.87
834.259	94.04
834.436	126.8
834.612	112.47
834.789	130.9
834.966	85.84
835.143	159.57
835.319	83.8
835.496	126.8
835.673	116.56
835.85	155.47
836.026	106.32
836.203	34.64
836.38	94.04
836.556	67.41
836.733	104.28
836.909	143.19
837.086	75.6
837.262	184.15
837.439	53.08
837.616	96.08
837.792	116.56
837.968	26.45
838.145	139.09
838.321	51.03
838.498	10.07
838.674	143.19
838.851	40.79
839.027	65.36
839.203	175.95
839.38	104.28
839.556	118.61
839.732	110.42
839.909	40.79
840.085	89.94
840.261	100.18
840.437	57.17
840.614	20.31
840.79	180.05
840.966	167.76
841.142	83.8
841.318	85.84
841.494	87.89
841.671	87.89
841.847	102.23
842.023	100.18
842.199	91.99
842.375	87.89
842.551	14.17
842.727	-34.99
842.903	102.23
843.079	8.02
843.255	65.36
843.431	59.22
843.607	81.75
843.783	24.4
843.959	161.62
844.134	36.69
844.31	139.09
844.486	34.64
844.662	67.41
844.838	-4.27
845.013	3.93
845.189	108.37
845.365	42.84
845.541	53.08
845.716	40.79
845.892	44.88
846.068	44.88
846.244	85.84
846.419	44.88
846.595	63.32
846.77	81.75
846.946	71.51
847.122	48.98
847.297	53.08
847.473	71.51
847.648	108.37
847.824	120.66
847.999	85.84
848.175	32.6
848.35	112.47
848.526	83.8
848.701	44.88
848.876	83.8
849.052	94.04
849.227	83.8
849.403	55.12
849.578	20.31
849.753	42.84
849.929	69.46
850.104	12.12
850.279	73.56
850.454	114.52
850.63	42.84
850.805	124.76
850.98	59.22
851.155	-2.22
851.33	48.98
851.505	69.46
851.681	145.24
851.856	3.93
852.031	85.84
852.206	36.69
852.381	44.88
852.556	30.55
852.731	3.93
852.906	53.08
853.081	48.98
853.256	-12.46
853.431	36.69
853.606	-39.08
853.781	71.51
853.956	59.22
854.131	46.93
854.305	16.21
854.48	14.17
854.655	89.94
854.83	10.07
855.005	-8.36
855.18	28.5
855.354	55.12
855.529	63.32
855.704	18.26
855.879	98.13
856.053	69.46
856.228	-8.36
856.403	44.88
856.577	36.69
856.752	69.46
856.926	102.23
857.101	85.84
857.276	73.56
857.45	73.56
857.625	42.84
857.799	65.36
857.974	89.94
858.148	10.07
858.323	-16.55
858.497	44.88
858.672	51.03
858.846	51.03
859.02	77.65
859.195	75.6
859.369	20.31
859.543	3.93
859.718	10.07
859.892	-0.17
860.066	-8.36
860.241	1.88
860.415	32.6
860.589	1.88
860.763	42.84
860.938	42.84
861.112	53.08
861.286	38.74
861.46	34.64
861.634	38.74
861.808	-2.22
861.982	51.03
862.157	42.84
862.331	59.22
862.505	10.07
862.679	38.74
862.853	22.36
863.027	69.46
863.201	38.74
863.375	48.98
863.549	48.98
863.722	51.03
863.896	26.45
864.07	30.55
864.244	51.03
864.418	59.22
864.592	-6.31
864.766	77.65
864.939	89.94
865.113	53.08
865.287	-4.27
865.461	-0.17
865.634	-18.6
865.808	83.8
865.982	-6.31
866.156	96.08
866.329	-45.23
866.503	8.02
866.676	44.88
866.85	63.32
867.024	20.31
867.197	-4.27
867.371	69.46
867.544	30.55
867.718	-20.65
867.891	126.8
868.065	-16.55
868.238	10.07
868.412	18.26
868.585	16.21
868.759	-57.51
868.932	20.31
869.105	12.12
869.279	-2.22
869.452	3.93
869.625	36.69
869.799	55.12
869.972	-45.23
870.145	53.08
870.319	69.46
870.492	51.03
870.665	10.07
870.838	53.08
871.011	-57.51
871.185	100.18
871.358	-55.47
871.531	51.03
871.704	-16.55
871.877	79.7
872.05	-61.61
872.223	12.12
872.396	12.12
872.569	57.17
872.742	-2.22
872.915	10.07
873.088	-37.03
873.261	61.27
873.434	14.17
873.607	18.26
873.78	40.79
873.953	-18.6
874.126	-86.19
874.299	57.17
874.471	-41.13
874.644	-10.41
874.817	75.6
874.99	51.03
875.163	20.31
875.335	-20.65
875.508	36.69
875.681	67.41
875.853	20.31
876.026	48.98
876.199	79.7
876.371	30.55
876.544	-28.84
876.717	69.46
876.889	53.08
877.062	26.45
877.234	-14.51
877.407	32.6
877.579	53.08
877.752	44.88
877.924	53.08
878.097	67.41
878.269	-0.17
878.442	61.27
878.614	-30.89
878.786	38.74
878.959	28.5
879.131	40.79
879.303	-41.13
879.476	-24.75
879.648	24.4
879.82	48.98
879.993	48.98
880.165	46.93
880.337	5.97
880.509	53.08
880.681	-24.75
880.854	-30.89
881.026	98.13
881.198	75.6
881.37	26.45
881.542	-0.17
881.714	12.12
881.886	-22.7
882.058	-22.7
882.23	16.21
882.402	20.31
882.574	67.41
882.746	-43.18
882.918	69.46
883.09	83.8
883.262	-61.61
883.434	28.5
883.606	26.45
883.778	-14.51
883.95	75.6
884.122	-41.13
884.293	12.12
884.465	51.03
884.637	61.27
884.809	-12.46
884.98	36.69
885.152	100.18
885.324	61.27
885.496	-20.65
885.667	-43.18
885.839	-0.17
886.011	79.7
886.182	42.84
886.354	61.27
886.525	-8.36
886.697	40.79
886.869	-24.75
887.04	-8.36
887.212	-28.84
887.383	-18.6
887.555	22.36
887.726	30.55
887.897	8.02
888.069	42.84
888.24	-2.22
888.412	-8.36
888.583	36.69
888.754	-47.27
888.926	14.17
889.097	16.21
889.268	-32.94
889.44	91.99
889.611	24.4
889.782	-4.27
889.953	-32.94
890.125	42.84
890.296	-55.47
890.467	30.55
890.638	-14.51
890.809	-39.08
890.98	-43.18
891.151	12.12
891.323	48.98
891.494	-26.79
891.665	-6.31
891.836	61.27
892.007	-61.61
892.178	77.65
892.349	30.55
892.52	44.88
892.691	-61.61
892.862	-34.99
893.032	-45.23
893.203	-24.75
893.374	20.31
893.545	38.74
893.716	-18.6
893.887	57.17
894.057	-20.65
894.228	24.4
894.399	-24.75
894.57	79.7
894.74	10.07
894.911	-0.17
895.082	59.22
895.253	18.26
895.423	-28.84
895.594	73.56
895.764	73.56
895.935	-57.51
896.106	65.36
896.276	5.97
896.447	34.64
896.617	32.6
896.788	34.64
896.958	-73.9
897.129	-49.32
897.299	1.88
897.47	100.18
897.64	51.03
897.81	-28.84
897.981	18.26
898.151	-37.03
898.322	32.6
898.492	-6.31
898.662	3.93
898.832	-28.84
899.003	3.93
899.173	8.02
899.343	55.12
899.513	12.12
