Data from USB4F104151__299__10-43-23-285.txt Node

Date: Wed Mar 12 10:43:23 EDT 2025
User: louis
Spectrometer: USB4F10415
Trigger mode: 4
Integration Time (sec): 3.000000E-2
Scans to average: 1
Electric dark correction enabled: true
Nonlinearity correction enabled: false
Boxcar width: 0
XAxis mode: Wavelengths
Number of Pixels in Spectrum: 3648
>>>>>Begin Spectral Data<<<<<
178.204	-28.84
178.424	-28.84
178.644	-28.84
178.864	-82.09
179.084	-123.05
179.304	-41.13
179.524	55.12
179.744	-69.8
179.964	81.75
180.184	24.4
180.404	55.12
180.624	-73.9
180.844	5.97
181.064	24.4
181.283	-0.17
181.503	-8.36
181.723	-53.42
181.943	-69.8
182.163	10.07
182.383	44.88
182.602	89.94
182.822	102.23
183.042	108.37
183.262	-4.27
183.482	85.84
183.701	69.46
183.921	94.04
184.141	-0.17
184.361	48.98
184.58	-30.89
184.8	57.17
185.02	26.45
185.239	114.52
185.459	26.45
185.679	104.28
185.898	-45.23
186.118	81.75
186.338	-75.95
186.557	44.88
186.777	-61.61
186.997	16.21
187.216	94.04
187.436	-4.27
187.655	18.26
187.875	10.07
188.095	46.93
188.314	10.07
188.534	63.32
188.753	10.07
188.973	18.26
189.192	10.07
189.412	42.84
189.631	75.6
189.851	18.26
190.07	38.74
190.29	48.98
190.509	-0.17
190.729	28.5
190.948	18.26
191.168	151.38
191.387	18.26
191.607	69.46
191.826	30.55
192.045	14.17
192.265	-22.7
192.484	114.52
192.704	-10.41
192.923	24.4
193.142	114.52
193.362	-8.36
193.581	53.08
193.8	14.17
194.02	-8.36
194.239	-6.31
194.458	75.6
194.678	5.97
194.897	1.88
195.116	40.79
195.335	61.27
195.555	-20.65
195.774	-32.94
195.993	157.52
196.212	-47.27
196.432	5.97
196.651	20.31
196.87	3.93
197.089	102.23
197.308	118.61
197.528	53.08
197.747	8.02
197.966	-39.08
198.185	-12.46
198.404	57.17
198.623	16.21
198.842	75.6
199.062	20.31
199.281	59.22
199.5	36.69
199.719	24.4
199.938	73.56
200.157	61.27
200.376	28.5
200.595	-18.6
200.814	10.07
201.033	59.22
201.252	100.18
201.471	-47.27
201.69	26.45
201.909	114.52
202.128	61.27
202.347	14.17
202.566	12.12
202.785	3.93
203.004	16.21
203.223	102.23
203.442	24.4
203.661	-16.55
203.879	-12.46
204.098	16.21
204.317	-20.65
204.536	12.12
204.755	-20.65
204.974	51.03
205.193	5.97
205.411	137.04
205.63	10.07
205.849	-0.17
206.068	75.6
206.287	22.36
206.505	22.36
206.724	14.17
206.943	12.12
207.162	40.79
207.381	75.6
207.599	-22.7
207.818	32.6
208.037	69.46
208.255	85.84
208.474	38.74
208.693	-10.41
208.911	5.97
209.13	22.36
209.349	85.84
209.567	-0.17
209.786	71.51
210.005	106.32
210.223	-24.75
210.442	-43.18
210.661	-10.41
210.879	-26.79
211.098	-67.75
211.316	40.79
211.535	-8.36
211.753	79.7
211.972	-37.03
212.191	42.84
212.409	12.12
212.628	40.79
212.846	-0.17
213.065	1.88
213.283	46.93
213.502	12.12
213.72	1.88
213.938	89.94
214.157	8.02
214.375	57.17
214.594	22.36
214.812	18.26
215.031	32.6
215.249	-0.17
215.467	46.93
215.686	28.5
215.904	51.03
216.122	34.64
216.341	67.41
216.559	28.5
216.778	69.46
216.996	79.7
217.214	34.64
217.432	-61.61
217.651	44.88
217.869	48.98
218.087	20.31
218.306	48.98
218.524	91.99
218.742	48.98
218.96	77.65
219.179	-8.36
219.397	63.32
219.615	53.08
219.833	44.88
220.051	12.12
220.27	34.64
220.488	85.84
220.706	14.17
220.924	12.12
221.142	85.84
221.36	85.84
221.578	8.02
221.796	28.5
222.015	141.14
222.233	-10.41
222.451	77.65
222.669	-10.41
222.887	38.74
223.105	16.21
223.323	-71.85
223.541	12.12
223.759	14.17
223.977	-37.03
224.195	87.89
224.413	83.8
224.631	69.46
224.849	8.02
225.067	81.75
225.285	28.5
225.503	1.88
225.721	-10.41
225.939	87.89
226.157	32.6
226.375	122.71
226.592	10.07
226.81	24.4
227.028	77.65
227.246	65.36
227.464	36.69
227.682	77.65
227.9	48.98
228.117	100.18
228.335	71.51
228.553	42.84
228.771	-26.79
228.989	57.17
229.206	71.51
229.424	-37.03
229.642	22.36
229.86	16.21
230.077	83.8
230.295	53.08
230.513	32.6
230.731	98.13
230.948	98.13
231.166	106.32
231.384	44.88
231.601	57.17
231.819	114.52
232.037	-8.36
232.254	32.6
232.472	14.17
232.689	24.4
232.907	48.98
233.125	94.04
233.342	46.93
233.56	22.36
233.777	42.84
233.995	34.64
234.213	51.03
234.43	26.45
234.648	40.79
234.865	26.45
235.083	53.08
235.3	38.74
235.518	44.88
235.735	106.32
235.953	28.5
236.17	-10.41
236.388	-4.27
236.605	-0.17
236.822	79.7
237.04	44.88
237.257	14.17
237.475	20.31
237.692	85.84
237.909	100.18
238.127	14.17
238.344	46.93
238.562	-0.17
238.779	-20.65
238.996	-0.17
239.214	-100.52
239.431	-6.31
239.648	40.79
239.865	114.52
240.083	3.93
240.3	-12.46
240.517	-4.27
240.735	24.4
240.952	-20.65
241.169	44.88
241.386	26.45
241.603	-0.17
241.821	-14.51
242.038	75.6
242.255	77.65
242.472	22.36
242.689	32.6
242.907	116.56
243.124	-22.7
243.341	73.56
243.558	-14.51
243.775	30.55
243.992	83.8
244.209	110.42
244.426	61.27
244.643	20.31
244.86	-61.61
245.078	110.42
245.295	14.17
245.512	-20.65
245.729	65.36
245.946	8.02
246.163	57.17
246.38	81.75
246.597	44.88
246.814	36.69
247.031	-4.27
247.248	-4.27
247.464	-47.27
247.681	57.17
247.898	94.04
248.115	-61.61
248.332	44.88
248.549	87.89
248.766	57.17
248.983	32.6
249.2	73.56
249.417	87.89
249.633	-4.27
249.85	110.42
250.067	34.64
250.284	71.51
250.501	106.32
250.717	63.32
250.934	28.5
251.151	44.88
251.368	-43.18
251.585	48.98
251.801	-16.55
252.018	-8.36
252.235	67.41
252.451	-22.7
252.668	14.17
252.885	32.6
253.102	106.32
253.318	79.7
253.535	8.02
253.752	34.64
253.968	79.7
254.185	-20.65
254.401	57.17
254.618	10.07
254.835	-2.22
255.051	59.22
255.268	20.31
255.484	12.12
255.701	-22.7
255.917	63.32
256.134	57.17
256.351	67.41
256.567	18.26
256.784	-24.75
257	18.26
257.217	-0.17
257.433	-26.79
257.65	16.21
257.866	100.18
258.082	46.93
258.299	12.12
258.515	65.36
258.732	69.46
258.948	20.31
259.165	34.64
259.381	44.88
259.597	1.88
259.814	83.8
260.03	24.4
260.246	61.27
260.463	46.93
260.679	65.36
260.895	-8.36
261.112	36.69
261.328	-10.41
261.544	75.6
261.761	34.64
261.977	12.12
262.193	-61.61
262.409	73.56
262.626	32.6
262.842	94.04
263.058	71.51
263.274	-8.36
263.49	44.88
263.707	48.98
263.923	85.84
264.139	67.41
264.355	77.65
264.571	141.14
264.787	61.27
265.004	110.42
265.22	63.32
265.436	-12.46
265.652	73.56
265.868	22.36
266.084	5.97
266.3	75.6
266.516	40.79
266.732	63.32
266.948	-0.17
267.164	40.79
267.38	16.21
267.596	100.18
267.812	34.64
268.028	24.4
268.244	-0.17
268.46	65.36
268.676	3.93
268.892	-12.46
269.108	116.56
269.324	57.17
269.54	18.26
269.756	36.69
269.972	-4.27
270.188	1.88
270.403	-69.8
270.619	59.22
270.835	108.37
271.051	77.65
271.267	20.31
271.483	-2.22
271.698	22.36
271.914	122.71
272.13	42.84
272.346	75.6
272.562	96.08
272.777	83.8
272.993	57.17
273.209	20.31
273.425	18.26
273.64	51.03
273.856	44.88
274.072	-4.27
274.287	51.03
274.503	26.45
274.719	102.23
274.934	18.26
275.15	-39.08
275.366	28.5
275.581	16.21
275.797	36.69
276.012	73.56
276.228	89.94
276.444	40.79
276.659	83.8
276.875	30.55
277.09	87.89
277.306	-41.13
277.521	44.88
277.737	30.55
277.952	34.64
278.168	48.98
278.383	71.51
278.599	26.45
278.814	1.88
279.03	63.32
279.245	61.27
279.461	-0.17
279.676	104.28
279.892	34.64
280.107	55.12
280.322	30.55
280.538	46.93
280.753	132.95
280.969	145.24
281.184	1.88
281.399	20.31
281.615	-59.56
281.83	81.75
282.045	18.26
282.26	85.84
282.476	8.02
282.691	73.56
282.906	3.93
283.122	38.74
283.337	14.17
283.552	73.56
283.767	-6.31
283.983	-20.65
284.198	-20.65
284.413	83.8
284.628	-22.7
284.843	53.08
285.058	-6.31
285.274	-34.99
285.489	30.55
285.704	36.69
285.919	53.08
286.134	48.98
286.349	32.6
286.564	53.08
286.779	91.99
286.995	30.55
287.21	-8.36
287.425	-32.94
287.64	-8.36
287.855	24.4
288.07	22.36
288.285	67.41
288.5	36.69
288.715	69.46
288.93	61.27
289.145	28.5
289.36	108.37
289.575	8.02
289.79	24.4
290.004	67.41
290.219	53.08
290.434	42.84
290.649	53.08
290.864	48.98
291.079	-12.46
291.294	71.51
291.509	24.4
291.724	-4.27
291.938	36.69
292.153	44.88
292.368	28.5
292.583	48.98
292.798	53.08
293.012	18.26
293.227	94.04
293.442	40.79
293.657	65.36
293.871	65.36
294.086	59.22
294.301	18.26
294.516	61.27
294.73	-18.6
294.945	79.7
295.16	40.79
295.374	77.65
295.589	61.27
295.804	-18.6
296.018	77.65
296.233	65.36
296.447	85.84
296.662	-12.46
296.877	120.66
297.091	112.47
297.306	20.31
297.52	-37.03
297.735	48.98
297.949	63.32
298.164	12.12
298.378	44.88
298.593	-10.41
298.807	28.5
299.022	-28.84
299.236	55.12
299.451	-8.36
299.665	94.04
299.88	69.46
300.094	20.31
300.309	26.45
300.523	42.84
300.737	112.47
300.952	3.93
301.166	145.24
301.381	-20.65
301.595	8.02
301.809	83.8
302.024	77.65
302.238	46.93
302.452	75.6
302.667	-4.27
302.881	81.75
303.095	55.12
303.309	71.51
303.524	8.02
303.738	-28.84
303.952	-45.23
304.166	-0.17
304.381	53.08
304.595	79.7
304.809	63.32
305.023	69.46
305.237	71.51
305.452	18.26
305.666	53.08
305.88	87.89
306.094	30.55
306.308	65.36
306.522	61.27
306.736	67.41
306.95	106.32
307.164	-22.7
307.379	53.08
307.593	120.66
307.807	98.13
308.021	67.41
308.235	12.12
308.449	-6.31
308.663	34.64
308.877	118.61
309.091	42.84
309.305	63.32
309.519	36.69
309.733	145.24
309.947	20.31
310.161	81.75
310.374	102.23
310.588	91.99
310.802	81.75
311.016	81.75
311.23	71.51
311.444	51.03
311.658	-24.75
311.872	112.47
312.085	30.55
312.299	38.74
312.513	57.17
312.727	-8.36
312.941	-10.41
313.154	81.75
313.368	36.69
313.582	-4.27
313.796	89.94
314.009	-32.94
314.223	69.46
314.437	102.23
314.651	77.65
314.864	20.31
315.078	-4.27
315.292	12.12
315.505	30.55
315.719	59.22
315.933	5.97
316.146	42.84
316.36	-4.27
316.573	-24.75
316.787	85.84
317.001	-24.75
317.214	65.36
317.428	67.41
317.641	20.31
317.855	65.36
318.068	63.32
318.282	118.61
318.495	63.32
318.709	61.27
318.922	-4.27
319.136	94.04
319.349	32.6
319.563	139.09
319.776	18.26
319.99	42.84
320.203	83.8
320.417	61.27
320.63	69.46
320.843	83.8
321.057	135
321.27	38.74
321.483	28.5
321.697	73.56
321.91	135
322.124	69.46
322.337	-39.08
322.55	-10.41
322.763	79.7
322.977	10.07
323.19	28.5
323.403	18.26
323.617	135
323.83	114.52
324.043	30.55
324.256	112.47
324.469	24.4
324.683	108.37
324.896	67.41
325.109	16.21
325.322	69.46
325.535	108.37
325.748	44.88
325.962	36.69
326.175	48.98
326.388	65.36
326.601	51.03
326.814	89.94
327.027	81.75
327.24	102.23
327.453	14.17
327.666	-2.22
327.879	85.84
328.092	98.13
328.305	-14.51
328.518	61.27
328.731	81.75
328.944	-22.7
329.157	26.45
329.37	34.64
329.583	65.36
329.796	75.6
330.009	32.6
330.222	65.36
330.435	65.36
330.648	32.6
330.861	67.41
331.073	85.84
331.286	73.56
331.499	46.93
331.712	-0.17
331.925	-6.31
332.138	63.32
332.35	151.38
332.563	-28.84
332.776	40.79
332.989	89.94
333.202	44.88
333.414	63.32
333.627	20.31
333.84	26.45
334.053	57.17
334.265	65.36
334.478	32.6
334.691	28.5
334.903	118.61
335.116	53.08
335.329	63.32
335.541	151.38
335.754	94.04
335.966	26.45
336.179	38.74
336.392	-37.03
336.604	44.88
336.817	32.6
337.029	73.56
337.242	5.97
337.454	46.93
337.667	30.55
337.88	61.27
338.092	46.93
338.305	81.75
338.517	34.64
338.729	110.42
338.942	46.93
339.154	53.08
339.367	-34.99
339.579	89.94
339.792	22.36
340.004	61.27
340.217	18.26
340.429	-18.6
340.641	71.51
340.854	1.88
341.066	-0.17
341.278	57.17
341.491	46.93
341.703	1.88
341.915	53.08
342.128	112.47
342.34	81.75
342.552	-32.94
342.764	14.17
342.977	30.55
343.189	40.79
343.401	3.93
343.613	20.31
343.826	24.4
344.038	-26.79
344.25	147.28
344.462	-0.17
344.674	104.28
344.886	75.6
345.099	89.94
345.311	34.64
345.523	32.6
345.735	-14.51
345.947	1.88
346.159	65.36
346.371	-2.22
346.583	36.69
346.795	85.84
347.007	102.23
347.219	-8.36
347.431	8.02
347.643	67.41
347.855	51.03
348.067	149.33
348.279	34.64
348.491	102.23
348.703	85.84
348.915	126.8
349.127	26.45
349.339	44.88
349.551	20.31
349.763	14.17
349.975	61.27
350.187	108.37
350.399	22.36
350.61	81.75
350.822	89.94
351.034	20.31
351.246	122.71
351.458	73.56
351.669	-4.27
351.881	-8.36
352.093	94.04
352.305	20.31
352.517	77.65
352.728	16.21
352.94	-8.36
353.152	104.28
353.363	77.65
353.575	69.46
353.787	-37.03
353.999	22.36
354.21	61.27
354.422	-14.51
354.633	112.47
354.845	79.7
355.057	18.26
355.268	65.36
355.48	69.46
355.692	91.99
355.903	67.41
356.115	83.8
356.326	-32.94
356.538	139.09
356.749	8.02
356.961	114.52
357.172	42.84
357.384	63.32
357.595	114.52
357.807	61.27
358.018	-2.22
358.23	79.7
358.441	118.61
358.653	8.02
358.864	24.4
359.075	114.52
359.287	28.5
359.498	-0.17
359.709	94.04
359.921	48.98
360.132	32.6
360.344	48.98
360.555	79.7
360.766	44.88
360.977	102.23
361.189	69.46
361.4	55.12
361.611	38.74
361.823	102.23
362.034	32.6
362.245	-12.46
362.456	98.13
362.667	42.84
362.879	139.09
363.09	114.52
363.301	-28.84
363.512	38.74
363.723	14.17
363.935	38.74
364.146	55.12
364.357	3.93
364.568	46.93
364.779	94.04
364.99	85.84
365.201	118.61
365.412	30.55
365.623	59.22
365.834	36.69
366.045	34.64
366.256	69.46
366.467	106.32
366.678	51.03
366.889	98.13
367.1	1.88
367.311	48.98
367.522	30.55
367.733	53.08
367.944	3.93
368.155	3.93
368.366	102.23
368.577	139.09
368.788	118.61
368.999	24.4
369.209	3.93
369.42	104.28
369.631	100.18
369.842	106.32
370.053	48.98
370.264	67.41
370.474	71.51
370.685	-18.6
370.896	16.21
371.107	51.03
371.317	28.5
371.528	36.69
371.739	98.13
371.95	38.74
372.16	85.84
372.371	-6.31
372.582	44.88
372.792	-20.65
373.003	91.99
373.214	106.32
373.424	44.88
373.635	18.26
373.846	89.94
374.056	69.46
374.267	28.5
374.477	67.41
374.688	34.64
374.898	67.41
375.109	110.42
375.319	55.12
375.53	65.36
375.74	112.47
375.951	77.65
376.161	-45.23
376.372	87.89
376.582	22.36
376.793	130.9
377.003	42.84
377.214	77.65
377.424	20.31
377.635	46.93
377.845	-28.84
378.055	108.37
378.266	91.99
378.476	51.03
378.686	53.08
378.897	38.74
379.107	75.6
379.317	73.56
379.528	42.84
379.738	96.08
379.948	32.6
380.158	159.57
380.369	36.69
380.579	-32.94
380.789	-24.75
380.999	-2.22
381.21	83.8
381.42	145.24
381.63	61.27
381.84	44.88
382.05	32.6
382.261	112.47
382.471	77.65
382.681	51.03
382.891	85.84
383.101	69.46
383.311	69.46
383.521	89.94
383.731	104.28
383.941	36.69
384.151	102.23
384.361	77.65
384.571	69.46
384.781	114.52
384.991	51.03
385.201	106.32
385.411	83.8
385.621	77.65
385.831	83.8
386.041	67.41
386.251	1.88
386.461	104.28
386.671	75.6
386.881	110.42
387.091	28.5
387.301	135
387.511	32.6
387.72	71.51
387.93	57.17
388.14	34.64
388.35	67.41
388.56	73.56
388.769	100.18
388.979	22.36
389.189	38.74
389.399	69.46
389.609	20.31
389.818	106.32
390.028	3.93
390.238	85.84
390.447	48.98
390.657	169.81
390.867	65.36
391.076	22.36
391.286	65.36
391.496	8.02
391.705	65.36
391.915	83.8
392.125	108.37
392.334	28.5
392.544	155.47
392.753	94.04
392.963	147.28
393.172	61.27
393.382	46.93
393.591	139.09
393.801	42.84
394.01	91.99
394.22	63.32
394.429	106.32
394.639	71.51
394.848	83.8
395.058	94.04
395.267	71.51
395.477	143.19
395.686	159.57
395.895	153.43
396.105	96.08
396.314	118.61
396.524	59.22
396.733	118.61
396.942	108.37
397.152	112.47
397.361	151.38
397.57	186.19
397.78	69.46
397.989	112.47
398.198	204.63
398.407	26.45
398.617	149.33
398.826	202.58
399.035	139.09
399.244	155.47
399.453	116.56
399.663	114.52
399.872	132.95
400.081	69.46
400.29	151.38
400.499	46.93
400.708	135
400.917	143.19
401.127	124.76
401.336	126.8
401.545	212.82
401.754	155.47
401.963	141.14
402.172	83.8
402.381	202.58
402.59	67.41
402.799	155.47
403.008	157.52
403.217	126.8
403.426	210.77
403.635	120.66
403.844	89.94
404.053	214.87
404.262	157.52
404.471	216.91
404.68	196.43
404.888	194.39
405.097	124.76
405.306	221.01
405.515	175.95
405.724	175.95
405.933	124.76
406.142	227.15
406.35	298.83
406.559	137.04
406.768	261.97
406.977	264.02
407.185	202.58
407.394	276.31
407.603	171.86
407.812	278.35
408.02	347.98
408.229	231.25
408.438	288.59
408.646	245.59
408.855	245.59
409.064	286.54
409.272	249.68
409.481	356.18
409.69	290.64
409.898	352.08
410.107	300.88
410.315	368.46
410.524	380.75
410.733	337.74
410.941	347.98
411.15	446.29
411.358	477.01
411.567	466.77
411.775	454.48
411.984	401.23
412.192	477.01
412.401	509.77
412.609	622.41
412.818	556.88
413.026	573.26
413.234	569.16
413.443	546.64
413.651	610.12
413.86	696.14
414.068	745.29
414.276	702.28
414.485	739.15
414.693	735.05
414.901	837.45
415.11	784.2
415.318	862.02
415.526	880.46
415.734	931.66
415.943	968.52
416.151	1023.81
416.359	935.75
416.567	948.04
416.776	1023.81
416.984	1019.72
417.192	1038.15
417.4	1226.56
417.608	1167.17
417.817	1199.94
418.025	1310.53
418.233	1482.56
418.441	1320.77
418.649	1316.67
418.857	1410.88
419.065	1558.33
419.273	1597.24
419.481	1625.92
419.689	1697.6
419.897	1670.97
420.105	1791.8
420.313	1845.05
420.521	1926.97
420.729	1937.21
420.937	1978.17
421.145	2172.72
421.353	2187.06
421.561	2262.83
421.769	2271.03
421.977	2408.24
422.185	2342.71
422.393	2520.88
422.601	2621.23
422.809	2746.16
423.017	2623.28
423.224	2844.46
423.432	2887.47
423.64	2797.35
423.848	3190.56
424.056	3041.06
424.263	3276.58
424.471	3204.9
424.679	3434.27
424.887	3567.39
425.094	3647.26
425.302	3784.48
425.51	3968.79
425.718	3915.55
425.925	4040.47
426.133	4169.49
426.341	4431.63
426.548	4523.79
426.756	4579.09
426.964	4751.12
427.171	5084.94
427.379	5080.84
427.586	5189.38
427.794	5222.15
428.001	5603.07
428.209	5828.35
428.417	5689.09
428.624	6127.35
428.832	6104.82
429.039	5848.83
429.247	6043.39
429.454	6569.71
429.662	7147.24
429.869	6514.42
430.076	7155.43
430.284	6876.91
430.491	7149.29
430.699	7562.98
430.906	7636.7
431.114	7655.14
431.321	7935.71
431.528	8003.29
431.736	8636.11
431.943	9111.24
432.15	8763.09
432.358	9047.76
432.565	9426.63
432.772	9313.99
432.979	9674.43
433.187	9977.53
433.394	10110.65
433.601	10669.75
433.808	10770.1
434.016	10516.15
434.223	10833.58
434.43	11679.4
434.637	11691.68
434.844	12342.94
435.052	12480.15
435.259	12373.66
435.466	12521.11
435.673	12361.37
435.88	13330.06
436.087	13776.52
436.294	13635.21
436.501	13602.44
436.708	14014.08
436.915	14302.84
437.122	15093.36
437.329	14829.17
437.537	15339.12
437.743	15545.96
437.95	15496.81
438.157	16508.51
438.364	17096.27
438.571	16795.22
438.778	16854.61
438.985	18531.9
439.192	17628.74
439.399	18394.68
439.606	18003.52
439.813	19103.28
440.02	20215.33
440.227	19652.14
440.433	19797.54
440.64	20407.84
440.847	20168.23
441.054	20715.03
441.261	22234.63
441.467	21816.84
441.674	22050.31
441.881	23172.6
442.088	22799.87
442.294	22494.72
442.501	23064.05
442.708	23879.14
442.914	24735.2
443.121	25740.75
443.328	25255.38
443.534	27321.78
443.741	26140.1
443.948	25761.23
444.154	27837.87
444.361	27538.87
444.568	27573.68
444.774	27786.67
444.981	27848.11
445.187	28829.09
445.394	30053.77
445.6	29472.15
445.807	32187.75
446.013	31133.05
446.22	31526.26
446.426	32746.85
446.633	33131.87
446.839	34088.27
447.046	32804.19
447.252	34833.73
447.459	34590.02
447.665	34348.36
447.871	36189.49
448.078	37520.66
448.284	35515.7
448.491	36597.03
448.697	37827.86
448.903	38712.58
449.11	38671.62
449.316	38071.57
449.522	38909.19
449.728	39750.9
449.935	40133.87
450.141	39789.81
450.347	41100.51
450.553	39984.37
450.76	40049.91
450.966	41370.85
451.172	40887.53
451.378	41698.52
451.584	41100.51
451.791	42214.61
451.997	41710.81
452.203	42470.61
452.409	42532.04
452.615	42118.35
452.821	40500.46
453.027	40291.57
453.233	42310.86
453.44	40391.92
453.646	41170.15
453.852	41399.52
454.058	41690.33
454.264	40326.38
454.47	41319.65
454.676	40203.5
454.882	41972.95
455.088	38051.09
455.294	38495.5
455.5	39009.54
455.705	39085.31
455.911	37698.84
456.117	37221.66
456.323	36828.45
456.529	34256.2
456.735	36068.65
456.941	34964.8
457.147	34587.97
457.352	33670.48
457.558	33199.45
457.764	33219.93
457.97	32740.71
458.176	31823.22
458.381	31870.32
458.587	30094.73
458.793	30201.22
458.999	28908.96
459.204	30553.48
459.41	30117.26
459.616	28118.44
459.821	27968.94
460.027	27649.46
460.233	27241.91
460.438	25859.53
460.644	26121.67
460.85	25140.69
461.055	24743.39
461.261	24393.19
461.466	22619.64
461.672	22033.93
461.878	23772.65
462.083	22021.64
462.289	22044.16
462.494	21646.86
462.7	20604.44
462.905	20055.59
463.111	20692.51
463.316	20780.57
463.522	20565.53
463.727	20708.89
463.932	20413.98
464.138	20383.26
464.343	20133.41
464.549	19361.33
464.754	20180.51
464.959	20104.74
465.165	20057.64
465.37	19162.67
465.575	18566.71
465.781	19230.26
465.986	19863.08
466.191	19084.85
466.397	18421.31
466.602	17714.76
466.807	18286.14
467.012	18378.3
467.218	18044.48
467.423	18249.28
467.628	18009.67
467.833	18884.15
468.038	17956.42
468.244	17583.69
468.449	18488.89
468.654	17616.46
468.859	17653.32
469.064	17423.95
469.269	16836.18
469.474	17002.07
469.679	17284.69
469.885	16467.55
470.09	16967.25
470.295	16797.27
470.5	16485.98
470.705	16580.18
470.91	16086.62
471.115	15998.56
471.32	16301.66
471.525	15992.42
471.73	15900.26
471.935	15789.67
472.139	15117.93
472.344	15341.16
472.549	15134.32
472.754	15095.41
472.959	14970.48
473.164	14251.64
473.369	14351.99
473.574	14947.95
473.778	14722.68
473.983	14343.8
474.188	14319.23
474.393	13856.39
474.598	13995.65
474.802	13684.36
475.007	13620.87
475.212	13561.48
475.417	13112.97
475.621	13067.92
475.826	13180.56
476.031	12807.83
476.235	12893.84
476.44	12899.98
476.645	12615.32
476.849	12848.79
477.054	12457.62
477.259	12375.7
477.463	12498.58
477.668	12015.26
477.872	12107.42
478.077	11937.44
478.282	11583.14
478.486	11818.66
478.691	11390.63
478.895	11525.8
479.1	11443.88
479.304	11595.43
479.509	11101.87
479.713	11374.25
479.918	11200.17
480.122	10852.02
480.326	11042.48
480.531	11175.59
480.735	10751.67
480.94	10993.33
481.144	11169.45
481.348	10655.41
481.553	10675.89
481.757	10733.23
481.961	10884.78
482.166	10831.54
482.37	10976.94
482.574	10421.94
482.778	10727.09
482.983	11022
483.187	10792.62
483.391	10647.22
483.595	10727.09
483.8	10426.04
484.004	10636.98
484.208	10725.04
484.412	10571.44
484.616	10735.28
484.821	10829.49
485.025	10458.81
485.229	10497.72
485.433	10665.65
485.637	10569.4
485.841	10473.14
486.045	10780.34
486.249	10538.68
486.453	10548.92
486.657	10628.79
486.861	10784.43
487.065	10405.56
487.269	10587.83
487.473	10356.41
487.677	10561.2
487.881	10815.15
488.085	10512.05
488.289	10870.45
488.493	10686.13
488.697	10819.25
488.901	10753.71
489.105	10796.72
489.309	10733.23
489.512	10737.33
489.716	10718.9
489.92	10669.75
490.124	10786.48
490.328	11019.95
490.531	11024.05
490.735	10952.37
490.939	10989.23
491.143	10968.75
491.346	10886.83
491.55	11116.2
491.754	11134.64
491.958	11183.79
492.161	11257.51
492.365	11202.22
492.569	11284.14
492.772	11202.22
492.976	11636.39
493.18	11427.49
493.383	11953.82
493.587	11513.51
493.79	11697.83
493.994	11560.61
494.197	11751.07
494.401	11904.67
494.605	12000.93
494.808	12218.01
495.012	12215.96
495.215	12197.53
495.419	12297.88
495.622	12422.81
495.825	12254.87
496.029	12508.82
496.232	12693.14
496.436	12746.39
496.639	13280.91
496.843	12826.26
497.046	13350.54
497.249	13340.3
497.453	13493.9
497.656	13549.19
497.859	13448.84
498.063	13790.85
498.266	14057.09
498.469	14118.53
498.673	14196.35
498.876	14382.71
499.079	14622.33
499.282	14474.87
499.485	14970.48
499.689	15093.36
499.892	15306.35
500.095	15351.4
500.298	15509.1
500.501	15552.1
500.705	15941.22
500.908	16055.9
501.111	16256.61
501.314	16508.51
501.517	16535.13
501.72	17010.26
501.923	16739.93
502.126	17141.33
502.329	17438.28
502.532	17387.08
502.735	17829.45
502.938	17958.47
503.141	18247.23
503.344	18267.71
503.547	18179.65
503.75	18624.06
503.953	19021.36
504.156	18961.97
504.359	19355.18
504.562	19533.36
504.765	19959.33
504.968	19904.04
505.17	20438.56
505.373	20305.44
505.576	20643.35
505.779	20893.21
505.982	20786.71
506.185	21392.91
506.387	21356.05
506.59	21939.72
506.793	21849.61
506.996	21863.94
507.198	22410.75
507.401	22457.85
507.604	23055.86
507.807	23195.12
508.009	23465.46
508.212	23363.06
508.415	23860.71
508.617	24557.02
508.82	24262.12
509.022	24186.34
509.225	24813.02
509.428	25044.44
509.63	25210.32
509.833	25619.92
510.035	25937.35
510.238	25771.47
510.44	26226.12
510.643	26596.8
510.845	26756.54
511.048	26705.34
511.25	27213.24
511.453	27573.68
511.655	28558.75
511.858	27942.31
512.06	28239.27
512.262	28693.92
512.465	28835.23
512.667	29269.4
512.87	29558.16
513.072	29760.91
513.274	30385.54
513.477	30434.69
513.679	30934.4
513.881	30971.26
514.084	31303.03
514.286	31661.43
514.488	31456.63
514.69	32497
514.893	32685.41
515.095	32695.65
515.297	33062.24
515.499	33236.31
515.701	33826.13
515.904	33932.62
516.106	34170.19
516.308	34735.43
516.51	34960.7
516.712	34870.59
516.914	35593.53
517.116	36169.01
517.318	35968.3
517.52	36287.79
517.722	36478.25
517.925	36701.48
518.127	37518.62
518.329	37758.23
518.531	37713.17
518.733	38083.86
518.935	38348.04
519.136	38376.72
519.338	39402.75
519.54	39400.7
519.742	39779.57
519.944	39711.99
520.146	40387.82
520.348	40652.01
520.55	40932.58
520.752	40783.08
520.954	42067.16
521.155	41381.09
521.357	42030.29
521.559	42310.86
521.761	43017.41
521.963	42814.66
522.164	43312.32
522.366	43297.98
522.568	43932.85
522.77	44076.21
522.971	44713.13
523.173	44360.88
523.375	44747.95
523.576	44801.19
523.778	44922.02
523.98	45532.32
524.181	45837.47
524.383	45726.88
524.584	46912.65
524.786	46603.41
524.988	46642.32
525.189	46726.28
525.391	47447.17
525.592	47133.83
525.794	47813.76
525.995	47819.9
526.197	47762.56
526.398	47815.8
526.6	48409.71
526.801	48620.66
527.003	48632.94
527.204	48628.85
527.406	49306.72
527.607	49439.84
527.808	49544.29
528.01	48747.63
528.211	49699.93
528.412	50371.67
528.614	50252.89
528.815	49882.2
529.016	50916.43
529.218	50115.67
529.419	50463.83
529.62	50429.01
529.822	50590.8
530.023	50392.15
530.224	50828.37
530.425	50766.93
530.626	50775.12
530.828	49998.94
531.029	51473.48
531.23	51139.66
531.431	50818.13
531.632	51305.54
531.833	51199.05
532.035	51459.14
532.236	51369.03
532.437	51651.65
532.638	51455.04
532.839	51819.58
533.04	52171.83
533.241	51190.86
533.442	52292.66
533.643	51733.57
533.844	51567.68
534.045	51979.32
534.246	51819.58
534.447	52081.72
534.648	51817.53
534.849	52350.01
535.05	51680.32
535.251	52048.96
535.451	51739.71
535.652	52427.83
535.853	52073.53
536.054	52532.28
536.255	52182.07
536.456	51946.56
536.657	52534.32
536.857	52085.82
537.058	51954.75
537.259	52433.97
537.46	52472.88
537.66	52024.38
537.861	52180.03
538.062	52249.66
538.263	52061.24
538.463	51788.86
538.664	52491.32
538.865	52311.1
539.065	52229.18
539.266	51655.75
539.466	52700.21
539.667	51893.31
539.868	52698.16
540.068	52266.04
540.269	52122.68
540.469	52423.73
540.67	52128.83
540.87	52120.63
541.071	51983.42
541.271	52126.78
541.472	52196.41
541.672	52337.72
541.873	52231.22
542.073	51231.82
542.274	52491.32
542.474	51874.88
542.675	51315.78
542.875	52550.71
543.075	51987.52
543.276	51192.9
543.476	52085.82
543.676	51811.39
543.877	52208.7
544.077	51754.05
544.277	51913.79
544.478	51788.86
544.678	51999.8
544.878	51926.08
545.078	51975.23
545.279	51532.87
545.479	51809.34
545.679	51688.51
545.879	52376.63
546.079	51919.93
546.28	51850.3
546.48	51534.91
546.68	52022.33
546.88	51629.12
547.08	51364.93
547.28	51512.39
547.48	51557.44
547.68	51328.07
547.88	51237.96
548.081	51684.42
548.281	51543.11
548.481	51432.52
548.681	51426.37
548.881	51364.93
549.081	51690.56
549.28	51115.08
549.48	51803.2
549.68	51332.17
549.88	51360.84
550.08	51313.73
550.28	51426.37
550.48	50996.3
550.68	51731.52
550.88	51276.87
551.08	51610.69
551.279	51674.18
551.479	50949.2
551.679	51506.24
551.879	51039.31
552.079	51291.21
552.278	51328.07
552.478	51399.75
552.678	51160.14
552.878	51274.82
553.077	50816.08
553.277	50168.92
553.477	51594.31
553.676	51321.93
553.876	50832.46
554.076	50431.06
554.275	50701.39
554.475	50107.48
554.674	50715.73
554.874	50551.89
555.074	50439.25
555.273	50779.21
555.473	50775.12
555.672	50484.31
555.872	50369.62
556.071	50533.46
556.271	50508.88
556.47	50326.61
556.67	50127.96
556.869	50058.33
557.068	50930.76
557.268	50435.16
557.467	50193.5
557.667	49955.93
557.866	50037.85
558.065	49945.69
558.265	49947.74
558.464	49388.64
558.663	50463.83
558.863	49505.38
559.062	50293.85
559.261	49308.77
559.461	50058.33
559.66	48823.4
559.859	49781.85
560.058	48823.4
560.258	49247.33
560.457	48667.76
560.656	49245.29
560.855	49091.69
561.054	49419.36
561.253	48600.18
561.453	49171.56
561.652	48721.01
561.851	48784.49
562.05	48413.81
562.249	48477.3
562.448	48854.12
562.647	48346.23
562.846	48526.45
563.045	48252.02
563.244	47928.44
563.443	48225.4
563.642	47899.77
563.841	48004.22
564.04	47645.82
564.239	48180.34
564.438	47498.37
564.637	48096.38
564.836	47580.29
565.035	47133.83
565.234	47443.07
565.432	46955.66
565.631	47088.77
565.83	47264.9
566.029	46912.65
566.228	46990.47
566.427	46718.09
566.625	46566.54
566.824	46195.86
567.023	46926.99
567.222	45690.01
567.42	46382.23
567.619	46126.23
567.818	46195.86
568.016	45823.13
568.215	45999.26
568.414	45960.34
568.612	46347.41
568.811	45706.4
569.01	45614.24
569.208	45018.28
569.407	45610.14
569.605	44868.78
569.804	45440.16
570.002	44614.83
570.201	45388.96
570.4	44389.55
570.598	44164.28
570.797	44405.94
570.995	44735.66
571.193	43771.07
571.392	44430.51
571.59	43723.96
571.789	44096.69
571.987	43812.02
572.186	44149.94
572.384	44164.28
572.582	44047.54
572.781	43963.57
572.979	43332.8
573.177	42978.5
573.376	43693.24
573.574	43023.56
573.772	43285.7
573.971	43115.72
574.169	42607.82
574.367	42400.97
574.565	42867.91
574.763	42335.44
574.962	42601.68
575.16	41970.9
575.358	42370.25
575.556	41624.79
575.754	42208.47
575.952	41624.79
576.151	41966.8
576.349	41465.05
576.547	41272.54
576.745	41282.78
576.943	41458.91
577.141	41084.13
577.339	41327.84
577.537	40695.02
577.735	41211.1
577.933	40590.57
578.131	41047.27
578.329	40361.2
578.527	40158.45
578.725	40236.27
578.923	39992.56
579.121	40019.19
579.319	39953.65
579.516	40533.23
579.714	39466.24
579.912	39689.46
580.11	39163.14
580.308	39423.23
580.506	39333.12
580.704	38982.91
580.901	39083.26
581.099	39240.96
581.297	38866.18
581.495	38853.89
581.692	38657.29
581.89	38413.58
582.088	38903.04
582.285	38640.9
582.483	38999.3
582.681	38417.68
582.878	38245.65
583.076	37874.96
583.274	38313.23
583.471	37752.09
583.669	37770.52
583.866	37502.23
584.064	38376.72
584.262	37340.44
584.459	37561.62
584.657	37279
584.854	37709.08
585.052	36613.41
585.249	37356.83
585.447	37195.04
585.644	36392.23
585.841	36726.05
586.039	36889.89
586.236	36412.71
586.434	36498.73
586.631	36531.5
586.828	36230.44
587.026	36511.02
587.223	36099.37
587.42	35894.58
587.618	36074.8
587.815	35228.99
588.012	35591.48
588.21	35654.97
588.407	35708.21
588.604	35444.02
588.801	34884.93
588.999	35263.8
589.196	34821.44
589.393	34731.33
589.59	34557.25
589.787	34348.36
589.984	34616.65
590.182	34434.38
590.379	34327.88
590.576	34288.97
590.773	34047.31
590.97	33936.72
591.167	34213.2
591.364	33674.58
591.561	33953.1
591.758	33508.69
591.955	33910.1
592.152	33989.97
592.349	33539.41
592.546	33572.18
592.743	33527.13
592.94	32709.99
593.137	33453.4
593.334	33252.7
593.531	32453.99
593.727	32830.82
593.924	32736.61
594.121	32640.36
594.318	32497
594.515	32372.07
594.712	32724.32
594.908	32165.23
595.105	32234.86
595.302	31616.37
595.499	31839.6
595.696	31425.91
595.892	31587.7
596.089	31958.38
596.286	31759.73
596.482	31323.51
596.679	31487.35
596.876	31202.68
597.072	31307.13
597.269	31004.03
597.466	30688.64
597.662	30766.46
597.859	30741.89
598.055	30915.97
598.252	30592.39
598.448	30580.1
598.645	30578.05
598.841	30012.81
599.038	30651.78
599.234	30324.1
599.431	30123.4
599.627	29869.45
599.824	29730.19
600.02	29582.74
600.217	30565.76
600.413	29435.28
600.609	29459.86
600.806	29453.72
601.002	29713.81
601.198	29334.93
601.395	29068.7
601.591	29316.5
601.787	29203.86
601.984	29076.89
602.18	29218.2
602.376	28657.06
602.572	28880.28
602.769	28784.03
602.965	28220.84
603.161	28550.56
603.357	28265.89
603.553	28358.05
603.75	28415.4
603.946	28038.57
604.142	28347.81
604.338	27751.85
604.534	27930.03
604.73	27612.59
604.926	27657.65
605.122	27620.78
605.318	27690.41
605.514	27342.26
605.71	27033.02
605.906	27112.89
606.102	27280.82
606.298	27432.37
606.494	27338.16
606.69	26955.19
606.886	27129.27
607.082	26488.26
607.278	27180.47
607.474	26303.94
607.67	26922.43
607.866	26369.47
608.062	26750.4
608.257	26654.14
608.453	26568.13
608.649	26377.67
608.845	26154.44
609.041	26164.68
609.236	26320.32
609.432	25925.07
609.628	26066.38
609.824	26144.2
610.019	26097.1
610.215	25896.39
610.411	26093
610.606	25656.78
610.802	25664.97
610.998	25400.79
611.193	25568.72
611.389	25466.32
611.584	25611.73
611.78	25187.8
611.976	25294.29
612.171	25021.91
612.367	25193.94
612.562	24974.81
612.758	24649.18
612.953	24663.52
613.149	25292.24
613.344	24729.05
613.539	25163.22
613.735	24624.61
613.93	25001.43
614.126	24630.75
614.321	24909.27
614.517	24722.91
614.712	24737.24
614.907	24471.01
615.103	24634.85
615.298	24423.9
615.493	24802.78
615.688	24120.81
615.884	24540.64
616.079	24006.12
616.274	24520.16
616.47	24055.27
616.665	24428
616.86	23844.33
617.055	23877.1
617.25	23850.47
617.445	23989.74
617.641	23836.14
617.836	23856.62
618.031	23690.73
618.226	23741.93
618.421	23506.41
618.616	23987.69
618.811	23250.42
619.006	23293.43
619.201	23086.58
619.396	23082.49
619.591	22488.57
619.786	23186.93
619.981	22763
620.176	22892.02
620.371	22539.77
620.566	22486.53
620.761	22371.84
620.956	22654.46
621.151	22107.65
621.346	22154.76
621.541	21992.97
621.735	22531.58
621.93	21728.78
622.125	21681.67
622.32	21452.3
622.515	21671.43
622.709	21538.32
622.904	21206.55
623.099	21108.24
623.294	21407.25
623.488	20928.02
623.683	21134.87
623.878	20942.36
624.072	20848.15
624.267	20758.04
624.462	20622.87
624.656	20475.42
624.851	20436.51
625.046	20215.33
625.24	20377.12
625.435	20207.14
625.629	19979.81
625.824	20010.53
626.018	19791.4
626.213	19293.74
626.407	19576.36
626.602	19467.82
626.796	19283.5
626.991	19295.79
627.185	19002.93
627.38	19138.1
627.574	18681.4
627.768	18998.84
627.963	18665.02
628.157	18626.11
628.352	18619.96
628.546	18339.39
628.74	18640.44
628.935	18064.96
629.129	17989.19
629.323	18003.52
629.517	17897.03
629.712	17993.28
629.906	17827.4
630.1	17536.59
630.294	17591.88
630.489	17133.14
630.683	17473.1
630.877	17307.21
631.071	17227.34
631.265	17348.17
631.459	16971.35
631.653	16963.15
631.848	16854.61
632.042	16770.65
632.236	16819.8
632.43	16735.83
632.624	16668.25
632.818	16500.31
633.012	16363.1
633.206	16060
633.4	16328.28
633.594	15865.44
633.788	15928.93
633.982	16074.34
634.176	15806.05
634.369	15599.21
634.563	15631.97
634.757	15591.02
634.951	15832.68
635.145	15552.1
635.339	15539.82
635.533	15457.9
635.726	15296.11
635.92	15275.63
636.114	15079.02
636.308	15144.56
636.501	14976.62
636.695	14823.03
636.889	14661.24
637.083	14796.4
637.276	14583.41
637.47	14599.8
637.664	14538.36
637.857	14487.16
638.051	14358.14
638.244	14270.08
638.438	14272.12
638.632	14022.27
638.825	13962.88
639.019	13907.59
639.212	13717.12
639.406	13850.24
639.599	13579.91
639.793	13567.62
639.986	13403.78
640.18	13428.36
640.373	13491.85
640.567	13307.53
640.76	13248.14
640.954	13164.17
641.147	13067.92
641.34	13049.49
641.534	13074.06
641.727	13215.37
641.92	12959.38
642.114	12803.73
642.307	12766.87
642.5	12826.26
642.694	12504.73
642.887	12426.9
643.08	12400.28
643.273	12584.6
643.467	12353.18
643.66	12226.2
643.853	12267.16
644.046	11980.45
644.239	12230.3
644.432	12025.5
644.626	11798.18
644.819	11792.03
645.012	11808.42
645.205	11906.72
645.398	11693.73
645.591	11630.24
645.784	11415.21
645.977	11359.91
646.17	11663.01
646.363	11241.13
646.556	11200.17
646.749	11552.42
646.942	11372.2
647.135	10919.6
647.328	11140.78
647.521	11298.47
647.714	10905.26
647.907	10946.22
648.099	10729.14
648.292	11024.05
648.485	10784.43
648.678	10518.2
648.871	10567.35
649.064	10389.17
649.256	10659.51
649.449	10399.41
649.642	10471.09
649.835	10460.85
650.027	10157.75
650.22	10176.19
650.413	10057.4
650.605	10145.47
650.798	10069.69
650.991	9955.01
651.183	9957.05
651.376	9612.99
651.568	9782.98
651.761	9793.22
651.954	9866.94
652.146	9563.84
652.339	9592.51
652.531	9703.11
652.724	9400.01
652.916	9289.42
653.109	9350.85
653.301	9436.87
653.494	9496.26
653.686	9178.83
653.879	9379.53
654.071	9250.5
654.263	9158.35
654.456	9144.01
654.648	9096.91
654.84	8865.49
655.033	9060.04
655.225	8908.49
655.417	8718.03
655.61	8949.45
655.802	8885.97
655.994	8744.66
656.186	8750.8
656.379	8609.49
656.571	8589.01
656.763	8552.15
656.955	8666.83
657.148	8539.86
657.34	8300.25
657.532	8208.09
657.724	8163.03
657.916	8453.84
658.108	8201.94
658.3	8081.11
658.492	8185.56
658.684	8083.16
658.876	7876.32
659.068	7921.37
659.26	8034.01
659.452	7900.89
659.644	8077.02
659.836	7892.7
660.028	7890.65
660.22	7636.7
660.412	7624.42
660.604	7534.31
660.796	7677.66
660.988	7608.03
661.18	7495.39
661.372	7517.92
661.563	7620.32
661.755	7397.09
661.947	7417.57
662.139	7433.96
662.331	7438.05
662.522	7237.35
662.714	7134.95
662.906	7030.51
663.097	7171.82
663.289	7087.85
663.481	6971.11
663.673	6993.64
663.864	6801.13
664.056	6772.46
664.247	6932.2
664.439	6878.96
664.631	6844.14
664.822	6819.57
665.014	6629.1
665.205	6756.08
665.397	6842.09
665.588	6774.51
665.78	6655.73
665.971	6668.02
666.163	6530.8
666.354	6665.97
666.546	6665.97
666.737	6379.25
666.929	6483.7
667.12	6467.31
667.311	6326
667.503	6524.66
667.694	6326
667.885	6174.46
668.077	6205.17
668.268	6242.04
668.459	6057.72
668.651	6098.68
668.842	6221.56
669.033	6082.3
669.224	6137.59
669.416	6219.51
669.607	6100.73
669.798	5916.41
669.989	6002.43
670.18	6135.54
670.371	6080.25
670.563	5879.55
670.754	5996.28
670.945	5836.54
671.136	5826.3
671.327	6031.1
671.518	5969.66
671.709	5723.9
671.9	5738.24
672.091	5744.38
672.282	5588.74
672.473	5648.13
672.664	5746.43
672.855	5584.64
673.046	5644.03
673.237	5691.13
673.428	5654.27
673.619	5678.85
673.809	5746.43
674	5572.35
674.191	5619.46
674.382	5406.47
674.573	5494.53
674.764	5549.82
674.954	5353.22
675.145	5441.28
675.336	5531.39
675.527	5295.88
675.717	5525.25
675.908	5275.4
676.099	5392.13
676.289	5150.47
676.48	5428.99
676.671	5299.97
676.861	5287.68
677.052	5259.01
677.243	5316.36
677.433	5261.06
677.624	5132.04
677.814	5189.38
678.005	5138.18
678.195	5318.4
678.386	5218.05
678.576	5267.2
678.767	5144.33
678.957	5150.47
679.148	5173
679.338	5164.81
679.529	5175.05
679.719	5068.55
679.909	5048.07
680.1	5025.54
680.29	5086.98
680.481	5046.02
680.671	5031.69
680.861	4929.29
681.052	4970.25
681.242	5056.26
681.432	5187.33
681.622	4988.68
681.813	5007.11
682.003	4925.19
682.193	4837.13
682.383	4869.9
682.573	4865.8
682.764	5048.07
682.954	5015.3
683.144	4923.15
683.334	5041.93
683.524	4906.76
683.714	4808.46
683.904	4949.77
684.094	4828.94
684.284	4757.26
684.474	4851.47
684.664	4900.62
684.854	4753.16
685.044	4675.34
685.234	4742.92
685.424	4607.76
685.614	4790.03
685.804	4734.73
685.994	4818.7
686.184	4710.16
686.374	4671.25
686.564	4661.01
686.753	4566.8
686.943	4615.95
687.133	4740.88
687.323	4386.58
687.513	4550.42
687.702	4658.96
687.892	4493.07
688.082	4679.44
688.272	4476.69
688.461	4538.13
688.651	4484.88
688.841	4392.72
689.03	4480.78
689.22	4259.6
689.41	4472.59
689.599	4294.42
689.789	4392.72
689.979	4216.6
690.168	4202.26
690.358	4284.18
690.547	4173.59
690.737	4286.23
690.926	4239.12
691.116	4167.45
691.305	4177.69
691.495	4128.53
691.684	4249.36
691.874	4204.31
692.063	4050.71
692.252	3974.94
692.442	3999.51
692.631	4167.45
692.82	3913.5
693.01	4019.99
693.199	3997.46
693.388	3974.94
693.578	3882.78
693.767	4013.85
693.956	3952.41
694.146	3938.07
694.335	3874.59
694.524	3944.22
694.713	3903.26
694.902	3911.45
695.092	3872.54
695.281	3856.15
695.47	3804.96
695.659	3671.84
695.848	3747.61
696.037	3739.42
696.226	3829.53
696.415	3706.65
696.604	3757.85
696.793	3714.84
696.982	3745.56
697.171	3829.53
697.36	3643.17
697.549	3698.46
697.738	3690.27
697.927	3632.93
698.116	3667.74
698.305	3688.22
698.494	3602.21
698.683	3585.82
698.872	3649.31
699.061	3645.21
699.25	3673.89
699.438	3690.27
699.627	3665.69
699.816	3772.19
700.005	3634.97
700.193	3655.45
700.382	3497.76
700.571	3651.36
700.76	3577.63
700.948	3553.06
701.137	3542.82
701.326	3573.53
701.514	3624.73
701.703	3569.44
701.892	3503.9
702.08	3596.06
702.269	3557.15
702.457	3448.61
702.646	3518.24
702.834	3483.42
703.023	3546.91
703.212	3512.1
703.4	3499.81
703.589	3559.2
703.777	3522.34
703.965	3436.32
704.154	3309.35
704.342	3723.04
704.531	3434.27
704.719	3499.81
704.907	3608.35
705.096	3432.22
705.284	3415.84
705.472	3393.31
705.661	3370.79
705.849	3309.35
706.037	3503.9
706.226	3452.7
706.414	3378.98
706.602	3366.69
706.79	3389.22
706.979	3368.74
707.167	3438.37
707.355	3370.79
707.543	3428.13
707.731	3354.4
707.919	3295.01
708.107	3432.22
708.296	3225.38
708.484	3278.63
708.672	3235.62
708.86	3393.31
709.048	3266.34
709.236	3331.87
709.424	3366.69
709.612	3395.36
709.8	3395.36
709.988	3391.27
710.176	3452.7
710.364	3292.96
710.551	3374.88
710.739	3196.71
710.927	3436.32
711.115	3307.3
711.303	3387.17
711.491	3317.54
711.679	3342.11
711.866	3305.25
712.054	3280.68
712.242	3223.33
712.43	3352.35
712.617	3350.31
712.805	3233.57
712.993	3270.44
713.181	3239.72
713.368	3260.2
713.556	3272.48
713.744	3129.13
713.931	3262.24
714.119	3311.39
714.306	3233.57
714.494	3280.68
714.682	3260.2
714.869	3176.23
715.057	3309.35
715.244	3149.61
715.432	3313.44
715.619	3288.87
715.807	3198.76
715.994	3174.18
716.182	3186.47
716.369	3192.61
716.556	3184.42
716.744	3211.04
716.931	3100.45
717.119	3243.81
717.306	3163.94
717.493	3243.81
717.681	3075.88
717.868	3133.22
718.055	3161.89
718.242	3106.6
718.43	3147.56
718.617	3239.72
718.804	3084.07
718.991	3073.83
719.179	3221.28
719.366	3096.36
719.553	2969.38
719.74	3178.28
719.927	3071.78
720.114	3090.21
720.301	3108.65
720.488	3067.69
720.676	3133.22
720.863	2987.82
721.05	3161.89
721.237	3178.28
721.424	3073.83
721.611	3036.97
721.798	3114.79
721.985	3155.75
722.172	3100.45
722.358	3192.61
722.545	2998.06
722.732	3084.07
722.919	3186.47
723.106	3008.3
723.293	3030.82
723.48	3088.17
723.667	3018.54
723.853	2985.77
724.04	3065.64
724.227	3008.3
724.414	3000.1
724.6	2969.38
724.787	3131.17
724.974	3028.78
725.161	3112.74
725.347	3032.87
725.534	2973.48
725.72	2922.28
725.907	2897.71
726.094	3100.45
726.28	3004.2
726.467	3026.73
726.653	3061.54
726.84	2977.58
727.027	3088.17
727.213	2975.53
727.4	3051.3
727.586	2959.14
727.773	2961.19
727.959	3043.11
728.145	2977.58
728.332	2897.71
728.518	2942.76
728.705	3030.82
728.891	2885.42
729.077	2811.69
729.264	2928.42
729.45	2946.86
729.636	2979.62
729.823	2909.99
730.009	2899.75
730.195	2826.03
730.382	2928.42
730.568	2989.86
730.754	2871.08
730.94	2879.27
731.126	2893.61
731.313	2832.17
731.499	2860.84
731.685	2883.37
731.871	2907.94
732.057	2856.75
732.243	2846.51
732.429	2928.42
732.615	2891.56
732.801	2899.75
732.987	2975.53
733.173	2729.77
733.359	2873.13
733.545	2950.95
733.731	2805.55
733.917	2813.74
734.103	2895.66
734.289	2864.94
734.475	2793.26
734.661	2789.16
734.847	2821.93
735.033	2764.59
735.219	2746.16
735.404	2785.07
735.59	2772.78
735.776	2635.57
735.962	2807.59
736.148	2719.53
736.333	2701.1
736.519	2764.59
736.705	2715.44
736.89	2735.92
737.076	2699.05
737.262	2613.04
737.447	2715.44
737.633	2783.02
737.819	2774.83
738.004	2635.57
738.19	2723.63
738.375	2613.04
738.561	2649.9
738.747	2584.37
738.932	2455.34
739.118	2731.82
739.303	2697
739.489	2654
739.674	2758.44
739.859	2479.92
740.045	2619.18
740.23	2635.57
740.416	2467.63
740.601	2606.89
740.786	2547.5
740.972	2463.54
741.157	2514.73
741.342	2533.17
741.528	2441.01
741.713	2549.55
741.898	2574.13
742.084	2422.58
742.269	2539.31
742.454	2459.44
742.639	2527.02
742.824	2441.01
743.01	2447.15
743.195	2471.73
743.38	2488.11
743.565	2463.54
743.75	2422.58
743.935	2398
744.12	2365.23
744.305	2408.24
744.49	2293.55
744.675	2246.45
744.86	2273.07
745.045	2219.83
745.23	2377.52
745.415	2287.41
745.6	2346.8
745.785	2293.55
745.97	2158.39
746.155	2266.93
746.34	2182.96
746.525	2250.55
746.71	2195.25
746.895	2148.15
747.079	2101.05
747.264	2105.14
747.449	2111.29
747.634	2070.33
747.819	2160.44
748.003	2113.33
748.188	2109.24
748.373	2041.65
748.557	2170.68
748.742	2178.87
748.927	1955.64
749.111	1941.3
749.296	1986.36
749.481	2000.69
749.665	1929.02
749.85	1920.82
750.034	1937.21
750.219	1869.62
750.404	1834.81
750.588	1924.92
750.773	1826.62
750.957	1908.54
751.141	1941.3
751.326	1832.76
751.51	1824.57
751.695	1828.67
751.879	1828.67
752.064	1881.91
752.248	1799.99
752.432	1845.05
752.617	1769.27
752.801	1697.6
752.985	1804.09
753.17	1756.99
753.354	1754.94
753.538	1728.31
753.722	1773.37
753.907	1634.11
754.091	1730.36
754.275	1621.82
754.459	1673.02
754.643	1554.24
754.828	1666.88
755.012	1564.48
755.196	1656.64
755.38	1558.33
755.564	1560.38
755.748	1609.53
755.932	1636.16
756.116	1660.73
756.3	1548.09
756.484	1439.55
756.668	1437.5
756.852	1484.61
757.036	1484.61
757.22	1437.5
757.404	1460.03
757.588	1402.69
757.772	1439.55
757.956	1335.1
758.14	1421.12
758.323	1357.63
758.507	1433.41
758.691	1433.41
758.875	1290.05
759.059	1417.02
759.242	1367.87
759.426	1380.16
759.61	1394.5
759.794	1331.01
759.977	1398.59
760.161	1371.97
760.345	1460.03
760.528	1304.39
760.712	1302.34
760.895	1322.82
761.079	1304.39
761.263	1228.61
761.446	1214.27
761.63	1169.22
761.813	1208.13
761.997	1271.62
762.18	1331.01
762.364	1261.38
762.547	1201.99
762.731	1113.92
762.914	1161.03
763.098	1236.8
763.281	1132.36
763.464	1310.53
763.648	1150.79
763.831	1179.46
764.015	1257.28
764.198	1177.41
764.381	1169.22
764.564	1118.02
764.748	1091.4
764.931	1150.79
765.114	1101.64
765.297	1201.99
765.481	1060.68
765.664	1079.11
765.847	974.66
766.03	1191.75
766.213	1066.82
766.397	1058.63
766.58	1161.03
766.763	1158.98
766.946	1060.68
767.129	1167.17
767.312	964.42
767.495	1066.82
767.678	1044.29
767.861	1052.49
768.044	1077.06
768.227	1136.45
768.41	1070.92
768.593	966.47
768.776	1013.57
768.959	1081.16
769.142	1095.49
769.324	993.09
769.507	1070.92
769.69	986.95
769.873	902.98
770.056	1136.45
770.239	974.66
770.421	943.94
770.604	937.8
770.787	995.14
770.97	997.19
771.152	1097.54
771.335	972.61
771.518	933.7
771.7	1005.38
771.883	915.27
772.066	896.84
772.248	933.7
772.431	960.33
772.613	927.56
772.796	958.28
772.978	935.75
773.161	915.27
773.343	935.75
773.526	800.59
773.708	921.42
773.891	827.21
774.073	896.84
774.256	823.11
774.438	929.61
774.621	808.78
774.803	810.82
774.985	917.32
775.168	839.5
775.35	866.12
775.532	849.74
775.715	763.72
775.897	839.5
776.079	692.04
776.261	831.3
776.444	714.57
776.626	757.58
776.808	812.87
776.99	769.87
777.173	829.26
777.355	739.15
777.537	786.25
777.719	780.11
777.901	769.87
778.083	784.2
778.265	667.47
778.447	681.8
778.629	771.91
778.811	659.28
778.993	726.86
779.175	702.28
779.357	708.43
779.539	726.86
779.721	733
779.903	692.04
780.085	687.95
780.267	704.33
780.449	741.19
780.631	689.99
780.812	718.67
780.994	655.18
781.176	616.27
781.358	560.97
781.54	661.32
781.721	708.43
781.903	712.52
782.085	632.65
782.267	610.12
782.448	558.92
782.63	651.08
782.812	612.17
782.993	581.45
783.175	575.31
783.357	550.73
783.538	581.45
783.72	522.06
783.901	526.16
784.083	589.64
784.264	585.55
784.446	487.25
784.627	593.74
784.809	591.69
784.99	544.59
785.172	468.81
785.353	442.19
785.535	501.58
785.716	601.93
785.897	485.2
786.079	517.97
786.26	585.55
786.441	528.21
786.623	548.68
786.804	505.68
786.985	491.34
787.167	442.19
787.348	454.48
787.529	569.16
787.71	536.4
787.891	540.49
788.073	417.61
788.254	388.94
788.435	503.63
788.616	485.2
788.797	440.14
788.978	470.86
789.159	450.38
789.34	534.35
789.522	458.57
789.703	444.24
789.884	395.09
790.065	411.47
790.246	544.59
790.427	431.95
790.607	460.62
790.788	448.33
790.969	341.84
791.15	356.18
791.331	382.8
791.512	384.85
791.693	370.51
791.874	403.28
792.054	390.99
792.235	378.7
792.416	470.86
792.597	368.46
792.778	339.79
792.958	421.71
793.139	380.75
793.32	368.46
793.5	319.31
793.681	423.76
793.862	368.46
794.042	329.55
794.223	386.9
794.404	331.6
794.584	364.37
794.765	327.5
794.945	272.21
795.126	454.48
795.306	434
795.487	347.98
795.667	278.35
795.848	438.09
796.028	368.46
796.209	380.75
796.389	423.76
796.57	372.56
796.75	315.22
796.93	274.26
797.111	249.68
797.291	307.02
797.471	335.7
797.652	218.96
797.832	251.73
798.012	296.78
798.192	280.4
798.373	333.65
798.553	339.79
798.733	319.31
798.913	206.67
799.093	302.93
799.274	333.65
799.454	304.98
799.634	341.84
799.814	350.03
799.994	270.16
800.174	298.83
800.354	276.31
800.534	188.24
800.714	319.31
800.894	337.74
801.074	235.35
801.254	268.11
801.434	294.74
801.614	261.97
801.794	245.59
801.974	866.12
802.154	286.54
802.334	288.59
802.514	153.43
802.693	270.16
802.873	278.35
803.053	345.94
803.233	315.22
803.413	272.21
803.592	339.79
803.772	225.11
803.952	304.98
804.131	196.43
804.311	257.87
804.491	315.22
804.67	302.93
804.85	272.21
805.03	190.29
805.209	245.59
805.389	233.3
805.568	247.63
805.748	218.96
805.928	247.63
806.107	206.67
806.287	278.35
806.466	309.07
806.646	206.67
806.825	223.06
807.004	241.49
807.184	196.43
807.363	241.49
807.543	253.78
807.722	264.02
807.901	286.54
808.081	259.92
808.26	163.67
808.439	218.96
808.619	221.01
808.798	216.91
808.977	247.63
809.156	245.59
809.336	157.52
809.515	247.63
809.694	94.04
809.873	159.57
810.052	274.26
810.231	274.26
810.411	247.63
810.59	208.72
810.769	180.05
810.948	200.53
811.127	229.2
811.306	239.44
811.485	196.43
811.664	216.91
811.843	147.28
812.022	190.29
812.201	94.04
812.38	198.48
812.559	200.53
812.737	216.91
812.916	210.77
813.095	247.63
813.274	135
813.453	210.77
813.632	163.67
813.811	278.35
813.989	204.63
814.168	139.09
814.347	188.24
814.526	212.82
814.704	190.29
814.883	184.15
815.062	173.91
815.24	237.39
815.419	190.29
815.598	214.87
815.776	180.05
815.955	122.71
816.133	124.76
816.312	153.43
816.49	178
816.669	132.95
816.847	200.53
817.026	108.37
817.204	155.47
817.383	198.48
817.561	124.76
817.74	188.24
817.918	114.52
818.097	116.56
818.275	149.33
818.453	143.19
818.632	130.9
818.81	141.14
818.988	135
819.167	147.28
819.345	126.8
819.523	157.52
819.701	122.71
819.879	198.48
820.058	126.8
820.236	130.9
820.414	208.72
820.592	139.09
820.77	122.71
820.948	178
821.127	85.84
821.305	147.28
821.483	135
821.661	169.81
821.839	180.05
822.017	151.38
822.195	122.71
822.373	132.95
822.551	96.08
822.729	91.99
822.907	102.23
823.085	225.11
823.262	126.8
823.44	126.8
823.618	114.52
823.796	141.14
823.974	75.6
824.152	135
824.329	157.52
824.507	106.32
824.685	178
824.863	104.28
825.04	141.14
825.218	102.23
825.396	44.88
825.574	110.42
825.751	67.41
825.929	184.15
826.107	116.56
826.284	153.43
826.462	94.04
826.639	81.75
826.817	153.43
826.994	180.05
827.172	87.89
827.349	165.71
827.527	102.23
827.704	94.04
827.882	139.09
828.059	137.04
828.237	63.32
828.414	120.66
828.591	20.31
828.769	100.18
828.946	110.42
829.124	175.95
829.301	161.62
829.478	122.71
829.655	155.47
829.833	124.76
830.01	22.36
830.187	77.65
830.364	65.36
830.542	157.52
830.719	128.85
830.896	98.13
831.073	53.08
831.25	135
831.427	98.13
831.604	100.18
831.782	155.47
831.959	106.32
832.136	65.36
832.313	61.27
832.49	126.8
832.667	171.86
832.844	59.22
833.021	91.99
833.198	130.9
833.374	124.76
833.551	130.9
833.728	85.84
833.905	122.71
834.082	67.41
834.259	108.37
834.436	139.09
834.612	91.99
834.789	151.38
834.966	130.9
835.143	85.84
835.319	79.7
835.496	77.65
835.673	98.13
835.85	104.28
836.026	46.93
836.203	112.47
836.38	38.74
836.556	71.51
836.733	106.32
836.909	106.32
837.086	40.79
837.262	-6.31
837.439	69.46
837.616	65.36
837.792	108.37
837.968	65.36
838.145	87.89
838.321	44.88
838.498	122.71
838.674	8.02
838.851	75.6
839.027	55.12
839.203	67.41
839.38	165.71
839.556	69.46
839.732	149.33
839.909	83.8
840.085	57.17
840.261	98.13
840.437	69.46
840.614	110.42
840.79	67.41
840.966	53.08
841.142	85.84
841.318	71.51
841.494	36.69
841.671	63.32
841.847	85.84
842.023	18.26
842.199	94.04
842.375	130.9
842.551	28.5
842.727	81.75
842.903	59.22
843.079	-16.55
843.255	71.51
843.431	67.41
843.607	75.6
843.783	-14.51
843.959	116.56
844.134	104.28
844.31	77.65
844.486	94.04
844.662	-6.31
844.838	102.23
845.013	44.88
845.189	-12.46
845.365	57.17
845.541	63.32
845.716	42.84
845.892	24.4
846.068	-10.41
846.244	53.08
846.419	126.8
846.595	8.02
846.77	94.04
846.946	96.08
847.122	89.94
847.297	36.69
847.473	16.21
847.648	-24.75
847.824	46.93
847.999	-4.27
848.175	77.65
848.35	42.84
848.526	102.23
848.701	1.88
848.876	22.36
849.052	32.6
849.227	67.41
849.403	-41.13
849.578	100.18
849.753	-18.6
849.929	51.03
850.104	32.6
850.279	61.27
850.454	94.04
850.63	59.22
850.805	77.65
850.98	53.08
851.155	79.7
851.33	104.28
851.505	-110.76
851.681	8.02
851.856	-12.46
852.031	20.31
852.206	10.07
852.381	-12.46
852.556	34.64
852.731	71.51
852.906	36.69
853.081	36.69
853.256	114.52
853.431	-4.27
853.606	-45.23
853.781	87.89
853.956	46.93
854.131	-47.27
854.305	61.27
854.48	34.64
854.655	57.17
854.83	22.36
855.005	12.12
855.18	20.31
855.354	8.02
855.529	-12.46
855.704	28.5
855.879	81.75
856.053	-18.6
856.228	-4.27
856.403	40.79
856.577	85.84
856.752	-22.7
856.926	-8.36
857.101	8.02
857.276	26.45
857.45	48.98
857.625	67.41
857.799	114.52
857.974	59.22
858.148	38.74
858.323	53.08
858.497	18.26
858.672	22.36
858.846	-22.7
859.02	48.98
859.195	-20.65
859.369	42.84
859.543	53.08
859.718	116.56
859.892	28.5
860.066	57.17
860.241	8.02
860.415	73.56
860.589	16.21
860.763	120.66
860.938	44.88
861.112	3.93
861.286	-8.36
861.46	-26.79
861.634	18.26
861.808	-0.17
861.982	-20.65
862.157	-0.17
862.331	-14.51
862.505	1.88
862.679	10.07
862.853	-14.51
863.027	12.12
863.201	98.13
863.375	24.4
863.549	-2.22
863.722	36.69
863.896	28.5
864.07	53.08
864.244	69.46
864.418	48.98
864.592	77.65
864.766	-8.36
864.939	48.98
865.113	-20.65
865.287	3.93
865.461	28.5
865.634	-12.46
865.808	5.97
865.982	81.75
866.156	-4.27
866.329	110.42
866.503	108.37
866.676	42.84
866.85	75.6
867.024	30.55
867.197	69.46
867.371	110.42
867.544	51.03
867.718	30.55
867.891	-8.36
868.065	42.84
868.238	55.12
868.412	44.88
868.585	20.31
868.759	5.97
868.932	75.6
869.105	24.4
869.279	61.27
869.452	-41.13
869.625	-32.94
869.799	3.93
869.972	-2.22
870.145	1.88
870.319	30.55
870.492	-8.36
870.665	38.74
870.838	-16.55
871.011	-22.7
871.185	55.12
871.358	-59.56
871.531	63.32
871.704	-67.75
871.877	8.02
872.05	8.02
872.223	34.64
872.396	24.4
872.569	53.08
872.742	-20.65
872.915	94.04
873.088	44.88
873.261	28.5
873.434	3.93
873.607	61.27
873.78	46.93
873.953	-43.18
874.126	83.8
874.299	59.22
874.471	-0.17
874.644	59.22
874.817	3.93
874.99	71.51
875.163	89.94
875.335	-26.79
875.508	36.69
875.681	83.8
875.853	42.84
876.026	85.84
876.199	3.93
876.371	22.36
876.544	85.84
876.717	106.32
876.889	44.88
877.062	36.69
877.234	10.07
877.407	18.26
877.579	-98.47
877.752	65.36
877.924	3.93
878.097	3.93
878.269	26.45
878.442	-12.46
878.614	81.75
878.786	14.17
878.959	-4.27
879.131	-16.55
879.303	46.93
879.476	57.17
879.648	53.08
879.82	16.21
879.993	18.26
880.165	48.98
880.337	-82.09
880.509	67.41
880.681	57.17
880.854	-4.27
881.026	-73.9
881.198	22.36
881.37	44.88
881.542	3.93
881.714	-73.9
881.886	28.5
882.058	-2.22
882.23	38.74
882.402	10.07
882.574	57.17
882.746	20.31
882.918	69.46
883.09	20.31
883.262	1.88
883.434	73.56
883.606	-12.46
883.778	-43.18
883.95	96.08
884.122	28.5
884.293	53.08
884.465	-14.51
884.637	48.98
884.809	12.12
884.98	14.17
885.152	44.88
885.324	-22.7
885.496	10.07
885.667	18.26
885.839	30.55
886.011	-12.46
886.182	16.21
886.354	-2.22
886.525	3.93
886.697	20.31
886.869	-2.22
887.04	73.56
887.212	14.17
887.383	71.51
887.555	18.26
887.726	24.4
887.897	-59.56
888.069	24.4
888.24	28.5
888.412	85.84
888.583	-12.46
888.754	53.08
888.926	-41.13
889.097	-34.99
889.268	24.4
889.44	34.64
889.611	5.97
889.782	16.21
889.953	-4.27
890.125	100.18
890.296	-22.7
890.467	69.46
890.638	16.21
890.809	12.12
890.98	-12.46
891.151	40.79
891.323	118.61
891.494	36.69
891.665	22.36
891.836	46.93
892.007	20.31
892.178	30.55
892.349	-28.84
892.52	-2.22
892.691	12.12
892.862	28.5
893.032	-12.46
893.203	16.21
893.374	3.93
893.545	91.99
893.716	46.93
893.887	-0.17
894.057	12.12
894.228	20.31
894.399	28.5
894.57	48.98
894.74	-12.46
894.911	-30.89
895.082	-41.13
895.253	44.88
895.423	-4.27
895.594	51.03
895.764	-4.27
895.935	-32.94
896.106	32.6
896.276	44.88
896.447	-28.84
896.617	53.08
896.788	38.74
896.958	-12.46
897.129	-14.51
897.299	-10.41
897.47	36.69
897.64	3.93
897.81	-73.9
897.981	34.64
898.151	59.22
898.322	-6.31
898.492	40.79
898.662	34.64
898.832	-12.46
899.003	40.79
899.173	26.45
899.343	-20.65
899.513	-24.75
