Data from USB4F104151__63__10-23-58-633.txt Node

Date: Wed Mar 12 10:23:58 EDT 2025
User: louis
Spectrometer: USB4F10415
Trigger mode: 4
Integration Time (sec): 3.000000E-2
Scans to average: 1
Electric dark correction enabled: true
Nonlinearity correction enabled: false
Boxcar width: 0
XAxis mode: Wavelengths
Number of Pixels in Spectrum: 3648
>>>>>Begin Spectral Data<<<<<
178.204	-129.19
178.424	-129.19
178.644	-129.19
178.864	-77.99
179.084	-153.77
179.304	-61.61
179.524	59.22
179.744	8.02
179.964	-12.46
180.184	1.88
180.404	-8.36
180.624	26.45
180.844	1.88
181.064	-39.08
181.283	-6.31
181.503	-16.55
181.723	46.93
181.943	-67.75
182.163	32.6
182.383	26.45
182.602	57.17
182.822	28.5
183.042	-10.41
183.262	-8.36
183.482	-59.56
183.701	-18.6
183.921	-8.36
184.141	-37.03
184.361	-4.27
184.58	61.27
184.8	42.84
185.02	55.12
185.239	63.32
185.459	1.88
185.679	-39.08
185.898	14.17
186.118	-6.31
186.338	-43.18
186.557	67.41
186.777	57.17
186.997	71.51
187.216	16.21
187.436	46.93
187.655	18.26
187.875	83.8
188.095	-20.65
188.314	5.97
188.534	34.64
188.753	-22.7
188.973	1.88
189.192	-2.22
189.412	8.02
189.631	-47.27
189.851	22.36
190.07	3.93
190.29	18.26
190.509	-39.08
190.729	-14.51
190.948	67.41
191.168	94.04
191.387	30.55
191.607	10.07
191.826	-22.7
192.045	28.5
192.265	-30.89
192.484	-34.99
192.704	34.64
192.923	-41.13
193.142	18.26
193.362	55.12
193.581	-24.75
193.8	-4.27
194.02	22.36
194.239	-55.47
194.458	-6.31
194.678	3.93
194.897	20.31
195.116	-51.37
195.335	-14.51
195.555	18.26
195.774	51.03
195.993	-14.51
196.212	81.75
196.432	48.98
196.651	-32.94
196.87	53.08
197.089	59.22
197.308	5.97
197.528	26.45
197.747	-51.37
197.966	10.07
198.185	87.89
198.404	-37.03
198.623	77.65
198.842	24.4
199.062	-24.75
199.281	32.6
199.5	-2.22
199.719	-32.94
199.938	-0.17
200.157	57.17
200.376	-32.94
200.595	51.03
200.814	42.84
201.033	87.89
201.252	44.88
201.471	-0.17
201.69	87.89
201.909	51.03
202.128	106.32
202.347	89.94
202.566	65.36
202.785	-30.89
203.004	-8.36
203.223	83.8
203.442	59.22
203.661	-34.99
203.879	65.36
204.098	83.8
204.317	-32.94
204.536	87.89
204.755	24.4
204.974	67.41
205.193	22.36
205.411	34.64
205.63	14.17
205.849	75.6
206.068	-4.27
206.287	14.17
206.505	-39.08
206.724	34.64
206.943	26.45
207.162	14.17
207.381	-20.65
207.599	12.12
207.818	26.45
208.037	22.36
208.255	18.26
208.474	38.74
208.693	3.93
208.911	-6.31
209.13	14.17
209.349	65.36
209.567	85.84
209.786	24.4
210.005	3.93
210.223	40.79
210.442	-14.51
210.661	67.41
210.879	-10.41
211.098	-2.22
211.316	38.74
211.535	24.4
211.753	48.98
211.972	63.32
212.191	34.64
212.409	48.98
212.628	57.17
212.846	108.37
213.065	-14.51
213.283	-8.36
213.502	-0.17
213.72	3.93
213.938	-14.51
214.157	-47.27
214.375	18.26
214.594	28.5
214.812	16.21
215.031	65.36
215.249	83.8
215.467	-18.6
215.686	5.97
215.904	-26.79
216.122	-59.56
216.341	46.93
216.559	-24.75
216.778	24.4
216.996	57.17
217.214	20.31
217.432	-45.23
217.651	1.88
217.869	42.84
218.087	85.84
218.306	1.88
218.524	108.37
218.742	-14.51
218.96	59.22
219.179	-22.7
219.397	8.02
219.615	73.56
219.833	73.56
220.051	-30.89
220.27	94.04
220.488	83.8
220.706	46.93
220.924	34.64
221.142	-24.75
221.36	65.36
221.578	40.79
221.796	26.45
222.015	42.84
222.233	20.31
222.451	83.8
222.669	42.84
222.887	85.84
223.105	65.36
223.323	-20.65
223.541	-4.27
223.759	75.6
223.977	12.12
224.195	22.36
224.413	5.97
224.631	24.4
224.849	91.99
225.067	59.22
225.285	57.17
225.503	-16.55
225.721	-30.89
225.939	-10.41
226.157	-59.56
226.375	81.75
226.592	36.69
226.81	-16.55
227.028	34.64
227.246	10.07
227.464	-12.46
227.682	65.36
227.9	-14.51
228.117	-6.31
228.335	42.84
228.553	67.41
228.771	1.88
228.989	-8.36
229.206	42.84
229.424	-16.55
229.642	-41.13
229.86	-10.41
230.077	57.17
230.295	1.88
230.513	32.6
230.731	34.64
230.948	40.79
231.166	85.84
231.384	10.07
231.601	-63.66
231.819	89.94
232.037	-39.08
232.254	18.26
232.472	79.7
232.689	36.69
232.907	30.55
233.125	-18.6
233.342	46.93
233.56	-26.79
233.777	-34.99
233.995	38.74
234.213	5.97
234.43	42.84
234.648	-6.31
234.865	-10.41
235.083	89.94
235.3	26.45
235.518	26.45
235.735	34.64
235.953	51.03
236.17	-0.17
236.388	-0.17
236.605	-16.55
236.822	79.7
237.04	48.98
237.257	22.36
237.475	-20.65
237.692	69.46
237.909	28.5
238.127	-34.99
238.344	40.79
238.562	67.41
238.779	-14.51
238.996	-14.51
239.214	22.36
239.431	1.88
239.648	12.12
239.865	-6.31
240.083	79.7
240.3	44.88
240.517	-4.27
240.735	32.6
240.952	89.94
241.169	51.03
241.386	1.88
241.603	22.36
241.821	51.03
242.038	71.51
242.255	5.97
242.472	5.97
242.689	10.07
242.907	51.03
243.124	5.97
243.341	8.02
243.558	3.93
243.775	38.74
243.992	-0.17
244.209	81.75
244.426	77.65
244.643	112.47
244.86	-30.89
245.078	12.12
245.295	38.74
245.512	-28.84
245.729	67.41
245.946	5.97
246.163	20.31
246.38	-10.41
246.597	-14.51
246.814	-6.31
247.031	26.45
247.248	73.56
247.464	48.98
247.681	28.5
247.898	38.74
248.115	81.75
248.332	18.26
248.549	51.03
248.766	63.32
248.983	130.9
249.2	18.26
249.417	48.98
249.633	-57.51
249.85	48.98
250.067	8.02
250.284	59.22
250.501	48.98
250.717	24.4
250.934	-26.79
251.151	65.36
251.368	40.79
251.585	28.5
251.801	42.84
252.018	61.27
252.235	89.94
252.451	-8.36
252.668	-30.89
252.885	65.36
253.102	24.4
253.318	26.45
253.535	51.03
253.752	22.36
253.968	1.88
254.185	-0.17
254.401	14.17
254.618	40.79
254.835	22.36
255.051	102.23
255.268	77.65
255.484	-59.56
255.701	26.45
255.917	18.26
256.134	77.65
256.351	8.02
256.567	-41.13
256.784	14.17
257	-65.71
257.217	22.36
257.433	32.6
257.65	-0.17
257.866	79.7
258.082	-41.13
258.299	14.17
258.515	77.65
258.732	26.45
258.948	10.07
259.165	-4.27
259.381	-26.79
259.597	8.02
259.814	63.32
260.03	-6.31
260.246	32.6
260.463	67.41
260.679	38.74
260.895	1.88
261.112	53.08
261.328	85.84
261.544	-8.36
261.761	83.8
261.977	12.12
262.193	-2.22
262.409	-14.51
262.626	102.23
262.842	-51.37
263.058	26.45
263.274	98.13
263.49	26.45
263.707	28.5
263.923	-8.36
264.139	-30.89
264.355	1.88
264.571	77.65
264.787	16.21
265.004	85.84
265.22	18.26
265.436	-16.55
265.652	-6.31
265.868	38.74
266.084	-28.84
266.3	40.79
266.516	-20.65
266.732	81.75
266.948	30.55
267.164	1.88
267.38	30.55
267.596	32.6
267.812	67.41
268.028	63.32
268.244	-45.23
268.46	22.36
268.676	26.45
268.892	-0.17
269.108	40.79
269.324	-22.7
269.54	-49.32
269.756	32.6
269.972	-4.27
270.188	65.36
270.403	-55.47
270.619	34.64
270.835	-26.79
271.051	-32.94
271.267	30.55
271.483	-8.36
271.698	-0.17
271.914	1.88
272.13	83.8
272.346	48.98
272.562	-18.6
272.777	48.98
272.993	73.56
273.209	-8.36
273.425	26.45
273.64	-39.08
273.856	67.41
274.072	3.93
274.287	22.36
274.503	-18.6
274.719	-22.7
274.934	26.45
275.15	-16.55
275.366	18.26
275.581	10.07
275.797	36.69
276.012	-0.17
276.228	26.45
276.444	5.97
276.659	73.56
276.875	26.45
277.09	26.45
277.306	-34.99
277.521	8.02
277.737	1.88
277.952	42.84
278.168	-32.94
278.383	38.74
278.599	-14.51
278.814	48.98
279.03	79.7
279.245	91.99
279.461	104.28
279.676	22.36
279.892	18.26
280.107	-26.79
280.322	18.26
280.538	-63.66
280.753	-8.36
280.969	42.84
281.184	-37.03
281.399	53.08
281.615	-45.23
281.83	3.93
282.045	-24.75
282.26	46.93
282.476	94.04
282.691	22.36
282.906	91.99
283.122	18.26
283.337	-39.08
283.552	126.8
283.767	48.98
283.983	59.22
284.198	-77.99
284.413	46.93
284.628	24.4
284.843	38.74
285.058	30.55
285.274	40.79
285.489	28.5
285.704	-20.65
285.919	36.69
286.134	48.98
286.349	22.36
286.564	5.97
286.779	51.03
286.995	1.88
287.21	-22.7
287.425	30.55
287.64	-24.75
287.855	83.8
288.07	-63.66
288.285	124.76
288.5	-0.17
288.715	-30.89
288.93	40.79
289.145	79.7
289.36	-71.85
289.575	18.26
289.79	-14.51
290.004	61.27
290.219	34.64
290.434	5.97
290.649	14.17
290.864	30.55
291.079	-39.08
291.294	63.32
291.509	-10.41
291.724	55.12
291.938	34.64
292.153	79.7
292.368	-0.17
292.583	59.22
292.798	-24.75
293.012	1.88
293.227	75.6
293.442	-6.31
293.657	59.22
293.871	28.5
294.086	3.93
294.301	79.7
294.516	73.56
294.73	85.84
294.945	-49.32
295.16	106.32
295.374	106.32
295.589	-14.51
295.804	10.07
296.018	16.21
296.233	53.08
296.447	30.55
296.662	10.07
296.877	34.64
297.091	1.88
297.306	91.99
297.52	46.93
297.735	38.74
297.949	-10.41
298.164	1.88
298.378	14.17
298.593	-6.31
298.807	3.93
299.022	14.17
299.236	145.24
299.451	57.17
299.665	32.6
299.88	42.84
300.094	-22.7
300.309	40.79
300.523	120.66
300.737	16.21
300.952	-0.17
301.166	10.07
301.381	3.93
301.595	73.56
301.809	28.5
302.024	40.79
302.238	-16.55
302.452	91.99
302.667	34.64
302.881	89.94
303.095	81.75
303.309	3.93
303.524	59.22
303.738	38.74
303.952	-22.7
304.166	-14.51
304.381	14.17
304.595	57.17
304.809	38.74
305.023	81.75
305.237	28.5
305.452	46.93
305.666	55.12
305.88	-10.41
306.094	75.6
306.308	69.46
306.522	124.76
306.736	14.17
306.95	22.36
307.164	-22.7
307.379	-6.31
307.593	94.04
307.807	53.08
308.021	34.64
308.235	69.46
308.449	-14.51
308.663	20.31
308.877	89.94
309.091	-16.55
309.305	73.56
309.519	67.41
309.733	75.6
309.947	-28.84
310.161	10.07
310.374	24.4
310.588	81.75
310.802	42.84
311.016	1.88
311.23	79.7
311.444	-45.23
311.658	34.64
311.872	-10.41
312.085	108.37
312.299	87.89
312.513	46.93
312.727	30.55
312.941	34.64
313.154	18.26
313.368	61.27
313.582	20.31
313.796	-4.27
314.009	91.99
314.223	10.07
314.437	1.88
314.651	34.64
314.864	5.97
315.078	12.12
315.292	-2.22
315.505	83.8
315.719	40.79
315.933	10.07
316.146	-30.89
316.36	12.12
316.573	75.6
316.787	59.22
317.001	28.5
317.214	26.45
317.428	75.6
317.641	22.36
317.855	18.26
318.068	51.03
318.282	61.27
318.495	10.07
318.709	59.22
318.922	12.12
319.136	108.37
319.349	36.69
319.563	-39.08
319.776	34.64
319.99	1.88
320.203	1.88
320.417	32.6
320.63	10.07
320.843	26.45
321.057	18.26
321.27	83.8
321.483	20.31
321.697	63.32
321.91	104.28
322.124	83.8
322.337	30.55
322.55	10.07
322.763	22.36
322.977	26.45
323.19	8.02
323.403	34.64
323.617	-18.6
323.83	38.74
324.043	34.64
324.256	104.28
324.469	-30.89
324.683	55.12
324.896	10.07
325.109	83.8
325.322	98.13
325.535	10.07
325.748	69.46
325.962	34.64
326.175	38.74
326.388	-8.36
326.601	55.12
326.814	81.75
327.027	42.84
327.24	-16.55
327.453	-22.7
327.666	55.12
327.879	22.36
328.092	44.88
328.305	59.22
328.518	46.93
328.731	-16.55
328.944	18.26
329.157	16.21
329.37	24.4
329.583	104.28
329.796	89.94
330.009	22.36
330.222	98.13
330.435	40.79
330.648	53.08
330.861	10.07
331.073	28.5
331.286	42.84
331.499	46.93
331.712	-47.27
331.925	-0.17
332.138	-34.99
332.35	59.22
332.563	36.69
332.776	12.12
332.989	-22.7
333.202	112.47
333.414	8.02
333.627	-6.31
333.84	28.5
334.053	3.93
334.265	42.84
334.478	-6.31
334.691	-6.31
334.903	3.93
335.116	-26.79
335.329	40.79
335.541	-30.89
335.754	42.84
335.966	55.12
336.179	83.8
336.392	-18.6
336.604	120.66
336.817	24.4
337.029	48.98
337.242	34.64
337.454	-8.36
337.667	12.12
337.88	59.22
338.092	59.22
338.305	42.84
338.517	-8.36
338.729	-28.84
338.942	87.89
339.154	30.55
339.367	51.03
339.579	55.12
339.792	20.31
340.004	55.12
340.217	77.65
340.429	32.6
340.641	32.6
340.854	28.5
341.066	10.07
341.278	77.65
341.491	118.61
341.703	5.97
341.915	-8.36
342.128	59.22
342.34	1.88
342.552	26.45
342.764	8.02
342.977	51.03
343.189	32.6
343.401	69.46
343.613	18.26
343.826	89.94
344.038	32.6
344.25	75.6
344.462	-0.17
344.674	14.17
344.886	38.74
345.099	85.84
345.311	42.84
345.523	1.88
345.735	-24.75
345.947	100.18
346.159	8.02
346.371	91.99
346.583	26.45
346.795	94.04
347.007	73.56
347.219	-2.22
347.431	-0.17
347.643	24.4
347.855	26.45
348.067	-10.41
348.279	22.36
348.491	-24.75
348.703	10.07
348.915	135
349.127	69.46
349.339	89.94
349.551	57.17
349.763	75.6
349.975	-14.51
350.187	96.08
350.399	14.17
350.61	57.17
350.822	12.12
351.034	-8.36
351.246	1.88
351.458	-34.99
351.669	24.4
351.881	112.47
352.093	147.28
352.305	-2.22
352.517	-14.51
352.728	55.12
352.94	-2.22
353.152	-4.27
353.363	3.93
353.575	102.23
353.787	73.56
353.999	57.17
354.21	116.56
354.422	-14.51
354.633	75.6
354.845	10.07
355.057	51.03
355.268	96.08
355.48	36.69
355.692	8.02
355.903	1.88
356.115	34.64
356.326	46.93
356.538	34.64
356.749	16.21
356.961	81.75
357.172	44.88
357.384	-4.27
357.595	81.75
357.807	44.88
358.018	8.02
358.23	12.12
358.441	22.36
358.653	-4.27
358.864	65.36
359.075	34.64
359.287	59.22
359.498	79.7
359.709	-22.7
359.921	59.22
360.132	112.47
360.344	108.37
360.555	28.5
360.766	89.94
360.977	40.79
361.189	71.51
361.4	34.64
361.611	-0.17
361.823	-41.13
362.034	36.69
362.245	42.84
362.456	18.26
362.667	67.41
362.879	87.89
363.09	8.02
363.301	104.28
363.512	40.79
363.723	89.94
363.935	-12.46
364.146	100.18
364.357	46.93
364.568	40.79
364.779	-10.41
364.99	75.6
365.201	28.5
365.412	114.52
365.623	8.02
365.834	-14.51
366.045	67.41
366.256	128.85
366.467	91.99
366.678	-0.17
366.889	18.26
367.1	75.6
367.311	69.46
367.522	24.4
367.733	-39.08
367.944	59.22
368.155	71.51
368.366	12.12
368.577	14.17
368.788	65.36
368.999	1.88
369.209	96.08
369.42	57.17
369.631	106.32
369.842	46.93
370.053	61.27
370.264	73.56
370.474	10.07
370.685	40.79
370.896	120.66
371.107	147.28
371.317	57.17
371.528	26.45
371.739	32.6
371.95	79.7
372.16	61.27
372.371	71.51
372.582	71.51
372.792	75.6
373.003	20.31
373.214	22.36
373.424	120.66
373.635	67.41
373.846	100.18
374.056	30.55
374.267	36.69
374.477	-47.27
374.688	48.98
374.898	44.88
375.109	-6.31
375.319	14.17
375.53	28.5
375.74	10.07
375.951	48.98
376.161	24.4
376.372	85.84
376.582	-16.55
376.793	67.41
377.003	38.74
377.214	-6.31
377.424	-14.51
377.635	83.8
377.845	26.45
378.055	20.31
378.266	-2.22
378.476	26.45
378.686	40.79
378.897	75.6
379.107	44.88
379.317	65.36
379.528	-18.6
379.738	34.64
379.948	18.26
380.158	130.9
380.369	-10.41
380.579	69.46
380.789	48.98
380.999	87.89
381.21	-12.46
381.42	106.32
381.63	8.02
381.84	18.26
382.05	98.13
382.261	137.04
382.471	91.99
382.681	46.93
382.891	96.08
383.101	18.26
383.311	-24.75
383.521	51.03
383.731	83.8
383.941	73.56
384.151	30.55
384.361	100.18
384.571	114.52
384.781	91.99
384.991	83.8
385.201	98.13
385.411	75.6
385.621	24.4
385.831	65.36
386.041	22.36
386.251	32.6
386.461	75.6
386.671	18.26
386.881	-28.84
387.091	77.65
387.301	75.6
387.511	100.18
387.72	126.8
387.93	94.04
388.14	48.98
388.35	67.41
388.56	48.98
388.769	57.17
388.979	61.27
389.189	59.22
389.399	20.31
389.609	75.6
389.818	91.99
390.028	89.94
390.238	-6.31
390.447	40.79
390.657	67.41
390.867	34.64
391.076	1.88
391.286	53.08
391.496	16.21
391.705	79.7
391.915	30.55
392.125	67.41
392.334	22.36
392.544	122.71
392.753	3.93
392.963	100.18
393.172	81.75
393.382	51.03
393.591	104.28
393.801	30.55
394.01	36.69
394.22	63.32
394.429	77.65
394.639	42.84
394.848	126.8
395.058	85.84
395.267	44.88
395.477	126.8
395.686	100.18
395.895	137.04
396.105	178
396.314	65.36
396.524	83.8
396.733	30.55
396.942	53.08
397.152	89.94
397.361	122.71
397.57	67.41
397.78	79.7
397.989	71.51
398.198	102.23
398.407	32.6
398.617	110.42
398.826	79.7
399.035	14.17
399.244	94.04
399.453	63.32
399.663	100.18
399.872	71.51
400.081	91.99
400.29	200.53
400.499	98.13
400.708	75.6
400.917	118.61
401.127	169.81
401.336	51.03
401.545	100.18
401.754	40.79
401.963	171.86
402.172	38.74
402.381	110.42
402.59	89.94
402.799	126.8
403.008	87.89
403.217	116.56
403.426	48.98
403.635	104.28
403.844	223.06
404.053	192.34
404.262	112.47
404.471	188.24
404.68	167.76
404.888	155.47
405.097	118.61
405.306	137.04
405.515	100.18
405.724	223.06
405.933	190.29
406.142	196.43
406.35	218.96
406.559	206.67
406.768	124.76
406.977	214.87
407.185	227.15
407.394	204.63
407.603	270.16
407.812	202.58
408.02	290.64
408.229	196.43
408.438	235.35
408.646	223.06
408.855	249.68
409.064	292.69
409.272	194.39
409.481	304.98
409.69	233.3
409.898	165.71
410.107	393.04
410.315	321.36
410.524	278.35
410.733	282.45
410.941	397.14
411.15	440.14
411.358	347.98
411.567	393.04
411.775	374.61
411.984	440.14
412.192	360.27
412.401	427.85
412.609	474.96
412.818	507.73
413.026	454.48
413.234	579.4
413.443	444.24
413.651	558.92
413.86	513.87
414.068	642.89
414.276	622.41
414.485	677.71
414.693	741.19
414.901	681.8
415.11	669.52
415.318	708.43
415.526	812.87
415.734	778.06
415.943	806.73
416.151	747.34
416.359	794.44
416.567	890.7
416.776	900.94
416.984	1007.43
417.192	1044.29
417.4	1023.81
417.608	968.52
417.817	1107.78
418.025	1081.16
418.233	1181.51
418.441	1204.03
418.649	1216.32
418.857	1351.49
419.065	1267.52
419.273	1222.47
419.481	1310.53
419.689	1509.18
419.897	1490.75
420.105	1500.99
420.313	1582.91
420.521	1603.39
420.729	1621.82
420.937	1732.41
421.145	1826.62
421.353	1773.37
421.561	1902.39
421.769	1996.6
421.977	2123.57
422.185	1920.82
422.393	2121.52
422.601	2221.88
422.809	2223.92
423.017	2336.56
423.224	2506.54
423.432	2586.41
423.64	2494.26
423.848	2762.54
424.056	2709.29
424.263	2940.71
424.471	2877.23
424.679	2778.92
424.887	3065.64
425.094	3174.18
425.302	3266.34
425.51	3292.96
425.718	3383.07
425.925	3421.99
426.133	3503.9
426.341	3770.14
426.548	4011.8
426.756	3944.22
426.964	4042.52
427.171	4224.79
427.379	4437.78
427.586	4376.34
427.794	4456.21
428.001	4833.04
428.209	4904.71
428.417	4802.32
428.624	5197.57
428.832	5209.86
429.039	5191.43
429.247	5123.85
429.454	5793.53
429.662	6053.62
429.869	5689.09
430.076	5973.75
430.284	6051.58
430.491	6141.69
430.699	6565.62
430.906	6545.14
431.114	6479.6
431.321	6842.09
431.528	7003.88
431.736	7446.24
431.943	7745.25
432.15	7501.54
432.358	7718.62
432.565	8068.83
432.772	8048.35
432.979	8345.3
433.187	8519.38
433.394	8406.74
433.601	9150.15
433.808	9037.52
434.016	9156.3
434.223	9557.7
434.43	10086.08
434.637	9797.31
434.844	10446.52
435.052	10589.88
435.259	10518.2
435.466	10581.68
435.673	10362.55
435.88	11048.62
436.087	11802.27
436.294	11955.87
436.501	11669.16
436.708	11761.31
436.915	12256.92
437.122	12607.12
437.329	12666.52
437.537	13086.35
437.743	13473.42
437.95	12873.36
438.157	13723.27
438.364	14503.54
438.571	14315.13
438.778	14483.06
438.985	15783.52
439.192	15048.3
439.399	15517.29
439.606	15169.13
439.813	16113.25
440.02	17426
440.227	16881.24
440.433	16604.76
440.64	17354.32
440.847	16698.97
441.054	17561.16
441.261	18488.89
441.467	18353.73
441.674	18947.64
441.881	19287.6
442.088	19095.09
442.294	19201.58
442.501	19830.31
442.708	20086.31
442.914	20813.34
443.121	21636.62
443.328	21169.68
443.534	22654.46
443.741	22048.26
443.948	21487.12
444.154	23256.56
444.361	23021.05
444.568	23416.3
444.774	23174.64
444.981	23549.42
445.187	24311.27
445.394	25247.19
445.6	25064.92
445.807	27284.92
446.013	25918.92
446.22	26736.06
446.426	27461.04
446.633	27731.37
446.839	28675.49
447.046	27319.73
447.252	28919.2
447.459	28888.48
447.665	29138.33
447.871	30080.39
448.078	31087.99
448.284	30092.68
448.491	31004.03
448.697	31874.41
448.903	32402.79
449.11	32281.96
449.316	32091.5
449.522	32433.51
449.728	33332.57
449.935	33389.91
450.141	33410.39
450.347	33877.33
450.553	33424.73
450.76	33371.48
450.966	34487.62
451.172	34448.71
451.378	35122.49
451.584	34221.39
451.791	34919.74
451.997	34620.74
452.203	35446.07
452.409	35460.41
452.615	35155.26
452.821	33813.84
453.027	33473.88
453.233	35296.57
453.44	33678.68
453.646	34368.84
453.852	34151.76
454.058	35153.21
454.264	33563.99
454.47	34356.55
454.676	33316.18
454.882	34921.79
455.088	31300.98
455.294	32064.88
455.5	32550.24
455.705	32965.98
455.911	31616.37
456.117	31278.46
456.323	30592.39
456.529	28747.17
456.735	29967.76
456.941	29089.18
457.147	29072.79
457.352	27938.22
457.558	27737.52
457.764	27719.09
457.97	27211.19
458.176	26441.15
458.381	26758.59
458.587	25126.36
458.793	25290.2
458.999	23987.69
459.204	25451.98
459.41	25079.25
459.616	23197.17
459.821	23191.03
460.027	23182.84
460.233	22699.51
460.438	21552.65
460.644	21960.2
460.85	20749.85
461.055	20669.98
461.261	20479.52
461.466	18959.92
461.672	18359.87
461.878	19611.18
462.083	18538.04
462.289	18163.26
462.494	17786.44
462.7	17034.83
462.905	16746.07
463.111	16977.49
463.316	17323.6
463.522	17059.41
463.727	17178.19
463.932	16881.24
464.138	16590.42
464.343	16950.87
464.549	16404.06
464.754	16807.51
464.959	16623.19
465.165	16692.82
465.37	16090.72
465.575	15488.62
465.781	16293.47
465.986	16225.89
466.191	15545.96
466.397	15222.38
466.602	14431.87
466.807	15191.66
467.012	14968.43
467.218	15005.3
467.423	15216.24
467.628	14988.91
467.833	15455.85
468.038	14734.96
468.244	14417.53
468.449	15054.45
468.654	14509.69
468.859	14638.71
469.064	14587.51
469.269	13821.57
469.474	13936.26
469.679	14096
469.885	13899.39
470.09	13944.45
470.295	14024.32
470.5	13514.38
470.705	13686.4
470.91	13227.66
471.115	13229.71
471.32	13471.37
471.525	13383.31
471.73	13178.51
471.935	13203.08
472.139	12660.37
472.344	12582.55
472.549	12727.96
472.754	12252.83
472.959	12246.68
473.164	12002.97
473.369	11611.81
473.574	12168.86
473.778	11912.86
473.983	12041.89
474.188	11976.35
474.393	11423.4
474.598	11402.92
474.802	11048.62
475.007	11153.07
475.212	11142.83
475.417	10739.38
475.621	10895.02
475.826	10948.27
476.031	10438.33
476.235	10583.73
476.44	10634.93
476.645	10380.98
476.849	10333.88
477.054	10186.43
477.259	10313.4
477.463	10161.85
477.668	9795.26
477.872	10096.32
478.077	9686.72
478.282	9930.43
478.486	9555.65
478.691	9692.87
478.895	9584.32
479.1	9404.1
479.304	9283.27
479.509	9125.58
479.713	9336.52
479.918	9090.76
480.122	8955.6
480.326	9139.91
480.531	9219.78
480.735	8998.6
480.94	8914.64
481.144	9254.6
481.348	8701.65
481.553	8949.45
481.757	8584.91
481.961	8875.73
482.166	9090.76
482.37	8865.49
482.574	8548.05
482.778	8664.79
482.983	8961.74
483.187	8695.5
483.391	8734.42
483.595	8832.72
483.8	8672.98
484.004	8937.16
484.208	8758.99
484.412	8646.35
484.616	8619.73
484.821	8832.72
485.025	8769.23
485.229	8775.38
485.433	8740.56
485.637	8769.23
485.841	8713.94
486.045	8603.35
486.249	8658.64
486.453	8568.53
486.657	8734.42
486.861	8859.34
487.065	8537.81
487.269	8830.67
487.473	8564.43
487.677	8734.42
487.881	8849.1
488.085	8685.26
488.289	8836.81
488.493	8675.02
488.697	8634.07
488.901	8914.64
489.105	8705.74
489.309	8736.46
489.512	8883.92
489.716	8840.91
489.92	8890.06
490.124	8806.09
490.328	8935.12
490.531	8896.21
490.735	9012.94
490.939	8937.16
491.143	8969.93
491.346	8994.51
491.55	9004.75
491.754	9074.38
491.958	9273.03
492.161	9053.9
492.365	9301.7
492.569	9297.61
492.772	9303.75
492.976	9486.02
493.18	9236.17
493.383	9338.57
493.587	9471.68
493.79	9639.62
493.994	9526.98
494.197	9639.62
494.401	9602.75
494.605	9631.43
494.808	9815.74
495.012	9746.11
495.215	9971.39
495.419	9905.85
495.622	10055.36
495.825	10110.65
496.029	10219.19
496.232	10260.15
496.436	10340.02
496.639	10491.57
496.843	10464.95
497.046	10673.84
497.249	10888.88
497.453	10860.21
497.656	10921.65
497.859	10835.63
498.063	11169.45
498.266	11441.83
498.469	11364.01
498.673	11513.51
498.876	11761.31
499.079	11753.12
499.282	11654.82
499.485	12021.41
499.689	12000.93
499.892	12183.2
500.095	12258.97
500.298	12347.03
500.501	12537.49
500.705	12936.85
500.908	12633.75
501.111	12811.92
501.314	13401.74
501.517	13285
501.72	13477.51
501.923	13594.25
502.126	13713.03
502.329	13917.82
502.532	14114.43
502.735	14214.78
502.938	14284.41
503.141	14603.89
503.344	14974.58
503.547	14800.5
503.75	14982.77
503.953	15249
504.156	15312.49
504.359	15660.65
504.562	15799.91
504.765	15896.16
504.968	15973.99
505.17	16246.37
505.373	16492.12
505.576	16496.22
505.779	16823.89
505.982	16766.55
506.185	17145.42
506.387	17145.42
506.59	17409.61
506.793	17575.5
506.996	17528.39
507.198	17917.51
507.401	17976.9
507.604	18394.68
507.807	18624.06
508.009	18681.4
508.212	18910.77
508.415	19127.86
508.617	19252.78
508.82	19400.24
509.022	19256.88
509.225	19863.08
509.428	19879.46
509.63	19985.96
509.833	20244
510.035	20565.53
510.238	20516.38
510.44	20932.12
510.643	21292.56
510.845	21523.98
511.048	21282.32
511.25	21587.47
511.453	21736.97
511.655	22672.89
511.858	22392.32
512.06	22679.04
512.262	22654.46
512.465	23006.71
512.667	23440.88
512.87	23555.57
513.072	23694.83
513.274	23803.37
513.477	24280.55
513.679	24520.16
513.881	24643.04
514.084	24673.76
514.286	24612.32
514.488	25122.26
514.69	25882.06
514.893	25824.72
515.095	25771.47
515.297	26019.27
515.499	26510.78
515.701	26418.63
515.904	26824.12
516.106	26906.04
516.308	27262.39
516.51	27862.44
516.712	27870.64
516.914	28122.54
517.116	28143.02
517.318	28392.87
517.52	28640.67
517.722	28870.04
517.925	29855.12
518.127	29525.39
518.329	29941.13
518.531	29623.7
518.733	30346.63
518.935	30293.38
519.136	30533
519.338	30999.93
519.54	30930.3
519.742	31554.93
519.944	31743.34
520.146	32195.95
520.348	32429.41
520.55	32693.6
520.752	32660.83
520.954	33144.16
521.155	32894.3
521.357	33451.35
521.559	33787.22
521.761	34461
521.963	34151.76
522.164	34198.86
522.366	34295.11
522.568	35089.73
522.77	35036.48
522.971	35943.73
523.173	35355.96
523.375	35831.09
523.576	36091.18
523.778	35804.47
523.98	36431.15
524.181	36255.02
524.383	36490.54
524.584	37244.19
524.786	37053.73
524.988	37020.96
525.189	37747.99
525.391	37676.31
525.592	37932.31
525.794	38409.48
525.995	38452.49
526.197	38554.89
526.398	38794.5
526.6	39109.89
526.801	39236.86
527.003	39243.01
527.204	39392.51
527.406	39785.72
527.607	39333.12
527.808	39845.11
528.01	39388.41
528.211	39888.12
528.412	40514.8
528.614	39970.04
528.815	40367.34
529.016	40621.29
529.218	40735.98
529.419	40854.76
529.62	40760.55
529.822	40721.64
530.023	40889.57
530.224	40787.17
530.425	41139.43
530.626	40994.02
530.828	40731.88
531.029	41866.45
531.23	41436.38
531.431	41360.61
531.632	41524.44
531.833	41671.9
532.035	41473.24
532.236	41852.12
532.437	41839.83
532.638	41888.98
532.839	42050.77
533.04	42347.73
533.241	41362.65
533.442	42699.98
533.643	42097.87
533.844	42167.51
534.045	42222.8
534.246	41733.34
534.447	42589.39
534.648	42267.86
534.849	42341.58
535.05	41999.57
535.251	42106.07
535.451	41925.85
535.652	42577.1
535.853	42636.49
536.054	42790.09
536.255	42532.04
536.456	42243.28
536.657	42878.15
536.857	42241.23
537.058	42579.15
537.259	43044.04
537.46	42872.01
537.66	42446.03
537.861	42521.8
538.062	42423.5
538.263	43037.89
538.463	41837.78
538.664	42546.38
538.865	42659.02
539.065	43191.49
539.266	42380.49
539.466	43093.19
539.667	42398.93
539.868	42861.77
540.068	42560.72
540.269	42880.2
540.469	42693.83
540.67	42349.78
540.87	42538.19
541.071	42530
541.271	42597.58
541.472	42849.48
541.672	42421.45
541.873	42573
542.073	42034.39
542.274	43099.33
542.474	42695.88
542.675	42302.67
542.875	42853.58
543.075	42429.65
543.276	41954.52
543.476	42665.16
543.676	42323.15
543.877	42577.1
544.077	42939.59
544.277	42573
544.478	42370.25
544.678	42747.08
544.878	42515.66
545.078	42378.45
545.279	41833.69
545.479	42155.22
545.679	42274
545.879	42423.5
546.079	42767.56
546.28	42697.93
546.48	42261.71
546.68	42306.77
546.88	42310.86
547.08	42425.55
547.28	41868.5
547.48	42061.01
547.68	42149.07
547.88	42140.88
548.081	42560.72
548.281	42259.66
548.481	42085.59
548.681	42622.15
548.881	42327.25
549.081	42446.03
549.28	42130.64
549.48	42542.28
549.68	41979.09
549.88	42837.19
550.08	42265.81
550.28	42335.44
550.48	42267.86
550.68	42233.04
550.88	42126.55
551.08	42167.51
551.279	42345.68
551.479	41872.6
551.679	42339.54
551.879	41874.65
552.079	42304.72
552.278	41891.03
552.478	42077.4
552.678	41708.76
552.878	42292.43
553.077	41921.75
553.277	41131.23
553.477	42190.03
553.676	41815.26
553.876	41848.02
554.076	41540.83
554.275	41573.59
554.475	41895.13
554.674	41852.12
554.874	41434.33
555.074	41477.34
555.273	41733.34
555.473	41610.46
555.672	41127.14
555.872	41387.23
556.071	41327.84
556.271	41747.67
556.47	41129.19
556.67	40897.77
556.869	41241.82
557.068	41315.55
557.268	40627.43
557.467	41045.22
557.667	41102.56
557.866	40899.81
558.065	41012.45
558.265	40527.08
558.464	40447.21
558.663	41280.74
558.863	40332.53
559.062	41125.09
559.261	40492.27
559.461	40774.89
559.66	39787.77
559.859	40652.01
560.058	39798.01
560.258	40637.67
560.457	39951.6
560.656	40299.76
560.855	40131.82
561.054	40176.88
561.253	39996.66
561.453	39832.82
561.652	40109.3
561.851	39851.25
562.05	39705.85
562.249	39490.81
562.448	39769.33
562.647	39359.74
562.846	39386.36
563.045	39787.77
563.244	39040.26
563.443	39374.08
563.642	39068.93
563.841	39120.13
564.04	38733.06
564.239	38733.06
564.438	38442.25
564.637	38878.47
564.836	38780.17
565.035	38548.75
565.234	38513.93
565.432	38477.07
565.631	38063.38
565.83	38202.64
566.029	38194.45
566.228	38081.81
566.427	37893.4
566.625	37522.71
566.824	37420.31
567.023	37614.87
567.222	36967.71
567.42	37850.39
567.619	37481.75
567.818	37424.41
568.016	37514.52
568.215	37051.68
568.414	37184.8
568.612	37145.89
568.811	36764.96
569.01	37086.5
569.208	36332.84
569.407	36545.83
569.605	36257.07
569.804	36728.1
570.002	36031.79
570.201	36949.28
570.4	36031.79
570.598	36244.78
570.797	35671.35
570.995	35736.88
571.193	35896.63
571.392	35710.26
571.59	35192.12
571.789	35462.46
571.987	35431.74
572.186	35413.3
572.384	35228.99
572.582	35132.73
572.781	35429.69
572.979	34889.02
573.177	35179.84
573.376	35026.24
573.574	34651.46
573.772	34882.88
573.971	34542.92
574.169	34504.01
574.367	34262.35
574.565	34383.18
574.763	34270.54
574.962	34082.13
575.16	33746.26
575.358	34012.49
575.556	33559.89
575.754	33607
575.952	33445.21
576.151	33617.24
576.349	33008.99
576.547	33234.27
576.745	33172.83
576.943	33072.48
577.141	33054.04
577.339	33416.54
577.537	32615.78
577.735	32759.14
577.933	32613.73
578.131	32691.55
578.329	32585.06
578.527	32333.16
578.725	32068.97
578.923	32241
579.121	32218.47
579.319	32189.8
579.516	32148.84
579.714	32046.44
579.912	31808.88
580.11	31999.34
580.308	31769.97
580.506	31460.73
580.704	30936.45
580.901	31632.75
581.099	31516.02
581.297	31174.01
581.495	31182.2
581.692	31427.96
581.89	31040.89
582.088	31276.41
582.285	30625.15
582.483	31016.32
582.681	30414.21
582.878	30578.05
583.076	30018.96
583.274	30543.24
583.471	30068.11
583.669	30367.11
583.866	29957.52
584.064	30385.54
584.262	29758.86
584.459	30352.77
584.657	29846.93
584.854	29787.53
585.052	29566.35
585.249	29666.7
585.447	29558.16
585.644	29359.51
585.841	29453.72
586.039	29494.68
586.236	28900.76
586.434	29093.27
586.631	28599.71
586.828	28876.19
587.026	28841.37
587.223	28673.44
587.42	28564.9
587.618	29017.5
587.815	28431.78
588.012	28394.92
588.21	28247.46
588.407	28392.87
588.604	28214.69
588.801	27538.87
588.999	27737.52
589.196	28349.86
589.393	28044.71
589.59	27565.49
589.787	27575.73
589.984	27780.53
590.182	27467.19
590.379	27512.24
590.576	27258.29
590.773	27465.14
590.97	27415.99
591.167	26981.82
591.364	26875.32
591.561	27360.69
591.758	26875.32
591.955	27028.92
592.152	26830.27
592.349	26754.49
592.546	27006.39
592.743	26654.14
592.94	26353.09
593.137	26475.97
593.334	26275.27
593.531	26234.31
593.727	26164.68
593.924	26078.66
594.121	25992.65
594.318	26082.76
594.515	25679.31
594.712	25951.69
594.908	25310.68
595.105	25677.26
595.302	25261.52
595.499	25701.84
595.696	25312.72
595.892	25427.41
596.089	24942.04
596.286	25069.01
596.482	24819.16
596.679	24796.63
596.876	24774.11
597.072	24679.9
597.269	24761.82
597.466	24706.52
597.662	24546.78
597.859	24612.32
598.055	24520.16
598.252	24270.31
598.448	24428
598.645	24471.01
598.841	24364.51
599.038	24104.42
599.234	24167.91
599.431	23875.05
599.627	24034.79
599.824	23911.91
600.02	23490.03
600.217	24141.28
600.413	23641.58
600.609	23530.99
600.806	23318
601.002	23657.96
601.198	23250.42
601.395	23428.59
601.591	23303.67
601.787	23162.36
601.984	23188.98
602.18	23270.9
602.376	22756.86
602.572	22945.27
602.769	22695.42
602.965	22603.26
603.161	22791.67
603.357	22142.47
603.553	22312.45
603.75	22470.14
603.946	22169.09
604.142	22248.96
604.338	21765.64
604.534	22404.61
604.73	22017.54
604.926	21845.51
605.122	22193.67
605.318	22019.59
605.514	21837.32
605.71	21800.46
605.906	21696.01
606.102	21554.7
606.298	21626.38
606.494	21636.62
606.69	21458.45
606.886	21446.16
607.082	21050.9
607.278	21265.94
607.474	21214.74
607.67	21618.19
607.866	20874.77
608.062	21145.11
608.257	21192.21
608.453	21184.02
608.649	21038.61
608.845	20874.77
609.041	20719.13
609.236	21018.13
609.432	20334.11
609.628	20596.25
609.824	20506.14
610.019	20364.83
610.215	20375.07
610.411	20516.38
610.606	20221.47
610.802	20358.69
610.998	20631.07
611.193	20311.58
611.389	20164.13
611.584	20157.99
611.78	20082.21
611.976	19852.84
612.171	20088.35
612.367	20143.65
612.562	19969.57
612.758	19553.83
612.953	19455.53
613.149	19934.76
613.344	19310.13
613.539	19910.18
613.735	19869.22
613.93	19639.85
614.126	19533.36
614.321	19922.47
614.517	19340.85
614.712	19834.41
614.907	19224.11
615.103	19351.09
615.298	19197.49
615.493	19379.76
615.688	19039.79
615.884	19463.72
616.079	19072.56
616.274	19230.26
616.47	19166.77
616.665	19289.65
616.86	18835
617.055	19002.93
617.25	18943.54
617.445	19125.81
617.641	18587.19
617.836	18708.02
618.031	18574.91
618.226	18802.23
618.421	18677.3
618.616	18615.87
618.811	18097.73
619.006	18597.43
619.201	18288.19
619.396	18361.92
619.591	18024
619.786	18208.32
619.981	17882.69
620.176	18093.63
620.371	17725
620.566	18005.57
620.761	17780.29
620.956	17946.18
621.151	17540.68
621.346	17653.32
621.541	17190.48
621.735	17720.9
621.93	17290.83
622.125	17415.76
622.32	16801.36
622.515	16987.73
622.709	16911.96
622.904	16791.13
623.099	16739.93
623.294	16971.35
623.488	16725.59
623.683	16569.94
623.878	16586.33
624.072	16594.52
624.267	16389.72
624.462	16309.85
624.656	16131.68
624.851	16143.97
625.046	15691.37
625.24	16043.62
625.435	15715.94
625.629	15672.93
625.824	15515.24
626.018	15666.79
626.213	15345.26
626.407	15535.72
626.602	15126.13
626.796	15289.96
626.991	15087.22
627.185	14988.91
627.38	14982.77
627.574	14984.82
627.768	14728.82
627.963	14548.6
628.157	14460.54
628.352	14618.23
628.546	14386.81
628.74	14597.75
628.935	14126.72
629.129	14442.1
629.323	14212.73
629.517	14114.43
629.712	13981.31
629.906	13928.06
630.1	13813.38
630.294	13837.95
630.489	13852.29
630.683	13727.36
630.877	13676.16
631.071	13430.41
631.265	13547.14
631.459	13217.42
631.653	13166.22
631.848	13139.6
632.042	13141.64
632.236	13106.83
632.43	13084.3
632.624	13121.17
632.818	12975.76
633.012	12854.93
633.206	12451.48
633.4	12981.9
633.594	12537.49
633.788	12584.6
633.982	12199.58
634.176	12684.95
634.369	12289.69
634.563	12410.52
634.757	12183.2
634.951	12281.5
635.145	12097.18
635.339	12009.12
635.533	12097.18
635.726	11863.71
635.92	11980.45
636.114	11857.57
636.308	11660.96
636.501	12031.65
636.695	11521.7
636.889	11402.92
637.083	11529.89
637.276	11529.89
637.47	11404.97
637.664	11263.66
637.857	11255.47
638.051	11083.44
638.244	11214.51
638.438	11103.92
638.632	10999.47
638.825	10946.22
639.019	10847.92
639.212	10747.57
639.406	10679.99
639.599	10706.61
639.793	10714.8
639.986	10426.04
640.18	10786.48
640.373	10647.22
640.567	10337.98
640.76	10714.8
640.954	10266.3
641.147	10143.42
641.34	9930.43
641.534	10274.49
641.727	10221.24
641.92	9987.77
642.114	10055.36
642.307	9909.95
642.5	9926.33
642.694	9692.87
642.887	9811.65
643.08	9758.4
643.273	9692.87
643.467	9875.13
643.66	9547.46
643.853	9502.4
644.046	9254.6
644.239	9375.43
644.432	9305.8
644.626	9240.26
644.819	9363.14
645.012	9070.28
645.205	9221.83
645.398	9066.19
645.591	8945.36
645.784	8916.69
645.977	8849.1
646.17	8875.73
646.363	8955.6
646.556	8726.22
646.749	8783.57
646.942	8783.57
647.135	8699.6
647.328	8644.31
647.521	8574.67
647.714	8449.75
647.907	8566.48
648.099	8304.34
648.292	8662.74
648.485	8322.77
648.678	8271.58
648.871	8384.21
649.064	8148.7
649.256	8224.47
649.449	8105.69
649.642	7982.81
649.835	7945.95
650.027	7945.95
650.22	7984.86
650.413	7827.17
650.605	7829.21
650.798	7767.77
650.991	7753.44
651.183	7616.23
651.376	7694.05
651.568	7706.34
651.761	7575.27
651.954	7538.4
652.146	7661.28
652.339	7491.3
652.531	7319.27
652.724	7372.52
652.916	7186.15
653.109	7339.75
653.301	7317.22
653.494	7331.56
653.686	7325.41
653.879	7288.55
654.071	7120.62
654.263	7034.6
654.456	7104.23
654.648	7112.42
654.84	7065.32
655.033	6858.48
655.225	7014.12
655.417	6928.11
655.61	7022.31
655.802	6852.33
655.994	6811.37
656.186	6821.61
656.379	6702.83
656.571	6680.3
656.763	6606.58
656.955	6586.1
657.148	6594.29
657.34	6588.14
657.532	6379.25
657.724	6450.93
657.916	6516.47
658.108	6383.35
658.3	6250.23
658.492	6289.14
658.684	6399.73
658.876	6053.62
659.068	6309.62
659.26	6209.27
659.452	6186.74
659.644	6178.55
659.836	6178.55
660.028	6080.25
660.22	5973.75
660.412	6047.48
660.604	6227.7
660.796	6063.86
660.988	6129.4
661.18	5945.08
661.372	5959.42
661.563	5883.64
661.755	5902.08
661.947	5848.83
662.139	5715.71
662.331	5701.37
662.522	5781.25
662.714	5707.52
662.906	5646.08
663.097	5670.65
663.289	5572.35
663.481	5478.15
663.673	5609.22
663.864	5512.96
664.056	5496.58
664.247	5410.56
664.439	5431.04
664.631	5449.47
664.822	5414.66
665.014	5334.79
665.205	5371.65
665.397	5441.28
665.588	5289.73
665.78	5261.06
665.971	5277.44
666.163	5211.91
666.354	5375.75
666.546	5349.12
666.737	5238.53
666.929	5123.85
667.12	5201.67
667.311	4984.59
667.503	5017.35
667.694	5097.22
667.885	4941.58
668.077	5062.41
668.268	4861.71
668.459	5003.02
668.651	4978.44
668.842	5035.78
669.033	4867.85
669.224	4873.99
669.416	5089.03
669.607	4945.67
669.798	4855.56
669.989	4835.08
670.18	4812.56
670.371	4865.8
670.563	4687.63
670.754	4663.05
670.945	4888.33
671.136	4810.51
671.327	4722.45
671.518	4714.25
671.709	4704.01
671.9	4826.89
672.091	4605.71
672.282	4517.65
672.473	4570.9
672.664	4589.33
672.855	4708.11
673.046	4695.82
673.237	4536.08
673.428	4572.94
673.619	4751.12
673.809	4407.06
674	4570.9
674.191	4448.02
674.382	4497.17
674.573	4558.61
674.764	4417.3
674.954	4452.11
675.145	4325.14
675.336	4376.34
675.527	4249.36
675.717	4470.55
675.908	4337.43
676.099	4325.14
676.289	4247.32
676.48	4366.1
676.671	4368.15
676.861	4245.27
677.052	4319
677.243	4351.76
677.433	4296.47
677.624	4294.42
677.814	4278.04
678.005	4275.99
678.195	4237.08
678.386	4251.41
678.576	4251.41
678.767	4218.64
678.957	4310.8
679.148	4065.05
679.338	4290.32
679.529	4378.39
679.719	4040.47
679.909	4269.84
680.1	4138.77
680.29	4171.54
680.481	4232.98
680.671	4228.88
680.861	4235.03
681.052	4136.73
681.242	4144.92
681.432	4241.17
681.622	3991.32
681.813	4056.86
682.003	4114.2
682.193	4044.57
682.383	4091.67
682.573	4185.88
682.764	4044.57
682.954	4130.58
683.144	4183.83
683.334	4130.58
683.524	4046.62
683.714	4015.9
683.904	4056.86
684.094	4044.57
684.284	4138.77
684.474	4069.14
684.664	3997.46
684.854	4071.19
685.044	3974.94
685.234	3917.59
685.424	4136.73
685.614	3942.17
685.804	3944.22
685.994	4056.86
686.184	3901.21
686.374	3852.06
686.564	3919.64
686.753	3893.02
686.943	3800.86
687.133	3921.69
687.323	3964.7
687.513	3999.51
687.702	3878.68
687.892	3761.95
688.082	3735.32
688.272	3860.25
688.461	3723.04
688.651	3696.41
688.841	3688.22
689.03	3774.24
689.22	3792.67
689.41	3739.42
689.599	3723.04
689.789	3661.6
689.979	3643.17
690.168	3680.03
690.358	3596.06
690.547	3655.45
690.737	3598.11
690.926	3647.26
691.116	3495.71
691.305	3641.12
691.495	3491.62
691.684	3477.28
691.874	3385.12
692.063	3594.01
692.252	3548.96
692.442	3542.82
692.631	3417.89
692.82	3401.51
693.01	3315.49
693.199	3376.93
693.388	3450.66
693.578	3323.68
693.767	3491.62
693.956	3374.88
694.146	3356.45
694.335	3319.59
694.524	3340.07
694.713	3417.89
694.902	3319.59
695.092	3338.02
695.281	3303.2
695.47	3370.79
695.659	3342.11
695.848	3295.01
696.037	3368.74
696.226	3188.52
696.415	3252
696.604	3311.39
696.793	3245.86
696.982	3245.86
697.171	3378.98
697.36	3229.48
697.549	3295.01
697.738	3163.94
697.927	3252
698.116	3110.69
698.305	3168.04
698.494	3231.52
698.683	3163.94
698.872	3163.94
699.061	3286.82
699.25	3182.37
699.438	3278.63
699.627	3219.24
699.816	3180.32
700.005	3243.81
700.193	3180.32
700.382	3219.24
700.571	3256.1
700.76	3237.67
700.948	3184.42
701.137	3252
701.326	3252
701.514	3161.89
701.703	3315.49
701.892	3114.79
702.08	3227.43
702.269	3145.51
702.457	3006.25
702.646	3184.42
702.834	3180.32
703.023	3153.7
703.212	3094.31
703.4	3178.28
703.589	3196.71
703.777	3217.19
703.965	3047.21
704.154	3327.78
704.342	3215.14
704.531	3192.61
704.719	3079.97
704.907	3286.82
705.096	3020.58
705.284	3135.27
705.472	3084.07
705.661	3055.4
705.849	3241.76
706.037	3249.96
706.226	3178.28
706.414	3180.32
706.602	3086.12
706.79	3327.78
706.979	3071.78
707.167	3192.61
707.355	3200.8
707.543	3225.38
707.731	3168.04
707.919	3264.29
708.107	3079.97
708.296	3122.98
708.484	3116.84
708.672	3196.71
708.86	3188.52
709.048	3157.8
709.236	3233.57
709.424	3184.42
709.612	3172.13
709.8	3196.71
709.988	3202.85
710.176	3262.24
710.364	3161.89
710.551	3100.45
710.739	3174.18
710.927	3235.62
711.115	3151.65
711.303	3249.96
711.491	3219.24
711.679	3333.92
711.866	3135.27
712.054	3229.48
712.242	3239.72
712.43	3254.05
712.617	3141.41
712.805	3245.86
712.993	3129.13
713.181	3159.85
713.368	3108.65
713.556	3266.34
713.744	3120.93
713.931	3364.64
714.119	3307.3
714.306	3350.31
714.494	3276.58
714.682	3307.3
714.869	3356.45
715.057	3188.52
715.244	3106.6
715.432	3311.39
715.619	3340.07
715.807	3340.07
715.994	3235.62
716.182	3221.28
716.369	3149.61
716.556	3172.13
716.744	3219.24
716.931	3233.57
717.119	3223.33
717.306	3223.33
717.493	3235.62
717.681	3352.35
717.868	3358.5
718.055	3249.96
718.242	3223.33
718.43	3284.77
718.617	3270.44
718.804	3202.85
718.991	3301.15
719.179	3397.41
719.366	3229.48
719.553	3368.74
719.74	3295.01
719.927	3278.63
720.114	3323.68
720.301	3192.61
720.488	3260.2
720.676	3258.15
720.863	3204.9
721.05	3256.1
721.237	3249.96
721.424	3229.48
721.611	3165.99
721.798	3090.21
721.985	3202.85
722.172	3143.46
722.358	3266.34
722.545	3249.96
722.732	3225.38
722.919	3372.83
723.106	3264.29
723.293	3211.04
723.48	3237.67
723.667	3237.67
723.853	3292.96
724.04	3237.67
724.227	3217.19
724.414	3221.28
724.6	3301.15
724.787	3206.95
724.974	3168.04
725.161	3190.56
725.347	3077.93
725.534	3227.43
725.72	3112.74
725.907	3141.41
726.094	3139.37
726.28	3204.9
726.467	3237.67
726.653	3157.8
726.84	3288.87
727.027	3368.74
727.213	3241.76
727.4	3188.52
727.586	3233.57
727.773	3127.08
727.959	3243.81
728.145	3182.37
728.332	3213.09
728.518	3301.15
728.705	3221.28
728.891	3127.08
729.077	3131.17
729.264	3163.94
729.45	3096.36
729.636	3215.14
729.823	3184.42
730.009	3039.01
730.195	3067.69
730.382	3161.89
730.568	3069.73
730.754	3143.46
730.94	3176.23
731.126	3143.46
731.313	3094.31
731.499	3184.42
731.685	3151.65
731.871	3030.82
732.057	3227.43
732.243	3116.84
732.429	3155.75
732.615	3075.88
732.801	3096.36
732.987	3135.27
733.173	3159.85
733.359	3305.25
733.545	3192.61
733.731	3133.22
733.917	3125.03
734.103	3153.7
734.289	3102.5
734.475	3041.06
734.661	3151.65
734.847	3112.74
735.033	2987.82
735.219	3176.23
735.404	3045.16
735.59	3174.18
735.776	3118.89
735.962	3184.42
736.148	3131.17
736.333	3030.82
736.519	3153.7
736.705	3075.88
736.89	3020.58
737.076	3100.45
737.262	3018.54
737.447	3045.16
737.633	2948.9
737.819	2926.38
738.004	2979.62
738.19	3073.83
738.375	2887.47
738.561	3016.49
738.747	3077.93
738.932	3004.2
739.118	3104.55
739.303	3030.82
739.489	2989.86
739.674	2946.86
739.859	2848.55
740.045	2905.9
740.23	2944.81
740.416	2918.18
740.601	2873.13
740.786	3045.16
740.972	2946.86
741.157	2946.86
741.342	2869.03
741.528	2930.47
741.713	2893.61
741.898	2948.9
742.084	2705.2
742.269	2895.66
742.454	2801.45
742.639	2780.97
742.824	2709.29
743.01	2778.92
743.195	2858.79
743.38	2721.58
743.565	2803.5
743.75	2715.44
743.935	2641.71
744.12	2705.2
744.305	2697
744.49	2590.51
744.675	2664.24
744.86	2567.98
745.045	2627.37
745.23	2582.32
745.415	2570.03
745.6	2594.61
745.785	2551.6
745.97	2619.18
746.155	2451.25
746.34	2492.21
746.525	2545.45
746.71	2438.96
746.895	2524.97
747.079	2244.4
747.264	2518.83
747.449	2539.31
747.634	2490.16
747.819	2369.33
748.003	2367.28
748.188	2414.38
748.373	2496.3
748.557	2404.14
748.742	2373.43
748.927	2234.16
749.111	2246.45
749.296	2236.21
749.481	2340.66
749.665	2375.47
749.85	2182.96
750.034	2314.03
750.219	2199.35
750.404	2182.96
750.588	2238.26
750.773	2092.85
750.957	2221.88
751.141	2103.09
751.326	2129.72
751.51	2053.94
751.695	2082.61
751.879	2156.34
752.064	2025.27
752.248	2199.35
752.432	2101.05
752.617	2139.96
752.801	2025.27
752.985	1933.11
753.17	2033.46
753.354	2070.33
753.538	1972.02
753.722	1959.74
753.907	1802.04
754.091	1963.83
754.275	2008.89
754.459	1812.28
754.643	1793.85
754.828	1773.37
755.012	1849.15
755.196	1787.71
755.38	1724.22
755.564	1783.61
755.748	1728.31
755.932	1793.85
756.116	1722.17
756.3	1756.99
756.484	1642.3
756.668	1689.4
756.852	1681.21
757.036	1732.41
757.22	1611.58
757.404	1785.66
757.588	1601.34
757.772	1673.02
757.956	1609.53
758.14	1613.63
758.323	1550.14
758.507	1613.63
758.691	1658.68
758.875	1666.88
759.059	1625.92
759.242	1537.85
759.426	1537.85
759.61	1535.81
759.794	1470.27
759.977	1558.33
760.161	1660.73
760.345	1515.33
760.528	1474.37
760.712	1576.77
760.895	1417.02
761.079	1599.29
761.263	1433.41
761.446	1369.92
761.63	1351.49
761.813	1402.69
761.997	1478.46
762.18	1390.4
762.364	1345.34
762.547	1392.45
762.731	1390.4
762.914	1390.4
763.098	1431.36
763.281	1390.4
763.464	1414.98
763.648	1283.91
763.831	1374.02
764.015	1300.29
764.198	1390.4
764.381	1300.29
764.564	1308.48
764.748	1320.77
764.931	1312.58
765.114	1322.82
765.297	1296.19
765.481	1228.61
765.664	1269.57
765.847	1304.39
766.03	1376.06
766.213	1310.53
766.397	1242.95
766.58	1285.95
766.763	1189.7
766.946	1181.51
767.129	1206.08
767.312	1240.9
767.495	1318.72
767.678	1099.59
767.861	1201.99
768.044	1210.18
768.227	1222.47
768.41	1179.46
768.593	1228.61
768.776	1195.84
768.959	1148.74
769.142	1187.65
769.324	1138.5
769.507	1058.63
769.69	1068.87
769.873	1169.22
770.056	1210.18
770.239	1152.84
770.421	1099.59
770.604	1081.16
770.787	1107.78
770.97	1183.56
771.152	1042.25
771.335	1120.07
771.518	993.09
771.7	1052.49
771.883	1081.16
772.066	1050.44
772.248	982.85
772.431	1113.92
772.613	1021.77
772.796	1007.43
772.978	1009.48
773.161	1017.67
773.343	980.81
773.526	976.71
773.708	970.57
773.891	989
774.073	1070.92
774.256	915.27
774.438	1066.82
774.621	1011.53
774.803	1040.2
774.985	933.7
775.168	933.7
775.35	868.17
775.532	962.37
775.715	939.85
775.897	876.36
776.079	909.13
776.261	962.37
776.444	902.98
776.626	788.3
776.808	819.02
776.99	888.65
777.173	839.5
777.355	821.06
777.537	786.25
777.719	911.18
777.901	819.02
778.083	825.16
778.265	786.25
778.447	804.68
778.629	878.41
778.811	698.19
778.993	769.87
779.175	767.82
779.357	837.45
779.539	735.05
779.721	778.06
779.903	685.9
780.085	741.19
780.267	745.29
780.449	667.47
780.631	726.86
780.812	792.39
780.994	724.81
781.176	704.33
781.358	698.19
781.54	683.85
781.721	696.14
781.903	720.71
782.085	661.32
782.267	730.95
782.448	565.07
782.63	714.57
782.812	663.37
782.993	603.98
783.175	706.38
783.357	681.8
783.538	620.36
783.72	612.17
783.901	577.36
784.083	573.26
784.264	558.92
784.446	575.31
784.627	612.17
784.809	640.84
784.99	603.98
785.172	612.17
785.353	665.42
785.535	526.16
785.716	509.77
785.897	558.92
786.079	571.21
786.26	544.59
786.441	610.12
786.623	550.73
786.804	571.21
786.985	464.72
787.167	632.65
787.348	499.53
787.529	431.95
787.71	534.35
787.891	511.82
788.073	425.81
788.254	493.39
788.435	513.87
788.616	501.58
788.797	429.9
788.978	456.53
789.159	458.57
789.34	501.58
789.522	540.49
789.703	425.81
789.884	503.63
790.065	522.06
790.246	499.53
790.427	438.09
790.607	436.05
790.788	354.13
790.969	415.57
791.15	448.33
791.331	468.81
791.512	395.09
791.693	403.28
791.874	503.63
792.054	442.19
792.235	358.22
792.416	423.76
792.597	390.99
792.778	409.42
792.958	358.22
793.139	399.18
793.32	448.33
793.5	405.33
793.681	477.01
793.862	370.51
794.042	393.04
794.223	386.9
794.404	360.27
794.584	409.42
794.765	317.26
794.945	409.42
795.126	378.7
795.306	372.56
795.487	411.47
795.667	382.8
795.848	378.7
796.028	393.04
796.209	390.99
796.389	323.41
796.57	352.08
796.75	311.12
796.93	325.46
797.111	276.31
797.291	309.07
797.471	292.69
797.652	337.74
797.832	354.13
798.012	347.98
798.192	268.11
798.373	350.03
798.553	237.39
798.733	360.27
798.913	296.78
799.093	337.74
799.274	317.26
799.454	284.5
799.634	327.5
799.814	268.11
799.994	296.78
800.174	331.6
800.354	282.45
800.534	304.98
800.714	419.66
800.894	288.59
801.074	335.7
801.254	321.36
801.434	311.12
801.614	227.15
801.794	304.98
801.974	849.74
802.154	231.25
802.334	380.75
802.514	245.59
802.693	298.83
802.873	313.17
803.053	264.02
803.233	261.97
803.413	251.73
803.592	239.44
803.772	341.84
803.952	204.63
804.131	255.83
804.311	268.11
804.491	331.6
804.67	264.02
804.85	245.59
805.03	270.16
805.209	247.63
805.389	247.63
805.568	255.83
805.748	278.35
805.928	313.17
806.107	286.54
806.287	259.92
806.466	276.31
806.646	239.44
806.825	255.83
807.004	180.05
807.184	245.59
807.363	302.93
807.543	149.33
807.722	206.67
807.901	276.31
808.081	280.4
808.26	190.29
808.439	255.83
808.619	237.39
808.798	274.26
808.977	218.96
809.156	235.35
809.336	280.4
809.515	298.83
809.694	235.35
809.873	182.1
810.052	145.24
810.231	247.63
810.411	237.39
810.59	288.59
810.769	241.49
810.948	165.71
811.127	132.95
811.306	206.67
811.485	186.19
811.664	247.63
811.843	208.72
812.022	218.96
812.201	163.67
812.38	257.87
812.559	149.33
812.737	94.04
812.916	126.8
813.095	155.47
813.274	130.9
813.453	169.81
813.632	89.94
813.811	194.39
813.989	153.43
814.168	167.76
814.347	182.1
814.526	208.72
814.704	221.01
814.883	229.2
815.062	132.95
815.24	212.82
815.419	98.13
815.598	231.25
815.776	247.63
815.955	196.43
816.133	155.47
816.312	137.04
816.49	141.14
816.669	227.15
816.847	198.48
817.026	147.28
817.204	114.52
817.383	155.47
817.561	171.86
817.74	61.27
817.918	182.1
818.097	124.76
818.275	159.57
818.453	194.39
818.632	79.7
818.81	139.09
818.988	165.71
819.167	182.1
819.345	231.25
819.523	159.57
819.701	151.38
819.879	159.57
820.058	165.71
820.236	169.81
820.414	139.09
820.592	159.57
820.77	98.13
820.948	100.18
821.127	108.37
821.305	135
821.483	124.76
821.661	218.96
821.839	178
822.017	173.91
822.195	157.52
822.373	188.24
822.551	145.24
822.729	155.47
822.907	157.52
823.085	114.52
823.262	132.95
823.44	100.18
823.618	155.47
823.796	112.47
823.974	157.52
824.152	59.22
824.329	141.14
824.507	165.71
824.685	208.72
824.863	118.61
825.04	130.9
825.218	55.12
825.396	198.48
825.574	100.18
825.751	116.56
825.929	155.47
826.107	48.98
826.284	159.57
826.462	173.91
826.639	85.84
826.817	24.4
826.994	143.19
827.172	34.64
827.349	130.9
827.527	104.28
827.704	153.43
827.882	141.14
828.059	104.28
828.237	73.56
828.414	153.43
828.591	38.74
828.769	79.7
828.946	114.52
829.124	141.14
829.301	108.37
829.478	79.7
829.655	98.13
829.833	104.28
830.01	22.36
830.187	145.24
830.364	38.74
830.542	83.8
830.719	98.13
830.896	106.32
831.073	87.89
831.25	149.33
831.427	130.9
831.604	155.47
831.782	83.8
831.959	135
832.136	132.95
832.313	98.13
832.49	59.22
832.667	100.18
832.844	48.98
833.021	147.28
833.198	85.84
833.374	106.32
833.551	100.18
833.728	122.71
833.905	91.99
834.082	3.93
834.259	116.56
834.436	108.37
834.612	75.6
834.789	132.95
834.966	67.41
835.143	26.45
835.319	1.88
835.496	34.64
835.673	167.76
835.85	30.55
836.026	102.23
836.203	83.8
836.38	30.55
836.556	51.03
836.733	34.64
836.909	110.42
837.086	73.56
837.262	42.84
837.439	44.88
837.616	59.22
837.792	102.23
837.968	57.17
838.145	12.12
838.321	114.52
838.498	71.51
838.674	122.71
838.851	108.37
839.027	149.33
839.203	-18.6
839.38	137.04
839.556	48.98
839.732	132.95
839.909	114.52
840.085	116.56
840.261	42.84
840.437	85.84
840.614	89.94
840.79	61.27
840.966	24.4
841.142	55.12
841.318	91.99
841.494	34.64
841.671	51.03
841.847	32.6
842.023	75.6
842.199	51.03
842.375	57.17
842.551	30.55
842.727	96.08
842.903	83.8
843.079	89.94
843.255	91.99
843.431	-6.31
843.607	71.51
843.783	-14.51
843.959	100.18
844.134	51.03
844.31	16.21
844.486	57.17
844.662	83.8
844.838	12.12
845.013	104.28
845.189	3.93
845.365	71.51
845.541	94.04
845.716	73.56
845.892	114.52
846.068	63.32
846.244	53.08
846.419	122.71
846.595	18.26
846.77	28.5
846.946	30.55
847.122	42.84
847.297	26.45
847.473	83.8
847.648	67.41
847.824	46.93
847.999	53.08
848.175	1.88
848.35	40.79
848.526	71.51
848.701	51.03
848.876	67.41
849.052	38.74
849.227	18.26
849.403	59.22
849.578	34.64
849.753	75.6
849.929	42.84
850.104	-55.47
850.279	75.6
850.454	71.51
850.63	71.51
850.805	38.74
850.98	87.89
851.155	100.18
851.33	42.84
851.505	-55.47
851.681	48.98
851.856	63.32
852.031	36.69
852.206	14.17
852.381	51.03
852.556	-0.17
852.731	12.12
852.906	57.17
853.081	44.88
853.256	100.18
853.431	75.6
853.606	8.02
853.781	67.41
853.956	-41.13
854.131	-22.7
854.305	79.7
854.48	59.22
854.655	53.08
854.83	57.17
855.005	57.17
855.18	24.4
855.354	69.46
855.529	3.93
855.704	34.64
855.879	57.17
856.053	20.31
856.228	20.31
856.403	-84.14
856.577	89.94
856.752	-22.7
856.926	-16.55
857.101	26.45
857.276	63.32
857.45	96.08
857.625	91.99
857.799	38.74
857.974	34.64
858.148	18.26
858.323	79.7
858.497	28.5
858.672	14.17
858.846	-98.47
859.02	42.84
859.195	-32.94
859.369	38.74
859.543	42.84
859.718	-4.27
859.892	10.07
860.066	34.64
860.241	32.6
860.415	-55.47
860.589	-6.31
860.763	100.18
860.938	5.97
861.112	106.32
861.286	-0.17
861.46	-26.79
861.634	87.89
861.808	40.79
861.982	28.5
862.157	10.07
862.331	26.45
862.505	12.12
862.679	-8.36
862.853	48.98
863.027	5.97
863.201	96.08
863.375	-10.41
863.549	26.45
863.722	-6.31
863.896	5.97
864.07	14.17
864.244	89.94
864.418	-18.6
864.592	65.36
864.766	-75.95
864.939	-12.46
865.113	10.07
865.287	46.93
865.461	-39.08
865.634	5.97
865.808	57.17
865.982	38.74
866.156	-8.36
866.329	-30.89
866.503	87.89
866.676	67.41
866.85	28.5
867.024	40.79
867.197	14.17
867.371	5.97
867.544	65.36
867.718	10.07
867.891	53.08
868.065	48.98
868.238	-12.46
868.412	-22.7
868.585	-34.99
868.759	26.45
868.932	-10.41
869.105	-73.9
869.279	87.89
869.452	14.17
869.625	-14.51
869.799	18.26
869.972	-16.55
870.145	30.55
870.319	71.51
870.492	42.84
870.665	59.22
870.838	100.18
871.011	-24.75
871.185	-16.55
871.358	-63.66
871.531	51.03
871.704	8.02
871.877	32.6
872.05	-47.27
872.223	12.12
872.396	73.56
872.569	36.69
872.742	-26.79
872.915	-96.43
873.088	-47.27
873.261	-10.41
873.434	-10.41
873.607	-0.17
873.78	71.51
873.953	-55.47
874.126	36.69
874.299	-26.79
874.471	-39.08
874.644	-0.17
874.817	26.45
874.99	53.08
875.163	-6.31
875.335	22.36
875.508	14.17
875.681	-18.6
875.853	53.08
876.026	-14.51
876.199	12.12
876.371	-43.18
876.544	83.8
876.717	-30.89
876.889	5.97
877.062	46.93
877.234	-63.66
877.407	81.75
877.579	16.21
877.752	38.74
877.924	10.07
878.097	141.14
878.269	44.88
878.442	73.56
878.614	28.5
878.786	-20.65
878.959	-41.13
879.131	-14.51
879.303	-14.51
879.476	8.02
879.648	34.64
879.82	-14.51
879.993	48.98
880.165	40.79
880.337	-2.22
880.509	-34.99
880.681	-12.46
880.854	-49.32
881.026	77.65
881.198	26.45
881.37	110.42
881.542	18.26
881.714	-98.47
881.886	14.17
882.058	18.26
882.23	-30.89
882.402	91.99
882.574	73.56
882.746	-6.31
882.918	-0.17
883.09	12.12
883.262	-43.18
883.434	61.27
883.606	24.4
883.778	26.45
883.95	87.89
884.122	-55.47
884.293	-10.41
884.465	3.93
884.637	57.17
884.809	24.4
884.98	12.12
885.152	-16.55
885.324	-22.7
885.496	-92.33
885.667	22.36
885.839	-12.46
886.011	63.32
886.182	-41.13
886.354	63.32
886.525	-0.17
886.697	3.93
886.869	59.22
887.04	-4.27
887.212	-0.17
887.383	116.56
887.555	46.93
887.726	48.98
887.897	-16.55
888.069	22.36
888.24	51.03
888.412	1.88
888.583	-47.27
888.754	-34.99
888.926	-45.23
889.097	48.98
889.268	30.55
889.44	-10.41
889.611	-14.51
889.782	-55.47
889.953	28.5
890.125	30.55
890.296	-2.22
890.467	-37.03
890.638	1.88
890.809	-2.22
890.98	32.6
891.151	-34.99
891.323	24.4
891.494	112.47
891.665	48.98
891.836	22.36
892.007	-84.14
892.178	20.31
892.349	46.93
892.52	-116.9
892.691	-14.51
892.862	-24.75
893.032	-39.08
893.203	10.07
893.374	61.27
893.545	-86.19
893.716	-24.75
893.887	59.22
894.057	-41.13
894.228	-10.41
894.399	26.45
894.57	-22.7
894.74	-0.17
894.911	-2.22
895.082	1.88
895.253	10.07
895.423	8.02
895.594	34.64
895.764	75.6
895.935	-22.7
896.106	32.6
896.276	-28.84
896.447	42.84
896.617	24.4
896.788	-32.94
896.958	53.08
897.129	-6.31
897.299	-69.8
897.47	38.74
897.64	75.6
897.81	-63.66
897.981	-12.46
898.151	-59.56
898.322	55.12
898.492	30.55
898.662	-43.18
898.832	-30.89
899.003	24.4
899.173	-6.31
899.343	30.55
899.513	-16.55
