Data from USB4F104151__197__10-29-31-086.txt Node

Date: Wed Mar 12 10:29:31 EDT 2025
User: louis
Spectrometer: USB4F10415
Trigger mode: 4
Integration Time (sec): 3.000000E-2
Scans to average: 1
Electric dark correction enabled: true
Nonlinearity correction enabled: false
Boxcar width: 0
XAxis mode: Wavelengths
Number of Pixels in Spectrum: 3648
>>>>>Begin Spectral Data<<<<<
178.204	-69.12
178.424	-69.12
178.644	-69.12
178.864	-44.54
179.084	-118.27
179.304	37.38
179.524	-56.83
179.744	-9.73
179.964	41.47
180.184	27.14
180.404	16.9
180.624	25.09
180.844	20.99
181.064	-79.36
181.283	8.7
181.503	-19.97
181.723	-11.78
181.943	-67.07
182.163	14.85
182.383	70.14
182.602	18.94
182.822	55.81
183.042	41.47
183.262	41.47
183.482	-26.11
183.701	-26.11
183.921	55.81
184.141	-17.92
184.361	57.86
184.58	12.8
184.8	-3.58
185.02	37.38
185.239	86.53
185.459	-22.02
185.679	49.66
185.898	-11.78
186.118	61.95
186.338	-15.87
186.557	84.48
186.777	12.8
186.997	-114.17
187.216	33.28
187.436	66.05
187.655	88.57
187.875	94.72
188.095	-15.87
188.314	76.29
188.534	82.43
188.753	-56.83
188.973	107.01
189.192	23.04
189.412	16.9
189.631	-22.02
189.851	23.04
190.07	14.85
190.29	29.18
190.509	80.38
190.729	135.68
190.948	102.91
191.168	139.77
191.387	41.47
191.607	-26.11
191.826	35.33
192.045	16.9
192.265	-17.92
192.484	-15.87
192.704	6.66
192.923	12.8
193.142	143.87
193.362	57.86
193.581	20.99
193.8	14.85
194.02	92.67
194.239	-42.5
194.458	12.8
194.678	-34.3
194.897	41.47
195.116	33.28
195.335	35.33
195.555	-5.63
195.774	61.95
195.993	61.95
196.212	4.61
196.432	2.56
196.651	6.66
196.87	0.51
197.089	66.05
197.308	86.53
197.528	107.01
197.747	-32.26
197.966	-13.82
198.185	82.43
198.404	55.81
198.623	45.57
198.842	20.99
199.062	55.81
199.281	12.8
199.5	4.61
199.719	86.53
199.938	-69.12
200.157	61.95
200.376	86.53
200.595	61.95
200.814	29.18
201.033	-50.69
201.252	33.28
201.471	-22.02
201.69	-9.73
201.909	12.8
202.128	37.38
202.347	45.57
202.566	31.23
202.785	18.94
203.004	-36.35
203.223	168.45
203.442	4.61
203.661	-3.58
203.879	37.38
204.098	76.29
204.317	45.57
204.536	27.14
204.755	8.7
204.974	53.76
205.193	84.48
205.411	131.58
205.63	72.19
205.849	51.71
206.068	33.28
206.287	-13.82
206.505	57.86
206.724	43.52
206.943	43.52
207.162	0.51
207.381	39.42
207.599	78.33
207.818	-34.3
208.037	0.51
208.255	90.62
208.474	51.71
208.693	41.47
208.911	29.18
209.13	-5.63
209.349	55.81
209.567	-26.11
209.786	131.58
210.005	18.94
210.223	-56.83
210.442	4.61
210.661	129.53
210.879	-15.87
211.098	6.66
211.316	27.14
211.535	16.9
211.753	43.52
211.972	-11.78
212.191	12.8
212.409	-19.97
212.628	94.72
212.846	-28.16
213.065	117.25
213.283	8.7
213.502	25.09
213.72	51.71
213.938	66.05
214.157	53.76
214.375	4.61
214.594	41.47
214.812	12.8
215.031	84.48
215.249	20.99
215.467	12.8
215.686	74.24
215.904	68.09
216.122	37.38
216.341	20.99
216.559	-42.5
216.778	66.05
216.996	53.76
217.214	4.61
217.432	72.19
217.651	4.61
217.869	25.09
218.087	76.29
218.306	29.18
218.524	84.48
218.742	4.61
218.96	33.28
219.179	-24.06
219.397	35.33
219.615	82.43
219.833	64
220.051	43.52
220.27	86.53
220.488	82.43
220.706	2.56
220.924	0.51
221.142	18.94
221.36	41.47
221.578	78.33
221.796	4.61
222.015	33.28
222.233	12.8
222.451	82.43
222.669	6.66
222.887	98.81
223.105	-5.63
223.323	-5.63
223.541	53.76
223.759	18.94
223.977	37.38
224.195	92.67
224.413	2.56
224.631	35.33
224.849	12.8
225.067	35.33
225.285	20.99
225.503	107.01
225.721	25.09
225.939	-3.58
226.157	61.95
226.375	127.49
226.592	-48.64
226.81	70.14
227.028	61.95
227.246	51.71
227.464	-9.73
227.682	20.99
227.9	80.38
228.117	53.76
228.335	10.75
228.553	84.48
228.771	6.66
228.989	57.86
229.206	70.14
229.424	6.66
229.642	-1.54
229.86	12.8
230.077	96.77
230.295	41.47
230.513	45.57
230.731	94.72
230.948	4.61
231.166	100.86
231.384	23.04
231.601	16.9
231.819	66.05
232.037	86.53
232.254	10.75
232.472	45.57
232.689	-3.58
232.907	47.62
233.125	2.56
233.342	-40.45
233.56	-44.54
233.777	-1.54
233.995	-24.06
234.213	57.86
234.43	33.28
234.648	96.77
234.865	12.8
235.083	12.8
235.3	12.8
235.518	64
235.735	51.71
235.953	33.28
236.17	27.14
236.388	-7.68
236.605	-17.92
236.822	61.95
237.04	102.91
237.257	20.99
237.475	-40.45
237.692	123.39
237.909	102.91
238.127	-24.06
238.344	16.9
238.562	20.99
238.779	33.28
238.996	-36.35
239.214	74.24
239.431	39.42
239.648	57.86
239.865	45.57
240.083	61.95
240.3	2.56
240.517	12.8
240.735	27.14
240.952	20.99
241.169	16.9
241.386	43.52
241.603	-46.59
241.821	-7.68
242.038	47.62
242.255	61.95
242.472	31.23
242.689	4.61
242.907	55.81
243.124	-19.97
243.341	37.38
243.558	-30.21
243.775	12.8
243.992	31.23
244.209	18.94
244.426	57.86
244.643	16.9
244.86	41.47
245.078	82.43
245.295	4.61
245.512	6.66
245.729	29.18
245.946	109.05
246.163	35.33
246.38	16.9
246.597	102.91
246.814	94.72
247.031	27.14
247.248	-7.68
247.464	37.38
247.681	37.38
247.898	39.42
248.115	-1.54
248.332	20.99
248.549	51.71
248.766	53.76
248.983	2.56
249.2	35.33
249.417	12.8
249.633	31.23
249.85	96.77
250.067	6.66
250.284	35.33
250.501	96.77
250.717	45.57
250.934	20.99
251.151	-36.35
251.368	107.01
251.585	107.01
251.801	55.81
252.018	23.04
252.235	35.33
252.451	-13.82
252.668	25.09
252.885	-17.92
253.102	23.04
253.318	109.05
253.535	20.99
253.752	16.9
253.968	-67.07
254.185	-13.82
254.401	45.57
254.618	27.14
254.835	37.38
255.051	82.43
255.268	76.29
255.484	-3.58
255.701	8.7
255.917	109.05
256.134	39.42
256.351	88.57
256.567	47.62
256.784	76.29
257	-19.97
257.217	16.9
257.433	23.04
257.65	53.76
257.866	16.9
258.082	2.56
258.299	-28.16
258.515	55.81
258.732	29.18
258.948	-46.59
259.165	59.9
259.381	6.66
259.597	43.52
259.814	27.14
260.03	-11.78
260.246	49.66
260.463	43.52
260.679	-13.82
260.895	37.38
261.112	55.81
261.328	12.8
261.544	0.51
261.761	39.42
261.977	61.95
262.193	6.66
262.409	-17.92
262.626	70.14
262.842	55.81
263.058	45.57
263.274	-3.58
263.49	92.67
263.707	64
263.923	39.42
264.139	72.19
264.355	55.81
264.571	43.52
264.787	20.99
265.004	41.47
265.22	45.57
265.436	35.33
265.652	23.04
265.868	70.14
266.084	-38.4
266.3	109.05
266.516	-38.4
266.732	119.29
266.948	-17.92
267.164	57.86
267.38	16.9
267.596	82.43
267.812	82.43
268.028	25.09
268.244	29.18
268.46	82.43
268.676	86.53
268.892	76.29
269.108	33.28
269.324	74.24
269.54	29.18
269.756	-3.58
269.972	27.14
270.188	-24.06
270.403	25.09
270.619	92.67
270.835	107.01
271.051	49.66
271.267	16.9
271.483	12.8
271.698	14.85
271.914	27.14
272.13	82.43
272.346	49.66
272.562	4.61
272.777	4.61
272.993	2.56
273.209	0.51
273.425	31.23
273.64	109.05
273.856	59.9
274.072	-42.5
274.287	84.48
274.503	121.34
274.719	82.43
274.934	143.87
275.15	-7.68
275.366	0.51
275.581	20.99
275.797	53.76
276.012	12.8
276.228	57.86
276.444	20.99
276.659	135.68
276.875	27.14
277.09	-28.16
277.306	82.43
277.521	0.51
277.737	55.81
277.952	74.24
278.168	35.33
278.383	14.85
278.599	66.05
278.814	53.76
279.03	59.9
279.245	137.73
279.461	59.9
279.676	59.9
279.892	68.09
280.107	2.56
280.322	16.9
280.538	18.94
280.753	16.9
280.969	88.57
281.184	-46.59
281.399	78.33
281.615	-28.16
281.83	29.18
282.045	-30.21
282.26	27.14
282.476	82.43
282.691	102.91
282.906	49.66
283.122	-19.97
283.337	-22.02
283.552	18.94
283.767	-26.11
283.983	86.53
284.198	23.04
284.413	70.14
284.628	18.94
284.843	35.33
285.058	102.91
285.274	14.85
285.489	39.42
285.704	84.48
285.919	4.61
286.134	119.29
286.349	74.24
286.564	12.8
286.779	51.71
286.995	53.76
287.21	74.24
287.425	6.66
287.64	51.71
287.855	72.19
288.07	-19.97
288.285	80.38
288.5	107.01
288.715	45.57
288.93	41.47
289.145	2.56
289.36	74.24
289.575	33.28
289.79	-11.78
290.004	10.75
290.219	14.85
290.434	70.14
290.649	49.66
290.864	88.57
291.079	57.86
291.294	-28.16
291.509	25.09
291.724	41.47
291.938	4.61
292.153	41.47
292.368	2.56
292.583	68.09
292.798	31.23
293.012	61.95
293.227	35.33
293.442	72.19
293.657	10.75
293.871	57.86
294.086	70.14
294.301	92.67
294.516	33.28
294.73	100.86
294.945	4.61
295.16	59.9
295.374	86.53
295.589	61.95
295.804	59.9
296.018	-1.54
296.233	16.9
296.447	47.62
296.662	-15.87
296.877	43.52
297.091	74.24
297.306	84.48
297.52	4.61
297.735	115.2
297.949	51.71
298.164	-30.21
298.378	4.61
298.593	82.43
298.807	-15.87
299.022	33.28
299.236	35.33
299.451	96.77
299.665	20.99
299.88	35.33
300.094	76.29
300.309	109.05
300.523	-9.73
300.737	72.19
300.952	37.38
301.166	-19.97
301.381	4.61
301.595	8.7
301.809	31.23
302.024	-3.58
302.238	16.9
302.452	107.01
302.667	-3.58
302.881	4.61
303.095	20.99
303.309	31.23
303.524	-36.35
303.738	31.23
303.952	4.61
304.166	29.18
304.381	-9.73
304.595	68.09
304.809	53.76
305.023	53.76
305.237	86.53
305.452	64
305.666	66.05
305.88	49.66
306.094	4.61
306.308	64
306.522	29.18
306.736	61.95
306.95	55.81
307.164	-19.97
307.379	4.61
307.593	90.62
307.807	14.85
308.021	-60.93
308.235	64
308.449	29.18
308.663	70.14
308.877	57.86
309.091	-22.02
309.305	74.24
309.519	27.14
309.733	61.95
309.947	74.24
310.161	-1.54
310.374	86.53
310.588	80.38
310.802	61.95
311.016	37.38
311.23	18.94
311.444	94.72
311.658	45.57
311.872	70.14
312.085	-5.63
312.299	96.77
312.513	76.29
312.727	33.28
312.941	31.23
313.154	10.75
313.368	-26.11
313.582	57.86
313.796	23.04
314.009	135.68
314.223	39.42
314.437	68.09
314.651	-1.54
314.864	84.48
315.078	86.53
315.292	33.28
315.505	139.77
315.719	18.94
315.933	129.53
316.146	-22.02
316.36	92.67
316.573	119.29
316.787	55.81
317.001	74.24
317.214	18.94
317.428	68.09
317.641	25.09
317.855	66.05
318.068	-7.68
318.282	29.18
318.495	39.42
318.709	45.57
318.922	16.9
319.136	98.81
319.349	127.49
319.563	2.56
319.776	-17.92
319.99	49.66
320.203	53.76
320.417	66.05
320.63	25.09
320.843	104.96
321.057	37.38
321.27	10.75
321.483	27.14
321.697	113.15
321.91	4.61
322.124	90.62
322.337	18.94
322.55	66.05
322.763	-46.59
322.977	51.71
323.19	47.62
323.403	55.81
323.617	37.38
323.83	78.33
324.043	53.76
324.256	47.62
324.469	92.67
324.683	137.73
324.896	29.18
325.109	111.1
325.322	-3.58
325.535	98.81
325.748	66.05
325.962	59.9
326.175	131.58
326.388	45.57
326.601	-9.73
326.814	0.51
327.027	57.86
327.24	33.28
327.453	104.96
327.666	59.9
327.879	100.86
328.092	57.86
328.305	23.04
328.518	45.57
328.731	20.99
328.944	27.14
329.157	49.66
329.37	57.86
329.583	100.86
329.796	76.29
330.009	35.33
330.222	92.67
330.435	78.33
330.648	16.9
330.861	35.33
331.073	29.18
331.286	57.86
331.499	43.52
331.712	55.81
331.925	78.33
332.138	55.81
332.35	84.48
332.563	16.9
332.776	49.66
332.989	29.18
333.202	53.76
333.414	78.33
333.627	6.66
333.84	43.52
334.053	109.05
334.265	-24.06
334.478	55.81
334.691	8.7
334.903	92.67
335.116	8.7
335.329	-5.63
335.541	66.05
335.754	98.81
335.966	12.8
336.179	74.24
336.392	-7.68
336.604	107.01
336.817	74.24
337.029	8.7
337.242	55.81
337.454	78.33
337.667	20.99
337.88	96.77
338.092	86.53
338.305	23.04
338.517	-19.97
338.729	55.81
338.942	-11.78
339.154	37.38
339.367	33.28
339.579	72.19
339.792	41.47
340.004	18.94
340.217	-1.54
340.429	121.34
340.641	27.14
340.854	35.33
341.066	-3.58
341.278	53.76
341.491	66.05
341.703	74.24
341.915	12.8
342.128	61.95
342.34	20.99
342.552	43.52
342.764	78.33
342.977	55.81
343.189	64
343.401	20.99
343.613	4.61
343.826	61.95
344.038	25.09
344.25	49.66
344.462	-22.02
344.674	39.42
344.886	80.38
345.099	72.19
345.311	72.19
345.523	-15.87
345.735	8.7
345.947	84.48
346.159	61.95
346.371	-11.78
346.583	76.29
346.795	25.09
347.007	90.62
347.219	57.86
347.431	45.57
347.643	86.53
347.855	57.86
348.067	29.18
348.279	66.05
348.491	23.04
348.703	47.62
348.915	59.9
349.127	25.09
349.339	51.71
349.551	27.14
349.763	92.67
349.975	51.71
350.187	27.14
350.399	59.9
350.61	88.57
350.822	70.14
351.034	94.72
351.246	35.33
351.458	39.42
351.669	109.05
351.881	43.52
352.093	92.67
352.305	-13.82
352.517	20.99
352.728	88.57
352.94	4.61
353.152	55.81
353.363	-3.58
353.575	111.1
353.787	86.53
353.999	152.06
354.21	92.67
354.422	51.71
354.633	29.18
354.845	98.81
355.057	82.43
355.268	33.28
355.48	-13.82
355.692	23.04
355.903	33.28
356.115	16.9
356.326	-62.98
356.538	84.48
356.749	90.62
356.961	57.86
357.172	84.48
357.384	-13.82
357.595	90.62
357.807	100.86
358.018	104.96
358.23	57.86
358.441	94.72
358.653	188.93
358.864	0.51
359.075	41.47
359.287	125.44
359.498	74.24
359.709	-26.11
359.921	31.23
360.132	70.14
360.344	45.57
360.555	49.66
360.766	25.09
360.977	35.33
361.189	35.33
361.4	55.81
361.611	107.01
361.823	94.72
362.034	129.53
362.245	20.99
362.456	25.09
362.667	37.38
362.879	117.25
363.09	70.14
363.301	2.56
363.512	14.85
363.723	80.38
363.935	-19.97
364.146	49.66
364.357	41.47
364.568	82.43
364.779	10.75
364.99	78.33
365.201	0.51
365.412	43.52
365.623	-36.35
365.834	51.71
366.045	74.24
366.256	53.76
366.467	27.14
366.678	47.62
366.889	74.24
367.1	-19.97
367.311	100.86
367.522	37.38
367.733	74.24
367.944	123.39
368.155	29.18
368.366	4.61
368.577	82.43
368.788	70.14
368.999	-5.63
369.209	92.67
369.42	94.72
369.631	109.05
369.842	51.71
370.053	-7.68
370.264	78.33
370.474	-32.26
370.685	6.66
370.896	61.95
371.107	86.53
371.317	94.72
371.528	0.51
371.739	61.95
371.95	37.38
372.16	74.24
372.371	64
372.582	49.66
372.792	45.57
373.003	51.71
373.214	70.14
373.424	74.24
373.635	-11.78
373.846	152.06
374.056	70.14
374.267	111.1
374.477	37.38
374.688	55.81
374.898	111.1
375.109	98.81
375.319	104.96
375.53	123.39
375.74	45.57
375.951	66.05
376.161	23.04
376.372	86.53
376.582	33.28
376.793	29.18
377.003	61.95
377.214	78.33
377.424	64
377.635	10.75
377.845	131.58
378.055	94.72
378.266	23.04
378.476	51.71
378.686	2.56
378.897	51.71
379.107	137.73
379.317	180.73
379.528	64
379.738	121.34
379.948	25.09
380.158	31.23
380.369	8.7
380.579	125.44
380.789	92.67
380.999	51.71
381.21	43.52
381.42	59.9
381.63	51.71
381.84	127.49
382.05	33.28
382.261	84.48
382.471	156.16
382.681	-7.68
382.891	61.95
383.101	59.9
383.311	6.66
383.521	78.33
383.731	117.25
383.941	113.15
384.151	61.95
384.361	66.05
384.571	72.19
384.781	27.14
384.991	45.57
385.201	188.93
385.411	72.19
385.621	102.91
385.831	-50.69
386.041	59.9
386.251	53.76
386.461	100.86
386.671	135.68
386.881	107.01
387.091	37.38
387.301	51.71
387.511	55.81
387.72	66.05
387.93	164.35
388.14	94.72
388.35	80.38
388.56	162.3
388.769	80.38
388.979	37.38
389.189	33.28
389.399	117.25
389.609	102.91
389.818	141.82
390.028	41.47
390.238	37.38
390.447	45.57
390.657	55.81
390.867	39.42
391.076	53.76
391.286	49.66
391.496	66.05
391.705	47.62
391.915	160.25
392.125	107.01
392.334	145.92
392.544	78.33
392.753	96.77
392.963	61.95
393.172	35.33
393.382	39.42
393.591	211.45
393.801	84.48
394.01	88.57
394.22	115.2
394.429	74.24
394.639	107.01
394.848	66.05
395.058	94.72
395.267	141.82
395.477	94.72
395.686	82.43
395.895	139.77
396.105	100.86
396.314	129.53
396.524	131.58
396.733	113.15
396.942	152.06
397.152	150.01
397.361	166.4
397.57	102.91
397.78	154.11
397.989	82.43
398.198	193.02
398.407	102.91
398.617	121.34
398.826	92.67
399.035	125.44
399.244	186.88
399.453	150.01
399.663	201.21
399.872	90.62
400.081	104.96
400.29	102.91
400.499	119.29
400.708	102.91
400.917	125.44
401.127	111.1
401.336	115.2
401.545	135.68
401.754	205.31
401.963	170.49
402.172	86.53
402.381	162.3
402.59	229.88
402.799	2.56
403.008	100.86
403.217	147.97
403.426	143.87
403.635	100.86
403.844	135.68
404.053	176.64
404.262	143.87
404.471	240.12
404.68	186.88
404.888	117.25
405.097	227.84
405.306	170.49
405.515	129.53
405.724	213.5
405.933	152.06
406.142	256.51
406.35	190.97
406.559	244.22
406.768	217.6
406.977	262.65
407.185	233.98
407.394	229.88
407.603	254.46
407.812	272.89
408.02	303.61
408.229	217.6
408.438	272.89
408.646	199.16
408.855	299.52
409.064	264.7
409.272	233.98
409.481	401.91
409.69	352.76
409.898	332.28
410.107	344.57
410.315	356.86
410.524	332.28
410.733	379.39
410.941	373.24
411.15	426.49
411.358	367.1
411.567	444.92
411.775	520.7
411.984	442.87
412.192	512.5
412.401	459.26
412.609	604.66
412.818	545.27
413.026	483.83
413.234	610.81
413.443	674.29
413.651	619
413.86	705.01
414.068	608.76
414.276	756.21
414.485	688.63
414.693	750.07
414.901	850.42
415.11	870.9
415.318	797.17
415.526	926.19
415.734	834.04
415.943	920.05
416.151	1020.4
416.359	911.86
416.567	1079.79
416.776	1020.4
416.984	1174
417.192	1137.13
417.4	1098.22
417.608	1180.14
417.817	1096.18
418.025	1321.45
418.233	1348.08
418.441	1286.64
418.649	1354.22
418.857	1409.51
419.065	1544.68
419.273	1610.22
419.481	1518.06
419.689	1653.22
419.897	1694.18
420.105	1634.79
420.313	1708.52
420.521	1913.31
420.729	1952.23
420.937	2025.95
421.145	1905.12
421.353	2042.34
421.561	2118.11
421.769	2302.43
421.977	2433.5
422.185	2320.86
422.393	2529.75
422.601	2566.62
422.809	2556.38
423.017	2613.72
423.224	2685.4
423.432	2816.47
423.64	2824.66
423.848	3162.58
424.056	3013.07
424.263	3203.54
424.471	3332.56
424.679	3262.93
424.887	3473.87
425.094	3705.29
425.302	3596.75
425.51	3629.51
425.718	3940.8
425.925	3938.76
426.133	4065.73
426.341	4272.57
426.548	4405.69
426.756	4452.8
426.964	4520.38
427.171	4759.99
427.379	4934.07
427.586	4891.06
427.794	5220.78
428.001	5448.11
428.209	5677.48
428.417	5534.12
428.624	5966.24
428.832	5796.26
429.039	5738.92
429.247	5876.13
429.454	6547.87
429.662	7063.96
429.869	6455.71
430.076	6867.35
430.284	6513.05
430.491	7008.66
430.699	7270.8
430.906	7270.8
431.114	7367.06
431.321	7797.13
431.528	7924.1
431.736	8522.11
431.943	8907.13
432.15	8339.84
432.358	8702.33
432.565	9204.08
432.772	9099.64
432.979	9560.43
433.187	9689.45
433.394	9531.76
433.601	10389.86
433.808	10305.89
434.016	10445.15
434.223	10971.48
434.43	11589.97
434.637	11329.88
434.844	11977.03
435.052	11981.13
435.259	12015.94
435.466	12079.43
435.673	12061
435.88	12857.66
436.087	13715.76
436.294	13369.65
436.501	13140.28
436.708	13525.3
436.915	13844.78
437.122	14618.91
437.329	14639.39
437.537	15040.79
437.743	14950.68
437.95	15300.89
438.157	15923.47
438.364	16455.94
438.571	16255.24
438.778	16337.16
438.985	18065.64
439.192	17254.65
439.399	17811.7
439.606	17254.65
439.813	18411.75
440.02	19755.22
440.227	19052.77
440.433	18798.82
440.64	19630.29
440.847	19335.38
441.054	20244.68
441.261	21414.07
441.467	21020.86
441.674	21530.81
441.881	22149.29
442.088	22249.64
442.294	21846.19
442.501	22696.1
442.708	23031.97
442.914	23916.69
443.121	24830.09
443.328	24363.15
443.534	25915.51
443.741	24965.25
443.948	24969.35
444.154	27005.03
444.361	26538.09
444.568	26851.43
444.774	26843.24
444.981	26800.23
445.187	27834.46
445.394	28827.72
445.6	28831.82
445.807	31625.25
446.013	29753.4
446.22	30580.78
446.426	31379.49
446.633	31791.13
446.839	32960.52
447.046	31797.27
447.252	32927.75
447.459	33159.17
447.665	33159.17
447.871	34557.94
448.078	35710.94
448.284	34254.84
448.491	35432.42
448.697	36505.55
448.903	36947.92
449.11	37722.05
449.316	36859.85
449.522	37109.71
449.728	38164.41
449.935	38508.47
450.141	37922.75
450.347	39428.01
450.553	38047.68
450.76	38746.03
450.966	39368.62
451.172	38987.69
451.378	40032.16
451.584	39493.54
451.791	40150.94
451.997	40312.73
452.203	40718.23
452.409	40503.19
452.615	40445.85
452.821	38651.83
453.027	38666.16
453.233	40179.61
453.44	39063.47
453.646	39483.3
453.852	39815.07
454.058	40089.5
454.264	38932.4
454.47	39972.77
454.676	38729.65
454.882	39940
455.088	36313.05
455.294	36902.86
455.5	37455.81
455.705	37894.08
455.911	36452.31
456.117	35592.16
456.323	34932.71
456.529	32993.29
456.735	34678.77
456.941	33593.34
457.147	33323.01
457.352	32290.84
457.558	31866.91
457.764	32225.3
457.97	31457.31
458.176	30914.6
458.381	30640.17
458.587	29085.76
458.793	29001.8
458.999	27654.23
459.204	29618.24
459.41	28772.42
459.616	27035.75
459.821	27058.28
460.027	27185.25
460.233	26339.44
460.438	25008.26
460.644	25507.96
460.85	23761.05
461.055	23910.55
461.261	23566.49
461.466	21995.7
461.672	21360.83
461.878	23019.68
462.083	21532.86
462.289	20908.22
462.494	20674.76
462.7	20105.42
462.905	19251.42
463.111	20078.8
463.316	20152.52
463.522	19906.77
463.727	19536.09
463.932	19388.63
464.138	19271.9
464.343	19198.17
464.549	19030.24
464.754	19519.7
464.959	19425.5
465.165	19194.08
465.37	18589.92
465.575	17924.33
465.781	18677.99
465.986	18917.6
466.191	17946.86
466.397	17754.35
466.602	16926.97
466.807	17740.02
467.012	17426.68
467.218	17324.28
467.423	17033.47
467.628	17246.46
467.833	18149.61
468.038	17369.33
468.244	16924.93
468.449	17619.19
468.654	16843.01
468.859	16683.27
469.064	16875.77
469.269	16341.25
469.474	16320.77
469.679	16656.64
469.885	16066.83
470.09	16265.48
470.295	16255.24
470.5	16103.69
470.705	16001.29
470.91	15548.69
471.115	15196.44
471.32	15567.12
471.525	15698.19
471.73	15274.26
471.935	15173.91
472.139	14651.68
472.344	14731.55
472.549	14625.06
472.754	14522.66
472.959	14182.7
473.164	13975.85
473.369	13762.86
473.574	14276.9
473.778	14004.52
473.983	13936.94
474.188	13824.3
474.393	13435.19
474.598	13144.38
474.802	13283.64
475.007	13164.86
475.212	13451.57
475.417	12659.01
475.621	12998.97
475.826	12818.75
476.031	12484.93
476.235	12329.28
476.44	12411.2
476.645	12345.67
476.849	12384.58
477.054	11956.55
477.259	11960.65
477.463	12061
477.668	11665.74
477.872	11886.92
478.077	11639.12
478.282	11333.97
478.486	11207
478.691	11184.47
478.895	11012.44
479.1	11239.76
479.304	11145.56
479.509	10752.35
479.713	10840.41
479.918	10787.16
480.122	10717.53
480.326	10809.69
480.531	10750.3
480.735	10785.12
480.94	10608.99
481.144	10817.88
481.348	10279.27
481.553	10398.05
481.757	10187.11
481.961	10344.8
482.166	10735.96
482.37	10371.43
482.574	10277.22
482.778	10332.51
482.983	10416.48
483.187	10285.41
483.391	10426.72
483.595	10279.27
483.8	10283.36
484.004	10383.71
484.208	10443.1
484.412	10293.6
484.616	10271.08
484.821	10293.6
485.025	10166.63
485.229	10457.44
485.433	10355.04
485.637	10350.95
485.841	10223.97
486.045	10125.67
486.249	10189.16
486.453	10195.3
486.657	10346.85
486.861	10398.05
487.065	10180.96
487.269	10332.51
487.473	9873.77
487.677	10283.36
487.881	10451.3
488.085	10133.86
488.289	10613.09
488.493	10326.37
488.697	10541.41
488.901	10467.68
489.105	10385.76
489.309	10455.39
489.512	10461.54
489.716	10522.98
489.92	10473.82
490.124	10467.68
490.328	10783.07
490.531	10416.48
490.735	10674.53
490.939	10678.62
491.143	10479.97
491.346	10682.72
491.55	10613.09
491.754	10756.44
491.958	10821.98
492.161	10795.36
492.365	10955.1
492.569	10975.58
492.772	10871.13
492.976	11202.9
493.18	11024.73
493.383	11366.74
493.587	11389.27
493.79	11366.74
493.994	11147.61
494.197	11325.78
494.401	11628.88
494.605	11743.56
494.808	11757.9
495.012	11757.9
495.215	11747.66
495.419	11940.17
495.622	11688.27
495.825	12179.78
496.029	11977.03
496.232	12323.14
496.436	12179.78
496.639	12456.26
496.843	12628.29
497.046	12941.63
497.249	12722.49
497.453	12904.76
497.656	13074.74
497.859	13105.46
498.063	13402.42
498.266	13535.54
498.469	13621.55
498.673	13703.47
498.876	13947.18
499.079	13809.97
499.282	13998.38
499.485	14432.55
499.689	14516.51
499.892	14831.9
500.095	14520.61
500.298	15272.21
500.501	14926.11
500.705	15122.71
500.908	15434
501.111	15819.02
501.314	15802.64
501.517	16032.01
501.72	16009.48
501.923	16070.92
502.126	16419.08
502.329	16548.1
502.532	16742.66
502.735	16898.3
502.938	17117.43
503.141	17111.29
503.344	17412.34
503.547	17621.24
503.75	17772.78
503.953	18356.46
504.156	18344.17
504.359	18385.13
504.562	18532.58
504.765	18972.89
504.968	18809.06
505.17	19255.51
505.373	19126.49
505.576	19675.35
505.779	19988.69
505.982	19808.47
506.185	20250.83
506.387	20435.14
506.59	20658.37
506.793	21014.72
506.996	20691.14
507.198	21700.79
507.401	21383.35
507.604	21534.9
507.807	22143.15
508.009	22431.91
508.212	22407.34
508.415	22941.86
508.617	22948
508.82	23249.05
509.022	22888.61
509.225	23451.8
509.428	23812.24
509.63	24125.58
509.833	24088.72
510.035	24774.79
510.238	24389.77
510.44	25088.13
510.643	25317.5
510.845	25575.55
511.048	25499.77
511.25	25731.19
511.453	26001.52
511.655	27154.53
511.858	26638.44
512.06	26867.81
512.262	27224.16
512.465	26898.53
512.667	27676.76
512.87	27934.81
513.072	27775.06
513.274	28143.7
513.477	28760.14
513.679	28948.55
513.881	29409.34
514.084	29519.93
514.286	29425.73
514.488	29663.29
514.69	30220.34
514.893	30869.54
515.095	30507.05
515.297	31068.2
515.499	31426.59
515.701	31381.54
515.904	31952.92
516.106	32030.74
516.308	32176.15
516.51	33024.01
516.712	32806.92
516.914	33245.19
517.116	33818.62
517.318	34205.69
517.52	34367.48
517.722	34039.8
517.925	34693.1
518.127	34912.24
518.329	35270.63
518.531	34922.48
518.733	35780.57
518.935	36358.1
519.136	36157.4
519.338	36497.36
519.54	37001.16
519.742	37365.7
519.944	37439.43
520.146	37689.28
520.348	38107.07
520.55	38152.12
520.752	38361.01
520.954	38598.58
521.155	38668.21
521.357	39487.4
521.559	39692.19
521.761	40163.23
521.963	40273.82
522.164	40372.12
522.366	40902.54
522.568	41045.9
522.77	40963.98
522.971	41832.32
523.173	41066.38
523.375	41926.53
523.576	42559.35
523.778	42260.35
523.98	42907.51
524.181	43313
524.383	42848.11
524.584	43646.82
524.786	43880.29
524.988	43210.6
525.189	43777.89
525.391	44115.81
525.592	44539.74
525.794	44934.99
525.995	44724.05
526.197	44709.72
526.398	44861.27
526.6	45709.13
526.801	45283.15
527.003	46104.38
527.204	45418.31
527.406	46413.63
527.607	46192.45
527.808	46593.85
528.01	45770.57
528.211	46446.4
528.412	47232.82
528.614	46747.45
528.815	46806.84
529.016	47204.14
529.218	46706.49
529.419	47193.9
529.62	47146.8
529.822	47318.83
530.023	47060.79
530.224	47705.9
530.425	47689.51
530.626	47241.01
530.828	47322.93
531.029	48502.56
531.23	47955.75
531.431	47933.22
531.632	48394.01
531.833	48494.36
532.035	48342.81
532.236	48305.95
532.437	48559.9
532.638	48191.26
532.839	49059.6
533.04	48602.91
533.241	48256.8
533.442	49157.91
533.643	48987.92
533.844	48379.68
534.045	49237.78
534.246	48553.76
534.447	49348.37
534.648	48477.98
534.849	48903.96
535.05	48631.58
535.251	49002.26
535.451	48879.38
535.652	48863
535.853	48928.53
536.054	49452.81
536.255	49348.37
536.456	48295.71
536.657	49585.93
536.857	49209.11
537.058	48772.89
537.259	49002.26
537.46	48969.49
537.66	48830.23
537.861	49356.56
538.062	48969.49
538.263	49518.35
538.463	48850.71
538.664	49084.18
538.865	49604.36
539.065	49571.6
539.266	48658.2
539.466	49551.12
539.667	48912.15
539.868	49567.5
540.068	49469.2
540.269	49094.42
540.469	49061.65
540.67	48684.83
540.87	48920.34
541.071	48977.68
541.271	49723.15
541.472	49112.85
541.672	48979.73
541.873	49178.39
542.073	48637.72
542.274	49612.55
542.474	48981.78
542.675	48918.29
542.875	49293.07
543.075	48822.04
543.276	48838.42
543.476	49555.21
543.676	48750.36
543.877	49088.27
544.077	49106.71
544.277	48826.13
544.478	49002.26
544.678	48750.36
544.878	49256.21
545.078	48987.92
545.279	48774.94
545.479	48748.31
545.679	48858.9
545.879	48826.13
546.079	48973.59
546.28	48772.89
546.48	48434.97
546.68	48883.48
546.88	49424.14
547.08	48772.89
547.28	48600.86
547.48	48504.6
547.68	48908.05
547.88	48373.53
548.081	48813.85
548.281	48852.76
548.481	48527.13
548.681	49080.08
548.881	48576.28
549.081	49026.84
549.28	48461.6
549.48	49026.84
549.68	48439.07
549.88	49131.28
550.08	48559.9
550.28	49202.96
550.48	48592.67
550.68	48987.92
550.88	48629.53
551.08	48805.66
551.279	48799.51
551.479	48332.57
551.679	48625.43
551.879	48537.37
552.079	48733.98
552.278	48326.43
552.478	48789.27
552.678	48379.68
552.878	48799.51
553.077	48469.79
553.277	48520.99
553.477	48789.27
553.676	48426.78
553.876	48299.81
554.076	48068.39
554.275	48279.33
554.475	47628.07
554.674	48707.35
554.874	47959.84
555.074	48219.94
555.273	48449.31
555.473	48424.73
555.672	47691.56
555.872	47990.56
556.071	47753
556.271	48156.45
556.47	47662.89
556.67	47343.41
556.869	47843.11
557.068	48127.78
557.268	47531.82
557.467	47757.1
557.667	47593.26
557.866	47474.48
558.065	47621.93
558.265	47167.28
558.464	47183.66
558.663	47376.17
558.863	46653.24
559.062	47601.45
559.261	46964.53
559.461	47544.11
559.66	46229.31
559.859	46966.58
560.058	46526.27
560.258	47249.2
560.457	47079.22
560.656	46802.74
560.855	46675.77
561.054	46790.45
561.253	46251.84
561.453	46659.38
561.652	46628.66
561.851	46554.94
562.05	46376.76
562.249	45963.07
562.448	46432.06
562.647	46812.98
562.846	46098.24
563.045	45989.7
563.244	45430.6
563.443	46425.92
563.642	45160.27
563.841	45838.15
564.04	45246.29
564.239	46071.62
564.438	45584.2
564.637	45145.94
564.836	45561.67
565.035	44990.29
565.234	45412.17
565.432	45184.85
565.631	45078.35
565.83	45082.45
566.029	44523.35
566.228	44742.49
566.427	44736.34
566.625	44326.75
566.824	44085.09
567.023	44887.89
567.222	43929.44
567.42	44533.59
567.619	44433.24
567.818	43958.11
568.016	43890.53
568.215	44033.89
568.414	43370.35
568.612	44167.01
568.811	43546.47
569.01	43474.79
569.208	43091.82
569.407	43857.76
569.605	42901.36
569.804	43423.59
570.002	42686.32
570.201	42772.34
570.4	42342.27
570.598	42469.24
570.797	42041.21
570.995	42497.91
571.193	42225.53
571.392	42590.07
571.59	42305.4
571.789	42229.63
571.987	42114.94
572.186	42073.98
572.384	42084.22
572.582	41670.53
572.781	41719.68
572.979	41054.09
573.177	41314.19
573.376	41475.98
573.574	41088.91
573.772	41379.72
573.971	40877.97
574.169	41371.53
574.367	40814.48
574.565	40966.03
574.763	40742.8
574.962	40789.91
575.16	40064.92
575.358	40517.53
575.556	39915.42
575.754	40507.29
575.952	39810.98
576.151	40406.94
576.349	39753.63
576.547	39966.62
576.745	39753.63
576.943	39784.35
577.141	39364.52
577.339	39548.84
577.537	39604.13
577.735	39511.97
577.933	39245.74
578.131	39280.55
578.329	39444.39
578.527	38864.81
578.725	38795.18
578.923	39081.9
579.121	38623.15
579.319	38584.24
579.516	38893.49
579.714	38565.81
579.912	38078.39
580.11	38115.26
580.308	38385.59
580.506	37918.65
580.704	37484.48
580.901	37951.42
581.099	38037.44
581.297	37689.28
581.495	37160.9
581.692	37533.64
581.89	37263.3
582.088	37945.28
582.285	37263.3
582.483	37527.49
582.681	37087.18
582.878	36954.06
583.076	36548.56
583.274	37091.27
583.471	36571.09
583.669	36804.56
583.866	36259.8
584.064	36579.28
584.262	36030.43
584.459	36282.33
584.657	36169.69
584.854	36659.15
585.052	35835.87
585.249	35842.01
585.447	35977.18
585.644	35196.9
585.841	35764.19
586.039	35727.33
586.236	35330.02
586.434	35323.88
586.631	35114.98
586.828	35225.57
587.026	35315.69
587.223	35067.88
587.42	34936.81
587.618	34830.32
587.815	34385.91
588.012	34494.45
588.21	34093.05
588.407	34619.38
588.604	34080.76
588.801	34193.4
588.999	34109.43
589.196	34195.45
589.393	33871.87
589.59	33781.76
589.787	33730.56
589.984	33722.37
590.182	33431.55
590.379	33798.14
590.576	33419.27
590.773	33423.36
590.97	32954.38
591.167	33218.57
591.364	32573.45
591.561	32966.66
591.758	32415.76
591.955	32815.12
592.152	32966.66
592.349	32727.05
592.546	32591.89
592.743	32290.84
592.94	32112.66
593.137	32274.45
593.334	32231.44
593.531	31623.2
593.727	32010.26
593.924	31793.18
594.121	31672.35
594.318	31576.09
594.515	31019.05
594.712	31612.96
594.908	31350.82
595.105	31391.78
595.302	31359.01
595.499	31440.93
595.696	30744.62
595.892	30691.37
596.089	30789.67
596.286	30904.36
596.482	30603.31
596.679	30584.88
596.876	30253.11
597.072	30052.41
597.269	30373.94
597.466	29823.03
597.662	29964.34
597.859	29859.9
598.055	29939.77
598.252	29614.14
598.448	29771.83
598.645	29884.47
598.841	29304.9
599.038	29638.72
599.234	29188.16
599.431	29263.94
599.627	29040.71
599.824	29556.8
600.02	29005.89
600.217	28928.07
600.413	28565.58
600.609	28860.49
600.806	28670.03
601.002	28545.1
601.198	28348.5
601.395	28401.74
601.591	27838.55
601.787	28512.33
601.984	28174.42
602.18	28117.07
602.376	27940.95
602.572	27633.75
602.769	27783.26
602.965	27721.82
603.161	27668.57
603.357	27443.29
603.553	27287.65
603.75	27459.68
603.946	27181.15
604.142	27646.04
604.338	27023.46
604.534	27146.34
604.73	26888.29
604.926	26613.87
605.122	26632.3
605.318	26409.07
605.514	26253.42
605.71	26230.9
605.906	26699.88
606.102	26646.63
606.298	26495.08
606.494	26327.15
606.69	26521.71
606.886	26368.11
607.082	26069.11
607.278	25985.14
607.474	26052.72
607.67	26110.07
607.866	25358.46
608.062	26144.88
608.257	25675.9
608.453	25972.85
608.649	25763.96
608.845	25364.6
609.041	25591.93
609.236	25340.03
609.432	25448.57
609.628	25325.69
609.824	25405.56
610.019	24989.83
610.215	25038.98
610.411	24979.59
610.606	24795.27
610.802	25153.66
610.998	25086.08
611.193	24967.3
611.389	24598.66
611.584	24486.03
611.78	24553.61
611.976	24815.75
612.171	24715.4
612.367	24766.6
612.562	24273.04
612.758	24078.48
612.953	24070.29
613.149	24428.68
613.344	24238.22
613.539	24586.38
613.735	24154.26
613.93	24494.22
614.126	24203.41
614.321	24027.28
614.517	23879.83
614.712	24244.37
614.907	23912.6
615.103	24037.52
615.298	23369.88
615.493	24115.34
615.688	23748.76
615.884	24049.81
616.079	23345.31
616.274	23566.49
616.47	23550.1
616.665	23343.26
616.86	23300.25
617.055	23093.41
617.25	23281.82
617.445	23306.4
617.641	22788.26
617.836	23396.51
618.031	22802.6
618.226	22890.66
618.421	22843.56
618.616	22958.24
618.811	22302.89
619.006	22759.59
619.201	22190.25
619.396	22294.7
619.591	21854.39
619.786	22245.55
619.981	22069.42
620.176	22358.19
620.371	21788.85
620.566	21971.12
620.761	21735.6
620.956	21926.07
621.151	21426.36
621.346	21567.67
621.541	21536.95
621.735	21166.27
621.93	21029.06
622.125	20768.96
622.32	20959.42
622.515	20742.34
622.709	20521.16
622.904	20646.08
623.099	20637.89
623.294	20537.54
623.488	20394.18
623.683	20369.61
623.878	19933.39
624.072	20066.51
624.267	20046.03
624.462	19933.39
624.656	20015.31
624.851	19890.38
625.046	19519.7
625.24	19382.49
625.435	19357.91
625.629	19173.6
625.824	19224.79
626.018	19144.92
626.213	18753.76
626.407	18774.24
626.602	18487.53
626.796	18917.6
626.991	18716.9
627.185	18497.77
627.38	18479.33
627.574	18364.65
627.768	17838.32
627.963	17991.92
628.157	17850.61
628.352	18022.64
628.546	17551.6
628.74	17877.23
628.935	17293.56
629.129	17520.88
629.323	17182.97
629.517	17418.49
629.712	17193.21
629.906	16990.46
630.1	16800
630.294	16998.65
630.489	16945.41
630.683	17101.05
630.877	16525.57
631.071	16421.13
631.265	16548.1
631.459	16349.45
631.653	16052.49
631.848	16398.6
632.042	16175.37
632.236	16068.87
632.43	15685.9
632.624	15864.08
632.818	16042.25
633.012	15565.07
633.206	15825.17
633.4	15513.88
633.594	15376.66
633.788	15552.79
633.982	15485.2
634.176	15169.82
634.369	14889.24
634.563	15032.6
634.757	15229.21
634.951	15094.04
635.145	14836
635.339	14917.92
635.533	14612.77
635.726	14604.58
635.92	14248.23
636.114	14702.88
636.308	14489.89
636.501	14313.77
636.695	14444.84
636.889	14151.98
637.083	14078.25
637.276	14108.97
637.47	13977.9
637.664	13732.14
637.857	13865.26
638.051	13889.84
638.244	13732.14
638.438	13572.4
638.632	13521.2
638.825	13320.5
639.019	13427
639.212	13345.08
639.406	13283.64
639.599	12951.87
639.793	13136.18
639.986	12896.57
640.18	13130.04
640.373	13062.46
640.567	12618.05
640.76	12683.58
640.954	12478.79
641.147	12702.01
641.34	12669.25
641.534	12613.95
641.727	12509.51
641.92	12499.27
642.114	12106.06
642.307	12259.65
642.5	11782.48
642.694	12044.62
642.887	11706.7
643.08	11872.59
643.273	11807.05
643.467	11821.39
643.66	11721.04
643.853	11794.76
644.046	11604.3
644.239	11542.86
644.432	11399.51
644.626	11258.2
644.819	11391.31
645.012	11301.2
645.205	11188.57
645.398	11225.43
645.591	11008.34
645.784	11006.3
645.977	10819.93
646.17	10981.72
646.363	10965.34
646.556	10664.29
646.749	10756.44
646.942	10754.4
647.135	10537.31
647.328	10613.09
647.521	10457.44
647.714	10391.91
647.907	10537.31
648.099	10336.61
648.292	10322.27
648.485	10357.09
648.678	10158.44
648.871	10183.01
649.064	10176.87
649.256	10228.07
649.449	9855.34
649.642	9718.12
649.835	9970.02
650.027	9810.28
650.22	9591.15
650.413	9777.51
650.605	9765.23
650.798	9621.87
650.991	9683.31
651.183	9507.18
651.376	9253.23
651.568	9402.74
651.761	9529.71
651.954	9312.63
652.146	9300.34
652.339	9167.22
652.531	9187.7
652.724	9181.56
652.916	8984.95
653.109	9054.58
653.301	8991.09
653.494	8999.29
653.686	8884.6
653.879	8808.83
654.071	8853.88
654.263	8671.61
654.456	8728.95
654.648	8741.24
654.84	8470.91
655.033	8825.21
655.225	8581.5
655.417	8464.77
655.61	8585.6
655.802	8530.3
655.994	8458.62
656.186	8515.97
656.379	8352.13
656.571	8370.56
656.763	8225.15
656.955	8182.15
657.148	8073.6
657.34	8133
657.532	7934.34
657.724	8149.38
657.916	7963.01
658.108	8194.43
658.3	7827.85
658.492	7922.06
658.684	7645.58
658.876	7823.75
659.068	7930.25
659.26	7629.2
659.452	7762.31
659.644	7573.9
659.836	7434.64
660.028	7514.51
660.22	7408.01
660.412	7532.94
660.604	7235.99
660.796	7528.85
660.988	7459.21
661.18	7188.88
661.372	7274.9
661.563	7283.09
661.755	7299.47
661.947	7156.11
662.139	7111.06
662.331	7274.9
662.522	6992.28
662.714	6982.04
662.906	6812.06
663.097	6951.32
663.289	6992.28
663.481	6869.4
663.673	6758.81
663.864	6803.86
664.056	6732.19
664.247	6885.78
664.439	6730.14
664.631	6767
664.822	6617.5
665.014	6590.88
665.205	6568.35
665.397	6607.26
665.588	6332.83
665.78	6551.96
665.971	6431.13
666.163	6314.4
666.354	6521.24
666.546	6443.42
666.737	6201.76
666.929	6314.4
667.12	6302.11
667.311	6263.2
667.503	6250.91
667.694	6214.05
667.885	6158.75
668.077	6125.99
668.268	6056.36
668.459	5937.57
668.651	6058.4
668.842	6144.42
669.033	6080.93
669.224	5964.2
669.416	6033.83
669.607	5982.63
669.798	5945.77
669.989	5865.89
670.18	5859.75
670.371	5775.78
670.563	5783.98
670.754	5740.97
670.945	5642.67
671.136	5898.66
671.327	5761.45
671.518	5796.26
671.709	5714.34
671.9	5759.4
672.091	5652.91
672.282	5869.99
672.473	5530.03
672.664	5728.68
672.855	5517.74
673.046	5607.85
673.237	5648.81
673.428	5511.6
673.619	5429.68
673.809	5583.27
674	5515.69
674.191	5341.61
674.382	5360.05
674.573	5519.79
674.764	5509.55
674.954	5544.36
675.145	5339.57
675.336	5304.75
675.527	5343.66
675.717	5435.82
675.908	5280.18
676.099	5259.7
676.289	5337.52
676.48	5294.51
676.671	5220.78
676.861	5341.61
677.052	5249.46
677.243	5159.35
677.433	5192.11
677.624	5112.24
677.814	5042.61
678.005	5237.17
678.195	5087.67
678.386	5263.79
678.576	4901.3
678.767	5015.99
678.957	5104.05
679.148	5089.71
679.338	5054.9
679.529	5087.67
679.719	4948.4
679.909	5138.87
680.1	5038.52
680.29	5071.28
680.481	5061.04
680.671	4889.01
680.861	5056.95
681.052	5067.19
681.242	4903.35
681.432	4917.68
681.622	4872.63
681.813	4880.82
682.003	4985.27
682.193	4884.92
682.383	4866.49
682.573	4743.61
682.764	4837.81
682.954	4731.32
683.144	4803
683.334	4772.28
683.524	4895.16
683.714	4665.78
683.904	4768.18
684.094	4960.69
684.284	4895.16
684.474	4862.39
684.664	4827.57
684.854	4975.03
685.044	4749.75
685.234	4694.46
685.424	4639.16
685.614	4641.21
685.804	4542.91
685.994	4610.49
686.184	4608.44
686.374	4649.4
686.564	4444.6
686.753	4721.08
686.943	4596.15
687.133	4592.06
687.323	4420.03
687.513	4479.42
687.702	4415.93
687.892	4465.08
688.082	4497.85
688.272	4489.66
688.461	4438.46
688.651	4313.53
688.841	4489.66
689.03	4366.78
689.22	4305.34
689.41	4413.88
689.599	4202.94
689.789	4317.63
689.979	4495.8
690.168	4192.7
690.358	4299.2
690.547	4192.7
690.737	4133.31
690.926	4080.07
691.116	4141.5
691.305	4248
691.495	4121.03
691.684	4080.07
691.874	4022.72
692.063	4028.87
692.252	4098.5
692.442	3959.24
692.631	3951.04
692.82	4022.72
693.01	3946.95
693.199	3951.04
693.388	3858.89
693.578	3783.11
693.767	3883.46
693.956	4057.54
694.146	3944.9
694.335	3867.08
694.524	3903.94
694.713	3949
694.902	3873.22
695.092	3801.54
695.281	3854.79
695.47	3908.04
695.659	3840.45
695.848	3707.34
696.037	3807.69
696.226	3844.55
696.415	3811.78
696.604	3752.39
696.793	3699.14
696.982	3744.2
697.171	3787.21
697.36	3688.9
697.549	3752.39
697.738	3682.76
697.927	3615.18
698.116	3711.43
698.305	3637.7
698.494	3774.92
698.683	3695.05
698.872	3652.04
699.061	3563.98
699.25	3547.59
699.438	3631.56
699.627	3664.33
699.816	3664.33
700.005	3707.34
700.193	3633.61
700.382	3631.56
700.571	3697.1
700.76	3506.63
700.948	3582.41
701.137	3641.8
701.326	3531.21
701.514	3639.75
701.703	3480.01
701.892	3580.36
702.08	3602.89
702.269	3428.81
702.457	3637.7
702.646	3645.9
702.834	3619.27
703.023	3555.79
703.212	3578.31
703.4	3731.91
703.589	3514.83
703.777	3666.38
703.965	3563.98
704.154	3523.02
704.342	3639.75
704.531	3580.36
704.719	3535.31
704.907	3555.79
705.096	3561.93
705.284	3613.13
705.472	3633.61
705.661	3492.3
705.849	3539.4
706.037	3553.74
706.226	3463.63
706.414	3504.59
706.602	3406.28
706.79	3486.15
706.979	3502.54
707.167	3586.51
707.355	3471.82
707.543	3516.87
707.731	3566.03
707.919	3418.57
708.107	3523.02
708.296	3594.7
708.484	3557.83
708.672	3453.39
708.86	3484.11
709.048	3498.44
709.236	3463.63
709.424	3502.54
709.612	3561.93
709.8	3437
709.988	3529.16
710.176	3426.76
710.364	3455.44
710.551	3430.86
710.739	3396.04
710.927	3267.02
711.115	3525.07
711.303	3502.54
711.491	3488.2
711.679	3514.83
711.866	3490.25
712.054	3525.07
712.242	3377.61
712.43	3514.83
712.617	3324.37
712.805	3492.3
712.993	3506.63
713.181	3334.61
713.368	3410.38
713.556	3482.06
713.744	3428.81
713.931	3467.72
714.119	3369.42
714.306	3486.15
714.494	3371.47
714.682	3502.54
714.869	3437
715.057	3441.1
715.244	3342.8
715.432	3402.19
715.619	3357.13
715.807	3461.58
715.994	3482.06
716.182	3394
716.369	3488.2
716.556	3418.57
716.744	3391.95
716.931	3373.52
717.119	3445.2
717.306	3578.31
717.493	3453.39
717.681	3457.48
717.868	3387.85
718.055	3463.63
718.242	3408.33
718.43	3324.37
718.617	3402.19
718.804	3557.83
718.991	3430.86
719.179	3414.48
719.366	3424.72
719.553	3363.28
719.74	3379.66
719.927	3408.33
720.114	3369.42
720.301	3262.93
720.488	3394
720.676	3428.81
720.863	3457.48
721.05	3490.25
721.237	3428.81
721.424	3291.6
721.611	3375.56
721.798	3473.87
721.985	3254.73
722.172	3275.21
722.358	3297.74
722.545	3369.42
722.732	3346.89
722.919	3350.99
723.106	3314.13
723.293	3414.48
723.48	3287.5
723.667	3250.64
723.853	3256.78
724.04	3394
724.227	3281.36
724.414	3295.69
724.6	3244.49
724.787	3293.65
724.974	3312.08
725.161	3324.37
725.347	3277.26
725.534	3289.55
725.72	3232.21
725.907	3264.97
726.094	3383.76
726.28	3355.08
726.467	3191.25
726.653	3322.32
726.84	3254.73
727.027	3375.56
727.213	3164.62
727.4	3203.54
727.586	3250.64
727.773	3135.95
727.959	3322.32
728.145	3215.82
728.332	3117.52
728.518	3191.25
728.705	3205.58
728.891	3103.18
729.077	3158.48
729.264	3183.06
729.45	3174.86
729.636	3144.14
729.823	3205.58
730.009	3252.69
730.195	3246.54
730.382	3230.16
730.568	3191.25
730.754	3037.65
730.94	3197.39
731.126	3238.35
731.313	3242.45
731.499	3162.58
731.685	3138
731.871	3082.7
732.057	3068.37
732.243	3135.95
732.429	3144.14
732.615	3133.9
732.801	3033.55
732.987	3049.94
733.173	3181.01
733.359	3172.82
733.545	3086.8
733.731	3092.94
733.917	3019.22
734.103	3094.99
734.289	3101.14
734.475	3006.93
734.661	3092.94
734.847	3072.47
735.033	3076.56
735.219	3039.7
735.404	3019.22
735.59	3197.39
735.776	2935.25
735.962	3144.14
736.148	3056.08
736.333	3015.12
736.519	2968.02
736.705	2949.59
736.89	3021.27
737.076	2904.53
737.262	2941.4
737.447	2925.01
737.633	2908.63
737.819	2998.74
738.004	2961.87
738.19	2787.8
738.375	3037.65
738.561	2806.23
738.747	2871.76
738.932	2828.76
739.118	2918.87
739.303	2939.35
739.489	2752.98
739.674	2861.52
739.859	2806.23
740.045	2863.57
740.23	2841.04
740.416	2861.52
740.601	2892.24
740.786	2853.33
740.972	2728.41
741.157	2839
741.342	2671.06
741.528	2816.47
741.713	2916.82
741.898	2724.31
742.084	2738.65
742.269	2845.14
742.454	2810.33
742.639	2814.42
742.824	2742.74
743.01	2726.36
743.195	2701.78
743.38	2703.83
743.565	2593.24
743.75	2585.05
743.935	2630.1
744.12	2703.83
744.305	2562.52
744.49	2531.8
744.675	2609.62
744.86	2511.32
745.045	2544.09
745.23	2560.47
745.415	2550.23
745.6	2681.3
745.785	2531.8
745.97	2605.53
746.155	2437.59
746.34	2425.31
746.525	2433.5
746.71	2474.46
746.895	2351.58
747.079	2382.3
747.264	2429.4
747.449	2451.93
747.634	2341.34
747.819	2402.78
748.003	2406.88
748.188	2390.49
748.373	2284
748.557	2388.44
748.742	2251.23
748.927	2234.85
749.111	2259.42
749.296	2142.69
749.481	2232.8
749.665	2097.63
749.85	2183.65
750.034	2140.64
750.219	2171.36
750.404	2109.92
750.588	2120.16
750.773	1974.75
750.957	2093.54
751.141	2071.01
751.326	2060.77
751.51	2081.25
751.695	2009.57
751.879	2017.76
752.064	2025.95
752.248	2007.52
752.432	1978.85
752.617	1913.31
752.801	2003.43
752.985	1933.79
753.17	1913.31
753.354	1815.01
753.538	1925.6
753.722	1872.36
753.907	1823.2
754.091	1757.67
754.275	1884.64
754.459	1847.78
754.643	1751.53
754.828	1741.29
755.012	1757.67
755.196	1729
755.38	1815.01
755.564	1681.89
755.748	1673.7
755.932	1663.46
756.116	1690.09
756.3	1739.24
756.484	1649.13
756.668	1597.93
756.852	1593.83
757.036	1634.79
757.22	1642.98
757.404	1622.5
757.588	1559.02
757.772	1647.08
757.956	1628.65
758.14	1595.88
758.323	1399.27
758.507	1561.06
758.691	1565.16
758.875	1614.31
759.059	1528.3
759.242	1501.67
759.426	1599.98
759.61	1470.95
759.794	1493.48
759.977	1552.87
760.161	1477.1
760.345	1421.8
760.528	1479.15
760.712	1509.86
760.895	1563.11
761.079	1401.32
761.263	1427.95
761.446	1317.36
761.63	1384.94
761.813	1382.89
761.997	1458.67
762.18	1346.03
762.364	1499.63
762.547	1255.92
762.731	1333.74
762.914	1286.64
763.098	1303.02
763.281	1309.16
763.464	1372.65
763.648	1397.23
763.831	1249.77
764.015	1276.4
764.198	1311.21
764.381	1348.08
764.564	1329.64
764.748	1366.51
764.931	1251.82
765.114	1282.54
765.297	1223.15
765.481	1167.85
765.664	1257.96
765.847	1223.15
766.03	1321.45
766.213	1266.16
766.397	1303.02
766.58	1233.39
766.763	1251.82
766.946	1231.34
767.129	1128.94
767.312	1225.2
767.495	1178.09
767.678	1128.94
767.861	1223.15
768.044	1110.51
768.227	1204.72
768.41	1184.24
768.593	1260.01
768.776	1159.66
768.959	1057.26
769.142	1214.96
769.324	1102.32
769.507	1194.48
769.69	1151.47
769.873	1217.01
770.056	1102.32
770.239	1092.08
770.421	1114.61
770.604	1092.08
770.787	1065.46
770.97	1139.18
771.152	1004.02
771.335	1067.5
771.518	1083.89
771.7	1024.5
771.883	1020.4
772.066	1036.78
772.248	1014.26
772.431	1116.65
772.613	1063.41
772.796	997.87
772.978	1047.02
773.161	1051.12
773.343	1065.46
773.526	991.73
773.708	905.71
773.891	938.48
774.073	1001.97
774.256	1032.69
774.438	1032.69
774.621	922.1
774.803	864.75
774.985	950.77
775.168	991.73
775.35	864.75
775.532	915.95
775.715	903.67
775.897	887.28
776.079	850.42
776.261	922.1
776.444	936.43
776.626	809.46
776.808	793.08
776.99	801.27
777.173	922.1
777.355	885.23
777.537	827.89
777.719	903.67
777.901	788.98
778.083	866.8
778.265	766.45
778.447	926.19
778.629	782.84
778.811	862.71
778.993	811.51
779.175	811.51
779.357	774.64
779.539	754.16
779.721	768.5
779.903	713.21
780.085	766.45
780.267	725.49
780.449	696.82
780.631	748.02
780.812	766.45
780.994	670.2
781.176	625.14
781.358	676.34
781.54	645.62
781.721	725.49
781.903	713.21
782.085	643.57
782.267	670.2
782.448	700.92
782.63	705.01
782.812	647.67
782.993	631.29
783.175	612.85
783.357	629.24
783.538	537.08
783.72	657.91
783.901	608.76
784.083	614.9
784.264	569.85
784.446	532.98
784.627	647.67
784.809	543.22
784.99	586.23
785.172	664.05
785.353	596.47
785.535	639.48
785.716	735.73
785.897	516.6
786.079	485.88
786.26	489.98
786.441	594.42
786.623	508.41
786.804	584.18
786.985	518.65
787.167	571.9
787.348	500.22
787.529	528.89
787.71	549.37
787.891	575.99
788.073	518.65
788.254	459.26
788.435	508.41
788.616	434.68
788.797	473.59
788.978	426.49
789.159	471.54
789.34	565.75
789.522	506.36
789.703	516.6
789.884	545.27
790.065	510.46
790.246	487.93
790.427	467.45
790.607	520.7
790.788	522.74
790.969	463.35
791.15	575.99
791.331	469.5
791.512	453.11
791.693	416.25
791.874	418.3
792.054	471.54
792.235	446.97
792.416	369.15
792.597	449.02
792.778	418.3
792.958	455.16
793.139	461.3
793.32	436.73
793.5	418.3
793.681	504.31
793.862	440.83
794.042	412.15
794.223	360.95
794.404	406.01
794.584	375.29
794.765	469.5
794.945	420.35
795.126	375.29
795.306	340.47
795.487	418.3
795.667	387.58
795.848	365.05
796.028	369.15
796.209	395.77
796.389	369.15
796.57	367.1
796.75	373.24
796.93	377.34
797.111	320
797.291	344.57
797.471	389.63
797.652	360.95
797.832	379.39
798.012	326.14
798.192	326.14
798.373	328.19
798.553	371.19
798.733	283.13
798.913	301.56
799.093	307.71
799.274	301.56
799.454	369.15
799.634	381.43
799.814	365.05
799.994	363
800.174	354.81
800.354	375.29
800.534	264.7
800.714	340.47
800.894	238.08
801.074	274.94
801.254	320
801.434	268.8
801.614	303.61
801.794	291.32
801.974	854.51
802.154	305.66
802.334	317.95
802.514	295.42
802.693	303.61
802.873	248.32
803.053	352.76
803.233	305.66
803.413	317.95
803.592	303.61
803.772	330.23
803.952	215.55
804.131	276.99
804.311	262.65
804.491	313.85
804.67	186.88
804.85	264.7
805.03	250.36
805.209	305.66
805.389	240.12
805.568	266.75
805.748	287.23
805.928	295.42
806.107	225.79
806.287	199.16
806.466	326.14
806.646	233.98
806.825	199.16
807.004	217.6
807.184	225.79
807.363	164.35
807.543	223.74
807.722	152.06
807.901	344.57
808.081	287.23
808.26	233.98
808.439	270.84
808.619	219.64
808.798	186.88
808.977	242.17
809.156	225.79
809.336	268.8
809.515	258.56
809.694	233.98
809.873	203.26
810.052	225.79
810.231	250.36
810.411	262.65
810.59	270.84
810.769	143.87
810.948	299.52
811.127	262.65
811.306	197.12
811.485	283.13
811.664	309.76
811.843	248.32
812.022	262.65
812.201	102.91
812.38	293.37
812.559	246.27
812.737	225.79
812.916	182.78
813.095	168.45
813.274	238.08
813.453	238.08
813.632	170.49
813.811	227.84
813.989	156.16
814.168	299.52
814.347	246.27
814.526	125.44
814.704	291.32
814.883	188.93
815.062	123.39
815.24	203.26
815.419	184.83
815.598	154.11
815.776	164.35
815.955	186.88
816.133	238.08
816.312	227.84
816.49	211.45
816.669	213.5
816.847	240.12
817.026	203.26
817.204	119.29
817.383	176.64
817.561	154.11
817.74	178.69
817.918	154.11
818.097	121.34
818.275	258.56
818.453	152.06
818.632	256.51
818.81	197.12
818.988	193.02
819.167	176.64
819.345	127.49
819.523	164.35
819.701	150.01
819.879	184.83
820.058	147.97
820.236	193.02
820.414	119.29
820.592	104.96
820.77	111.1
820.948	154.11
821.127	121.34
821.305	145.92
821.483	51.71
821.661	201.21
821.839	199.16
822.017	150.01
822.195	72.19
822.373	221.69
822.551	64
822.729	119.29
822.907	123.39
823.085	129.53
823.262	133.63
823.44	143.87
823.618	141.82
823.796	172.54
823.974	102.91
824.152	135.68
824.329	205.31
824.507	109.05
824.685	125.44
824.863	164.35
825.04	100.86
825.218	152.06
825.396	49.66
825.574	86.53
825.751	152.06
825.929	217.6
826.107	57.86
826.284	178.69
826.462	96.77
826.639	172.54
826.817	45.57
826.994	141.82
827.172	107.01
827.349	125.44
827.527	170.49
827.704	127.49
827.882	168.45
828.059	150.01
828.237	156.16
828.414	78.33
828.591	78.33
828.769	113.15
828.946	100.86
829.124	49.66
829.301	104.96
829.478	127.49
829.655	94.72
829.833	111.1
830.01	74.24
830.187	213.5
830.364	100.86
830.542	74.24
830.719	152.06
830.896	111.1
831.073	156.16
831.25	190.97
831.427	104.96
831.604	186.88
831.782	76.29
831.959	88.57
832.136	80.38
832.313	131.58
832.49	68.09
832.667	139.77
832.844	66.05
833.021	193.02
833.198	72.19
833.374	109.05
833.551	158.21
833.728	100.86
833.905	98.81
834.082	4.61
834.259	117.25
834.436	117.25
834.612	109.05
834.789	117.25
834.966	37.38
835.143	107.01
835.319	-7.68
835.496	160.25
835.673	90.62
835.85	98.81
836.026	88.57
836.203	119.29
836.38	100.86
836.556	90.62
836.733	102.91
836.909	121.34
837.086	92.67
837.262	86.53
837.439	-22.02
837.616	88.57
837.792	78.33
837.968	131.58
838.145	35.33
838.321	113.15
838.498	80.38
838.674	66.05
838.851	78.33
839.027	57.86
839.203	102.91
839.38	59.9
839.556	135.68
839.732	90.62
839.909	70.14
840.085	33.28
840.261	74.24
840.437	125.44
840.614	111.1
840.79	156.16
840.966	96.77
841.142	76.29
841.318	25.09
841.494	8.7
841.671	100.86
841.847	143.87
842.023	55.81
842.199	100.86
842.375	90.62
842.551	27.14
842.727	78.33
842.903	82.43
843.079	41.47
843.255	90.62
843.431	68.09
843.607	127.49
843.783	-17.92
843.959	45.57
844.134	-3.58
844.31	123.39
844.486	23.04
844.662	74.24
844.838	33.28
845.013	16.9
845.189	16.9
845.365	4.61
845.541	20.99
845.716	109.05
845.892	115.2
846.068	70.14
846.244	-7.68
846.419	61.95
846.595	-7.68
846.77	45.57
846.946	0.51
847.122	29.18
847.297	31.23
847.473	53.76
847.648	16.9
847.824	59.9
847.999	31.23
848.175	18.94
848.35	-15.87
848.526	98.81
848.701	20.99
848.876	78.33
849.052	115.2
849.227	78.33
849.403	18.94
849.578	78.33
849.753	0.51
849.929	-7.68
850.104	74.24
850.279	115.2
850.454	39.42
850.63	123.39
850.805	43.52
850.98	18.94
851.155	74.24
851.33	20.99
851.505	20.99
851.681	27.14
851.856	-7.68
852.031	6.66
852.206	33.28
852.381	12.8
852.556	2.56
852.731	109.05
852.906	37.38
853.081	35.33
853.256	51.71
853.431	47.62
853.606	-32.26
853.781	51.71
853.956	4.61
854.131	-3.58
854.305	47.62
854.48	88.57
854.655	33.28
854.83	92.67
855.005	-5.63
855.18	33.28
855.354	35.33
855.529	61.95
855.704	92.67
855.879	12.8
856.053	37.38
856.228	33.28
856.403	-13.82
856.577	70.14
856.752	16.9
856.926	141.82
857.101	-19.97
857.276	49.66
857.45	72.19
857.625	10.75
857.799	35.33
857.974	20.99
858.148	61.95
858.323	51.71
858.497	37.38
858.672	33.28
858.846	-1.54
859.02	70.14
859.195	39.42
859.369	37.38
859.543	31.23
859.718	8.7
859.892	74.24
860.066	-28.16
860.241	-60.93
860.415	18.94
860.589	-17.92
860.763	27.14
860.938	20.99
861.112	66.05
861.286	-19.97
861.46	92.67
861.634	33.28
861.808	47.62
861.982	53.76
862.157	2.56
862.331	37.38
862.505	-85.5
862.679	-22.02
862.853	-7.68
863.027	29.18
863.201	107.01
863.375	59.9
863.549	53.76
863.722	-28.16
863.896	57.86
864.07	-38.4
864.244	14.85
864.418	53.76
864.592	84.48
864.766	78.33
864.939	49.66
865.113	-5.63
865.287	47.62
865.461	-22.02
865.634	12.8
865.808	49.66
865.982	16.9
866.156	29.18
866.329	45.57
866.503	80.38
866.676	96.77
866.85	29.18
867.024	88.57
867.197	33.28
867.371	-11.78
867.544	14.85
867.718	49.66
867.891	29.18
868.065	2.56
868.238	37.38
868.412	-22.02
868.585	8.7
868.759	-48.64
868.932	27.14
869.105	37.38
869.279	127.49
869.452	16.9
869.625	-7.68
869.799	-7.68
869.972	66.05
870.145	78.33
870.319	29.18
870.492	2.56
870.665	37.38
870.838	-3.58
871.011	84.48
871.185	12.8
871.358	68.09
871.531	70.14
871.704	37.38
871.877	43.52
872.05	23.04
872.223	27.14
872.396	145.92
872.569	68.09
872.742	-44.54
872.915	102.91
873.088	-15.87
873.261	4.61
873.434	-13.82
873.607	35.33
873.78	70.14
873.953	45.57
874.126	2.56
874.299	72.19
874.471	53.76
874.644	10.75
874.817	-9.73
874.99	102.91
875.163	59.9
875.335	29.18
875.508	61.95
875.681	68.09
875.853	74.24
876.026	45.57
876.199	31.23
876.371	53.76
876.544	43.52
876.717	-30.21
876.889	-40.45
877.062	-7.68
877.234	29.18
877.407	-13.82
877.579	35.33
877.752	78.33
877.924	8.7
878.097	20.99
878.269	4.61
878.442	-73.21
878.614	41.47
878.786	20.99
878.959	-19.97
879.131	6.66
879.303	41.47
879.476	6.66
879.648	43.52
879.82	8.7
879.993	8.7
880.165	-19.97
880.337	18.94
880.509	76.29
880.681	-32.26
880.854	41.47
881.026	0.51
881.198	29.18
881.37	-40.45
881.542	-7.68
881.714	-15.87
881.886	-46.59
882.058	61.95
882.23	92.67
882.402	-24.06
882.574	31.23
882.746	43.52
882.918	18.94
883.09	31.23
883.262	31.23
883.434	16.9
883.606	-26.11
883.778	51.71
883.95	4.61
884.122	16.9
884.293	72.19
884.465	29.18
884.637	-7.68
884.809	-13.82
884.98	12.8
885.152	-50.69
885.324	47.62
885.496	-30.21
885.667	70.14
885.839	10.75
886.011	14.85
886.182	143.87
886.354	0.51
886.525	35.33
886.697	100.86
886.869	-54.78
887.04	-22.02
887.212	-11.78
887.383	80.38
887.555	-3.58
887.726	39.42
887.897	-95.74
888.069	90.62
888.24	20.99
888.412	74.24
888.583	8.7
888.754	2.56
888.926	20.99
889.097	43.52
889.268	20.99
889.44	37.38
889.611	14.85
889.782	49.66
889.953	-24.06
890.125	66.05
890.296	-44.54
890.467	-34.3
890.638	-34.3
890.809	-1.54
890.98	-36.35
891.151	35.33
891.323	66.05
891.494	33.28
891.665	68.09
891.836	12.8
892.007	-9.73
892.178	6.66
892.349	-24.06
892.52	59.9
892.691	76.29
892.862	70.14
893.032	-26.11
893.203	39.42
893.374	72.19
893.545	29.18
893.716	-3.58
893.887	27.14
894.057	-9.73
894.228	41.47
894.399	4.61
894.57	0.51
894.74	16.9
894.911	23.04
895.082	68.09
895.253	-5.63
895.423	-34.3
895.594	41.47
895.764	72.19
895.935	-67.07
896.106	-9.73
896.276	27.14
896.447	35.33
896.617	45.57
896.788	-28.16
896.958	10.75
897.129	10.75
897.299	16.9
897.47	29.18
897.64	-38.4
897.81	8.7
897.981	-38.4
898.151	25.09
898.322	61.95
898.492	33.28
898.662	49.66
898.832	-17.92
899.003	51.71
899.173	29.18
899.343	0.51
899.513	33.28
