Data from USB4F104151__213__10-29-56-517.txt Node

Date: Wed Mar 12 10:29:56 EDT 2025
User: louis
Spectrometer: USB4F10415
Trigger mode: 4
Integration Time (sec): 3.000000E-2
Scans to average: 1
Electric dark correction enabled: true
Nonlinearity correction enabled: false
Boxcar width: 0
XAxis mode: Wavelengths
Number of Pixels in Spectrum: 3648
>>>>>Begin Spectral Data<<<<<
178.204	-96.43
178.424	-96.43
178.644	-96.43
178.864	-151.72
179.084	-118.95
179.304	-34.99
179.524	-30.89
179.744	10.07
179.964	14.17
180.184	-18.6
180.404	20.31
180.624	-30.89
180.844	-12.46
181.064	14.17
181.283	36.69
181.503	-47.27
181.723	79.7
181.943	-4.27
182.163	75.6
182.383	65.36
182.602	59.22
182.822	-6.31
183.042	10.07
183.262	-65.71
183.482	-16.55
183.701	79.7
183.921	55.12
184.141	22.36
184.361	67.41
184.58	22.36
184.8	-6.31
185.02	71.51
185.239	-2.22
185.459	94.04
185.679	14.17
185.898	18.26
186.118	75.6
186.338	1.88
186.557	-2.22
186.777	12.12
186.997	20.31
187.216	-12.46
187.436	96.08
187.655	14.17
187.875	22.36
188.095	-63.66
188.314	100.18
188.534	118.61
188.753	-6.31
188.973	24.4
189.192	-10.41
189.412	110.42
189.631	44.88
189.851	-24.75
190.07	91.99
190.29	-41.13
190.509	-24.75
190.729	-22.7
190.948	116.56
191.168	161.62
191.387	57.17
191.607	87.89
191.826	83.8
192.045	-6.31
192.265	38.74
192.484	44.88
192.704	12.12
192.923	-12.46
193.142	104.28
193.362	22.36
193.581	132.95
193.8	85.84
194.02	42.84
194.239	1.88
194.458	104.28
194.678	1.88
194.897	67.41
195.116	-4.27
195.335	59.22
195.555	42.84
195.774	63.32
195.993	51.03
196.212	38.74
196.432	57.17
196.651	5.97
196.87	26.45
197.089	55.12
197.308	32.6
197.528	22.36
197.747	-10.41
197.966	-14.51
198.185	102.23
198.404	28.5
198.623	1.88
198.842	10.07
199.062	36.69
199.281	63.32
199.5	3.93
199.719	126.8
199.938	38.74
200.157	42.84
200.376	-4.27
200.595	46.93
200.814	40.79
201.033	42.84
201.252	20.31
201.471	5.97
201.69	1.88
201.909	-18.6
202.128	110.42
202.347	59.22
202.566	46.93
202.785	-2.22
203.004	34.64
203.223	128.85
203.442	1.88
203.661	75.6
203.879	14.17
204.098	-0.17
204.317	-6.31
204.536	63.32
204.755	57.17
204.974	104.28
205.193	-20.65
205.411	124.76
205.63	91.99
205.849	53.08
206.068	51.03
206.287	-2.22
206.505	42.84
206.724	48.98
206.943	18.26
207.162	-12.46
207.381	96.08
207.599	42.84
207.818	-30.89
208.037	38.74
208.255	69.46
208.474	-18.6
208.693	91.99
208.911	30.55
209.13	8.02
209.349	5.97
209.567	38.74
209.786	-6.31
210.005	73.56
210.223	67.41
210.442	-14.51
210.661	83.8
210.879	-20.65
211.098	38.74
211.316	10.07
211.535	26.45
211.753	26.45
211.972	22.36
212.191	16.21
212.409	91.99
212.628	8.02
212.846	36.69
213.065	108.37
213.283	83.8
213.502	-2.22
213.72	71.51
213.938	118.61
214.157	34.64
214.375	32.6
214.594	32.6
214.812	42.84
215.031	30.55
215.249	38.74
215.467	81.75
215.686	34.64
215.904	42.84
216.122	91.99
216.341	91.99
216.559	87.89
216.778	96.08
216.996	55.12
217.214	-4.27
217.432	63.32
217.651	44.88
217.869	57.17
218.087	-14.51
218.306	71.51
218.524	10.07
218.742	87.89
218.96	91.99
219.179	-12.46
219.397	30.55
219.615	42.84
219.833	53.08
220.051	1.88
220.27	124.76
220.488	85.84
220.706	87.89
220.924	-14.51
221.142	-6.31
221.36	57.17
221.578	59.22
221.796	87.89
222.015	32.6
222.233	106.32
222.451	65.36
222.669	-30.89
222.887	85.84
223.105	-43.18
223.323	59.22
223.541	28.5
223.759	61.27
223.977	18.26
224.195	102.23
224.413	89.94
224.631	77.65
224.849	79.7
225.067	108.37
225.285	57.17
225.503	114.52
225.721	106.32
225.939	38.74
226.157	67.41
226.375	106.32
226.592	32.6
226.81	24.4
227.028	32.6
227.246	53.08
227.464	42.84
227.682	24.4
227.9	71.51
228.117	116.56
228.335	73.56
228.553	46.93
228.771	44.88
228.989	100.18
229.206	57.17
229.424	-18.6
229.642	30.55
229.86	77.65
230.077	44.88
230.295	63.32
230.513	63.32
230.731	42.84
230.948	48.98
231.166	61.27
231.384	-10.41
231.601	18.26
231.819	100.18
232.037	40.79
232.254	-8.36
232.472	59.22
232.689	36.69
232.907	71.51
233.125	42.84
233.342	8.02
233.56	73.56
233.777	22.36
233.995	18.26
234.213	91.99
234.43	57.17
234.648	71.51
234.865	18.26
235.083	94.04
235.3	36.69
235.518	79.7
235.735	65.36
235.953	55.12
236.17	38.74
236.388	1.88
236.605	12.12
236.822	26.45
237.04	40.79
237.257	-2.22
237.475	-0.17
237.692	51.03
237.909	77.65
238.127	61.27
238.344	79.7
238.562	24.4
238.779	79.7
238.996	-26.79
239.214	42.84
239.431	118.61
239.648	83.8
239.865	-2.22
240.083	53.08
240.3	34.64
240.517	1.88
240.735	89.94
240.952	114.52
241.169	-8.36
241.386	5.97
241.603	-0.17
241.821	-14.51
242.038	71.51
242.255	38.74
242.472	12.12
242.689	-16.55
242.907	53.08
243.124	94.04
243.341	18.26
243.558	42.84
243.775	40.79
243.992	46.93
244.209	48.98
244.426	77.65
244.643	16.21
244.86	36.69
245.078	30.55
245.295	85.84
245.512	48.98
245.729	22.36
245.946	83.8
246.163	36.69
246.38	83.8
246.597	94.04
246.814	10.07
247.031	40.79
247.248	-37.03
247.464	102.23
247.681	36.69
247.898	104.28
248.115	-6.31
248.332	79.7
248.549	46.93
248.766	75.6
248.983	18.26
249.2	32.6
249.417	75.6
249.633	14.17
249.85	75.6
250.067	3.93
250.284	34.64
250.501	12.12
250.717	75.6
250.934	48.98
251.151	-6.31
251.368	51.03
251.585	57.17
251.801	44.88
252.018	44.88
252.235	85.84
252.451	48.98
252.668	32.6
252.885	96.08
253.102	-0.17
253.318	34.64
253.535	63.32
253.752	53.08
253.968	83.8
254.185	24.4
254.401	71.51
254.618	16.21
254.835	16.21
255.051	53.08
255.268	22.36
255.484	26.45
255.701	1.88
255.917	22.36
256.134	-47.27
256.351	91.99
256.567	20.31
256.784	-41.13
257	67.41
257.217	116.56
257.433	108.37
257.65	40.79
257.866	122.71
258.082	28.5
258.299	51.03
258.515	65.36
258.732	5.97
258.948	53.08
259.165	22.36
259.381	36.69
259.597	24.4
259.814	69.46
260.03	42.84
260.246	8.02
260.463	100.18
260.679	67.41
260.895	34.64
261.112	51.03
261.328	106.32
261.544	83.8
261.761	83.8
261.977	48.98
262.193	-10.41
262.409	108.37
262.626	24.4
262.842	-2.22
263.058	32.6
263.274	110.42
263.49	69.46
263.707	67.41
263.923	44.88
264.139	48.98
264.355	85.84
264.571	89.94
264.787	16.21
265.004	18.26
265.22	38.74
265.436	81.75
265.652	-4.27
265.868	106.32
266.084	18.26
266.3	51.03
266.516	22.36
266.732	36.69
266.948	-0.17
267.164	85.84
267.38	79.7
267.596	75.6
267.812	22.36
268.028	67.41
268.244	3.93
268.46	10.07
268.676	30.55
268.892	26.45
269.108	-10.41
269.324	1.88
269.54	-22.7
269.756	73.56
269.972	24.4
270.188	83.8
270.403	14.17
270.619	71.51
270.835	16.21
271.051	32.6
271.267	40.79
271.483	38.74
271.698	69.46
271.914	59.22
272.13	67.41
272.346	51.03
272.562	34.64
272.777	32.6
272.993	26.45
273.209	67.41
273.425	30.55
273.64	-0.17
273.856	14.17
274.072	55.12
274.287	46.93
274.503	63.32
274.719	-6.31
274.934	30.55
275.15	30.55
275.366	67.41
275.581	63.32
275.797	100.18
276.012	38.74
276.228	98.13
276.444	130.9
276.659	116.56
276.875	-16.55
277.09	20.31
277.306	44.88
277.521	83.8
277.737	30.55
277.952	81.75
278.168	-4.27
278.383	-16.55
278.599	8.02
278.814	71.51
279.03	63.32
279.245	89.94
279.461	-8.36
279.676	132.95
279.892	-2.22
280.107	-20.65
280.322	34.64
280.538	106.32
280.753	34.64
280.969	46.93
281.184	59.22
281.399	141.14
281.615	32.6
281.83	22.36
282.045	36.69
282.26	18.26
282.476	3.93
282.691	96.08
282.906	87.89
283.122	14.17
283.337	10.07
283.552	87.89
283.767	-22.7
283.983	42.84
284.198	55.12
284.413	42.84
284.628	-43.18
284.843	79.7
285.058	48.98
285.274	69.46
285.489	104.28
285.704	26.45
285.919	73.56
286.134	67.41
286.349	71.51
286.564	-0.17
286.779	137.04
286.995	30.55
287.21	38.74
287.425	51.03
287.64	16.21
287.855	67.41
288.07	91.99
288.285	-6.31
288.5	40.79
288.715	63.32
288.93	-71.85
289.145	24.4
289.36	48.98
289.575	40.79
289.79	110.42
290.004	8.02
290.219	100.18
290.434	36.69
290.649	30.55
290.864	89.94
291.079	34.64
291.294	79.7
291.509	30.55
291.724	40.79
291.938	24.4
292.153	79.7
292.368	-6.31
292.583	71.51
292.798	67.41
293.012	22.36
293.227	71.51
293.442	3.93
293.657	77.65
293.871	83.8
294.086	94.04
294.301	114.52
294.516	81.75
294.73	53.08
294.945	71.51
295.16	77.65
295.374	73.56
295.589	79.7
295.804	81.75
296.018	63.32
296.233	98.13
296.447	71.51
296.662	26.45
296.877	26.45
297.091	34.64
297.306	-8.36
297.52	28.5
297.735	5.97
297.949	100.18
298.164	83.8
298.378	-14.51
298.593	-8.36
298.807	8.02
299.022	34.64
299.236	77.65
299.451	8.02
299.665	100.18
299.88	30.55
300.094	75.6
300.309	18.26
300.523	94.04
300.737	48.98
300.952	59.22
301.166	-45.23
301.381	63.32
301.595	40.79
301.809	55.12
302.024	73.56
302.238	-18.6
302.452	36.69
302.667	20.31
302.881	100.18
303.095	65.36
303.309	59.22
303.524	67.41
303.738	147.28
303.952	98.13
304.166	-6.31
304.381	59.22
304.595	124.76
304.809	8.02
305.023	85.84
305.237	1.88
305.452	-2.22
305.666	40.79
305.88	61.27
306.094	137.04
306.308	69.46
306.522	55.12
306.736	42.84
306.95	42.84
307.164	59.22
307.379	63.32
307.593	100.18
307.807	34.64
308.021	12.12
308.235	63.32
308.449	48.98
308.663	83.8
308.877	87.89
309.091	40.79
309.305	44.88
309.519	22.36
309.733	34.64
309.947	48.98
310.161	139.09
310.374	77.65
310.588	85.84
310.802	3.93
311.016	-22.7
311.23	51.03
311.444	36.69
311.658	51.03
311.872	173.91
312.085	55.12
312.299	63.32
312.513	67.41
312.727	87.89
312.941	12.12
313.154	87.89
313.368	106.32
313.582	114.52
313.796	67.41
314.009	83.8
314.223	77.65
314.437	104.28
314.651	22.36
314.864	128.85
315.078	75.6
315.292	42.84
315.505	20.31
315.719	30.55
315.933	18.26
316.146	61.27
316.36	-16.55
316.573	104.28
316.787	73.56
317.001	112.47
317.214	69.46
317.428	20.31
317.641	28.5
317.855	12.12
318.068	34.64
318.282	26.45
318.495	106.32
318.709	75.6
318.922	55.12
319.136	147.28
319.349	46.93
319.563	26.45
319.776	104.28
319.99	71.51
320.203	61.27
320.417	108.37
320.63	44.88
320.843	91.99
321.057	83.8
321.27	42.84
321.483	89.94
321.697	135
321.91	83.8
322.124	79.7
322.337	55.12
322.55	14.17
322.763	69.46
322.977	83.8
323.19	12.12
323.403	1.88
323.617	83.8
323.83	36.69
324.043	3.93
324.256	102.23
324.469	20.31
324.683	44.88
324.896	40.79
325.109	128.85
325.322	32.6
325.535	55.12
325.748	48.98
325.962	18.26
326.175	24.4
326.388	-30.89
326.601	81.75
326.814	122.71
327.027	24.4
327.24	135
327.453	-41.13
327.666	87.89
327.879	61.27
328.092	102.23
328.305	65.36
328.518	30.55
328.731	1.88
328.944	22.36
329.157	69.46
329.37	46.93
329.583	153.43
329.796	46.93
330.009	-22.7
330.222	102.23
330.435	57.17
330.648	38.74
330.861	79.7
331.073	34.64
331.286	98.13
331.499	5.97
331.712	46.93
331.925	32.6
332.138	22.36
332.35	57.17
332.563	108.37
332.776	112.47
332.989	10.07
333.202	30.55
333.414	22.36
333.627	10.07
333.84	8.02
334.053	-10.41
334.265	32.6
334.478	14.17
334.691	51.03
334.903	102.23
335.116	24.4
335.329	116.56
335.541	36.69
335.754	65.36
335.966	83.8
336.179	167.76
336.392	89.94
336.604	57.17
336.817	120.66
337.029	77.65
337.242	79.7
337.454	32.6
337.667	63.32
337.88	126.8
338.092	55.12
338.305	106.32
338.517	91.99
338.729	81.75
338.942	77.65
339.154	5.97
339.367	89.94
339.579	91.99
339.792	1.88
340.004	28.5
340.217	79.7
340.429	-18.6
340.641	59.22
340.854	30.55
341.066	89.94
341.278	81.75
341.491	122.71
341.703	63.32
341.915	22.36
342.128	132.95
342.34	141.14
342.552	48.98
342.764	34.64
342.977	48.98
343.189	87.89
343.401	22.36
343.613	-10.41
343.826	165.71
344.038	48.98
344.25	75.6
344.462	-43.18
344.674	57.17
344.886	73.56
345.099	48.98
345.311	59.22
345.523	141.14
345.735	42.84
345.947	151.38
346.159	34.64
346.371	-4.27
346.583	71.51
346.795	163.67
347.007	38.74
347.219	71.51
347.431	22.36
347.643	163.67
347.855	100.18
348.067	108.37
348.279	26.45
348.491	48.98
348.703	40.79
348.915	30.55
349.127	-6.31
349.339	83.8
349.551	61.27
349.763	69.46
349.975	42.84
350.187	102.23
350.399	106.32
350.61	89.94
350.822	32.6
351.034	67.41
351.246	44.88
351.458	108.37
351.669	34.64
351.881	116.56
352.093	83.8
352.305	126.8
352.517	104.28
352.728	87.89
352.94	108.37
353.152	30.55
353.363	8.02
353.575	36.69
353.787	122.71
353.999	55.12
354.21	118.61
354.422	135
354.633	14.17
354.845	5.97
355.057	38.74
355.268	85.84
355.48	67.41
355.692	32.6
355.903	14.17
356.115	116.56
356.326	46.93
356.538	57.17
356.749	130.9
356.961	157.52
357.172	69.46
357.384	30.55
357.595	108.37
357.807	102.23
358.018	59.22
358.23	147.28
358.441	79.7
358.653	112.47
358.864	65.36
359.075	89.94
359.287	20.31
359.498	44.88
359.709	65.36
359.921	34.64
360.132	46.93
360.344	-32.94
360.555	-30.89
360.766	65.36
360.977	40.79
361.189	69.46
361.4	87.89
361.611	-10.41
361.823	38.74
362.034	-12.46
362.245	87.89
362.456	137.04
362.667	116.56
362.879	81.75
363.09	61.27
363.301	77.65
363.512	34.64
363.723	61.27
363.935	26.45
364.146	94.04
364.357	108.37
364.568	69.46
364.779	89.94
364.99	102.23
365.201	69.46
365.412	139.09
365.623	-2.22
365.834	83.8
366.045	145.24
366.256	91.99
366.467	18.26
366.678	71.51
366.889	67.41
367.1	57.17
367.311	67.41
367.522	48.98
367.733	104.28
367.944	67.41
368.155	83.8
368.366	112.47
368.577	89.94
368.788	132.95
368.999	55.12
369.209	30.55
369.42	57.17
369.631	178
369.842	-39.08
370.053	51.03
370.264	122.71
370.474	28.5
370.685	59.22
370.896	-18.6
371.107	89.94
371.317	14.17
371.528	65.36
371.739	108.37
371.95	112.47
372.16	102.23
372.371	12.12
372.582	98.13
372.792	24.4
373.003	108.37
373.214	59.22
373.424	110.42
373.635	100.18
373.846	65.36
374.056	71.51
374.267	96.08
374.477	100.18
374.688	81.75
374.898	91.99
375.109	120.66
375.319	85.84
375.53	51.03
375.74	91.99
375.951	69.46
376.161	48.98
376.372	57.17
376.582	75.6
376.793	106.32
377.003	63.32
377.214	94.04
377.424	167.76
377.635	75.6
377.845	91.99
378.055	155.47
378.266	14.17
378.476	87.89
378.686	157.52
378.897	118.61
379.107	147.28
379.317	98.13
379.528	96.08
379.738	221.01
379.948	32.6
380.158	161.62
380.369	94.04
380.579	42.84
380.789	53.08
380.999	120.66
381.21	106.32
381.42	135
381.63	116.56
381.84	46.93
382.05	165.71
382.261	112.47
382.471	71.51
382.681	108.37
382.891	210.77
383.101	87.89
383.311	51.03
383.521	75.6
383.731	147.28
383.941	120.66
384.151	69.46
384.361	75.6
384.571	81.75
384.781	130.9
384.991	135
385.201	155.47
385.411	116.56
385.621	83.8
385.831	98.13
386.041	128.85
386.251	165.71
386.461	124.76
386.671	137.04
386.881	106.32
387.091	108.37
387.301	85.84
387.511	141.14
387.72	114.52
387.93	108.37
388.14	57.17
388.35	96.08
388.56	108.37
388.769	116.56
388.979	89.94
389.189	116.56
389.399	48.98
389.609	124.76
389.818	122.71
390.028	141.14
390.238	147.28
390.447	57.17
390.657	100.18
390.867	1.88
391.076	83.8
391.286	165.71
391.496	173.91
391.705	118.61
391.915	114.52
392.125	100.18
392.334	81.75
392.544	147.28
392.753	61.27
392.963	139.09
393.172	137.04
393.382	38.74
393.591	147.28
393.801	96.08
394.01	161.62
394.22	141.14
394.429	108.37
394.639	130.9
394.848	161.62
395.058	65.36
395.267	153.43
395.477	161.62
395.686	116.56
395.895	59.22
396.105	147.28
396.314	264.02
396.524	120.66
396.733	116.56
396.942	188.24
397.152	104.28
397.361	180.05
397.57	96.08
397.78	182.1
397.989	135
398.198	223.06
398.407	87.89
398.617	83.8
398.826	200.53
399.035	212.82
399.244	106.32
399.453	182.1
399.663	147.28
399.872	190.29
400.081	190.29
400.29	175.95
400.499	94.04
400.708	202.58
400.917	190.29
401.127	202.58
401.336	171.86
401.545	251.73
401.754	126.8
401.963	309.07
402.172	241.49
402.381	190.29
402.59	178
402.799	161.62
403.008	231.25
403.217	190.29
403.426	180.05
403.635	214.87
403.844	218.96
404.053	288.59
404.262	173.91
404.471	253.78
404.68	247.63
404.888	235.35
405.097	237.39
405.306	223.06
405.515	366.42
405.724	161.62
405.933	237.39
406.142	259.92
406.35	243.54
406.559	231.25
406.768	276.31
406.977	276.31
407.185	255.83
407.394	268.11
407.603	311.12
407.812	319.31
408.02	388.94
408.229	384.85
408.438	270.16
408.646	370.51
408.855	364.37
409.064	356.18
409.272	485.2
409.481	485.2
409.69	421.71
409.898	440.14
410.107	479.05
410.315	427.85
410.524	526.16
410.733	544.59
410.941	530.25
411.15	522.06
411.358	675.66
411.567	597.84
411.775	692.04
411.984	659.28
412.192	644.94
412.401	657.23
412.609	679.75
412.818	796.49
413.026	782.15
413.234	724.81
413.443	737.1
413.651	763.72
413.86	780.11
414.068	890.7
414.276	960.33
414.485	874.31
414.693	982.85
414.901	1060.68
415.11	1103.68
415.318	1075.01
415.526	1099.59
415.734	1158.98
415.943	1107.78
416.151	1226.56
416.359	1204.03
416.567	1331.01
416.776	1359.68
416.984	1494.85
417.192	1449.79
417.4	1455.94
417.608	1457.98
417.817	1675.07
418.025	1652.54
418.233	1783.61
418.441	1699.64
418.649	1795.9
418.857	1918.78
419.065	1910.58
419.273	1892.15
419.481	2008.89
419.689	2142
419.897	2131.76
420.105	2246.45
420.313	2348.85
420.521	2484.02
420.729	2576.17
420.937	2697
421.145	2600.75
421.353	2789.16
421.561	2914.09
421.769	3063.59
421.977	3133.22
422.185	3141.41
422.393	3211.04
422.601	3454.75
422.809	3401.51
423.017	3370.79
423.224	3649.31
423.432	3757.85
423.64	3718.94
423.848	4126.49
424.056	4081.43
424.263	4335.38
424.471	4235.03
424.679	4458.26
424.887	4550.42
425.094	4837.13
425.302	4744.97
425.51	4822.8
425.718	5058.31
425.925	5209.86
426.133	5428.99
426.341	5660.41
426.548	5869.31
426.756	6002.43
426.964	6115.06
427.171	6448.88
427.379	6397.68
427.586	6594.29
427.794	7024.36
428.001	7286.5
428.209	7382.76
428.417	7352.04
428.624	7657.18
428.832	8001.24
429.039	7890.65
429.247	7753.44
429.454	8457.94
429.662	9072.33
429.869	8349.4
430.076	9092.81
430.284	8845.01
430.491	9365.19
430.699	9797.31
430.906	9840.32
431.114	9793.22
431.321	10079.93
431.528	10286.78
431.736	11003.57
431.943	11685.54
432.15	11173.55
432.358	11495.08
432.565	12078.75
432.772	12025.5
432.979	12521.11
433.187	12795.54
433.394	12914.32
433.601	13751.94
433.808	13663.88
434.016	13590.15
434.223	14337.66
434.43	15076.98
434.637	14829.17
434.844	15713.89
435.052	15871.59
435.259	15781.48
435.466	16324.19
435.673	16021.09
435.88	17055.31
436.087	17794.63
436.294	17749.57
436.501	17323.6
436.708	17745.48
436.915	18404.92
437.122	19238.45
437.329	19162.67
437.537	19623.47
437.743	20014.63
437.95	19897.89
438.157	21116.44
438.364	21634.57
438.571	21446.16
438.778	21392.91
438.985	24022.5
439.192	22859.26
439.399	23358.96
439.606	22971.89
439.813	24307.17
440.02	25757.13
440.227	25189.84
440.433	24886.75
440.64	26240.45
440.847	25583.05
441.054	26140.1
441.261	28108.2
441.467	27620.78
441.674	27958.7
441.881	29412.76
442.088	28868
442.294	29246.87
442.501	29521.3
442.708	30326.15
442.914	31387
443.121	32796
443.328	31737.2
443.534	34016.59
443.741	33068.38
443.948	32701.79
444.154	35179.84
444.361	34571.59
444.568	35501.37
444.774	34989.38
444.981	35452.22
445.187	36134.19
445.394	38014.23
445.6	37475.61
445.807	41094.37
446.013	38941.96
446.22	39779.57
446.426	41213.15
446.633	41778.39
446.839	42896.58
447.046	41303.26
447.252	43852.98
447.459	43736.25
447.665	43508.93
447.871	45440.16
448.078	46754.96
448.284	44688.56
448.491	46165.14
448.697	47713.41
448.903	48624.75
449.11	48415.86
449.316	47453.31
449.522	48374.9
449.728	49927.26
449.935	49839.2
450.141	49861.72
450.347	51131.47
450.553	49650.78
450.76	49874.01
450.966	51477.57
451.172	51203.14
451.378	52194.36
451.584	51516.48
451.791	52218.94
451.997	52022.33
452.203	52710.45
452.409	52931.63
452.615	52325.43
452.821	50603.09
453.027	50117.72
453.233	52855.85
453.44	50828.37
453.646	51254.34
453.852	51293.25
454.058	51944.51
454.264	50041.95
454.47	51530.82
454.676	50209.88
454.882	52284.47
455.088	47299.72
455.294	48018.55
455.5	48776.3
455.705	48970.86
455.911	47486.08
456.117	46159
456.323	45407.39
456.529	42872.01
456.735	45247.65
456.941	43914.42
457.147	43156.67
457.352	41874.65
457.558	41465.05
457.764	41569.5
457.97	41012.45
458.176	39871.73
458.381	39566.59
458.587	37768.47
458.793	37612.82
458.999	36261.16
459.204	38530.31
459.41	37571.86
459.616	35054.91
459.821	34786.63
460.027	35083.58
460.233	34329.93
460.438	32222.57
460.644	32949.6
460.85	31356.28
461.055	30887.29
461.261	30948.73
461.466	28892.57
461.672	27577.78
461.878	29789.58
462.083	28143.02
462.289	27223.48
462.494	26869.18
462.7	26023.37
462.905	25269.72
463.111	25931.21
463.316	26187.21
463.522	25865.67
463.727	25978.31
463.932	25423.31
464.138	25116.12
464.343	25509.33
464.549	24712.67
464.754	25736.65
464.959	25431.51
465.165	24935.9
465.37	24268.26
465.575	23563.76
465.781	24305.12
465.986	24849.88
466.191	23561.71
466.397	22883.83
466.602	22314.5
466.807	23066.1
467.012	23051.77
467.218	22818.3
467.423	22517.25
467.628	22803.96
467.833	23612.91
468.038	22928.89
468.244	22177.28
468.449	22988.28
468.654	22234.63
468.859	22103.56
469.064	22218.24
469.269	21235.22
469.474	21308.94
469.679	21622.28
469.885	20672.03
470.09	21198.35
470.295	21278.22
470.5	20561.44
470.705	20540.96
470.91	20244
471.115	20100.64
471.32	20422.17
471.525	20102.69
471.73	19488.3
471.935	19461.68
472.139	18873.91
472.344	19213.87
472.549	19146.29
472.754	18914.87
472.959	18660.92
473.164	17788.49
473.369	18210.37
473.574	18654.78
473.778	18255.42
473.983	17962.56
474.188	18069.06
474.393	17329.74
474.598	17170
474.802	17217.1
475.007	17010.26
475.212	16787.03
475.417	16426.59
475.621	16784.98
475.826	16672.34
476.031	16184.93
476.235	16094.82
476.44	16393.82
476.645	15947.36
476.849	16051.81
477.054	15777.38
477.259	15367.79
477.463	15554.15
477.668	15013.49
477.872	15169.13
478.077	14739.06
478.282	14794.36
478.486	14612.09
478.691	14425.72
478.895	14417.53
479.1	14483.06
479.304	14351.99
479.509	13923.97
479.713	14265.98
479.918	14089.85
480.122	13614.73
480.326	13960.83
480.531	14143.1
480.735	13764.23
480.94	13670.02
481.144	14093.95
481.348	13209.23
481.553	13667.97
481.757	13104.78
481.961	13610.63
482.166	13721.22
482.37	13538.95
482.574	13215.37
482.778	13590.15
482.983	13557.38
483.187	13459.08
483.391	13622.92
483.595	13311.63
483.8	13121.17
484.004	13354.63
484.208	13475.46
484.412	13465.22
484.616	13375.11
484.821	13139.6
485.025	12977.81
485.229	13358.73
485.433	13207.18
485.637	13354.63
485.841	13338.25
486.045	13098.64
486.249	13123.21
486.453	13084.3
486.657	13274.76
486.861	13403.78
487.065	13092.49
487.269	13207.18
487.473	13043.34
487.677	13258.38
487.881	13512.33
488.085	13317.77
488.289	13532.81
488.493	13215.37
488.697	13354.63
488.901	13399.69
489.105	13520.52
489.309	13530.76
489.512	13512.33
489.716	13420.17
489.92	13547.14
490.124	13796.99
490.328	13561.48
490.531	13321.87
490.735	13835.91
490.939	13985.41
491.143	13686.4
491.346	13573.77
491.55	14124.67
491.754	14122.62
491.958	13809.28
492.161	13997.7
492.365	14057.09
492.569	14329.47
492.772	14001.79
492.976	14173.82
493.18	14110.33
493.383	14554.74
493.587	14509.69
493.79	14646.9
493.994	14564.98
494.197	14634.61
494.401	14841.46
494.605	14898.8
494.808	15165.04
495.012	15040.11
495.215	15005.3
495.419	15584.87
495.622	15193.71
495.825	15578.73
496.029	15644.26
496.232	15914.59
496.436	16000.61
496.639	16176.73
496.843	16025.18
497.046	16410.2
497.249	16672.34
497.453	16752.21
497.656	16973.39
497.859	16817.75
498.063	17268.3
498.266	17473.1
498.469	17507.91
498.673	17522.25
498.876	17833.54
499.079	18030.15
499.282	18210.37
499.485	18685.5
499.689	18589.24
499.892	19002.93
500.095	19074.61
500.298	19349.04
500.501	18988.6
500.705	19572.27
500.908	19787.3
501.111	20112.93
501.314	20184.61
501.517	20553.24
501.72	20899.35
501.923	20921.88
502.126	21011.99
502.329	21501.45
502.532	21368.34
502.735	21958.15
502.938	22054.4
503.141	22259.2
503.344	22869.5
503.547	22679.04
503.75	23289.33
503.953	23703.02
504.156	23463.41
504.359	23594.48
504.562	23954.92
504.765	24350.18
504.968	24823.26
505.17	25056.73
505.373	24911.32
505.576	25406.93
505.779	25578.96
505.982	25753.04
506.185	25935.31
506.387	26506.69
506.59	26834.36
506.793	27131.32
506.996	27235.77
507.198	27643.31
507.401	27366.84
507.604	28011.95
507.807	28540.32
508.009	28536.23
508.212	29148.57
508.415	29021.59
508.617	29881.74
508.82	29879.69
509.022	29695.38
509.225	30479.75
509.428	30471.56
509.63	30983.55
509.833	30895.49
510.035	31933.81
510.238	31714.67
510.44	31980.91
510.643	32845.15
510.845	32853.34
511.048	32888.16
511.25	33248.6
511.453	33295.71
511.655	34616.65
511.858	34221.39
512.06	34585.93
512.262	34989.38
512.465	34942.27
512.667	35575.09
512.87	36295.98
513.072	35968.3
513.274	36934.95
513.477	37123.36
513.679	37147.93
513.881	37633.3
514.084	38247.69
514.286	38128.91
514.488	38343.95
514.69	39308.54
514.893	39427.32
515.095	39587.07
515.297	40170.74
515.499	39982.32
515.701	40713.45
515.904	41383.13
516.106	41278.69
516.308	41692.38
516.51	42265.81
516.712	42435.79
516.914	42984.65
517.116	43875.51
517.318	43506.88
517.52	44115.12
517.722	43908.28
517.925	45012.13
518.127	45317.28
518.329	45362.34
518.531	45493.41
518.733	46017.69
518.935	46582.93
519.136	46587.02
519.338	47664.25
519.54	47254.66
519.742	47750.27
519.944	48051.32
520.146	48667.76
520.348	49122.41
520.55	49159.27
520.752	49665.12
520.954	50400.34
521.155	50064.47
521.357	50388.05
521.559	50877.52
521.761	51958.84
521.963	51649.6
522.164	52171.83
522.366	51889.21
522.568	52515.89
522.77	53036.08
522.971	53640.23
523.173	52907.05
523.375	54070.3
523.576	54197.27
523.778	54045.72
523.98	54488.09
524.181	54627.35
524.383	54905.87
524.584	55413.77
524.786	55471.11
524.988	55854.08
525.189	56372.22
525.391	56534.01
525.592	57054.19
525.794	57093.1
525.995	57007.09
526.197	57326.57
526.398	57404.39
526.6	57924.58
526.801	58094.56
527.003	58145.76
527.204	58020.83
527.406	59225.04
527.607	58825.68
527.808	59571.14
528.01	58395.61
528.211	59182.03
528.412	60101.57
528.614	59534.28
528.815	59581.38
529.016	60308.41
529.218	59073.49
529.419	59995.07
529.62	59988.93
529.822	60126.14
530.023	60214.21
530.224	61023.15
530.425	60713.91
530.626	60175.3
530.828	60255.17
531.029	61541.29
531.23	60556.22
531.431	61049.78
531.632	61088.69
531.833	60881.84
532.035	61135.79
532.236	61143.98
532.437	61598.63
532.638	61156.27
532.839	61952.93
533.04	61729.7
533.241	61418.41
533.442	62307.23
533.643	61787.05
533.844	62120.87
534.045	61746.09
534.246	61019.06
534.447	62084
534.648	61860.77
534.849	61887.4
535.05	61862.82
535.251	61852.58
535.451	61893.54
535.652	62098.34
535.853	61975.46
536.054	62323.61
536.255	62376.86
536.456	62036.9
536.657	62401.44
536.857	61758.37
537.058	61737.9
537.259	62311.33
537.46	62466.97
537.66	62047.14
537.861	62303.13
538.062	61971.36
538.263	62278.56
538.463	61811.62
538.664	61791.14
538.865	62421.92
539.065	62317.47
539.266	61889.44
539.466	62442.4
539.667	61739.94
539.868	62581.66
540.068	62247.84
540.269	61795.24
540.469	62516.12
540.67	61909.92
540.87	62202.78
541.071	62028.71
541.271	62065.57
541.472	62040.99
541.672	62077.86
541.873	62055.33
542.073	61307.82
542.274	62444.44
542.474	62053.28
542.675	61557.67
542.875	62319.52
543.075	62100.39
543.276	61508.52
543.476	62360.48
543.676	61893.54
543.877	62331.81
544.077	61895.59
544.277	61991.84
544.478	61731.75
544.678	61987.75
544.878	61608.87
545.078	61750.18
545.279	61481.9
545.479	61545.39
545.679	61752.23
545.879	61756.33
546.079	61576.11
546.28	61877.16
546.48	61430.7
546.68	61897.64
546.88	62032.8
547.08	61594.54
547.28	61705.13
547.48	61219.76
547.68	61533.1
547.88	61463.47
548.081	62034.85
548.281	61660.07
548.481	61303.73
548.681	62008.23
548.881	61719.46
549.081	61674.41
549.28	60877.75
549.48	61754.28
549.68	61098.93
549.88	62296.99
550.08	61008.82
550.28	61950.88
550.48	61512.62
550.68	61717.42
550.88	60828.6
551.08	61549.48
551.279	61483.95
551.479	60818.36
551.679	61295.53
551.879	61041.59
552.079	61348.78
552.278	61033.39
552.478	60853.17
552.678	61395.88
552.878	61049.78
553.077	61311.92
553.277	60578.74
553.477	62053.28
553.676	60951.48
553.876	61221.81
554.076	60935.09
554.275	60775.35
554.475	60484.54
554.674	61430.7
554.874	60685.24
555.074	60824.5
555.273	60775.35
555.473	61168.56
555.672	60476.35
555.872	60525.5
556.071	60652.47
556.271	60865.46
556.47	60351.42
556.67	60099.52
556.869	60580.79
557.068	60525.5
557.268	60201.92
557.467	60210.11
557.667	59945.92
557.866	60144.58
558.065	59976.64
558.265	59911.11
558.464	59464.65
558.663	60550.07
558.863	59306.96
559.062	60281.79
559.261	59200.46
559.461	59990.98
559.66	58854.36
559.859	59104.21
560.058	58940.37
560.258	59161.55
560.457	59194.32
560.656	59395.02
560.855	58790.87
561.054	58923.99
561.253	58592.22
561.453	58629.08
561.652	59005.9
561.851	59087.82
562.05	58495.96
562.249	58274.78
562.448	58483.67
562.647	58389.47
562.846	57969.63
563.045	58405.85
563.244	57603.05
563.443	58399.71
563.642	57314.28
563.841	57670.63
564.04	57781.22
564.239	57900
564.438	57256.94
564.637	57293.8
564.836	57553.9
565.035	56691.7
565.234	57564.13
565.432	56761.33
565.631	56730.61
565.83	57121.77
566.029	56296.44
566.228	56349.69
566.427	56347.64
566.625	56421.37
566.824	55684.1
567.023	56392.7
567.222	55233.55
567.42	56318.97
567.619	55761.92
567.818	55811.07
568.016	55335.94
568.215	55798.79
568.414	54963.21
568.612	55659.52
568.811	55391.24
569.01	55143.44
569.208	54402.07
569.407	55200.78
569.605	54178.84
569.804	54717.46
570.002	54211.61
570.201	54467.61
570.4	53713.95
570.598	53785.63
570.797	53507.11
570.995	53791.78
571.193	53558.31
571.392	53705.76
571.59	53586.98
571.789	53754.91
571.987	52984.88
572.186	52825.14
572.384	52714.54
572.582	53206.06
572.781	52931.63
572.979	52157.5
573.177	52321.33
573.376	52374.58
573.574	51985.47
573.772	52188.22
573.971	51954.75
574.169	51493.96
574.367	51065.93
574.565	51668.03
574.763	51514.44
574.962	51453
575.16	50736.21
575.358	51153.99
575.556	50383.96
575.754	51283.01
575.952	50637.9
576.151	50984.01
576.349	50091.1
576.547	50256.98
576.745	50633.81
576.943	49968.22
577.141	50097.24
577.339	50246.74
577.537	49818.72
577.735	49794.14
577.933	49386.6
578.131	49435.75
578.329	49224.81
578.527	48815.21
578.725	48972.91
578.923	49050.73
579.121	48475.25
579.319	48759.92
579.516	48598.13
579.714	48141.43
579.912	48393.33
580.11	47903.87
580.308	47789.18
580.506	47860.86
580.704	47256.71
580.901	47733.88
581.099	47821.95
581.297	47322.24
581.495	47299.72
581.692	47422.59
581.89	46857.35
582.088	47199.37
582.285	46572.69
582.483	47193.22
582.681	47115.4
582.878	46920.84
583.076	46498.96
583.274	46736.52
583.471	45917.34
583.669	46212.24
583.866	45647
584.064	45831.32
584.262	45341.86
584.459	45829.27
584.657	45517.98
584.854	45821.08
585.052	44856.49
585.249	45059.24
585.447	45243.55
585.644	44895.4
585.841	44799.15
586.039	44549.29
586.236	44483.76
586.434	44737.71
586.631	44106.93
586.828	44321.97
587.026	44139.7
587.223	44479.66
587.42	43846.84
587.618	44020.92
587.815	43447.49
588.012	43394.24
588.21	43128
588.407	43490.49
588.604	42865.86
588.801	42775.75
588.999	43140.29
589.196	42847.43
589.393	42548.43
589.59	42777.8
589.787	42044.63
589.984	42104.02
590.182	42204.37
590.379	42200.27
590.576	41551.07
590.773	42218.71
590.97	41569.5
591.167	41772.25
591.364	41215.2
591.561	41413.85
591.758	40658.15
591.955	40852.71
592.152	41317.6
592.349	40783.08
592.546	40727.78
592.743	40756.46
592.94	40455.4
593.137	40361.2
593.334	40496.36
593.531	40113.39
593.727	40275.18
593.924	39830.77
594.121	39431.42
594.318	39859.45
594.515	39435.52
594.712	39869.68
594.908	39083.26
595.105	39566.59
595.302	38929.67
595.499	38956.29
595.696	39005.44
595.892	38683.91
596.089	38800.65
596.286	39003.39
596.482	38309.13
596.679	37936.4
596.876	38688.01
597.072	37913.87
597.269	38436.11
597.466	37905.68
597.662	37723.41
597.859	37893.4
598.055	37698.84
598.252	37416.22
598.448	37281.05
598.645	37121.31
598.841	37047.58
599.038	36980
599.234	37012.77
599.431	36525.35
599.627	36719.91
599.824	36748.58
600.02	36435.24
600.217	36400.43
600.413	36435.24
600.609	35960.11
600.806	36109.61
601.002	36031.79
601.198	35904.82
601.395	35601.72
601.591	35636.53
601.787	35599.67
601.984	35403.07
602.18	35986.74
602.376	35085.63
602.572	35018.05
602.769	35347.77
602.965	34264.39
603.161	34649.41
603.357	34606.41
603.553	34479.43
603.75	34671.94
603.946	34338.12
604.142	34491.72
604.338	33862.99
604.534	34417.99
604.73	33549.65
604.926	33690.96
605.122	34110.8
605.318	33602.9
605.514	33551.7
605.71	33330.52
605.906	33316.18
606.102	33365.34
606.298	33305.95
606.494	33414.49
606.69	33166.68
606.886	33342.81
607.082	32570.72
607.278	33144.16
607.474	32126.32
607.67	32968.03
607.866	32355.69
608.062	32531.81
608.257	32064.88
608.453	32167.27
608.649	32292.2
608.845	32154.99
609.041	31966.57
609.236	32007.53
609.432	31954.29
609.628	32009.58
609.824	31800.69
610.019	31704.43
610.215	31835.5
610.411	31743.34
610.606	31399.29
610.802	31561.08
610.998	31186.3
611.193	31497.59
611.389	31477.11
611.584	31143.29
611.78	30817.66
611.976	30729.6
612.171	31169.91
612.367	30979.45
612.562	30664.07
612.758	30274.95
612.953	30451.08
613.149	30537.09
613.344	30135.69
613.539	30856.57
613.735	30590.34
613.93	30694.78
614.126	30164.36
614.321	30528.9
614.517	30133.64
614.712	29930.89
614.907	29996.43
615.103	30403.97
615.298	29781.39
615.493	30051.72
615.688	29560.21
615.884	30295.43
616.079	29584.79
616.274	29957.52
616.47	29691.28
616.665	29760.91
616.86	29623.7
617.055	29271.45
617.25	29109.66
617.445	29744.53
617.641	29066.65
617.836	29580.69
618.031	28804.51
618.226	29037.98
618.421	28755.36
618.616	29048.22
618.811	28237.22
619.006	29121.94
619.201	28179.88
619.396	28532.13
619.591	27948.46
619.786	28233.13
619.981	27481.52
620.176	28231.08
620.371	27751.85
620.566	27811.24
620.761	27674.03
620.956	27706.8
621.151	27119.03
621.346	27612.59
621.541	26850.75
621.735	27289.01
621.93	26727.87
622.125	26660.29
622.32	26480.07
622.515	26713.53
622.709	26412.48
622.904	26359.24
623.099	26168.77
623.294	26256.84
623.488	25785.8
623.683	25628.11
623.878	25589.2
624.072	25427.41
624.267	25374.16
624.462	25382.35
624.656	25062.87
624.851	24913.37
625.046	24610.27
625.24	24925.66
625.435	24557.02
625.629	24823.26
625.824	24362.47
626.018	24233.44
626.213	23576.05
626.407	23901.67
626.602	23715.31
626.796	23922.15
626.991	23657.96
627.185	23721.45
627.38	23520.75
627.574	23115.25
627.768	22996.47
627.963	22877.69
628.157	22826.49
628.352	22949.37
628.546	22144.52
628.74	22611.45
628.935	22175.23
629.129	22543.87
629.323	22318.59
629.517	22076.93
629.712	21886.47
629.906	21614.09
630.1	21485.07
630.294	21947.91
630.489	21308.94
630.683	21624.33
630.877	21001.75
631.071	21028.37
631.265	21202.45
631.459	20942.36
631.653	20923.93
631.848	20649.5
632.042	20543
632.236	20604.44
632.43	20338.21
632.624	20248.1
632.818	20080.16
633.012	20069.92
633.206	20039.2
633.4	19838.5
633.594	19643.95
633.788	19881.51
633.982	19543.6
634.176	19463.72
634.369	19205.68
634.563	19410.48
634.757	19174.96
634.951	19179.06
635.145	18859.57
635.339	19150.39
635.533	18691.64
635.726	19039.79
635.92	18443.84
636.114	18296.38
636.308	18382.4
636.501	18488.89
636.695	18286.14
636.889	17780.29
637.083	18169.41
637.276	18040.39
637.47	17782.34
637.664	17679.94
637.857	17634.89
638.051	17497.67
638.244	17452.62
638.438	17667.66
638.632	17200.72
638.825	17047.12
639.019	17208.91
639.212	16844.37
639.406	16825.94
639.599	16848.47
639.793	16946.77
639.986	16514.65
640.18	16557.66
640.373	16520.79
640.567	16395.87
640.76	16221.79
640.954	16221.79
641.147	16076.38
641.34	15863.4
641.534	15773.28
641.727	15937.12
641.92	15812.2
642.114	15545.96
642.307	15535.72
642.5	15451.75
642.694	15443.56
642.887	15365.74
643.08	15496.81
643.273	15214.19
643.467	15060.59
643.66	15220.33
643.853	14745.2
644.046	14675.57
644.239	14724.72
644.432	14757.49
644.626	14583.41
644.819	14354.04
645.012	14351.99
645.205	14485.11
645.398	14368.38
645.591	14182.01
645.784	14210.68
645.977	13981.31
646.17	13831.81
646.363	13856.39
646.556	13868.67
646.749	14016.13
646.942	13885.06
647.135	13567.62
647.328	13799.04
647.521	13514.38
647.714	13473.42
647.907	13358.73
648.099	13024.91
648.292	13330.06
648.485	13293.19
648.678	13100.69
648.871	12981.9
649.064	12846.74
649.256	13035.15
649.449	12842.64
649.642	12756.63
649.835	12672.66
650.027	12660.37
650.22	12639.89
650.413	12746.39
650.605	12680.85
650.798	12224.15
650.991	12123.8
651.183	12275.35
651.376	11919.01
651.568	12132
651.761	12031.65
651.954	11970.21
652.146	11978.4
652.339	12150.43
652.531	11857.57
652.724	11570.85
652.916	11663.01
653.109	11740.83
653.301	11458.21
653.494	11421.35
653.686	11341.48
653.879	11417.26
654.071	11437.73
654.263	11224.75
654.456	11384.49
654.648	11034.28
654.84	11017.9
655.033	10962.61
655.225	10911.41
655.417	11085.48
655.61	11122.35
655.802	10882.74
655.994	10806.96
656.186	10749.62
656.379	10923.69
656.571	10573.49
656.763	10389.17
656.955	10577.59
657.148	10579.64
657.34	10309.3
657.532	10337.98
657.724	10356.41
657.916	10299.06
658.108	10196.67
658.3	9971.39
658.492	10249.91
658.684	10010.3
658.876	10086.08
659.068	10000.06
659.26	9930.43
659.452	9858.75
659.644	9938.62
659.836	9721.54
660.028	9760.45
660.22	9524.93
660.412	9690.82
660.604	9283.27
660.796	9359.05
660.988	9453.25
661.18	9352.9
661.372	9359.05
661.563	9352.9
661.755	9070.28
661.947	9078.47
662.139	9094.86
662.331	9115.34
662.522	9090.76
662.714	9047.76
662.906	8967.88
663.097	8736.46
663.289	8943.31
663.481	8832.72
663.673	8926.93
663.864	8822.48
664.056	8627.92
664.247	8828.62
664.439	8584.91
664.631	8591.06
664.822	8660.69
665.014	8525.52
665.205	8365.78
665.397	8247
665.588	8427.22
665.78	8560.34
665.971	8345.3
666.163	8367.83
666.354	8251.1
666.546	8171.22
666.737	8103.64
666.929	8191.7
667.12	8036.06
667.311	8144.6
667.503	7968.48
667.694	8117.98
667.885	7804.64
668.077	7876.32
668.268	7853.79
668.459	7761.63
668.651	7755.49
668.842	7655.14
669.033	7681.76
669.224	7761.63
669.416	7706.34
669.607	7620.32
669.798	7562.98
669.989	7550.69
670.18	7622.37
670.371	7655.14
670.563	7436
670.754	7538.4
670.945	7274.21
671.136	7483.11
671.327	7290.6
671.518	7456.48
671.709	7167.72
671.9	7370.47
672.091	7290.6
672.282	7235.3
672.473	7077.61
672.664	7370.47
672.855	7001.83
673.046	7208.68
673.237	7274.21
673.428	7177.96
673.619	7089.9
673.809	7020.27
674	6930.16
674.191	7214.82
674.382	6846.19
674.573	7104.23
674.764	7012.07
674.954	6749.93
675.145	6764.27
675.336	6715.12
675.527	6661.87
675.717	6784.75
675.908	6663.92
676.099	6811.37
676.289	6803.18
676.48	6827.76
676.671	6575.86
676.861	6735.6
677.052	6584.05
677.243	6735.6
677.433	6739.69
677.624	6723.31
677.814	6575.86
678.005	6639.34
678.195	6498.03
678.386	6567.67
678.576	6444.79
678.767	6514.42
678.957	6541.04
679.148	6647.54
679.338	6598.38
679.529	6401.78
679.719	6485.75
679.909	6543.09
680.1	6393.59
680.29	6256.37
680.481	6510.32
680.671	6459.12
680.861	6231.8
681.052	6438.64
681.242	6336.24
681.432	6366.96
681.622	6227.7
681.813	6338.29
682.003	6319.86
682.193	6244.09
682.383	6344.44
682.573	6088.44
682.764	6117.11
682.954	6248.18
683.144	6180.6
683.334	6268.66
683.524	6209.27
683.714	6254.33
683.904	6207.22
684.094	6119.16
684.284	6104.82
684.474	6141.69
684.664	6049.53
684.854	6217.46
685.044	5961.47
685.234	6088.44
685.424	5879.55
685.614	5897.98
685.804	5930.75
685.994	6143.74
686.184	5994.23
686.374	5988.09
686.564	5932.79
686.753	6135.54
686.943	5713.66
687.133	5818.11
687.323	5748.48
687.513	5738.24
687.702	5701.37
687.892	5742.33
688.082	5719.81
688.272	5814.01
688.461	5793.53
688.651	5750.53
688.841	5572.35
689.03	5719.81
689.22	5793.53
689.41	5646.08
689.599	5740.29
689.789	5789.44
689.979	5519.11
690.168	5472
690.358	5326.6
690.547	5326.6
690.737	5472
690.926	5297.92
691.116	5070.6
691.305	5224.2
691.495	5117.7
691.684	5359.36
691.874	5322.5
692.063	5248.77
692.252	5254.92
692.442	5160.71
692.631	5179.14
692.82	5191.43
693.01	5060.36
693.199	5170.95
693.388	4962.06
693.578	5093.13
693.767	5046.02
693.956	5003.02
694.146	5000.97
694.335	4882.19
694.524	4947.72
694.713	4857.61
694.902	4921.1
695.092	4947.72
695.281	4941.58
695.47	5058.31
695.659	4740.88
695.848	5027.59
696.037	4896.52
696.226	4992.78
696.415	4671.25
696.604	4914.95
696.793	4900.62
696.982	4849.42
697.171	4914.95
697.36	4663.05
697.549	4757.26
697.738	4734.73
697.927	4763.4
698.116	4871.95
698.305	4744.97
698.494	4828.94
698.683	4554.51
698.872	4919.05
699.061	4704.01
699.25	4794.12
699.438	4646.67
699.627	4697.87
699.816	4699.92
700.005	4636.43
700.193	4677.39
700.382	4716.3
700.571	4534.03
700.76	4572.94
700.948	4648.72
701.137	4632.33
701.326	4595.47
701.514	4538.13
701.703	4536.08
701.892	4579.09
702.08	4738.83
702.269	4501.26
702.457	4581.14
702.646	4581.14
702.834	4568.85
703.023	4607.76
703.212	4560.66
703.4	4462.35
703.589	4529.94
703.777	4388.63
703.965	4583.18
704.154	4540.18
704.342	4583.18
704.531	4421.39
704.719	4384.53
704.907	4464.4
705.096	4618
705.284	4554.51
705.472	4597.52
705.661	4538.13
705.849	4448.02
706.037	4597.52
706.226	4394.77
706.414	4343.57
706.602	4300.56
706.79	4499.22
706.979	4386.58
707.167	4448.02
707.355	4433.68
707.543	4364.05
707.731	4282.13
707.919	4253.46
708.107	4335.38
708.296	4531.98
708.484	4319
708.672	4620.05
708.86	4388.63
709.048	4368.15
709.236	4312.85
709.424	4486.93
709.612	4413.2
709.8	4294.42
709.988	4357.91
710.176	4372.24
710.364	4278.04
710.551	4441.87
710.739	4288.28
710.927	4347.67
711.115	4278.04
711.303	4261.65
711.491	4271.89
711.679	4415.25
711.866	4368.15
712.054	4255.51
712.242	4230.93
712.43	4269.84
712.617	4347.67
712.805	4351.76
712.993	4243.22
713.181	4220.69
713.368	4120.34
713.556	4384.53
713.744	4120.34
713.931	4335.38
714.119	4409.11
714.306	4247.32
714.494	4398.87
714.682	4173.59
714.869	4038.42
715.057	4251.41
715.244	4220.69
715.432	4267.8
715.619	4175.64
715.807	4253.46
715.994	4222.74
716.182	4265.75
716.369	4249.36
716.556	4212.5
716.744	4226.84
716.931	4237.08
717.119	4169.49
717.306	4310.8
717.493	4079.38
717.681	4228.88
717.868	4208.41
718.055	4155.16
718.242	4228.88
718.43	4243.22
718.617	4251.41
718.804	4423.44
718.991	4169.49
719.179	4167.45
719.366	4124.44
719.553	4122.39
719.74	4286.23
719.927	4140.82
720.114	4187.93
720.301	4138.77
720.488	4171.54
720.676	4212.5
720.863	4202.26
721.05	4144.92
721.237	4073.24
721.424	4149.01
721.611	4040.47
721.798	4108.05
721.985	3983.13
722.172	4050.71
722.358	4081.43
722.545	3946.27
722.732	4019.99
722.919	4114.2
723.106	3958.55
723.293	3919.64
723.48	4024.09
723.667	4161.3
723.853	4046.62
724.04	4208.41
724.227	4110.1
724.414	3919.64
724.6	4065.05
724.787	4106.01
724.974	3944.22
725.161	3995.42
725.347	3989.27
725.534	3929.88
725.72	4001.56
725.907	3993.37
726.094	3946.27
726.28	3936.03
726.467	4046.62
726.653	3968.79
726.84	3968.79
727.027	3991.32
727.213	3899.16
727.4	3872.54
727.586	3823.39
727.773	4011.8
727.959	3864.35
728.145	4026.14
728.332	3950.36
728.518	3989.27
728.705	3901.21
728.891	3981.08
729.077	3921.69
729.264	3946.27
729.45	3893.02
729.636	3964.7
729.823	3841.82
730.009	3925.79
730.195	3913.5
730.382	4005.66
730.568	3694.36
730.754	3909.4
730.94	3802.91
731.126	3817.24
731.313	3813.15
731.499	3837.72
731.685	3856.15
731.871	3794.72
732.057	3725.08
732.243	3856.15
732.429	3825.43
732.615	3888.92
732.801	3915.55
732.987	3811.1
733.173	3835.67
733.359	3858.2
733.545	3774.24
733.731	3825.43
733.917	3807
734.103	3802.91
734.289	3759.9
734.475	3774.24
734.661	3872.54
734.847	3684.13
735.033	3751.71
735.219	3647.26
735.404	3624.73
735.59	3655.45
735.776	3626.78
735.962	3751.71
736.148	3628.83
736.333	3571.49
736.519	3718.94
736.705	3680.03
736.89	3606.3
737.076	3594.01
737.262	3632.93
737.447	3630.88
737.633	3505.95
737.819	3626.78
738.004	3454.75
738.19	3608.35
738.375	3491.62
738.561	3704.6
738.747	3514.14
738.932	3467.04
739.118	3376.93
739.303	3483.42
739.489	3450.66
739.674	3419.94
739.859	3530.53
740.045	3495.71
740.23	3421.99
740.416	3424.03
740.601	3503.9
740.786	3450.66
740.972	3307.3
741.157	3430.18
741.342	3295.01
741.528	3299.11
741.713	3395.36
741.898	3356.45
742.084	3409.7
742.269	3315.49
742.454	3237.67
742.639	3381.03
742.824	3256.1
743.01	3198.76
743.195	3292.96
743.38	3170.08
743.565	3286.82
743.75	3147.56
743.935	3112.74
744.12	3184.42
744.305	3104.55
744.49	3206.95
744.675	3118.89
744.86	3116.84
745.045	3082.02
745.23	3092.26
745.415	3049.25
745.6	3055.4
745.785	3024.68
745.97	3116.84
746.155	2856.75
746.34	2903.85
746.525	2940.71
746.71	2899.75
746.895	2957.1
747.079	2918.18
747.264	2815.79
747.449	2979.62
747.634	2836.27
747.819	2787.11
748.003	2821.93
748.188	2713.39
748.373	2776.87
748.557	2770.73
748.742	2555.69
748.927	2680.62
749.111	2758.44
749.296	2725.68
749.481	2584.37
749.665	2623.28
749.85	2613.04
750.034	2682.67
750.219	2547.5
750.404	2545.45
750.588	2610.99
750.773	2455.34
750.957	2545.45
751.141	2469.68
751.326	2486.06
751.51	2471.73
751.695	2420.53
751.879	2580.27
752.064	2522.93
752.248	2389.81
752.432	2432.82
752.617	2359.09
752.801	2416.43
752.985	2332.47
753.17	2385.71
753.354	2328.37
753.538	2352.95
753.722	2281.27
753.907	2307.89
754.091	2225.97
754.275	2240.31
754.459	2242.36
754.643	2193.2
754.828	2225.97
755.012	2152.24
755.196	2099
755.38	2072.37
755.564	2150.2
755.748	2107.19
755.932	2049.85
756.116	2072.37
756.3	2058.04
756.484	2035.51
756.668	2080.57
756.852	1978.17
757.036	2006.84
757.22	1976.12
757.404	1888.06
757.588	1896.25
757.772	2017.08
757.956	1855.29
758.14	1939.26
758.323	1789.75
758.507	1980.22
758.691	1881.91
758.875	1699.64
759.059	1843
759.242	1836.86
759.426	1814.33
759.61	1808.19
759.794	1855.29
759.977	1767.23
760.161	1879.86
760.345	1804.09
760.528	1836.86
760.712	1773.37
760.895	1726.27
761.079	1771.32
761.263	1617.72
761.446	1634.11
761.63	1718.08
761.813	1699.64
761.997	1736.51
762.18	1699.64
762.364	1679.16
762.547	1650.49
762.731	1695.55
762.914	1677.12
763.098	1615.68
763.281	1619.77
763.464	1556.29
763.648	1685.31
763.831	1591.1
764.015	1529.66
764.198	1589.05
764.381	1535.81
764.564	1611.58
764.748	1574.72
764.931	1503.04
765.114	1601.34
765.297	1482.56
765.481	1511.23
765.664	1500.99
765.847	1566.53
766.03	1582.91
766.213	1507.13
766.397	1486.65
766.58	1437.5
766.763	1482.56
766.946	1529.66
767.129	1435.46
767.312	1476.41
767.495	1523.52
767.678	1482.56
767.861	1488.7
768.044	1488.7
768.227	1421.12
768.41	1488.7
768.593	1402.69
768.776	1394.5
768.959	1435.46
769.142	1396.54
769.324	1427.26
769.507	1398.59
769.69	1214.27
769.873	1320.77
770.056	1335.1
770.239	1296.19
770.421	1425.22
770.604	1234.75
770.787	1306.43
770.97	1322.82
771.152	1419.07
771.335	1271.62
771.518	1312.58
771.7	1267.52
771.883	1337.15
772.066	1247.04
772.248	1318.72
772.431	1294.15
772.613	1294.15
772.796	1244.99
772.978	1218.37
773.161	1206.08
773.343	1242.95
773.526	1173.32
773.708	1138.5
773.891	1095.49
774.073	1113.92
774.256	1242.95
774.438	1146.69
774.621	1140.55
774.803	1099.59
774.985	1097.54
775.168	1122.12
775.35	1062.73
775.532	1023.81
775.715	1099.59
775.897	1048.39
776.079	1062.73
776.261	1140.55
776.444	1095.49
776.626	1005.38
776.808	980.81
776.99	995.14
777.173	1025.86
777.355	972.61
777.537	1093.44
777.719	935.75
777.901	958.28
778.083	1003.33
778.265	921.42
778.447	952.13
778.629	968.52
778.811	948.04
778.993	966.47
779.175	956.23
779.357	919.37
779.539	915.27
779.721	964.42
779.903	1050.44
780.085	872.26
780.267	900.94
780.449	878.41
780.631	892.74
780.812	837.45
780.994	919.37
781.176	909.13
781.358	825.16
781.54	759.63
781.721	808.78
781.903	866.12
782.085	802.63
782.267	841.54
782.448	878.41
782.63	841.54
782.812	819.02
782.993	833.35
783.175	765.77
783.357	874.31
783.538	771.91
783.72	673.61
783.901	677.71
784.083	730.95
784.264	673.61
784.446	780.11
784.627	681.8
784.809	821.06
784.99	733
785.172	646.99
785.353	718.67
785.535	726.86
785.716	761.67
785.897	681.8
786.079	747.34
786.26	649.04
786.441	661.32
786.623	673.61
786.804	681.8
786.985	655.18
787.167	700.23
787.348	632.65
787.529	675.66
787.71	575.31
787.891	663.37
788.073	603.98
788.254	603.98
788.435	649.04
788.616	589.64
788.797	550.73
788.978	599.88
789.159	575.31
789.34	524.11
789.522	513.87
789.703	565.07
789.884	573.26
790.065	577.36
790.246	644.94
790.427	567.12
790.607	579.4
790.788	642.89
790.969	532.3
791.15	505.68
791.331	534.35
791.512	552.78
791.693	515.92
791.874	491.34
792.054	569.16
792.235	554.83
792.416	499.53
792.597	505.68
792.778	526.16
792.958	468.81
793.139	483.15
793.32	474.96
793.5	495.44
793.681	419.66
793.862	530.25
794.042	472.91
794.223	339.79
794.404	456.53
794.584	515.92
794.765	417.61
794.945	495.44
795.126	497.49
795.306	481.1
795.487	513.87
795.667	464.72
795.848	462.67
796.028	427.85
796.209	493.39
796.389	456.53
796.57	454.48
796.75	380.75
796.93	446.29
797.111	493.39
797.291	366.42
797.471	477.01
797.652	520.01
797.832	337.74
798.012	419.66
798.192	364.37
798.373	427.85
798.553	442.19
798.733	374.61
798.913	368.46
799.093	368.46
799.274	395.09
799.454	431.95
799.634	382.8
799.814	370.51
799.994	386.9
800.174	378.7
800.354	360.27
800.534	376.66
800.714	450.38
800.894	397.14
801.074	304.98
801.254	352.08
801.434	354.13
801.614	411.47
801.794	399.18
801.974	886.6
802.154	302.93
802.334	378.7
802.514	417.61
802.693	274.26
802.873	331.6
803.053	360.27
803.233	319.31
803.413	358.22
803.592	231.25
803.772	300.88
803.952	325.46
804.131	294.74
804.311	327.5
804.491	405.33
804.67	319.31
804.85	292.69
805.03	323.41
805.209	366.42
805.389	282.45
805.568	278.35
805.748	319.31
805.928	405.33
806.107	345.94
806.287	329.55
806.466	343.89
806.646	321.36
806.825	309.07
807.004	347.98
807.184	347.98
807.363	304.98
807.543	327.5
807.722	282.45
807.901	286.54
808.081	304.98
808.26	190.29
808.439	323.41
808.619	288.59
808.798	327.5
808.977	266.07
809.156	315.22
809.336	294.74
809.515	302.93
809.694	257.87
809.873	278.35
810.052	329.55
810.231	347.98
810.411	278.35
810.59	300.88
810.769	264.02
810.948	337.74
811.127	284.5
811.306	245.59
811.485	259.92
811.664	307.02
811.843	266.07
812.022	227.15
812.201	300.88
812.38	288.59
812.559	239.44
812.737	331.6
812.916	218.96
813.095	266.07
813.274	282.45
813.453	235.35
813.632	182.1
813.811	284.5
813.989	173.91
814.168	280.4
814.347	216.91
814.526	288.59
814.704	245.59
814.883	333.65
815.062	245.59
815.24	221.01
815.419	169.81
815.598	264.02
815.776	143.19
815.955	245.59
816.133	239.44
816.312	163.67
816.49	167.76
816.669	184.15
816.847	151.38
817.026	239.44
817.204	221.01
817.383	231.25
817.561	202.58
817.74	178
817.918	247.63
818.097	204.63
818.275	182.1
818.453	251.73
818.632	188.24
818.81	208.72
818.988	194.39
819.167	235.35
819.345	147.28
819.523	188.24
819.701	259.92
819.879	106.32
820.058	218.96
820.236	255.83
820.414	126.8
820.592	214.87
820.77	161.62
820.948	239.44
821.127	192.34
821.305	247.63
821.483	194.39
821.661	182.1
821.839	311.12
822.017	143.19
822.195	155.47
822.373	229.2
822.551	161.62
822.729	190.29
822.907	94.04
823.085	145.24
823.262	186.19
823.44	186.19
823.618	85.84
823.796	186.19
823.974	112.47
824.152	163.67
824.329	173.91
824.507	245.59
824.685	182.1
824.863	253.78
825.04	67.41
825.218	143.19
825.396	198.48
825.574	198.48
825.751	180.05
825.929	155.47
826.107	106.32
826.284	190.29
826.462	118.61
826.639	141.14
826.817	79.7
826.994	141.14
827.172	161.62
827.349	198.48
827.527	116.56
827.704	145.24
827.882	132.95
828.059	135
828.237	141.14
828.414	171.86
828.591	85.84
828.769	210.77
828.946	186.19
829.124	161.62
829.301	190.29
829.478	147.28
829.655	167.76
829.833	98.13
830.01	69.46
830.187	200.53
830.364	147.28
830.542	124.76
830.719	210.77
830.896	108.37
831.073	141.14
831.25	132.95
831.427	141.14
831.604	223.06
831.782	100.18
831.959	112.47
832.136	165.71
832.313	163.67
832.49	167.76
832.667	143.19
832.844	87.89
833.021	171.86
833.198	114.52
833.374	130.9
833.551	147.28
833.728	104.28
833.905	171.86
834.082	112.47
834.259	59.22
834.436	163.67
834.612	120.66
834.789	204.63
834.966	153.43
835.143	135
835.319	108.37
835.496	79.7
835.673	94.04
835.85	145.24
836.026	182.1
836.203	124.76
836.38	100.18
836.556	116.56
836.733	79.7
836.909	122.71
837.086	157.52
837.262	57.17
837.439	112.47
837.616	81.75
837.792	100.18
837.968	112.47
838.145	118.61
838.321	137.04
838.498	128.85
838.674	77.65
838.851	112.47
839.027	137.04
839.203	73.56
839.38	104.28
839.556	98.13
839.732	141.14
839.909	94.04
840.085	118.61
840.261	32.6
840.437	137.04
840.614	71.51
840.79	83.8
840.966	116.56
841.142	175.95
841.318	63.32
841.494	149.33
841.671	102.23
841.847	118.61
842.023	26.45
842.199	87.89
842.375	126.8
842.551	26.45
842.727	32.6
842.903	169.81
843.079	98.13
843.255	96.08
843.431	120.66
843.607	98.13
843.783	55.12
843.959	51.03
844.134	18.26
844.31	186.19
844.486	141.14
844.662	51.03
844.838	108.37
845.013	57.17
845.189	77.65
845.365	42.84
845.541	42.84
845.716	73.56
845.892	59.22
846.068	104.28
846.244	34.64
846.419	83.8
846.595	75.6
846.77	63.32
846.946	59.22
847.122	83.8
847.297	77.65
847.473	124.76
847.648	59.22
847.824	55.12
847.999	44.88
848.175	53.08
848.35	106.32
848.526	-4.27
848.701	98.13
848.876	63.32
849.052	96.08
849.227	112.47
849.403	75.6
849.578	1.88
849.753	91.99
849.929	112.47
850.104	30.55
850.279	114.52
850.454	139.09
850.63	53.08
850.805	130.9
850.98	22.36
851.155	38.74
851.33	67.41
851.505	8.02
851.681	100.18
851.856	79.7
852.031	55.12
852.206	22.36
852.381	53.08
852.556	139.09
852.731	100.18
852.906	75.6
853.081	128.85
853.256	91.99
853.431	79.7
853.606	12.12
853.781	1.88
853.956	40.79
854.131	40.79
854.305	71.51
854.48	55.12
854.655	67.41
854.83	48.98
855.005	65.36
855.18	51.03
855.354	67.41
855.529	63.32
855.704	120.66
855.879	51.03
856.053	18.26
856.228	116.56
856.403	10.07
856.577	55.12
856.752	14.17
856.926	1.88
857.101	16.21
857.276	63.32
857.45	-30.89
857.625	91.99
857.799	87.89
857.974	32.6
858.148	71.51
858.323	-47.27
858.497	26.45
858.672	12.12
858.846	42.84
859.02	89.94
859.195	24.4
859.369	42.84
859.543	87.89
859.718	77.65
859.892	59.22
860.066	-16.55
860.241	30.55
860.415	69.46
860.589	14.17
860.763	8.02
860.938	79.7
861.112	38.74
861.286	-14.51
861.46	-10.41
861.634	59.22
861.808	91.99
861.982	40.79
862.157	34.64
862.331	-2.22
862.505	75.6
862.679	5.97
862.853	38.74
863.027	28.5
863.201	91.99
863.375	20.31
863.549	-26.79
863.722	32.6
863.896	83.8
864.07	-16.55
864.244	63.32
864.418	-6.31
864.592	36.69
864.766	77.65
864.939	87.89
865.113	-47.27
865.287	94.04
865.461	20.31
865.634	-45.23
865.808	59.22
865.982	26.45
866.156	44.88
866.329	30.55
866.503	-2.22
866.676	-6.31
866.85	18.26
867.024	59.22
867.197	40.79
867.371	34.64
867.544	59.22
867.718	12.12
867.891	55.12
868.065	-6.31
868.238	18.26
868.412	61.27
868.585	59.22
868.759	1.88
868.932	8.02
869.105	16.21
869.279	14.17
869.452	79.7
869.625	1.88
869.799	14.17
869.972	-75.95
870.145	-18.6
870.319	98.13
870.492	51.03
870.665	100.18
870.838	48.98
871.011	10.07
871.185	40.79
871.358	10.07
871.531	51.03
871.704	38.74
871.877	-8.36
872.05	3.93
872.223	55.12
872.396	-22.7
872.569	46.93
872.742	-57.51
872.915	34.64
873.088	18.26
873.261	10.07
873.434	100.18
873.607	-51.37
873.78	48.98
873.953	83.8
874.126	20.31
874.299	-41.13
874.471	-22.7
874.644	5.97
874.817	30.55
874.99	51.03
875.163	-22.7
875.335	34.64
875.508	10.07
875.681	-26.79
875.853	20.31
876.026	-14.51
876.199	44.88
876.371	-10.41
876.544	22.36
876.717	5.97
876.889	42.84
877.062	51.03
877.234	16.21
877.407	65.36
877.579	-10.41
877.752	1.88
877.924	79.7
878.097	-6.31
878.269	-4.27
878.442	-8.36
878.614	57.17
878.786	22.36
878.959	30.55
879.131	-12.46
879.303	-12.46
879.476	32.6
879.648	26.45
879.82	-20.65
879.993	63.32
880.165	81.75
880.337	-45.23
880.509	61.27
880.681	16.21
880.854	89.94
881.026	44.88
881.198	65.36
881.37	32.6
881.542	48.98
881.714	-2.22
881.886	36.69
882.058	-8.36
882.23	34.64
882.402	26.45
882.574	-45.23
882.746	18.26
882.918	83.8
883.09	85.84
883.262	57.17
883.434	-8.36
883.606	-24.75
883.778	-12.46
883.95	32.6
884.122	34.64
884.293	18.26
884.465	40.79
884.637	51.03
884.809	-71.85
884.98	71.51
885.152	-20.65
885.324	38.74
885.496	-127.14
885.667	-18.6
885.839	1.88
886.011	94.04
886.182	10.07
886.354	42.84
886.525	30.55
886.697	75.6
886.869	-84.14
887.04	-37.03
887.212	77.65
887.383	59.22
887.555	8.02
887.726	-10.41
887.897	8.02
888.069	59.22
888.24	-6.31
888.412	-41.13
888.583	114.52
888.754	-6.31
888.926	-53.42
889.097	12.12
889.268	14.17
889.44	-41.13
889.611	55.12
889.782	22.36
889.953	36.69
890.125	5.97
890.296	44.88
890.467	22.36
890.638	-61.61
890.809	16.21
890.98	-2.22
891.151	51.03
891.323	36.69
891.494	67.41
891.665	26.45
891.836	-14.51
892.007	22.36
892.178	-22.7
892.349	51.03
892.52	20.31
892.691	-12.46
892.862	46.93
893.032	-16.55
893.203	-12.46
893.374	-75.95
893.545	44.88
893.716	-14.51
893.887	96.08
894.057	-55.47
894.228	18.26
894.399	57.17
894.57	36.69
894.74	-0.17
894.911	32.6
895.082	14.17
895.253	-12.46
895.423	57.17
895.594	30.55
895.764	28.5
895.935	-41.13
896.106	22.36
896.276	42.84
896.447	42.84
896.617	65.36
896.788	-47.27
896.958	26.45
897.129	-6.31
897.299	67.41
897.47	59.22
897.64	42.84
897.81	-14.51
897.981	16.21
898.151	-16.55
898.322	-8.36
898.492	104.28
898.662	1.88
898.832	34.64
899.003	18.26
899.173	-0.17
899.343	-47.27
899.513	-16.55
