Data from USB4F104151__182__10-27-54-406.txt Node

Date: Wed Mar 12 10:27:54 EDT 2025
User: louis
Spectrometer: USB4F10415
Trigger mode: 4
Integration Time (sec): 3.000000E-2
Scans to average: 1
Electric dark correction enabled: true
Nonlinearity correction enabled: false
Boxcar width: 0
XAxis mode: Wavelengths
Number of Pixels in Spectrum: 3648
>>>>>Begin Spectral Data<<<<<
178.204	-112.98
178.424	-112.98
178.644	-112.98
178.864	-104.79
179.084	-121.17
179.304	-20.82
179.524	9.9
179.744	44.71
179.964	-29.01
180.184	57
180.404	-14.68
180.624	-74.07
180.844	42.67
181.064	-43.35
181.283	34.47
181.503	-10.58
181.723	3.75
181.943	30.38
182.163	-6.49
182.383	-10.58
182.602	-8.53
182.822	59.05
183.042	63.15
183.262	73.39
183.482	-43.35
183.701	-35.16
183.921	-12.63
184.141	40.62
184.361	1.71
184.58	22.19
184.8	7.85
185.02	-14.68
185.239	26.28
185.459	24.23
185.679	-22.87
185.898	34.47
186.118	-8.53
186.338	59.05
186.557	26.28
186.777	-2.39
186.997	13.99
187.216	5.8
187.436	67.24
187.655	40.62
187.875	89.77
188.095	-16.73
188.314	24.23
188.534	54.95
188.753	71.34
188.973	38.57
189.192	36.52
189.412	73.39
189.631	46.76
189.851	50.86
190.07	24.23
190.29	18.09
190.509	-63.83
190.729	-10.58
190.948	28.33
191.168	81.58
191.387	100.01
191.607	52.91
191.826	48.81
192.045	11.95
192.265	-35.16
192.484	44.71
192.704	40.62
192.923	22.19
193.142	73.39
193.362	28.33
193.581	-8.53
193.8	75.43
194.02	16.04
194.239	50.86
194.458	-10.58
194.678	81.58
194.897	69.29
195.116	16.04
195.335	67.24
195.555	32.43
195.774	30.38
195.993	59.05
196.212	30.38
196.432	-57.68
196.651	-2.39
196.87	65.19
197.089	48.81
197.308	46.76
197.528	7.85
197.747	13.99
197.966	102.06
198.185	77.48
198.404	-2.39
198.623	-8.53
198.842	-10.58
199.062	13.99
199.281	-8.53
199.5	71.34
199.719	28.33
199.938	22.19
200.157	75.43
200.376	48.81
200.595	48.81
200.814	1.71
201.033	-0.34
201.252	1.71
201.471	-74.07
201.69	59.05
201.909	65.19
202.128	16.04
202.347	-47.44
202.566	28.33
202.785	16.04
203.004	-31.06
203.223	79.53
203.442	13.99
203.661	-43.35
203.879	-29.01
204.098	5.8
204.317	-57.68
204.536	59.05
204.755	95.91
204.974	18.09
205.193	-4.44
205.411	91.82
205.63	30.38
205.849	18.09
206.068	75.43
206.287	-39.25
206.505	28.33
206.724	40.62
206.943	-39.25
207.162	-69.97
207.381	28.33
207.599	-35.16
207.818	67.24
208.037	-6.49
208.255	-8.53
208.474	-8.53
208.693	42.67
208.911	-86.36
209.13	34.47
209.349	54.95
209.567	65.19
209.786	-6.49
210.005	40.62
210.223	40.62
210.442	79.53
210.661	75.43
210.879	67.24
211.098	-12.63
211.316	50.86
211.535	134.82
211.753	18.09
211.972	40.62
212.191	-6.49
212.409	-20.82
212.628	57
212.846	67.24
213.065	46.76
213.283	89.77
213.502	-43.35
213.72	97.96
213.938	-45.4
214.157	-22.87
214.375	22.19
214.594	108.2
214.812	13.99
215.031	42.67
215.249	93.87
215.467	34.47
215.686	-43.35
215.904	48.81
216.122	-41.3
216.341	-2.39
216.559	-6.49
216.778	5.8
216.996	32.43
217.214	75.43
217.432	-14.68
217.651	16.04
217.869	-33.11
218.087	42.67
218.306	-16.73
218.524	38.57
218.742	36.52
218.96	71.34
219.179	-33.11
219.397	-29.01
219.615	132.78
219.833	34.47
220.051	32.43
220.27	-55.64
220.488	-0.34
220.706	-10.58
220.924	44.71
221.142	63.15
221.36	34.47
221.578	-6.49
221.796	38.57
222.015	52.91
222.233	28.33
222.451	42.67
222.669	46.76
222.887	26.28
223.105	75.43
223.323	13.99
223.541	7.85
223.759	-2.39
223.977	34.47
224.195	87.72
224.413	71.34
224.631	26.28
224.849	1.71
225.067	81.58
225.285	-8.53
225.503	-29.01
225.721	-82.26
225.939	18.09
226.157	36.52
226.375	104.11
226.592	-6.49
226.81	59.05
227.028	-2.39
227.246	106.15
227.464	-16.73
227.682	102.06
227.9	44.71
228.117	54.95
228.335	-16.73
228.553	-35.16
228.771	46.76
228.989	-49.49
229.206	32.43
229.424	24.23
229.642	13.99
229.86	20.14
230.077	63.15
230.295	22.19
230.513	57
230.731	44.71
230.948	77.48
231.166	132.78
231.384	-35.16
231.601	83.63
231.819	112.3
232.037	42.67
232.254	-2.39
232.472	77.48
232.689	-12.63
232.907	9.9
233.125	13.99
233.342	46.76
233.56	50.86
233.777	36.52
233.995	32.43
234.213	26.28
234.43	9.9
234.648	1.71
234.865	-39.25
235.083	34.47
235.3	81.58
235.518	5.8
235.735	85.67
235.953	106.15
236.17	16.04
236.388	59.05
236.605	44.71
236.822	18.09
237.04	-18.77
237.257	79.53
237.475	1.71
237.692	85.67
237.909	91.82
238.127	5.8
238.344	13.99
238.562	38.57
238.779	-47.44
238.996	-22.87
239.214	75.43
239.431	46.76
239.648	67.24
239.865	102.06
240.083	9.9
240.3	67.24
240.517	-10.58
240.735	54.95
240.952	65.19
241.169	97.96
241.386	1.71
241.603	34.47
241.821	28.33
242.038	18.09
242.255	42.67
242.472	-61.78
242.689	44.71
242.907	67.24
243.124	28.33
243.341	32.43
243.558	1.71
243.775	18.09
243.992	-10.58
244.209	57
244.426	106.15
244.643	38.57
244.86	9.9
245.078	85.67
245.295	40.62
245.512	42.67
245.729	18.09
245.946	52.91
246.163	42.67
246.38	-29.01
246.597	5.8
246.814	-14.68
247.031	-55.64
247.248	89.77
247.464	54.95
247.681	61.1
247.898	42.67
248.115	83.63
248.332	13.99
248.549	34.47
248.766	75.43
248.983	44.71
249.2	30.38
249.417	38.57
249.633	63.15
249.85	50.86
250.067	9.9
250.284	46.76
250.501	124.58
250.717	57
250.934	-39.25
251.151	-8.53
251.368	48.81
251.585	42.67
251.801	114.34
252.018	63.15
252.235	5.8
252.451	16.04
252.668	18.09
252.885	-10.58
253.102	52.91
253.318	-4.44
253.535	40.62
253.752	-10.58
253.968	24.23
254.185	-69.97
254.401	46.76
254.618	97.96
254.835	18.09
255.051	116.39
255.268	32.43
255.484	-35.16
255.701	59.05
255.917	67.24
256.134	-82.26
256.351	77.48
256.567	5.8
256.784	71.34
257	-6.49
257.217	75.43
257.433	28.33
257.65	46.76
257.866	65.19
258.082	-22.87
258.299	-18.77
258.515	-20.82
258.732	-37.2
258.948	46.76
259.165	38.57
259.381	-26.96
259.597	36.52
259.814	16.04
260.03	30.38
260.246	42.67
260.463	34.47
260.679	67.24
260.895	108.2
261.112	65.19
261.328	100.01
261.544	59.05
261.761	36.52
261.977	32.43
262.193	-4.44
262.409	48.81
262.626	97.96
262.842	30.38
263.058	3.75
263.274	34.47
263.49	9.9
263.707	83.63
263.923	93.87
264.139	48.81
264.355	-37.2
264.571	42.67
264.787	-0.34
265.004	97.96
265.22	67.24
265.436	50.86
265.652	-31.06
265.868	104.11
266.084	-6.49
266.3	30.38
266.516	42.67
266.732	-6.49
266.948	65.19
267.164	50.86
267.38	75.43
267.596	50.86
267.812	52.91
268.028	48.81
268.244	-24.92
268.46	36.52
268.676	46.76
268.892	48.81
269.108	-49.49
269.324	59.05
269.54	65.19
269.756	59.05
269.972	20.14
270.188	26.28
270.403	54.95
270.619	-10.58
270.835	13.99
271.051	3.75
271.267	-31.06
271.483	7.85
271.698	36.52
271.914	9.9
272.13	1.71
272.346	42.67
272.562	63.15
272.777	63.15
272.993	-29.01
273.209	54.95
273.425	34.47
273.64	-14.68
273.856	69.29
274.072	48.81
274.287	36.52
274.503	46.76
274.719	50.86
274.934	13.99
275.15	13.99
275.366	42.67
275.581	-0.34
275.797	1.71
276.012	108.2
276.228	32.43
276.444	13.99
276.659	52.91
276.875	-20.82
277.09	65.19
277.306	-31.06
277.521	9.9
277.737	32.43
277.952	97.96
278.168	32.43
278.383	-18.77
278.599	-14.68
278.814	32.43
279.03	54.95
279.245	95.91
279.461	-8.53
279.676	87.72
279.892	-78.16
280.107	-12.63
280.322	34.47
280.538	52.91
280.753	1.71
280.969	83.63
281.184	13.99
281.399	42.67
281.615	112.3
281.83	46.76
282.045	-6.49
282.26	3.75
282.476	-6.49
282.691	91.82
282.906	30.38
283.122	26.28
283.337	34.47
283.552	-33.11
283.767	28.33
283.983	24.23
284.198	-22.87
284.413	-2.39
284.628	-8.53
284.843	-55.64
285.058	38.57
285.274	-4.44
285.489	34.47
285.704	38.57
285.919	-31.06
286.134	16.04
286.349	9.9
286.564	22.19
286.779	104.11
286.995	30.38
287.21	61.1
287.425	3.75
287.64	-10.58
287.855	3.75
288.07	20.14
288.285	30.38
288.5	34.47
288.715	38.57
288.93	44.71
289.145	-26.96
289.36	42.67
289.575	18.09
289.79	77.48
290.004	-26.96
290.219	89.77
290.434	-72.02
290.649	87.72
290.864	16.04
291.079	-39.25
291.294	71.34
291.509	13.99
291.724	-24.92
291.938	-26.96
292.153	44.71
292.368	54.95
292.583	34.47
292.798	26.28
293.012	75.43
293.227	24.23
293.442	-0.34
293.657	95.91
293.871	57
294.086	-16.73
294.301	87.72
294.516	67.24
294.73	18.09
294.945	38.57
295.16	20.14
295.374	69.29
295.589	26.28
295.804	18.09
296.018	79.53
296.233	18.09
296.447	95.91
296.662	20.14
296.877	46.76
297.091	40.62
297.306	100.01
297.52	38.57
297.735	54.95
297.949	87.72
298.164	54.95
298.378	28.33
298.593	16.04
298.807	-43.35
299.022	97.96
299.236	87.72
299.451	9.9
299.665	22.19
299.88	79.53
300.094	-6.49
300.309	50.86
300.523	16.04
300.737	9.9
300.952	89.77
301.166	-8.53
301.381	-6.49
301.595	77.48
301.809	57
302.024	-16.73
302.238	-8.53
302.452	1.71
302.667	32.43
302.881	28.33
303.095	-22.87
303.309	83.63
303.524	44.71
303.738	-84.31
303.952	38.57
304.166	57
304.381	28.33
304.595	59.05
304.809	61.1
305.023	9.9
305.237	67.24
305.452	-43.35
305.666	42.67
305.88	7.85
306.094	112.3
306.308	42.67
306.522	42.67
306.736	57
306.95	24.23
307.164	13.99
307.379	28.33
307.593	108.2
307.807	34.47
308.021	65.19
308.235	11.95
308.449	-2.39
308.663	-41.3
308.877	40.62
309.091	106.15
309.305	50.86
309.519	42.67
309.733	-6.49
309.947	34.47
310.161	-26.96
310.374	38.57
310.588	18.09
310.802	18.09
311.016	-0.34
311.23	9.9
311.444	83.63
311.658	20.14
311.872	75.43
312.085	-22.87
312.299	13.99
312.513	9.9
312.727	91.82
312.941	61.1
313.154	24.23
313.368	18.09
313.582	34.47
313.796	85.67
314.009	48.81
314.223	34.47
314.437	20.14
314.651	79.53
314.864	-8.53
315.078	22.19
315.292	5.8
315.505	67.24
315.719	75.43
315.933	20.14
316.146	1.71
316.36	52.91
316.573	71.34
316.787	48.81
317.001	16.04
317.214	40.62
317.428	63.15
317.641	-18.77
317.855	73.39
318.068	75.43
318.282	-2.39
318.495	65.19
318.709	69.29
318.922	-20.82
319.136	106.15
319.349	91.82
319.563	32.43
319.776	32.43
319.99	18.09
320.203	57
320.417	20.14
320.63	69.29
320.843	65.19
321.057	13.99
321.27	124.58
321.483	-2.39
321.697	13.99
321.91	79.53
322.124	57
322.337	38.57
322.55	30.38
322.763	59.05
322.977	-26.96
323.19	-4.44
323.403	32.43
323.617	59.05
323.83	81.58
324.043	50.86
324.256	28.33
324.469	11.95
324.683	67.24
324.896	100.01
325.109	87.72
325.322	9.9
325.535	71.34
325.748	7.85
325.962	75.43
326.175	32.43
326.388	-26.96
326.601	-14.68
326.814	-4.44
327.027	40.62
327.24	83.63
327.453	-35.16
327.666	48.81
327.879	112.3
328.092	18.09
328.305	34.47
328.518	93.87
328.731	28.33
328.944	18.09
329.157	46.76
329.37	40.62
329.583	95.91
329.796	128.68
330.009	5.8
330.222	100.01
330.435	-12.63
330.648	91.82
330.861	9.9
331.073	5.8
331.286	79.53
331.499	95.91
331.712	71.34
331.925	-10.58
332.138	34.47
332.35	40.62
332.563	42.67
332.776	132.78
332.989	57
333.202	18.09
333.414	28.33
333.627	81.58
333.84	20.14
334.053	42.67
334.265	26.28
334.478	44.71
334.691	87.72
334.903	54.95
335.116	48.81
335.329	165.54
335.541	40.62
335.754	95.91
335.966	13.99
336.179	26.28
336.392	18.09
336.604	59.05
336.817	65.19
337.029	30.38
337.242	93.87
337.454	26.28
337.667	-6.49
337.88	112.3
338.092	73.39
338.305	11.95
338.517	13.99
338.729	28.33
338.942	122.54
339.154	38.57
339.367	30.38
339.579	59.05
339.792	-4.44
340.004	106.15
340.217	1.71
340.429	18.09
340.641	34.47
340.854	36.52
341.066	50.86
341.278	79.53
341.491	102.06
341.703	5.8
341.915	20.14
342.128	28.33
342.34	-31.06
342.552	50.86
342.764	-6.49
342.977	46.76
343.189	124.58
343.401	52.91
343.613	18.09
343.826	48.81
344.038	57
344.25	128.68
344.462	42.67
344.674	26.28
344.886	5.8
345.099	108.2
345.311	-39.25
345.523	22.19
345.735	-6.49
345.947	11.95
346.159	-22.87
346.371	16.04
346.583	-2.39
346.795	67.24
347.007	81.58
347.219	97.96
347.431	-2.39
347.643	54.95
347.855	75.43
348.067	67.24
348.279	77.48
348.491	3.75
348.703	40.62
348.915	48.81
349.127	40.62
349.339	69.29
349.551	-35.16
349.763	7.85
349.975	38.57
350.187	52.91
350.399	44.71
350.61	120.49
350.822	75.43
351.034	97.96
351.246	46.76
351.458	93.87
351.669	38.57
351.881	9.9
352.093	124.58
352.305	22.19
352.517	83.63
352.728	46.76
352.94	54.95
353.152	75.43
353.363	-29.01
353.575	149.16
353.787	40.62
353.999	24.23
354.21	77.48
354.422	-2.39
354.633	11.95
354.845	50.86
355.057	81.58
355.268	52.91
355.48	50.86
355.692	67.24
355.903	-2.39
356.115	95.91
356.326	-22.87
356.538	104.11
356.749	67.24
356.961	50.86
357.172	5.8
357.384	50.86
357.595	42.67
357.807	83.63
358.018	-26.96
358.23	81.58
358.441	108.2
358.653	126.63
358.864	59.05
359.075	16.04
359.287	34.47
359.498	48.81
359.709	11.95
359.921	18.09
360.132	161.45
360.344	34.47
360.555	-47.44
360.766	32.43
360.977	1.71
361.189	-10.58
361.4	87.72
361.611	44.71
361.823	57
362.034	52.91
362.245	-24.92
362.456	67.24
362.667	73.39
362.879	63.15
363.09	-10.58
363.301	42.67
363.512	-43.35
363.723	87.72
363.935	32.43
364.146	32.43
364.357	-2.39
364.568	54.95
364.779	-43.35
364.99	16.04
365.201	3.75
365.412	65.19
365.623	-10.58
365.834	34.47
366.045	3.75
366.256	128.68
366.467	81.58
366.678	57
366.889	26.28
367.1	75.43
367.311	63.15
367.522	69.29
367.733	18.09
367.944	130.73
368.155	-24.92
368.366	143.02
368.577	38.57
368.788	71.34
368.999	5.8
369.209	32.43
369.42	106.15
369.631	163.5
369.842	5.8
370.053	50.86
370.264	59.05
370.474	11.95
370.685	32.43
370.896	34.47
371.107	71.34
371.317	59.05
371.528	-6.49
371.739	112.3
371.95	38.57
372.16	83.63
372.371	-41.3
372.582	18.09
372.792	40.62
373.003	18.09
373.214	-16.73
373.424	46.76
373.635	7.85
373.846	67.24
374.056	40.62
374.267	38.57
374.477	16.04
374.688	-43.35
374.898	5.8
375.109	71.34
375.319	42.67
375.53	13.99
375.74	46.76
375.951	79.53
376.161	5.8
376.372	50.86
376.582	26.28
376.793	46.76
377.003	38.57
377.214	52.91
377.424	-8.53
377.635	85.67
377.845	-14.68
378.055	54.95
378.266	-0.34
378.476	57
378.686	50.86
378.897	-0.34
379.107	48.81
379.317	28.33
379.528	-14.68
379.738	20.14
379.948	5.8
380.158	108.2
380.369	-4.44
380.579	143.02
380.789	1.71
380.999	3.75
381.21	46.76
381.42	104.11
381.63	-33.11
381.84	38.57
382.05	75.43
382.261	42.67
382.471	24.23
382.681	59.05
382.891	118.44
383.101	-18.77
383.311	7.85
383.521	20.14
383.731	106.15
383.941	63.15
384.151	42.67
384.361	18.09
384.571	104.11
384.781	50.86
384.991	128.68
385.201	79.53
385.411	-20.82
385.621	-16.73
385.831	-16.73
386.041	16.04
386.251	-65.88
386.461	46.76
386.671	54.95
386.881	112.3
387.091	73.39
387.301	93.87
387.511	104.11
387.72	48.81
387.93	79.53
388.14	-14.68
388.35	75.43
388.56	83.63
388.769	-14.68
388.979	65.19
389.189	32.43
389.399	38.57
389.609	130.73
389.818	26.28
390.028	40.62
390.238	67.24
390.447	-12.63
390.657	11.95
390.867	-41.3
391.076	-22.87
391.286	100.01
391.496	34.47
391.705	46.76
391.915	79.53
392.125	108.2
392.334	3.75
392.544	42.67
392.753	108.2
392.963	28.33
393.172	32.43
393.382	106.15
393.591	120.49
393.801	5.8
394.01	173.74
394.22	67.24
394.429	97.96
394.639	85.67
394.848	71.34
395.058	112.3
395.267	112.3
395.477	89.77
395.686	75.43
395.895	57
396.105	149.16
396.314	91.82
396.524	87.72
396.733	11.95
396.942	106.15
397.152	18.09
397.361	57
397.57	106.15
397.78	126.63
397.989	110.25
398.198	83.63
398.407	112.3
398.617	110.25
398.826	71.34
399.035	126.63
399.244	120.49
399.453	116.39
399.663	136.87
399.872	145.06
400.081	77.48
400.29	124.58
400.499	104.11
400.708	169.64
400.917	114.34
401.127	124.58
401.336	38.57
401.545	138.92
401.754	145.06
401.963	59.05
402.172	87.72
402.381	126.63
402.59	110.25
402.799	95.91
403.008	108.2
403.217	132.78
403.426	177.83
403.635	100.01
403.844	153.26
404.053	147.11
404.262	91.82
404.471	188.07
404.68	130.73
404.888	104.11
405.097	196.26
405.306	108.2
405.515	71.34
405.724	116.39
405.933	151.21
406.142	265.89
406.35	181.93
406.559	136.87
406.768	190.12
406.977	181.93
407.185	167.59
407.394	157.35
407.603	151.21
407.812	210.6
408.02	263.85
408.229	272.04
408.438	278.18
408.646	188.07
408.855	220.84
409.064	192.17
409.272	194.22
409.481	210.6
409.69	163.5
409.898	218.79
410.107	259.75
410.315	253.61
410.524	296.61
410.733	374.44
410.941	206.5
411.15	431.78
411.358	343.72
411.567	343.72
411.775	325.29
411.984	435.88
412.192	339.62
412.401	353.96
412.609	415.4
412.818	425.64
413.026	468.64
413.234	466.6
413.443	458.4
413.651	528.03
413.86	501.41
414.068	517.79
414.276	515.75
414.485	489.12
414.693	501.41
414.901	634.53
415.11	673.44
415.318	726.69
415.526	730.78
415.734	792.22
415.943	765.6
416.151	708.26
416.359	784.03
416.567	812.7
416.776	859.81
416.984	972.44
417.192	1025.69
417.4	937.63
417.608	911
417.817	937.63
418.025	960.16
418.233	1019.55
418.441	1029.79
418.649	1091.23
418.857	1164.95
419.065	1240.73
419.273	1195.67
419.481	1259.16
419.689	1316.5
419.897	1398.42
420.105	1418.9
420.313	1459.86
420.521	1414.81
420.729	1590.93
420.937	1549.97
421.145	1568.4
421.353	1717.9
421.561	1816.21
421.769	1840.78
421.977	1996.43
422.185	1984.14
422.393	2164.36
422.601	2164.36
422.809	2170.51
423.017	2229.9
423.224	2315.91
423.432	2330.25
423.64	2377.35
423.848	2623.11
424.056	2506.37
424.263	2700.93
424.471	2526.85
424.679	2610.82
424.887	2870.91
425.094	3047.04
425.302	2854.53
425.51	2983.55
425.718	3233.4
425.925	3278.46
426.133	3180.15
426.341	3669.62
426.548	3614.32
426.756	3690.1
426.964	3645.04
427.171	3905.14
427.379	4011.63
427.586	4140.65
427.794	4109.93
428.001	4499.05
428.209	4548.2
428.417	4517.48
428.624	4927.07
428.832	4910.69
429.039	4759.14
429.247	4662.88
429.454	5420.63
429.662	5527.13
429.869	5219.93
430.076	5529.17
430.284	5490.26
430.491	5727.83
430.699	6088.27
430.906	5996.11
431.114	5998.16
431.321	6315.59
431.528	6551.11
431.736	6762.05
431.943	7077.44
432.15	6932.03
432.358	7118.4
432.565	7423.55
432.772	7286.33
432.979	7677.49
433.187	7945.78
433.394	7790.13
433.601	8390.19
433.808	8402.47
434.016	8543.78
434.223	8689.19
434.43	9418.27
434.637	9012.77
434.844	9659.93
435.052	10006.03
435.259	9905.68
435.466	10044.95
435.673	9795.09
435.88	10485.26
436.087	11040.26
436.294	11038.21
436.501	10855.94
436.708	11140.61
436.915	11357.69
437.122	11851.25
437.329	11857.4
437.537	12226.03
437.743	12406.25
437.95	12402.16
438.157	12813.8
438.364	13295.07
438.571	13501.92
438.778	13702.62
438.985	14671.31
439.192	14061.01
439.399	14624.2
439.606	14331.34
439.813	15064.52
440.02	15879.61
440.227	15619.52
440.433	15451.58
440.64	16092.6
440.847	15809.98
441.054	16291.25
441.261	17481.12
441.467	17028.52
441.674	17505.7
441.881	17864.09
442.088	17759.64
442.294	17759.64
442.501	18410.9
442.708	18709.9
442.914	19441.03
443.121	20043.13
443.328	19639.68
443.534	21132.65
443.741	20395.38
443.948	20006.27
444.154	21874.01
444.361	21564.77
444.568	21564.77
444.774	21687.65
444.981	21847.39
445.187	22642
445.394	23762.24
445.6	23381.32
445.807	25320.74
446.013	24339.77
446.22	25005.36
446.426	25689.38
446.633	25892.13
446.839	26627.35
447.046	25738.53
447.252	26930.45
447.459	27223.31
447.665	27047.18
447.871	28159.23
448.078	29302
448.284	27675.91
448.491	28710.13
448.697	29822.18
448.903	30436.57
449.11	30358.75
449.316	29471.98
449.522	30141.66
449.728	31323.34
449.935	31431.88
450.141	30928.08
450.347	31931.59
450.553	30477.53
450.76	31300.81
450.966	32144.58
451.172	31945.92
451.378	32312.51
451.584	31524.04
451.791	32773.3
451.997	32519.35
452.203	32822.45
452.409	33139.89
452.615	32885.94
452.821	31565
453.027	31149.26
453.233	32863.41
453.44	31386.83
453.646	31968.45
453.852	32132.29
454.058	32451.77
454.264	31116.5
454.47	32222.4
454.676	31575.24
454.882	32412.86
455.088	29742.31
455.294	29680.87
455.5	30235.87
455.705	30633.18
455.911	29609.19
456.117	28771.57
456.323	28558.58
456.529	26973.46
456.735	28120.32
456.941	27157.77
457.147	26971.41
457.352	26049.82
457.558	25687.33
457.764	25269.55
457.97	25287.98
458.176	24659.25
458.381	24784.18
458.587	23493.96
458.793	23479.62
458.999	22504.79
459.204	23846.21
459.41	23182.66
459.616	21448.04
459.821	21464.42
460.027	21628.26
460.233	21038.44
460.438	20135.29
460.644	20104.57
460.85	19344.77
461.055	19152.26
461.261	19070.34
461.466	17616.29
461.672	17192.36
461.878	18492.82
462.083	17200.55
462.289	17163.68
462.494	16752.04
462.7	16213.43
462.905	15603.13
463.111	16139.7
463.316	16178.61
463.522	15971.77
463.727	15715.77
463.932	15762.87
464.138	15652.28
464.343	15650.24
464.549	15074.76
464.754	15982.01
464.959	15990.2
465.165	15592.89
465.37	14810.57
465.575	14368.21
465.781	15087.04
465.986	15160.77
466.191	14599.63
466.397	14048.72
466.602	13651.42
466.807	14091.73
467.012	14138.83
467.218	13864.41
467.423	13864.41
467.628	14140.88
467.833	14390.74
468.038	14085.59
468.244	13620.7
468.449	14175.7
468.654	13837.78
468.859	13526.49
469.064	13501.92
469.269	13016.55
469.474	13211.11
469.679	13293.02
469.885	13063.65
470.09	12862.95
470.295	12787.18
470.5	12557.8
470.705	12996.07
470.91	12496.36
471.115	12363.25
471.32	12387.82
471.525	12340.72
471.73	12058.1
471.935	12201.46
472.139	11724.28
472.344	11832.82
472.549	11855.35
472.754	11681.27
472.959	11265.53
473.164	11009.54
473.369	11007.49
473.574	11513.34
473.778	11439.61
473.983	11159.04
474.188	11210.24
474.393	10606.09
474.598	10630.66
474.802	10501.64
475.007	10565.13
475.212	10536.46
475.417	10307.09
475.621	10212.88
475.826	10178.06
476.031	10040.85
476.235	9975.31
476.44	9932.31
476.645	9981.46
476.849	9948.69
477.054	9707.03
477.259	9489.95
477.463	9758.23
477.668	9430.55
477.872	9436.7
478.077	9307.68
478.282	9076.26
478.486	8971.81
478.691	9082.4
478.895	8820.26
479.1	8943.14
479.304	8885.8
479.509	8631.85
479.713	8736.29
479.918	8515.11
480.122	8545.83
480.326	8576.55
480.531	8717.86
480.735	8521.26
480.94	8445.48
481.144	8742.44
481.348	8234.54
481.553	8453.67
481.757	8207.92
481.961	8422.95
482.166	8490.54
482.37	8439.34
482.574	8140.33
482.778	8271.4
482.983	8404.52
483.187	8304.17
483.391	8257.07
483.595	8257.07
483.8	8214.06
484.004	8248.88
484.208	8412.71
484.412	8222.25
484.616	8365.61
484.821	8269.36
485.025	8132.14
485.229	8367.66
485.433	8060.46
485.637	8316.46
485.841	8304.17
486.045	8277.55
486.249	8414.76
486.453	8126
486.657	8250.92
486.861	8287.79
487.065	8013.36
487.269	8162.86
487.473	8099.38
487.677	8175.15
487.881	8310.32
488.085	8330.8
488.289	8242.73
488.493	8183.34
488.697	8324.65
488.901	8267.31
489.105	8312.36
489.309	8422.95
489.512	8601.13
489.716	8275.5
489.92	8400.43
490.124	8302.12
490.328	8480.3
490.531	8252.97
490.735	8404.52
490.939	8562.22
491.143	8584.74
491.346	8482.35
491.55	8603.18
491.754	8617.51
491.958	8672.81
492.161	8883.75
492.365	8920.61
492.569	8635.94
492.772	8885.8
492.976	8949.28
493.18	8652.33
493.383	9215.52
493.587	8963.62
493.79	9102.88
493.994	8928.8
494.197	9367.07
494.401	9354.78
494.605	9141.79
494.808	9494.04
495.012	9385.5
495.215	9709.08
495.419	9397.79
495.622	9475.61
495.825	9670.17
496.029	9793.05
496.232	9877.01
496.436	9838.1
496.639	10180.11
496.843	10051.09
497.046	10374.67
497.249	10288.65
497.453	10634.76
497.656	10327.57
497.859	10675.72
498.063	10749.45
498.266	10901
498.469	10802.69
498.673	11116.03
498.876	11095.55
499.079	11439.61
499.282	11417.08
499.485	11599.35
499.689	11654.65
499.892	11838.97
500.095	11912.69
500.298	12215.79
500.501	12072.43
500.705	12369.39
500.908	12551.66
501.111	12778.98
501.314	12682.73
501.517	12834.28
501.72	12879.33
501.923	13217.25
502.126	13217.25
502.329	13469.15
502.532	13473.25
502.735	13796.82
502.938	13825.5
503.141	13983.19
503.344	14187.99
503.547	14296.53
503.75	14233.04
503.953	14669.26
504.156	14636.49
504.359	14935.49
504.562	14962.12
504.765	15154.63
504.968	15410.62
505.17	15726.01
505.373	15562.17
505.576	15961.53
505.779	16051.64
505.982	16219.57
506.185	16461.23
506.387	16606.64
506.59	16754.09
506.793	17132.97
506.996	17026.47
507.198	17534.37
507.401	17493.41
507.604	17804.7
507.807	18062.74
508.009	17892.76
508.212	18283.92
508.415	18453.91
508.617	18707.85
508.82	18775.44
509.022	18822.54
509.225	19058.06
509.428	19303.81
509.63	19432.83
509.833	19490.18
510.035	20045.18
510.238	19791.23
510.44	20553.07
510.643	20594.03
510.845	20731.25
511.048	20727.15
511.25	20997.48
511.453	21060.97
511.655	22078.81
511.858	21771.61
512.06	21843.29
512.262	21843.29
512.465	22087
512.667	22166.87
512.87	22609.23
513.072	22984.01
513.274	23213.38
513.477	23481.67
513.679	23635.27
513.881	23725.38
514.084	24143.16
514.286	23991.61
514.488	24325.43
514.69	24890.67
514.893	25085.23
515.095	24925.49
515.297	25406.76
515.499	25552.16
515.701	25566.5
515.904	25976.09
516.106	26279.19
516.308	26400.02
516.51	26809.62
516.712	27069.71
516.914	27196.68
517.116	27626.76
517.318	27555.08
517.52	27837.7
517.722	27993.34
517.925	28161.28
518.127	28718.32
518.329	28597.49
518.531	28509.43
518.733	29299.95
518.935	29525.22
519.136	29719.78
519.338	29975.78
519.54	30254.3
519.742	30508.25
519.944	30545.11
520.146	31143.12
520.348	31114.45
520.55	31435.98
520.752	31509.71
520.954	32357.56
521.155	32064.71
521.357	32480.44
521.559	32720.06
521.761	32955.57
521.963	33107.12
522.164	33238.19
522.366	33213.62
522.568	33832.1
522.77	34276.51
522.971	34258.08
523.173	34233.5
523.375	34661.53
523.576	34530.46
523.778	34753.69
523.98	35503.24
524.181	35615.88
524.383	35359.89
524.584	35820.68
524.786	35894.41
524.988	35499.15
525.189	36187.27
525.391	36490.37
525.592	36689.02
525.794	36727.93
525.995	36658.3
526.197	37028.98
526.398	37215.35
526.6	37223.54
526.801	37436.53
527.003	37457.01
527.204	37745.77
527.406	38440.03
527.607	37860.46
527.808	38425.7
528.01	37817.45
528.211	38329.44
528.412	39406.67
528.614	38661.21
528.815	38823
529.016	39150.68
529.218	38653.02
529.419	39040.09
529.62	38892.63
529.822	38849.63
530.023	39128.15
530.224	38878.3
530.425	39302.23
530.626	38947.93
530.828	39095.38
531.029	39939.15
531.23	39537.74
531.431	39593.04
531.632	39615.57
531.833	40152.13
532.035	39898.19
532.236	39945.29
532.437	40311.88
532.638	39808.08
532.839	40395.84
533.04	40543.3
533.241	39836.75
533.442	40940.6
533.643	40471.62
533.844	40469.57
534.045	40346.69
534.246	39957.58
534.447	40612.93
534.648	40254.53
534.849	40563.78
535.05	40207.43
535.251	40553.54
535.451	40279.11
535.652	41090.1
535.853	40703.04
536.054	40805.44
536.255	40817.72
536.456	40741.95
536.657	41421.87
536.857	40496.19
537.058	40365.12
537.259	40836.16
537.46	41018.42
537.66	40512.58
537.861	40588.35
538.062	40563.78
538.263	40782.91
538.463	40563.78
538.664	40522.82
538.865	40821.82
539.065	40846.4
539.266	40555.58
539.466	40805.44
539.667	39906.38
539.868	41169.97
540.068	40625.21
540.269	40379.46
540.469	40545.34
540.67	40361.03
540.87	40883.26
541.071	40367.17
541.271	40791.1
541.472	40279.11
541.672	40381.51
541.873	40340.55
542.073	40275.01
542.274	40836.16
542.474	40385.6
542.675	40488
542.875	40727.61
543.075	40643.65
543.276	39945.29
543.476	40559.68
543.676	40629.31
543.877	40698.94
544.077	40731.71
544.277	40098.89
544.478	40506.43
544.678	40836.16
544.878	40397.89
545.078	40438.85
545.279	39918.67
545.479	40254.53
545.679	40328.26
545.879	40373.31
546.079	40326.21
546.28	40330.31
546.48	39943.24
546.68	40524.86
546.88	40553.54
547.08	40391.75
547.28	40471.62
547.48	39910.47
547.68	40127.56
547.88	39857.23
548.081	40555.58
548.281	40330.31
548.481	40373.31
548.681	40428.61
548.881	40295.49
549.081	40246.34
549.28	40066.12
549.48	40371.27
549.68	40334.4
549.88	41024.57
550.08	40197.19
550.28	40293.44
550.48	40037.45
550.68	40516.67
550.88	40070.22
551.08	40084.55
551.279	40176.71
551.479	40102.98
551.679	40483.9
551.879	39924.81
552.079	40227.91
552.278	39724.11
552.478	39851.08
552.678	39715.92
552.878	39826.51
553.077	39822.41
553.277	39662.67
553.477	40127.56
553.676	39918.67
553.876	40051.78
554.076	39623.76
554.275	39615.57
554.475	38923.35
554.674	39521.36
554.874	39818.32
555.074	39447.63
555.273	39756.88
555.473	39955.53
555.672	39392.34
555.872	39287.89
556.071	39177.3
556.271	39799.88
556.47	38825.05
556.67	39113.81
556.869	39253.08
557.068	39287.89
557.268	39238.74
557.467	39240.79
557.667	38931.54
557.866	38851.67
558.065	39003.22
558.265	39281.75
558.464	38663.26
558.663	39380.05
558.863	38720.6
559.062	38978.65
559.261	38407.26
559.461	38761.56
559.66	38624.35
559.859	38403.17
560.058	38218.85
560.258	38524
560.457	38202.47
560.656	38786.14
560.855	38460.51
561.054	38345.83
561.253	38036.58
561.453	38188.13
561.652	38251.62
561.851	38435.94
562.05	37678.19
562.249	37452.91
562.448	38038.63
562.647	37467.25
562.846	37549.17
563.045	38085.73
563.244	37583.98
563.443	37538.93
563.642	37244.02
563.841	37659.76
564.04	37375.09
564.239	37604.46
564.438	36996.21
564.637	37608.56
564.836	37229.68
565.035	36949.11
565.234	37106.8
565.432	36631.68
565.631	36772.99
565.83	37024.89
566.029	36338.82
566.228	36947.06
566.427	36457.6
566.625	35984.52
566.824	35726.47
567.023	36351.1
567.222	35740.81
567.42	36541.57
567.619	36056.2
567.818	35955.85
568.016	35816.58
568.215	36158.59
568.414	35810.44
568.612	35974.28
568.811	35847.3
569.01	35632.27
569.208	35304.59
569.407	35343.5
569.605	35202.19
569.804	35509.39
570.002	35089.56
570.201	35081.36
570.4	34817.18
570.598	34481.31
570.797	34520.22
570.995	34735.26
571.193	34243.74
571.392	34649.24
571.59	34204.83
571.789	33868.97
571.987	34215.07
572.186	34241.7
572.384	34022.56
572.582	34163.87
572.781	34145.44
572.979	33637.55
573.177	33451.18
573.376	33625.26
573.574	33936.55
573.772	33598.63
573.971	33633.45
574.169	33336.49
574.367	33121.46
574.565	33135.79
574.763	33053.87
574.962	33064.11
575.16	32701.62
575.358	33031.35
575.556	32648.38
575.754	32935.09
575.952	32437.44
576.151	32550.07
576.349	32322.75
576.547	32218.3
576.745	32001.22
576.943	32255.17
577.141	32115.9
577.339	31986.88
577.537	31712.45
577.735	31878.34
577.933	31659.21
578.131	31790.28
578.329	31448.27
578.527	31618.25
578.725	31370.44
578.923	31603.91
579.121	31212.75
579.319	31472.84
579.516	31456.46
579.714	31141.07
579.912	30930.13
580.11	30897.36
580.308	30932.18
580.506	30909.65
580.704	30461.15
580.901	30807.25
581.099	30655.7
581.297	30465.24
581.495	30446.81
581.692	30645.46
581.89	29816.04
582.088	30356.7
582.285	30057.7
582.483	30295.26
582.681	30211.29
582.878	29981.92
583.076	29592.81
583.274	30127.33
583.471	29670.63
583.669	29646.05
583.866	29711.59
584.064	29547.75
584.262	29002.99
584.459	29738.21
584.657	29220.08
584.854	29547.75
585.052	28654.84
585.249	29375.72
585.447	29132.01
585.644	28749.04
585.841	29002.99
586.039	28720.37
586.236	28888.31
586.434	28888.31
586.631	28323.07
586.828	28511.48
587.026	28574.97
587.223	28314.87
587.42	28355.83
587.618	28343.55
587.815	27989.25
588.012	28325.11
588.21	28101.89
588.407	28122.37
588.604	27434.25
588.801	27448.58
588.999	27579.65
589.196	27516.17
589.393	27643.14
589.59	27096.33
589.787	27311.37
589.984	27082
590.182	26770.71
590.379	27434.25
590.576	26971.41
590.773	26959.12
590.97	26692.88
591.167	27034.89
591.364	26531.09
591.561	26809.62
591.758	26236.19
591.955	26643.73
592.152	26522.9
592.349	26443.03
592.546	26330.39
592.743	26467.61
592.94	25812.26
593.137	26074.4
593.334	26123.55
593.531	25695.52
593.727	25972
593.924	26219.8
594.121	25298.22
594.318	25617.7
594.515	25496.87
594.712	25750.82
594.908	25668.9
595.105	25539.88
595.302	25228.59
595.499	25361.7
595.696	25148.71
595.892	24767.79
596.089	25220.39
596.286	25363.75
596.482	25021.74
596.679	24788.27
596.876	24675.63
597.072	24661.3
597.269	24704.31
597.466	24384.82
597.662	24452.41
597.859	24399.16
598.055	24282.42
598.252	24020.28
598.448	23971.13
598.645	24139.07
598.841	24036.67
599.038	23770.43
599.234	23829.82
599.431	23719.23
599.627	23643.46
599.824	23817.54
600.02	23514.44
600.217	23811.39
600.413	23606.59
600.609	23297.35
600.806	23053.64
601.002	23219.53
601.198	22981.96
601.395	23125.32
601.591	22682.96
601.787	23035.21
601.984	22785.36
602.18	22947.15
602.376	23067.98
602.572	22736.21
602.769	22498.64
602.965	22494.55
603.161	22435.16
603.357	22689.1
603.553	22562.13
603.75	22422.87
603.946	22162.78
604.142	22474.07
604.338	21919.07
604.534	22406.48
604.73	21534.05
604.926	21884.25
605.122	21792.09
605.318	21718.37
605.514	21673.31
605.71	21898.59
605.906	21720.42
606.102	21769.57
606.298	21515.62
606.494	21349.73
606.69	21552.48
606.886	21792.09
607.082	21251.43
607.278	21382.5
607.474	21120.36
607.67	21251.43
607.866	20833.64
608.062	21417.32
608.257	20929.9
608.453	21167.46
608.649	21020.01
608.845	20790.64
609.041	20823.4
609.236	20612.46
609.432	20868.46
609.628	20532.59
609.824	20768.11
610.019	20493.68
610.215	20600.18
610.411	20567.41
610.606	20557.17
610.802	20518.26
610.998	20231.54
611.193	20235.64
611.389	20315.51
611.584	20327.8
611.78	20258.17
611.976	20102.52
612.171	20243.83
612.367	19922.3
612.562	19973.5
612.758	19785.08
612.953	19838.33
613.149	20022.65
613.344	19643.77
613.539	20241.78
613.735	19879.29
613.93	19963.26
614.126	19613.06
614.321	19821.95
614.517	19901.82
614.712	19592.58
614.907	19455.36
615.103	19604.86
615.298	19451.27
615.493	19828.09
615.688	19297.67
615.884	19709.31
616.079	18945.42
616.274	19670.4
616.47	19297.67
616.665	19322.24
616.86	19125.64
617.055	19158.41
617.25	18912.65
617.445	19293.57
617.641	18718.09
617.836	19256.71
618.031	18781.58
618.226	18873.74
618.421	18630.03
618.616	18961.8
618.811	18537.87
619.006	18783.63
619.201	18699.66
619.396	18570.64
619.591	18113.94
619.786	18576.78
619.981	18095.51
620.176	18167.19
620.371	17849.75
620.566	18212.24
620.761	17898.91
620.956	18009.5
621.151	17739.16
621.346	17892.76
621.541	17194.4
621.735	17917.34
621.93	17517.98
622.125	17511.84
622.32	17083.81
622.515	17364.39
622.709	17073.57
622.904	17251.75
623.099	16901.54
623.294	16860.59
623.488	16670.12
623.683	16838.06
623.878	16575.92
624.072	16735.66
624.267	16428.46
624.462	16416.18
624.656	16160.18
624.851	16344.5
625.046	16250.29
625.24	15957.43
625.435	15656.38
625.629	15914.42
625.824	16010.68
626.018	15719.87
626.213	15336.9
626.407	15699.39
626.602	15250.88
626.796	15586.75
626.991	15392.19
627.185	15160.77
627.38	14919.11
627.574	15150.53
627.768	14812.62
627.963	14962.12
628.157	14996.93
628.352	14939.59
628.546	14640.59
628.74	14757.32
628.935	14431.69
629.129	14570.96
629.323	14241.23
629.517	14259.67
629.712	14095.83
629.906	14220.75
630.1	14116.31
630.294	14114.26
630.489	13796.82
630.683	13975
630.877	13702.62
631.071	13567.45
631.265	13909.46
631.459	13374.94
631.653	13516.25
631.848	13469.15
632.042	13254.11
632.236	13407.71
632.43	13211.11
632.624	13247.97
632.818	12951.01
633.012	13256.16
633.206	12977.64
633.4	13112.8
633.594	12606.95
633.788	12760.55
633.982	12699.11
634.176	12656.11
634.369	12709.35
634.563	12586.47
634.757	12291.57
634.951	12367.34
635.145	12125.68
635.339	12324.33
635.533	12318.19
635.726	12187.12
635.92	12047.86
636.114	12025.33
636.308	11857.4
636.501	12082.67
636.695	12256.75
636.889	11630.07
637.083	11814.39
637.276	11529.72
637.47	11460.09
637.664	11439.61
637.857	11490.81
638.051	11396.6
638.244	11261.44
638.438	11216.38
638.632	11150.85
638.825	11052.55
639.019	11294.21
639.212	11148.8
639.406	11105.79
639.599	10831.37
639.793	11021.83
639.986	10718.73
640.18	10726.92
640.373	10718.73
640.567	10429.96
640.76	10784.26
640.954	10579.47
641.147	10470.92
641.34	10415.63
641.534	10272.27
641.727	10044.95
641.92	10294.8
642.114	10216.97
642.307	10264.08
642.5	9952.79
642.694	9975.31
642.887	9856.53
643.08	9944.59
643.273	9819.67
643.467	9870.87
643.66	9889.3
643.853	9553.43
644.046	9760.28
644.239	9557.53
644.432	9379.36
644.626	9342.49
644.819	9309.72
645.012	9291.29
645.205	9401.88
645.398	9242.14
645.591	9135.65
645.784	9213.47
645.977	9287.2
646.17	9238.05
646.363	8926.75
646.556	8824.36
646.749	8891.94
646.942	8975.91
647.135	8791.59
647.328	8795.68
647.521	8674.85
647.714	8539.69
647.907	8840.74
648.099	8607.27
648.292	8633.89
648.485	8607.27
648.678	8422.95
648.871	8248.88
649.064	8324.65
649.256	8324.65
649.449	8277.55
649.642	8162.86
649.835	8117.81
650.027	8312.36
650.22	8035.89
650.413	7939.63
650.605	7904.82
650.798	7933.49
650.991	7755.32
651.183	7923.25
651.376	7652.92
651.568	7806.52
651.761	7708.21
651.954	7736.88
652.146	7783.99
652.339	7562.81
652.531	7589.43
652.724	7517.75
652.916	7482.94
653.109	7484.98
653.301	7470.65
653.494	7468.6
653.686	7255.61
653.879	7222.84
654.071	7374.39
654.263	7095.87
654.456	7077.44
654.648	7274.04
654.84	7093.82
655.033	7181.89
655.225	7204.41
655.417	7089.73
655.61	6866.5
655.802	7026.24
655.994	6792.77
656.186	6772.29
656.379	6889.03
656.571	6864.45
656.763	6809.15
656.955	6661.7
657.148	6725.19
657.34	6743.62
657.532	6463.05
657.724	6450.76
657.916	6518.34
658.108	6444.62
658.3	6489.67
658.492	6516.3
658.684	6325.83
658.876	6264.4
659.068	6274.63
659.26	6366.79
659.452	6286.92
659.644	6266.44
659.836	6086.22
660.028	6116.94
660.22	5936.72
660.412	6084.17
660.604	6004.3
660.796	6055.5
660.988	5965.39
661.18	5994.06
661.372	5926.48
661.563	6069.84
661.755	5891.66
661.947	5867.09
662.139	5764.69
662.331	5717.59
662.522	5617.24
662.714	5678.68
662.906	5729.88
663.097	5731.92
663.289	5746.26
663.481	5604.95
663.673	5555.8
663.864	5389.91
664.056	5508.69
664.247	5539.41
664.439	5463.64
664.631	5351
664.822	5363.29
665.014	5351
665.205	5367.38
665.397	5346.91
665.588	5344.86
665.78	5332.57
665.971	5297.75
666.163	5441.11
666.354	5207.64
666.546	5119.58
666.737	5201.5
666.929	5135.96
667.12	5156.44
667.311	5041.76
667.503	4974.17
667.694	5019.23
667.885	4988.51
668.077	5011.04
668.268	4920.93
668.459	4980.32
668.651	4847.2
668.842	4884.06
669.033	4863.58
669.224	4947.55
669.416	4972.13
669.607	4669.03
669.798	4869.73
669.989	4916.83
670.18	4677.22
670.371	4763.23
670.563	4773.47
670.754	4726.37
670.945	4482.66
671.136	4740.71
671.327	4595.3
671.518	4460.13
671.709	4519.53
671.9	4578.92
672.091	4556.39
672.282	4490.85
672.473	4574.82
672.664	4556.39
672.855	4382.31
673.046	4365.93
673.237	4486.76
673.428	4470.37
673.619	4509.29
673.809	4359.78
674	4337.26
674.191	4304.49
674.382	4204.14
674.573	4427.37
674.764	4374.12
674.954	4447.85
675.145	4087.4
675.336	4212.33
675.527	4275.82
675.717	4226.67
675.908	4187.75
676.099	4099.69
676.289	4159.08
676.48	4220.52
676.671	4226.67
676.861	4105.84
677.052	4138.6
677.243	4044.4
677.433	4175.47
677.624	4159.08
677.814	4146.8
678.005	4105.84
678.195	4011.63
678.386	4062.83
678.576	4058.73
678.767	3913.33
678.957	4152.94
679.148	3909.23
679.338	4095.6
679.529	3937.9
679.719	3978.86
679.909	4056.68
680.1	3905.14
680.29	4003.44
680.481	3937.9
680.671	3968.62
680.861	3991.15
681.052	3956.33
681.242	3755.63
681.432	3874.42
681.622	3987.05
681.813	3794.54
682.003	3937.9
682.193	3802.74
682.383	3767.92
682.573	3767.92
682.764	3669.62
682.954	3698.29
683.144	3798.64
683.334	3677.81
683.524	3786.35
683.714	3772.02
683.904	3761.78
684.094	3712.63
684.284	3692.15
684.474	3696.24
684.664	3724.91
684.854	3636.85
685.044	3788.4
685.234	3663.47
685.424	3585.65
685.614	3669.62
685.804	3692.15
685.994	3532.4
686.184	3671.67
686.374	3505.78
686.564	3561.08
686.753	3501.69
686.943	3534.45
687.133	3653.23
687.323	3548.79
687.513	3597.94
687.702	3528.31
687.892	3538.55
688.082	3427.96
688.272	3479.16
688.461	3540.6
688.651	3442.29
688.841	3317.37
689.03	3556.98
689.22	3389.05
689.41	3458.68
689.599	3329.66
689.789	3438.2
689.979	3352.18
690.168	3311.22
690.358	3325.56
690.547	3223.16
690.737	3262.07
690.926	3327.61
691.116	3200.63
691.305	3335.8
691.495	3171.96
691.684	3153.53
691.874	3204.73
692.063	3276.41
692.252	3221.11
692.442	3139.19
692.631	3098.24
692.82	3090.04
693.01	3096.19
693.199	3100.28
693.388	3102.33
693.578	3090.04
693.767	3065.47
693.956	3061.37
694.146	3155.58
694.335	3092.09
694.524	3024.51
694.713	2977.41
694.902	3012.22
695.092	2922.11
695.281	3133.05
695.47	2975.36
695.659	3012.22
695.848	3010.17
696.037	2958.97
696.226	2989.69
696.415	2975.36
696.604	2940.54
696.793	2918.01
696.982	2934.4
697.171	3061.37
697.36	3008.12
697.549	2985.6
697.738	2901.63
697.927	2889.34
698.116	2963.07
698.305	2930.3
698.494	2903.68
698.683	2965.12
698.872	2940.54
699.061	2858.62
699.25	2991.74
699.438	2848.38
699.627	2979.45
699.816	2934.4
700.005	2801.28
700.193	2924.16
700.382	3022.46
700.571	2930.3
700.76	2836.1
700.948	2670.21
701.137	2899.58
701.326	2940.54
701.514	2899.58
701.703	2872.96
701.892	2827.9
702.08	2903.68
702.269	2918.01
702.457	2872.96
702.646	2776.7
702.834	2674.31
703.023	2795.14
703.212	2807.42
703.4	2832
703.589	2727.55
703.777	2860.67
703.965	2883.2
704.154	2702.98
704.342	2815.62
704.531	2881.15
704.719	2872.96
704.907	2786.94
705.096	2819.71
705.284	2803.33
705.472	2764.42
705.661	2844.29
705.849	2909.82
706.037	2893.44
706.226	2756.22
706.414	2836.1
706.602	2854.53
706.79	2807.42
706.979	2719.36
707.167	2705.03
707.355	2807.42
707.543	2815.62
707.731	2905.73
707.919	2801.28
708.107	2774.66
708.296	2844.29
708.484	2844.29
708.672	2737.79
708.86	2770.56
709.048	2614.91
709.236	2821.76
709.424	2795.14
709.612	2948.73
709.8	2676.35
709.988	2768.51
710.176	2733.7
710.364	2827.9
710.551	2762.37
710.739	2737.79
710.927	2758.27
711.115	2770.56
711.303	2817.66
711.491	2768.51
711.679	2918.01
711.866	2813.57
712.054	2862.72
712.242	2737.79
712.43	2778.75
712.617	2881.15
712.805	2707.07
712.993	2692.74
713.181	2748.03
713.368	2719.36
713.556	2766.46
713.744	2705.03
713.931	2909.82
714.119	2817.66
714.306	2752.13
714.494	2758.27
714.682	2813.57
714.869	2729.6
715.057	2721.41
715.244	2813.57
715.432	2832
715.619	2762.37
715.807	2719.36
715.994	2672.26
716.182	2784.9
716.369	2778.75
716.556	2752.13
716.744	2666.11
716.931	2807.42
717.119	2889.34
717.306	2782.85
717.493	2694.79
717.681	2645.63
717.868	2659.97
718.055	2770.56
718.242	2823.81
718.43	2829.95
718.617	2743.94
718.804	2766.46
718.991	2674.31
719.179	2698.88
719.366	2807.42
719.553	2745.98
719.74	2768.51
719.927	2692.74
720.114	2799.23
720.301	2635.39
720.488	2662.02
720.676	2688.64
720.863	2729.6
721.05	2659.97
721.237	2727.55
721.424	2569.86
721.611	2672.26
721.798	2688.64
721.985	2700.93
722.172	2762.37
722.358	2565.76
722.545	2776.7
722.732	2567.81
722.919	2715.27
723.106	2647.68
723.293	2676.35
723.48	2721.41
723.667	2588.29
723.853	2492.04
724.04	2715.27
724.227	2659.97
724.414	2631.3
724.6	2596.48
724.787	2672.26
724.974	2606.72
725.161	2680.45
725.347	2612.87
725.534	2686.59
725.72	2664.07
725.907	2588.29
726.094	2551.43
726.28	2614.91
726.467	2702.98
726.653	2553.48
726.84	2651.78
727.027	2807.42
727.213	2573.96
727.4	2664.07
727.586	2578.05
727.773	2526.85
727.959	2535.04
728.145	2639.49
728.332	2420.36
728.518	2504.32
728.705	2672.26
728.891	2533
729.077	2705.03
729.264	2459.27
729.45	2535.04
729.636	2604.67
729.823	2553.48
730.009	2606.72
730.195	2598.53
730.382	2569.86
730.568	2565.76
730.754	2539.14
730.94	2559.62
731.126	2504.32
731.313	2553.48
731.499	2504.32
731.685	2559.62
731.871	2485.89
732.057	2522.76
732.243	2455.17
732.429	2559.62
732.615	2522.76
732.801	2418.31
732.987	2469.51
733.173	2471.56
733.359	2369.16
733.545	2377.35
733.731	2512.52
733.917	2444.93
734.103	2346.63
734.289	2496.13
734.475	2287.24
734.661	2451.08
734.847	2444.93
735.033	2412.17
735.219	2489.99
735.404	2309.77
735.59	2430.6
735.776	2471.56
735.962	2401.93
736.148	2397.83
736.333	2336.39
736.519	2328.2
736.705	2436.74
736.89	2236.04
737.076	2352.77
737.262	2352.77
737.447	2479.75
737.633	2250.38
737.819	2344.58
738.004	2279.05
738.19	2277
738.375	2420.36
738.561	2381.45
738.747	2246.28
738.932	2295.43
739.118	2260.62
739.303	2178.7
739.489	2201.23
739.674	2242.18
739.859	2252.42
740.045	2324.1
740.23	2315.91
740.416	2262.66
740.601	2367.11
740.786	2217.61
740.972	2174.6
741.157	2162.31
741.342	2160.27
741.528	2244.23
741.713	2139.79
741.898	2035.34
742.084	2190.99
742.269	2227.85
742.454	2115.21
742.639	2203.27
742.824	2066.06
743.01	2119.31
743.195	2078.35
743.38	2090.63
743.565	2113.16
743.75	2104.97
743.935	2010.76
744.12	2176.65
744.305	2018.96
744.49	2113.16
744.675	1990.28
744.86	2082.44
745.045	1994.38
745.23	1975.95
745.415	2037.39
745.6	2006.67
745.785	1898.13
745.97	2082.44
746.155	1887.89
746.34	1924.75
746.525	1861.26
746.71	1926.8
746.895	1973.9
747.079	1822.35
747.264	1853.07
747.449	1883.79
747.634	1808.02
747.819	1818.25
748.003	1851.02
748.188	1803.92
748.373	1828.49
748.557	1867.41
748.742	1828.49
748.927	1838.73
749.111	1775.25
749.296	1803.92
749.481	1746.58
749.665	1754.77
749.85	1728.14
750.034	1812.11
750.219	1656.47
750.404	1752.72
750.588	1693.33
750.773	1615.51
750.957	1558.16
751.141	1621.65
751.326	1683.09
751.51	1564.31
751.695	1580.69
751.879	1615.51
752.064	1586.83
752.248	1504.92
752.432	1537.68
752.617	1470.1
752.801	1644.18
752.985	1511.06
753.17	1599.12
753.354	1527.44
753.538	1412.76
753.722	1423
753.907	1482.39
754.091	1502.87
754.275	1521.3
754.459	1377.94
754.643	1369.75
754.828	1377.94
755.012	1463.96
755.196	1339.03
755.38	1390.23
755.564	1361.56
755.748	1328.79
755.932	1392.28
756.116	1312.41
756.3	1369.75
756.484	1296.02
756.668	1222.3
756.852	1232.54
757.036	1244.82
757.22	1271.45
757.404	1234.58
757.588	1283.74
757.772	1351.32
757.956	1302.17
758.14	1304.21
758.323	1257.11
758.507	1259.16
758.691	1246.87
758.875	1293.97
759.059	1263.26
759.242	1246.87
759.426	1175.19
759.61	1158.81
759.794	1171.1
759.977	1080.99
760.161	1162.9
760.345	1156.76
760.528	1207.96
760.712	1197.72
760.895	1072.79
761.079	1078.94
761.263	1076.89
761.446	1027.74
761.63	1058.46
761.813	1130.14
761.997	1095.32
762.18	1177.24
762.364	1179.29
762.547	1091.23
762.731	1058.46
762.914	1025.69
763.098	1001.12
763.281	1042.07
763.464	1046.17
763.648	956.06
763.831	1023.64
764.015	1031.83
764.198	1009.31
764.381	1033.88
764.564	1083.03
764.748	1025.69
764.931	1083.03
765.114	951.96
765.297	1058.46
765.481	902.81
765.664	1056.41
765.847	1009.31
766.03	970.4
766.213	1031.83
766.397	917.15
766.58	939.68
766.763	927.39
766.946	894.62
767.129	919.2
767.312	890.53
767.495	894.62
767.678	851.61
767.861	915.1
768.044	933.53
768.227	968.35
768.41	1001.12
768.593	874.14
768.776	911
768.959	890.53
769.142	997.02
769.324	949.92
769.507	892.57
769.69	911
769.873	876.19
770.056	966.3
770.239	927.39
770.421	784.03
770.604	870.05
770.787	927.39
770.97	923.29
771.152	859.81
771.335	890.53
771.518	824.99
771.7	882.33
771.883	888.48
772.066	806.56
772.248	798.37
772.431	788.13
772.613	841.37
772.796	794.27
772.978	851.61
773.161	835.23
773.343	800.41
773.526	781.98
773.708	792.22
773.891	761.5
774.073	827.04
774.256	763.55
774.438	788.13
774.621	824.99
774.803	810.65
774.985	683.68
775.168	786.08
775.35	755.36
775.532	743.07
775.715	650.91
775.897	730.78
776.079	669.34
776.261	804.51
776.444	794.27
776.626	671.39
776.808	730.78
776.99	741.02
777.173	624.29
777.355	665.25
777.537	710.3
777.719	673.44
777.901	638.62
778.083	706.21
778.265	650.91
778.447	698.02
778.629	614.05
778.811	738.98
778.993	673.44
779.175	714.4
779.357	591.52
779.539	681.63
779.721	609.95
779.903	597.67
780.085	589.47
780.267	564.9
780.449	566.95
780.631	560.8
780.812	620.19
780.994	618.15
781.176	607.91
781.358	515.75
781.54	568.99
781.721	503.46
781.903	566.95
782.085	538.27
782.267	568.99
782.448	544.42
782.63	485.03
782.812	544.42
782.993	577.19
783.175	528.03
783.357	614.05
783.538	511.65
783.72	501.41
783.901	521.89
784.083	585.38
784.264	538.27
784.446	468.64
784.627	609.95
784.809	466.6
784.99	472.74
785.172	480.93
785.353	497.32
785.535	491.17
785.716	464.55
785.897	456.36
786.079	456.36
786.26	437.92
786.441	399.01
786.623	396.96
786.804	425.64
786.985	452.26
787.167	454.31
787.348	429.73
787.529	413.35
787.71	489.12
787.891	419.49
788.073	425.64
788.254	403.11
788.435	435.88
788.616	370.34
788.797	417.44
788.978	407.2
789.159	421.54
789.34	423.59
789.522	360.1
789.703	396.96
789.884	415.4
790.065	343.72
790.246	458.4
790.427	388.77
790.607	454.31
790.788	392.87
790.969	378.53
791.15	296.61
791.331	374.44
791.512	368.29
791.693	360.1
791.874	394.92
792.054	358.05
792.235	302.76
792.416	290.47
792.597	364.2
792.778	345.77
792.958	423.59
793.139	390.82
793.32	390.82
793.5	251.56
793.681	329.38
793.862	310.95
794.042	343.72
794.223	280.23
794.404	310.95
794.584	269.99
794.765	343.72
794.945	370.34
795.126	333.48
795.306	405.16
795.487	376.48
795.667	341.67
795.848	325.29
796.028	315.05
796.209	233.13
796.389	306.85
796.57	353.96
796.75	237.22
796.93	302.76
797.111	259.75
797.291	308.9
797.471	272.04
797.652	255.65
797.832	269.99
798.012	304.81
798.192	245.41
798.373	310.95
798.553	284.33
798.733	263.85
798.913	261.8
799.093	263.85
799.274	247.46
799.454	329.38
799.634	353.96
799.814	286.37
799.994	216.74
800.174	214.7
800.354	200.36
800.534	186.02
800.714	339.62
800.894	231.08
801.074	245.41
801.254	198.31
801.434	323.24
801.614	267.94
801.794	226.98
801.974	822.94
802.154	239.27
802.334	222.89
802.514	194.22
802.693	231.08
802.873	190.12
803.053	251.56
803.233	288.42
803.413	308.9
803.592	245.41
803.772	206.5
803.952	183.98
804.131	186.02
804.311	159.4
804.491	173.74
804.67	206.5
804.85	138.92
805.03	294.57
805.209	251.56
805.389	245.41
805.568	198.31
805.748	140.97
805.928	302.76
806.107	243.37
806.287	278.18
806.466	188.07
806.646	157.35
806.825	155.3
807.004	243.37
807.184	112.3
807.363	157.35
807.543	159.4
807.722	116.39
807.901	83.63
808.081	202.41
808.26	145.06
808.439	214.7
808.619	216.74
808.798	196.26
808.977	167.59
809.156	216.74
809.336	261.8
809.515	188.07
809.694	194.22
809.873	97.96
810.052	218.79
810.231	173.74
810.411	157.35
810.59	155.3
810.769	188.07
810.948	188.07
811.127	186.02
811.306	136.87
811.485	204.46
811.664	251.56
811.843	212.65
812.022	198.31
812.201	198.31
812.38	132.78
812.559	161.45
812.737	194.22
812.916	196.26
813.095	188.07
813.274	145.06
813.453	120.49
813.632	114.34
813.811	126.63
813.989	157.35
814.168	167.59
814.347	122.54
814.526	155.3
814.704	198.31
814.883	216.74
815.062	26.28
815.24	247.46
815.419	163.5
815.598	147.11
815.776	200.36
815.955	128.68
816.133	122.54
816.312	140.97
816.49	202.41
816.669	140.97
816.847	130.73
817.026	143.02
817.204	151.21
817.383	143.02
817.561	149.16
817.74	100.01
817.918	202.41
818.097	161.45
818.275	140.97
818.453	153.26
818.632	122.54
818.81	169.64
818.988	102.06
819.167	89.77
819.345	179.88
819.523	136.87
819.701	196.26
819.879	73.39
820.058	163.5
820.236	120.49
820.414	65.19
820.592	169.64
820.77	153.26
820.948	130.73
821.127	120.49
821.305	59.05
821.483	104.11
821.661	151.21
821.839	126.63
822.017	183.98
822.195	157.35
822.373	134.82
822.551	132.78
822.729	100.01
822.907	85.67
823.085	198.31
823.262	128.68
823.44	106.15
823.618	71.34
823.796	118.44
823.974	112.3
824.152	163.5
824.329	102.06
824.507	38.57
824.685	138.92
824.863	126.63
825.04	71.34
825.218	153.26
825.396	102.06
825.574	110.25
825.751	91.82
825.929	83.63
826.107	83.63
826.284	132.78
826.462	32.43
826.639	93.87
826.817	83.63
826.994	108.2
827.172	22.19
827.349	181.93
827.527	18.09
827.704	108.2
827.882	124.58
828.059	132.78
828.237	42.67
828.414	153.26
828.591	59.05
828.769	91.82
828.946	116.39
829.124	91.82
829.301	71.34
829.478	147.11
829.655	75.43
829.833	118.44
830.01	59.05
830.187	97.96
830.364	67.24
830.542	138.92
830.719	100.01
830.896	128.68
831.073	77.48
831.25	57
831.427	132.78
831.604	50.86
831.782	-0.34
831.959	46.76
832.136	22.19
832.313	114.34
832.49	112.3
832.667	30.38
832.844	79.53
833.021	100.01
833.198	97.96
833.374	34.47
833.551	75.43
833.728	108.2
833.905	59.05
834.082	28.33
834.259	97.96
834.436	130.73
834.612	18.09
834.789	95.91
834.966	13.99
835.143	140.97
835.319	89.77
835.496	171.69
835.673	50.86
835.85	71.34
836.026	110.25
836.203	122.54
836.38	32.43
836.556	38.57
836.733	40.62
836.909	161.45
837.086	87.72
837.262	48.81
837.439	91.82
837.616	16.04
837.792	102.06
837.968	102.06
838.145	16.04
838.321	48.81
838.498	71.34
838.674	95.91
838.851	40.62
839.027	87.72
839.203	116.39
839.38	79.53
839.556	65.19
839.732	128.68
839.909	97.96
840.085	65.19
840.261	50.86
840.437	83.63
840.614	57
840.79	93.87
840.966	9.9
841.142	38.57
841.318	40.62
841.494	34.47
841.671	97.96
841.847	40.62
842.023	16.04
842.199	153.26
842.375	57
842.551	54.95
842.727	65.19
842.903	138.92
843.079	65.19
843.255	77.48
843.431	50.86
843.607	128.68
843.783	1.71
843.959	85.67
844.134	77.48
844.31	108.2
844.486	30.38
844.662	44.71
844.838	22.19
845.013	75.43
845.189	34.47
845.365	63.15
845.541	85.67
845.716	44.71
845.892	52.91
846.068	63.15
846.244	38.57
846.419	38.57
846.595	59.05
846.77	9.9
846.946	-22.87
847.122	124.58
847.297	87.72
847.473	136.87
847.648	7.85
847.824	106.15
847.999	-63.83
848.175	44.71
848.35	9.9
848.526	102.06
848.701	16.04
848.876	85.67
849.052	50.86
849.227	81.58
849.403	28.33
849.578	-0.34
849.753	-4.44
849.929	-2.39
850.104	28.33
850.279	-14.68
850.454	116.39
850.63	32.43
850.805	28.33
850.98	30.38
851.155	-0.34
851.33	18.09
851.505	-2.39
851.681	59.05
851.856	20.14
852.031	-14.68
852.206	26.28
852.381	-10.58
852.556	1.71
852.731	1.71
852.906	36.52
853.081	67.24
853.256	54.95
853.431	42.67
853.606	26.28
853.781	50.86
853.956	-14.68
854.131	83.63
854.305	-16.73
854.48	22.19
854.655	28.33
854.83	34.47
855.005	-4.44
855.18	-6.49
855.354	30.38
855.529	48.81
855.704	87.72
855.879	85.67
856.053	42.67
856.228	-8.53
856.403	3.75
856.577	44.71
856.752	-31.06
856.926	18.09
857.101	59.05
857.276	-12.63
857.45	34.47
857.625	7.85
857.799	-24.92
857.974	44.71
858.148	22.19
858.323	57
858.497	52.91
858.672	-8.53
858.846	-22.87
859.02	61.1
859.195	-39.25
859.369	50.86
859.543	71.34
859.718	59.05
859.892	42.67
860.066	73.39
860.241	18.09
860.415	-74.07
860.589	36.52
860.763	-22.87
860.938	97.96
861.112	24.23
861.286	38.57
861.46	36.52
861.634	9.9
861.808	67.24
861.982	-12.63
862.157	-31.06
862.331	22.19
862.505	7.85
862.679	40.62
862.853	110.25
863.027	5.8
863.201	87.72
863.375	42.67
863.549	73.39
863.722	77.48
863.896	67.24
864.07	18.09
864.244	36.52
864.418	9.9
864.592	13.99
864.766	-26.96
864.939	-67.92
865.113	-10.58
865.287	32.43
865.461	-37.2
865.634	20.14
865.808	11.95
865.982	77.48
866.156	-0.34
866.329	-22.87
866.503	28.33
866.676	-20.82
866.85	-29.01
867.024	-14.68
867.197	48.81
867.371	65.19
867.544	50.86
867.718	-29.01
867.891	16.04
868.065	18.09
868.238	26.28
868.412	59.05
868.585	1.71
868.759	83.63
868.932	-14.68
869.105	-8.53
869.279	38.57
869.452	-29.01
869.625	13.99
869.799	42.67
869.972	-8.53
870.145	-6.49
870.319	3.75
870.492	-4.44
870.665	75.43
870.838	-55.64
871.011	18.09
871.185	38.57
871.358	26.28
871.531	26.28
871.704	-8.53
871.877	-16.73
872.05	-6.49
872.223	26.28
872.396	57
872.569	59.05
872.742	-14.68
872.915	-12.63
873.088	-45.4
873.261	16.04
873.434	-6.49
873.607	57
873.78	77.48
873.953	-51.54
874.126	16.04
874.299	7.85
874.471	65.19
874.644	13.99
874.817	-14.68
874.99	44.71
875.163	-4.44
875.335	36.52
875.508	-16.73
875.681	85.67
875.853	-6.49
876.026	7.85
876.199	22.19
876.371	42.67
876.544	100.01
876.717	-74.07
876.889	-39.25
877.062	-14.68
877.234	63.15
877.407	61.1
877.579	50.86
877.752	71.34
877.924	-41.3
878.097	5.8
878.269	71.34
878.442	79.53
878.614	32.43
878.786	-4.44
878.959	-18.77
879.131	34.47
879.303	-47.44
879.476	-59.73
879.648	87.72
879.82	-63.83
879.993	87.72
880.165	34.47
880.337	-0.34
880.509	9.9
880.681	-24.92
880.854	1.71
881.026	32.43
881.198	71.34
881.37	-94.55
881.542	-37.2
881.714	1.71
881.886	71.34
882.058	-59.73
882.23	28.33
882.402	26.28
882.574	40.62
882.746	40.62
882.918	65.19
883.09	71.34
883.262	-14.68
883.434	-18.77
883.606	26.28
883.778	1.71
883.95	95.91
884.122	-26.96
884.293	30.38
884.465	-22.87
884.637	91.82
884.809	-29.01
884.98	48.81
885.152	5.8
885.324	63.15
885.496	-94.55
885.667	-35.16
885.839	22.19
886.011	50.86
886.182	34.47
886.354	13.99
886.525	-49.49
886.697	85.67
886.869	36.52
887.04	18.09
887.212	18.09
887.383	-0.34
887.555	38.57
887.726	-14.68
887.897	-39.25
888.069	20.14
888.24	7.85
888.412	-41.3
888.583	-49.49
888.754	-57.68
888.926	-49.49
889.097	-20.82
889.268	-20.82
889.44	36.52
889.611	-18.77
889.782	-14.68
889.953	-100.69
890.125	40.62
890.296	-63.83
890.467	-0.34
890.638	30.38
890.809	9.9
890.98	-8.53
891.151	-6.49
891.323	100.01
891.494	18.09
891.665	32.43
891.836	-2.39
892.007	26.28
892.178	22.19
892.349	79.53
892.52	85.67
892.691	-4.44
892.862	-39.25
893.032	38.57
893.203	3.75
893.374	40.62
893.545	13.99
893.716	-47.44
893.887	-6.49
894.057	-49.49
894.228	16.04
894.399	-41.3
894.57	28.33
894.74	5.8
894.911	75.43
895.082	-2.39
895.253	-41.3
895.423	-16.73
895.594	-2.39
895.764	32.43
895.935	59.05
896.106	63.15
896.276	83.63
896.447	42.67
896.617	-31.06
896.788	13.99
896.958	1.71
897.129	-39.25
897.299	11.95
897.47	-33.11
897.64	-6.49
897.81	11.95
897.981	28.33
898.151	-22.87
898.322	54.95
898.492	-12.63
898.662	16.04
898.832	5.8
899.003	-0.34
899.173	61.1
899.343	1.71
899.513	48.81
