Data from USB4F104151__14__10-21-03-962.txt Node

Date: Wed Mar 12 10:21:03 EDT 2025
User: louis
Spectrometer: USB4F10415
Trigger mode: 4
Integration Time (sec): 3.000000E-2
Scans to average: 1
Electric dark correction enabled: true
Nonlinearity correction enabled: false
Boxcar width: 0
XAxis mode: Wavelengths
Number of Pixels in Spectrum: 3648
>>>>>Begin Spectral Data<<<<<
178.204	-62.12
178.424	-62.12
178.644	-62.12
178.864	-162.47
179.084	-166.57
179.304	-4.78
179.524	-49.83
179.744	40.28
179.964	-19.11
180.184	1.37
180.404	34.13
180.624	48.47
180.844	56.66
181.064	-94.89
181.283	15.7
181.503	-74.41
181.723	46.42
181.943	-41.64
182.163	5.46
182.383	1.37
182.602	23.89
182.822	-25.26
183.042	-8.87
183.262	-29.35
183.482	-12.97
183.701	19.8
183.921	21.85
184.141	-12.97
184.361	58.71
184.58	30.04
184.8	87.38
185.02	-98.99
185.239	42.32
185.459	79.19
185.679	50.52
185.898	-58.03
186.118	46.42
186.338	-21.16
186.557	77.14
186.777	38.23
186.997	-41.64
187.216	-6.83
187.436	81.24
187.655	-17.07
187.875	11.61
188.095	25.94
188.314	40.28
188.534	7.51
188.753	-66.22
188.973	-2.73
189.192	42.32
189.412	54.61
189.631	-29.35
189.851	27.99
190.07	73.04
190.29	1.37
190.509	-35.5
190.729	-19.11
190.948	1.37
191.168	105.81
191.387	34.13
191.607	-6.83
191.826	71
192.045	73.04
192.265	19.8
192.484	-33.45
192.704	5.46
192.923	73.04
193.142	60.76
193.362	46.42
193.581	17.75
193.8	19.8
194.02	81.24
194.239	-0.68
194.458	83.28
194.678	66.9
194.897	17.75
195.116	-12.97
195.335	11.61
195.555	23.89
195.774	71
195.993	30.04
196.212	-6.83
196.432	17.75
196.651	-2.73
196.87	7.51
197.089	101.72
197.308	60.76
197.528	56.66
197.747	21.85
197.966	-12.97
198.185	34.13
198.404	-84.65
198.623	25.94
198.842	7.51
199.062	62.8
199.281	109.91
199.5	-8.87
199.719	-21.16
199.938	73.04
200.157	83.28
200.376	46.42
200.595	-15.02
200.814	62.8
201.033	17.75
201.252	34.13
201.471	-31.4
201.69	50.52
201.909	-6.83
202.128	-64.17
202.347	-29.35
202.566	27.99
202.785	-15.02
203.004	-31.4
203.223	101.72
203.442	23.89
203.661	50.52
203.879	7.51
204.098	99.67
204.317	23.89
204.536	111.96
204.755	-15.02
204.974	71
205.193	68.95
205.411	40.28
205.63	9.56
205.849	-0.68
206.068	36.18
206.287	34.13
206.505	36.18
206.724	-39.59
206.943	-29.35
207.162	-2.73
207.381	56.66
207.599	38.23
207.818	38.23
208.037	27.99
208.255	-19.11
208.474	32.08
208.693	34.13
208.911	48.47
209.13	25.94
209.349	64.85
209.567	15.7
209.786	105.81
210.005	77.14
210.223	-15.02
210.442	27.99
210.661	40.28
210.879	38.23
211.098	62.8
211.316	-66.22
211.535	50.52
211.753	9.56
211.972	48.47
212.191	-17.07
212.409	9.56
212.628	71
212.846	25.94
213.065	58.71
213.283	95.57
213.502	75.09
213.72	46.42
213.938	44.37
214.157	44.37
214.375	-17.07
214.594	-25.26
214.812	-19.11
215.031	-6.83
215.249	30.04
215.467	17.75
215.686	7.51
215.904	73.04
216.122	99.67
216.341	25.94
216.559	44.37
216.778	46.42
216.996	17.75
217.214	34.13
217.432	34.13
217.651	17.75
217.869	73.04
218.087	56.66
218.306	54.61
218.524	105.81
218.742	103.76
218.96	-19.11
219.179	3.41
219.397	87.38
219.615	75.09
219.833	11.61
220.051	32.08
220.27	56.66
220.488	-51.88
220.706	27.99
220.924	77.14
221.142	-35.5
221.36	-41.64
221.578	27.99
221.796	93.52
222.015	58.71
222.233	23.89
222.451	62.8
222.669	-6.83
222.887	40.28
223.105	23.89
223.323	-17.07
223.541	-25.26
223.759	48.47
223.977	-0.68
224.195	50.52
224.413	56.66
224.631	9.56
224.849	9.56
225.067	62.8
225.285	38.23
225.503	66.9
225.721	-10.92
225.939	-47.79
226.157	-15.02
226.375	132.44
226.592	30.04
226.81	56.66
227.028	46.42
227.246	64.85
227.464	30.04
227.682	75.09
227.9	1.37
228.117	-53.93
228.335	-0.68
228.553	1.37
228.771	38.23
228.989	52.56
229.206	-4.78
229.424	13.65
229.642	73.04
229.86	-62.12
230.077	99.67
230.295	34.13
230.513	13.65
230.731	1.37
230.948	23.89
231.166	15.7
231.384	-107.18
231.601	36.18
231.819	122.2
232.037	1.37
232.254	75.09
232.472	79.19
232.689	-72.36
232.907	62.8
233.125	34.13
233.342	62.8
233.56	19.8
233.777	17.75
233.995	34.13
234.213	95.57
234.43	40.28
234.648	56.66
234.865	-43.69
235.083	58.71
235.3	58.71
235.518	52.56
235.735	79.19
235.953	5.46
236.17	-43.69
236.388	42.32
236.605	21.85
236.822	91.48
237.04	48.47
237.257	79.19
237.475	-0.68
237.692	-49.83
237.909	17.75
238.127	30.04
238.344	60.76
238.562	87.38
238.779	27.99
238.996	27.99
239.214	46.42
239.431	15.7
239.648	21.85
239.865	64.85
240.083	5.46
240.3	73.04
240.517	42.32
240.735	1.37
240.952	-27.31
241.169	-94.89
241.386	64.85
241.603	-70.31
241.821	34.13
242.038	27.99
242.255	9.56
242.472	-6.83
242.689	46.42
242.907	56.66
243.124	62.8
243.341	75.09
243.558	62.8
243.775	62.8
243.992	-45.74
244.209	-12.97
244.426	140.63
244.643	81.24
244.86	36.18
245.078	46.42
245.295	-19.11
245.512	13.65
245.729	25.94
245.946	81.24
246.163	30.04
246.38	50.52
246.597	15.7
246.814	-4.78
247.031	34.13
247.248	64.85
247.464	27.99
247.681	7.51
247.898	36.18
248.115	66.9
248.332	64.85
248.549	-2.73
248.766	116.05
248.983	1.37
249.2	93.52
249.417	-2.73
249.633	17.75
249.85	9.56
250.067	-41.64
250.284	77.14
250.501	56.66
250.717	-21.16
250.934	17.75
251.151	73.04
251.368	58.71
251.585	-17.07
251.801	42.32
252.018	25.94
252.235	9.56
252.451	-4.78
252.668	-12.97
252.885	36.18
253.102	52.56
253.318	-15.02
253.535	17.75
253.752	34.13
253.968	66.9
254.185	-2.73
254.401	-60.07
254.618	38.23
254.835	27.99
255.051	154.96
255.268	95.57
255.484	-35.5
255.701	-6.83
255.917	58.71
256.134	-60.07
256.351	66.9
256.567	5.46
256.784	114
257	-17.07
257.217	-15.02
257.433	27.99
257.65	19.8
257.866	21.85
258.082	-37.55
258.299	5.46
258.515	13.65
258.732	-35.5
258.948	91.48
259.165	46.42
259.381	66.9
259.597	7.51
259.814	85.33
260.03	30.04
260.246	11.61
260.463	36.18
260.679	17.75
260.895	-92.84
261.112	81.24
261.328	13.65
261.544	50.52
261.761	124.24
261.977	40.28
262.193	46.42
262.409	58.71
262.626	83.28
262.842	17.75
263.058	34.13
263.274	99.67
263.49	-19.11
263.707	87.38
263.923	91.48
264.139	38.23
264.355	36.18
264.571	64.85
264.787	7.51
265.004	21.85
265.22	52.56
265.436	-6.83
265.652	7.51
265.868	56.66
266.084	42.32
266.3	5.46
266.516	7.51
266.732	42.32
266.948	1.37
267.164	9.56
267.38	56.66
267.596	25.94
267.812	99.67
268.028	66.9
268.244	64.85
268.46	71
268.676	42.32
268.892	21.85
269.108	-45.74
269.324	15.7
269.54	-66.22
269.756	79.19
269.972	-70.31
270.188	46.42
270.403	-12.97
270.619	23.89
270.835	38.23
271.051	44.37
271.267	5.46
271.483	83.28
271.698	-10.92
271.914	81.24
272.13	21.85
272.346	32.08
272.562	38.23
272.777	27.99
272.993	9.56
273.209	23.89
273.425	1.37
273.64	-51.88
273.856	17.75
274.072	-19.11
274.287	30.04
274.503	81.24
274.719	40.28
274.934	-10.92
275.15	21.85
275.366	48.47
275.581	48.47
275.797	5.46
276.012	21.85
276.228	34.13
276.444	40.28
276.659	99.67
276.875	27.99
277.09	77.14
277.306	-15.02
277.521	30.04
277.737	25.94
277.952	27.99
278.168	19.8
278.383	73.04
278.599	34.13
278.814	58.71
279.03	73.04
279.245	105.81
279.461	25.94
279.676	30.04
279.892	27.99
280.107	64.85
280.322	71
280.538	-35.5
280.753	34.13
280.969	48.47
281.184	9.56
281.399	44.37
281.615	48.47
281.83	99.67
282.045	-39.59
282.26	-0.68
282.476	50.52
282.691	1.37
282.906	25.94
283.122	17.75
283.337	40.28
283.552	-29.35
283.767	9.56
283.983	-10.92
284.198	-43.69
284.413	42.32
284.628	1.37
284.843	-6.83
285.058	46.42
285.274	32.08
285.489	-17.07
285.704	25.94
285.919	23.89
286.134	124.24
286.349	48.47
286.564	64.85
286.779	107.86
286.995	89.43
287.21	-41.64
287.425	66.9
287.64	42.32
287.855	-17.07
288.07	11.61
288.285	30.04
288.5	107.86
288.715	5.46
288.93	-8.87
289.145	-2.73
289.36	3.41
289.575	21.85
289.79	40.28
290.004	52.56
290.219	13.65
290.434	7.51
290.649	-41.64
290.864	-12.97
291.079	-2.73
291.294	58.71
291.509	-15.02
291.724	27.99
291.938	21.85
292.153	95.57
292.368	17.75
292.583	-10.92
292.798	40.28
293.012	83.28
293.227	-6.83
293.442	9.56
293.657	-4.78
293.871	48.47
294.086	5.46
294.301	44.37
294.516	101.72
294.73	-0.68
294.945	30.04
295.16	62.8
295.374	111.96
295.589	56.66
295.804	9.56
296.018	17.75
296.233	130.39
296.447	89.43
296.662	-39.59
296.877	30.04
297.091	46.42
297.306	-6.83
297.52	30.04
297.735	75.09
297.949	46.42
298.164	54.61
298.378	-4.78
298.593	38.23
298.807	-27.31
299.022	-15.02
299.236	-2.73
299.451	60.76
299.665	-8.87
299.88	23.89
300.094	-10.92
300.309	3.41
300.523	9.56
300.737	25.94
300.952	44.37
301.166	17.75
301.381	-6.83
301.595	-37.55
301.809	32.08
302.024	-12.97
302.238	-27.31
302.452	30.04
302.667	-80.55
302.881	68.95
303.095	1.37
303.309	5.46
303.524	-15.02
303.738	5.46
303.952	-15.02
304.166	116.05
304.381	-6.83
304.595	58.71
304.809	15.7
305.023	42.32
305.237	7.51
305.452	-6.83
305.666	-8.87
305.88	87.38
306.094	77.14
306.308	3.41
306.522	58.71
306.736	-0.68
306.95	44.37
307.164	38.23
307.379	-23.21
307.593	44.37
307.807	-27.31
308.021	42.32
308.235	-39.59
308.449	-25.26
308.663	46.42
308.877	66.9
309.091	30.04
309.305	19.8
309.519	-15.02
309.733	13.65
309.947	-6.83
310.161	99.67
310.374	44.37
310.588	-47.79
310.802	89.43
311.016	-4.78
311.23	42.32
311.444	3.41
311.658	-25.26
311.872	73.04
312.085	17.75
312.299	17.75
312.513	95.57
312.727	50.52
312.941	5.46
313.154	5.46
313.368	64.85
313.582	-35.5
313.796	-4.78
314.009	34.13
314.223	15.7
314.437	32.08
314.651	50.52
314.864	46.42
315.078	34.13
315.292	52.56
315.505	9.56
315.719	46.42
315.933	50.52
316.146	-0.68
316.36	11.61
316.573	85.33
316.787	66.9
317.001	103.76
317.214	60.76
317.428	7.51
317.641	38.23
317.855	27.99
318.068	-15.02
318.282	5.46
318.495	66.9
318.709	62.8
318.922	17.75
319.136	64.85
319.349	48.47
319.563	-35.5
319.776	50.52
319.99	-78.51
320.203	46.42
320.417	58.71
320.63	54.61
320.843	17.75
321.057	42.32
321.27	73.04
321.483	-6.83
321.697	111.96
321.91	48.47
322.124	116.05
322.337	54.61
322.55	9.56
322.763	23.89
322.977	44.37
323.19	7.51
323.403	-8.87
323.617	85.33
323.83	1.37
324.043	-15.02
324.256	79.19
324.469	1.37
324.683	66.9
324.896	34.13
325.109	62.8
325.322	-4.78
325.535	38.23
325.748	25.94
325.962	13.65
326.175	34.13
326.388	32.08
326.601	103.76
326.814	3.41
327.027	107.86
327.24	64.85
327.453	-21.16
327.666	52.56
327.879	142.68
328.092	-39.59
328.305	105.81
328.518	-15.02
328.731	21.85
328.944	-35.5
329.157	25.94
329.37	71
329.583	79.19
329.796	124.24
330.009	38.23
330.222	54.61
330.435	105.81
330.648	83.28
330.861	71
331.073	13.65
331.286	99.67
331.499	7.51
331.712	-19.11
331.925	21.85
332.138	-15.02
332.35	99.67
332.563	1.37
332.776	9.56
332.989	19.8
333.202	25.94
333.414	60.76
333.627	-35.5
333.84	36.18
334.053	11.61
334.265	3.41
334.478	-82.6
334.691	15.7
334.903	5.46
335.116	34.13
335.329	103.76
335.541	66.9
335.754	60.76
335.966	-35.5
336.179	25.94
336.392	46.42
336.604	75.09
336.817	54.61
337.029	23.89
337.242	42.32
337.454	3.41
337.667	109.91
337.88	79.19
338.092	66.9
338.305	66.9
338.517	71
338.729	34.13
338.942	60.76
339.154	9.56
339.367	56.66
339.579	1.37
339.792	-2.73
340.004	66.9
340.217	-27.31
340.429	48.47
340.641	-64.17
340.854	-37.55
341.066	32.08
341.278	48.47
341.491	34.13
341.703	56.66
341.915	-2.73
342.128	64.85
342.34	-17.07
342.552	93.52
342.764	11.61
342.977	17.75
343.189	56.66
343.401	-15.02
343.613	42.32
343.826	34.13
344.038	75.09
344.25	91.48
344.462	19.8
344.674	-55.98
344.886	38.23
345.099	15.7
345.311	62.8
345.523	79.19
345.735	-23.21
345.947	5.46
346.159	34.13
346.371	-12.97
346.583	75.09
346.795	93.52
347.007	-51.88
347.219	5.46
347.431	23.89
347.643	99.67
347.855	27.99
348.067	81.24
348.279	54.61
348.491	42.32
348.703	56.66
348.915	5.46
349.127	56.66
349.339	50.52
349.551	79.19
349.763	58.71
349.975	1.37
350.187	140.63
350.399	38.23
350.61	97.62
350.822	40.28
351.034	62.8
351.246	140.63
351.458	23.89
351.669	68.95
351.881	66.9
352.093	27.99
352.305	48.47
352.517	54.61
352.728	81.24
352.94	75.09
353.152	79.19
353.363	13.65
353.575	-19.11
353.787	91.48
353.999	77.14
354.21	138.58
354.422	50.52
354.633	3.41
354.845	64.85
355.057	48.47
355.268	36.18
355.48	77.14
355.692	-6.83
355.903	3.41
356.115	-6.83
356.326	9.56
356.538	101.72
356.749	58.71
356.961	101.72
357.172	68.95
357.384	25.94
357.595	93.52
357.807	152.92
358.018	-4.78
358.23	19.8
358.441	87.38
358.653	52.56
358.864	32.08
359.075	66.9
359.287	5.46
359.498	105.81
359.709	58.71
359.921	34.13
360.132	38.23
360.344	13.65
360.555	23.89
360.766	71
360.977	-6.83
361.189	27.99
361.4	-68.27
361.611	34.13
361.823	54.61
362.034	81.24
362.245	-90.79
362.456	30.04
362.667	62.8
362.879	36.18
363.09	50.52
363.301	64.85
363.512	48.47
363.723	15.7
363.935	87.38
364.146	105.81
364.357	34.13
364.568	48.47
364.779	17.75
364.99	-10.92
365.201	13.65
365.412	132.44
365.623	40.28
365.834	101.72
366.045	30.04
366.256	95.57
366.467	83.28
366.678	42.32
366.889	7.51
367.1	3.41
367.311	40.28
367.522	40.28
367.733	17.75
367.944	64.85
368.155	-2.73
368.366	7.51
368.577	134.48
368.788	3.41
368.999	-37.55
369.209	-35.5
369.42	114
369.631	101.72
369.842	89.43
370.053	-6.83
370.264	7.51
370.474	15.7
370.685	32.08
370.896	71
371.107	75.09
371.317	56.66
371.528	75.09
371.739	77.14
371.95	38.23
372.16	50.52
372.371	-25.26
372.582	58.71
372.792	9.56
373.003	25.94
373.214	42.32
373.424	42.32
373.635	-6.83
373.846	103.76
374.056	58.71
374.267	-2.73
374.477	154.96
374.688	5.46
374.898	9.56
375.109	38.23
375.319	13.65
375.53	36.18
375.74	50.52
375.951	27.99
376.161	-6.83
376.372	95.57
376.582	62.8
376.793	79.19
377.003	44.37
377.214	73.04
377.424	66.9
377.635	-62.12
377.845	42.32
378.055	157.01
378.266	-2.73
378.476	48.47
378.686	66.9
378.897	79.19
379.107	9.56
379.317	116.05
379.528	40.28
379.738	-2.73
379.948	46.42
380.158	19.8
380.369	32.08
380.579	62.8
380.789	-4.78
380.999	50.52
381.21	79.19
381.42	71
381.63	73.04
381.84	66.9
382.05	48.47
382.261	48.47
382.471	85.33
382.681	83.28
382.891	56.66
383.101	7.51
383.311	17.75
383.521	-17.07
383.731	91.48
383.941	46.42
384.151	34.13
384.361	-80.55
384.571	36.18
384.781	50.52
384.991	132.44
385.201	83.28
385.411	91.48
385.621	109.91
385.831	42.32
386.041	46.42
386.251	83.28
386.461	66.9
386.671	71
386.881	38.23
387.091	-15.02
387.301	111.96
387.511	83.28
387.72	73.04
387.93	124.24
388.14	46.42
388.35	44.37
388.56	159.06
388.769	103.76
388.979	109.91
389.189	36.18
389.399	122.2
389.609	87.38
389.818	97.62
390.028	42.32
390.238	93.52
390.447	30.04
390.657	105.81
390.867	120.15
391.076	46.42
391.286	81.24
391.496	-25.26
391.705	77.14
391.915	138.58
392.125	171.35
392.334	46.42
392.544	71
392.753	77.14
392.963	56.66
393.172	91.48
393.382	42.32
393.591	79.19
393.801	36.18
394.01	132.44
394.22	79.19
394.429	89.43
394.639	109.91
394.848	46.42
395.058	66.9
395.267	77.14
395.477	93.52
395.686	71
395.895	144.72
396.105	163.15
396.314	167.25
396.524	103.76
396.733	81.24
396.942	128.34
397.152	91.48
397.361	140.63
397.57	83.28
397.78	101.72
397.989	124.24
398.198	167.25
398.407	81.24
398.617	58.71
398.826	75.09
399.035	91.48
399.244	142.68
399.453	128.34
399.663	50.52
399.872	64.85
400.081	89.43
400.29	132.44
400.499	132.44
400.708	181.59
400.917	161.11
401.127	42.32
401.336	64.85
401.545	200.02
401.754	122.2
401.963	50.52
402.172	85.33
402.381	21.85
402.59	177.49
402.799	132.44
403.008	146.77
403.217	146.77
403.426	136.53
403.635	99.67
403.844	99.67
404.053	140.63
404.262	173.39
404.471	243.03
404.68	167.25
404.888	212.31
405.097	146.77
405.306	193.87
405.515	208.21
405.724	126.29
405.933	197.97
406.142	197.97
406.35	204.11
406.559	210.26
406.768	247.12
406.977	218.45
407.185	144.72
407.394	202.07
407.603	187.73
407.812	195.92
408.02	238.93
408.229	212.31
408.438	218.45
408.646	275.79
408.855	249.17
409.064	331.09
409.272	236.88
409.481	374.1
409.69	279.89
409.898	265.55
410.107	271.7
410.315	361.81
410.524	296.27
410.733	378.19
410.941	320.85
411.15	392.53
411.358	382.29
411.567	419.15
411.775	404.82
411.984	419.15
412.192	501.07
412.401	417.1
412.609	488.78
412.818	521.55
413.026	431.44
413.234	484.69
413.443	550.22
413.651	527.69
413.86	548.17
414.068	656.72
414.276	619.85
414.485	648.52
414.693	689.48
414.901	705.87
415.11	681.29
415.318	705.87
415.526	802.12
415.734	789.83
415.943	752.97
416.151	851.27
416.359	836.94
416.567	834.89
416.776	1002.82
416.984	978.25
417.192	988.49
417.4	974.15
417.608	961.86
417.817	1082.69
418.025	1187.14
418.233	1168.71
418.441	1217.86
418.649	1135.94
418.857	1373.5
419.065	1336.64
419.273	1260.87
419.481	1432.9
419.689	1484.09
419.897	1434.94
420.105	1582.4
420.313	1609.02
420.521	1582.4
420.729	1744.19
420.937	1846.59
421.145	1686.84
421.353	1961.27
421.561	2004.28
421.769	1920.31
421.977	2098.49
422.185	2020.66
422.393	2202.93
422.601	2286.9
422.809	2342.19
423.017	2477.36
423.224	2501.94
423.432	2686.25
423.64	2565.42
423.848	2735.4
424.056	2610.48
424.263	2932.01
424.471	2942.25
424.679	2907.43
424.887	3058.98
425.094	3224.87
425.302	3302.69
425.51	3372.32
425.718	3444
425.925	3591.45
426.133	3669.28
426.341	3982.62
426.548	4037.91
426.756	4033.82
426.964	4097.3
427.171	4336.92
427.379	4500.75
427.586	4447.51
427.794	4564.24
428.001	4713.74
428.209	5022.98
428.417	5063.94
428.624	5328.13
428.832	5416.19
429.039	5285.12
429.247	5367.04
429.454	5788.93
429.662	6098.17
429.869	5872.89
430.076	6262.01
430.284	5981.43
430.491	6202.61
430.699	6497.52
430.906	6720.75
431.114	6546.67
431.321	6986.99
431.528	7144.68
431.736	7292.13
431.943	7840.99
432.15	7638.24
432.358	7677.15
432.565	8094.94
432.772	8162.52
432.979	8670.42
433.187	8578.26
433.394	8690.9
433.601	9254.09
433.808	9290.95
434.016	9192.65
434.223	9596.1
434.43	10065.08
434.637	10003.64
434.844	10716.34
435.052	10804.4
435.259	10689.71
435.466	10783.92
435.673	10755.25
435.88	11568.29
436.087	12182.68
436.294	11963.55
436.501	11895.97
436.708	12215.45
436.915	12467.35
437.122	13096.08
437.329	12786.83
437.537	13358.22
437.743	13603.97
437.95	13331.59
438.157	14021.76
438.364	14537.85
438.571	14423.16
438.778	14601.33
438.985	15864.93
439.192	15254.64
439.399	16030.82
439.606	15498.34
439.813	16395.36
440.02	17550.41
440.227	17046.61
440.433	16895.06
440.64	17433.68
440.847	17220.69
441.054	17732.68
441.261	18973.75
441.467	18736.18
441.674	19080.24
441.881	19854.37
442.088	19754.02
442.294	19418.16
442.501	20323.36
442.708	20560.92
442.914	21066.77
443.121	22103.04
443.328	21558.28
443.534	23032.82
443.741	22393.86
443.948	22066.18
444.154	23765.99
444.361	23477.23
444.568	23694.32
444.774	23671.79
444.981	24120.29
445.187	24806.36
445.394	25621.45
445.6	25449.42
445.807	27685.81
446.013	26684.35
446.22	26919.87
446.426	27861.93
446.633	28302.25
446.839	29010.84
447.046	28003.24
447.252	29428.63
447.459	29625.23
447.665	29643.66
447.871	30675.84
448.078	31816.56
448.284	30237.58
448.491	31318.9
448.697	32156.52
448.903	33037.15
449.11	33012.57
449.316	32531.3
449.522	32865.12
449.728	33690.45
449.935	34028.37
450.141	34071.37
450.347	34634.56
450.553	33659.73
450.76	34134.86
450.966	34943.81
451.172	34607.94
451.378	35109.69
451.584	34966.34
451.791	35470.14
451.997	35369.79
452.203	35857.2
452.409	36090.67
452.615	35560.25
452.821	34409.29
453.027	33932.11
453.233	35595.06
453.44	33895.25
453.646	34691.91
453.852	34624.32
454.058	35205.95
454.264	33887.06
454.47	34896.7
454.676	33733.46
454.882	35017.53
455.088	31894.38
455.294	32168.81
455.5	32652.13
455.705	33375.06
455.911	31746.93
456.117	31284.09
456.323	31107.96
456.529	28984.22
456.735	30438.28
456.941	29508.5
457.147	28935.07
457.352	28486.56
457.558	27935.66
457.764	27710.38
457.97	27405.24
458.176	26479.55
458.381	26745.79
458.587	25566.16
458.793	25332.69
458.999	24445.92
459.204	25838.54
459.41	24972.25
459.616	23254
459.821	23471.09
460.027	22926.33
460.233	23034.87
460.438	21685.26
460.644	21947.4
460.85	20825.11
461.055	20829.21
461.261	20642.84
461.466	19121.2
461.672	18691.13
461.878	19788.84
462.083	18504.76
462.289	18119.74
462.494	17867.84
462.7	17226.83
462.905	16655.45
463.111	17448.01
463.316	17445.96
463.522	16985.17
463.727	16929.88
463.932	16952.4
464.138	16792.66
464.343	16827.48
464.549	16387.16
464.754	17103.95
464.959	16880.72
465.165	16577.62
465.37	16108.64
465.575	15592.55
465.781	16168.03
465.986	16338.01
466.191	15678.57
466.397	15424.62
466.602	14687.35
466.807	15285.36
467.012	15375.47
467.218	15146.09
467.423	14949.49
467.628	14965.87
467.833	15760.48
468.038	15033.46
468.244	14750.84
468.449	15260.78
468.654	14718.07
468.859	14759.03
469.064	14558.33
469.269	14095.49
469.474	14029.95
469.679	14314.62
469.885	13765.76
470.09	13939.84
470.295	13931.65
470.5	13716.61
470.705	13548.68
470.91	13575.3
471.115	13321.35
471.32	13302.92
471.525	13366.41
471.73	13159.56
471.935	12979.34
472.139	12479.64
472.344	12813.46
472.549	12643.48
472.754	12592.28
472.959	12379.29
473.164	11852.96
473.369	11852.96
473.574	12186.78
473.778	12139.68
473.983	11805.86
474.188	11787.43
474.393	11449.51
474.598	11682.98
474.802	11439.27
475.007	11345.06
475.212	11228.33
475.417	11089.07
475.621	10966.19
475.826	11044.01
476.031	10745.01
476.235	10579.12
476.44	10755.25
476.645	10693.81
476.849	10480.82
477.054	10331.32
477.259	10319.03
477.463	10298.55
477.668	9915.58
477.872	10046.65
478.077	9907.39
478.282	9397.45
478.486	9456.84
478.691	9540.8
478.895	9454.79
479.1	9331.91
479.304	9536.71
479.509	9172.17
479.713	9510.08
479.918	9174.22
480.122	9125.07
480.326	9204.94
480.531	9315.53
480.735	9163.98
480.94	9000.14
481.144	9241.8
481.348	8848.59
481.553	8944.84
481.757	8705.23
481.961	9024.72
482.166	9176.27
482.37	8938.7
482.574	8889.55
482.778	8729.81
482.983	8826.06
483.187	8703.18
483.391	8789.2
483.595	8637.65
483.8	8735.95
484.004	8883.41
484.208	8627.41
484.412	8633.55
484.616	8873.17
484.821	8987.85
485.025	8856.78
485.229	9080.01
485.433	8838.35
485.637	8867.02
485.841	8805.58
486.045	8746.19
486.249	8824.01
486.453	8795.34
486.657	8819.92
486.861	8828.11
487.065	8660.18
487.269	8801.49
487.473	8754.38
487.677	8873.17
487.881	8873.17
488.085	8615.12
488.289	9080.01
488.493	8717.52
488.697	9123.02
488.901	8957.13
489.105	8717.52
489.309	8867.02
489.512	8867.02
489.716	8877.26
489.92	9053.39
490.124	8862.93
490.328	9176.27
490.531	9030.86
490.735	8983.76
490.939	9026.76
491.143	9088.2
491.346	9080.01
491.55	9000.14
491.754	9403.59
491.958	9198.79
492.161	9110.73
492.365	9190.6
492.569	9293
492.772	9374.92
492.976	9405.64
493.18	9458.89
493.383	9508.04
493.587	9536.71
493.79	9643.2
493.994	9669.83
494.197	9727.17
494.401	9714.88
494.605	9823.42
494.808	9864.38
495.012	9964.73
495.215	10077.37
495.419	10118.33
495.622	9977.02
495.825	10310.84
496.029	10341.56
496.232	10736.82
496.436	10251.45
496.639	10575.03
496.843	10661.04
497.046	10937.52
497.249	10970.29
497.453	10900.66
497.656	11306.15
497.859	11109.55
498.063	11158.7
498.266	11447.46
498.469	11547.81
498.673	11469.99
498.876	11721.89
499.079	11981.98
499.282	12092.57
499.485	12209.31
499.689	12319.9
499.892	12383.38
500.095	12457.11
500.298	12825.75
500.501	12444.82
500.705	12903.57
500.908	13102.22
501.111	13257.87
501.314	13403.27
501.517	13530.25
501.72	13646.98
501.923	13626.5
502.126	13972.61
502.329	14152.83
502.532	14279.8
502.735	14275.71
502.938	14550.14
503.141	14396.54
503.344	14988.4
503.547	15072.37
503.75	15158.38
503.953	15273.07
504.156	15416.43
504.359	15707.24
504.562	15707.24
504.765	16014.43
504.968	16282.72
505.17	16415.83
505.373	16450.65
505.576	16827.48
505.779	16927.83
505.982	16858.2
506.185	17437.77
506.387	17482.83
506.59	17736.77
506.793	17806.41
506.996	17794.12
507.198	18269.25
507.401	18306.11
507.604	18336.83
507.807	18814.01
508.009	18871.35
508.212	18996.28
508.415	19309.61
508.617	19698.73
508.82	19635.24
509.022	19635.24
509.225	19833.89
509.428	20255.78
509.63	20517.92
509.833	20415.52
510.035	21353.49
510.238	20782.1
510.44	21019.67
510.643	21365.78
510.845	21705.74
511.048	21515.28
511.25	21883.91
511.453	22244.35
511.655	22760.44
511.858	22748.15
512.06	22711.29
512.262	23145.46
512.465	23124.98
512.667	23278.58
512.87	23733.23
513.072	23581.68
513.274	24474.59
513.477	24687.58
513.679	24617.95
513.881	25396.18
514.084	25070.55
514.286	25150.42
514.488	25390.03
514.69	26233.8
514.893	25811.92
515.095	26182.6
515.297	26708.93
515.499	26772.41
515.701	26899.39
515.904	27542.45
516.106	27567.02
516.308	27833.26
516.51	27755.44
516.712	27978.67
516.914	28580.77
517.116	28371.88
517.318	29008.79
517.52	29078.43
517.722	28953.5
517.925	29531.03
518.127	30315.4
518.329	30315.4
518.531	29926.28
518.733	30763.9
518.935	31069.05
519.136	30724.99
519.338	31646.58
519.54	31447.93
519.742	31691.63
519.944	32070.51
520.146	32758.63
520.348	32551.78
520.55	32738.15
520.752	33405.78
520.954	33885.01
521.155	33266.52
521.357	34007.89
521.559	34374.47
521.761	34601.8
521.963	34523.97
522.164	34925.38
522.366	34829.12
522.568	35226.43
522.77	35672.88
522.971	36049.71
523.173	35763
523.375	36201.26
523.576	36184.88
523.778	36793.12
523.98	37055.26
524.181	37198.62
524.383	37182.24
524.584	37677.85
524.786	37683.99
524.988	37729.05
525.189	37954.32
525.391	38169.36
525.592	38251.28
525.794	38468.36
525.995	38644.49
526.197	38980.35
526.398	38980.35
526.6	39508.73
526.801	39719.67
527.003	39756.53
527.204	39674.62
527.406	39979.76
527.607	39758.58
527.808	40168.18
528.01	39783.16
528.211	40596.2
528.412	41409.25
528.614	41030.37
528.815	41005.8
529.016	41153.25
529.218	40981.22
529.419	41358.05
529.62	41339.61
529.822	41165.54
530.023	41253.6
530.224	41460.44
530.425	41501.4
530.626	41407.2
530.828	41093.86
531.029	42304.21
531.23	41765.59
531.431	42072.79
531.632	42056.4
531.833	42597.07
532.035	42416.85
532.236	42293.97
532.437	42314.45
532.638	41978.58
532.839	42347.22
533.04	42455.76
533.241	42281.68
533.442	42736.33
533.643	42781.38
533.844	42126.03
534.045	42758.86
534.246	42543.82
534.447	42904.26
534.648	42457.81
534.849	42859.21
535.05	42644.17
535.251	42799.82
535.451	42765
535.652	43084.48
535.853	42740.43
536.054	42988.23
536.255	43094.72
536.456	42568.4
536.657	43408.06
536.857	42582.73
537.058	43317.95
537.259	43186.88
537.46	42994.37
537.66	42879.69
537.861	42937.03
538.062	42928.84
538.263	43268.8
538.463	42961.61
538.664	43190.98
538.865	43047.62
539.065	43141.83
539.266	42887.88
539.466	43301.57
539.667	42627.79
539.868	43301.57
540.068	42838.73
540.269	42857.16
540.469	43307.71
540.67	42750.66
540.87	42934.98
541.071	43274.94
541.271	43066.05
541.472	42971.85
541.672	43201.22
541.873	42916.55
542.073	42635.98
542.274	43344.58
542.474	42617.55
542.675	42525.39
542.875	43354.82
543.075	43461.31
543.276	42486.48
543.476	43393.73
543.676	42453.71
543.877	43301.57
544.077	43092.68
544.277	42914.5
544.478	43014.85
544.678	43215.55
544.878	42844.87
545.078	42836.68
545.279	42605.26
545.479	42545.87
545.679	42846.92
545.879	42724.04
546.079	42322.64
546.28	42832.58
546.48	42642.12
546.68	43125.44
546.88	43016.9
547.08	42816.2
547.28	42216.15
547.48	42347.22
547.68	42633.93
547.88	42441.42
548.081	43176.64
548.281	43002.57
548.481	42685.13
548.681	43014.85
548.881	42398.41
549.081	42674.89
549.28	42062.55
549.48	42965.7
549.68	42730.19
549.88	43057.86
550.08	42400.46
550.28	42707.66
550.48	42457.81
550.68	42592.97
550.88	42402.51
551.08	42463.95
551.279	42658.51
551.479	42484.43
551.679	42756.81
551.879	42412.75
552.079	42601.16
552.278	42353.36
552.478	42306.26
552.678	42365.65
552.878	42494.67
553.077	42638.03
553.277	41911
553.477	42756.81
553.676	42425.04
553.876	42379.98
554.076	42285.78
554.275	41870.04
554.475	41544.41
554.674	42068.69
554.874	42021.59
555.074	42042.07
555.273	42166.99
555.473	41935.57
555.672	41558.75
555.872	42162.9
556.071	41769.69
556.271	42240.72
556.47	41552.6
556.67	41548.51
556.869	41429.73
557.068	41356
557.268	41374.43
557.467	41644.76
557.667	41593.56
557.866	41673.43
558.065	41366.24
558.265	41140.96
558.464	40905.45
558.663	41661.15
558.863	40841.96
559.062	41966.29
559.261	40790.76
559.461	41597.66
559.66	40860.39
559.859	41003.75
560.058	40631.02
560.258	40696.55
560.457	40487.66
560.656	40809.19
560.855	40389.36
561.054	40555.24
561.253	40106.74
561.453	40397.55
561.652	40301.29
561.851	40930.02
562.05	40014.58
562.249	39817.97
562.448	40180.46
562.647	39981.81
562.846	40090.35
563.045	40098.55
563.244	39443.2
563.443	40102.64
563.642	39627.51
563.841	39920.37
564.04	39256.83
564.239	39768.82
564.438	39097.09
564.637	39303.93
564.836	39408.38
565.035	38865.67
565.234	38869.76
565.432	38882.05
565.631	38880
565.83	38865.67
566.029	38724.36
566.228	38245.13
566.427	38509.32
566.625	38265.61
566.824	37808.92
567.023	38550.28
567.222	37206.81
567.42	38394.64
567.619	37825.3
567.818	37591.83
568.016	37415.71
568.215	37847.83
568.414	37630.74
568.612	38056.72
568.811	37372.7
569.01	37575.45
569.208	36872.99
569.407	37374.75
569.605	36944.67
569.804	37284.64
570.002	36315.95
570.201	36571.94
570.4	36617
570.598	36752.16
570.797	36549.42
570.995	36129.58
571.193	36297.52
571.392	36492.07
571.59	35617.59
571.789	36113.2
571.987	36059.95
572.186	35838.77
572.384	35369.79
572.582	35863.35
572.781	35785.52
572.979	35267.39
573.177	35326.78
573.376	35418.94
573.574	34945.86
573.772	35208
573.971	35046.21
574.169	34939.71
574.367	34714.44
574.565	34749.25
574.763	34655.04
574.962	34753.35
575.16	34411.34
575.358	34302.79
575.556	34136.91
575.754	34282.31
575.952	34218.83
576.151	34179.92
576.349	33758.03
576.547	33766.23
576.745	33629.01
576.943	33706.83
577.141	33284.95
577.339	33442.65
577.537	33291.1
577.735	33622.87
577.933	33352.54
578.131	33254.23
578.329	32918.37
578.527	32596.84
578.725	33102.68
578.923	32949.09
579.121	32807.78
579.319	32361.32
579.516	32680.8
579.714	32211.82
579.912	32394.09
580.11	32559.97
580.308	32240.49
580.506	32074.6
580.704	31665.01
580.901	32029.55
581.099	31970.16
581.297	31689.59
581.495	31640.43
581.692	31918.96
581.89	31533.94
582.088	31900.53
582.285	31419.25
582.483	31460.21
582.681	30960.51
582.878	31304.57
583.076	30761.86
583.274	31255.42
583.471	30878.59
583.669	30798.72
583.866	30634.88
584.064	31077.24
584.262	30342.02
584.459	30534.53
584.657	30430.08
584.854	30671.75
585.052	29588.37
585.249	30100.36
585.447	30385.03
585.644	29668.24
585.841	29914
586.039	30323.59
586.236	29418.39
586.434	29668.24
586.631	29508.5
586.828	29676.43
587.026	29698.96
587.223	29391.76
587.42	29375.38
587.618	29547.41
587.815	28822.43
588.012	28677.02
588.21	28779.42
588.407	29010.84
588.604	28613.54
588.801	28574.63
588.999	28750.75
589.196	28535.71
589.393	28496.8
589.59	28330.92
589.787	28150.7
589.984	28412.84
590.182	28101.54
590.379	28195.75
590.576	27808.68
590.773	27755.44
590.97	27505.59
591.167	27671.47
591.364	27855.79
591.561	27911.08
591.758	27122.62
591.955	27548.59
592.152	27208.63
592.349	27448.24
592.546	27182.01
592.743	27372.47
592.94	26586.05
593.137	26694.59
593.334	26827.71
593.531	26825.66
593.727	26735.55
593.924	26428.35
594.121	26444.74
594.318	26575.81
594.515	26399.68
594.712	26545.09
594.908	26016.71
595.105	26399.68
595.302	26098.63
595.499	26069.96
595.696	25914.31
595.892	25590.73
596.089	25990.09
596.286	25852.87
596.482	25760.72
596.679	25406.42
596.876	25779.15
597.072	25471.95
597.269	25154.52
597.466	24798.17
597.662	25263.06
597.859	24982.49
598.055	25359.31
598.252	24910.81
598.448	24996.82
598.645	24900.57
598.841	24538.08
599.038	24751.07
599.234	24531.93
599.431	24482.78
599.627	24394.72
599.824	24404.96
600.02	24388.58
600.217	24288.23
600.413	24267.75
600.609	24157.16
600.806	24245.22
601.002	24013.8
601.198	23819.24
601.395	23698.41
601.591	23786.47
601.787	23616.49
601.984	23659.5
602.18	23753.71
602.376	23682.03
602.572	23688.17
602.769	23423.98
602.965	23124.98
603.161	23286.77
603.357	23124.98
603.553	22860.79
603.75	22823.93
603.946	22776.83
604.142	22914.04
604.338	22594.56
604.534	22670.33
604.73	22328.32
604.926	22436.86
605.122	22488.06
605.318	22277.12
605.514	22338.56
605.71	22340.61
605.906	22096.9
606.102	22049.8
606.298	22154.24
606.494	21845
606.69	22041.6
606.886	21855.24
607.082	21654.54
607.278	21861.38
607.474	21459.98
607.67	21873.67
607.866	21451.79
608.062	21736.46
608.257	21392.4
608.453	21619.72
608.649	21730.31
608.845	21421.07
609.041	21341.2
609.236	21224.47
609.432	21236.75
609.628	21253.14
609.824	21099.54
610.019	21017.62
610.215	20759.58
610.411	21156.88
610.606	20831.26
610.802	20847.64
610.998	20786.2
611.193	20904.98
611.389	20585.5
611.584	20548.64
611.78	20624.41
611.976	20763.67
612.171	20653.08
612.367	20515.87
612.562	20501.53
612.758	20270.11
612.953	20053.03
613.149	20296.74
613.344	20151.33
613.539	20374.56
613.735	20196.39
613.93	20153.38
614.126	19905.57
614.321	20055.08
614.517	20235.3
614.712	19958.82
614.907	19991.59
615.103	19975.2
615.298	19829.8
615.493	19758.12
615.688	19741.74
615.884	20055.08
616.079	19444.78
616.274	19700.78
616.47	19702.82
616.665	19436.59
616.86	19631.15
617.055	19629.1
617.25	19303.47
617.445	19538.99
617.641	18998.32
617.836	19514.41
618.031	18947.12
618.226	19139.63
618.421	18981.94
618.616	19362.86
618.811	18857.01
619.006	19031.09
619.201	18605.11
619.396	18748.47
619.591	18433.08
619.786	18797.62
619.981	18254.91
620.176	18396.22
620.371	18318.4
620.566	18523.19
620.761	18324.54
620.956	18330.69
621.151	17962.05
621.346	18025.54
621.541	17833.03
621.735	18267.2
621.93	17589.32
622.125	17585.22
622.32	17198.16
622.515	17675.34
622.709	17239.12
622.904	17077.33
623.099	17300.56
623.294	17347.66
623.488	17040.47
623.683	16845.91
623.878	16880.72
624.072	16839.76
624.267	16811.09
624.462	16641.11
624.656	16491.61
624.851	16462.94
625.046	16208.99
625.24	16311.39
625.435	16221.28
625.629	15991.91
625.824	15856.74
626.018	16077.92
626.213	15375.47
626.407	15719.53
626.602	15332.46
626.796	15647.85
626.991	15598.7
627.185	15262.83
627.38	15314.03
627.574	15545.45
627.768	15002.74
627.963	15146.09
628.157	14937.2
628.352	14918.77
628.546	14683.25
628.74	14695.54
628.935	14689.4
629.129	14564.47
629.323	14476.41
629.517	14509.18
629.712	14396.54
629.906	14455.93
630.1	14109.82
630.294	14169.21
630.489	14027.9
630.683	14060.67
630.877	13749.38
631.071	13735.04
631.265	13681.8
631.459	13771.91
631.653	13665.41
631.848	13712.52
632.042	13474.95
632.236	13321.35
632.43	13134.99
632.624	13345.93
632.818	13403.27
633.012	12858.51
633.206	13104.27
633.4	12987.54
633.594	12706.96
633.788	12797.07
633.982	12995.73
634.176	12807.31
634.369	12356.76
634.563	12545.17
634.757	12323.99
634.951	12397.72
635.145	12522.65
635.339	12391.58
635.533	12287.13
635.726	12102.81
635.92	12051.61
636.114	11965.6
636.308	12022.94
636.501	11867.3
636.695	11801.76
636.889	11914.4
637.083	11396.26
637.276	11738.27
637.47	11553.96
637.664	11412.65
637.857	11580.58
638.051	11469.99
638.244	11312.3
638.438	11257
638.632	11289.77
638.825	10960.05
639.019	11052.2
639.212	10996.91
639.406	10871.98
639.599	11027.63
639.793	11001.01
639.986	10577.08
640.18	10871.98
640.373	10601.65
640.567	10339.51
640.76	10607.8
640.954	10441.91
641.147	10511.54
641.34	10243.26
641.534	10390.71
641.727	10214.59
641.92	10331.32
642.114	10171.58
642.307	10144.95
642.5	10026.17
642.694	9845.95
642.887	9972.93
643.08	9860.29
643.273	9768.13
643.467	9811.14
643.66	9684.16
643.853	9655.49
644.046	9565.38
644.239	9581.76
644.432	9561.28
644.626	9557.19
644.819	9514.18
645.012	9411.78
645.205	9405.64
645.398	9145.55
645.591	9407.69
645.784	9254.09
645.977	8910.03
646.17	9055.44
646.363	8961.23
646.556	8709.33
646.749	8731.86
646.942	9069.77
647.135	8764.62
647.328	8715.47
647.521	8631.51
647.714	8484.05
647.907	8467.67
648.099	8430.8
648.292	8586.45
648.485	8580.31
648.678	8422.61
648.871	8486.1
649.064	8479.96
649.256	8166.62
649.449	8174.81
649.642	8426.71
649.835	8217.82
650.027	8178.9
650.22	8025.31
650.413	8068.31
650.605	8023.26
650.798	7849.18
650.991	7806.17
651.183	7709.92
651.376	7781.6
651.568	8033.5
651.761	7599.33
651.954	7894.24
652.146	7646.43
652.339	7689.44
652.531	7603.43
652.724	7554.27
652.916	7466.21
653.109	7455.97
653.301	7400.68
653.494	7468.26
653.686	7277.8
653.879	7392.48
654.071	7146.73
654.263	7171.3
654.456	7210.22
654.648	7380.2
654.84	7042.28
655.033	7054.57
655.225	7187.69
655.417	7052.52
655.61	6999.27
655.802	7056.62
655.994	6851.82
656.186	6866.16
656.379	6743.28
656.571	6855.92
656.763	6903.02
656.955	6628.59
657.148	6675.7
657.34	6726.89
657.532	6542.58
657.724	6595.82
657.916	6489.33
658.108	6575.35
658.3	6532.34
658.492	6655.22
658.684	6591.73
658.876	6411.51
659.068	6315.25
659.26	6241.53
659.452	6356.21
659.644	6431.99
659.836	6296.82
660.028	6282.49
660.22	6141.18
660.412	6044.92
660.604	6063.35
660.796	5981.43
660.988	6030.59
661.18	6030.59
661.372	5981.43
661.563	5987.58
661.755	5850.36
661.947	5797.12
662.139	5868.8
662.331	5752.06
662.522	5768.45
662.714	5850.36
662.906	5733.63
663.097	5899.52
663.289	5698.81
663.481	5524.74
663.673	5655.81
663.864	5408
664.056	5674.24
664.247	5522.69
664.439	5391.62
664.631	5557.5
664.822	5561.6
665.014	5371.14
665.205	5563.65
665.397	5348.61
665.588	5332.23
665.78	5391.62
665.971	5389.57
666.163	5184.77
666.354	5418.24
666.546	5217.54
666.737	5211.4
666.929	5135.62
667.12	5207.3
667.311	5121.29
667.503	5080.33
667.694	5082.38
667.885	4961.55
668.077	5051.66
668.268	4914.44
668.459	4939.02
668.651	4877.58
668.842	4998.41
669.033	5002.51
669.224	4914.44
669.416	5109
669.607	4939.02
669.798	4918.54
669.989	4973.83
670.18	4873.48
670.371	4783.37
670.563	4668.69
670.754	4939.02
670.945	4785.42
671.136	4582.67
671.327	4791.56
671.518	4805.9
671.709	4732.17
671.9	4744.46
672.091	4623.63
672.282	4656.4
672.473	4785.42
672.664	4590.86
672.855	4676.88
673.046	4584.72
673.237	4592.91
673.428	4537.62
673.619	4568.34
673.809	4621.58
674	4486.42
674.191	4564.24
674.382	4377.87
674.573	4513.04
674.764	4527.38
674.954	4431.12
675.145	4279.57
675.336	4386.07
675.527	4412.69
675.717	4300.05
675.908	4445.46
676.099	4191.51
676.289	4535.57
676.48	4271.38
676.671	4312.34
676.861	4334.87
677.052	4269.33
677.243	4267.28
677.433	4162.84
677.624	4328.72
677.814	4263.19
678.005	4195.61
678.195	4228.37
678.386	4281.62
678.576	4338.96
678.767	4166.93
678.957	3968.28
679.148	4080.92
679.338	4334.87
679.529	4189.46
679.719	4052.25
679.909	4224.28
680.1	4158.74
680.29	4117.78
680.481	4039.96
680.671	4238.61
680.861	3933.47
681.052	4175.13
681.242	4089.11
681.432	4228.37
681.622	3882.27
681.813	3955.99
682.003	4089.11
682.193	4085.02
682.383	4029.72
682.573	3892.51
682.764	4003.1
682.954	3966.23
683.144	4046.1
683.334	4087.06
683.524	4033.82
683.714	4076.82
683.904	4035.86
684.094	3988.76
684.284	4085.02
684.474	3980.57
684.664	4125.97
684.854	3947.8
685.044	3863.83
685.234	3900.7
685.424	4017.43
685.614	3841.31
685.804	3900.7
685.994	3853.59
686.184	3851.55
686.374	3892.51
686.564	3822.88
686.753	3917.08
686.943	3837.21
687.133	3745.05
687.323	3788.06
687.513	3835.16
687.702	3718.43
687.892	3683.61
688.082	3718.43
688.272	3751.2
688.461	3767.58
688.651	3562.78
688.841	3695.9
689.03	3628.32
689.22	3673.37
689.41	3726.62
689.599	3593.5
689.789	3618.08
689.979	3525.92
690.168	3624.22
690.358	3564.83
690.547	3648.8
690.737	3501.34
690.926	3700
691.116	3523.87
691.305	3505.44
691.495	3519.78
691.684	3503.39
691.874	3704.09
692.063	3644.7
692.252	3523.87
692.442	3491.1
692.631	3366.18
692.82	3419.43
693.01	3366.18
693.199	3304.74
693.388	3349.79
693.578	3464.48
693.767	3421.47
693.956	3314.98
694.146	3435.81
694.335	3384.61
694.524	3360.03
694.713	3314.98
694.902	3333.41
695.092	3231.01
695.281	3300.64
695.47	3333.41
695.659	3280.16
695.848	3253.54
696.037	3294.5
696.226	3185.96
696.415	3374.37
696.604	3251.49
696.793	3298.6
696.982	3286.31
697.171	3319.07
697.36	3200.29
697.549	3147.05
697.738	3288.36
697.927	3204.39
698.116	3138.85
698.305	3222.82
698.494	3192.1
698.683	3300.64
698.872	3310.88
699.061	3243.3
699.25	3284.26
699.438	3183.91
699.627	3171.62
699.816	3353.89
700.005	3181.86
700.193	3200.29
700.382	3331.36
700.571	3116.33
700.76	3282.21
700.948	3153.19
701.137	3224.87
701.326	3171.62
701.514	3130.66
701.703	3173.67
701.892	3126.57
702.08	3145
702.269	3194.15
702.457	3046.69
702.646	3228.96
702.834	3114.28
703.023	3278.12
703.212	3218.72
703.4	3269.92
703.589	3140.9
703.777	3206.44
703.965	3169.57
704.154	3224.87
704.342	3153.19
704.531	3362.08
704.719	3208.48
704.907	3192.1
705.096	3136.81
705.284	3202.34
705.472	3208.48
705.661	3235.11
705.849	3134.76
706.037	3101.99
706.226	3185.96
706.414	3165.48
706.602	3245.35
706.79	3251.49
706.979	3171.62
707.167	3278.12
707.355	3290.4
707.543	3177.76
707.731	3206.44
707.919	3208.48
708.107	3114.28
708.296	3306.79
708.484	3056.93
708.672	3415.33
708.86	3278.12
709.048	3245.35
709.236	3153.19
709.424	3245.35
709.612	3220.77
709.8	3024.17
709.988	3237.16
710.176	3306.79
710.364	3257.64
710.551	3198.24
710.739	3171.62
710.927	3222.82
711.115	3218.72
711.303	3245.35
711.491	3265.83
711.679	3171.62
711.866	3167.53
712.054	3175.72
712.242	3140.9
712.43	3245.35
712.617	3251.49
712.805	3212.58
712.993	3179.81
713.181	3202.34
713.368	3233.06
713.556	3243.3
713.744	3056.93
713.931	3296.55
714.119	3085.61
714.306	3278.12
714.494	3130.66
714.682	3294.5
714.869	3278.12
715.057	3210.53
715.244	3206.44
715.432	3183.91
715.619	3263.78
715.807	3228.96
715.994	3165.48
716.182	3310.88
716.369	3226.92
716.556	3245.35
716.744	3134.76
716.931	3228.96
717.119	3188
717.306	3210.53
717.493	3235.11
717.681	3237.16
717.868	3288.36
718.055	3286.31
718.242	3331.36
718.43	3278.12
718.617	3331.36
718.804	3212.58
718.991	3183.91
719.179	3181.86
719.366	3247.4
719.553	3255.59
719.74	3249.44
719.927	3308.83
720.114	3200.29
720.301	3339.55
720.488	3171.62
720.676	3302.69
720.863	3190.05
721.05	3306.79
721.237	3167.53
721.424	3312.93
721.611	3247.4
721.798	3216.68
721.985	3251.49
722.172	3177.76
722.358	3165.48
722.545	3284.26
722.732	3120.42
722.919	3153.19
723.106	3200.29
723.293	3351.84
723.48	3292.45
723.667	3183.91
723.853	3114.28
724.04	3396.9
724.227	3202.34
724.414	3155.24
724.6	3190.05
724.787	3218.72
724.974	3319.07
725.161	3259.68
725.347	3079.46
725.534	3259.68
725.72	3140.9
725.907	3243.3
726.094	3155.24
726.28	3114.28
726.467	3157.29
726.653	3040.55
726.84	3142.95
727.027	3192.1
727.213	3118.37
727.4	3267.88
727.586	3093.8
727.773	3138.85
727.959	3192.1
728.145	3269.92
728.332	3056.93
728.518	3210.53
728.705	3249.44
728.891	3220.77
729.077	3171.62
729.264	3136.81
729.45	3089.7
729.636	3257.64
729.823	3079.46
730.009	3159.33
730.195	3128.61
730.382	3208.48
730.568	3013.93
730.754	3167.53
730.94	3056.93
731.126	3118.37
731.313	3155.24
731.499	3208.48
731.685	3140.9
731.871	3210.53
732.057	3163.43
732.243	3167.53
732.429	3013.93
732.615	3073.32
732.801	3050.79
732.987	3003.69
733.173	3073.32
733.359	3198.24
733.545	3101.99
733.731	3077.41
733.917	3083.56
734.103	3001.64
734.289	3188
734.475	3167.53
734.661	2999.59
734.847	3114.28
735.033	3118.37
735.219	3163.43
735.404	3018.02
735.59	3188
735.776	2913.58
735.962	3095.85
736.148	3188
736.333	3179.81
736.519	3007.78
736.705	3155.24
736.89	3024.17
737.076	3067.17
737.262	2886.95
737.447	2886.95
737.633	2864.43
737.819	2891.05
738.004	2893.1
738.19	2800.94
738.375	3015.98
738.561	3032.36
738.747	2913.58
738.932	2932.01
739.118	2878.76
739.303	3005.74
739.489	2962.73
739.674	2991.4
739.859	2860.33
740.045	2839.85
740.23	2929.96
740.416	2757.93
740.601	2829.61
740.786	2991.4
740.972	2698.54
741.157	2757.93
741.342	2676.01
741.528	2811.18
741.713	2766.12
741.898	2821.42
742.084	2610.48
742.269	2833.71
742.454	2702.64
742.639	2702.64
742.824	2657.58
743.01	2757.93
743.195	2698.54
743.38	2587.95
743.565	2663.72
743.75	2665.77
743.935	2788.65
744.12	2725.16
744.305	2590
744.49	2565.42
744.675	2606.38
744.86	2653.48
745.045	2614.57
745.23	2510.13
745.415	2622.77
745.6	2626.86
745.785	2463.02
745.97	2616.62
746.155	2489.65
746.34	2403.63
746.525	2471.22
746.71	2483.5
746.895	2450.74
747.079	2387.25
747.264	2317.62
747.449	2352.43
747.634	2368.82
747.819	2463.02
748.003	2288.95
748.188	2342.19
748.373	2360.63
748.557	2262.32
748.742	2286.9
748.927	2280.75
749.111	2284.85
749.296	2204.98
749.481	2250.03
749.665	2209.08
749.85	2188.6
750.034	2270.51
750.219	2272.56
750.404	2104.63
750.588	2014.52
750.773	1985.85
750.957	2090.29
751.141	1975.61
751.326	2032.95
751.51	2118.97
751.695	2121.01
751.879	2073.91
752.064	2010.42
752.248	2102.58
752.432	1998.13
752.617	2006.33
752.801	2043.19
752.985	1877.3
753.17	1977.66
753.354	2069.81
753.538	1920.31
753.722	2022.71
753.907	1957.18
754.091	1842.49
754.275	1922.36
754.459	1836.35
754.643	1877.3
754.828	1795.39
755.012	1762.62
755.196	1811.77
755.38	1756.47
755.564	1631.55
755.748	1760.57
755.932	1754.43
756.116	1729.85
756.3	1606.97
756.484	1660.22
756.668	1748.28
756.852	1699.13
757.036	1746.23
757.22	1699.13
757.404	1545.53
757.588	1662.27
757.772	1686.84
757.956	1662.27
758.14	1594.69
758.323	1631.55
758.507	1623.36
758.691	1520.96
758.875	1475.9
759.059	1475.9
759.242	1590.59
759.426	1553.73
759.61	1490.24
759.794	1568.06
759.977	1535.29
760.161	1527.1
760.345	1504.57
760.528	1504.57
760.712	1508.67
760.895	1498.43
761.079	1348.93
761.263	1361.22
761.446	1385.79
761.63	1428.8
761.813	1369.41
761.997	1387.84
762.18	1398.08
762.364	1393.98
762.547	1320.26
762.731	1385.79
762.914	1291.59
763.098	1328.45
763.281	1332.54
763.464	1365.31
763.648	1334.59
763.831	1346.88
764.015	1361.22
764.198	1232.19
764.381	1285.44
764.564	1258.82
764.748	1291.59
764.931	1359.17
765.114	1330.5
765.297	1359.17
765.481	1248.58
765.664	1310.02
765.847	1297.73
766.03	1275.2
766.213	1226.05
766.397	1228.1
766.58	1178.95
766.763	1328.45
766.946	1246.53
767.129	1277.25
767.312	1230.15
767.495	1271.11
767.678	1195.33
767.861	1234.24
768.044	1193.28
768.227	1217.86
768.41	1234.24
768.593	1181
768.776	1127.75
768.959	1105.22
769.142	1160.52
769.324	1125.7
769.507	1201.48
769.69	1115.46
769.873	1123.65
770.056	1254.72
770.239	1156.42
770.421	1037.64
770.604	1025.35
770.787	984.39
770.97	1187.14
771.152	1060.17
771.335	1160.52
771.518	1051.97
771.7	1068.36
771.883	1129.8
772.066	1074.5
772.248	1035.59
772.431	996.68
772.613	1039.69
772.796	1121.6
772.978	1060.17
773.161	1107.27
773.343	959.81
773.526	970.05
773.708	937.29
773.891	929.1
774.073	1084.74
774.256	957.77
774.438	1090.88
774.621	814.41
774.803	1000.77
774.985	865.61
775.168	898.38
775.35	931.14
775.532	894.28
775.715	933.19
775.897	974.15
776.079	795.98
776.261	859.46
776.444	916.81
776.626	894.28
776.808	902.47
776.99	793.93
777.173	785.74
777.355	855.37
777.537	849.22
777.719	812.36
777.901	795.98
778.083	771.4
778.265	847.18
778.447	781.64
778.629	748.87
778.811	845.13
778.993	843.08
779.175	787.79
779.357	777.55
779.539	750.92
779.721	755.02
779.903	867.66
780.085	783.69
780.267	732.49
780.449	712.01
780.631	750.92
780.812	746.83
780.994	787.79
781.176	654.67
781.358	705.87
781.54	671.05
781.721	718.15
781.903	693.58
782.085	646.48
782.267	677.19
782.448	605.52
782.63	621.9
782.812	626
782.993	560.46
783.175	628.04
783.357	615.76
783.538	666.96
783.72	671.05
783.901	603.47
784.083	646.48
784.264	542.03
784.446	564.56
784.627	640.33
784.809	623.95
784.99	603.47
785.172	580.94
785.353	605.52
785.535	650.57
785.716	632.14
785.897	533.84
786.079	552.27
786.26	656.72
786.441	566.6
786.623	544.08
786.804	501.07
786.985	470.35
787.167	533.84
787.348	505.17
787.529	537.93
787.71	550.22
787.891	503.12
788.073	519.5
788.254	501.07
788.435	542.03
788.616	531.79
788.797	480.59
788.978	423.25
789.159	425.29
789.34	490.83
789.522	460.11
789.703	435.53
789.884	435.53
790.065	505.17
790.246	542.03
790.427	462.16
790.607	486.73
790.788	474.45
790.969	419.15
791.15	394.58
791.331	402.77
791.512	447.82
791.693	470.35
791.874	357.71
792.054	451.92
792.235	423.25
792.416	335.18
792.597	324.94
792.778	394.58
792.958	404.82
793.139	464.21
793.32	370
793.5	398.67
793.681	462.16
793.862	503.12
794.042	427.34
794.223	382.29
794.404	324.94
794.584	341.33
794.765	370
794.945	339.28
795.126	445.77
795.306	431.44
795.487	333.14
795.667	392.53
795.848	410.96
796.028	421.2
796.209	390.48
796.389	345.42
796.57	365.9
796.75	449.87
796.93	341.33
797.111	314.7
797.291	341.33
797.471	398.67
797.652	312.66
797.832	370
798.012	302.42
798.192	359.76
798.373	292.18
798.553	392.53
798.733	363.86
798.913	365.9
799.093	281.94
799.274	294.22
799.454	271.7
799.634	382.29
799.814	292.18
799.994	343.38
800.174	355.66
800.354	300.37
800.534	322.9
800.714	318.8
800.894	197.97
801.074	298.32
801.254	206.16
801.434	265.55
801.614	212.31
801.794	263.51
801.974	689.48
802.154	261.46
802.334	337.23
802.514	220.5
802.693	296.27
802.873	304.46
803.053	296.27
803.233	267.6
803.413	247.12
803.592	296.27
803.772	245.07
803.952	281.94
804.131	255.31
804.311	283.99
804.491	281.94
804.67	243.03
804.85	253.27
805.03	304.46
805.209	302.42
805.389	220.5
805.568	173.39
805.748	300.37
805.928	361.81
806.107	255.31
806.287	292.18
806.466	226.64
806.646	279.89
806.825	189.78
807.004	165.2
807.184	259.41
807.363	240.98
807.543	189.78
807.722	273.75
807.901	255.31
808.081	275.79
808.26	193.87
808.439	185.68
808.619	208.21
808.798	228.69
808.977	210.26
809.156	238.93
809.336	169.3
809.515	226.64
809.694	169.3
809.873	236.88
810.052	273.75
810.231	298.32
810.411	269.65
810.59	226.64
810.769	238.93
810.948	259.41
811.127	193.87
811.306	216.4
811.485	152.92
811.664	214.35
811.843	212.31
812.022	232.79
812.201	195.92
812.38	173.39
812.559	179.54
812.737	222.55
812.916	181.59
813.095	159.06
813.274	210.26
813.453	212.31
813.632	204.11
813.811	234.83
813.989	208.21
814.168	169.3
814.347	189.78
814.526	195.92
814.704	230.74
814.883	245.07
815.062	181.59
815.24	238.93
815.419	159.06
815.598	210.26
815.776	169.3
815.955	206.16
816.133	163.15
816.312	159.06
816.49	122.2
816.669	169.3
816.847	232.79
817.026	150.87
817.204	187.73
817.383	230.74
817.561	120.15
817.74	216.4
817.918	161.11
818.097	163.15
818.275	79.19
818.453	218.45
818.632	152.92
818.81	189.78
818.988	171.35
819.167	204.11
819.345	230.74
819.523	183.63
819.701	193.87
819.879	150.87
820.058	148.82
820.236	224.59
820.414	132.44
820.592	140.63
820.77	107.86
820.948	214.35
821.127	114
821.305	132.44
821.483	181.59
821.661	56.66
821.839	204.11
822.017	157.01
822.195	116.05
822.373	218.45
822.551	187.73
822.729	120.15
822.907	56.66
823.085	91.48
823.262	75.09
823.44	122.2
823.618	46.42
823.796	134.48
823.974	126.29
824.152	116.05
824.329	128.34
824.507	120.15
824.685	30.04
824.863	134.48
825.04	36.18
825.218	116.05
825.396	130.39
825.574	136.53
825.751	111.96
825.929	71
826.107	87.38
826.284	124.24
826.462	124.24
826.639	105.81
826.817	193.87
826.994	103.76
827.172	107.86
827.349	167.25
827.527	165.2
827.704	140.63
827.882	124.24
828.059	95.57
828.237	144.72
828.414	83.28
828.591	105.81
828.769	157.01
828.946	99.67
829.124	111.96
829.301	140.63
829.478	89.43
829.655	134.48
829.833	85.33
830.01	107.86
830.187	97.62
830.364	50.52
830.542	54.61
830.719	120.15
830.896	71
831.073	126.29
831.25	99.67
831.427	120.15
831.604	62.8
831.782	144.72
831.959	163.15
832.136	64.85
832.313	93.52
832.49	116.05
832.667	83.28
832.844	75.09
833.021	107.86
833.198	134.48
833.374	111.96
833.551	118.1
833.728	126.29
833.905	95.57
834.082	85.33
834.259	116.05
834.436	157.01
834.612	81.24
834.789	157.01
834.966	114
835.143	130.39
835.319	23.89
835.496	105.81
835.673	99.67
835.85	122.2
836.026	120.15
836.203	97.62
836.38	99.67
836.556	142.68
836.733	95.57
836.909	56.66
837.086	66.9
837.262	17.75
837.439	95.57
837.616	15.7
837.792	46.42
837.968	46.42
838.145	87.38
838.321	32.08
838.498	83.28
838.674	93.52
838.851	81.24
839.027	42.32
839.203	23.89
839.38	85.33
839.556	64.85
839.732	89.43
839.909	30.04
840.085	120.15
840.261	58.71
840.437	36.18
840.614	58.71
840.79	91.48
840.966	60.76
841.142	58.71
841.318	159.06
841.494	66.9
841.671	52.56
841.847	9.56
842.023	56.66
842.199	58.71
842.375	-6.83
842.551	58.71
842.727	62.8
842.903	109.91
843.079	34.13
843.255	118.1
843.431	34.13
843.607	32.08
843.783	48.47
843.959	66.9
844.134	11.61
844.31	83.28
844.486	21.85
844.662	19.8
844.838	103.76
845.013	120.15
845.189	99.67
845.365	91.48
845.541	118.1
845.716	130.39
845.892	116.05
846.068	66.9
846.244	5.46
846.419	62.8
846.595	42.32
846.77	19.8
846.946	130.39
847.122	30.04
847.297	85.33
847.473	40.28
847.648	-2.73
847.824	89.43
847.999	48.47
848.175	34.13
848.35	40.28
848.526	40.28
848.701	91.48
848.876	126.29
849.052	58.71
849.227	30.04
849.403	30.04
849.578	7.51
849.753	56.66
849.929	144.72
850.104	75.09
850.279	111.96
850.454	52.56
850.63	101.72
850.805	50.52
850.98	38.23
851.155	75.09
851.33	5.46
851.505	-25.26
851.681	15.7
851.856	60.76
852.031	81.24
852.206	9.56
852.381	58.71
852.556	27.99
852.731	-19.11
852.906	5.46
853.081	17.75
853.256	138.58
853.431	34.13
853.606	56.66
853.781	17.75
853.956	34.13
854.131	54.61
854.305	-15.02
854.48	83.28
854.655	21.85
854.83	1.37
855.005	75.09
855.18	71
855.354	-15.02
855.529	89.43
855.704	21.85
855.879	38.23
856.053	7.51
856.228	-19.11
856.403	9.56
856.577	54.61
856.752	75.09
856.926	5.46
857.101	40.28
857.276	50.52
857.45	9.56
857.625	81.24
857.799	85.33
857.974	85.33
858.148	-2.73
858.323	13.65
858.497	5.46
858.672	60.76
858.846	75.09
859.02	77.14
859.195	-4.78
859.369	7.51
859.543	-25.26
859.718	5.46
859.892	15.7
860.066	48.47
860.241	-17.07
860.415	23.89
860.589	9.56
860.763	9.56
860.938	5.46
861.112	56.66
861.286	64.85
861.46	62.8
861.634	30.04
861.808	93.52
861.982	5.46
862.157	23.89
862.331	109.91
862.505	64.85
862.679	44.37
862.853	44.37
863.027	15.7
863.201	81.24
863.375	-8.87
863.549	-2.73
863.722	87.38
863.896	21.85
864.07	-19.11
864.244	46.42
864.418	3.41
864.592	38.23
864.766	17.75
864.939	50.52
865.113	5.46
865.287	-41.64
865.461	-55.98
865.634	1.37
865.808	-0.68
865.982	42.32
866.156	13.65
866.329	-25.26
866.503	9.56
866.676	58.71
866.85	25.94
867.024	-43.69
867.197	32.08
867.371	54.61
867.544	-2.73
867.718	66.9
867.891	46.42
868.065	-12.97
868.238	97.62
868.412	42.32
868.585	15.7
868.759	66.9
868.932	40.28
869.105	7.51
869.279	13.65
869.452	9.56
869.625	46.42
869.799	7.51
869.972	3.41
870.145	40.28
870.319	-0.68
870.492	-10.92
870.665	21.85
870.838	15.7
871.011	-49.83
871.185	111.96
871.358	-8.87
871.531	17.75
871.704	-17.07
871.877	75.09
872.05	75.09
872.223	66.9
872.396	71
872.569	54.61
872.742	-15.02
872.915	-58.03
873.088	-31.4
873.261	21.85
873.434	38.23
873.607	1.37
873.78	71
873.953	-55.98
874.126	1.37
874.299	73.04
874.471	15.7
874.644	1.37
874.817	48.47
874.99	32.08
875.163	79.19
875.335	-21.16
875.508	34.13
875.681	42.32
875.853	-4.78
876.026	34.13
876.199	5.46
876.371	44.37
876.544	9.56
876.717	9.56
876.889	17.75
877.062	25.94
877.234	-78.51
877.407	-2.73
877.579	-6.83
877.752	-31.4
877.924	75.09
878.097	40.28
878.269	-37.55
878.442	-27.31
878.614	32.08
878.786	30.04
878.959	-47.79
879.131	52.56
879.303	-82.6
879.476	17.75
879.648	38.23
879.82	13.65
879.993	30.04
880.165	46.42
880.337	-15.02
880.509	9.56
880.681	21.85
880.854	25.94
881.026	-27.31
881.198	83.28
881.37	21.85
881.542	103.76
881.714	23.89
881.886	-25.26
882.058	-23.21
882.23	91.48
882.402	27.99
882.574	38.23
882.746	38.23
882.918	77.14
883.09	58.71
883.262	-12.97
883.434	60.76
883.606	5.46
883.778	40.28
883.95	-4.78
884.122	-12.97
884.293	27.99
884.465	-17.07
884.637	19.8
884.809	-31.4
884.98	9.56
885.152	-39.59
885.324	27.99
885.496	-72.36
885.667	56.66
885.839	-31.4
886.011	52.56
886.182	9.56
886.354	42.32
886.525	7.51
886.697	64.85
886.869	1.37
887.04	9.56
887.212	3.41
887.383	75.09
887.555	-23.21
887.726	-43.69
887.897	7.51
888.069	-15.02
888.24	46.42
888.412	19.8
888.583	13.65
888.754	-8.87
888.926	-72.36
889.097	-62.12
889.268	-72.36
889.44	9.56
889.611	17.75
889.782	11.61
889.953	-15.02
890.125	32.08
890.296	-33.45
890.467	-6.83
890.638	-68.27
890.809	-10.92
890.98	-2.73
891.151	73.04
891.323	13.65
891.494	50.52
891.665	-27.31
891.836	-25.26
892.007	-17.07
892.178	-39.59
892.349	64.85
892.52	-103.08
892.691	-6.83
892.862	30.04
893.032	-43.69
893.203	17.75
893.374	50.52
893.545	99.67
893.716	21.85
893.887	91.48
894.057	-31.4
894.228	7.51
894.399	9.56
894.57	79.19
894.74	1.37
894.911	-4.78
895.082	17.75
895.253	-19.11
895.423	19.8
895.594	87.38
895.764	23.89
895.935	-47.79
896.106	-25.26
896.276	-49.83
896.447	42.32
896.617	-27.31
896.788	25.94
896.958	-47.79
897.129	-43.69
897.299	66.9
897.47	42.32
897.64	15.7
897.81	7.51
897.981	38.23
898.151	9.56
898.322	103.76
898.492	1.37
898.662	23.89
898.832	48.47
899.003	5.46
899.173	9.56
899.343	-19.11
899.513	17.75
