Data from USB4F104151__114__10-24-57-300.txt Node

Date: Wed Mar 12 10:24:57 EDT 2025
User: louis
Spectrometer: USB4F10415
Trigger mode: 4
Integration Time (sec): 3.000000E-2
Scans to average: 1
Electric dark correction enabled: true
Nonlinearity correction enabled: false
Boxcar width: 0
XAxis mode: Wavelengths
Number of Pixels in Spectrum: 3648
>>>>>Begin Spectral Data<<<<<
178.204	-99.5
178.424	-99.5
178.644	-99.5
178.864	-158.89
179.084	-101.55
179.304	-3.24
179.524	17.24
179.744	4.95
179.964	99.16
180.184	4.95
180.404	39.76
180.624	-21.67
180.844	27.48
181.064	-79.02
181.283	4.95
181.503	-17.58
181.723	-76.97
181.943	-33.96
182.163	21.33
182.383	-29.87
182.602	43.86
182.822	64.34
183.042	-50.35
183.262	9.05
183.482	-38.06
183.701	19.29
183.921	9.05
184.141	31.57
184.361	7
184.58	-23.72
184.8	68.44
185.02	-31.91
185.239	95.06
185.459	-46.25
185.679	-13.48
185.898	74.58
186.118	27.48
186.338	-33.96
186.557	-23.72
186.777	0.85
186.997	43.86
187.216	-15.53
187.436	37.72
187.655	-15.53
187.875	41.81
188.095	97.11
188.314	31.57
188.534	97.11
188.753	23.38
188.973	-17.58
189.192	56.15
189.412	52.05
189.631	68.44
189.851	43.86
190.07	78.68
190.29	2.9
190.509	27.48
190.729	64.34
190.948	80.72
191.168	43.86
191.387	84.82
191.607	-11.43
191.826	39.76
192.045	-25.77
192.265	-42.15
192.484	-11.43
192.704	23.38
192.923	39.76
193.142	121.68
193.362	21.33
193.581	64.34
193.8	95.06
194.02	25.43
194.239	25.43
194.458	45.91
194.678	4.95
194.897	27.48
195.116	-15.53
195.335	-27.82
195.555	-11.43
195.774	-54.44
195.993	93.01
196.212	-68.78
196.432	50
196.651	39.76
196.87	0.85
197.089	82.77
197.308	78.68
197.528	17.24
197.747	-19.63
197.966	23.38
198.185	-33.96
198.404	17.24
198.623	39.76
198.842	-17.58
199.062	74.58
199.281	11.09
199.5	2.9
199.719	31.57
199.938	13.14
200.157	27.48
200.376	68.44
200.595	15.19
200.814	60.24
201.033	-11.43
201.252	19.29
201.471	54.1
201.69	-23.72
201.909	31.57
202.128	-13.48
202.347	-11.43
202.566	31.57
202.785	23.38
203.004	-19.63
203.223	88.92
203.442	62.29
203.661	105.3
203.879	43.86
204.098	60.24
204.317	35.67
204.536	50
204.755	54.1
204.974	-9.39
205.193	25.43
205.411	29.52
205.63	-11.43
205.849	37.72
206.068	35.67
206.287	52.05
206.505	11.09
206.724	86.87
206.943	-33.96
207.162	-17.58
207.381	-46.25
207.599	-17.58
207.818	-38.06
208.037	52.05
208.255	13.14
208.474	37.72
208.693	29.52
208.911	-42.15
209.13	7
209.349	4.95
209.567	76.63
209.786	160.59
210.005	27.48
210.223	64.34
210.442	54.1
210.661	19.29
210.879	54.1
211.098	74.58
211.316	68.44
211.535	56.15
211.753	15.19
211.972	52.05
212.191	11.09
212.409	-40.11
212.628	54.1
212.846	-5.29
213.065	52.05
213.283	33.62
213.502	54.1
213.72	82.77
213.938	97.11
214.157	78.68
214.375	52.05
214.594	105.3
214.812	-1.19
215.031	15.19
215.249	-3.24
215.467	19.29
215.686	25.43
215.904	21.33
216.122	7
216.341	7
216.559	-21.67
216.778	-29.87
216.996	19.29
217.214	-48.3
217.432	-85.16
217.651	17.24
217.869	-17.58
218.087	11.09
218.306	-29.87
218.524	-1.19
218.742	-3.24
218.96	15.19
219.179	2.9
219.397	41.81
219.615	107.35
219.833	25.43
220.051	-56.49
220.27	4.95
220.488	62.29
220.706	-19.63
220.924	13.14
221.142	-5.29
221.36	52.05
221.578	60.24
221.796	41.81
222.015	-19.63
222.233	-19.63
222.451	39.76
222.669	19.29
222.887	-9.39
223.105	-42.15
223.323	27.48
223.541	-17.58
223.759	15.19
223.977	-40.11
224.195	27.48
224.413	50
224.631	72.53
224.849	74.58
225.067	113.49
225.285	25.43
225.503	19.29
225.721	-93.35
225.939	2.9
226.157	29.52
226.375	56.15
226.592	-3.24
226.81	-15.53
227.028	19.29
227.246	35.67
227.464	-19.63
227.682	39.76
227.9	43.86
228.117	29.52
228.335	74.58
228.553	25.43
228.771	15.19
228.989	56.15
229.206	45.91
229.424	66.39
229.642	-33.96
229.86	27.48
230.077	-7.34
230.295	-44.2
230.513	21.33
230.731	19.29
230.948	19.29
231.166	-5.29
231.384	54.1
231.601	84.82
231.819	35.67
232.037	56.15
232.254	56.15
232.472	4.95
232.689	68.44
232.907	58.2
233.125	-50.35
233.342	64.34
233.56	-58.54
233.777	78.68
233.995	4.95
234.213	74.58
234.43	27.48
234.648	-58.54
234.865	-1.19
235.083	23.38
235.3	29.52
235.518	68.44
235.735	62.29
235.953	39.76
236.17	29.52
236.388	76.63
236.605	56.15
236.822	72.53
237.04	62.29
237.257	27.48
237.475	90.96
237.692	-3.24
237.909	39.76
238.127	39.76
238.344	-50.35
238.562	125.78
238.779	-21.67
238.996	93.01
239.214	-23.72
239.431	107.35
239.648	-56.49
239.865	15.19
240.083	19.29
240.3	-58.54
240.517	-66.73
240.735	39.76
240.952	54.1
241.169	31.57
241.386	-25.77
241.603	60.24
241.821	-3.24
242.038	-44.2
242.255	-25.77
242.472	-11.43
242.689	29.52
242.907	39.76
243.124	138.07
243.341	95.06
243.558	45.91
243.775	27.48
243.992	2.9
244.209	13.14
244.426	80.72
244.643	43.86
244.86	43.86
245.078	29.52
245.295	78.68
245.512	39.76
245.729	-48.3
245.946	-25.77
246.163	35.67
246.38	-23.72
246.597	31.57
246.814	-11.43
247.031	-50.35
247.248	-17.58
247.464	-48.3
247.681	60.24
247.898	86.87
248.115	2.9
248.332	-5.29
248.549	86.87
248.766	39.76
248.983	56.15
249.2	54.1
249.417	80.72
249.633	7
249.85	78.68
250.067	23.38
250.284	70.48
250.501	43.86
250.717	52.05
250.934	23.38
251.151	25.43
251.368	23.38
251.585	47.96
251.801	0.85
252.018	35.67
252.235	119.64
252.451	2.9
252.668	68.44
252.885	37.72
253.102	88.92
253.318	7
253.535	-3.24
253.752	2.9
253.968	56.15
254.185	39.76
254.401	21.33
254.618	82.77
254.835	-21.67
255.051	138.07
255.268	13.14
255.484	62.29
255.701	41.81
255.917	27.48
256.134	68.44
256.351	64.34
256.567	39.76
256.784	-7.34
257	-60.59
257.217	-15.53
257.433	93.01
257.65	66.39
257.866	76.63
258.082	-9.39
258.299	13.14
258.515	58.2
258.732	56.15
258.948	-17.58
259.165	-9.39
259.381	76.63
259.597	-25.77
259.814	17.24
260.03	-3.24
260.246	68.44
260.463	52.05
260.679	-5.29
260.895	33.62
261.112	47.96
261.328	27.48
261.544	35.67
261.761	121.68
261.977	13.14
262.193	-13.48
262.409	39.76
262.626	35.67
262.842	103.25
263.058	25.43
263.274	76.63
263.49	-33.96
263.707	105.3
263.923	-9.39
264.139	50
264.355	54.1
264.571	7
264.787	27.48
265.004	78.68
265.22	29.52
265.436	-29.87
265.652	-70.83
265.868	-13.48
266.084	109.4
266.3	21.33
266.516	-21.67
266.732	101.2
266.948	-3.24
267.164	15.19
267.38	2.9
267.596	60.24
267.812	66.39
268.028	37.72
268.244	15.19
268.46	56.15
268.676	2.9
268.892	54.1
269.108	-36.01
269.324	58.2
269.54	-5.29
269.756	52.05
269.972	-42.15
270.188	19.29
270.403	29.52
270.619	13.14
270.835	84.82
271.051	17.24
271.267	33.62
271.483	76.63
271.698	54.1
271.914	39.76
272.13	-11.43
272.346	39.76
272.562	39.76
272.777	129.88
272.993	-54.44
273.209	60.24
273.425	78.68
273.64	43.86
273.856	31.57
274.072	-13.48
274.287	-11.43
274.503	4.95
274.719	35.67
274.934	21.33
275.15	-3.24
275.366	72.53
275.581	19.29
275.797	45.91
276.012	45.91
276.228	-23.72
276.444	39.76
276.659	109.4
276.875	45.91
277.09	13.14
277.306	-15.53
277.521	64.34
277.737	39.76
277.952	19.29
278.168	-15.53
278.383	-17.58
278.599	37.72
278.814	-17.58
279.03	64.34
279.245	45.91
279.461	11.09
279.676	-1.19
279.892	-11.43
280.107	15.19
280.322	43.86
280.538	27.48
280.753	-21.67
280.969	47.96
281.184	-9.39
281.399	-33.96
281.615	56.15
281.83	68.44
282.045	70.48
282.26	11.09
282.476	4.95
282.691	115.54
282.906	45.91
283.122	88.92
283.337	-7.34
283.552	64.34
283.767	11.09
283.983	117.59
284.198	-29.87
284.413	125.78
284.628	19.29
284.843	43.86
285.058	52.05
285.274	11.09
285.489	0.85
285.704	29.52
285.919	-5.29
286.134	-3.24
286.349	68.44
286.564	-9.39
286.779	80.72
286.995	21.33
287.21	-13.48
287.425	39.76
287.64	-3.24
287.855	29.52
288.07	29.52
288.285	47.96
288.5	103.25
288.715	109.4
288.93	-17.58
289.145	9.05
289.36	58.2
289.575	-17.58
289.79	56.15
290.004	25.43
290.219	-25.77
290.434	103.25
290.649	54.1
290.864	41.81
291.079	15.19
291.294	0.85
291.509	-19.63
291.724	62.29
291.938	56.15
292.153	4.95
292.368	-3.24
292.583	7
292.798	-1.19
293.012	72.53
293.227	66.39
293.442	-15.53
293.657	35.67
293.871	-7.34
294.086	23.38
294.301	70.48
294.516	25.43
294.73	54.1
294.945	31.57
295.16	31.57
295.374	50
295.589	113.49
295.804	-3.24
296.018	58.2
296.233	29.52
296.447	13.14
296.662	-13.48
296.877	17.24
297.091	72.53
297.306	43.86
297.52	4.95
297.735	54.1
297.949	11.09
298.164	68.44
298.378	23.38
298.593	117.59
298.807	-25.77
299.022	105.3
299.236	54.1
299.451	33.62
299.665	-21.67
299.88	35.67
300.094	-9.39
300.309	-17.58
300.523	-54.44
300.737	52.05
300.952	52.05
301.166	47.96
301.381	13.14
301.595	-46.25
301.809	33.62
302.024	-36.01
302.238	-5.29
302.452	56.15
302.667	7
302.881	-11.43
303.095	-5.29
303.309	25.43
303.524	35.67
303.738	35.67
303.952	23.38
304.166	111.44
304.381	-60.59
304.595	62.29
304.809	21.33
305.023	64.34
305.237	-3.24
305.452	27.48
305.666	76.63
305.88	82.77
306.094	4.95
306.308	37.72
306.522	52.05
306.736	88.92
306.95	72.53
307.164	37.72
307.379	29.52
307.593	62.29
307.807	31.57
308.021	23.38
308.235	9.05
308.449	17.24
308.663	54.1
308.877	101.2
309.091	64.34
309.305	7
309.519	45.91
309.733	60.24
309.947	-50.35
310.161	-21.67
310.374	68.44
310.588	64.34
310.802	-38.06
311.016	76.63
311.23	0.85
311.444	64.34
311.658	47.96
311.872	90.96
312.085	15.19
312.299	58.2
312.513	35.67
312.727	27.48
312.941	-38.06
313.154	15.19
313.368	105.3
313.582	23.38
313.796	39.76
314.009	19.29
314.223	23.38
314.437	39.76
314.651	56.15
314.864	11.09
315.078	15.19
315.292	29.52
315.505	31.57
315.719	27.48
315.933	-27.82
316.146	21.33
316.36	-11.43
316.573	47.96
316.787	39.76
317.001	13.14
317.214	39.76
317.428	154.45
317.641	31.57
317.855	19.29
318.068	56.15
318.282	-17.58
318.495	39.76
318.709	39.76
318.922	25.43
319.136	31.57
319.349	41.81
319.563	62.29
319.776	19.29
319.99	76.63
320.203	119.64
320.417	88.92
320.63	39.76
320.843	82.77
321.057	62.29
321.27	84.82
321.483	74.58
321.697	52.05
321.91	80.72
322.124	19.29
322.337	47.96
322.55	52.05
322.763	31.57
322.977	52.05
323.19	64.34
323.403	-17.58
323.617	60.24
323.83	31.57
324.043	54.1
324.256	37.72
324.469	66.39
324.683	123.73
324.896	-5.29
325.109	39.76
325.322	-25.77
325.535	29.52
325.748	47.96
325.962	-3.24
326.175	76.63
326.388	47.96
326.601	7
326.814	56.15
327.027	-1.19
327.24	64.34
327.453	-13.48
327.666	-3.24
327.879	45.91
328.092	117.59
328.305	23.38
328.518	68.44
328.731	-27.82
328.944	11.09
329.157	58.2
329.37	72.53
329.583	-19.63
329.796	13.14
330.009	52.05
330.222	47.96
330.435	7
330.648	62.29
330.861	52.05
331.073	95.06
331.286	58.2
331.499	2.9
331.712	-25.77
331.925	25.43
332.138	-33.96
332.35	11.09
332.563	7
332.776	72.53
332.989	84.82
333.202	-40.11
333.414	11.09
333.627	39.76
333.84	-29.87
334.053	-3.24
334.265	-21.67
334.478	31.57
334.691	43.86
334.903	-3.24
335.116	2.9
335.329	66.39
335.541	47.96
335.754	95.06
335.966	54.1
336.179	47.96
336.392	-21.67
336.604	66.39
336.817	-1.19
337.029	103.25
337.242	84.82
337.454	56.15
337.667	64.34
337.88	97.11
338.092	29.52
338.305	37.72
338.517	0.85
338.729	76.63
338.942	72.53
339.154	23.38
339.367	-25.77
339.579	80.72
339.792	76.63
340.004	93.01
340.217	86.87
340.429	58.2
340.641	-50.35
340.854	109.4
341.066	78.68
341.278	72.53
341.491	45.91
341.703	-50.35
341.915	13.14
342.128	66.39
342.34	74.58
342.552	4.95
342.764	27.48
342.977	-11.43
343.189	39.76
343.401	-17.58
343.613	11.09
343.826	52.05
344.038	35.67
344.25	68.44
344.462	-13.48
344.674	52.05
344.886	31.57
345.099	37.72
345.311	27.48
345.523	23.38
345.735	-3.24
345.947	39.76
346.159	-25.77
346.371	50
346.583	45.91
346.795	123.73
347.007	0.85
347.219	97.11
347.431	-27.82
347.643	33.62
347.855	25.43
348.067	45.91
348.279	0.85
348.491	84.82
348.703	35.67
348.915	37.72
349.127	45.91
349.339	88.92
349.551	-29.87
349.763	43.86
349.975	23.38
350.187	68.44
350.399	21.33
350.61	64.34
350.822	29.52
351.034	80.72
351.246	15.19
351.458	-11.43
351.669	62.29
351.881	37.72
352.093	80.72
352.305	80.72
352.517	90.96
352.728	64.34
352.94	74.58
353.152	95.06
353.363	-5.29
353.575	23.38
353.787	56.15
353.999	-11.43
354.21	56.15
354.422	2.9
354.633	-36.01
354.845	43.86
355.057	0.85
355.268	19.29
355.48	56.15
355.692	-17.58
355.903	-5.29
356.115	19.29
356.326	-27.82
356.538	39.76
356.749	78.68
356.961	97.11
357.172	39.76
357.384	27.48
357.595	29.52
357.807	23.38
358.018	-1.19
358.23	72.53
358.441	133.97
358.653	70.48
358.864	39.76
359.075	37.72
359.287	25.43
359.498	95.06
359.709	105.3
359.921	7
360.132	31.57
360.344	99.16
360.555	25.43
360.766	-1.19
360.977	-19.63
361.189	37.72
361.4	27.48
361.611	47.96
361.823	84.82
362.034	19.29
362.245	35.67
362.456	93.01
362.667	23.38
362.879	37.72
363.09	80.72
363.301	13.14
363.512	68.44
363.723	13.14
363.935	25.43
364.146	86.87
364.357	72.53
364.568	109.4
364.779	-42.15
364.99	23.38
365.201	43.86
365.412	-38.06
365.623	-29.87
365.834	39.76
366.045	60.24
366.256	52.05
366.467	123.73
366.678	52.05
366.889	68.44
367.1	43.86
367.311	58.2
367.522	23.38
367.733	-33.96
367.944	56.15
368.155	-1.19
368.366	58.2
368.577	70.48
368.788	105.3
368.999	31.57
369.209	109.4
369.42	72.53
369.631	72.53
369.842	37.72
370.053	17.24
370.264	105.3
370.474	15.19
370.685	45.91
370.896	23.38
371.107	78.68
371.317	31.57
371.528	43.86
371.739	68.44
371.95	-17.58
372.16	88.92
372.371	43.86
372.582	56.15
372.792	27.48
373.003	80.72
373.214	70.48
373.424	72.53
373.635	78.68
373.846	82.77
374.056	80.72
374.267	144.21
374.477	58.2
374.688	39.76
374.898	23.38
375.109	109.4
375.319	39.76
375.53	76.63
375.74	56.15
375.951	27.48
376.161	13.14
376.372	76.63
376.582	99.16
376.793	45.91
377.003	70.48
377.214	90.96
377.424	64.34
377.635	25.43
377.845	35.67
378.055	39.76
378.266	-46.25
378.476	74.58
378.686	37.72
378.897	-1.19
379.107	47.96
379.317	56.15
379.528	4.95
379.738	39.76
379.948	2.9
380.158	52.05
380.369	-5.29
380.579	113.49
380.789	56.15
380.999	39.76
381.21	105.3
381.42	103.25
381.63	50
381.84	97.11
382.05	39.76
382.261	70.48
382.471	113.49
382.681	-17.58
382.891	136.02
383.101	76.63
383.311	-62.63
383.521	29.52
383.731	58.2
383.941	129.88
384.151	21.33
384.361	129.88
384.571	-5.29
384.781	64.34
384.991	131.92
385.201	101.2
385.411	88.92
385.621	60.24
385.831	15.19
386.041	52.05
386.251	58.2
386.461	37.72
386.671	88.92
386.881	21.33
387.091	68.44
387.301	19.29
387.511	11.09
387.72	82.77
387.93	125.78
388.14	66.39
388.35	37.72
388.56	133.97
388.769	136.02
388.979	52.05
389.189	64.34
389.399	56.15
389.609	25.43
389.818	103.25
390.028	72.53
390.238	-11.43
390.447	84.82
390.657	123.73
390.867	9.05
391.076	-17.58
391.286	88.92
391.496	58.2
391.705	58.2
391.915	179.03
392.125	74.58
392.334	95.06
392.544	74.58
392.753	80.72
392.963	19.29
393.172	136.02
393.382	72.53
393.591	142.16
393.801	23.38
394.01	64.34
394.22	84.82
394.429	162.64
394.639	47.96
394.848	62.29
395.058	121.68
395.267	111.44
395.477	97.11
395.686	62.29
395.895	2.9
396.105	105.3
396.314	80.72
396.524	78.68
396.733	39.76
396.942	127.83
397.152	170.83
397.361	168.79
397.57	131.92
397.78	138.07
397.989	129.88
398.198	127.83
398.407	80.72
398.617	97.11
398.826	117.59
399.035	62.29
399.244	125.78
399.453	78.68
399.663	181.07
399.872	125.78
400.081	181.07
400.29	189.27
400.499	95.06
400.708	185.17
400.917	154.45
401.127	105.3
401.336	39.76
401.545	170.83
401.754	148.31
401.963	158.55
402.172	125.78
402.381	144.21
402.59	160.59
402.799	146.26
403.008	215.89
403.217	152.4
403.426	219.99
403.635	97.11
403.844	125.78
404.053	72.53
404.262	183.12
404.471	269.14
404.68	262.99
404.888	189.27
405.097	213.84
405.306	197.46
405.515	162.64
405.724	111.44
405.933	195.41
406.142	246.61
406.35	191.31
406.559	187.22
406.768	152.4
406.977	236.37
407.185	252.75
407.394	246.61
407.603	170.83
407.812	207.7
408.02	310.1
408.229	248.66
408.438	242.51
408.646	211.79
408.855	265.04
409.064	320.34
409.272	281.43
409.481	334.67
409.69	383.82
409.898	301.9
410.107	301.9
410.315	338.77
410.524	375.63
410.733	420.69
410.941	342.86
411.15	392.02
411.358	408.4
411.567	428.88
411.775	408.4
411.984	461.65
412.192	488.27
412.401	424.78
412.609	516.94
412.818	551.76
413.026	609.1
413.234	621.39
413.443	617.29
413.651	586.57
413.86	553.8
414.068	658.25
414.276	658.25
414.485	740.17
414.693	691.02
414.901	822.09
415.11	799.56
415.318	760.65
415.526	854.86
415.734	817.99
415.943	783.18
416.151	965.45
416.359	920.39
416.567	998.21
416.776	1035.08
416.984	1080.13
417.192	1088.32
417.4	1147.72
417.608	1162.05
417.817	1123.14
418.025	1190.72
418.233	1268.55
418.441	1260.35
418.649	1303.36
418.857	1381.18
419.065	1538.88
419.273	1420.1
419.481	1463.1
419.689	1626.94
419.897	1612.6
420.105	1690.43
420.313	1813.31
420.521	1796.92
420.729	1739.58
420.937	1839.93
421.145	2042.68
421.353	1968.95
421.561	2276.15
421.769	2188.08
421.977	2204.47
422.185	2249.52
422.393	2370.35
422.601	2536.24
422.809	2657.07
423.017	2579.25
423.224	2734.89
423.432	2765.61
423.64	2816.81
423.848	2984.74
424.056	3095.33
424.263	3238.69
424.471	3291.94
424.679	3283.75
424.887	3320.61
425.094	3478.3
425.302	3377.95
425.51	3562.27
425.718	3795.74
425.925	3867.42
426.133	3853.08
426.341	4234
426.548	4508.43
426.756	4293.4
426.964	4457.23
427.171	4565.78
427.379	4766.48
427.586	4774.67
427.794	4971.27
428.001	5192.45
428.209	5552.9
428.417	5290.76
428.624	5772.03
428.832	5675.77
429.039	5653.25
429.247	5788.41
429.454	6402.8
429.662	6656.75
429.869	6269.69
430.076	6793.97
430.284	6587.12
430.491	6988.52
430.699	7115.5
430.906	7285.48
431.114	7213.8
431.321	7543.52
431.528	7660.26
431.736	8039.13
431.943	8555.22
432.15	8450.77
432.358	8420.05
432.565	8819.41
432.772	9024.2
432.979	9364.17
433.187	9349.83
433.394	9601.73
433.601	10156.73
433.808	10160.83
434.016	10095.29
434.223	10375.86
434.43	11072.17
434.637	10941.1
434.844	11532.97
435.052	11887.26
435.259	11717.28
435.466	11877.02
435.673	11813.54
435.88	12825.23
436.087	13095.57
436.294	13277.83
436.501	12864.15
436.708	13097.61
436.915	13531.78
437.122	14092.93
437.329	14082.69
437.537	14557.82
437.743	14817.91
437.95	14746.23
438.157	15532.65
438.364	16011.87
438.571	15827.56
438.778	15837.8
438.985	17459.79
439.192	16851.54
439.399	17439.31
439.606	16853.59
439.813	17934.92
440.02	18831.93
440.227	18696.76
440.433	18438.72
440.64	19071.54
440.847	18987.57
441.054	19614.25
441.261	20605.47
441.467	20568.6
441.674	20843.03
441.881	21434.89
442.088	21320.21
442.294	21365.26
442.501	22143.49
442.708	22168.07
442.914	22997.49
443.121	24490.46
443.328	23849.45
443.534	25307.6
443.741	24734.17
443.948	23886.31
444.154	25706.96
444.361	26022.34
444.568	26102.22
444.774	26167.75
444.981	26229.19
445.187	26948.03
445.394	28240.29
445.6	28027.31
445.807	30595.46
446.013	28836.25
446.22	29567.38
446.426	30765.44
446.633	31144.31
446.839	31650.16
447.046	30626.18
447.252	32266.6
447.459	32883.04
447.665	32166.25
447.871	33421.66
448.078	34697.54
448.284	33120.6
448.491	33958.22
448.697	35356.99
448.903	35991.86
449.11	35848.5
449.316	35643.7
449.522	35971.38
449.728	37284.12
449.935	37290.27
450.141	37503.26
450.347	37781.78
450.553	37017.89
450.76	36950.31
450.966	38203.66
451.172	37904.66
451.378	38945.03
451.584	38156.56
451.791	39225.6
451.997	38586.63
452.203	39248.13
452.409	39244.03
452.615	39348.48
452.821	37734.68
453.027	37404.95
453.233	39479.55
453.44	37716.25
453.646	37959.95
453.852	38359.31
454.058	38920.45
454.264	37755.16
454.47	38015.25
454.676	37165.34
454.882	38486.28
455.088	35219.77
455.294	35694.9
455.5	36192.56
455.705	36569.38
455.911	34861.38
456.117	34347.34
456.323	33964.37
456.529	32088.43
456.735	33313.11
456.941	32676.19
457.147	31938.93
457.352	31009.15
457.558	30869.89
457.764	30505.35
457.97	30476.68
458.176	29432.21
458.381	29438.36
458.587	28041.64
458.793	27693.49
458.999	26763.71
459.204	28459.43
459.41	27666.86
459.616	25960.91
459.821	25913.8
460.027	25772.49
460.233	25098.71
460.438	24302.05
460.644	24365.54
460.85	23159.28
461.055	23003.64
461.261	22383.1
461.466	21240.34
461.672	20634.14
461.878	21862.92
462.083	20464.16
462.289	20183.59
462.494	19943.97
462.7	19167.79
462.905	18659.9
463.111	19485.23
463.316	19431.98
463.522	18932.28
463.727	19003.96
463.932	18819.64
464.138	18616.89
464.343	18879.03
464.549	18172.48
464.754	18692.66
464.959	18725.43
465.165	18410.04
465.37	17996.35
465.575	17068.62
465.781	18102.85
465.986	18195.01
466.191	17590.86
466.397	17119.82
466.602	16355.93
466.807	17025.62
467.012	16861.78
467.218	16929.36
467.423	16454.23
467.628	16865.88
467.833	17422.92
468.038	16816.72
468.244	16153.18
468.449	16874.07
468.654	16497.24
468.859	16368.22
469.064	16153.18
469.269	15534.7
469.474	15471.21
469.679	16165.47
469.885	15463.02
470.09	15663.72
470.295	15544.94
470.5	15299.18
470.705	15338.09
470.91	14985.84
471.115	14856.82
471.32	14981.74
471.525	15090.29
471.73	14539.38
471.935	14490.23
472.139	14051.97
472.344	14279.29
472.549	14035.58
472.754	14072.45
472.959	13468.3
473.164	13550.21
473.369	13079.18
473.574	13816.45
473.778	13546.12
473.983	13494.92
474.188	13447.82
474.393	12751.51
474.598	12665.49
474.802	12614.29
475.007	12462.74
475.212	12720.79
475.417	12167.84
475.621	12307.1
475.826	12395.16
476.031	11868.83
476.235	11842.21
476.44	11981.47
476.645	11713.19
476.849	11752.1
477.054	11573.92
477.259	11393.7
477.463	11391.66
477.668	11145.9
477.872	11504.29
478.077	11195.05
478.282	10916.53
478.486	10881.71
478.691	10672.82
478.895	10627.76
479.1	10691.25
479.304	10697.39
479.509	10355.38
479.713	10472.12
479.918	10525.36
480.122	10302.14
480.326	10064.57
480.531	10191.55
480.735	10070.72
480.94	10252.98
481.144	10351.29
481.348	10105.53
481.553	10132.15
481.757	9972.41
481.961	10191.55
482.166	10115.77
482.37	10142.39
482.574	9863.87
482.778	10080.96
482.983	10132.15
483.187	10064.57
483.391	9904.83
483.595	9919.17
483.8	9841.34
484.004	9845.44
484.208	10228.41
484.412	9956.03
484.616	9917.12
484.821	9837.25
485.025	9611.97
485.229	9941.69
485.433	9771.71
485.637	9933.5
485.841	9996.99
486.045	9906.88
486.249	9814.72
486.453	9648.83
486.657	10046.14
486.861	9906.88
487.065	9546.44
487.269	9781.95
487.473	9751.23
487.677	9884.35
487.881	10060.48
488.085	9743.04
488.289	9935.55
488.493	9908.93
488.697	10250.94
488.901	10085.05
489.105	10005.18
489.309	10101.44
489.512	9992.89
489.716	9835.2
489.92	9945.79
490.124	9937.6
490.328	10119.87
490.531	9994.94
490.735	10220.22
490.939	10201.79
491.143	10218.17
491.346	10169.02
491.55	10402.49
491.754	10388.15
491.958	10394.29
492.161	10465.97
492.365	10494.65
492.569	10502.84
492.772	10453.69
492.976	10582.71
493.18	10574.52
493.383	10881.71
493.587	10662.58
493.79	10994.35
493.994	10754.74
494.197	11053.74
494.401	10846.9
494.605	11203.24
494.808	11434.66
495.012	11283.11
495.215	11283.11
495.419	11604.64
495.622	11530.92
495.825	11571.88
496.029	11696.8
496.232	11965.09
496.436	11745.95
496.639	12352.15
496.843	11958.94
497.046	12268.19
497.249	12190.36
497.453	12421.78
497.656	12425.88
497.859	12606.1
498.063	12948.11
498.266	13197.96
498.469	12937.87
498.673	13193.87
498.876	13623.94
499.079	13595.27
499.282	13681.28
499.485	13974.14
499.689	13793.92
499.892	14031.49
500.095	14244.48
500.298	14510.71
500.501	14361.21
500.705	14811.76
500.908	14797.43
501.111	14811.76
501.314	15256.17
501.517	15204.97
501.72	15452.78
501.923	15555.18
502.126	15727.21
502.329	15977.06
502.532	16138.85
502.735	16110.18
502.938	16474.71
503.141	16577.11
503.344	16978.51
503.547	16849.49
503.75	17218.13
503.953	17572.43
504.156	17676.87
504.359	17779.27
504.562	17990.21
504.765	18332.22
504.968	18596.41
505.17	18739.77
505.373	18799.16
505.576	18965.04
505.779	19188.27
505.982	19481.13
506.185	19761.7
506.387	19714.6
506.59	20142.63
506.793	20793.88
506.996	20363.81
507.198	20867.61
507.401	20625.95
507.604	20982.29
507.807	21367.31
508.009	21457.42
508.212	21744.14
508.415	22200.83
508.617	22532.61
508.82	22501.89
509.022	22340.1
509.225	23136.76
509.428	23271.92
509.63	23228.91
509.833	23212.53
510.035	23632.36
510.238	23919.08
510.44	24060.39
510.643	24572.38
510.845	25027.03
511.048	24857.05
511.25	25377.23
511.453	25547.22
511.655	26493.38
511.858	26085.83
512.06	26288.58
512.262	26513.86
512.465	26489.28
512.667	27304.37
512.87	27363.76
513.072	27404.72
513.274	27933.1
513.477	28543.39
513.679	28195.24
513.881	28793.25
514.084	29421.97
514.286	29147.54
514.488	29387.16
514.69	30060.94
514.893	30216.58
515.095	30398.85
515.297	30753.15
515.499	31175.03
515.701	31603.06
515.904	31721.84
516.106	31543.67
516.308	32172.39
516.51	32698.72
516.712	32735.59
516.914	33145.18
517.116	33675.6
517.318	33538.39
517.52	33784.15
517.722	34523.46
517.925	34793.79
518.127	35103.04
518.329	34931.01
518.531	35275.07
518.733	35944.75
518.935	36118.83
519.136	36114.73
519.338	36659.49
519.54	36872.48
519.742	37083.42
519.944	37378.33
520.146	38048.02
520.348	38107.41
520.55	38334.73
520.752	38455.56
520.954	38936.84
521.155	38936.84
521.357	39889.14
521.559	39971.06
521.761	40769.77
521.963	40538.35
522.164	40554.73
522.366	41349.34
522.568	41783.51
522.77	42012.88
522.971	42664.14
523.173	42227.92
523.375	42641.61
523.576	42535.12
523.778	42754.25
523.98	43124.93
524.181	43561.15
524.383	43770.04
524.584	44183.73
524.786	44128.44
524.988	44284.08
525.189	45238.44
525.391	45146.28
525.592	45238.44
525.794	45473.95
525.995	45553.82
526.197	45719.71
526.398	45572.25
526.6	46086.29
526.801	46346.39
527.003	46637.2
527.204	46614.67
527.406	47112.33
527.607	47276.16
527.808	47468.67
528.01	46399.63
528.211	47415.43
528.412	48031.86
528.614	47825.02
528.815	48042.1
529.016	48355.44
529.218	48115.83
529.419	48418.93
529.62	48365.68
529.822	48351.35
530.023	48554.1
530.224	48767.09
530.425	48599.15
530.626	48730.22
530.828	48629.87
531.029	49991.77
531.23	48656.49
531.431	49152.1
531.632	49469.54
531.833	49723.49
532.035	49457.25
532.236	49717.34
532.437	49973.34
532.638	49881.18
532.839	49897.56
533.04	50471
533.241	49438.82
533.442	50655.31
533.643	50159.7
533.844	49848.41
534.045	50137.18
534.246	49352.8
534.447	50167.9
534.648	50405.46
534.849	50329.69
535.05	49660
535.251	50563.15
535.451	50026.59
535.652	50782.29
535.853	50192.47
536.054	50743.38
536.255	50614.35
536.456	50061.4
536.657	50864.21
536.857	50561.11
537.058	50522.19
537.259	50552.91
537.46	51146.82
537.66	50700.37
537.861	50511.95
538.062	50290.77
538.263	50915.4
538.463	50415.7
538.664	50770
538.865	50724.94
539.065	51036.23
539.266	50298.97
539.466	51101.77
539.667	50331.73
539.868	51036.23
540.068	50540.63
540.269	50024.54
540.469	50759.76
540.67	50397.27
540.87	50151.51
541.071	50387.03
541.271	50565.2
541.472	50466.9
541.672	50223.19
541.873	50315.35
542.073	49918.04
542.274	50737.23
542.474	50514
542.675	50024.54
542.875	50407.51
543.075	50454.61
543.276	49954.91
543.476	51087.43
543.676	50260.05
543.877	50423.89
544.077	50909.26
544.277	50499.67
544.478	49864.8
544.678	50225.24
544.878	50344.02
545.078	50315.35
545.279	50147.42
545.479	50155.61
545.679	49961.05
545.879	50509.91
546.079	50073.69
546.28	50047.07
546.48	49760.35
546.68	50417.75
546.88	50540.63
547.08	50532.43
547.28	49793.12
547.48	50137.18
547.68	50194.52
547.88	49557.6
548.081	50006.11
548.281	49959
548.481	50315.35
548.681	50288.73
548.881	50176.09
549.081	50120.79
549.28	49805.41
549.48	50499.67
549.68	50358.36
549.88	50663.5
550.08	50088.03
550.28	50323.54
550.48	49797.21
550.68	50180.18
550.88	50163.8
551.08	50063.45
551.279	50337.88
551.479	49858.65
551.679	49987.67
551.879	49791.07
552.079	50188.38
552.278	49733.73
552.478	49975.39
552.678	49717.34
552.878	50511.95
553.077	49639.52
553.277	49557.6
553.477	50221.14
553.676	49465.44
553.876	49455.2
554.076	49440.87
554.275	49205.35
554.475	49172.58
554.674	49795.17
554.874	49172.58
555.074	49107.05
555.273	49780.83
555.473	49455.2
555.672	49299.56
555.872	49268.84
556.071	49324.13
556.271	49479.78
556.47	48935.02
556.67	48537.71
556.869	49047.66
557.068	49293.41
557.268	48902.25
557.467	49074.28
557.667	48879.72
557.866	48711.79
558.065	48629.87
558.265	48236.66
558.464	48482.42
558.663	48603.25
558.863	48089.21
559.062	48699.5
559.261	47978.62
559.461	48988.27
559.66	47841.4
559.859	48091.26
560.058	47792.25
560.258	47947.9
560.457	47433.86
560.656	48074.87
560.855	47964.28
561.054	48138.36
561.253	47145.09
561.453	47622.27
561.652	47642.75
561.851	47779.96
562.05	47093.89
562.249	46928.01
562.448	47403.14
562.647	47044.74
562.846	46858.38
563.045	46901.39
563.244	46147.73
563.443	46690.44
563.642	46213.27
563.841	46921.87
564.04	46532.75
564.239	46327.95
564.438	46028.95
564.637	46209.17
564.836	46061.72
565.035	45971.61
565.234	45797.53
565.432	45488.29
565.631	45672.6
565.83	45707.42
566.029	45142.18
566.228	45609.12
566.427	45580.45
566.625	44916.9
566.824	44427.44
567.023	45260.96
567.222	44368.05
567.42	44796.07
567.619	44705.96
567.818	44110
568.016	44351.66
568.215	44515.5
568.414	43835.58
568.612	44331.18
568.811	43716.79
569.01	44243.12
569.208	43382.98
569.407	43477.18
569.605	43161.79
569.804	43315.39
570.002	43135.17
570.201	43301.06
570.4	42866.89
570.598	42696.91
570.797	42367.18
570.995	42774.73
571.193	42272.98
571.392	42737.87
571.59	42000.6
571.789	42418.38
571.987	42262.74
572.186	41978.07
572.384	41681.11
572.582	41754.84
572.781	41849.05
572.979	41797.85
573.177	41246.94
573.376	41818.33
573.574	41056.48
573.772	41402.59
573.971	41025.76
574.169	40763.62
574.367	40515.82
574.565	40925.41
574.763	40704.23
574.962	40634.6
575.16	39813.37
575.358	40599.79
575.556	39895.28
575.754	40495.34
575.952	39639.29
576.151	40325.36
576.349	39436.54
576.547	39389.44
576.745	39454.97
576.943	39805.17
577.141	39072
577.339	39473.4
577.537	39307.52
577.735	39137.54
577.933	38895.88
578.131	39244.03
578.329	38600.97
578.527	38191.37
578.725	38617.35
578.923	38502.67
579.121	38289.68
579.319	38045.97
579.516	38218
579.714	38263.05
579.912	38078.74
580.11	37796.12
580.308	37890.32
580.506	37628.18
580.704	37251.36
580.901	37560.6
581.099	37142.81
581.297	36909.35
581.495	37144.86
581.692	36948.26
581.89	36849.96
582.088	37120.29
582.285	36546.86
582.483	36825.38
582.681	36569.38
582.878	36266.28
583.076	36245.8
583.274	36471.08
583.471	35717.43
583.669	35914.03
583.866	35774.77
584.064	35967.28
584.262	35465.53
584.459	35866.93
584.657	35875.12
584.854	35688.76
585.052	34720.07
585.249	35260.73
585.447	35221.82
585.644	34967.87
585.841	34726.21
586.039	34992.45
586.236	34558.28
586.434	34629.96
586.631	34494.79
586.828	34564.42
587.026	34236.75
587.223	34099.53
587.42	34167.12
587.618	34541.89
587.815	33872.21
588.012	33786.19
588.21	33837.39
588.407	33843.54
588.604	33417.56
588.801	33313.11
588.999	33524.05
589.196	33519.96
589.393	33014.11
589.59	32764.26
589.787	32747.87
589.984	32733.54
590.182	32465.25
590.379	32770.4
590.576	32713.06
590.773	32465.25
590.97	32477.54
591.167	32194.92
591.364	31744.37
591.561	32350.57
591.758	31703.41
591.955	31971.69
592.152	32262.51
592.349	31754.61
592.546	31371.64
592.743	31635.83
592.94	30910.85
593.137	31318.39
593.334	31416.69
593.531	30974.33
593.727	31007.1
593.924	31215.99
594.121	30763.39
594.318	31031.68
594.515	30343.56
594.712	30896.51
594.908	30409.09
595.105	30626.18
595.302	30196.1
595.499	30345.61
595.696	30038.41
595.892	30091.66
596.089	30022.03
596.286	30138.76
596.482	29534.61
596.679	29729.17
596.876	29587.86
597.072	29374.87
597.269	29448.6
597.466	29163.93
597.662	29483.41
597.859	28907.93
598.055	29047.19
598.252	28934.56
598.448	29161.88
598.645	29034.91
598.841	28367.27
599.038	28488.1
599.234	28516.77
599.431	28631.46
599.627	28357.03
599.824	28506.53
600.02	28090.79
600.217	28266.92
600.413	28262.82
600.609	27730.35
600.806	27707.82
601.002	27998.63
601.198	27537.84
601.395	27273.65
601.591	27312.56
601.787	27314.61
601.984	27345.33
602.18	27351.48
602.376	27283.89
602.572	27034.04
602.769	26741.18
602.965	26816.96
603.161	27068.86
603.357	26878.4
603.553	26866.11
603.75	27015.61
603.946	26436.03
604.142	26421.7
604.338	26012.1
604.534	26325.44
604.73	26139.08
604.926	26079.69
605.122	25854.41
605.318	26038.73
605.514	25618.89
605.71	25835.98
605.906	25790.92
606.102	25840.08
606.298	25606.61
606.494	25549.26
606.69	25520.59
606.886	25557.46
607.082	25280.98
607.278	25131.48
607.474	24824.28
607.67	24992.22
607.866	24476.13
608.062	25268.69
608.257	24955.35
608.453	25065.94
608.649	24953.3
608.845	24508.9
609.041	25027.03
609.236	24654.3
609.432	24734.17
609.628	24627.68
609.824	24420.83
610.019	24287.71
610.215	24281.57
610.411	24502.75
610.606	24109.54
610.802	24009.19
610.998	23939.56
611.193	24091.11
611.389	24132.07
611.584	23777.77
611.78	23890.41
611.976	23865.83
612.171	24291.81
612.367	23781.87
612.562	23499.25
612.758	23347.7
612.953	23251.44
613.149	23679.47
613.344	23259.63
613.539	23675.37
613.735	23575.02
613.93	23413.23
614.126	23400.94
614.321	23190
614.517	23304.69
614.712	23241.2
614.907	23036.41
615.103	23177.72
615.298	23093.75
615.493	23071.22
615.688	22526.46
615.884	23450.1
616.079	22360.58
616.274	22647.29
616.47	22389.25
616.665	22544.89
616.86	22428.16
617.055	22577.66
617.25	22567.42
617.445	22559.23
617.641	21971.46
617.836	22499.84
618.031	22331.9
618.226	22297.09
618.421	22231.55
618.616	22157.83
618.811	21891.59
619.006	22309.38
619.201	21498.38
619.396	21879.3
619.591	21631.5
619.786	22069.76
619.981	21068.31
620.176	21463.57
620.371	21049.88
620.566	21242.39
620.761	21443.09
620.956	21606.92
621.151	20898.33
621.346	20824.6
621.541	20728.35
621.735	20890.13
621.93	20376.09
622.125	20402.72
622.32	20150.82
622.515	20384.29
622.709	19995.17
622.904	20310.56
623.099	20156.96
623.294	19890.73
623.488	19624.49
623.683	19636.78
623.878	19278.38
624.072	19642.92
624.267	19702.31
624.462	19333.68
624.656	19063.35
624.851	19184.18
625.046	19036.72
625.24	18936.37
625.435	18604.6
625.629	18680.38
625.824	18432.57
626.018	18698.81
626.213	18227.78
626.407	18412.09
626.602	18010.69
626.796	18033.22
626.991	18223.68
627.185	17957.44
627.38	17795.65
627.574	17766.98
627.768	17461.83
627.963	17332.81
628.157	17271.37
628.352	17269.33
628.546	17152.59
628.74	17177.17
628.935	16872.02
629.129	16994.9
629.323	16689.75
629.517	16683.61
629.712	16654.94
629.906	16595.54
630.1	16415.32
630.294	16308.83
630.489	16308.83
630.683	16460.38
630.877	15845.99
631.071	16042.59
631.265	16015.97
631.459	15929.95
631.653	16089.7
631.848	15805.03
632.042	15278.7
632.236	15573.61
632.43	15506.02
632.624	15420.01
632.818	15297.13
633.012	15123.05
633.206	15174.25
633.4	15295.08
633.594	14928.5
633.788	14989.94
633.982	15059.57
634.176	14905.97
634.369	14766.71
634.563	14981.74
634.757	14496.38
634.951	14404.22
635.145	14404.22
635.339	14500.47
635.533	14113.41
635.726	14305.92
635.92	14068.35
636.114	13976.19
636.308	13918.85
636.501	13865.6
636.695	13818.5
636.889	13662.85
637.083	13625.99
637.276	13511.3
637.47	13482.63
637.664	13177.48
637.857	13259.4
638.051	13185.68
638.244	13066.89
638.438	13073.04
638.632	13154.96
638.825	12814.99
639.019	12868.24
639.212	12831.38
639.406	12774.03
639.599	12761.75
639.793	12657.3
639.986	12337.82
640.18	12728.98
640.373	12559
640.567	12116.64
640.76	12303
640.954	12180.12
641.147	12169.88
641.34	12110.49
641.534	12006.05
641.727	12042.91
641.92	11823.78
642.114	11668.13
642.307	11825.82
642.5	11829.92
642.694	11477.67
642.887	11328.17
643.08	11719.33
643.273	11338.41
643.467	11422.38
643.66	11336.36
643.853	11502.25
644.046	11004.59
644.239	11094.7
644.432	11139.76
644.626	10648.24
644.819	10961.58
645.012	10865.33
645.205	10889.9
645.398	10758.83
645.591	10691.25
645.784	10672.82
645.977	10562.23
646.17	10543.8
646.363	10377.91
646.556	10238.65
646.749	10351.29
646.942	10193.59
647.135	10334.9
647.328	10275.51
647.521	10066.62
647.714	9935.55
647.907	10265.27
648.099	9845.44
648.292	10050.24
648.485	9878.21
648.678	9781.95
648.871	9798.34
649.064	9734.85
649.256	9650.88
649.449	9638.59
649.642	9663.17
649.835	9315.02
650.027	9519.81
650.22	9435.85
650.413	9478.85
650.605	9140.94
650.798	9161.42
650.991	9149.13
651.183	9280.2
651.376	9018.06
651.568	9216.71
651.761	8864.46
651.954	9085.64
652.146	9050.83
652.339	8989.39
652.531	8938.19
652.724	8710.86
652.916	8674
653.109	8749.78
653.301	8411.86
653.494	8557.27
653.686	8420.05
653.879	8719.06
654.071	8463.06
654.263	8319.7
654.456	8465.11
654.648	8426.2
654.84	8233.69
655.033	8329.94
655.225	8190.68
655.417	8168.15
655.61	8104.67
655.802	8237.78
655.994	7985.88
656.186	8028.89
656.379	7914.2
656.571	7992.03
656.763	7631.58
656.955	7811.81
657.148	7955.16
657.34	7727.84
657.532	7727.84
657.724	7541.47
657.916	7746.27
658.108	7680.74
658.3	7437.03
658.492	7400.16
658.684	7488.23
658.876	7330.53
659.068	7432.93
659.26	7228.14
659.452	7355.11
659.644	7320.29
659.836	7236.33
660.028	7293.67
660.22	7090.92
660.412	7215.85
660.604	7080.68
660.796	7043.82
660.988	6976.23
661.18	7127.78
661.372	6869.74
661.563	7033.58
661.755	6933.23
661.947	6757.1
662.139	6791.92
662.331	6679.28
662.522	6685.42
662.714	6845.16
662.906	6648.56
663.097	6533.87
663.289	6558.45
663.481	6671.09
663.673	6613.74
663.864	6462.19
664.056	6316.79
664.247	6474.48
664.439	6427.38
664.631	6279.93
664.822	6392.56
665.014	6386.42
665.205	6322.93
665.397	6411
665.588	6372.08
665.78	6083.32
665.971	6134.52
666.163	6288.12
666.354	6185.72
666.546	6273.78
666.737	6075.13
666.929	6052.6
667.12	6144.76
667.311	6023.93
667.503	5980.92
667.694	5982.97
667.885	5954.3
668.077	6023.93
668.268	5763.84
668.459	5804.8
668.651	5769.98
668.842	5812.99
669.033	5925.63
669.224	5694.21
669.416	5776.13
669.607	5774.08
669.798	5653.25
669.989	5933.82
670.18	5573.38
670.371	5737.21
670.563	5532.42
670.754	5726.97
670.945	5530.37
671.136	5616.38
671.327	5501.7
671.518	5483.27
671.709	5540.61
671.9	5569.28
672.091	5380.87
672.282	5571.33
672.473	5448.45
672.664	5468.93
672.855	5389.06
673.046	5503.75
673.237	5436.16
673.428	5253.89
673.619	5417.73
673.809	5368.58
674	5368.58
674.191	5245.7
674.382	5335.81
674.573	5264.13
674.764	5257.99
674.954	5290.76
675.145	5188.36
675.336	5237.51
675.527	5286.66
675.717	5171.97
675.908	5145.35
676.099	5139.21
676.289	4989.71
676.48	4922.12
676.671	5151.49
676.861	5198.6
677.052	5128.97
677.243	4995.85
677.433	5067.53
677.624	5075.72
677.814	5143.3
678.005	5108.49
678.195	5001.99
678.386	5067.53
678.576	5042.95
678.767	4891.4
678.957	5026.57
679.148	4920.07
679.338	5135.11
679.529	5104.39
679.719	4961.03
679.909	5026.57
680.1	4897.55
680.29	4942.6
680.481	5032.71
680.671	4967.18
680.861	4872.97
681.052	5010.18
681.242	4862.73
681.432	5034.76
681.622	4844.3
681.813	5004.04
682.003	4842.25
682.193	4887.31
682.383	4905.74
682.573	4901.64
682.764	4860.68
682.954	4905.74
683.144	4922.12
683.334	4905.74
683.524	4915.98
683.714	4823.82
683.904	4883.21
684.094	4963.08
684.284	4877.07
684.474	4975.37
684.664	4872.97
684.854	4741.9
685.044	4741.9
685.234	4686.61
685.424	4823.82
685.614	4719.37
685.804	4846.35
685.994	4727.57
686.184	4858.64
686.374	4711.18
686.564	4721.42
686.753	4598.54
686.943	4619.02
687.133	4754.19
687.323	4655.89
687.513	4700.94
687.702	4672.27
687.892	4672.27
688.082	4610.83
688.272	4520.72
688.461	4578.06
688.651	4567.82
688.841	4504.34
689.03	4528.91
689.22	4426.51
689.41	4498.19
689.599	4479.76
689.789	4354.83
689.979	4483.86
690.168	4410.13
690.358	4291.35
690.547	4348.69
690.737	4373.27
690.926	4277.01
691.116	4242.2
691.305	4328.21
691.495	4252.44
691.684	4174.61
691.874	4145.94
692.063	4289.3
692.252	4395.79
692.442	4227.86
692.631	4043.54
692.82	4205.33
693.01	4180.76
693.199	4102.93
693.388	3963.67
693.578	4082.46
693.767	4133.65
693.956	3965.72
694.146	3941.15
694.335	4059.93
694.524	4008.73
694.713	4117.27
694.902	3971.86
695.092	4037.4
695.281	4170.52
695.47	3918.62
695.659	3959.58
695.848	3967.77
696.037	4016.92
696.226	3963.67
696.415	4043.54
696.604	3965.72
696.793	3881.75
696.982	3941.15
697.171	4076.31
697.36	3955.48
697.549	3973.91
697.738	3879.71
697.927	3912.47
698.116	3959.58
698.305	3877.66
698.494	3953.43
698.683	3906.33
698.872	4049.69
699.061	3967.77
699.25	3887.9
699.438	3908.38
699.627	3740.44
699.816	3961.62
700.005	3902.23
700.193	3920.67
700.382	3765.02
700.571	3863.32
700.76	3748.64
700.948	3820.32
701.137	3857.18
701.326	3877.66
701.514	3820.32
701.703	3877.66
701.892	3767.07
702.08	3754.78
702.269	3758.88
702.457	3820.32
702.646	3822.36
702.834	3865.37
703.023	3744.54
703.212	3646.24
703.4	3783.45
703.589	3842.84
703.777	3783.45
703.965	3812.12
704.154	3791.64
704.342	3771.16
704.531	3693.34
704.719	3887.9
704.907	3752.73
705.096	3724.06
705.284	3765.02
705.472	3814.17
705.661	3834.65
705.849	3830.55
706.037	3742.49
706.226	3818.27
706.414	3869.47
706.602	3701.53
706.79	3957.53
706.979	3726.11
707.167	3797.79
707.355	3756.83
707.543	3863.32
707.731	3945.24
707.919	3889.95
708.107	3785.5
708.296	3705.63
708.484	3662.62
708.672	3785.5
708.86	3705.63
709.048	3795.74
709.236	3824.41
709.424	3703.58
709.612	3750.68
709.8	3748.64
709.988	3717.92
710.176	3734.3
710.364	3717.92
710.551	3769.12
710.739	3848.99
710.927	3871.51
711.115	3623.71
711.303	3836.7
711.491	3709.72
711.679	3713.82
711.866	3758.88
712.054	3644.19
712.242	3750.68
712.43	3650.33
712.617	3779.36
712.805	3820.32
712.993	3769.12
713.181	3769.12
713.368	3689.25
713.556	3674.91
713.744	3803.93
713.931	3773.21
714.119	3756.83
714.306	3787.55
714.494	3742.49
714.682	3595.04
714.869	3672.86
715.057	3689.25
715.244	3631.9
715.432	3848.99
715.619	3654.43
715.807	3799.84
715.994	3611.42
716.182	3642.14
716.369	3748.64
716.556	3662.62
716.744	3719.96
716.931	3554.08
717.119	3830.55
717.306	3554.08
717.493	3631.9
717.681	3689.25
717.868	3719.96
718.055	3736.35
718.242	3681.05
718.43	3748.64
718.617	3609.37
718.804	3611.42
718.991	3816.22
719.179	3693.34
719.366	3789.6
719.553	3705.63
719.74	3703.58
719.927	3644.19
720.114	3611.42
720.301	3685.15
720.488	3533.6
720.676	3642.14
720.863	3685.15
721.05	3681.05
721.237	3599.13
721.424	3640.09
721.611	3693.34
721.798	3541.79
721.985	3740.44
722.172	3683.1
722.358	3683.1
722.545	3570.46
722.732	3566.37
722.919	3603.23
723.106	3636
723.293	3722.01
723.48	3529.5
723.667	3812.12
723.853	3566.37
724.04	3615.52
724.227	3664.67
724.414	3617.57
724.6	3529.5
724.787	3541.79
724.974	3674.91
725.161	3584.8
725.347	3519.26
725.534	3543.84
725.72	3498.78
725.907	3627.81
726.094	3636
726.28	3564.32
726.467	3457.82
726.653	3502.88
726.84	3656.48
727.027	3644.19
727.213	3461.92
727.4	3566.37
727.586	3488.54
727.773	3527.46
727.959	3513.12
728.145	3574.56
728.332	3504.93
728.518	3488.54
728.705	3564.32
728.891	3603.23
729.077	3402.53
729.264	3429.15
729.45	3500.83
729.636	3420.96
729.823	3312.42
730.009	3552.03
730.195	3441.44
730.382	3592.99
730.568	3537.7
730.754	3459.87
730.94	3523.36
731.126	3457.82
731.313	3519.26
731.499	3449.63
731.685	3478.3
731.871	3423.01
732.057	3300.13
732.243	3482.4
732.429	3498.78
732.615	3371.81
732.801	3349.28
732.987	3478.3
733.173	3396.39
733.359	3328.8
733.545	3500.83
733.731	3345.19
733.917	3371.81
734.103	3459.87
734.289	3382.05
734.475	3291.94
734.661	3398.43
734.847	3416.87
735.033	3314.47
735.219	3392.29
735.404	3355.43
735.59	3265.32
735.776	3341.09
735.962	3343.14
736.148	3382.05
736.333	3242.79
736.519	3283.75
736.705	3339.04
736.89	3255.08
737.076	3115.81
737.262	3246.88
737.447	3271.46
737.633	3203.88
737.819	3078.95
738.004	3171.11
738.19	3140.39
738.375	3242.79
738.561	3336.99
738.747	3156.77
738.932	3291.94
739.118	3222.31
739.303	3164.97
739.489	3164.97
739.674	3117.86
739.859	3035.94
740.045	3064.61
740.23	3197.73
740.416	3037.99
740.601	3152.68
740.786	2974.5
740.972	3068.71
741.157	3046.18
741.342	2964.26
741.528	3029.8
741.713	3025.7
741.898	3081
742.084	2999.08
742.269	2994.98
742.454	3093.29
742.639	2951.98
742.824	2992.94
743.01	2984.74
743.195	2970.41
743.38	2980.65
743.565	2872.11
743.75	2870.06
743.935	2878.25
744.12	2837.29
744.305	2796.33
744.49	2792.23
744.675	2882.35
744.86	2947.88
745.045	2771.76
745.23	2865.96
745.415	2747.18
745.6	2738.99
745.785	2679.6
745.97	2693.93
746.155	2646.83
746.34	2730.8
746.525	2644.78
746.71	2640.69
746.895	2583.34
747.079	2509.62
747.264	2644.78
747.449	2607.92
747.634	2583.34
747.819	2579.25
748.003	2495.28
748.188	2501.42
748.373	2521.9
748.557	2364.21
748.742	2468.66
748.927	2622.25
749.111	2550.57
749.296	2319.15
749.481	2317.11
749.665	2407.22
749.85	2407.22
750.034	2288.43
750.219	2241.33
750.404	2284.34
750.588	2249.52
750.773	2200.37
750.957	2290.48
751.141	2190.13
751.326	2259.76
751.51	2181.94
751.695	2177.84
751.879	2202.42
752.064	2190.13
752.248	2224.95
752.432	2194.23
752.617	2036.53
752.801	2155.32
752.985	2061.11
753.17	2114.36
753.354	2126.64
753.538	2061.11
753.722	2110.26
753.907	1936.18
754.091	1938.23
754.275	2009.91
754.459	2034.49
754.643	2018.1
754.828	1905.46
755.012	1899.32
755.196	1995.57
755.38	1774.39
755.564	1872.7
755.748	1854.27
755.932	1870.65
756.116	1864.5
756.3	1870.65
756.484	1745.72
756.668	1903.42
756.852	1739.58
757.036	1727.29
757.22	1774.39
757.404	1739.58
757.588	1731.39
757.772	1743.67
757.956	1672
758.14	1743.67
758.323	1571.65
758.507	1612.6
758.691	1706.81
758.875	1602.36
759.059	1610.56
759.242	1547.07
759.426	1653.56
759.61	1639.23
759.794	1563.45
759.977	1497.92
760.161	1694.52
760.345	1696.57
760.528	1547.07
760.712	1549.12
760.895	1538.88
761.079	1518.4
761.263	1536.83
761.446	1459.01
761.63	1532.73
761.813	1456.96
761.997	1481.53
762.18	1409.86
762.364	1444.67
762.547	1426.24
762.731	1411.9
762.914	1461.06
763.098	1440.58
763.281	1364.8
763.464	1416
763.648	1381.18
763.831	1397.57
764.015	1471.29
764.198	1327.94
764.381	1323.84
764.564	1332.03
764.748	1368.9
764.931	1395.52
765.114	1372.99
765.297	1291.07
765.481	1354.56
765.664	1416
765.847	1286.98
766.03	1416
766.213	1340.22
766.397	1416
766.58	1348.42
766.763	1309.51
766.946	1301.31
767.129	1194.82
767.312	1223.49
767.495	1266.5
767.678	1233.73
767.861	1276.74
768.044	1219.39
768.227	1229.63
768.41	1260.35
768.593	1180.48
768.776	1237.83
768.959	1250.11
769.142	1297.22
769.324	1155.91
769.507	1125.19
769.69	1174.34
769.873	1221.44
770.056	1207.11
770.239	1160
770.421	1155.91
770.604	1166.15
770.787	1147.72
770.97	1157.96
771.152	1162.05
771.335	1106.76
771.518	1094.47
771.7	1094.47
771.883	1125.19
772.066	1143.62
772.248	1047.37
772.431	1114.95
772.613	1073.99
772.796	1086.28
772.978	1078.08
773.161	1137.48
773.343	1030.98
773.526	996.17
773.708	1030.98
773.891	969.54
774.073	1004.36
774.256	1020.74
774.438	1153.86
774.621	1002.31
774.803	1082.18
774.985	867.14
775.168	1008.45
775.35	938.82
775.532	983.88
775.715	1028.93
775.897	969.54
776.079	1020.74
776.261	914.25
776.444	918.34
776.626	1035.08
776.808	969.54
776.99	865.1
777.173	918.34
777.355	916.3
777.537	938.82
777.719	877.38
777.901	828.23
778.083	912.2
778.265	932.68
778.447	916.3
778.629	875.34
778.811	817.99
778.993	848.71
779.175	822.09
779.357	807.75
779.539	770.89
779.721	856.9
779.903	824.14
780.085	787.27
780.267	817.99
780.449	830.28
780.631	707.4
780.812	871.24
780.994	777.03
781.176	734.03
781.358	725.83
781.54	715.59
781.721	645.96
781.903	752.46
782.085	727.88
782.267	664.4
782.448	779.08
782.63	703.31
782.812	760.65
782.993	645.96
783.175	650.06
783.357	678.73
783.538	654.16
783.72	693.07
783.901	666.44
784.083	695.11
784.264	633.68
784.446	619.34
784.627	674.64
784.809	535.37
784.99	545.61
785.172	635.72
785.353	621.39
785.535	627.53
785.716	635.72
785.897	576.33
786.079	574.28
786.26	596.81
786.441	600.91
786.623	525.13
786.804	578.38
786.985	600.91
787.167	537.42
787.348	494.41
787.529	551.76
787.71	635.72
787.891	564.04
788.073	498.51
788.254	533.33
788.435	568.14
788.616	555.85
788.797	437.07
788.978	463.69
789.159	537.42
789.34	543.57
789.522	451.41
789.703	527.18
789.884	527.18
790.065	525.13
790.246	484.17
790.427	428.88
790.607	496.46
790.788	502.61
790.969	406.35
791.15	424.78
791.331	418.64
791.512	467.79
791.693	424.78
791.874	412.5
792.054	445.26
792.235	449.36
792.416	367.44
792.597	488.27
792.778	441.17
792.958	408.4
793.139	398.16
793.32	385.87
793.5	351.06
793.681	471.89
793.862	457.55
794.042	418.64
794.223	375.63
794.404	426.83
794.584	404.3
794.765	373.58
794.945	441.17
795.126	402.26
795.306	441.17
795.487	326.48
795.667	392.02
795.848	379.73
796.028	338.77
796.209	428.88
796.389	379.73
796.57	353.1
796.75	363.34
796.93	353.1
797.111	365.39
797.291	406.35
797.471	299.86
797.652	371.54
797.832	389.97
798.012	400.21
798.192	291.66
798.373	357.2
798.553	367.44
798.733	363.34
798.913	293.71
799.093	357.2
799.274	338.77
799.454	336.72
799.634	408.4
799.814	320.34
799.994	365.39
800.174	318.29
800.354	359.25
800.534	306
800.714	277.33
800.894	299.86
801.074	265.04
801.254	260.95
801.434	332.62
801.614	226.13
801.794	303.95
801.974	791.37
802.154	299.86
802.334	306
802.514	234.32
802.693	267.09
802.873	326.48
803.053	324.43
803.233	297.81
803.413	234.32
803.592	162.64
803.772	224.08
803.952	295.76
804.131	203.6
804.311	242.51
804.491	318.29
804.67	219.99
804.85	289.62
805.03	224.08
805.209	359.25
805.389	211.79
805.568	191.31
805.748	283.47
805.928	332.62
806.107	342.86
806.287	224.08
806.466	271.19
806.646	236.37
806.825	187.22
807.004	158.55
807.184	303.95
807.363	222.03
807.543	322.38
807.722	228.18
807.901	246.61
808.081	275.28
808.26	140.12
808.439	166.74
808.619	262.99
808.798	195.41
808.977	195.41
809.156	236.37
809.336	234.32
809.515	234.32
809.694	252.75
809.873	191.31
810.052	267.09
810.231	150.36
810.411	189.27
810.59	283.47
810.769	289.62
810.948	265.04
811.127	174.93
811.306	101.2
811.485	240.47
811.664	197.46
811.843	185.17
812.022	281.43
812.201	258.9
812.38	230.23
812.559	138.07
812.737	256.85
812.916	166.74
813.095	166.74
813.274	215.89
813.453	176.98
813.632	211.79
813.811	269.14
813.989	123.73
814.168	176.98
814.347	234.32
814.526	181.07
814.704	213.84
814.883	234.32
815.062	158.55
815.24	203.6
815.419	174.93
815.598	179.03
815.776	152.4
815.955	176.98
816.133	88.92
816.312	195.41
816.49	222.03
816.669	224.08
816.847	152.4
817.026	219.99
817.204	174.93
817.383	154.45
817.561	146.26
817.74	217.94
817.918	150.36
818.097	236.37
818.275	121.68
818.453	152.4
818.632	179.03
818.81	144.21
818.988	138.07
819.167	209.75
819.345	140.12
819.523	150.36
819.701	168.79
819.879	187.22
820.058	133.97
820.236	99.16
820.414	181.07
820.592	111.44
820.77	162.64
820.948	142.16
821.127	162.64
821.305	187.22
821.483	119.64
821.661	117.59
821.839	99.16
822.017	160.59
822.195	90.96
822.373	170.83
822.551	172.88
822.729	168.79
822.907	189.27
823.085	152.4
823.262	101.2
823.44	142.16
823.618	86.87
823.796	193.36
823.974	123.73
824.152	93.01
824.329	84.82
824.507	119.64
824.685	121.68
824.863	117.59
825.04	179.03
825.218	203.6
825.396	58.2
825.574	123.73
825.751	160.59
825.929	166.74
826.107	80.72
826.284	213.84
826.462	150.36
826.639	127.83
826.817	60.24
826.994	127.83
827.172	113.49
827.349	140.12
827.527	95.06
827.704	123.73
827.882	117.59
828.059	107.35
828.237	45.91
828.414	117.59
828.591	125.78
828.769	60.24
828.946	70.48
829.124	136.02
829.301	105.3
829.478	152.4
829.655	168.79
829.833	187.22
830.01	84.82
830.187	129.88
830.364	101.2
830.542	103.25
830.719	146.26
830.896	129.88
831.073	64.34
831.25	142.16
831.427	127.83
831.604	109.4
831.782	131.92
831.959	31.57
832.136	146.26
832.313	93.01
832.49	117.59
832.667	127.83
832.844	109.4
833.021	136.02
833.198	35.67
833.374	105.3
833.551	103.25
833.728	117.59
833.905	117.59
834.082	62.29
834.259	43.86
834.436	115.54
834.612	27.48
834.789	144.21
834.966	101.2
835.143	113.49
835.319	37.72
835.496	93.01
835.673	119.64
835.85	121.68
836.026	113.49
836.203	117.59
836.38	101.2
836.556	144.21
836.733	-3.24
836.909	148.31
837.086	-29.87
837.262	58.2
837.439	31.57
837.616	47.96
837.792	21.33
837.968	82.77
838.145	-29.87
838.321	125.78
838.498	105.3
838.674	119.64
838.851	97.11
839.027	74.58
839.203	-9.39
839.38	76.63
839.556	60.24
839.732	80.72
839.909	70.48
840.085	93.01
840.261	70.48
840.437	56.15
840.614	60.24
840.79	68.44
840.966	113.49
841.142	97.11
841.318	62.29
841.494	170.83
841.671	101.2
841.847	64.34
842.023	60.24
842.199	136.02
842.375	113.49
842.551	50
842.727	31.57
842.903	105.3
843.079	35.67
843.255	54.1
843.431	-7.34
843.607	109.4
843.783	11.09
843.959	72.53
844.134	93.01
844.31	68.44
844.486	70.48
844.662	70.48
844.838	39.76
845.013	78.68
845.189	35.67
845.365	52.05
845.541	113.49
845.716	-19.63
845.892	64.34
846.068	-11.43
846.244	-44.2
846.419	-7.34
846.595	62.29
846.77	47.96
846.946	52.05
847.122	105.3
847.297	19.29
847.473	138.07
847.648	23.38
847.824	35.67
847.999	-27.82
848.175	29.52
848.35	43.86
848.526	95.06
848.701	88.92
848.876	64.34
849.052	76.63
849.227	60.24
849.403	80.72
849.578	45.91
849.753	66.39
849.929	13.14
850.104	7
850.279	129.88
850.454	11.09
850.63	93.01
850.805	-1.19
850.98	58.2
851.155	19.29
851.33	-11.43
851.505	21.33
851.681	121.68
851.856	45.91
852.031	31.57
852.206	117.59
852.381	-27.82
852.556	72.53
852.731	80.72
852.906	80.72
853.081	27.48
853.256	-19.63
853.431	50
853.606	54.1
853.781	-3.24
853.956	-68.78
854.131	60.24
854.305	52.05
854.48	7
854.655	9.05
854.83	105.3
855.005	7
855.18	19.29
855.354	27.48
855.529	72.53
855.704	84.82
855.879	80.72
856.053	33.62
856.228	39.76
856.403	45.91
856.577	54.1
856.752	31.57
856.926	50
857.101	27.48
857.276	35.67
857.45	70.48
857.625	68.44
857.799	-58.54
857.974	45.91
858.148	107.35
858.323	43.86
858.497	52.05
858.672	33.62
858.846	-13.48
859.02	17.24
859.195	-23.72
859.369	-56.49
859.543	82.77
859.718	45.91
859.892	-3.24
860.066	39.76
860.241	37.72
860.415	37.72
860.589	39.76
860.763	-29.87
860.938	78.68
861.112	70.48
861.286	-23.72
861.46	43.86
861.634	52.05
861.808	70.48
861.982	-1.19
862.157	50
862.331	19.29
862.505	54.1
862.679	93.01
862.853	11.09
863.027	7
863.201	117.59
863.375	13.14
863.549	140.12
863.722	33.62
863.896	52.05
864.07	45.91
864.244	54.1
864.418	9.05
864.592	-13.48
864.766	62.29
864.939	72.53
865.113	70.48
865.287	19.29
865.461	-23.72
865.634	0.85
865.808	37.72
865.982	-23.72
866.156	74.58
866.329	15.19
866.503	27.48
866.676	68.44
866.85	-95.4
867.024	33.62
867.197	54.1
867.371	-5.29
867.544	-1.19
867.718	54.1
867.891	68.44
868.065	7
868.238	43.86
868.412	35.67
868.585	-48.3
868.759	25.43
868.932	-5.29
869.105	-48.3
869.279	-76.97
869.452	-15.53
869.625	-36.01
869.799	23.38
869.972	9.05
870.145	19.29
870.319	58.2
870.492	13.14
870.665	2.9
870.838	-5.29
871.011	-42.15
871.185	0.85
871.358	-25.77
871.531	17.24
871.704	-40.11
871.877	84.82
872.05	86.87
872.223	97.11
872.396	21.33
872.569	64.34
872.742	47.96
872.915	78.68
873.088	58.2
873.261	-21.67
873.434	23.38
873.607	19.29
873.78	25.43
873.953	-36.01
874.126	-25.77
874.299	29.52
874.471	-52.39
874.644	47.96
874.817	7
874.99	39.76
875.163	-1.19
875.335	-52.39
875.508	23.38
875.681	52.05
875.853	-70.83
876.026	-29.87
876.199	86.87
876.371	60.24
876.544	11.09
876.717	-19.63
876.889	-13.48
877.062	-29.87
877.234	21.33
877.407	9.05
877.579	-13.48
877.752	68.44
877.924	68.44
878.097	21.33
878.269	47.96
878.442	88.92
878.614	43.86
878.786	7
878.959	23.38
879.131	-3.24
879.303	-5.29
879.476	-1.19
879.648	39.76
879.82	-9.39
879.993	107.35
880.165	31.57
880.337	15.19
880.509	29.52
880.681	-62.63
880.854	-17.58
881.026	21.33
881.198	47.96
881.37	60.24
881.542	62.29
881.714	27.48
881.886	-36.01
882.058	23.38
882.23	23.38
882.402	39.76
882.574	43.86
882.746	23.38
882.918	-7.34
883.09	-31.91
883.262	103.25
883.434	29.52
883.606	-95.4
883.778	2.9
883.95	17.24
884.122	15.19
884.293	25.43
884.465	62.29
884.637	15.19
884.809	-9.39
884.98	0.85
885.152	105.3
885.324	47.96
885.496	19.29
885.667	37.72
885.839	4.95
886.011	-9.39
886.182	11.09
886.354	31.57
886.525	31.57
886.697	13.14
886.869	-33.96
887.04	-11.43
887.212	15.19
887.383	121.68
887.555	-52.39
887.726	-31.91
887.897	31.57
888.069	37.72
888.24	4.95
888.412	17.24
888.583	-29.87
888.754	25.43
888.926	-33.96
889.097	-7.34
889.268	-74.92
889.44	80.72
889.611	-5.29
889.782	-54.44
889.953	-33.96
890.125	54.1
890.296	-50.35
890.467	-11.43
890.638	-25.77
890.809	68.44
890.98	-68.78
891.151	86.87
891.323	37.72
891.494	52.05
891.665	9.05
891.836	15.19
892.007	-3.24
892.178	-13.48
892.349	-13.48
892.52	-36.01
892.691	-11.43
892.862	-72.87
893.032	-74.92
893.203	11.09
893.374	-119.98
893.545	25.43
893.716	-27.82
893.887	35.67
894.057	19.29
894.228	-21.67
894.399	-17.58
894.57	144.21
894.74	-27.82
894.911	19.29
895.082	-68.78
895.253	68.44
895.423	19.29
895.594	13.14
895.764	15.19
895.935	-38.06
896.106	-1.19
896.276	-31.91
896.447	-23.72
896.617	-52.39
896.788	-68.78
896.958	27.48
897.129	7
897.299	-64.68
897.47	15.19
897.64	37.72
897.81	-54.44
897.981	11.09
898.151	-48.3
898.322	-46.25
898.492	11.09
898.662	4.95
898.832	-40.11
899.003	62.29
899.173	11.09
899.343	-38.06
899.513	-136.36
