Data from USB4F104151__85__10-24-18-041.txt Node

Date: Wed Mar 12 10:24:18 EDT 2025
User: louis
Spectrometer: USB4F10415
Trigger mode: 4
Integration Time (sec): 3.000000E-2
Scans to average: 1
Electric dark correction enabled: true
Nonlinearity correction enabled: false
Boxcar width: 0
XAxis mode: Wavelengths
Number of Pixels in Spectrum: 3648
>>>>>Begin Spectral Data<<<<<
178.204	-80.89
178.424	-80.89
178.644	-80.89
178.864	-136.19
179.084	-99.33
179.304	-17.41
179.524	-33.79
179.744	-21.5
179.964	9.22
180.184	-15.36
180.404	-39.94
180.624	58.37
180.844	-9.22
181.064	-7.17
181.283	50.18
181.503	-48.13
181.723	74.75
181.943	29.7
182.163	56.32
182.383	-56.32
182.602	23.55
182.822	-23.55
183.042	89.09
183.262	9.22
183.482	11.26
183.701	66.56
183.921	44.03
184.141	17.41
184.361	78.85
184.58	31.74
184.8	54.27
185.02	13.31
185.239	84.99
185.459	44.03
185.679	66.56
185.898	1.02
186.118	17.41
186.338	-23.55
186.557	-7.17
186.777	9.22
186.997	44.03
187.216	1.02
187.436	-17.41
187.655	33.79
187.875	68.61
188.095	33.79
188.314	130.05
188.534	105.47
188.753	54.27
188.973	31.74
189.192	93.18
189.412	5.12
189.631	-9.22
189.851	50.18
190.07	1.02
190.29	-25.6
190.509	-7.17
190.729	27.65
190.948	70.65
191.168	119.81
191.387	23.55
191.607	5.12
191.826	31.74
192.045	13.31
192.265	19.46
192.484	76.8
192.704	54.27
192.923	3.07
193.142	41.98
193.362	95.23
193.581	58.37
193.8	11.26
194.02	84.99
194.239	46.08
194.458	33.79
194.678	-23.55
194.897	11.26
195.116	39.94
195.335	7.17
195.555	152.57
195.774	56.32
195.993	99.33
196.212	101.37
196.432	21.5
196.651	56.32
196.87	17.41
197.089	91.13
197.308	9.22
197.528	82.94
197.747	-21.5
197.966	80.89
198.185	72.7
198.404	54.27
198.623	95.23
198.842	37.89
199.062	70.65
199.281	46.08
199.5	-11.26
199.719	107.52
199.938	60.42
200.157	56.32
200.376	64.51
200.595	89.09
200.814	119.81
201.033	-29.7
201.252	66.56
201.471	74.75
201.69	87.04
201.909	7.17
202.128	50.18
202.347	9.22
202.566	52.22
202.785	-7.17
203.004	13.31
203.223	113.66
203.442	56.32
203.661	-46.08
203.879	54.27
204.098	35.84
204.317	23.55
204.536	93.18
204.755	-21.5
204.974	70.65
205.193	27.65
205.411	111.61
205.63	68.61
205.849	50.18
206.068	39.94
206.287	70.65
206.505	29.7
206.724	-23.55
206.943	9.22
207.162	66.56
207.381	39.94
207.599	84.99
207.818	84.99
208.037	60.42
208.255	56.32
208.474	87.04
208.693	66.56
208.911	1.02
209.13	21.5
209.349	11.26
209.567	58.37
209.786	74.75
210.005	25.6
210.223	91.13
210.442	58.37
210.661	78.85
210.879	52.22
211.098	91.13
211.316	7.17
211.535	95.23
211.753	72.7
211.972	97.28
212.191	-39.94
212.409	13.31
212.628	50.18
212.846	25.6
213.065	23.55
213.283	97.28
213.502	25.6
213.72	9.22
213.938	7.17
214.157	91.13
214.375	54.27
214.594	-27.65
214.812	11.26
215.031	74.75
215.249	74.75
215.467	33.79
215.686	33.79
215.904	62.46
216.122	-17.41
216.341	115.71
216.559	-33.79
216.778	148.48
216.996	74.75
217.214	27.65
217.432	-1.02
217.651	17.41
217.869	78.85
218.087	9.22
218.306	-21.5
218.524	15.36
218.742	74.75
218.96	66.56
219.179	-1.02
219.397	39.94
219.615	52.22
219.833	66.56
220.051	17.41
220.27	82.94
220.488	74.75
220.706	29.7
220.924	-56.32
221.142	80.89
221.36	66.56
221.578	41.98
221.796	105.47
222.015	82.94
222.233	31.74
222.451	93.18
222.669	-9.22
222.887	50.18
223.105	25.6
223.323	19.46
223.541	9.22
223.759	78.85
223.977	-3.07
224.195	31.74
224.413	39.94
224.631	54.27
224.849	146.43
225.067	56.32
225.285	52.22
225.503	33.79
225.721	-15.36
225.939	-5.12
226.157	78.85
226.375	99.33
226.592	39.94
226.81	-44.03
227.028	13.31
227.246	48.13
227.464	17.41
227.682	15.36
227.9	74.75
228.117	113.66
228.335	-19.46
228.553	3.07
228.771	103.42
228.989	74.75
229.206	15.36
229.424	9.22
229.642	-62.46
229.86	74.75
230.077	21.5
230.295	-5.12
230.513	66.56
230.731	39.94
230.948	41.98
231.166	52.22
231.384	62.46
231.601	27.65
231.819	125.95
232.037	5.12
232.254	25.6
232.472	17.41
232.689	50.18
232.907	56.32
233.125	95.23
233.342	-54.27
233.56	9.22
233.777	84.99
233.995	52.22
234.213	105.47
234.43	17.41
234.648	82.94
234.865	64.51
235.083	13.31
235.3	19.46
235.518	25.6
235.735	41.98
235.953	128
236.17	54.27
236.388	99.33
236.605	48.13
236.822	103.42
237.04	48.13
237.257	39.94
237.475	44.03
237.692	29.7
237.909	66.56
238.127	-3.07
238.344	80.89
238.562	70.65
238.779	-1.02
238.996	50.18
239.214	37.89
239.431	1.02
239.648	-17.41
239.865	111.61
240.083	91.13
240.3	64.51
240.517	-35.84
240.735	5.12
240.952	33.79
241.169	84.99
241.386	80.89
241.603	27.65
241.821	31.74
242.038	-29.7
242.255	107.52
242.472	50.18
242.689	41.98
242.907	66.56
243.124	-15.36
243.341	44.03
243.558	-17.41
243.775	113.66
243.992	56.32
244.209	44.03
244.426	107.52
244.643	3.07
244.86	7.17
245.078	44.03
245.295	11.26
245.512	44.03
245.729	-3.07
245.946	117.76
246.163	7.17
246.38	-19.46
246.597	72.7
246.814	70.65
247.031	70.65
247.248	91.13
247.464	-62.46
247.681	25.6
247.898	-3.07
248.115	54.27
248.332	13.31
248.549	82.94
248.766	97.28
248.983	66.56
249.2	66.56
249.417	58.37
249.633	58.37
249.85	58.37
250.067	46.08
250.284	44.03
250.501	17.41
250.717	52.22
250.934	3.07
251.151	13.31
251.368	80.89
251.585	15.36
251.801	27.65
252.018	50.18
252.235	25.6
252.451	25.6
252.668	15.36
252.885	97.28
253.102	78.85
253.318	48.13
253.535	-5.12
253.752	56.32
253.968	58.37
254.185	7.17
254.401	15.36
254.618	11.26
254.835	1.02
255.051	115.71
255.268	74.75
255.484	103.42
255.701	44.03
255.917	82.94
256.134	-5.12
256.351	44.03
256.567	31.74
256.784	56.32
257	41.98
257.217	123.9
257.433	93.18
257.65	17.41
257.866	78.85
258.082	17.41
258.299	48.13
258.515	89.09
258.732	-9.22
258.948	64.51
259.165	5.12
259.381	25.6
259.597	87.04
259.814	66.56
260.03	48.13
260.246	37.89
260.463	52.22
260.679	121.85
260.895	9.22
261.112	140.29
261.328	15.36
261.544	35.84
261.761	105.47
261.977	-29.7
262.193	21.5
262.409	99.33
262.626	5.12
262.842	74.75
263.058	70.65
263.274	119.81
263.49	97.28
263.707	48.13
263.923	46.08
264.139	66.56
264.355	66.56
264.571	74.75
264.787	41.98
265.004	68.61
265.22	9.22
265.436	52.22
265.652	-29.7
265.868	39.94
266.084	-1.02
266.3	80.89
266.516	56.32
266.732	54.27
266.948	19.46
267.164	25.6
267.38	39.94
267.596	101.37
267.812	72.7
268.028	117.76
268.244	60.42
268.46	23.55
268.676	9.22
268.892	103.42
269.108	9.22
269.324	9.22
269.54	-7.17
269.756	91.13
269.972	48.13
270.188	7.17
270.403	68.61
270.619	13.31
270.835	70.65
271.051	25.6
271.267	-1.02
271.483	23.55
271.698	74.75
271.914	50.18
272.13	33.79
272.346	82.94
272.562	62.46
272.777	111.61
272.993	66.56
273.209	113.66
273.425	115.71
273.64	44.03
273.856	97.28
274.072	87.04
274.287	7.17
274.503	33.79
274.719	31.74
274.934	109.57
275.15	-1.02
275.366	107.52
275.581	15.36
275.797	70.65
276.012	58.37
276.228	37.89
276.444	99.33
276.659	72.7
276.875	-11.26
277.09	39.94
277.306	89.09
277.521	31.74
277.737	89.09
277.952	31.74
278.168	82.94
278.383	-17.41
278.599	11.26
278.814	56.32
279.03	15.36
279.245	99.33
279.461	15.36
279.676	58.37
279.892	70.65
280.107	-52.22
280.322	21.5
280.538	11.26
280.753	-23.55
280.969	13.31
281.184	56.32
281.399	103.42
281.615	50.18
281.83	62.46
282.045	-39.94
282.26	33.79
282.476	84.99
282.691	3.07
282.906	99.33
283.122	25.6
283.337	-7.17
283.552	56.32
283.767	-3.07
283.983	80.89
284.198	66.56
284.413	62.46
284.628	9.22
284.843	76.8
285.058	97.28
285.274	87.04
285.489	48.13
285.704	76.8
285.919	25.6
286.134	70.65
286.349	46.08
286.564	80.89
286.779	144.38
286.995	76.8
287.21	-9.22
287.425	-1.02
287.64	15.36
287.855	105.47
288.07	13.31
288.285	15.36
288.5	70.65
288.715	15.36
288.93	48.13
289.145	-11.26
289.36	66.56
289.575	29.7
289.79	91.13
290.004	52.22
290.219	89.09
290.434	74.75
290.649	17.41
290.864	17.41
291.079	1.02
291.294	117.76
291.509	39.94
291.724	11.26
291.938	21.5
292.153	37.89
292.368	66.56
292.583	41.98
292.798	132.09
293.012	25.6
293.227	39.94
293.442	21.5
293.657	68.61
293.871	50.18
294.086	35.84
294.301	91.13
294.516	76.8
294.73	39.94
294.945	41.98
295.16	95.23
295.374	25.6
295.589	68.61
295.804	74.75
296.018	-3.07
296.233	46.08
296.447	17.41
296.662	1.02
296.877	27.65
297.091	48.13
297.306	11.26
297.52	13.31
297.735	72.7
297.949	-1.02
298.164	136.19
298.378	54.27
298.593	-1.02
298.807	-5.12
299.022	56.32
299.236	13.31
299.451	-13.31
299.665	37.89
299.88	13.31
300.094	-9.22
300.309	33.79
300.523	132.09
300.737	23.55
300.952	101.37
301.166	23.55
301.381	41.98
301.595	58.37
301.809	33.79
302.024	95.23
302.238	44.03
302.452	66.56
302.667	35.84
302.881	93.18
303.095	87.04
303.309	21.5
303.524	46.08
303.738	78.85
303.952	-66.56
304.166	1.02
304.381	15.36
304.595	80.89
304.809	35.84
305.023	123.9
305.237	25.6
305.452	62.46
305.666	9.22
305.88	84.99
306.094	33.79
306.308	41.98
306.522	113.66
306.736	70.65
306.95	56.32
307.164	64.51
307.379	58.37
307.593	46.08
307.807	80.89
308.021	58.37
308.235	91.13
308.449	-41.98
308.663	78.85
308.877	66.56
309.091	84.99
309.305	56.32
309.519	19.46
309.733	48.13
309.947	37.89
310.161	19.46
310.374	25.6
310.588	21.5
310.802	44.03
311.016	66.56
311.23	89.09
311.444	9.22
311.658	52.22
311.872	56.32
312.085	31.74
312.299	109.57
312.513	54.27
312.727	21.5
312.941	29.7
313.154	27.65
313.368	-21.5
313.582	56.32
313.796	68.61
314.009	52.22
314.223	70.65
314.437	44.03
314.651	60.42
314.864	9.22
315.078	21.5
315.292	1.02
315.505	48.13
315.719	15.36
315.933	41.98
316.146	99.33
316.36	-31.74
316.573	74.75
316.787	37.89
317.001	95.23
317.214	13.31
317.428	70.65
317.641	-9.22
317.855	87.04
318.068	29.7
318.282	60.42
318.495	66.56
318.709	76.8
318.922	134.14
319.136	76.8
319.349	58.37
319.563	-23.55
319.776	-9.22
319.99	-11.26
320.203	140.29
320.417	82.94
320.63	76.8
320.843	97.28
321.057	87.04
321.27	31.74
321.483	111.61
321.697	74.75
321.91	91.13
322.124	23.55
322.337	107.52
322.55	56.32
322.763	-27.65
322.977	29.7
323.19	27.65
323.403	41.98
323.617	74.75
323.83	80.89
324.043	-15.36
324.256	-9.22
324.469	-35.84
324.683	91.13
324.896	74.75
325.109	-25.6
325.322	-7.17
325.535	29.7
325.748	91.13
325.962	41.98
326.175	60.42
326.388	89.09
326.601	-1.02
326.814	-1.02
327.027	54.27
327.24	58.37
327.453	33.79
327.666	17.41
327.879	62.46
328.092	80.89
328.305	99.33
328.518	17.41
328.731	84.99
328.944	35.84
329.157	91.13
329.37	72.7
329.583	41.98
329.796	119.81
330.009	23.55
330.222	121.85
330.435	148.48
330.648	130.05
330.861	80.89
331.073	95.23
331.286	7.17
331.499	84.99
331.712	33.79
331.925	99.33
332.138	41.98
332.35	82.94
332.563	19.46
332.776	37.89
332.989	113.66
333.202	13.31
333.414	-7.17
333.627	89.09
333.84	7.17
334.053	44.03
334.265	-1.02
334.478	66.56
334.691	54.27
334.903	56.32
335.116	17.41
335.329	-27.65
335.541	29.7
335.754	89.09
335.966	82.94
336.179	76.8
336.392	-1.02
336.604	46.08
336.817	66.56
337.029	70.65
337.242	60.42
337.454	62.46
337.667	17.41
337.88	107.52
338.092	41.98
338.305	80.89
338.517	33.79
338.729	33.79
338.942	-15.36
339.154	152.57
339.367	-5.12
339.579	103.42
339.792	9.22
340.004	33.79
340.217	44.03
340.429	115.71
340.641	105.47
340.854	82.94
341.066	3.07
341.278	97.28
341.491	132.09
341.703	105.47
341.915	33.79
342.128	50.18
342.34	78.85
342.552	7.17
342.764	33.79
342.977	121.85
343.189	113.66
343.401	48.13
343.613	50.18
343.826	33.79
344.038	-1.02
344.25	82.94
344.462	78.85
344.674	17.41
344.886	66.56
345.099	41.98
345.311	35.84
345.523	50.18
345.735	31.74
345.947	60.42
346.159	17.41
346.371	52.22
346.583	78.85
346.795	87.04
347.007	64.51
347.219	70.65
347.431	62.46
347.643	80.89
347.855	39.94
348.067	128
348.279	-33.79
348.491	74.75
348.703	52.22
348.915	-3.07
349.127	82.94
349.339	41.98
349.551	31.74
349.763	76.8
349.975	9.22
350.187	99.33
350.399	50.18
350.61	44.03
350.822	19.46
351.034	9.22
351.246	97.28
351.458	66.56
351.669	99.33
351.881	99.33
352.093	-7.17
352.305	72.7
352.517	17.41
352.728	89.09
352.94	128
353.152	70.65
353.363	-19.46
353.575	23.55
353.787	66.56
353.999	111.61
354.21	58.37
354.422	11.26
354.633	66.56
354.845	-52.22
355.057	78.85
355.268	27.65
355.48	56.32
355.692	54.27
355.903	-15.36
356.115	-13.31
356.326	87.04
356.538	29.7
356.749	25.6
356.961	72.7
357.172	103.42
357.384	-7.17
357.595	105.47
357.807	107.52
358.018	15.36
358.23	37.89
358.441	220.16
358.653	107.52
358.864	66.56
359.075	89.09
359.287	44.03
359.498	11.26
359.709	52.22
359.921	44.03
360.132	105.47
360.344	72.7
360.555	74.75
360.766	50.18
360.977	70.65
361.189	54.27
361.4	80.89
361.611	99.33
361.823	37.89
362.034	29.7
362.245	68.61
362.456	56.32
362.667	82.94
362.879	44.03
363.09	74.75
363.301	44.03
363.512	41.98
363.723	5.12
363.935	62.46
364.146	121.85
364.357	130.05
364.568	37.89
364.779	3.07
364.99	87.04
365.201	74.75
365.412	82.94
365.623	46.08
365.834	58.37
366.045	54.27
366.256	74.75
366.467	74.75
366.678	37.89
366.889	87.04
367.1	-1.02
367.311	66.56
367.522	107.52
367.733	15.36
367.944	91.13
368.155	29.7
368.366	99.33
368.577	19.46
368.788	64.51
368.999	111.61
369.209	64.51
369.42	132.09
369.631	115.71
369.842	113.66
370.053	84.99
370.264	103.42
370.474	33.79
370.685	134.14
370.896	31.74
371.107	95.23
371.317	62.46
371.528	29.7
371.739	89.09
371.95	134.14
372.16	99.33
372.371	7.17
372.582	58.37
372.792	117.76
373.003	-13.31
373.214	9.22
373.424	93.18
373.635	52.22
373.846	181.25
374.056	99.33
374.267	-7.17
374.477	41.98
374.688	74.75
374.898	91.13
375.109	19.46
375.319	99.33
375.53	123.9
375.74	78.85
375.951	33.79
376.161	113.66
376.372	121.85
376.582	23.55
376.793	11.26
377.003	21.5
377.214	46.08
377.424	19.46
377.635	60.42
377.845	1.02
378.055	105.47
378.266	50.18
378.476	70.65
378.686	76.8
378.897	111.61
379.107	87.04
379.317	44.03
379.528	29.7
379.738	60.42
379.948	48.13
380.158	68.61
380.369	50.18
380.579	48.13
380.789	168.96
380.999	132.09
381.21	66.56
381.42	95.23
381.63	58.37
381.84	66.56
382.05	66.56
382.261	33.79
382.471	103.42
382.681	148.48
382.891	80.89
383.101	99.33
383.311	46.08
383.521	48.13
383.731	54.27
383.941	78.85
384.151	84.99
384.361	64.51
384.571	60.42
384.781	111.61
384.991	115.71
385.201	140.29
385.411	46.08
385.621	64.51
385.831	31.74
386.041	82.94
386.251	46.08
386.461	93.18
386.671	48.13
386.881	115.71
387.091	123.9
387.301	84.99
387.511	56.32
387.72	25.6
387.93	87.04
388.14	17.41
388.35	70.65
388.56	123.9
388.769	140.29
388.979	39.94
389.189	29.7
389.399	50.18
389.609	82.94
389.818	121.85
390.028	115.71
390.238	76.8
390.447	29.7
390.657	-7.17
390.867	29.7
391.076	21.5
391.286	156.67
391.496	97.28
391.705	52.22
391.915	74.75
392.125	158.72
392.334	37.89
392.544	107.52
392.753	70.65
392.963	76.8
393.172	68.61
393.382	95.23
393.591	140.29
393.801	48.13
394.01	160.77
394.22	80.89
394.429	130.05
394.639	136.19
394.848	101.37
395.058	46.08
395.267	56.32
395.477	97.28
395.686	146.43
395.895	160.77
396.105	187.39
396.314	115.71
396.524	101.37
396.733	154.62
396.942	152.57
397.152	97.28
397.361	193.53
397.57	168.96
397.78	64.51
397.989	185.34
398.198	138.24
398.407	211.96
398.617	95.23
398.826	113.66
399.035	160.77
399.244	166.91
399.453	95.23
399.663	72.7
399.872	152.57
400.081	101.37
400.29	144.38
400.499	132.09
400.708	211.96
400.917	82.94
401.127	189.44
401.336	148.48
401.545	175.1
401.754	168.96
401.963	175.1
402.172	115.71
402.381	109.57
402.59	136.19
402.799	99.33
403.008	181.25
403.217	156.67
403.426	132.09
403.635	117.76
403.844	123.9
404.053	121.85
404.262	177.15
404.471	244.73
404.68	189.44
404.888	246.78
405.097	125.95
405.306	185.34
405.515	197.63
405.724	201.72
405.933	248.83
406.142	168.96
406.35	220.16
406.559	287.74
406.768	189.44
406.977	277.5
407.185	263.16
407.394	230.4
407.603	238.59
407.812	285.69
408.02	275.45
408.229	189.44
408.438	250.88
408.646	275.45
408.855	252.92
409.064	232.44
409.272	254.97
409.481	281.6
409.69	304.12
409.898	277.5
410.107	377.85
410.315	400.38
410.524	328.7
410.733	472.06
410.941	433.15
411.15	435.19
411.358	400.38
411.567	502.78
411.775	472.06
411.984	463.86
412.192	513.02
412.401	521.21
412.609	574.46
412.818	523.26
413.026	596.98
413.234	529.4
413.443	619.51
413.651	570.36
413.86	650.23
414.068	713.72
414.276	680.95
414.485	736.24
414.693	785.4
414.901	719.86
415.11	801.78
415.318	771.06
415.526	787.44
415.734	771.06
415.943	879.6
416.151	936.95
416.359	836.6
416.567	994.29
416.776	926.71
416.984	1104.88
417.192	1086.45
417.4	1084.4
417.608	1137.65
417.817	1156.08
418.025	1180.65
418.233	1256.43
418.441	1233.9
418.649	1315.82
418.857	1469.42
419.065	1491.95
419.273	1455.08
419.481	1537
419.689	1676.26
419.897	1633.26
420.105	1735.65
420.313	1776.61
420.521	1762.28
420.729	1807.33
420.937	1860.58
421.145	1944.55
421.353	2008.03
421.561	2077.66
421.769	2208.73
421.977	2202.59
422.185	2296.8
422.393	2360.28
422.601	2505.69
422.809	2534.36
423.017	2577.37
423.224	2579.42
423.432	2890.71
423.64	2757.59
423.848	2868.18
424.056	2905.04
424.263	3177.42
424.471	3183.57
424.679	3146.7
424.887	3511.24
425.094	3417.04
425.302	3668.94
425.51	3580.87
425.718	3816.39
425.925	3679.18
426.133	3896.26
426.341	4277.18
426.548	4250.56
426.756	4283.33
426.964	4340.67
427.171	4666.3
427.379	4748.22
427.586	4756.41
427.794	4846.52
428.001	5110.71
428.209	5442.48
428.417	5254.06
428.624	5819.3
428.832	5649.32
429.039	5696.43
429.247	5561.26
429.454	6267.81
429.662	6439.84
429.869	6077.35
430.076	6712.22
430.284	6431.65
430.491	6591.39
430.699	7160.72
430.906	7146.39
431.114	7326.61
431.321	7574.41
431.528	7631.76
431.736	8076.16
431.943	8330.11
432.15	8106.88
432.358	8270.72
432.565	8772.47
432.772	8565.63
432.979	9245.55
433.187	9364.34
433.394	9280.37
433.601	10093.41
433.808	10048.36
434.016	9972.58
434.223	10494.82
434.43	11111.25
434.637	10746.72
434.844	11447.12
435.052	11533.14
435.259	11531.09
435.466	11682.64
435.673	11715.41
435.88	12157.77
436.087	12948.28
436.294	12755.77
436.501	12495.68
436.708	12751.68
436.915	13382.45
437.122	14097.19
437.329	13757.23
437.537	14383.91
437.743	14531.36
437.95	14639.9
438.157	15045.4
438.364	15598.35
438.571	15885.07
438.778	15973.13
438.985	17531.64
439.192	16507.65
439.399	16960.25
439.606	16612.1
439.813	17593.08
440.02	18688.74
440.227	18416.36
440.433	18103.02
440.64	18985.69
440.847	18807.52
441.054	19239.64
441.261	20374.22
441.467	20118.22
441.674	20853.44
441.881	21160.64
442.088	21238.46
442.294	20714.18
442.501	21543.61
442.708	21945.01
442.914	22874.79
443.121	23704.21
443.328	23362.2
443.534	24900.23
443.741	24175.25
443.948	23784.09
444.154	25684.6
444.361	25168.51
444.568	25635.45
444.774	25707.13
444.981	25807.48
445.187	26606.19
445.394	27535.96
445.6	26960.48
445.807	29868.6
446.013	28686.92
446.22	28881.48
446.426	29895.22
446.633	30517.81
446.839	31447.58
447.046	29919.8
447.252	31402.53
447.459	31873.56
447.665	31877.66
447.871	33335.81
448.078	34384.37
448.284	32264.72
448.491	33227.27
448.697	34945.51
448.903	35568.1
449.11	35633.63
449.316	35047.91
449.522	35635.68
449.728	36780.49
449.935	36852.17
450.141	36743.63
450.347	37599.68
450.553	36055.51
450.76	36821.45
450.966	37724.61
451.172	37341.64
451.378	38259.13
451.584	37310.92
451.791	38369.72
451.997	38470.07
452.203	38646.19
452.409	38623.67
452.615	38705.59
452.821	37095.88
453.027	36760.02
453.233	38595
453.44	36997.58
453.646	37632.45
453.852	37790.14
454.058	38343.09
454.264	36960.72
454.47	37915.07
454.676	36780.49
454.882	37851.58
455.088	34710
455.294	35293.67
455.5	35564
455.705	36452.82
455.911	34580.98
456.117	33942.01
456.323	33440.26
456.529	31353.38
456.735	32975.37
456.941	32236.05
457.147	31879.71
457.352	30886.44
457.558	30519.85
457.764	30616.11
457.97	29760.06
458.176	29329.98
458.381	29106.76
458.587	27660.89
458.793	27701.85
458.999	26315.37
459.204	28480.08
459.41	27380.32
459.616	25404.03
459.821	25641.59
460.027	25514.62
460.233	24842.88
460.438	23689.88
460.644	23962.26
460.85	22989.47
461.055	22510.25
461.261	22698.66
461.466	21048
461.672	20380.36
461.878	21631.67
462.083	20325.07
462.289	19978.96
462.494	19600.08
462.7	18879.2
462.905	18285.29
463.111	19016.41
463.316	19016.41
463.522	18711.27
463.727	18707.17
463.932	18561.76
464.138	18592.48
464.343	18119.4
464.549	18033.39
464.754	18488.04
464.959	18768.61
465.165	18295.53
465.37	17488.63
465.575	17109.75
465.781	17992.43
465.986	17918.7
466.191	17134.33
466.397	16737.02
466.602	16042.76
466.807	16790.27
467.012	16550.66
467.218	16827.14
467.423	16534.28
467.628	16466.69
467.833	17070.84
468.038	16519.94
468.244	15966.99
468.449	16683.78
468.654	16071.43
468.859	16122.63
469.064	15819.53
469.269	15516.44
469.474	15123.23
469.679	15661.84
469.885	15115.03
470.09	15293.21
470.295	15442.71
470.5	15029.02
470.705	15301.4
470.91	14715.68
471.115	14600.99
471.32	14934.81
471.525	14709.54
471.73	14322.47
471.935	14426.92
472.139	14015.27
472.344	14258.98
472.549	13687.6
472.754	13695.79
472.959	13634.35
473.164	13169.46
473.369	12919.61
473.574	13282.1
473.778	13163.32
473.983	13161.27
474.188	13105.98
474.393	12815.16
474.598	12612.42
474.802	12473.15
475.007	12593.98
475.212	12520.26
475.417	12073.8
475.621	11948.87
475.826	11891.53
476.031	11957.07
476.235	11535.18
476.44	11725.65
476.645	11543.38
476.849	11504.46
477.054	11283.28
477.259	11318.1
477.463	11146.07
477.668	10888.03
477.872	11045.72
478.077	11010.9
478.282	10802.01
478.486	10857.31
478.691	10584.93
478.895	10462.05
479.1	10531.68
479.304	10513.25
479.509	10103.65
479.713	10228.58
479.918	10161
480.122	9911.14
480.326	10101.61
480.531	10146.66
480.735	9892.71
480.94	9763.69
481.144	10314.59
481.348	9724.78
481.553	9724.78
481.757	9636.72
481.961	9761.64
482.166	9925.48
482.37	9978.73
482.574	9610.09
482.778	9558.89
482.983	9671.53
483.187	9669.48
483.391	9700.2
483.595	9911.14
483.8	9593.71
484.004	9534.32
484.208	9884.52
484.412	9634.67
484.616	9753.45
484.821	9704.3
485.025	9440.11
485.229	9718.64
485.433	9665.39
485.637	9818.99
485.841	9562.99
486.045	9735.02
486.249	9706.35
486.453	9532.27
486.657	9698.16
486.861	9745.26
487.065	9655.15
487.269	9698.16
487.473	9544.56
487.677	9796.46
487.881	9739.12
488.085	9544.56
488.289	9638.76
488.493	9718.64
488.697	9837.42
488.901	9722.73
489.105	9634.67
489.309	9784.17
489.512	9892.71
489.716	9878.38
489.92	9692.01
490.124	9884.52
490.328	9855.85
490.531	9886.57
490.735	9970.54
490.939	9991.02
491.143	10062.69
491.346	10087.27
491.55	10048.36
491.754	10113.89
491.958	10275.68
492.161	10273.64
492.365	10183.52
492.569	10210.15
492.772	10279.78
492.976	10210.15
493.18	10300.26
493.383	10498.91
493.587	10484.58
493.79	10824.54
493.994	10597.21
494.197	10726.24
494.401	10779.48
494.605	10795.87
494.808	11041.62
495.012	11088.73
495.215	11287.38
495.419	11248.47
495.622	11029.34
495.825	11348.82
496.029	11135.83
496.232	11551.57
496.436	11539.28
496.639	11809.61
496.843	11613.01
497.046	11899.72
497.249	12096.33
497.453	12016.46
497.656	12239.69
497.859	12217.16
498.063	12585.79
498.266	12743.49
498.469	12610.37
498.673	12755.77
498.876	12938.04
499.079	13032.25
499.282	13224.76
499.485	13501.23
499.689	13300.53
499.892	13644.59
500.095	13695.79
500.298	14000.94
500.501	13685.55
500.705	14295.85
500.908	14535.46
501.111	14408.48
501.314	14783.26
501.517	14777.12
501.72	14850.85
501.923	15063.83
502.126	15336.21
502.329	15629.07
502.532	15647.51
502.735	15592.21
502.938	16026.38
503.141	16188.17
503.344	16225.03
503.547	16489.22
503.75	16681.73
503.953	16966.4
504.156	17068.8
504.359	16743.17
504.562	17036.03
504.765	17640.18
504.968	17726.19
505.17	18141.93
505.373	17914.61
505.576	18279.15
505.779	18344.68
505.982	18793.19
506.185	18821.86
506.387	19077.85
506.59	19038.94
506.793	19682
506.996	19727.06
507.198	20032.21
507.401	19999.44
507.604	20058.83
507.807	20441.8
508.009	20466.38
508.212	20585.16
508.415	20992.7
508.617	21310.14
508.82	21621.43
509.022	21232.32
509.225	22117.04
509.428	22127.28
509.63	22344.36
509.833	22459.05
510.035	23059.1
510.238	22700.71
510.44	23126.69
510.643	23317.15
510.845	23863.96
511.048	23583.38
511.25	24060.56
511.453	24144.53
511.655	24814.21
511.858	24818.31
512.06	24863.36
512.262	25268.86
512.465	25291.39
512.667	25629.3
512.87	25711.22
513.072	25887.35
513.274	26532.46
513.477	26813.03
513.679	26995.3
513.881	27310.69
514.084	27482.72
514.286	27355.74
514.488	27507.29
514.69	28422.73
514.893	28377.68
515.095	28576.33
515.297	29182.53
515.499	29030.98
515.701	29524.54
515.904	29942.33
516.106	29659.71
516.308	30550.57
516.51	30659.12
516.712	30612.01
516.914	31046.18
517.116	31314.47
517.318	31558.17
517.52	31341.09
517.722	32121.37
517.925	32387.6
518.127	32823.82
518.329	32987.66
518.531	33045
518.733	33550.85
518.935	33847.8
519.136	33745.41
519.338	34400.76
519.54	34359.8
519.742	34750.96
519.944	35047.91
520.146	35447.27
520.348	35482.08
520.55	35721.69
520.752	36331.99
520.954	36489.68
521.155	36360.66
521.357	37089.74
521.559	37654.98
521.761	37992.89
521.963	37726.66
522.164	37689.79
522.366	38150.59
522.568	38750.64
522.77	38797.74
522.971	39018.92
523.173	39063.98
523.375	39414.18
523.576	39408.04
523.778	39633.32
523.98	40348.06
524.181	40176.03
524.383	40653.2
524.584	41030.03
524.786	40782.23
524.988	40782.23
525.189	41333.13
525.391	41798.02
525.592	41789.83
525.794	42365.31
525.995	42187.13
526.197	42551.67
526.398	42486.14
526.6	42512.76
526.801	43059.57
527.003	43223.4
527.204	42899.83
527.406	43667.81
527.607	43510.12
527.808	43536.74
528.01	42817.91
528.211	43489.64
528.412	44669.27
528.614	44267.87
528.815	44355.93
529.016	44921.17
529.218	44546.39
529.419	44536.15
529.62	44810.58
529.822	44673.37
530.023	45017.43
530.224	45199.69
530.425	44937.55
530.626	44831.06
530.828	44937.55
531.029	45820.23
531.23	45238.61
531.431	45320.52
531.632	45257.04
531.833	45820.23
532.035	45214.03
532.236	45971.78
532.437	45918.53
532.638	45832.52
532.839	45988.16
533.04	45912.39
533.241	45910.34
533.442	46575.93
533.643	46127.42
533.844	46119.23
534.045	45848.9
534.246	46092.61
534.447	46291.26
534.648	46008.64
534.849	46250.3
535.05	45816.13
535.251	46139.71
535.451	46043.46
535.652	46782.77
535.853	46637.37
536.054	46256.45
536.255	46623.03
536.456	46170.43
536.657	47012.15
536.857	46657.85
537.058	46199.1
537.259	46573.88
537.46	46481.72
537.66	46541.11
537.861	46668.09
538.062	46467.39
538.263	46745.91
538.463	46307.65
538.664	46657.85
538.865	46790.97
539.065	47102.26
539.266	46084.42
539.466	46858.55
539.667	46369.08
539.868	46764.34
540.068	46256.45
540.269	46090.56
540.469	46838.07
540.67	46082.37
540.87	46627.13
541.071	46577.98
541.271	46434.62
541.472	46512.44
541.672	46123.33
541.873	46278.97
542.073	46041.41
542.274	46590.27
542.474	46510.39
542.675	46362.94
542.875	46713.14
543.075	46588.22
543.276	45828.42
543.476	46592.31
543.676	46266.69
543.877	46547.26
544.077	46678.33
544.277	46225.73
544.478	46147.9
544.678	46590.27
544.878	46213.44
545.078	46895.41
545.279	45910.34
545.479	46176.58
545.679	46508.35
545.879	46459.2
546.079	46639.42
546.28	46371.13
546.48	46139.71
546.68	46627.13
546.88	46440.76
547.08	46356.8
547.28	46371.13
547.48	45795.65
547.68	46340.41
547.88	46328.13
548.081	46508.35
548.281	46254.4
548.481	46055.75
548.681	46289.21
548.881	46401.85
549.081	46207.29
549.28	45693.25
549.48	46328.13
549.68	46078.27
549.88	46659.9
550.08	46248.25
550.28	46135.62
550.48	45859.14
550.68	46182.72
550.88	46188.86
551.08	45934.92
551.279	46307.65
551.479	45861.19
551.679	46059.84
551.879	46131.52
552.079	46106.94
552.278	45676.87
552.478	45969.73
552.678	45902.15
552.878	46369.08
553.077	46055.75
553.277	45693.25
553.477	46393.66
553.676	45889.86
553.876	46125.38
554.076	45957.44
554.275	45545.8
554.475	45222.22
554.674	45660.49
554.874	45617.48
555.074	45533.51
555.273	45926.72
555.473	46010.69
555.672	45420.87
555.872	45429.07
556.071	45558.09
556.271	45947.2
556.47	45439.31
556.67	44702.04
556.869	45103.44
557.068	45228.37
557.268	45254.99
557.467	45109.58
557.667	44976.47
557.866	45295.95
558.065	44714.33
558.265	44802.39
558.464	44968.27
558.663	45214.03
558.863	44622.17
559.062	45295.95
559.261	44188
559.461	44845.4
559.66	44241.24
559.859	44736.85
560.058	43897.19
560.258	44349.79
560.457	44013.92
560.656	44411.23
560.855	44081.5
561.054	44341.6
561.253	43817.32
561.453	44173.66
561.652	44126.56
561.851	44593.5
562.05	44157.28
562.249	43313.52
562.448	44210.53
562.647	43802.98
562.846	43612.52
563.045	43452.78
563.244	43082.09
563.443	44183.9
563.642	42697.08
563.841	43264.36
564.04	42824.05
564.239	43243.88
564.438	42582.39
564.637	43155.82
564.836	43207.02
565.035	42381.69
565.234	42539.38
565.432	42097.02
565.631	42330.49
565.83	42404.22
566.029	42088.83
566.228	42090.88
566.427	42058.11
566.625	41486.73
566.824	41759.11
567.023	42064.25
567.222	41382.28
567.42	41879.94
567.619	41408.9
567.818	41546.12
568.016	41396.62
568.215	41937.28
568.414	41019.79
568.612	41183.63
568.811	40978.83
569.01	40944.02
569.208	40069.53
569.407	40628.63
569.605	40243.61
569.804	41019.79
570.002	40292.76
570.201	40452.5
570.4	40001.95
570.598	40139.16
570.797	40079.77
570.995	39723.43
571.193	39494.05
571.392	40010.14
571.59	39432.61
571.789	39449
571.987	39324.07
572.186	38848.94
572.384	38998.44
572.582	39260.58
572.781	39348.65
572.979	38783.41
573.177	38937.01
573.376	39029.16
573.574	38488.5
573.772	38687.15
573.971	38586.8
574.169	38345.14
574.367	38119.87
574.565	38228.41
574.763	37851.58
574.962	37913.02
575.16	37657.03
575.358	37634.5
575.556	37185.99
575.754	38078.91
575.952	37216.71
576.151	37902.78
576.349	37007.82
576.547	36739.54
576.745	37317.06
576.943	37220.81
577.141	37081.55
577.339	37429.7
577.537	36704.72
577.735	36600.27
577.933	36381.14
578.131	36684.24
578.329	36405.72
578.527	35942.88
578.725	36078.04
578.923	36178.39
579.121	35748.32
579.319	36022.75
579.516	36254.17
579.714	35803.61
579.912	35588.58
580.11	35572.19
580.308	35242.47
580.506	35641.82
580.704	34773.49
580.901	34941.42
581.099	35387.88
581.297	34830.83
581.495	34929.13
581.692	35076.58
581.89	34925.04
582.088	34851.31
582.285	34466.29
582.483	34742.77
582.681	34714.09
582.878	34042.36
583.076	34124.28
583.274	34736.62
583.471	33927.67
583.669	34089.46
583.866	33554.94
584.064	33686.01
584.262	33522.18
584.459	33788.41
584.657	33575.42
584.854	33751.55
585.052	33163.78
585.249	33509.89
585.447	33192.45
585.644	33198.6
585.841	33137.16
586.039	33092.1
586.236	32277.01
586.434	32659.98
586.631	32533.01
586.828	32516.62
587.026	32684.56
587.223	32385.55
587.42	32168.47
587.618	32104.98
587.815	31978.01
588.012	31828.51
588.21	31590.94
588.407	32123.41
588.604	31638.05
588.801	31468.06
588.999	31799.83
589.196	31691.29
589.393	31535.65
589.59	30976.55
589.787	31066.66
589.984	30927.4
590.182	30724.65
590.379	30855.72
590.576	30523.95
590.773	30761.51
590.97	30431.79
591.167	30655.02
591.364	30372.4
591.561	30315.06
591.758	30239.28
591.955	30173.75
592.152	30247.47
592.349	29872.7
592.546	30181.94
592.743	29936.18
592.94	29205.06
593.137	29936.18
593.334	30026.29
593.531	29418.05
593.727	29680.19
593.924	29461.05
594.121	29039.17
594.318	29434.43
594.515	28602.96
594.712	28983.88
594.908	28971.59
595.105	28822.09
595.302	28480.08
595.499	28869.19
595.696	28572.24
595.892	28252.75
596.089	28570.19
596.286	28559.95
596.482	28252.75
596.679	28326.48
596.876	28383.82
597.072	28007
597.269	27757.14
597.466	27449.95
597.662	27802.2
597.859	27783.77
598.055	27689.56
598.252	27128.42
598.448	27355.74
598.645	27001.44
598.841	27066.98
599.038	27175.52
599.234	27101.79
599.431	26516.08
599.627	26536.56
599.824	27073.12
600.02	26636.91
600.217	26892.9
600.413	26499.69
600.609	26249.84
600.806	26366.57
601.002	26755.69
601.198	25926.26
601.395	26311.28
601.591	26264.18
601.787	25885.3
601.984	25803.38
602.18	25938.55
602.376	25729.66
602.572	25571.96
602.769	25696.89
602.965	25363.07
603.161	25397.88
603.357	25207.42
603.553	25379.45
603.75	25234.05
603.946	24988.29
604.142	25074.31
604.338	24980.1
604.534	25025.15
604.73	24416.91
604.926	24527.5
605.122	25057.92
605.318	24300.17
605.514	24447.63
605.71	24208.01
605.906	24406.67
606.102	24146.58
606.298	24150.67
606.494	23980.69
606.69	24111.76
606.886	23980.69
607.082	23650.97
607.278	24203.92
607.474	23497.37
607.67	23958.16
607.866	23605.91
608.062	23745.17
608.257	23405.21
608.453	23544.47
608.649	23552.66
608.845	23521.95
609.041	23173.79
609.236	23290.52
609.432	23055.01
609.628	23204.51
609.824	22897.31
610.019	22739.62
610.215	22731.43
610.411	23032.48
610.606	22876.83
610.802	22792.87
610.998	22725.29
611.193	23108.26
611.389	22534.82
611.584	22536.87
611.78	22491.82
611.976	22473.39
612.171	22522.54
612.367	22555.3
612.562	22293.16
612.758	22098.61
612.953	22180.53
613.149	22344.36
613.344	22110.89
613.539	22471.34
613.735	21869.23
613.93	22018.74
614.126	22037.17
614.321	22233.77
614.517	22028.98
614.712	21838.51
614.907	21721.78
615.103	22033.07
615.298	21693.11
615.493	22043.31
615.688	21269.18
615.884	21897.91
616.079	21027.52
616.274	21668.53
616.47	21277.37
616.665	21490.36
616.86	21314.23
617.055	21383.87
617.25	20966.08
617.445	21433.02
617.641	20654.79
617.836	21072.57
618.031	20652.74
618.226	21007.04
618.421	20892.35
618.616	21097.15
618.811	20318.92
619.006	20695.75
619.201	20363.98
619.396	20734.66
619.591	20153.04
619.786	20558.53
619.981	20032.21
620.176	20376.27
620.371	20024.01
620.566	20239.05
620.761	19970.77
620.956	19874.51
621.151	19880.66
621.346	19765.97
621.541	19303.13
621.735	19739.35
621.93	19350.23
622.125	19159.77
622.32	19012.32
622.515	19348.18
622.709	18907.87
622.904	19202.78
623.099	18989.79
623.294	18836.19
623.488	18600.68
623.683	18770.66
623.878	18313.96
624.072	18387.69
624.267	18289.38
624.462	18023.15
624.656	18100.97
624.851	18248.43
625.046	17752.82
625.24	17892.08
625.435	17718
625.629	17654.51
625.824	17502.96
626.018	17464.05
626.213	17203.96
626.407	17152.76
626.602	17042.17
626.796	17021.69
626.991	17122.04
627.185	17009.4
627.38	16519.94
627.574	16657.15
627.768	16341.77
627.963	16417.54
628.157	16354.05
628.352	16544.52
628.546	16192.26
628.74	16313.1
628.935	16059.15
629.129	16136.97
629.323	15854.35
629.517	15614.74
629.712	15698.7
629.906	15883.02
630.1	15678.22
630.294	15573.78
630.489	15289.11
630.683	15409.94
630.877	15123.23
631.071	15123.23
631.265	14967.58
631.459	15121.18
631.653	15035.16
631.848	15112.99
632.042	14795.55
632.236	15031.07
632.43	14553.89
632.624	14623.52
632.818	14424.87
633.012	14474.02
633.206	14295.85
633.4	14349.09
633.594	14291.75
633.788	14031.66
633.982	14179.11
634.176	13878.06
634.369	13771.57
634.563	13839.15
634.757	13767.47
634.951	13953.84
635.145	13665.07
635.339	13531.95
635.533	13478.71
635.726	13566.77
635.92	13298.49
636.114	13318.96
636.308	13218.61
636.501	13058.87
636.695	12989.24
636.889	12968.76
637.083	12741.44
637.276	12753.73
637.47	12786.49
637.664	12712.77
637.857	12532.54
638.051	12636.99
638.244	12413.76
638.438	12356.42
638.632	12337.99
638.825	12294.98
639.019	12147.53
639.212	12157.77
639.406	12190.53
639.599	11785.04
639.793	11975.5
639.986	11705.17
640.18	11795.28
640.373	11559.76
640.567	11782.99
640.76	11506.51
640.954	11299.67
641.147	11557.71
641.34	11369.3
641.534	11240.28
641.727	11318.1
641.92	11211.6
642.114	11189.08
642.307	11129.69
642.5	10797.92
642.694	10961.75
642.887	10920.79
643.08	10951.51
643.273	10834.78
643.467	10920.79
643.66	10503.01
643.853	10578.78
644.046	10523.49
644.239	10582.88
644.432	10498.91
644.626	10392.42
644.819	10281.83
645.012	10238.82
645.205	10306.4
645.398	10261.35
645.591	9978.73
645.784	10052.45
645.977	9978.73
646.17	10091.37
646.363	9745.26
646.556	9913.19
646.749	9743.21
646.942	9704.3
647.135	9978.73
647.328	9567.09
647.521	9634.67
647.714	9311.09
647.907	9427.82
648.099	9466.74
648.292	9493.36
648.485	9466.74
648.678	9370.48
648.871	9159.54
649.064	9290.61
649.256	9208.69
649.449	9274.23
649.642	9036.66
649.835	8969.08
650.027	9051
650.22	8792.95
650.413	8930.17
650.605	8702.84
650.798	8786.81
650.991	8721.27
651.183	8711.04
651.376	8661.88
651.568	8479.61
651.761	8438.66
651.954	8571.77
652.146	8500.09
652.339	8420.22
652.531	8432.51
652.724	8323.97
652.916	8237.95
653.109	8242.05
653.301	8254.34
653.494	8409.98
653.686	8082.31
653.879	8201.09
654.071	8092.55
654.263	8010.63
654.456	7857.03
654.648	8016.77
654.84	7918.47
655.033	7799.69
655.225	7691.15
655.417	7650.19
655.61	7820.17
655.802	7773.07
655.994	7586.7
656.186	7693.19
656.379	7492.49
656.571	7592.84
656.763	7349.14
656.955	7367.57
657.148	7508.88
657.34	7451.53
657.532	7408.53
657.724	7324.56
657.916	7236.5
658.108	7261.07
658.3	7095.19
658.492	7203.73
658.684	7207.83
658.876	7074.71
659.068	7144.34
659.26	6814.62
659.452	7099.28
659.644	7095.19
659.836	6986.65
660.028	6933.4
660.22	6845.34
660.412	6996.89
660.604	6697.88
660.796	7011.22
660.988	6704.03
661.18	6749.08
661.372	6595.48
661.563	6493.08
661.755	6603.68
661.947	6402.97
662.139	6468.51
662.331	6413.21
662.522	6525.85
662.714	6407.07
662.906	6413.21
663.097	6431.65
663.289	6284.19
663.481	6232.99
663.673	6302.62
663.864	6194.08
664.056	6421.41
664.247	6171.55
664.439	6173.6
664.631	6196.13
664.822	6042.53
665.014	6110.11
665.205	5948.33
665.397	5999.52
665.588	5940.13
665.78	6155.17
665.971	5977
666.163	6050.72
666.354	5956.52
666.546	5686.19
666.737	5749.67
666.929	5716.9
667.12	5757.86
667.311	5772.2
667.503	5626.79
667.694	5809.06
667.885	5759.91
668.077	5694.38
668.268	5600.17
668.459	5663.66
668.651	5645.23
668.842	5628.84
669.033	5528.49
669.224	5483.44
669.416	5467.05
669.607	5415.85
669.798	5493.68
669.989	5469.1
670.18	5338.03
670.371	5520.3
670.563	5225.39
670.754	5497.77
670.945	5360.56
671.136	5301.17
671.327	5190.58
671.518	5352.37
671.709	5348.27
671.9	5243.82
672.091	5317.55
672.282	5213.1
672.473	5026.74
672.664	5407.66
672.855	5122.99
673.046	5174.19
673.237	5122.99
673.428	5206.96
673.619	5190.58
673.809	5133.23
674	5161.91
674.191	5241.78
674.382	5075.89
674.573	5143.47
674.764	5012.4
674.954	5102.51
675.145	5018.55
675.336	5055.41
675.527	4899.77
675.717	4969.4
675.908	4821.94
676.099	4942.77
676.289	5071.79
676.48	4959.16
676.671	4758.46
676.861	4930.48
677.052	4948.92
677.243	4916.15
677.433	4805.56
677.624	4961.2
677.814	4897.72
678.005	4891.57
678.195	4953.01
678.386	4850.61
678.576	4864.95
678.767	4805.56
678.957	4860.85
679.148	4875.19
679.338	4821.94
679.529	4805.56
679.719	4746.17
679.909	4770.74
680.1	4717.5
680.29	4727.74
680.481	4832.18
680.671	4799.41
680.861	4871.09
681.052	4807.61
681.242	4715.45
681.432	4848.57
681.622	4928.44
681.813	4703.16
682.003	4813.75
682.193	4711.35
682.383	4805.56
682.573	4555.71
682.764	4752.31
682.954	4662.2
683.144	4817.85
683.334	4645.82
683.524	4627.39
683.714	4746.17
683.904	4613.05
684.094	4662.2
684.284	4537.27
684.474	4776.89
684.664	4582.33
684.854	4617.15
685.044	4547.51
685.234	4492.22
685.424	4541.37
685.614	4668.34
685.804	4617.15
685.994	4443.07
686.184	4508.6
686.374	4443.07
686.564	4301.76
686.753	4436.92
686.943	4504.51
687.133	4420.54
687.323	4438.97
687.513	4408.25
687.702	4305.85
687.892	4412.35
688.082	4383.68
688.272	4326.33
688.461	4273.09
688.651	4367.29
688.841	4281.28
689.03	4328.38
689.22	4297.66
689.41	4301.76
689.599	4168.64
689.789	4105.15
689.979	4213.7
690.168	4066.24
690.358	4082.63
690.547	4080.58
690.737	4111.3
690.926	4058.05
691.116	4070.34
691.305	4068.29
691.495	4074.43
691.684	4041.67
691.874	4168.64
692.063	4039.62
692.252	3926.98
692.442	4051.91
692.631	3943.36
692.82	3912.64
693.01	4019.14
693.199	3929.03
693.388	3845.06
693.578	4045.76
693.767	3847.11
693.956	3892.16
694.146	3804.1
694.335	3793.86
694.524	3724.23
694.713	3750.85
694.902	3851.21
695.092	3890.12
695.281	3931.08
695.47	3759.05
695.659	3865.54
695.848	3783.62
696.037	3722.18
696.226	3750.85
696.415	3746.76
696.604	3754.95
696.793	3720.14
696.982	3623.88
697.171	3783.62
697.36	3730.38
697.549	3675.08
697.738	3783.62
697.927	3658.7
698.116	3658.7
698.305	3673.03
698.494	3531.72
698.683	3548.11
698.872	3644.36
699.061	3558.35
699.25	3660.74
699.438	3466.19
699.627	3529.67
699.816	3609.54
700.005	3617.74
700.193	3523.53
700.382	3664.84
700.571	3697.61
700.76	3595.21
700.948	3576.78
701.137	3503.05
701.326	3582.92
701.514	3595.21
701.703	3689.42
701.892	3525.58
702.08	3589.07
702.269	3619.78
702.457	3441.61
702.646	3453.9
702.834	3580.87
703.023	3544.01
703.212	3515.34
703.4	3460.04
703.589	3625.93
703.777	3617.74
703.965	3564.49
704.154	3656.65
704.342	3544.01
704.531	3505.1
704.719	3453.9
704.907	3490.76
705.096	3627.98
705.284	3503.05
705.472	3617.74
705.661	3414.99
705.849	3552.2
706.037	3580.87
706.226	3486.67
706.414	3605.45
706.602	3525.58
706.79	3531.72
706.979	3386.32
707.167	3408.84
707.355	3451.85
707.543	3400.65
707.731	3433.42
707.919	3511.24
708.107	3466.19
708.296	3556.3
708.484	3386.32
708.672	3476.43
708.86	3566.54
709.048	3576.78
709.236	3556.3
709.424	3576.78
709.612	3480.52
709.8	3486.67
709.988	3412.94
710.176	3668.94
710.364	3576.78
710.551	3476.43
710.739	3458
710.927	3589.07
711.115	3539.91
711.303	3556.3
711.491	3568.59
711.679	3546.06
711.866	3435.47
712.054	3582.92
712.242	3400.65
712.43	3617.74
712.617	3523.53
712.805	3523.53
712.993	3468.24
713.181	3474.38
713.368	3570.63
713.556	3531.72
713.744	3537.87
713.931	3601.35
714.119	3589.07
714.306	3597.26
714.494	3519.43
714.682	3494.86
714.869	3429.32
715.057	3541.96
715.244	3498.95
715.432	3458
715.619	3531.72
715.807	3449.8
715.994	3503.05
716.182	3507.15
716.369	3535.82
716.556	3550.15
716.744	3550.15
716.931	3511.24
717.119	3582.92
717.306	3587.02
717.493	3443.66
717.681	3601.35
717.868	3597.26
718.055	3572.68
718.242	3519.43
718.43	3490.76
718.617	3503.05
718.804	3453.9
718.991	3527.63
719.179	3525.58
719.366	3492.81
719.553	3537.87
719.74	3519.43
719.927	3509.19
720.114	3625.93
720.301	3511.24
720.488	3414.99
720.676	3527.63
720.863	3453.9
721.05	3478.47
721.237	3574.73
721.424	3519.43
721.611	3498.95
721.798	3472.33
721.985	3455.95
722.172	3433.42
722.358	3515.34
722.545	3492.81
722.732	3449.8
722.919	3603.4
723.106	3304.4
723.293	3386.32
723.48	3466.19
723.667	3480.52
723.853	3445.71
724.04	3531.72
724.227	3437.52
724.414	3472.33
724.6	3404.75
724.787	3589.07
724.974	3441.61
725.161	3425.23
725.347	3474.38
725.534	3367.88
725.72	3363.79
725.907	3404.75
726.094	3529.67
726.28	3531.72
726.467	3486.67
726.653	3351.5
726.84	3564.49
727.027	3488.71
727.213	3431.37
727.4	3521.48
727.586	3462.09
727.773	3333.07
727.959	3361.74
728.145	3511.24
728.332	3439.56
728.518	3365.84
728.705	3552.2
728.891	3429.32
729.077	3271.63
729.264	3384.27
729.45	3333.07
729.636	3537.87
729.823	3367.88
730.009	3392.46
730.195	3400.65
730.382	3470.28
730.568	3462.09
730.754	3433.42
730.94	3404.75
731.126	3419.08
731.313	3310.54
731.499	3425.23
731.685	3300.3
731.871	3412.94
732.057	3214.29
732.243	3279.82
732.429	3312.59
732.615	3380.17
732.801	3290.06
732.987	3384.27
733.173	3185.62
733.359	3212.24
733.545	3269.58
733.731	3300.3
733.917	3410.89
734.103	3150.8
734.289	3431.37
734.475	3253.2
734.661	3343.31
734.847	3163.09
735.033	3275.73
735.219	3277.77
735.404	3345.36
735.59	3273.68
735.776	3210.19
735.962	3236.81
736.148	3304.4
736.333	3230.67
736.519	3247.05
736.705	3075.03
736.89	3269.58
737.076	3208.14
737.262	3109.84
737.447	3115.98
737.633	3165.14
737.819	3257.29
738.004	3152.85
738.19	3183.57
738.375	3181.52
738.561	3150.8
738.747	3294.16
738.932	3083.22
739.118	3142.61
739.303	3144.66
739.489	3177.42
739.674	3220.43
739.859	2950.1
740.045	3091.41
740.23	3029.97
740.416	2943.96
740.601	3134.42
740.786	3017.68
740.972	2954.19
741.157	2950.1
741.342	2929.62
741.528	2960.34
741.713	2980.82
741.898	2925.52
742.084	2984.91
742.269	2825.17
742.454	2980.82
742.639	2980.82
742.824	2892.76
743.01	2929.62
743.195	2956.24
743.38	2909.14
743.565	2843.6
743.75	2853.84
743.935	2843.6
744.12	2921.43
744.305	2833.36
744.49	2839.51
744.675	2798.55
744.86	2739.16
745.045	2898.9
745.23	2847.7
745.415	2712.53
745.6	2716.63
745.785	2624.47
745.97	2767.83
746.155	2620.38
746.34	2687.96
746.525	2597.85
746.71	2653.14
746.895	2589.66
747.079	2673.62
747.264	2550.75
747.449	2552.79
747.634	2446.3
747.819	2556.89
748.003	2397.15
748.188	2464.73
748.373	2444.25
748.557	2522.07
748.742	2417.63
748.927	2448.35
749.111	2470.87
749.296	2421.72
749.481	2372.57
749.665	2333.66
749.85	2341.85
750.034	2419.68
750.219	2348
750.404	2311.13
750.588	2261.98
750.773	2251.74
750.957	2311.13
751.141	2237.41
751.326	2122.72
751.51	2304.99
751.695	2218.97
751.879	2167.77
752.064	2139.1
752.248	2145.25
752.432	2204.64
752.617	2180.06
752.801	2077.66
752.985	2145.25
753.17	2003.94
753.354	1993.7
753.538	2032.61
753.722	1991.65
753.907	1975.27
754.091	1975.27
754.275	2040.8
754.459	2046.94
754.643	1950.69
754.828	1919.97
755.012	2038.75
755.196	1952.74
755.38	1874.92
755.564	1881.06
755.748	1809.38
755.932	1919.97
756.116	1795.04
756.3	1729.51
756.484	1840.1
756.668	1885.16
756.852	1885.16
757.036	1721.32
757.22	1905.63
757.404	1729.51
757.588	1684.45
757.772	1684.45
757.956	1709.03
758.14	1774.56
758.323	1668.07
758.507	1764.33
758.691	1661.93
758.875	1547.24
759.059	1668.07
759.242	1620.97
759.426	1584.1
759.61	1623.02
759.794	1586.15
759.977	1528.81
760.161	1682.41
760.345	1643.49
760.528	1524.71
760.712	1475.56
760.895	1539.05
761.079	1475.56
761.263	1491.95
761.446	1580.01
761.63	1450.99
761.813	1518.57
761.997	1551.34
762.18	1514.47
762.364	1508.33
762.547	1479.66
762.731	1450.99
762.914	1438.7
763.098	1362.92
763.281	1526.76
763.464	1473.51
763.648	1422.31
763.831	1473.51
764.015	1364.97
764.198	1397.74
764.381	1367.02
764.564	1401.83
764.748	1356.78
764.931	1346.54
765.114	1307.63
765.297	1395.69
765.481	1303.53
765.664	1424.36
765.847	1311.72
766.03	1348.59
766.213	1180.65
766.397	1289.2
766.58	1272.81
766.763	1319.92
766.946	1246.19
767.129	1278.96
767.312	1246.19
767.495	1299.44
767.678	1240.05
767.861	1246.19
768.044	1168.37
768.227	1262.57
768.41	1246.19
768.593	1168.37
768.776	1313.77
768.959	1219.57
769.142	1137.65
769.324	1098.74
769.507	1162.22
769.69	1188.85
769.873	1180.65
770.056	1221.61
770.239	1164.27
770.421	1246.19
770.604	1125.36
770.787	1104.88
770.97	1160.17
771.152	1090.54
771.335	1235.95
771.518	1203.18
771.7	1117.17
771.883	1272.81
772.066	1119.21
772.248	1119.21
772.431	1041.39
772.613	1127.41
772.796	1139.69
772.978	1143.79
773.161	1098.74
773.343	1119.21
773.526	1004.53
773.708	1041.39
773.891	1123.31
774.073	998.38
774.256	971.76
774.438	1016.82
774.621	1063.92
774.803	998.38
774.985	996.34
775.168	1053.68
775.35	979.95
775.532	1006.58
775.715	1008.62
775.897	1020.91
776.079	941.04
776.261	965.62
776.444	979.95
776.626	955.38
776.808	971.76
776.99	877.55
777.173	959.47
777.355	922.61
777.537	902.13
777.719	979.95
777.901	912.37
778.083	850.93
778.265	908.27
778.447	848.88
778.629	785.4
778.811	842.74
778.993	779.25
779.175	809.97
779.357	795.64
779.539	855.03
779.721	840.69
779.903	803.83
780.085	771.06
780.267	773.11
780.449	828.4
780.631	754.68
780.812	787.44
780.994	785.4
781.176	805.88
781.358	709.62
781.54	726
781.721	748.53
781.903	652.28
782.085	781.3
782.267	678.9
782.448	697.33
782.63	719.86
782.812	736.24
782.993	703.48
783.175	660.47
783.357	644.09
783.538	744.44
783.72	623.61
783.901	685.05
784.083	654.33
784.264	695.29
784.446	652.28
784.627	537.59
784.809	599.03
784.99	547.83
785.172	652.28
785.353	734.2
785.535	590.84
785.716	605.17
785.897	535.54
786.079	617.46
786.26	615.41
786.441	615.41
786.623	484.34
786.804	631.8
786.985	621.56
787.167	527.35
787.348	506.87
787.529	539.64
787.71	549.88
787.891	449.53
788.073	482.3
788.254	482.3
788.435	556.02
788.616	545.78
788.797	467.96
788.978	510.97
789.159	474.1
789.34	515.06
789.522	484.34
789.703	459.77
789.884	492.54
790.065	508.92
790.246	545.78
790.427	494.58
790.607	492.54
790.788	513.02
790.969	492.54
791.15	586.74
791.331	383.99
791.512	416.76
791.693	504.82
791.874	431.1
792.054	517.11
792.235	496.63
792.416	472.06
792.597	445.43
792.778	467.96
792.958	472.06
793.139	492.54
793.32	461.82
793.5	455.67
793.681	433.15
793.862	480.25
794.042	416.76
794.223	388.09
794.404	451.58
794.584	418.81
794.765	332.79
794.945	482.3
795.126	451.58
795.306	472.06
795.487	388.09
795.667	433.15
795.848	381.95
796.028	361.47
796.209	408.57
796.389	457.72
796.57	371.71
796.75	357.37
796.93	283.64
797.111	347.13
797.291	359.42
797.471	396.28
797.652	427
797.832	334.84
798.012	334.84
798.192	351.23
798.373	283.64
798.553	406.52
798.733	369.66
798.913	328.7
799.093	281.6
799.274	379.9
799.454	353.27
799.634	343.03
799.814	365.56
799.994	328.7
800.174	328.7
800.354	248.83
800.534	365.56
800.714	338.94
800.894	347.13
801.074	336.89
801.254	406.52
801.434	353.27
801.614	314.36
801.794	254.97
801.974	887.79
802.154	287.74
802.334	320.51
802.514	322.56
802.693	316.41
802.873	269.31
803.053	287.74
803.233	345.08
803.413	269.31
803.592	257.02
803.772	234.49
803.952	238.59
804.131	203.77
804.311	287.74
804.491	203.77
804.67	263.16
804.85	236.54
805.03	314.36
805.209	353.27
805.389	261.12
805.568	234.49
805.748	248.83
805.928	353.27
806.107	287.74
806.287	230.4
806.466	240.64
806.646	234.49
806.825	259.07
807.004	252.92
807.184	205.82
807.363	259.07
807.543	265.21
807.722	302.08
807.901	330.75
808.081	267.26
808.26	195.58
808.439	214.01
808.619	232.44
808.798	263.16
808.977	295.93
809.156	246.78
809.336	177.15
809.515	330.75
809.694	207.87
809.873	201.72
810.052	242.68
810.231	242.68
810.411	242.68
810.59	285.69
810.769	244.73
810.948	295.93
811.127	193.53
811.306	152.57
811.485	183.29
811.664	242.68
811.843	181.25
812.022	199.68
812.201	222.2
812.38	203.77
812.559	254.97
812.737	277.5
812.916	203.77
813.095	197.63
813.274	207.87
813.453	261.12
813.632	228.35
813.811	234.49
813.989	162.81
814.168	228.35
814.347	189.44
814.526	175.1
814.704	203.77
814.883	177.15
815.062	154.62
815.24	197.63
815.419	117.76
815.598	185.34
815.776	144.38
815.955	179.2
816.133	140.29
816.312	173.05
816.49	107.52
816.669	189.44
816.847	238.59
817.026	228.35
817.204	197.63
817.383	226.3
817.561	185.34
817.74	228.35
817.918	238.59
818.097	220.16
818.275	232.44
818.453	179.2
818.632	189.44
818.81	195.58
818.988	189.44
819.167	146.43
819.345	183.29
819.523	130.05
819.701	87.04
819.879	123.9
820.058	197.63
820.236	230.4
820.414	162.81
820.592	232.44
820.77	130.05
820.948	246.78
821.127	146.43
821.305	125.95
821.483	183.29
821.661	193.53
821.839	195.58
822.017	148.48
822.195	78.85
822.373	295.93
822.551	183.29
822.729	142.33
822.907	222.2
823.085	238.59
823.262	138.24
823.44	125.95
823.618	97.28
823.796	111.61
823.974	142.33
824.152	105.47
824.329	123.9
824.507	189.44
824.685	224.25
824.863	214.01
825.04	185.34
825.218	214.01
825.396	91.13
825.574	195.58
825.751	181.25
825.929	236.54
826.107	177.15
826.284	158.72
826.462	171.01
826.639	103.42
826.817	142.33
826.994	107.52
827.172	207.87
827.349	181.25
827.527	125.95
827.704	97.28
827.882	173.05
828.059	132.09
828.237	109.57
828.414	158.72
828.591	64.51
828.769	191.49
828.946	82.94
829.124	121.85
829.301	154.62
829.478	82.94
829.655	99.33
829.833	152.57
830.01	1.02
830.187	146.43
830.364	119.81
830.542	177.15
830.719	148.48
830.896	158.72
831.073	187.39
831.25	48.13
831.427	89.09
831.604	146.43
831.782	205.82
831.959	58.37
832.136	58.37
832.313	136.19
832.49	154.62
832.667	150.53
832.844	91.13
833.021	171.01
833.198	58.37
833.374	107.52
833.551	146.43
833.728	132.09
833.905	197.63
834.082	144.38
834.259	70.65
834.436	140.29
834.612	107.52
834.789	173.05
834.966	46.08
835.143	109.57
835.319	62.46
835.496	66.56
835.673	113.66
835.85	62.46
836.026	82.94
836.203	33.79
836.38	109.57
836.556	95.23
836.733	107.52
836.909	93.18
837.086	33.79
837.262	91.13
837.439	177.15
837.616	62.46
837.792	74.75
837.968	117.76
838.145	17.41
838.321	54.27
838.498	25.6
838.674	72.7
838.851	103.42
839.027	89.09
839.203	58.37
839.38	76.8
839.556	70.65
839.732	46.08
839.909	91.13
840.085	111.61
840.261	13.31
840.437	119.81
840.614	70.65
840.79	33.79
840.966	33.79
841.142	76.8
841.318	56.32
841.494	87.04
841.671	87.04
841.847	31.74
842.023	136.19
842.199	121.85
842.375	103.42
842.551	-60.42
842.727	48.13
842.903	99.33
843.079	31.74
843.255	113.66
843.431	50.18
843.607	121.85
843.783	103.42
843.959	82.94
844.134	33.79
844.31	105.47
844.486	103.42
844.662	70.65
844.838	70.65
845.013	99.33
845.189	23.55
845.365	99.33
845.541	74.75
845.716	37.89
845.892	109.57
846.068	111.61
846.244	95.23
846.419	113.66
846.595	41.98
846.77	54.27
846.946	105.47
847.122	97.28
847.297	62.46
847.473	62.46
847.648	33.79
847.824	58.37
847.999	39.94
848.175	50.18
848.35	99.33
848.526	130.05
848.701	64.51
848.876	27.65
849.052	72.7
849.227	78.85
849.403	87.04
849.578	115.71
849.753	46.08
849.929	140.29
850.104	58.37
850.279	70.65
850.454	50.18
850.63	140.29
850.805	31.74
850.98	115.71
851.155	66.56
851.33	7.17
851.505	-9.22
851.681	132.09
851.856	107.52
852.031	99.33
852.206	97.28
852.381	66.56
852.556	87.04
852.731	37.89
852.906	62.46
853.081	52.22
853.256	91.13
853.431	46.08
853.606	-3.07
853.781	62.46
853.956	35.84
854.131	134.14
854.305	80.89
854.48	39.94
854.655	13.31
854.83	15.36
855.005	52.22
855.18	60.42
855.354	154.62
855.529	-3.07
855.704	37.89
855.879	-25.6
856.053	50.18
856.228	50.18
856.403	25.6
856.577	62.46
856.752	9.22
856.926	-25.6
857.101	68.61
857.276	37.89
857.45	5.12
857.625	70.65
857.799	95.23
857.974	140.29
858.148	-37.89
858.323	29.7
858.497	23.55
858.672	41.98
858.846	31.74
859.02	140.29
859.195	23.55
859.369	50.18
859.543	60.42
859.718	-33.79
859.892	46.08
860.066	21.5
860.241	13.31
860.415	-25.6
860.589	78.85
860.763	17.41
860.938	33.79
861.112	93.18
861.286	29.7
861.46	74.75
861.634	74.75
861.808	62.46
861.982	62.46
862.157	99.33
862.331	87.04
862.505	50.18
862.679	21.5
862.853	54.27
863.027	74.75
863.201	19.46
863.375	31.74
863.549	39.94
863.722	54.27
863.896	21.5
864.07	58.37
864.244	25.6
864.418	58.37
864.592	123.9
864.766	29.7
864.939	-7.17
865.113	-13.31
865.287	41.98
865.461	60.42
865.634	29.7
865.808	54.27
865.982	37.89
866.156	13.31
866.329	37.89
866.503	111.61
866.676	107.52
866.85	52.22
867.024	5.12
867.197	64.51
867.371	72.7
867.544	29.7
867.718	13.31
867.891	27.65
868.065	5.12
868.238	99.33
868.412	87.04
868.585	21.5
868.759	23.55
868.932	91.13
869.105	23.55
869.279	-7.17
869.452	7.17
869.625	17.41
869.799	25.6
869.972	21.5
870.145	-3.07
870.319	35.84
870.492	-21.5
870.665	35.84
870.838	37.89
871.011	37.89
871.185	27.65
871.358	-21.5
871.531	31.74
871.704	64.51
871.877	58.37
872.05	-21.5
872.223	68.61
872.396	5.12
872.569	3.07
872.742	50.18
872.915	66.56
873.088	-7.17
873.261	33.79
873.434	50.18
873.607	60.42
873.78	37.89
873.953	29.7
874.126	29.7
874.299	27.65
874.471	-15.36
874.644	1.02
874.817	-25.6
874.99	123.9
875.163	11.26
875.335	35.84
875.508	29.7
875.681	25.6
875.853	33.79
876.026	25.6
876.199	84.99
876.371	-39.94
876.544	41.98
876.717	19.46
876.889	44.03
877.062	-66.56
877.234	-70.65
877.407	7.17
877.579	-7.17
877.752	37.89
877.924	46.08
878.097	-13.31
878.269	-7.17
878.442	99.33
878.614	5.12
878.786	21.5
878.959	25.6
879.131	50.18
879.303	5.12
879.476	56.32
879.648	15.36
879.82	46.08
879.993	-19.46
880.165	23.55
880.337	9.22
880.509	9.22
880.681	-80.89
880.854	-66.56
881.026	1.02
881.198	46.08
881.37	1.02
881.542	-5.12
881.714	-23.55
881.886	-68.61
882.058	19.46
882.23	46.08
882.402	50.18
882.574	25.6
882.746	91.13
882.918	70.65
883.09	58.37
883.262	3.07
883.434	5.12
883.606	11.26
883.778	27.65
883.95	-17.41
884.122	33.79
884.293	33.79
884.465	-39.94
884.637	-39.94
884.809	-1.02
884.98	39.94
885.152	17.41
885.324	17.41
885.496	-17.41
885.667	64.51
885.839	50.18
886.011	54.27
886.182	15.36
886.354	37.89
886.525	62.46
886.697	-54.27
886.869	58.37
887.04	70.65
887.212	3.07
887.383	109.57
887.555	29.7
887.726	3.07
887.897	-21.5
888.069	11.26
888.24	39.94
888.412	25.6
888.583	50.18
888.754	21.5
888.926	21.5
889.097	-46.08
889.268	9.22
889.44	-15.36
889.611	89.09
889.782	1.02
889.953	13.31
890.125	64.51
890.296	5.12
890.467	58.37
890.638	33.79
890.809	-5.12
890.98	27.65
891.151	-35.84
891.323	80.89
891.494	-41.98
891.665	-31.74
891.836	80.89
892.007	58.37
892.178	41.98
892.349	17.41
892.52	-7.17
892.691	9.22
892.862	17.41
893.032	-93.18
893.203	-37.89
893.374	-9.22
893.545	3.07
893.716	9.22
893.887	95.23
894.057	-7.17
894.228	15.36
894.399	-7.17
894.57	115.71
894.74	29.7
894.911	7.17
895.082	109.57
895.253	-35.84
895.423	5.12
895.594	68.61
895.764	70.65
895.935	7.17
896.106	-15.36
896.276	44.03
896.447	-37.89
896.617	-7.17
896.788	-39.94
896.958	-19.46
897.129	5.12
897.299	-39.94
897.47	62.46
897.64	46.08
897.81	103.42
897.981	107.52
898.151	-3.07
898.322	62.46
898.492	91.13
898.662	-3.07
898.832	-50.18
899.003	93.18
899.173	-23.55
899.343	25.6
899.513	-62.46
