Data from USB4F104151__53__10-23-42-824.txt Node

Date: Wed Mar 12 10:23:42 EDT 2025
User: louis
Spectrometer: USB4F10415
Trigger mode: 4
Integration Time (sec): 3.000000E-2
Scans to average: 1
Electric dark correction enabled: true
Nonlinearity correction enabled: false
Boxcar width: 0
XAxis mode: Wavelengths
Number of Pixels in Spectrum: 3648
>>>>>Begin Spectral Data<<<<<
178.204	-42.5
178.424	-42.5
178.644	-42.5
178.864	-65.02
179.084	-93.69
179.304	29.18
179.524	-19.97
179.744	37.38
179.964	-36.35
180.184	-19.97
180.404	64
180.624	29.18
180.844	57.86
181.064	-65.02
181.283	-17.92
181.503	-36.35
181.723	-22.02
181.943	0.51
182.163	80.38
182.383	-71.17
182.602	88.57
182.822	141.82
183.042	68.09
183.262	29.18
183.482	16.9
183.701	-11.78
183.921	37.38
184.141	-3.58
184.361	18.94
184.58	104.96
184.8	-34.3
185.02	8.7
185.239	8.7
185.459	84.48
185.679	-5.63
185.898	59.9
186.118	92.67
186.338	100.86
186.557	37.38
186.777	-3.58
186.997	68.09
187.216	43.52
187.436	27.14
187.655	49.66
187.875	47.62
188.095	45.57
188.314	139.77
188.534	27.14
188.753	-28.16
188.973	-54.78
189.192	78.33
189.412	-9.73
189.631	0.51
189.851	29.18
190.07	123.39
190.29	27.14
190.509	8.7
190.729	57.86
190.948	86.53
191.168	131.58
191.387	37.38
191.607	68.09
191.826	57.86
192.045	0.51
192.265	49.66
192.484	16.9
192.704	57.86
192.923	12.8
193.142	39.42
193.362	-3.58
193.581	53.76
193.8	27.14
194.02	121.34
194.239	8.7
194.458	-9.73
194.678	43.52
194.897	4.61
195.116	45.57
195.335	94.72
195.555	-13.82
195.774	94.72
195.993	41.47
196.212	18.94
196.432	94.72
196.651	27.14
196.87	-24.06
197.089	137.73
197.308	20.99
197.528	-9.73
197.747	-19.97
197.966	27.14
198.185	59.9
198.404	4.61
198.623	82.43
198.842	61.95
199.062	53.76
199.281	49.66
199.5	68.09
199.719	70.14
199.938	82.43
200.157	94.72
200.376	29.18
200.595	41.47
200.814	74.24
201.033	29.18
201.252	90.62
201.471	59.9
201.69	84.48
201.909	25.09
202.128	14.85
202.347	66.05
202.566	12.8
202.785	-38.4
203.004	37.38
203.223	0.51
203.442	47.62
203.661	37.38
203.879	-1.54
204.098	43.52
204.317	-17.92
204.536	133.63
204.755	-9.73
204.974	33.28
205.193	16.9
205.411	139.77
205.63	90.62
205.849	72.19
206.068	4.61
206.287	0.51
206.505	78.33
206.724	53.76
206.943	20.99
207.162	10.75
207.381	80.38
207.599	41.47
207.818	45.57
208.037	86.53
208.255	4.61
208.474	74.24
208.693	61.95
208.911	39.42
209.13	68.09
209.349	4.61
209.567	4.61
209.786	84.48
210.005	25.09
210.223	-7.68
210.442	12.8
210.661	45.57
210.879	14.85
211.098	27.14
211.316	43.52
211.535	76.29
211.753	70.14
211.972	2.56
212.191	10.75
212.409	37.38
212.628	27.14
212.846	4.61
213.065	98.81
213.283	68.09
213.502	27.14
213.72	27.14
213.938	25.09
214.157	6.66
214.375	59.9
214.594	-1.54
214.812	8.7
215.031	61.95
215.249	43.52
215.467	12.8
215.686	49.66
215.904	51.71
216.122	-3.58
216.341	78.33
216.559	37.38
216.778	86.53
216.996	86.53
217.214	68.09
217.432	2.56
217.651	0.51
217.869	74.24
218.087	-24.06
218.306	4.61
218.524	39.42
218.742	78.33
218.96	18.94
219.179	45.57
219.397	25.09
219.615	53.76
219.833	12.8
220.051	6.66
220.27	66.05
220.488	4.61
220.706	-5.63
220.924	-3.58
221.142	-11.78
221.36	49.66
221.578	47.62
221.796	43.52
222.015	70.14
222.233	41.47
222.451	16.9
222.669	4.61
222.887	94.72
223.105	12.8
223.323	23.04
223.541	35.33
223.759	45.57
223.977	33.28
224.195	8.7
224.413	68.09
224.631	41.47
224.849	20.99
225.067	150.01
225.285	-3.58
225.503	66.05
225.721	-24.06
225.939	-32.26
226.157	-9.73
226.375	49.66
226.592	53.76
226.81	-9.73
227.028	45.57
227.246	59.9
227.464	10.75
227.682	72.19
227.9	27.14
228.117	57.86
228.335	2.56
228.553	35.33
228.771	33.28
228.989	82.43
229.206	98.81
229.424	47.62
229.642	78.33
229.86	86.53
230.077	90.62
230.295	-44.54
230.513	20.99
230.731	4.61
230.948	94.72
231.166	47.62
231.384	20.99
231.601	31.23
231.819	37.38
232.037	68.09
232.254	37.38
232.472	-17.92
232.689	-7.68
232.907	37.38
233.125	61.95
233.342	31.23
233.56	-56.83
233.777	20.99
233.995	-40.45
234.213	6.66
234.43	43.52
234.648	-11.78
234.865	0.51
235.083	6.66
235.3	45.57
235.518	72.19
235.735	10.75
235.953	68.09
236.17	51.71
236.388	37.38
236.605	90.62
236.822	33.28
237.04	33.28
237.257	2.56
237.475	-15.87
237.692	49.66
237.909	107.01
238.127	-46.59
238.344	129.53
238.562	43.52
238.779	-11.78
238.996	6.66
239.214	16.9
239.431	0.51
239.648	57.86
239.865	27.14
240.083	59.9
240.3	53.76
240.517	18.94
240.735	53.76
240.952	86.53
241.169	37.38
241.386	33.28
241.603	33.28
241.821	2.56
242.038	86.53
242.255	8.7
242.472	14.85
242.689	51.71
242.907	8.7
243.124	55.81
243.341	78.33
243.558	-1.54
243.775	-22.02
243.992	-15.87
244.209	29.18
244.426	47.62
244.643	61.95
244.86	20.99
245.078	70.14
245.295	20.99
245.512	2.56
245.729	8.7
245.946	37.38
246.163	12.8
246.38	66.05
246.597	37.38
246.814	16.9
247.031	29.18
247.248	-34.3
247.464	80.38
247.681	0.51
247.898	33.28
248.115	12.8
248.332	-15.87
248.549	16.9
248.766	61.95
248.983	96.77
249.2	20.99
249.417	10.75
249.633	-38.4
249.85	64
250.067	55.81
250.284	80.38
250.501	41.47
250.717	109.05
250.934	-32.26
251.151	2.56
251.368	-3.58
251.585	121.34
251.801	-19.97
252.018	-3.58
252.235	115.2
252.451	10.75
252.668	-15.87
252.885	94.72
253.102	29.18
253.318	53.76
253.535	-30.21
253.752	61.95
253.968	-40.45
254.185	43.52
254.401	-9.73
254.618	41.47
254.835	27.14
255.051	61.95
255.268	59.9
255.484	39.42
255.701	-7.68
255.917	2.56
256.134	12.8
256.351	-32.26
256.567	14.85
256.784	76.29
257	49.66
257.217	51.71
257.433	47.62
257.65	31.23
257.866	117.25
258.082	10.75
258.299	20.99
258.515	43.52
258.732	-52.74
258.948	37.38
259.165	23.04
259.381	35.33
259.597	35.33
259.814	59.9
260.03	-28.16
260.246	39.42
260.463	82.43
260.679	33.28
260.895	20.99
261.112	53.76
261.328	12.8
261.544	76.29
261.761	96.77
261.977	49.66
262.193	23.04
262.409	4.61
262.626	0.51
262.842	20.99
263.058	88.57
263.274	47.62
263.49	90.62
263.707	23.04
263.923	119.29
264.139	-19.97
264.355	43.52
264.571	64
264.787	90.62
265.004	121.34
265.22	-36.35
265.436	-1.54
265.652	45.57
265.868	53.76
266.084	29.18
266.3	12.8
266.516	-13.82
266.732	78.33
266.948	2.56
267.164	78.33
267.38	-24.06
267.596	82.43
267.812	92.67
268.028	4.61
268.244	76.29
268.46	55.81
268.676	41.47
268.892	33.28
269.108	-15.87
269.324	45.57
269.54	18.94
269.756	37.38
269.972	20.99
270.188	49.66
270.403	-17.92
270.619	-5.63
270.835	25.09
271.051	-15.87
271.267	-13.82
271.483	41.47
271.698	98.81
271.914	76.29
272.13	-22.02
272.346	31.23
272.562	6.66
272.777	94.72
272.993	78.33
273.209	-36.35
273.425	49.66
273.64	27.14
273.856	-1.54
274.072	37.38
274.287	14.85
274.503	88.57
274.719	92.67
274.934	10.75
275.15	107.01
275.366	27.14
275.581	29.18
275.797	31.23
276.012	98.81
276.228	-7.68
276.444	70.14
276.659	92.67
276.875	31.23
277.09	84.48
277.306	82.43
277.521	33.28
277.737	20.99
277.952	10.75
278.168	12.8
278.383	25.09
278.599	92.67
278.814	86.53
279.03	111.1
279.245	12.8
279.461	37.38
279.676	111.1
279.892	-30.21
280.107	39.42
280.322	-38.4
280.538	45.57
280.753	6.66
280.969	14.85
281.184	66.05
281.399	61.95
281.615	78.33
281.83	25.09
282.045	16.9
282.26	29.18
282.476	33.28
282.691	53.76
282.906	104.96
283.122	47.62
283.337	0.51
283.552	33.28
283.767	12.8
283.983	51.71
284.198	47.62
284.413	88.57
284.628	0.51
284.843	27.14
285.058	84.48
285.274	61.95
285.489	6.66
285.704	4.61
285.919	-3.58
286.134	-3.58
286.349	-44.54
286.564	6.66
286.779	70.14
286.995	55.81
287.21	-65.02
287.425	59.9
287.64	-26.11
287.855	78.33
288.07	20.99
288.285	41.47
288.5	23.04
288.715	23.04
288.93	90.62
289.145	10.75
289.36	23.04
289.575	100.86
289.79	78.33
290.004	10.75
290.219	4.61
290.434	-42.5
290.649	29.18
290.864	94.72
291.079	41.47
291.294	-9.73
291.509	29.18
291.724	78.33
291.938	98.81
292.153	55.81
292.368	41.47
292.583	59.9
292.798	94.72
293.012	23.04
293.227	41.47
293.442	47.62
293.657	51.71
293.871	133.63
294.086	51.71
294.301	123.39
294.516	68.09
294.73	84.48
294.945	8.7
295.16	100.86
295.374	68.09
295.589	53.76
295.804	12.8
296.018	57.86
296.233	25.09
296.447	53.76
296.662	41.47
296.877	86.53
297.091	100.86
297.306	14.85
297.52	37.38
297.735	74.24
297.949	-24.06
298.164	-38.4
298.378	0.51
298.593	33.28
298.807	4.61
299.022	80.38
299.236	45.57
299.451	0.51
299.665	-19.97
299.88	29.18
300.094	88.57
300.309	115.2
300.523	29.18
300.737	39.42
300.952	-13.82
301.166	29.18
301.381	25.09
301.595	47.62
301.809	8.7
302.024	90.62
302.238	-54.78
302.452	154.11
302.667	12.8
302.881	74.24
303.095	45.57
303.309	70.14
303.524	61.95
303.738	-3.58
303.952	4.61
304.166	41.47
304.381	53.76
304.595	72.19
304.809	-1.54
305.023	20.99
305.237	57.86
305.452	61.95
305.666	90.62
305.88	49.66
306.094	115.2
306.308	66.05
306.522	29.18
306.736	127.49
306.95	55.81
307.164	76.29
307.379	66.05
307.593	33.28
307.807	123.39
308.021	23.04
308.235	47.62
308.449	57.86
308.663	20.99
308.877	107.01
309.091	27.14
309.305	66.05
309.519	39.42
309.733	6.66
309.947	12.8
310.161	33.28
310.374	49.66
310.588	61.95
310.802	57.86
311.016	41.47
311.23	61.95
311.444	41.47
311.658	-24.06
311.872	23.04
312.085	102.91
312.299	37.38
312.513	37.38
312.727	64
312.941	-5.63
313.154	-3.58
313.368	78.33
313.582	66.05
313.796	41.47
314.009	6.66
314.223	113.15
314.437	70.14
314.651	70.14
314.864	57.86
315.078	61.95
315.292	-11.78
315.505	53.76
315.719	4.61
315.933	47.62
316.146	27.14
316.36	4.61
316.573	86.53
316.787	49.66
317.001	27.14
317.214	76.29
317.428	53.76
317.641	8.7
317.855	88.57
318.068	59.9
318.282	4.61
318.495	37.38
318.709	20.99
318.922	23.04
319.136	47.62
319.349	131.58
319.563	59.9
319.776	27.14
319.99	-19.97
320.203	-11.78
320.417	27.14
320.63	57.86
320.843	166.4
321.057	59.9
321.27	61.95
321.483	100.86
321.697	127.49
321.91	23.04
322.124	43.52
322.337	-17.92
322.55	25.09
322.763	43.52
322.977	39.42
323.19	55.81
323.403	109.05
323.617	29.18
323.83	78.33
324.043	20.99
324.256	80.38
324.469	78.33
324.683	98.81
324.896	18.94
325.109	61.95
325.322	0.51
325.535	92.67
325.748	12.8
325.962	10.75
326.175	127.49
326.388	45.57
326.601	102.91
326.814	76.29
327.027	57.86
327.24	23.04
327.453	27.14
327.666	98.81
327.879	41.47
328.092	102.91
328.305	70.14
328.518	27.14
328.731	53.76
328.944	74.24
329.157	-24.06
329.37	-22.02
329.583	14.85
329.796	25.09
330.009	8.7
330.222	125.44
330.435	18.94
330.648	27.14
330.861	47.62
331.073	37.38
331.286	43.52
331.499	51.71
331.712	2.56
331.925	-17.92
332.138	-19.97
332.35	76.29
332.563	78.33
332.776	113.15
332.989	66.05
333.202	-28.16
333.414	37.38
333.627	-11.78
333.84	70.14
334.053	82.43
334.265	33.28
334.478	88.57
334.691	53.76
334.903	74.24
335.116	29.18
335.329	115.2
335.541	31.23
335.754	74.24
335.966	61.95
336.179	76.29
336.392	53.76
336.604	35.33
336.817	82.43
337.029	37.38
337.242	-7.68
337.454	104.96
337.667	64
337.88	76.29
338.092	53.76
338.305	29.18
338.517	43.52
338.729	96.77
338.942	61.95
339.154	80.38
339.367	41.47
339.579	70.14
339.792	137.73
340.004	129.53
340.217	29.18
340.429	43.52
340.641	33.28
340.854	49.66
341.066	98.81
341.278	-15.87
341.491	164.35
341.703	82.43
341.915	70.14
342.128	70.14
342.34	20.99
342.552	51.71
342.764	78.33
342.977	72.19
343.189	47.62
343.401	123.39
343.613	72.19
343.826	66.05
344.038	74.24
344.25	80.38
344.462	16.9
344.674	141.82
344.886	70.14
345.099	6.66
345.311	57.86
345.523	78.33
345.735	-11.78
345.947	80.38
346.159	4.61
346.371	78.33
346.583	135.68
346.795	121.34
347.007	23.04
347.219	88.57
347.431	37.38
347.643	49.66
347.855	43.52
348.067	102.91
348.279	51.71
348.491	47.62
348.703	51.71
348.915	92.67
349.127	61.95
349.339	68.09
349.551	-5.63
349.763	113.15
349.975	68.09
350.187	59.9
350.399	78.33
350.61	70.14
350.822	37.38
351.034	94.72
351.246	82.43
351.458	84.48
351.669	29.18
351.881	80.38
352.093	45.57
352.305	121.34
352.517	74.24
352.728	86.53
352.94	45.57
353.152	61.95
353.363	-58.88
353.575	88.57
353.787	102.91
353.999	72.19
354.21	70.14
354.422	29.18
354.633	43.52
354.845	70.14
355.057	76.29
355.268	41.47
355.48	76.29
355.692	78.33
355.903	12.8
356.115	14.85
356.326	45.57
356.538	102.91
356.749	68.09
356.961	96.77
357.172	135.68
357.384	49.66
357.595	94.72
357.807	-22.02
358.018	-9.73
358.23	33.28
358.441	78.33
358.653	96.77
358.864	12.8
359.075	92.67
359.287	70.14
359.498	96.77
359.709	49.66
359.921	127.49
360.132	92.67
360.344	98.81
360.555	107.01
360.766	20.99
360.977	88.57
361.189	61.95
361.4	-3.58
361.611	61.95
361.823	115.2
362.034	45.57
362.245	55.81
362.456	29.18
362.667	64
362.879	35.33
363.09	84.48
363.301	78.33
363.512	49.66
363.723	86.53
363.935	37.38
364.146	64
364.357	74.24
364.568	127.49
364.779	76.29
364.99	102.91
365.201	27.14
365.412	12.8
365.623	61.95
365.834	94.72
366.045	35.33
366.256	20.99
366.467	74.24
366.678	27.14
366.889	45.57
367.1	100.86
367.311	53.76
367.522	70.14
367.733	143.87
367.944	107.01
368.155	41.47
368.366	45.57
368.577	117.25
368.788	98.81
368.999	14.85
369.209	57.86
369.42	82.43
369.631	127.49
369.842	80.38
370.053	47.62
370.264	117.25
370.474	98.81
370.685	127.49
370.896	66.05
371.107	107.01
371.317	100.86
371.528	55.81
371.739	107.01
371.95	102.91
372.16	43.52
372.371	49.66
372.582	-1.54
372.792	82.43
373.003	109.05
373.214	70.14
373.424	10.75
373.635	-15.87
373.846	96.77
374.056	78.33
374.267	27.14
374.477	-5.63
374.688	119.29
374.898	94.72
375.109	10.75
375.319	33.28
375.53	31.23
375.74	16.9
375.951	147.97
376.161	111.1
376.372	74.24
376.582	-3.58
376.793	94.72
377.003	55.81
377.214	0.51
377.424	107.01
377.635	90.62
377.845	53.76
378.055	64
378.266	39.42
378.476	33.28
378.686	80.38
378.897	49.66
379.107	123.39
379.317	121.34
379.528	29.18
379.738	190.97
379.948	45.57
380.158	113.15
380.369	68.09
380.579	111.1
380.789	-1.54
380.999	84.48
381.21	125.44
381.42	135.68
381.63	29.18
381.84	133.63
382.05	76.29
382.261	47.62
382.471	61.95
382.681	113.15
382.891	131.58
383.101	61.95
383.311	20.99
383.521	84.48
383.731	49.66
383.941	70.14
384.151	102.91
384.361	109.05
384.571	90.62
384.781	88.57
384.991	76.29
385.201	102.91
385.411	74.24
385.621	68.09
385.831	145.92
386.041	74.24
386.251	86.53
386.461	59.9
386.671	66.05
386.881	109.05
387.091	-5.63
387.301	66.05
387.511	92.67
387.72	68.09
387.93	76.29
388.14	6.66
388.35	117.25
388.56	125.44
388.769	41.47
388.979	143.87
389.189	37.38
389.399	82.43
389.609	25.09
389.818	41.47
390.028	10.75
390.238	137.73
390.447	12.8
390.657	41.47
390.867	119.29
391.076	84.48
391.286	-3.58
391.496	115.2
391.705	33.28
391.915	125.44
392.125	61.95
392.334	55.81
392.544	158.21
392.753	25.09
392.963	49.66
393.172	100.86
393.382	164.35
393.591	168.45
393.801	78.33
394.01	102.91
394.22	86.53
394.429	125.44
394.639	66.05
394.848	131.58
395.058	41.47
395.267	166.4
395.477	154.11
395.686	74.24
395.895	139.77
396.105	113.15
396.314	109.05
396.524	123.39
396.733	111.1
396.942	154.11
397.152	170.49
397.361	76.29
397.57	139.77
397.78	152.06
397.989	135.68
398.198	109.05
398.407	39.42
398.617	193.02
398.826	131.58
399.035	66.05
399.244	184.83
399.453	49.66
399.663	156.16
399.872	135.68
400.081	117.25
400.29	223.74
400.499	51.71
400.708	150.01
400.917	104.96
401.127	158.21
401.336	84.48
401.545	186.88
401.754	201.21
401.963	195.07
402.172	162.3
402.381	129.53
402.59	176.64
402.799	182.78
403.008	139.77
403.217	209.4
403.426	139.77
403.635	178.69
403.844	98.81
404.053	100.86
404.262	182.78
404.471	131.58
404.68	188.93
404.888	184.83
405.097	250.36
405.306	180.73
405.515	274.94
405.724	225.79
405.933	272.89
406.142	231.93
406.35	274.94
406.559	152.06
406.768	268.8
406.977	260.6
407.185	295.42
407.394	309.76
407.603	180.73
407.812	209.4
408.02	229.88
408.229	244.22
408.438	233.98
408.646	385.53
408.855	272.89
409.064	272.89
409.272	283.13
409.481	430.59
409.69	348.67
409.898	371.19
410.107	371.19
410.315	399.87
410.524	326.14
410.733	401.91
410.941	385.53
411.15	436.73
411.358	492.02
411.567	453.11
411.775	461.3
411.984	473.59
412.192	565.75
412.401	473.59
412.609	555.51
412.818	596.47
413.026	563.7
413.234	586.23
413.443	604.66
413.651	631.29
413.86	700.92
414.068	666.1
414.276	764.4
414.485	795.12
414.693	901.62
414.901	885.23
415.11	809.46
415.318	831.99
415.526	889.33
415.734	911.86
415.943	995.82
416.151	1018.35
416.359	938.48
416.567	999.92
416.776	1016.3
416.984	1143.28
417.192	1221.1
417.4	1145.33
417.608	1225.2
417.817	1262.06
418.025	1354.22
418.233	1442.28
418.441	1395.18
418.649	1436.14
418.857	1485.29
419.065	1587.69
419.273	1661.41
419.481	1540.58
419.689	1583.59
419.897	1862.12
420.105	1925.6
420.313	1876.45
420.521	1870.31
420.729	1845.73
420.937	2060.77
421.145	2062.82
421.353	2253.28
421.561	2308.57
421.769	2429.4
421.977	2365.92
422.185	2517.47
422.393	2611.67
422.601	2800.09
422.809	2703.83
423.017	2896.34
423.224	2703.83
423.432	3074.51
423.64	3006.93
423.848	3207.63
424.056	3238.35
424.263	3394
424.471	3408.33
424.679	3371.47
424.887	3697.1
425.094	3891.65
425.302	3772.87
425.51	3875.27
425.718	4092.35
425.925	4221.38
426.133	4141.5
426.341	4624.83
426.548	4669.88
426.756	4733.37
426.964	4848.05
427.171	5120.43
427.379	5116.34
427.586	5300.66
427.794	5355.95
428.001	5749.16
428.209	5935.53
428.417	5890.47
428.624	6238.62
428.832	6291.87
429.039	6087.08
429.247	6244.77
429.454	6869.4
429.662	7176.59
429.869	6803.86
430.076	7311.76
430.284	6932.89
430.491	7285.14
430.699	7825.8
430.906	7694.73
431.114	7922.06
431.321	8229.25
431.528	8399.23
431.736	8774.01
431.943	9177.46
432.15	9023.86
432.358	8962.42
432.565	9505.13
432.772	9427.31
432.979	10385.76
433.187	10101.09
433.394	9904.49
433.601	10965.34
433.808	10924.38
434.016	10971.48
434.223	11479.38
434.43	12079.43
434.637	11880.78
434.844	12448.07
435.052	12724.54
435.259	12548.42
435.466	12847.42
435.673	12552.51
435.88	13482.29
436.087	14006.57
436.294	14184.74
436.501	13738.29
436.708	14410.02
436.915	14424.36
437.122	15251.74
437.329	15225.11
437.537	15743.25
437.743	16089.35
437.95	15804.69
438.157	16695.55
438.364	17293.56
438.571	17056
438.778	16969.98
438.985	18659.56
439.192	18155.75
439.399	18649.32
439.606	18317.54
439.813	19200.22
440.02	20420.81
440.227	20050.13
440.433	19728.59
440.64	20828.35
440.847	20297.93
441.054	20867.27
441.261	22241.45
441.467	21995.7
441.674	22362.28
441.881	23349.4
442.088	22849.7
442.294	22923.43
442.501	23632.02
442.708	24060.05
442.914	25053.31
443.121	25741.43
443.328	24916.1
443.534	27068.51
443.741	26243.18
443.948	25917.56
444.154	27906.13
444.361	27605.08
444.568	27992.15
444.774	27848.79
444.981	28227.67
445.187	29167.68
445.394	30341.17
445.6	29710.39
445.807	32475.15
446.013	30978.09
446.22	31823.9
446.426	32786.44
446.633	33081.35
446.839	34342.9
447.046	32796.68
447.252	34779.12
447.459	34846.7
447.665	34469.87
447.871	36055
448.078	37289.93
448.284	35850.2
448.491	36632.53
448.697	38010.81
448.903	38481.84
449.11	38647.73
449.316	37885.89
449.522	38692.79
449.728	39806.88
449.935	40077.21
450.141	40236.95
450.347	40992.65
450.553	39536.55
450.76	40290.2
450.966	41080.72
451.172	40474.52
451.378	41953.15
451.584	40982.41
451.791	41916.29
451.997	41791.36
452.203	42624.89
452.409	42260.35
452.615	42391.42
452.821	40685.46
453.027	40294.3
453.233	42239.87
453.44	40607.64
453.646	40722.32
453.852	40970.13
454.058	41504.65
454.264	40322.97
454.47	41428.87
454.676	40177.56
454.882	40949.65
455.088	37785.54
455.294	38537.14
455.5	38950.83
455.705	39184.3
455.911	37713.86
456.117	37271.5
456.323	36302.81
456.529	34242.55
456.735	36227.03
456.941	35299.3
457.147	34602.99
457.352	33847.29
457.558	33460.23
457.764	33237
457.97	32522.26
458.176	31512.61
458.381	31811.61
458.587	30433.33
458.793	30543.92
458.999	28756.04
459.204	30562.35
459.41	30119.99
459.616	28135.51
459.821	28082.26
460.027	27797.59
460.233	27420.77
460.438	25917.56
460.644	26140.79
460.85	24957.06
461.055	24588.42
461.261	24952.96
461.466	22816.93
461.672	21858.48
461.878	23847.06
462.083	22325.42
462.289	21825.71
462.494	21508.28
462.7	20459.72
462.905	19941.58
463.111	20652.23
463.316	20928.7
463.522	20203.72
463.727	20519.11
463.932	20377.8
464.138	20324.55
464.343	20236.49
464.549	19448.02
464.754	20320.46
464.959	20101.33
465.165	20142.28
465.37	19251.42
465.575	18604.26
465.781	19275.99
465.986	19581.14
466.191	18645.22
466.397	18303.21
466.602	17422.58
466.807	18204.91
467.012	18252.01
467.218	18215.15
467.423	18311.4
467.628	18211.05
467.833	18866.4
468.038	18057.45
468.244	17555.7
468.449	18249.96
468.654	17582.32
468.859	17402.1
469.064	17740.02
469.269	16832.77
469.474	16871.68
469.679	17031.42
469.885	16550.15
470.09	17039.61
470.295	16754.94
470.5	16550.15
470.705	16298.25
470.91	16021.77
471.115	16091.4
471.32	16251.14
471.525	16163.08
471.73	15739.15
471.935	15753.49
472.139	15202.58
472.344	15325.46
472.549	15298.84
472.754	14909.72
472.959	14887.2
473.164	14459.17
473.369	14293.29
473.574	14727.46
473.778	14580
473.983	14545.19
474.188	14295.33
474.393	13742.38
474.598	13873.45
474.802	13740.33
475.007	13578.54
475.212	13680.94
475.417	13127.99
475.621	13181.24
475.826	13191.48
476.031	12865.85
476.235	12828.99
476.44	12732.73
476.645	12726.59
476.849	12628.29
477.054	12683.58
477.259	12276.04
477.463	12349.76
477.668	12179.78
477.872	12183.88
478.077	12142.92
478.282	11639.12
478.486	11751.76
478.691	11798.86
478.895	11600.21
479.1	11516.24
479.304	11549.01
479.509	10998.1
479.713	11542.86
479.918	11223.38
480.122	11006.3
480.326	10895.71
480.531	11143.51
480.735	10912.09
480.94	10852.7
481.144	11125.08
481.348	10824.03
481.553	11018.58
481.757	10703.2
481.961	10785.12
482.166	10985.82
482.37	10932.57
482.574	10649.95
482.778	10600.8
482.983	10770.78
483.187	10711.39
483.391	10709.34
483.595	10553.69
483.8	10658.14
484.004	10711.39
484.208	10774.88
484.412	10641.76
484.616	10854.75
484.821	10768.73
485.025	10473.82
485.229	10764.64
485.433	10654.05
485.637	10727.77
485.841	10611.04
486.045	10555.74
486.249	10604.89
486.453	10580.32
486.657	10627.42
486.861	10789.21
487.065	10590.56
487.269	10514.78
487.473	10527.07
487.677	10766.68
487.881	10875.23
488.085	10692.96
488.289	10695
488.493	10744.16
488.697	10746.2
488.901	10795.36
489.105	10924.38
489.309	10754.4
489.512	10725.72
489.716	10867.03
489.92	10832.22
490.124	10938.71
490.328	10973.53
490.531	10934.62
490.735	10944.86
490.939	11129.17
491.143	11059.54
491.346	11196.76
491.55	11237.72
491.754	11252.05
491.958	11585.87
492.161	11215.19
492.365	11403.6
492.569	11239.76
492.772	11145.56
492.976	11606.35
493.18	11559.25
493.383	11688.27
493.587	11788.62
493.79	11895.11
493.994	11567.44
494.197	11893.07
494.401	11905.35
494.605	11817.29
494.808	12171.59
495.012	12159.3
495.215	12155.21
495.419	12382.53
495.622	12337.48
495.825	12527.94
496.029	12538.18
496.232	12810.56
496.436	12726.59
496.639	13201.72
496.843	13166.9
497.046	13259.06
497.249	13482.29
497.453	13521.2
497.656	13607.22
497.859	13558.07
498.063	13785.39
498.266	14180.65
498.469	14133.54
498.673	14207.27
498.876	14547.23
499.079	14645.54
499.282	14500.13
499.485	15014.17
499.689	15089.95
499.892	15083.8
500.095	15137.05
500.298	15718.67
500.501	15382.81
500.705	16058.63
500.908	16023.82
501.111	16257.29
501.314	16331.01
501.517	16693.51
501.72	16615.68
501.923	16765.18
502.126	16992.51
502.329	17477.88
502.532	17369.33
502.735	17615.09
502.938	17907.95
503.141	18018.54
503.344	18329.83
503.547	18299.11
503.75	18647.27
503.953	18964.7
504.156	19112.16
504.359	19228.89
504.562	19308.76
504.765	19611.86
504.968	19808.47
505.17	20134.09
505.373	20015.31
505.576	20543.69
505.779	20660.42
505.982	20981.95
506.185	21309.63
506.387	21391.55
506.59	21424.31
506.793	21995.7
506.996	21907.63
507.198	22505.64
507.401	22526.12
507.604	22782.12
507.807	22939.81
508.009	23224.48
508.212	23433.37
508.415	23498.91
508.617	24483.98
508.82	24227.98
509.022	23959.7
509.225	24979.59
509.428	25213.06
509.63	25313.41
509.833	25215.1
510.035	26005.62
510.238	25692.28
510.44	26081.39
510.643	26419.31
510.845	26562.67
511.048	26490.99
511.25	26986.6
511.453	27185.25
511.655	28112.98
511.858	27719.77
512.06	28035.16
512.262	28610.64
512.465	28487.76
512.667	29194.31
512.87	29280.32
513.072	29243.46
513.274	29827.13
513.477	30330.93
513.679	30505.01
513.881	30767.15
514.084	31135.78
514.286	31287.33
514.488	31445.02
514.69	32454.67
514.893	32296.98
515.095	32448.53
515.297	32806.92
515.499	32733.2
515.701	33323.01
515.904	33415.17
516.106	33966.07
516.308	33755.13
516.51	34711.53
516.712	34390
516.914	35284.97
517.116	35829.73
517.318	35743.71
517.52	36073.43
517.722	35960.8
517.925	36790.22
518.127	36931.53
518.329	37203.91
518.531	37134.28
518.733	38145.98
518.935	38264.76
519.136	38231.99
519.338	39098.28
519.54	39018.41
519.742	39552.93
519.944	39837.6
520.146	40308.63
520.348	40228.76
520.55	40542.1
520.752	40556.44
520.954	41392.01
521.155	41279.37
521.357	42026.88
521.559	42047.36
521.761	42596.21
521.963	42667.89
522.164	42930.03
522.366	43573.1
522.568	43353.96
522.77	43923.3
522.971	44105.57
523.173	44021.6
523.375	44867.41
523.576	44881.75
523.778	44615.51
523.98	45651.78
524.181	45332.3
524.383	45750.09
524.584	46194.5
524.786	46307.13
524.988	46063.43
525.189	46686.01
525.391	46954.29
525.592	47261.49
525.794	47419.18
525.995	47691.56
526.197	47413.04
526.398	47556.39
526.6	48070.43
526.801	48557.85
527.003	48398.11
527.204	48731.93
527.406	48840.47
527.607	49094.42
527.808	49700.62
528.01	48803.61
528.211	49198.87
528.412	50210.56
528.614	49833.74
528.815	49977.09
529.016	50149.12
529.218	50018.05
529.419	50341.63
529.62	50157.31
529.822	50609.92
530.023	50560.76
530.224	51115.76
530.425	50890.49
530.626	50439.93
530.828	50298.62
531.029	51795.69
531.23	51148.53
531.431	51005.17
531.632	51394.29
531.833	51738.35
532.035	51611.37
532.236	51150.58
532.437	51431.15
532.638	51519.21
532.839	51965.67
533.04	51642.09
533.241	51572.46
533.442	52410.08
533.643	51840.74
533.844	51902.18
534.045	52090.6
534.246	51584.75
534.447	52506.33
534.648	51912.42
534.849	52496.09
535.05	51984.1
535.251	52168.42
535.451	52027.11
535.652	52647.64
535.853	52502.24
536.054	52578.01
536.255	52475.62
536.456	51404.53
536.657	52844.25
536.857	51971.81
537.058	51810.03
537.259	52618.97
537.46	52530.91
537.66	52371.17
537.861	52119.27
538.062	52512.48
538.263	52741.85
538.463	52385.5
538.664	52512.48
538.865	52590.3
539.065	52674.27
539.266	52143.84
539.466	53047
539.667	52195.04
539.868	53149.4
540.068	52279.01
540.269	52365.02
540.469	52637.4
540.67	52164.32
540.87	52324.07
541.071	52287.2
541.271	52297.44
541.472	52207.33
541.672	52262.63
541.873	52027.11
542.073	52061.93
542.274	52815.58
542.474	52287.2
542.675	51998.44
542.875	52745.95
543.075	52254.43
543.276	51627.76
543.476	52680.41
543.676	51734.25
543.877	52211.43
544.077	52373.22
544.277	52293.35
544.478	52479.71
544.678	52199.14
544.878	52459.23
545.078	51971.81
545.279	51508.97
545.479	51787.5
545.679	52029.16
545.879	52428.51
546.079	52168.42
546.28	51943.14
546.48	51756.78
546.68	52469.47
546.88	52098.79
547.08	52637.4
547.28	51697.39
547.48	51640.04
547.68	52281.06
547.88	51500.78
548.081	52250.34
548.281	52049.64
548.481	52195.04
548.681	52430.56
548.881	51795.69
549.081	51928.81
549.28	51586.8
549.48	52045.54
549.68	51656.43
549.88	52680.41
550.08	51793.64
550.28	52328.16
550.48	51582.7
550.68	51820.27
550.88	51672.81
551.08	51951.34
551.279	51777.26
551.479	51623.66
551.679	52262.63
551.879	51443.44
552.079	51877.61
552.278	51560.17
552.478	51943.14
552.678	51537.65
552.878	51926.76
553.077	51707.63
553.277	51193.59
553.477	52418.27
553.676	51496.69
553.876	51681
554.076	51244.79
554.275	51271.41
554.475	51189.49
554.674	51754.73
554.874	51724.01
555.074	51029.75
555.273	51238.64
555.473	51511.02
555.672	51345.14
555.872	51267.31
556.071	51119.86
556.271	51173.11
556.47	50761.47
556.67	50902.78
556.869	50953.97
557.068	51039.99
557.268	50601.72
557.467	50603.77
557.667	50732.79
557.866	50816.76
558.065	50310.91
558.265	50409.21
558.464	50360.06
558.663	50943.73
558.863	50034.44
559.062	51179.25
559.261	50417.41
559.461	50456.32
559.66	49850.12
559.859	50228.99
560.058	49760.01
560.258	49936.13
560.457	49608.46
560.656	50695.93
560.855	49637.13
561.054	49745.67
561.253	49559.31
561.453	49886.98
561.652	49807.11
561.851	49817.35
562.05	49241.87
562.249	49225.49
562.448	49401.61
562.647	49354.51
562.846	49086.23
563.045	48924.44
563.244	48338.72
563.443	49510.16
563.642	48359.2
563.841	48867.09
564.04	48805.66
564.239	49174.29
564.438	48811.8
564.637	48383.77
564.836	48473.88
565.035	47922.98
565.234	48086.82
565.432	47945.51
565.631	47757.1
565.83	48054.05
566.029	47605.55
566.228	47429.42
566.427	47521.58
566.625	47222.58
566.824	47171.38
567.023	47294.25
567.222	46219.07
567.42	47556.39
567.619	46794.55
567.818	46694.2
568.016	46610.23
568.215	47157.04
568.414	46896.95
568.612	47163.18
568.811	46667.58
569.01	46192.45
569.208	45877.06
569.407	46401.34
569.605	45723.46
569.804	45856.58
570.002	45496.14
570.201	46069.57
570.4	45367.12
570.598	45348.68
570.797	44955.47
570.995	45356.88
571.193	44709.72
571.392	45492.04
571.59	44672.85
571.789	44463.96
571.987	44697.43
572.186	44650.33
572.384	44111.71
572.582	44275.55
572.781	44124
572.979	44187.49
573.177	43870.05
573.376	43880.29
573.574	43329.39
573.772	44058.46
573.971	43556.71
574.169	43298.67
574.367	43194.22
574.565	43272.04
574.763	43270
574.962	42934.13
575.16	42628.98
575.358	43046.77
575.556	42508.15
575.754	43130.73
575.952	42530.68
576.151	42647.41
576.349	42211.2
576.547	42094.46
576.745	42530.68
576.943	42076.03
577.141	42039.17
577.339	41860.99
577.537	41432.97
577.735	41428.87
577.933	41361.29
578.131	41516.93
578.329	41400.2
578.527	40927.12
578.725	41076.62
578.923	41093
579.121	40525.72
579.319	40875.92
579.516	40900.5
579.714	40843.15
579.912	40228.76
580.11	40314.78
580.308	40089.5
580.506	40140.7
580.704	39561.12
580.901	40144.8
581.099	40451.99
581.297	39909.28
581.495	39436.2
581.692	39710.63
581.89	39430.05
582.088	39538.6
582.285	39069.61
582.483	39632.8
582.681	39161.77
582.878	38827.95
583.076	39014.32
583.274	39110.57
583.471	38338.49
583.669	38786.99
583.866	38322.1
584.064	38735.79
584.262	38174.65
584.459	38098.87
584.657	37953.47
584.854	38492.08
585.052	37519.3
585.249	38356.92
585.447	37904.32
585.644	37797.82
585.841	37767.1
586.039	37738.43
586.236	37076.94
586.434	37265.35
586.631	37089.23
586.828	37269.45
587.026	36984.78
587.223	36726.74
587.42	36558.8
587.618	36659.15
587.815	36763.6
588.012	36714.45
588.21	36333.53
588.407	36397.01
588.604	36130.78
588.801	36071.39
588.999	35811.29
589.196	35907.55
589.393	35772.38
589.59	35698.66
589.787	35479.52
589.984	35555.3
590.182	34975.72
590.379	35661.79
590.576	35264.49
590.773	34957.29
590.97	34848.75
591.167	34813.93
591.364	34625.52
591.561	34990.06
591.758	34588.66
591.955	34449.39
592.152	34287.6
592.349	34263.03
592.546	34252.79
592.743	34420.72
592.94	33937.4
593.137	33865.72
593.334	34246.65
593.531	33476.61
593.727	33480.71
593.924	33335.3
594.121	33105.93
594.318	33871.87
594.515	33230.85
594.712	33730.56
594.908	32774.16
595.105	33253.38
595.302	32800.78
595.499	32901.13
595.696	32811.02
595.892	32776.2
596.089	32477.2
596.286	32618.51
596.482	32114.71
596.679	32479.25
596.876	32192.53
597.072	32360.47
597.269	31766.56
597.466	32100.37
597.662	31692.83
597.859	31567.9
598.055	31772.7
598.252	31864.86
598.448	31367.2
598.645	31516.7
598.841	30668.84
599.038	31553.57
599.234	30951.46
599.431	30908.46
599.627	30890.02
599.824	31113.25
600.02	30517.29
600.217	30980.14
600.413	30689.32
600.609	30332.98
600.806	29954.1
601.002	30445.62
601.198	30119.99
601.395	29919.29
601.591	29980.73
601.787	30165.04
601.984	29634.62
602.18	29861.94
602.376	29861.94
602.572	29560.89
602.769	29659.2
602.965	29196.35
603.161	29483.07
603.357	29190.21
603.553	29384.77
603.75	28969.03
603.946	29001.8
604.142	28995.65
604.338	28733.51
604.534	28860.49
604.73	28448.85
604.926	28291.15
605.122	28278.86
605.318	28401.74
605.514	28160.08
605.71	28182.61
605.906	27830.36
606.102	28020.82
606.298	28049.49
606.494	28002.39
606.69	27824.22
606.886	27621.47
607.082	27576.41
607.278	27947.09
607.474	27050.08
607.67	27293.79
607.866	26906.73
608.062	27390.05
608.257	26892.39
608.453	27177.06
608.649	27297.89
608.845	27166.82
609.041	27009.12
609.236	26939.49
609.432	26753.13
609.628	26925.16
609.824	26648.68
610.019	26566.76
610.215	26724.46
610.411	26689.64
610.606	26511.47
610.802	26706.02
610.998	26296.43
611.193	26232.94
611.389	26005.62
611.584	26421.36
611.78	25944.18
611.976	26148.98
612.171	25809.01
612.367	25886.84
612.562	25897.08
612.758	25532.54
612.953	25503.87
613.149	25868.41
613.344	25649.27
613.539	25858.17
613.735	26099.83
613.93	25557.11
614.126	25247.87
614.321	25796.73
614.517	25223.3
614.712	25659.51
614.907	24797.32
615.103	25634.94
615.298	25161.86
615.493	25452.67
615.688	24955.01
615.884	25415.8
616.079	24885.38
616.274	25149.57
616.47	24983.68
616.665	25041.03
616.86	24727.69
617.055	24684.68
617.25	24756.36
617.445	24574.09
617.641	24291.47
617.836	24637.58
618.031	24162.45
618.226	24508.55
618.421	24119.44
618.616	24342.67
618.811	23720.09
619.006	24193.17
619.201	23677.08
619.396	24113.3
619.591	23339.16
619.786	23603.35
619.981	23275.68
620.176	23582.87
620.371	23193.76
620.566	23169.18
620.761	23273.63
620.956	23054.5
621.151	22816.93
621.346	22939.81
621.541	22587.56
621.735	22673.57
621.93	22386.86
622.125	22374.57
622.32	22204.59
622.515	22315.18
622.709	21958.83
622.904	21977.26
623.099	21983.41
623.294	21676.21
623.488	21600.44
623.683	21749.94
623.878	21336.25
624.072	21205.18
624.267	21385.4
624.462	21051.58
624.656	20918.46
624.851	20756.68
625.046	20760.77
625.24	20504.78
625.435	20441.29
625.629	20322.51
625.824	20275.4
626.018	20394.18
626.213	19779.79
626.407	19943.63
626.602	19679.44
626.796	19847.38
626.991	19759.31
627.185	19839.19
627.38	19376.34
627.574	19556.57
627.768	19128.54
627.963	19130.59
628.157	18737.38
628.352	18981.09
628.546	18868.45
628.74	18909.41
628.935	18290.92
629.129	18657.51
629.323	18366.7
629.517	18286.82
629.712	18344.17
629.906	18342.12
630.1	17899.76
630.294	18260.2
630.489	17881.33
630.683	17770.74
630.877	17453.3
631.071	17748.21
631.265	17344.76
631.459	17369.33
631.653	17330.42
631.848	17031.42
632.042	17275.13
632.236	16984.32
632.43	16947.45
632.624	17094.91
632.818	16810.24
633.012	16865.53
633.206	16488.71
633.4	16601.35
633.594	16320.77
633.788	16357.64
633.982	16343.3
634.176	16083.21
634.369	16204.04
634.563	15902.99
634.757	15876.37
634.951	15937.8
635.145	15919.37
635.339	15769.87
635.533	15755.54
635.726	15558.93
635.92	15251.74
636.114	15456.53
636.308	15216.92
636.501	15051.03
636.695	15327.51
636.889	15044.89
637.083	15110.43
637.276	14836
637.47	14737.7
637.664	14477.6
637.857	14745.89
638.051	14631.2
638.244	14418.21
638.438	14364.96
638.632	14356.77
638.825	14240.04
639.019	14020.91
639.212	13981.99
639.406	14147.88
639.599	13693.23
639.793	13842.73
639.986	13820.21
640.18	13642.03
640.373	13642.03
640.567	13486.39
640.76	13551.92
640.954	13451.57
641.147	13173.05
641.34	13324.6
641.534	12953.91
641.727	13207.86
641.92	12984.63
642.114	12749.12
642.307	12665.15
642.5	12708.16
642.694	12570.94
642.887	12716.35
643.08	12663.1
643.273	12435.78
643.467	12566.85
643.66	12317
643.853	11987.27
644.046	12099.91
644.239	12171.59
644.432	12017.99
644.626	11886.92
644.819	11952.46
645.012	11872.59
645.205	11864.39
645.398	11684.17
645.591	11829.58
645.784	11823.44
645.977	11563.34
646.17	11585.87
646.363	11405.65
646.556	11231.57
646.749	11219.28
646.942	11528.53
647.135	11211.09
647.328	10979.67
647.521	10977.62
647.714	11047.26
647.907	11065.69
648.099	11024.73
648.292	10905.95
648.485	10754.4
648.678	10486.11
648.871	10930.52
649.064	10578.27
649.256	10746.2
649.449	10674.53
649.642	10453.34
649.835	10260.84
650.027	10168.68
650.22	10309.99
650.413	10266.98
650.605	9843.05
650.798	10000.74
650.991	10121.57
651.183	10051.94
651.376	9742.7
651.568	9886.06
651.761	9795.95
651.954	9890.15
652.146	9920.87
652.339	9761.13
652.531	9673.07
652.724	9544.05
652.916	9484.66
653.109	9507.18
653.301	9257.33
653.494	9447.79
653.686	9374.06
653.879	9359.73
654.071	9027.96
654.263	9245.04
654.456	9070.97
654.648	9134.45
654.84	8915.32
655.033	9040.25
655.225	9013.62
655.417	8855.93
655.61	8960.38
655.802	8718.71
655.994	8855.93
656.186	8837.5
656.379	8483.2
656.571	8608.12
656.763	8606.08
656.955	8601.98
657.148	8552.83
657.34	8452.48
657.532	8376.7
657.724	8507.77
657.916	8276.35
658.108	8286.59
658.3	8186.24
658.492	8323.46
658.684	8159.62
658.876	8165.76
659.068	7995.78
659.26	8116.61
659.452	8040.84
659.644	7907.72
659.836	7895.43
660.028	7848.33
660.22	7790.99
660.412	7899.53
660.604	7754.12
660.796	7743.88
660.988	7776.65
661.18	7625.1
661.372	7451.02
661.563	7670.15
661.755	7545.23
661.947	7426.45
662.139	7430.54
662.331	7422.35
662.522	7244.18
662.714	7399.82
662.906	7111.06
663.097	7446.93
663.289	7248.27
663.481	7197.07
663.673	7309.71
663.864	7072.15
664.056	7029.14
664.247	7018.9
664.439	6771.1
664.631	7029.14
664.822	6951.32
665.014	6988.18
665.205	6883.73
665.397	6838.68
665.588	6932.89
665.78	6597.02
665.971	6637.98
666.163	6812.06
666.354	6728.09
666.546	6498.72
666.737	6500.76
666.929	6412.7
667.12	6549.92
667.311	6531.48
667.503	6318.5
667.694	6445.47
667.885	6355.36
668.077	6402.46
668.268	6279.58
668.459	6400.41
668.651	6320.54
668.842	6515.1
669.033	6291.87
669.224	6164.9
669.416	6472.09
669.607	6130.08
669.798	6117.79
669.989	6308.26
670.18	6046.12
670.371	6035.88
670.563	6042.02
670.754	6136.23
670.945	5988.77
671.136	5829.03
671.327	6009.25
671.518	6021.54
671.709	6117.79
671.9	5833.13
672.091	5972.39
672.282	5949.86
672.473	5845.41
672.664	5976.48
672.855	5657
673.046	5781.93
673.237	5958.05
673.428	5749.16
673.619	5798.31
673.809	5732.78
674	5783.98
674.191	5740.97
674.382	5558.7
674.573	5695.91
674.764	5616.04
674.954	5607.85
675.145	5626.28
675.336	5704.1
675.527	5503.4
675.717	5595.56
675.908	5380.53
676.099	5624.23
676.289	5464.49
676.48	5480.88
676.671	5403.05
676.861	5478.83
677.052	5452.2
677.243	5591.47
677.433	5515.69
677.624	5521.84
677.814	5349.81
678.005	5458.35
678.195	5249.46
678.386	5403.05
678.576	5415.34
678.767	5411.25
678.957	5435.82
679.148	5337.52
679.338	5415.34
679.529	5226.93
679.719	5343.66
679.909	5484.97
680.1	5202.35
680.29	5343.66
680.481	5319.09
680.671	5278.13
680.861	5347.76
681.052	5165.49
681.242	5292.46
681.432	5470.64
681.622	5208.5
681.813	5198.26
682.003	5142.96
682.193	5056.95
682.383	5228.98
682.573	5257.65
682.764	5280.18
682.954	5079.47
683.144	5194.16
683.334	5058.99
683.524	5056.95
683.714	5128.63
683.904	5157.3
684.094	5271.98
684.284	5190.06
684.474	5120.43
684.664	5065.14
684.854	5050.8
685.044	4942.26
685.234	4968.88
685.424	5054.9
685.614	4964.79
685.804	5140.91
685.994	4895.16
686.184	4909.49
686.374	4856.25
686.564	4854.2
686.753	4817.33
686.943	4886.97
687.133	4940.21
687.323	4843.96
687.513	4833.72
687.702	4768.18
687.892	4798.9
688.082	4731.32
688.272	4911.54
688.461	4729.27
688.651	4829.62
688.841	4610.49
689.03	4501.95
689.22	4676.02
689.41	4610.49
689.599	4618.68
689.789	4635.07
689.979	4630.97
690.168	4465.08
690.358	4485.56
690.547	4598.2
690.737	4432.32
690.926	4389.31
691.116	4417.98
691.305	4544.95
691.495	4473.28
691.684	4616.63
691.874	4516.28
692.063	4321.73
692.252	4506.04
692.442	4436.41
692.631	4352.45
692.82	4358.59
693.01	4262.33
693.199	4346.3
693.388	4258.24
693.578	4374.97
693.767	4194.75
693.956	4272.57
694.146	4239.81
694.335	4291.01
694.524	4225.47
694.713	4174.27
694.902	4291.01
695.092	4153.79
695.281	4385.21
695.47	4198.85
695.659	4182.46
695.848	4161.98
696.037	4151.74
696.226	4090.31
696.415	4284.86
696.604	4276.67
696.793	4231.62
696.982	4123.07
697.171	4161.98
697.36	4143.55
697.549	4084.16
697.738	4049.35
697.927	3953.09
698.116	3942.85
698.305	4127.17
698.494	3912.13
698.683	4004.29
698.872	4092.35
699.061	3979.72
699.25	3912.13
699.438	3828.17
699.627	4006.34
699.816	4037.06
700.005	3996.1
700.193	3887.56
700.382	4123.07
700.571	3912.13
700.76	4071.87
700.948	3998.15
701.137	3981.76
701.326	3922.37
701.514	4000.19
701.703	4002.24
701.892	3928.52
702.08	3887.56
702.269	3963.33
702.457	3965.38
702.646	3885.51
702.834	3920.32
703.023	3942.85
703.212	3832.26
703.4	3965.38
703.589	3887.56
703.777	3801.54
703.965	3879.36
704.154	3877.32
704.342	3830.21
704.531	3781.06
704.719	3817.93
704.907	3832.26
705.096	3774.92
705.284	3867.08
705.472	3860.93
705.661	3912.13
705.849	3867.08
706.037	3838.41
706.226	4026.82
706.414	3901.89
706.602	3887.56
706.79	3666.38
706.979	3803.59
707.167	3832.26
707.355	3852.74
707.543	3707.34
707.731	3846.6
707.919	3758.53
708.107	3768.77
708.296	3822.02
708.484	3768.77
708.672	3752.39
708.86	3856.84
709.048	3826.12
709.236	3830.21
709.424	3731.91
709.612	3815.88
709.8	3731.91
709.988	3875.27
710.176	3822.02
710.364	3809.73
710.551	3842.5
710.739	3850.69
710.927	3865.03
711.115	3860.93
711.303	3693
711.491	3830.21
711.679	3779.01
711.866	3707.34
712.054	3819.97
712.242	3729.86
712.43	3680.71
712.617	3672.52
712.805	3801.54
712.993	3725.77
713.181	3881.41
713.368	3721.67
713.556	3758.53
713.744	3748.29
713.931	3649.99
714.119	3740.1
714.306	3748.29
714.494	3721.67
714.682	3799.49
714.869	3631.56
715.057	3885.51
715.244	3725.77
715.432	3776.97
715.619	3740.1
715.807	3828.17
715.994	3682.76
716.182	3705.29
716.369	3756.49
716.556	3705.29
716.744	3666.38
716.931	3592.65
717.119	3613.13
717.306	3619.27
717.493	3617.22
717.681	3688.9
717.868	3660.23
718.055	3701.19
718.242	3717.58
718.43	3731.91
718.617	3688.9
718.804	3674.57
718.991	3604.94
719.179	3686.86
719.366	3572.17
719.553	3783.11
719.74	3709.38
719.927	3588.55
720.114	3764.68
720.301	3680.71
720.488	3678.66
720.676	3633.61
720.863	3639.75
721.05	3658.18
721.237	3602.89
721.424	3723.72
721.611	3623.37
721.798	3666.38
721.985	3609.03
722.172	3703.24
722.358	3588.55
722.545	3668.42
722.732	3654.09
722.919	3662.28
723.106	3654.09
723.293	3688.9
723.48	3666.38
723.667	3490.25
723.853	3572.17
724.04	3596.75
724.227	3711.43
724.414	3649.99
724.6	3572.17
724.787	3574.22
724.974	3523.02
725.161	3506.63
725.347	3619.27
725.534	3510.73
725.72	3453.39
725.907	3514.83
726.094	3516.87
726.28	3531.21
726.467	3666.38
726.653	3596.75
726.84	3545.55
727.027	3680.71
727.213	3451.34
727.4	3467.72
727.586	3574.22
727.773	3504.59
727.959	3457.48
728.145	3512.78
728.332	3502.54
728.518	3424.72
728.705	3561.93
728.891	3443.15
729.077	3459.53
729.264	3606.98
729.45	3428.81
729.636	3637.7
729.823	3375.56
730.009	3477.96
730.195	3506.63
730.382	3514.83
730.568	3471.82
730.754	3434.96
730.94	3469.77
731.126	3453.39
731.313	3326.41
731.499	3334.61
731.685	3404.24
731.871	3471.82
732.057	3539.4
732.243	3492.3
732.429	3420.62
732.615	3379.66
732.801	3379.66
732.987	3338.7
733.173	3330.51
733.359	3402.19
733.545	3396.04
733.731	3408.33
733.917	3416.52
734.103	3410.38
734.289	3246.54
734.475	3262.93
734.661	3357.13
734.847	3350.99
735.033	3219.92
735.219	3224.01
735.404	3303.89
735.59	3338.7
735.776	3185.1
735.962	3324.37
736.148	3330.51
736.333	3248.59
736.519	3273.17
736.705	3221.97
736.89	3277.26
737.076	3187.15
737.262	3201.49
737.447	3285.45
737.633	3072.47
737.819	3213.77
738.004	3224.01
738.19	3365.32
738.375	3101.14
738.561	3269.07
738.747	3125.71
738.932	3086.8
739.118	3191.25
739.303	3015.12
739.489	3211.73
739.674	3156.43
739.859	3056.08
740.045	3056.08
740.23	3138
740.416	2992.59
740.601	3045.84
740.786	2943.44
740.972	3008.98
741.157	3013.07
741.342	3043.79
741.528	3088.85
741.713	3031.51
741.898	2978.26
742.084	2945.49
742.269	2929.11
742.454	3029.46
742.639	3002.83
742.824	2972.11
743.01	3023.31
743.195	2941.4
743.38	2986.45
743.565	2957.78
743.75	2865.62
743.935	2963.92
744.12	2892.24
744.305	2898.39
744.49	2849.24
744.675	2734.55
744.86	2697.69
745.045	2795.99
745.23	2650.58
745.415	2763.22
745.6	2785.75
745.785	2781.65
745.97	2746.84
746.155	2683.35
746.34	2734.55
746.525	2583
746.71	2765.27
746.895	2617.82
747.079	2564.57
747.264	2615.77
747.449	2652.63
747.634	2626.01
747.819	2568.66
748.003	2384.35
748.188	2519.51
748.373	2410.97
748.557	2492.89
748.742	2597.34
748.927	2535.9
749.111	2478.55
749.296	2372.06
749.481	2470.36
749.665	2353.63
749.85	2367.96
750.034	2413.02
750.219	2351.58
750.404	2329.05
750.588	2316.76
750.773	2216.41
750.957	2388.44
751.141	2378.2
751.326	2327
751.51	2161.12
751.695	2089.44
751.879	2134.5
752.064	2124.26
752.248	2173.41
752.432	2206.17
752.617	2181.6
752.801	2126.3
752.985	2116.06
753.17	2238.94
753.354	2109.92
753.538	2032.1
753.722	1978.85
753.907	1962.47
754.091	2019.81
754.275	1962.47
754.459	1884.64
754.643	1937.89
754.828	1905.12
755.012	1980.9
755.196	1933.79
755.38	1950.18
755.564	1987.04
755.748	1923.55
755.932	1798.63
756.116	1882.6
756.3	1817.06
756.484	1792.48
756.668	1765.86
756.852	1798.63
757.036	1757.67
757.22	1819.11
757.404	1751.53
757.588	1735.14
757.772	1735.14
757.956	1827.3
758.14	1837.54
758.323	1733.09
758.507	1589.74
758.691	1659.37
758.875	1698.28
759.059	1737.19
759.242	1681.89
759.426	1679.85
759.61	1706.47
759.794	1696.23
759.977	1704.42
760.161	1661.41
760.345	1618.41
760.528	1649.13
760.712	1573.35
760.895	1493.48
761.079	1632.74
761.263	1528.3
761.446	1479.15
761.63	1442.28
761.813	1479.15
761.997	1604.07
762.18	1489.39
762.364	1462.76
762.547	1466.86
762.731	1458.67
762.914	1485.29
763.098	1415.66
763.281	1481.19
763.464	1429.99
763.648	1462.76
763.831	1417.71
764.015	1511.91
764.198	1483.24
764.381	1348.08
764.564	1376.75
764.748	1350.12
764.931	1434.09
765.114	1405.42
765.297	1407.47
765.481	1335.79
765.664	1372.65
765.847	1294.83
766.03	1401.32
766.213	1249.77
766.397	1317.36
766.58	1186.29
766.763	1331.69
766.946	1251.82
767.129	1212.91
767.312	1323.5
767.495	1290.73
767.678	1241.58
767.861	1276.4
768.044	1364.46
768.227	1206.77
768.41	1188.33
768.593	1198.57
768.776	1284.59
768.959	1208.81
769.142	1329.64
769.324	1217.01
769.507	1202.67
769.69	1196.53
769.873	1159.66
770.056	1243.63
770.239	1214.96
770.421	1260.01
770.604	1235.44
770.787	1104.37
770.97	1198.57
771.152	1163.76
771.335	1102.32
771.518	1118.7
771.7	1221.1
771.883	1212.91
772.066	1126.89
772.248	1155.57
772.431	1155.57
772.613	1010.16
772.796	1090.03
772.978	993.78
773.161	1122.8
773.343	995.82
773.526	1020.4
773.708	995.82
773.891	1044.98
774.073	979.44
774.256	965.11
774.438	1012.21
774.621	995.82
774.803	1053.17
774.985	971.25
775.168	1034.74
775.35	1004.02
775.532	995.82
775.715	987.63
775.897	944.63
776.079	940.53
776.261	860.66
776.444	899.57
776.626	954.87
776.808	934.39
776.99	868.85
777.173	946.67
777.355	868.85
777.537	885.23
777.719	891.38
777.901	1010.16
778.083	836.08
778.265	838.13
778.447	963.06
778.629	782.84
778.811	924.15
778.993	786.93
779.175	899.57
779.357	854.51
779.539	819.7
779.721	868.85
779.903	881.14
780.085	752.12
780.267	805.36
780.449	807.41
780.631	768.5
780.812	821.75
780.994	829.94
781.176	729.59
781.358	768.5
781.54	805.36
781.721	774.64
781.903	799.22
782.085	754.16
782.267	711.16
782.448	639.48
782.63	651.77
782.812	649.72
782.993	684.53
783.175	760.31
783.357	643.57
783.538	770.55
783.72	614.9
783.901	686.58
784.083	672.25
784.264	578.04
784.446	635.38
784.627	584.18
784.809	555.51
784.99	573.94
785.172	635.38
785.353	602.61
785.535	561.66
785.716	606.71
785.897	553.46
786.079	569.85
786.26	526.84
786.441	625.14
786.623	575.99
786.804	592.37
786.985	569.85
787.167	635.38
787.348	545.27
787.529	508.41
787.71	567.8
787.891	569.85
788.073	526.84
788.254	459.26
788.435	614.9
788.616	545.27
788.797	504.31
788.978	528.89
789.159	492.02
789.34	553.46
789.522	453.11
789.703	524.79
789.884	573.94
790.065	492.02
790.246	524.79
790.427	389.63
790.607	504.31
790.788	545.27
790.969	459.26
791.15	506.36
791.331	446.97
791.512	414.2
791.693	420.35
791.874	481.78
792.054	504.31
792.235	430.59
792.416	426.49
792.597	440.83
792.778	500.22
792.958	420.35
793.139	379.39
793.32	481.78
793.5	422.39
793.681	451.07
793.862	410.11
794.042	471.54
794.223	424.44
794.404	344.57
794.584	412.15
794.765	418.3
794.945	426.49
795.126	348.67
795.306	403.96
795.487	309.76
795.667	428.54
795.848	354.81
796.028	350.71
796.209	451.07
796.389	373.24
796.57	373.24
796.75	481.78
796.93	387.58
797.111	365.05
797.291	389.63
797.471	385.53
797.652	371.19
797.832	307.71
798.012	457.21
798.192	334.33
798.373	375.29
798.553	373.24
798.733	354.81
798.913	291.32
799.093	289.28
799.274	379.39
799.454	332.28
799.634	381.43
799.814	356.86
799.994	285.18
800.174	371.19
800.354	385.53
800.534	285.18
800.714	274.94
800.894	303.61
801.074	233.98
801.254	328.19
801.434	363
801.614	268.8
801.794	313.85
801.974	856.56
802.154	215.55
802.334	274.94
802.514	250.36
802.693	195.07
802.873	350.71
803.053	328.19
803.233	274.94
803.413	305.66
803.592	305.66
803.772	289.28
803.952	311.8
804.131	268.8
804.311	274.94
804.491	336.38
804.67	250.36
804.85	184.83
805.03	330.23
805.209	369.15
805.389	238.08
805.568	264.7
805.748	248.32
805.928	217.6
806.107	268.8
806.287	172.54
806.466	281.08
806.646	264.7
806.825	281.08
807.004	279.04
807.184	311.8
807.363	287.23
807.543	281.08
807.722	211.45
807.901	281.08
808.081	320
808.26	213.5
808.439	272.89
808.619	209.4
808.798	272.89
808.977	240.12
809.156	307.71
809.336	242.17
809.515	317.95
809.694	209.4
809.873	283.13
810.052	291.32
810.231	240.12
810.411	219.64
810.59	236.03
810.769	223.74
810.948	184.83
811.127	123.39
811.306	240.12
811.485	164.35
811.664	289.28
811.843	256.51
812.022	205.31
812.201	274.94
812.38	227.84
812.559	199.16
812.737	190.97
812.916	121.34
813.095	160.25
813.274	143.87
813.453	211.45
813.632	174.59
813.811	297.47
813.989	193.02
814.168	211.45
814.347	168.45
814.526	188.93
814.704	315.9
814.883	274.94
815.062	207.36
815.24	176.64
815.419	78.33
815.598	199.16
815.776	162.3
815.955	229.88
816.133	168.45
816.312	180.73
816.49	248.32
816.669	182.78
816.847	264.7
817.026	143.87
817.204	178.69
817.383	127.49
817.561	115.2
817.74	217.6
817.918	162.3
818.097	160.25
818.275	129.53
818.453	258.56
818.632	240.12
818.81	182.78
818.988	135.68
819.167	246.27
819.345	104.96
819.523	170.49
819.701	135.68
819.879	213.5
820.058	133.63
820.236	143.87
820.414	143.87
820.592	162.3
820.77	168.45
820.948	137.73
821.127	158.21
821.305	158.21
821.483	131.58
821.661	231.93
821.839	209.4
822.017	125.44
822.195	131.58
822.373	182.78
822.551	223.74
822.729	238.08
822.907	139.77
823.085	145.92
823.262	131.58
823.44	195.07
823.618	74.24
823.796	90.62
823.974	119.29
824.152	143.87
824.329	86.53
824.507	109.05
824.685	123.39
824.863	92.67
825.04	221.69
825.218	178.69
825.396	188.93
825.574	156.16
825.751	109.05
825.929	203.26
826.107	61.95
826.284	145.92
826.462	135.68
826.639	205.31
826.817	84.48
826.994	119.29
827.172	88.57
827.349	121.34
827.527	102.91
827.704	127.49
827.882	182.78
828.059	197.12
828.237	12.8
828.414	141.82
828.591	113.15
828.769	147.97
828.946	143.87
829.124	158.21
829.301	111.1
829.478	199.16
829.655	125.44
829.833	119.29
830.01	135.68
830.187	117.25
830.364	137.73
830.542	90.62
830.719	117.25
830.896	188.93
831.073	102.91
831.25	131.58
831.427	94.72
831.604	49.66
831.782	74.24
831.959	174.59
832.136	150.01
832.313	107.01
832.49	141.82
832.667	190.97
832.844	100.86
833.021	100.86
833.198	176.64
833.374	94.72
833.551	64
833.728	94.72
833.905	123.39
834.082	92.67
834.259	53.76
834.436	164.35
834.612	180.73
834.789	100.86
834.966	109.05
835.143	168.45
835.319	57.86
835.496	141.82
835.673	57.86
835.85	186.88
836.026	109.05
836.203	158.21
836.38	64
836.556	53.76
836.733	82.43
836.909	86.53
837.086	119.29
837.262	131.58
837.439	174.59
837.616	119.29
837.792	152.06
837.968	64
838.145	59.9
838.321	80.38
838.498	94.72
838.674	20.99
838.851	53.76
839.027	102.91
839.203	86.53
839.38	66.05
839.556	41.47
839.732	76.29
839.909	37.38
840.085	86.53
840.261	47.62
840.437	127.49
840.614	49.66
840.79	166.4
840.966	76.29
841.142	102.91
841.318	100.86
841.494	111.1
841.671	125.44
841.847	115.2
842.023	109.05
842.199	90.62
842.375	86.53
842.551	27.14
842.727	29.18
842.903	195.07
843.079	-50.69
843.255	20.99
843.431	76.29
843.607	121.34
843.783	43.52
843.959	147.97
844.134	72.19
844.31	88.57
844.486	98.81
844.662	102.91
844.838	53.76
845.013	82.43
845.189	59.9
845.365	100.86
845.541	68.09
845.716	111.1
845.892	94.72
846.068	72.19
846.244	64
846.419	57.86
846.595	96.77
846.77	-5.63
846.946	37.38
847.122	49.66
847.297	72.19
847.473	61.95
847.648	-3.58
847.824	-15.87
847.999	35.33
848.175	51.71
848.35	76.29
848.526	27.14
848.701	78.33
848.876	107.01
849.052	98.81
849.227	68.09
849.403	8.7
849.578	68.09
849.753	70.14
849.929	70.14
850.104	92.67
850.279	80.38
850.454	139.77
850.63	37.38
850.805	70.14
850.98	76.29
851.155	27.14
851.33	43.52
851.505	4.61
851.681	147.97
851.856	6.66
852.031	115.2
852.206	45.57
852.381	25.09
852.556	66.05
852.731	55.81
852.906	41.47
853.081	39.42
853.256	29.18
853.431	61.95
853.606	88.57
853.781	29.18
853.956	16.9
854.131	37.38
854.305	35.33
854.48	41.47
854.655	53.76
854.83	27.14
855.005	33.28
855.18	43.52
855.354	4.61
855.529	41.47
855.704	-3.58
855.879	59.9
856.053	57.86
856.228	57.86
856.403	-5.63
856.577	119.29
856.752	16.9
856.926	90.62
857.101	59.9
857.276	53.76
857.45	61.95
857.625	74.24
857.799	25.09
857.974	61.95
858.148	70.14
858.323	76.29
858.497	43.52
858.672	107.01
858.846	12.8
859.02	164.35
859.195	4.61
859.369	43.52
859.543	39.42
859.718	33.28
859.892	-11.78
860.066	82.43
860.241	86.53
860.415	-22.02
860.589	61.95
860.763	14.85
860.938	129.53
861.112	43.52
861.286	0.51
861.46	-5.63
861.634	29.18
861.808	66.05
861.982	90.62
862.157	8.7
862.331	-26.11
862.505	18.94
862.679	12.8
862.853	18.94
863.027	37.38
863.201	74.24
863.375	4.61
863.549	82.43
863.722	0.51
863.896	39.42
864.07	2.56
864.244	100.86
864.418	57.86
864.592	35.33
864.766	-26.11
864.939	55.81
865.113	-44.54
865.287	94.72
865.461	-26.11
865.634	-36.35
865.808	-46.59
865.982	45.57
866.156	-34.3
866.329	86.53
866.503	14.85
866.676	35.33
866.85	41.47
867.024	4.61
867.197	45.57
867.371	47.62
867.544	23.04
867.718	0.51
867.891	90.62
868.065	-9.73
868.238	-5.63
868.412	51.71
868.585	31.23
868.759	4.61
868.932	37.38
869.105	74.24
869.279	35.33
869.452	4.61
869.625	25.09
869.799	12.8
869.972	-9.73
870.145	66.05
870.319	78.33
870.492	10.75
870.665	49.66
870.838	-22.02
871.011	51.71
871.185	16.9
871.358	-15.87
871.531	12.8
871.704	8.7
871.877	51.71
872.05	2.56
872.223	-30.21
872.396	43.52
872.569	39.42
872.742	37.38
872.915	49.66
873.088	18.94
873.261	25.09
873.434	-28.16
873.607	57.86
873.78	20.99
873.953	-22.02
874.126	35.33
874.299	53.76
874.471	51.71
874.644	29.18
874.817	16.9
874.99	51.71
875.163	8.7
875.335	55.81
875.508	8.7
875.681	82.43
875.853	-54.78
876.026	78.33
876.199	37.38
876.371	-28.16
876.544	18.94
876.717	10.75
876.889	18.94
877.062	8.7
877.234	-46.59
877.407	8.7
877.579	-15.87
877.752	74.24
877.924	16.9
878.097	14.85
878.269	55.81
878.442	41.47
878.614	88.57
878.786	37.38
878.959	20.99
879.131	68.09
879.303	20.99
879.476	-26.11
879.648	57.86
879.82	51.71
879.993	25.09
880.165	113.15
880.337	20.99
880.509	-22.02
880.681	-30.21
880.854	-44.54
881.026	-11.78
881.198	76.29
881.37	-26.11
881.542	141.82
881.714	-3.58
881.886	4.61
882.058	20.99
882.23	-11.78
882.402	84.48
882.574	-5.63
882.746	-7.68
882.918	35.33
883.09	-30.21
883.262	16.9
883.434	14.85
883.606	2.56
883.778	-58.88
883.95	129.53
884.122	43.52
884.293	96.77
884.465	57.86
884.637	82.43
884.809	-28.16
884.98	10.75
885.152	33.28
885.324	25.09
885.496	6.66
885.667	23.04
885.839	45.57
886.011	70.14
886.182	29.18
886.354	16.9
886.525	10.75
886.697	0.51
886.869	-46.59
887.04	-17.92
887.212	49.66
887.383	20.99
887.555	23.04
887.726	2.56
887.897	-67.07
888.069	68.09
888.24	12.8
888.412	0.51
888.583	12.8
888.754	-15.87
888.926	55.81
889.097	-28.16
889.268	8.7
889.44	23.04
889.611	-52.74
889.782	-65.02
889.953	53.76
890.125	80.38
890.296	-5.63
890.467	-5.63
890.638	-24.06
890.809	-15.87
890.98	-3.58
891.151	25.09
891.323	86.53
891.494	-9.73
891.665	-15.87
891.836	-9.73
892.007	90.62
892.178	8.7
892.349	49.66
892.52	14.85
892.691	-50.69
892.862	-28.16
893.032	-1.54
893.203	66.05
893.374	-36.35
893.545	55.81
893.716	18.94
893.887	31.23
894.057	57.86
894.228	68.09
894.399	-26.11
894.57	25.09
894.74	-28.16
894.911	-85.5
895.082	16.9
895.253	-62.98
895.423	6.66
895.594	33.28
895.764	-19.97
895.935	29.18
896.106	74.24
896.276	10.75
896.447	-17.92
896.617	-26.11
896.788	37.38
896.958	-7.68
897.129	68.09
897.299	59.9
897.47	53.76
897.64	-11.78
897.81	18.94
897.981	49.66
898.151	27.14
898.322	-36.35
898.492	94.72
898.662	-19.97
898.832	4.61
899.003	-58.88
899.173	61.95
899.343	61.95
899.513	-87.55
