Data from USB4F104151__223__10-30-12-871.txt Node

Date: Wed Mar 12 10:30:12 EDT 2025
User: louis
Spectrometer: USB4F10415
Trigger mode: 4
Integration Time (sec): 3.000000E-2
Scans to average: 1
Electric dark correction enabled: true
Nonlinearity correction enabled: false
Boxcar width: 0
XAxis mode: Wavelengths
Number of Pixels in Spectrum: 3648
>>>>>Begin Spectral Data<<<<<
178.204	-127.49
178.424	-127.49
178.644	-127.49
178.864	-109.05
179.084	-178.69
179.304	-6.66
179.524	-8.7
179.744	-31.23
179.964	28.16
180.184	52.74
180.404	-12.8
180.624	9.73
180.844	-37.38
181.064	15.87
181.283	9.73
181.503	-45.57
181.723	26.11
181.943	-39.42
182.163	26.11
182.383	11.78
182.602	3.58
182.822	81.41
183.042	-8.7
183.262	22.02
183.482	-37.38
183.701	-45.57
183.921	5.63
184.141	56.83
184.361	38.4
184.58	1.54
184.8	13.82
185.02	-45.57
185.239	52.74
185.459	-0.51
185.679	38.4
185.898	-55.81
186.118	1.54
186.338	-25.09
186.557	7.68
186.777	-6.66
186.997	-14.85
187.216	-14.85
187.436	24.06
187.655	26.11
187.875	60.93
188.095	-86.53
188.314	11.78
188.534	56.83
188.753	-6.66
188.973	56.83
189.192	-51.71
189.412	44.54
189.631	3.58
189.851	11.78
190.07	48.64
190.29	-12.8
190.509	36.35
190.729	3.58
190.948	36.35
191.168	73.21
191.387	69.12
191.607	58.88
191.826	-6.66
192.045	15.87
192.265	-2.56
192.484	56.83
192.704	32.26
192.923	-12.8
193.142	85.5
193.362	69.12
193.581	93.69
193.8	11.78
194.02	81.41
194.239	52.74
194.458	9.73
194.678	-37.38
194.897	-35.33
195.116	-4.61
195.335	24.06
195.555	15.87
195.774	36.35
195.993	69.12
196.212	34.3
196.432	-8.7
196.651	19.97
196.87	1.54
197.089	103.93
197.308	13.82
197.528	28.16
197.747	-76.29
197.966	-29.18
198.185	36.35
198.404	-20.99
198.623	9.73
198.842	28.16
199.062	62.98
199.281	-8.7
199.5	7.68
199.719	-8.7
199.938	-10.75
200.157	40.45
200.376	38.4
200.595	40.45
200.814	-2.56
201.033	-16.9
201.252	50.69
201.471	-20.99
201.69	75.26
201.909	36.35
202.128	5.63
202.347	-16.9
202.566	32.26
202.785	-23.04
203.004	5.63
203.223	73.21
203.442	-0.51
203.661	36.35
203.879	54.78
204.098	85.5
204.317	-33.28
204.536	69.12
204.755	24.06
204.974	44.54
205.193	-4.61
205.411	79.36
205.63	56.83
205.849	40.45
206.068	9.73
206.287	1.54
206.505	9.73
206.724	-18.94
206.943	-0.51
207.162	-4.61
207.381	-59.9
207.599	17.92
207.818	-23.04
208.037	28.16
208.255	42.5
208.474	52.74
208.693	19.97
208.911	-8.7
209.13	5.63
209.349	65.02
209.567	-0.51
209.786	65.02
210.005	-31.23
210.223	-27.14
210.442	28.16
210.661	60.93
210.879	17.92
211.098	-25.09
211.316	-0.51
211.535	22.02
211.753	-20.99
211.972	28.16
212.191	-45.57
212.409	44.54
212.628	-61.95
212.846	-92.67
213.065	36.35
213.283	40.45
213.502	-64
213.72	48.64
213.938	15.87
214.157	7.68
214.375	-20.99
214.594	-18.94
214.812	-27.14
215.031	-10.75
215.249	-74.24
215.467	62.98
215.686	-0.51
215.904	28.16
216.122	89.6
216.341	28.16
216.559	5.63
216.778	17.92
216.996	32.26
217.214	-0.51
217.432	50.69
217.651	65.02
217.869	-12.8
218.087	-4.61
218.306	-14.85
218.524	54.78
218.742	-10.75
218.96	-4.61
219.179	9.73
219.397	17.92
219.615	62.98
219.833	36.35
220.051	-18.94
220.27	101.89
220.488	-0.51
220.706	26.11
220.924	5.63
221.142	-0.51
221.36	44.54
221.578	28.16
221.796	52.74
222.015	7.68
222.233	17.92
222.451	24.06
222.669	-74.24
222.887	52.74
223.105	1.54
223.323	52.74
223.541	13.82
223.759	54.78
223.977	-33.28
224.195	44.54
224.413	-20.99
224.631	5.63
224.849	-18.94
225.067	5.63
225.285	-8.7
225.503	-86.53
225.721	-64
225.939	36.35
226.157	-35.33
226.375	62.98
226.592	7.68
226.81	-16.9
227.028	85.5
227.246	60.93
227.464	-4.61
227.682	-10.75
227.9	-16.9
228.117	9.73
228.335	17.92
228.553	-29.18
228.771	-27.14
228.989	-37.38
229.206	54.78
229.424	32.26
229.642	-20.99
229.86	-14.85
230.077	67.07
230.295	-4.61
230.513	52.74
230.731	19.97
230.948	24.06
231.166	1.54
231.384	-0.51
231.601	-16.9
231.819	67.07
232.037	-12.8
232.254	32.26
232.472	-25.09
232.689	1.54
232.907	48.64
233.125	9.73
233.342	-20.99
233.56	-25.09
233.777	38.4
233.995	32.26
234.213	-4.61
234.43	9.73
234.648	38.4
234.865	-31.23
235.083	-4.61
235.3	7.68
235.518	65.02
235.735	30.21
235.953	81.41
236.17	11.78
236.388	71.17
236.605	-8.7
236.822	46.59
237.04	54.78
237.257	32.26
237.475	19.97
237.692	26.11
237.909	-16.9
238.127	-70.14
238.344	7.68
238.562	52.74
238.779	-98.81
238.996	-59.9
239.214	-20.99
239.431	-37.38
239.648	-29.18
239.865	36.35
240.083	-33.28
240.3	1.54
240.517	-29.18
240.735	54.78
240.952	15.87
241.169	89.6
241.386	1.54
241.603	52.74
241.821	-16.9
242.038	11.78
242.255	-4.61
242.472	-33.28
242.689	38.4
242.907	-37.38
243.124	28.16
243.341	9.73
243.558	1.54
243.775	9.73
243.992	-61.95
244.209	17.92
244.426	126.46
244.643	79.36
244.86	1.54
245.078	32.26
245.295	-0.51
245.512	11.78
245.729	-20.99
245.946	-25.09
246.163	-6.66
246.38	-4.61
246.597	-27.14
246.814	-29.18
247.031	-16.9
247.248	32.26
247.464	22.02
247.681	24.06
247.898	15.87
248.115	52.74
248.332	-12.8
248.549	71.17
248.766	46.59
248.983	11.78
249.2	-29.18
249.417	44.54
249.633	-31.23
249.85	19.97
250.067	36.35
250.284	17.92
250.501	-2.56
250.717	46.59
250.934	62.98
251.151	-6.66
251.368	28.16
251.585	15.87
251.801	-10.75
252.018	40.45
252.235	52.74
252.451	-25.09
252.668	99.84
252.885	62.98
253.102	48.64
253.318	9.73
253.535	-6.66
253.752	30.21
253.968	-53.76
254.185	-27.14
254.401	9.73
254.618	32.26
254.835	9.73
255.051	38.4
255.268	15.87
255.484	-20.99
255.701	22.02
255.917	-14.85
256.134	-68.09
256.351	85.5
256.567	-0.51
256.784	44.54
257	-29.18
257.217	30.21
257.433	11.78
257.65	26.11
257.866	-0.51
258.082	-12.8
258.299	26.11
258.515	11.78
258.732	44.54
258.948	-4.61
259.165	-31.23
259.381	24.06
259.597	32.26
259.814	28.16
260.03	17.92
260.246	71.17
260.463	19.97
260.679	-8.7
260.895	-4.61
261.112	65.02
261.328	7.68
261.544	-70.14
261.761	77.31
261.977	-76.29
262.193	-39.42
262.409	26.11
262.626	-12.8
262.842	-27.14
263.058	65.02
263.274	60.93
263.49	3.58
263.707	3.58
263.923	-23.04
264.139	-8.7
264.355	28.16
264.571	34.3
264.787	81.41
265.004	32.26
265.22	-23.04
265.436	62.98
265.652	-64
265.868	5.63
266.084	-25.09
266.3	-37.38
266.516	-61.95
266.732	9.73
266.948	-86.53
267.164	-6.66
267.38	24.06
267.596	32.26
267.812	26.11
268.028	52.74
268.244	-4.61
268.46	28.16
268.676	-4.61
268.892	19.97
269.108	-39.42
269.324	7.68
269.54	1.54
269.756	-57.86
269.972	-18.94
270.188	-68.09
270.403	-35.33
270.619	32.26
270.835	-41.47
271.051	32.26
271.267	-4.61
271.483	-45.57
271.698	-29.18
271.914	65.02
272.13	26.11
272.346	-72.19
272.562	54.78
272.777	-18.94
272.993	58.88
273.209	-6.66
273.425	54.78
273.64	-8.7
273.856	19.97
274.072	50.69
274.287	11.78
274.503	56.83
274.719	81.41
274.934	-82.43
275.15	-37.38
275.366	-57.86
275.581	3.58
275.797	-0.51
276.012	24.06
276.228	32.26
276.444	-18.94
276.659	5.63
276.875	-16.9
277.09	-33.28
277.306	5.63
277.521	40.45
277.737	9.73
277.952	19.97
278.168	-0.51
278.383	30.21
278.599	13.82
278.814	48.64
279.03	-6.66
279.245	75.26
279.461	-27.14
279.676	85.5
279.892	-41.47
280.107	40.45
280.322	-31.23
280.538	-6.66
280.753	-66.05
280.969	28.16
281.184	-6.66
281.399	50.69
281.615	9.73
281.83	11.78
282.045	50.69
282.26	28.16
282.476	3.58
282.691	91.65
282.906	52.74
283.122	38.4
283.337	24.06
283.552	15.87
283.767	-53.76
283.983	60.93
284.198	-4.61
284.413	24.06
284.628	-49.66
284.843	-29.18
285.058	32.26
285.274	19.97
285.489	-20.99
285.704	-10.75
285.919	60.93
286.134	-6.66
286.349	-8.7
286.564	69.12
286.779	95.74
286.995	87.55
287.21	-29.18
287.425	-8.7
287.64	65.02
287.855	-35.33
288.07	-57.86
288.285	73.21
288.5	34.3
288.715	26.11
288.93	-16.9
289.145	9.73
289.36	24.06
289.575	7.68
289.79	-16.9
290.004	-27.14
290.219	85.5
290.434	34.3
290.649	71.17
290.864	-20.99
291.079	60.93
291.294	-2.56
291.509	-23.04
291.724	-39.42
291.938	44.54
292.153	44.54
292.368	65.02
292.583	52.74
292.798	3.58
293.012	46.59
293.227	85.5
293.442	-0.51
293.657	-49.66
293.871	-29.18
294.086	58.88
294.301	112.13
294.516	3.58
294.73	-0.51
294.945	-53.76
295.16	65.02
295.374	73.21
295.589	73.21
295.804	-49.66
296.018	52.74
296.233	15.87
296.447	24.06
296.662	-55.81
296.877	-14.85
297.091	22.02
297.306	-6.66
297.52	52.74
297.735	65.02
297.949	38.4
298.164	97.79
298.378	-59.9
298.593	73.21
298.807	-59.9
299.022	-6.66
299.236	32.26
299.451	-47.62
299.665	17.92
299.88	-23.04
300.094	-0.51
300.309	-37.38
300.523	62.98
300.737	1.54
300.952	28.16
301.166	7.68
301.381	-41.47
301.595	-10.75
301.809	52.74
302.024	34.3
302.238	-16.9
302.452	69.12
302.667	-12.8
302.881	22.02
303.095	42.5
303.309	9.73
303.524	7.68
303.738	9.73
303.952	1.54
304.166	65.02
304.381	-31.23
304.595	26.11
304.809	58.88
305.023	56.83
305.237	36.35
305.452	34.3
305.666	85.5
305.88	-39.42
306.094	32.26
306.308	32.26
306.522	9.73
306.736	40.45
306.95	44.54
307.164	-39.42
307.379	-55.81
307.593	112.13
307.807	15.87
308.021	-0.51
308.235	38.4
308.449	-8.7
308.663	42.5
308.877	91.65
309.091	26.11
309.305	69.12
309.519	-27.14
309.733	58.88
309.947	-4.61
310.161	-6.66
310.374	34.3
310.588	50.69
310.802	7.68
311.016	48.64
311.23	17.92
311.444	-4.61
311.658	-20.99
311.872	87.55
312.085	52.74
312.299	13.82
312.513	5.63
312.727	7.68
312.941	-45.57
313.154	13.82
313.368	44.54
313.582	5.63
313.796	-31.23
314.009	22.02
314.223	-2.56
314.437	77.31
314.651	5.63
314.864	52.74
315.078	24.06
315.292	-18.94
315.505	60.93
315.719	19.97
315.933	17.92
316.146	26.11
316.36	-23.04
316.573	15.87
316.787	67.07
317.001	26.11
317.214	52.74
317.428	-72.19
317.641	15.87
317.855	101.89
318.068	1.54
318.282	3.58
318.495	44.54
318.709	126.46
318.922	-33.28
319.136	114.17
319.349	-2.56
319.563	24.06
319.776	48.64
319.99	52.74
320.203	85.5
320.417	32.26
320.63	5.63
320.843	97.79
321.057	3.58
321.27	-45.57
321.483	52.74
321.697	83.45
321.91	-25.09
322.124	24.06
322.337	17.92
322.55	73.21
322.763	-37.38
322.977	5.63
323.19	44.54
323.403	-23.04
323.617	-4.61
323.83	56.83
324.043	-23.04
324.256	54.78
324.469	-51.71
324.683	79.36
324.896	-29.18
325.109	13.82
325.322	3.58
325.535	9.73
325.748	-16.9
325.962	40.45
326.175	81.41
326.388	24.06
326.601	17.92
326.814	24.06
327.027	-14.85
327.24	5.63
327.453	-45.57
327.666	50.69
327.879	81.41
328.092	15.87
328.305	28.16
328.518	5.63
328.731	-29.18
328.944	-86.53
329.157	15.87
329.37	60.93
329.583	93.69
329.796	36.35
330.009	-29.18
330.222	1.54
330.435	77.31
330.648	13.82
330.861	36.35
331.073	-31.23
331.286	71.17
331.499	-33.28
331.712	-47.62
331.925	40.45
332.138	-4.61
332.35	19.97
332.563	-53.76
332.776	-4.61
332.989	-78.33
333.202	7.68
333.414	93.69
333.627	52.74
333.84	-47.62
334.053	44.54
334.265	-27.14
334.478	-18.94
334.691	24.06
334.903	3.58
335.116	-29.18
335.329	-29.18
335.541	-2.56
335.754	85.5
335.966	1.54
336.179	-4.61
336.392	69.12
336.604	-23.04
336.817	77.31
337.029	67.07
337.242	5.63
337.454	-14.85
337.667	7.68
337.88	79.36
338.092	1.54
338.305	56.83
338.517	-4.61
338.729	5.63
338.942	79.36
339.154	3.58
339.367	9.73
339.579	11.78
339.792	89.6
340.004	71.17
340.217	-41.47
340.429	7.68
340.641	26.11
340.854	22.02
341.066	50.69
341.278	69.12
341.491	62.98
341.703	124.41
341.915	44.54
342.128	-16.9
342.34	9.73
342.552	26.11
342.764	-23.04
342.977	34.3
343.189	36.35
343.401	-18.94
343.613	-23.04
343.826	30.21
344.038	-12.8
344.25	36.35
344.462	-0.51
344.674	60.93
344.886	-37.38
345.099	-4.61
345.311	19.97
345.523	44.54
345.735	-55.81
345.947	56.83
346.159	32.26
346.371	65.02
346.583	19.97
346.795	17.92
347.007	19.97
347.219	44.54
347.431	40.45
347.643	58.88
347.855	60.93
348.067	75.26
348.279	11.78
348.491	42.5
348.703	19.97
348.915	48.64
349.127	-49.66
349.339	-4.61
349.551	3.58
349.763	-41.47
349.975	-0.51
350.187	65.02
350.399	19.97
350.61	17.92
350.822	11.78
351.034	54.78
351.246	60.93
351.458	-8.7
351.669	50.69
351.881	83.45
352.093	32.26
352.305	42.5
352.517	48.64
352.728	36.35
352.94	9.73
353.152	44.54
353.363	-27.14
353.575	-10.75
353.787	67.07
353.999	48.64
354.21	54.78
354.422	26.11
354.633	11.78
354.845	5.63
355.057	-12.8
355.268	-20.99
355.48	28.16
355.692	-8.7
355.903	-16.9
356.115	-29.18
356.326	11.78
356.538	-23.04
356.749	77.31
356.961	28.16
357.172	46.59
357.384	40.45
357.595	38.4
357.807	-4.61
358.018	7.68
358.23	34.3
358.441	60.93
358.653	108.03
358.864	7.68
359.075	-27.14
359.287	81.41
359.498	69.12
359.709	60.93
359.921	-10.75
360.132	-16.9
360.344	73.21
360.555	62.98
360.766	71.17
360.977	17.92
361.189	81.41
361.4	-53.76
361.611	-6.66
361.823	44.54
362.034	-12.8
362.245	97.79
362.456	34.3
362.667	36.35
362.879	-10.75
363.09	19.97
363.301	22.02
363.512	67.07
363.723	40.45
363.935	-4.61
364.146	83.45
364.357	97.79
364.568	38.4
364.779	3.58
364.99	130.56
365.201	-16.9
365.412	69.12
365.623	13.82
365.834	19.97
366.045	62.98
366.256	103.93
366.467	-23.04
366.678	15.87
366.889	56.83
367.1	42.5
367.311	79.36
367.522	9.73
367.733	36.35
367.944	105.98
368.155	-47.62
368.366	97.79
368.577	54.78
368.788	24.06
368.999	7.68
369.209	44.54
369.42	67.07
369.631	91.65
369.842	24.06
370.053	26.11
370.264	-4.61
370.474	3.58
370.685	85.5
370.896	24.06
371.107	-12.8
371.317	-20.99
371.528	-31.23
371.739	67.07
371.95	19.97
372.16	103.93
372.371	114.17
372.582	-12.8
372.792	97.79
373.003	38.4
373.214	62.98
373.424	5.63
373.635	9.73
373.846	62.98
374.056	17.92
374.267	26.11
374.477	44.54
374.688	-0.51
374.898	-8.7
375.109	93.69
375.319	36.35
375.53	108.03
375.74	77.31
375.951	15.87
376.161	17.92
376.372	105.98
376.582	5.63
376.793	38.4
377.003	-18.94
377.214	26.11
377.424	60.93
377.635	7.68
377.845	42.5
378.055	11.78
378.266	-39.42
378.476	83.45
378.686	-8.7
378.897	73.21
379.107	34.3
379.317	50.69
379.528	-23.04
379.738	91.65
379.948	13.82
380.158	69.12
380.369	67.07
380.579	151.04
380.789	19.97
380.999	153.09
381.21	17.92
381.42	97.79
381.63	11.78
381.84	50.69
382.05	-25.09
382.261	65.02
382.471	73.21
382.681	-23.04
382.891	69.12
383.101	118.27
383.311	108.03
383.521	40.45
383.731	77.31
383.941	122.37
384.151	26.11
384.361	-20.99
384.571	60.93
384.781	22.02
384.991	67.07
385.201	122.37
385.411	38.4
385.621	48.64
385.831	69.12
386.041	54.78
386.251	-14.85
386.461	79.36
386.671	79.36
386.881	44.54
387.091	79.36
387.301	97.79
387.511	77.31
387.72	34.3
387.93	136.7
388.14	71.17
388.35	52.74
388.56	110.08
388.769	-0.51
388.979	50.69
389.189	65.02
389.399	36.35
389.609	-0.51
389.818	32.26
390.028	13.82
390.238	77.31
390.447	24.06
390.657	54.78
390.867	11.78
391.076	9.73
391.286	40.45
391.496	28.16
391.705	60.93
391.915	62.98
392.125	91.65
392.334	77.31
392.544	-2.56
392.753	101.89
392.963	85.5
393.172	65.02
393.382	17.92
393.591	34.3
393.801	-29.18
394.01	69.12
394.22	30.21
394.429	26.11
394.639	77.31
394.848	114.17
395.058	56.83
395.267	81.41
395.477	32.26
395.686	89.6
395.895	151.04
396.105	128.51
396.314	95.74
396.524	81.41
396.733	126.46
396.942	69.12
397.152	134.65
397.361	120.32
397.57	110.08
397.78	83.45
397.989	105.98
398.198	89.6
398.407	99.84
398.617	65.02
398.826	48.64
399.035	67.07
399.244	77.31
399.453	85.5
399.663	52.74
399.872	89.6
400.081	28.16
400.29	181.76
400.499	185.85
400.708	85.5
400.917	126.46
401.127	101.89
401.336	132.61
401.545	183.81
401.754	142.85
401.963	175.61
402.172	128.51
402.381	75.26
402.59	136.7
402.799	110.08
403.008	142.85
403.217	122.37
403.426	118.27
403.635	11.78
403.844	93.69
404.053	212.48
404.262	120.32
404.471	200.19
404.68	171.52
404.888	124.41
405.097	108.03
405.306	138.75
405.515	105.98
405.724	93.69
405.933	126.46
406.142	208.38
406.35	97.79
406.559	105.98
406.768	140.8
406.977	189.95
407.185	212.48
407.394	222.72
407.603	210.43
407.812	206.33
408.02	136.7
408.229	280.06
408.438	241.15
408.646	192
408.855	257.53
409.064	265.72
409.272	204.28
409.481	247.29
409.69	321.02
409.898	331.26
410.107	230.91
410.315	341.5
410.524	298.49
410.733	349.69
410.941	306.68
411.15	357.88
411.358	388.6
411.567	370.17
411.775	445.95
411.984	398.84
412.192	458.23
412.401	464.38
412.609	474.62
412.818	509.43
413.026	523.77
413.234	679.41
413.443	595.45
413.651	603.64
413.86	622.07
414.068	658.93
414.276	660.98
414.485	712.18
414.693	726.52
414.901	775.67
415.11	824.82
415.318	736.76
415.526	835.06
415.734	902.64
415.943	902.64
416.151	941.55
416.359	980.47
416.567	992.75
416.776	998.9
416.984	1117.68
417.192	1074.67
417.4	1068.53
417.608	1113.58
417.817	1146.35
418.025	1304.04
418.233	1326.57
418.441	1347.05
418.649	1338.86
418.857	1451.5
419.065	1424.87
419.273	1451.5
419.481	1510.89
419.689	1525.22
419.897	1715.69
420.105	1650.15
420.313	1691.11
420.521	1787.36
420.729	1846.76
420.937	1848.8
421.145	1924.58
421.353	2098.66
421.561	2127.33
421.769	2186.72
421.977	2285.02
422.185	2186.72
422.393	2534.87
422.601	2627.03
422.809	2440.67
423.017	2657.75
423.224	2717.14
423.432	2715.09
423.64	2846.16
423.848	3063.25
424.056	3040.72
424.263	3255.76
424.471	3210.7
424.679	3298.77
424.887	3538.38
425.094	3589.58
425.302	3653.06
425.51	3755.46
425.718	3765.7
425.925	3933.64
426.133	4015.55
426.341	4287.93
426.548	4337.09
426.756	4476.35
426.964	4541.88
427.171	4859.32
427.379	4748.73
427.586	4986.29
427.794	5137.84
428.001	5313.97
428.209	5578.15
428.417	5520.81
428.624	5868.97
428.832	5856.68
429.039	5977.51
429.247	5799.34
429.454	6393.25
429.662	6755.74
429.869	6426.01
430.076	6817.18
430.284	6591.9
430.491	6983.06
430.699	7275.92
430.906	7302.54
431.114	7435.66
431.321	7705.99
431.528	7732.62
431.736	8340.86
431.943	8729.98
432.15	8412.54
432.358	8719.74
432.565	9024.89
432.772	9008.5
432.979	9493.87
433.187	9856.36
433.394	9833.83
433.601	10241.38
433.808	10429.79
434.016	10425.7
434.223	10796.38
434.43	11386.19
434.637	10964.31
434.844	11957.58
435.052	12033.35
435.259	12045.64
435.466	12158.28
435.673	12133.7
435.88	12897.6
436.087	13444.4
436.294	13489.46
436.501	13075.77
436.708	13434.16
436.915	14089.51
437.122	14214.44
437.329	14378.28
437.537	14877.98
437.743	15144.22
437.95	15265.05
438.157	15772.94
438.364	16114.95
438.571	16452.87
438.778	16432.39
438.985	17732.85
439.192	17188.09
439.399	17687.79
439.606	17196.28
439.813	18509.03
440.02	19651.8
440.227	19180.76
440.433	18844.9
440.64	19524.82
440.847	19064.03
441.054	20147.4
441.261	21124.29
441.467	20614.34
441.674	21105.85
441.881	22160.56
442.088	21879.99
442.294	21802.16
442.501	22310.06
442.708	22817.96
442.914	23434.39
443.121	24644.74
443.328	23878.8
443.534	25662.58
443.741	25169.02
443.948	24482.95
444.154	26315.89
444.361	26279.02
444.568	26549.35
444.774	26301.55
444.981	26528.88
445.187	27227.23
445.394	28755.02
445.6	28318.8
445.807	30835.75
446.013	29443.13
446.22	30096.44
446.426	31159.33
446.633	31538.21
446.839	32705.55
447.046	31335.46
447.252	32853
447.459	32998.41
447.665	32998.41
447.871	34374.64
448.078	35410.92
448.284	33577.98
448.491	34851.82
448.697	35929.05
448.903	36791.25
449.11	36922.32
449.316	36217.82
449.522	36867.02
449.728	37723.07
449.935	38235.06
450.141	38052.8
450.347	38937.52
450.553	37368.77
450.76	38108.09
450.966	39234.47
451.172	38740.91
451.378	39736.23
451.584	39009.2
451.791	40047.52
451.997	39728.03
452.203	40244.12
452.409	40049.56
452.615	39617.44
452.821	38624.18
453.027	38331.32
453.233	39984.03
453.44	38192.06
453.646	38796.21
453.852	39302.06
454.058	39824.29
454.264	37821.37
454.47	38964.14
454.676	37999.55
454.882	39623.59
455.088	36025.31
455.294	36346.84
455.5	36776.91
455.705	37663.68
455.911	36187.1
456.117	35261.41
456.323	34937.83
456.529	32879.63
456.735	34368.5
456.941	33375.23
457.147	32482.32
457.352	32046.1
457.558	31341.6
457.764	31372.32
457.97	30923.82
458.176	30207.03
458.381	30354.48
458.587	28724.3
458.793	28777.54
458.999	27327.58
459.204	29512.77
459.41	28740.68
459.616	26532.97
459.821	26522.73
460.027	26741.86
460.233	26033.27
460.438	24708.23
460.644	25076.87
460.85	23483.55
461.055	23483.55
461.261	23436.44
461.466	21755.06
461.672	20911.3
461.878	22760.61
462.083	21048.51
462.289	20774.08
462.494	20409.54
462.7	19619.03
462.905	19021.02
463.111	19711.19
463.316	19709.14
463.522	19498.2
463.727	19342.55
463.932	19211.48
464.138	19035.36
464.343	19303.64
464.549	18715.87
464.754	19483.86
464.959	19086.56
465.165	18828.51
465.37	17923.31
465.575	17693.94
465.781	18611.43
465.986	18453.73
466.191	17925.36
466.397	17294.58
466.602	16463.11
466.807	17495.29
467.012	17206.52
467.218	17280.25
467.423	17116.41
467.628	17106.17
467.833	17833.2
468.038	16991.48
468.244	16768.26
468.449	17276.15
468.654	16555.27
468.859	16647.43
469.064	16528.64
469.269	16047.37
469.474	15811.85
469.679	16530.69
469.885	16067.85
470.09	16176.39
470.295	16211.21
470.5	15502.61
470.705	15467.8
470.91	15154.46
471.115	15004.96
471.32	15322.39
471.525	15115.55
471.73	14886.17
471.935	15009.05
472.139	14159.14
472.344	14398.76
472.549	14681.38
472.754	14306.6
472.959	13874.48
473.164	13657.39
473.369	13423.92
473.574	14007.59
473.778	13778.22
473.983	13624.62
474.188	13886.76
474.393	13184.31
474.598	13073.72
474.802	13155.64
475.007	13034.81
475.212	13108.54
475.417	12469.57
475.621	12328.26
475.826	12414.27
476.031	12244.29
476.235	12016.97
476.44	12094.79
476.645	12107.08
476.849	11933
477.054	11824.46
477.259	11656.53
477.463	11730.25
477.668	11380.05
477.872	11484.5
478.077	11568.46
478.282	11136.34
478.486	10919.26
478.691	10925.4
478.895	10919.26
479.1	10810.72
479.304	10868.06
479.509	10407.27
479.713	10857.82
479.918	10480.99
480.122	10534.24
480.326	10519.9
480.531	10769.76
480.735	10317.15
480.94	10333.54
481.144	10718.56
481.348	10290.53
481.553	10241.38
481.757	10159.46
481.961	10280.29
482.166	10173.8
482.37	10390.88
482.574	10120.55
482.778	9909.61
482.983	9915.75
483.187	10022.25
483.391	10222.95
483.595	10069.35
483.8	9940.33
484.004	10247.52
484.208	10401.12
484.412	9893.23
484.616	10136.93
484.821	10095.97
485.025	9788.78
485.229	10005.86
485.433	10044.77
485.637	10030.44
485.841	9858.41
486.045	9930.09
486.249	10009.96
486.453	9901.42
486.657	10038.63
486.861	10065.25
487.065	9887.08
487.269	9952.62
487.473	9805.16
487.677	10278.24
487.881	10227.04
488.085	9917.8
488.289	10294.63
488.493	10012.01
488.697	10145.13
488.901	10167.65
489.105	10085.73
489.309	10141.03
489.512	10239.33
489.716	10243.43
489.92	10220.9
490.124	10212.71
490.328	10313.06
490.531	10333.54
490.735	10196.32
490.939	10263.91
491.143	10227.04
491.346	10435.94
491.55	10675.55
491.754	10431.84
491.958	10683.74
492.161	10519.9
492.365	10904.92
492.569	10726.75
492.772	10542.43
492.976	10736.99
493.18	10763.61
493.383	11167.06
493.587	10876.25
493.79	11038.04
493.994	10894.68
494.197	11038.04
494.401	11146.58
494.605	11244.88
494.808	11285.84
495.012	11609.42
495.215	11740.49
495.419	11810.12
495.622	11709.77
495.825	11742.54
496.029	11656.53
496.232	11961.67
496.436	12002.63
496.639	12207.43
496.843	11984.2
497.046	12506.43
497.249	12516.67
497.453	12651.84
497.656	12723.52
497.859	12995.9
498.063	12694.85
498.266	13348.15
498.469	13391.16
498.673	13440.31
498.876	13638.96
499.079	13593.9
499.282	13391.16
499.485	14095.66
499.689	13864.24
499.892	14314.79
500.095	14462.24
500.298	14646.56
500.501	14519.59
500.705	14998.81
500.908	15045.91
501.111	15265.05
501.314	15422.74
501.517	15594.77
501.72	15770.9
501.923	15760.66
502.126	16012.56
502.329	16219.4
502.532	16409.86
502.735	16542.98
502.938	17091.84
503.141	16887.04
503.344	16989.44
503.547	17360.12
503.75	17329.4
503.953	17505.52
504.156	18105.58
504.359	17857.78
504.562	18124.01
504.765	18500.84
504.968	18760.93
505.17	18928.86
505.373	18808.03
505.576	19459.29
505.779	19625.17
505.982	19561.69
506.185	20301
506.387	20268.23
506.59	20036.81
506.793	20778.18
506.996	20874.43
507.198	21275.84
507.401	20821.19
507.604	21413.05
507.807	21867.7
508.009	22095.02
508.212	22127.79
508.415	22617.25
508.617	22576.3
508.82	22447.27
509.022	22670.5
509.225	23100.58
509.428	23551.13
509.63	23565.46
509.833	23538.84
510.035	24089.74
510.238	24614.02
510.44	24908.93
510.643	25136.26
510.845	25214.08
511.048	24689.8
511.25	25580.67
511.453	25814.13
511.655	26541.16
511.858	26209.39
512.06	26301.55
512.262	26776.68
512.465	26731.62
512.667	27147.36
512.87	27602.01
513.072	27884.63
513.274	28265.55
513.477	28474.45
513.679	28722.25
513.881	28855.37
514.084	28845.13
514.286	29527.1
514.488	29205.57
514.69	30344.24
514.893	30276.66
515.095	30403.63
515.297	30860.33
515.499	30772.27
515.701	31607.84
515.904	31661.08
516.106	31837.21
516.308	32238.61
516.51	32586.77
516.712	32535.57
516.914	33203.21
517.116	33594.37
517.318	33655.81
517.52	33727.49
517.722	33885.18
517.925	34468.85
518.127	34751.47
518.329	35105.77
518.531	35218.41
518.733	35857.37
518.935	35955.68
519.136	36316.12
519.338	36690.9
519.54	36563.92
519.742	37379.01
519.944	36838.35
520.146	37958.59
520.348	38190.01
520.55	38329.27
520.752	38601.65
520.954	38853.55
521.155	38970.29
521.357	39672.74
521.559	39588.77
521.761	40063.9
521.963	40614.8
522.164	40508.31
522.366	40342.42
522.568	41098.12
522.77	41481.1
522.971	41755.52
523.173	41524.1
523.375	42300.28
523.576	42173.31
523.778	41866.11
523.98	42951.54
524.181	43137.9
524.383	43385.71
524.584	43334.51
524.786	43967.33
524.988	43531.11
525.189	44270.43
525.391	44792.66
525.592	44577.62
525.794	44929.87
525.995	44796.76
526.197	45054.8
526.398	45026.13
526.6	46003.01
526.801	46117.7
527.003	46187.33
527.204	45980.48
527.406	46424.89
527.607	46709.56
527.808	46701.37
528.01	46398.27
528.211	46881.59
528.412	47704.87
528.614	47217.46
528.815	47602.47
529.016	47676.2
529.218	47422.25
529.419	47924
529.62	48237.34
529.822	47655.72
530.023	48292.64
530.224	48122.66
530.425	48530.2
530.626	48079.65
530.828	48263.97
531.029	49025.81
531.23	48239.39
531.431	48735
531.632	48876.31
531.833	49281.81
532.035	48964.37
532.236	48976.66
532.437	49210.13
532.638	48657.18
532.839	49206.03
533.04	49441.55
533.241	48706.33
533.442	50084.61
533.643	49480.46
533.844	49701.64
534.045	49386.25
534.246	48960.28
534.447	49660.68
534.648	49758.98
534.849	49707.79
535.05	49353.49
535.251	49740.55
535.451	49095.44
535.652	50176.77
535.853	49558.28
536.054	49810.18
536.255	50242.31
536.456	49263.38
536.657	50281.22
536.857	49828.62
537.058	49699.59
537.259	50438.91
537.46	49771.27
537.66	50238.21
537.861	50053.89
538.062	49820.42
538.263	49967.88
538.463	49550.09
538.664	49562.38
538.865	50354.94
539.065	50459.39
539.266	49873.67
539.466	50338.56
539.667	49781.51
539.868	50643.71
540.068	50342.66
540.269	49918.73
540.469	50328.32
540.67	49912.58
540.87	50062.08
541.071	49922.82
541.271	50139.91
541.472	50006.79
541.672	49695.5
541.873	49593.1
542.073	49341.2
542.274	50211.59
542.474	49492.75
542.675	49466.13
542.875	50391.81
543.075	50078.47
543.276	49347.34
543.476	49793.8
543.676	49677.07
543.877	50168.58
544.077	49906.44
544.277	49896.2
544.478	49509.13
544.678	49814.28
544.878	49906.44
545.078	49468.17
545.279	49373.97
545.479	49478.41
545.679	49625.87
545.879	49576.72
546.079	49679.11
546.28	50076.42
546.48	49550.09
546.68	49928.97
546.88	49242.9
547.08	49527.56
547.28	49789.7
547.48	49390.35
547.68	49576.72
547.88	49203.99
548.081	49636.11
548.281	49423.12
548.481	49543.95
548.681	49888.01
548.881	49783.56
549.081	49459.98
549.28	49238.8
549.48	49693.45
549.68	49437.45
549.88	50074.37
550.08	49214.23
550.28	49623.82
550.48	49287.95
550.68	49992.45
550.88	49554.19
551.08	49165.07
551.279	49582.86
551.479	49064.72
551.679	49015.57
551.879	48907.03
552.079	49703.69
552.278	48984.85
552.478	49396.49
552.678	49345.3
552.878	49054.48
553.077	49070.87
553.277	48673.56
553.477	49533.71
553.676	48870.17
553.876	49115.92
554.076	49113.87
554.275	48968.47
554.475	48417.57
554.674	49214.23
554.874	48917.27
555.074	48792.34
555.273	48861.97
555.473	49152.79
555.672	48309.02
555.872	48354.08
556.071	48640.79
556.271	48902.93
556.47	48251.68
556.67	48046.88
556.869	48300.83
557.068	48317.21
557.268	47985.44
557.467	48759.58
557.667	48489.24
557.866	48601.88
558.065	48239.39
558.265	48001.83
558.464	47817.51
558.663	48605.98
558.863	47393.58
559.062	48212.77
559.261	47096.63
559.461	48083.75
559.66	47209.26
559.859	47436.59
560.058	47258.41
560.258	47704.87
560.457	47166.26
560.656	47727.4
560.855	47256.37
561.054	47330.09
561.253	46588.73
561.453	47055.67
561.652	46900.02
561.851	46971.7
562.05	46519.1
562.249	46289.73
562.448	46977.84
562.647	46777.14
562.846	46674.74
563.045	46027.59
563.244	45681.48
563.443	46848.82
563.642	45685.57
563.841	45886.28
564.04	45749.06
564.239	46072.64
564.438	45663.05
564.637	45740.87
564.836	45624.14
565.035	44850
565.234	45413.2
565.432	44907.35
565.631	44862.29
565.83	45253.45
566.029	45048.66
566.228	44784.47
566.427	44565.34
566.625	44129.12
566.824	44141.41
567.023	44893.01
567.222	43875.17
567.42	44804.95
567.619	44217.18
567.818	43846.5
568.016	43952.99
568.215	44235.61
568.414	43721.57
568.612	44059.49
568.811	43463.53
569.01	43553.64
569.208	42791.8
569.407	43387.75
569.605	42623.86
569.804	43176.81
570.002	42797.94
570.201	43062.13
570.4	42763.12
570.598	42343.29
570.797	42335.1
570.995	42693.49
571.193	41935.74
571.392	42343.29
571.59	41855.87
571.789	41931.65
571.987	42079.1
572.186	41626.5
572.384	41628.55
572.582	41644.93
572.781	41692.04
572.979	40860.56
573.177	40850.32
573.376	41042.83
573.574	40954.77
573.772	40919.95
573.971	40637.33
574.169	40520.6
574.367	40323.99
574.565	40643.48
574.763	40756.11
574.962	40018.85
575.16	39945.12
575.358	39838.62
575.556	39574.44
575.754	39936.93
575.952	39451.56
576.151	39777.19
576.349	39089.07
576.547	39146.41
576.745	39541.67
576.943	39429.03
577.141	39105.45
577.339	39095.21
577.537	39064.49
577.735	38740.91
577.933	38699.95
578.131	38835.12
578.329	38355.89
578.527	38153.15
578.725	38103.99
578.923	38914.99
579.121	37962.68
579.319	37958.59
579.516	38079.42
579.714	37753.79
579.912	37540.8
580.11	37815.23
580.308	37252.04
580.506	37528.52
580.704	36910.03
580.901	37379.01
581.099	37465.03
581.297	37184.46
581.495	36637.65
581.692	37004.24
581.89	36735.95
582.088	36910.03
582.285	36615.12
582.483	36840.4
582.681	36230.1
582.878	36125.66
583.076	35951.58
583.274	36314.07
583.471	35808.22
583.669	35931.1
583.866	35746.78
584.064	35730.4
584.262	35468.26
584.459	35865.56
584.657	35181.54
584.854	35562.47
585.052	34878.44
585.249	35183.59
585.447	35046.38
585.644	34817
585.841	35263.46
586.039	35187.69
586.236	34866.16
586.434	34214.9
586.631	34384.88
586.828	34313.2
587.026	34276.34
587.223	34018.3
587.42	33803.26
587.618	34102.26
587.815	33745.92
588.012	33489.92
588.21	33248.26
588.407	33842.17
588.604	33453.06
588.801	33285.12
588.999	33520.64
589.196	33133.57
589.393	33479.68
589.59	33059.85
589.787	32953.35
589.984	33037.32
590.182	32508.94
590.379	32660.49
590.576	32549.9
590.773	32474.13
590.97	32470.03
591.167	32619.53
591.364	31763.48
591.561	32300.05
591.758	31915.03
591.955	31693.85
592.152	31800.35
592.349	31620.13
592.546	31671.32
592.743	31628.32
592.94	31136.8
593.137	31306.79
593.334	31665.18
593.531	30946.34
593.727	31134.76
593.924	31169.57
594.121	30807.08
594.318	31093.8
594.515	30481.45
594.712	30989.35
594.908	30323.76
595.105	30413.87
595.302	30290.99
595.499	30757.93
595.696	30409.78
595.892	30071.86
596.089	30004.28
596.286	29979.7
596.482	29779
596.679	29699.13
596.876	29789.24
597.072	29682.75
597.269	29455.42
597.466	29312.06
597.662	29221.95
597.859	29049.92
598.055	29295.68
598.252	29217.86
598.448	29250.63
598.645	28998.73
598.841	28626
599.038	28869.7
599.234	28841.03
599.431	28576.84
599.627	28435.53
599.824	28486.73
600.02	28177.49
600.217	28423.25
600.413	27927.64
600.609	28154.96
600.806	28052.56
601.002	28212.31
601.198	27696.22
601.395	27855.96
601.591	27450.46
601.787	27640.92
601.984	27317.34
602.18	27853.91
602.376	27546.72
602.572	27386.97
602.769	27077.73
602.965	26844.26
603.161	27178.08
603.357	27090.02
603.553	26870.89
603.75	26922.09
603.946	26547.31
604.142	26887.27
604.338	26342.51
604.534	26561.64
604.73	26309.74
604.926	26406
605.122	26600.55
605.318	26166.38
605.514	26301.55
605.71	25871.48
605.906	25949.3
606.102	25941.11
606.298	25797.75
606.494	25857.14
606.69	25668.73
606.886	25865.33
607.082	25240.7
607.278	25781.37
607.474	25287.81
607.67	25644.15
607.866	24605.83
608.062	25560.19
608.257	25042.05
608.453	25306.24
608.649	25154.69
608.845	24700.04
609.041	24925.32
609.236	24898.69
609.432	24501.39
609.628	24657.03
609.824	24575.11
610.019	24554.63
610.215	24470.67
610.411	24700.04
610.606	24200.33
610.802	24624.26
610.998	24558.73
611.193	24458.38
611.389	23872.66
611.584	24261.77
611.78	23987.35
611.976	24423.56
612.171	24069.26
612.367	24036.5
612.562	23819.41
612.758	23686.29
612.953	23612.57
613.149	23975.06
613.344	23209.12
613.539	24011.92
613.735	23678.1
613.93	23934.1
614.126	23307.42
614.321	23649.43
614.517	23491.74
614.712	23547.03
614.907	23151.77
615.103	23436.44
615.298	22992.03
615.493	23497.88
615.688	22961.31
615.884	23663.77
616.079	22973.6
616.274	23088.29
616.47	22877.35
616.665	23119.01
616.86	22656.17
617.055	22758.56
617.25	22537.38
617.445	22822.05
617.641	22432.94
617.836	22824.1
618.031	22504.62
618.226	22461.61
618.421	22142.13
618.616	22230.19
618.811	22201.52
619.006	22351.02
619.201	21933.23
619.396	21896.37
619.591	21411
619.786	21804.21
619.981	21535.93
620.176	21664.95
620.371	21490.87
620.566	21308.6
620.761	21411
620.956	21253.31
621.151	21265.6
621.346	21236.92
621.541	20694.21
621.735	21087.42
621.93	20774.08
622.125	20468.94
622.32	20325.58
622.515	20606.15
622.709	20315.34
622.904	20401.35
623.099	20008.14
623.294	20128.97
623.488	19993.81
623.683	19711.19
623.878	19858.64
624.072	19770.58
624.267	19608.79
624.462	19403.99
624.656	19346.65
624.851	19424.47
625.046	19074.27
625.24	18918.62
625.435	18894.05
625.629	18750.69
625.824	18834.66
626.018	18785.51
626.213	18255.08
626.407	18545.89
626.602	18482.41
626.796	18412.78
626.991	18265.32
627.185	17915.12
627.38	17714.42
627.574	18060.52
627.768	17798.38
627.963	17544.44
628.157	17439.99
628.352	17773.81
628.546	17210.62
628.74	17669.36
628.935	17034.49
629.129	17100.03
629.323	17069.31
629.517	16899.33
629.712	16893.18
629.906	16919.81
630.1	16669.95
630.294	16641.28
630.489	16657.67
630.683	16483.59
630.877	16299.27
631.071	16137.48
631.265	16272.65
631.459	16022.8
631.653	15998.22
631.848	15684.88
632.042	16004.36
632.236	15830.29
632.43	15676.69
632.624	15852.81
632.818	15619.35
633.012	15281.43
633.206	15385.88
633.4	15396.12
633.594	15148.31
633.788	15189.27
633.982	15207.7
634.176	14982.43
634.369	15045.91
634.563	14880.03
634.757	14687.52
634.951	14777.63
635.145	14658.85
635.339	14683.42
635.533	14474.53
635.726	14560.55
635.92	14165.29
636.114	14392.61
636.308	14370.08
636.501	14023.98
636.695	13991.21
636.889	13894.96
637.083	13929.77
637.276	13720.88
637.47	14017.83
637.664	13632.82
637.857	13712.69
638.051	13477.17
638.244	13432.12
638.438	13368.63
638.632	13167.93
638.825	13395.25
639.019	12950.84
639.212	13055.29
639.406	12807.48
639.599	13151.54
639.793	12938.55
639.986	12637.5
640.18	12760.38
640.373	12680.51
640.567	12414.27
640.76	12592.45
640.954	12293.44
641.147	12340.55
641.34	12371.27
641.534	12365.12
641.727	12064.07
641.92	11980.11
642.114	11920.71
642.307	11871.56
642.5	11930.95
642.694	11814.22
642.887	11480.4
643.08	11568.46
643.273	11545.94
643.467	11492.69
643.66	11572.56
643.853	11291.99
644.046	11251.03
644.239	11119.96
644.432	11412.82
644.626	11130.2
644.819	11111.77
645.012	11201.88
645.205	10890.59
645.398	10839.39
645.591	10874.2
645.784	10628.45
645.977	10814.81
646.17	10759.52
646.363	10491.23
646.556	10343.78
646.749	10480.99
646.942	10460.51
647.135	10311.01
647.328	10276.2
647.521	10419.55
647.714	9942.38
647.907	10145.13
648.099	9987.43
648.292	9930.09
648.485	10061.16
648.678	9717.1
648.871	9852.27
649.064	9911.66
649.256	9760.11
649.449	9688.43
649.642	9667.95
649.835	9618.8
650.027	9383.28
650.22	9502.06
650.413	9485.68
650.605	9379.18
650.798	9436.53
650.991	9414
651.183	9276.79
651.376	9069.94
651.568	9258.35
651.761	8945.02
651.954	9084.28
652.146	8949.11
652.339	8887.67
652.531	8850.81
652.724	9002.36
652.916	8682.88
653.109	8734.07
653.301	8762.75
653.494	8756.6
653.686	8435.07
653.879	8744.31
654.071	8574.33
654.263	8422.78
654.456	8365.44
654.648	8607.1
654.84	8381.82
655.033	8160.64
655.225	8355.2
655.417	8306.05
655.61	8236.42
655.802	8258.95
655.994	8144.26
656.186	8045.96
656.379	7941.51
656.571	7978.37
656.763	7949.7
656.955	7916.94
657.148	8025.48
657.34	7931.27
657.532	7685.51
657.724	7908.74
657.916	7689.61
658.108	7603.6
658.3	7605.64
658.492	7792.01
658.684	7484.81
658.876	7452.05
659.068	7523.73
659.26	7374.22
659.452	7335.31
659.644	7400.85
659.836	7316.88
660.028	7318.93
660.22	7130.52
660.412	7136.66
660.604	7116.18
660.796	7054.74
660.988	7064.98
661.18	6976.92
661.372	6763.93
661.563	7024.02
661.755	6882.71
661.947	6868.38
662.139	6653.34
662.331	6784.41
662.522	6757.78
662.714	6733.21
662.906	6720.92
663.097	6585.76
663.289	6587.8
663.481	6614.43
663.673	6696.35
663.864	6557.08
664.056	6352.29
664.247	6532.51
664.439	6458.78
664.631	6370.72
664.822	6518.17
665.014	6368.67
665.205	6356.38
665.397	6278.56
665.588	6325.66
665.78	6448.54
665.971	6157.73
666.163	6262.18
666.354	6034.85
666.546	6180.26
666.737	6229.41
666.929	6276.51
667.12	6002.08
667.311	6145.44
667.503	5918.12
667.694	5909.93
667.885	6038.95
668.077	5930.41
668.268	5840.29
668.459	6178.21
668.651	5940.65
668.842	5721.51
669.033	5868.97
669.224	5817.77
669.416	5854.63
669.607	5801.38
669.798	5641.64
669.989	5879.21
670.18	5715.37
670.371	5756.33
670.563	5604.78
670.754	5596.59
670.945	5705.13
671.136	5582.25
671.327	5625.26
671.518	5600.68
671.709	5537.2
671.9	5488.04
672.091	5561.77
672.282	5471.66
672.473	5477.8
672.664	5428.65
672.855	5475.76
673.046	5559.72
673.237	5600.68
673.428	5471.66
673.619	5412.27
673.809	5399.98
674	5211.57
674.191	5356.97
674.382	5397.93
674.573	5498.28
674.764	5246.38
674.954	5262.77
675.145	5213.62
675.336	5234.1
675.527	5156.27
675.717	5248.43
675.908	5107.12
676.099	5027.25
676.289	5045.68
676.48	5186.99
676.671	5273.01
676.861	4990.39
677.052	5008.82
677.243	5039.54
677.433	5139.89
677.624	5074.35
677.814	4916.66
678.005	5051.83
678.195	5111.22
678.386	5141.94
678.576	5025.2
678.767	5064.11
678.957	4912.57
679.148	5168.56
679.338	4986.29
679.529	5008.82
679.719	4928.95
679.909	5146.03
680.1	5043.64
680.29	4924.85
680.481	5045.68
680.671	4969.91
680.861	5033.4
681.052	4965.81
681.242	4877.75
681.432	5023.16
681.622	5029.3
681.813	4883.89
682.003	4894.13
682.193	4808.12
682.383	4801.97
682.573	4773.3
682.764	4924.85
682.954	4769.21
683.144	4904.37
683.334	4812.21
683.524	4865.46
683.714	4918.71
683.904	4855.22
684.094	4761.02
684.284	4894.13
684.474	4818.36
684.664	4867.51
684.854	4898.23
685.044	4767.16
685.234	4670.9
685.424	4785.59
685.614	4666.81
685.804	4820.41
685.994	4750.78
686.184	4652.47
686.374	4681.14
686.564	4718.01
686.753	4746.68
686.943	4527.55
687.133	4591.03
687.323	4582.84
687.513	4566.46
687.702	4394.43
687.892	4545.98
688.082	4591.03
688.272	4666.81
688.461	4476.35
688.651	4412.86
688.841	4378.05
689.03	4488.64
689.22	4414.91
689.41	4416.96
689.599	4267.45
689.789	4337.09
689.979	4238.78
690.168	4246.98
690.358	4326.85
690.547	4343.23
690.737	4332.99
690.926	4396.48
691.116	4107.71
691.305	4283.84
691.495	4165.06
691.684	4179.39
691.874	4236.74
692.063	4093.38
692.252	4042.18
692.442	4222.4
692.631	4107.71
692.82	4042.18
693.01	4115.91
693.199	4089.28
693.388	3980.74
693.578	4085.19
693.767	3927.49
693.956	3929.54
694.146	3966.4
694.335	3982.79
694.524	4054.47
694.713	4017.6
694.902	4001.22
695.092	3990.98
695.281	3941.83
695.47	3947.97
695.659	3894.72
695.848	3812.81
696.037	3788.23
696.226	3861.96
696.415	4025.79
696.604	3997.12
696.793	3847.62
696.982	3816.9
697.171	3917.25
697.36	3808.71
697.549	3718.6
697.738	3767.75
697.927	3777.99
698.116	3816.9
698.305	3821
698.494	3833.29
698.683	3818.95
698.872	3745.22
699.061	3814.85
699.25	3810.76
699.438	3759.56
699.627	3673.54
699.816	3941.83
700.005	3710.41
700.193	3816.9
700.382	3730.89
700.571	3579.34
700.76	3761.61
700.948	3857.86
701.137	3714.5
701.326	3810.76
701.514	3853.77
701.703	3712.46
701.892	3866.05
702.08	3757.51
702.269	3757.51
702.457	3603.91
702.646	3722.7
702.834	3706.31
703.023	3777.99
703.212	3767.75
703.4	3716.55
703.589	3579.34
703.777	3810.76
703.965	3567.05
704.154	3780.04
704.342	3712.46
704.531	3777.99
704.719	3700.17
704.907	3659.21
705.096	3601.87
705.284	3661.26
705.472	3653.06
705.661	3726.79
705.849	3755.46
706.037	3777.99
706.226	3734.98
706.414	3698.12
706.602	3550.67
706.79	3818.95
706.979	3595.72
707.167	3612.1
707.355	3601.87
707.543	3780.04
707.731	3653.06
707.919	3831.24
708.107	3620.3
708.296	3634.63
708.484	3700.17
708.672	3839.43
708.86	3562.95
709.048	3714.5
709.236	3651.02
709.424	3698.12
709.612	3765.7
709.8	3655.11
709.988	3714.5
710.176	3575.24
710.364	3567.05
710.551	3636.68
710.739	3728.84
710.927	3622.34
711.115	3696.07
711.303	3583.43
711.491	3782.09
711.679	3700.17
711.866	3640.78
712.054	3800.52
712.242	3710.41
712.43	3708.36
712.617	3702.22
712.805	3587.53
712.993	3663.3
713.181	3659.21
713.368	3851.72
713.556	3675.59
713.744	3689.93
713.931	3876.29
714.119	3839.43
714.306	3771.85
714.494	3675.59
714.682	3743.17
714.869	3575.24
715.057	3712.46
715.244	3671.5
715.432	3618.25
715.619	3587.53
715.807	3632.58
715.994	3616.2
716.182	3698.12
716.369	3734.98
716.556	3894.72
716.744	3728.84
716.931	3683.78
717.119	3702.22
717.306	3687.88
717.493	3624.39
717.681	3681.74
717.868	3730.89
718.055	3724.74
718.242	3773.89
718.43	3732.94
718.617	3483.08
718.804	3761.61
718.991	3694.02
719.179	3714.5
719.366	3632.58
719.553	3679.69
719.74	3710.41
719.927	3724.74
720.114	3622.34
720.301	3577.29
720.488	3626.44
720.676	3716.55
720.863	3653.06
721.05	3739.08
721.237	3585.48
721.424	3827.14
721.611	3665.35
721.798	3622.34
721.985	3745.22
722.172	3605.96
722.358	3601.87
722.545	3618.25
722.732	3558.86
722.919	3716.55
723.106	3538.38
723.293	3618.25
723.48	3659.21
723.667	3618.25
723.853	3587.53
724.04	3681.74
724.227	3648.97
724.414	3556.81
724.6	3691.98
724.787	3702.22
724.974	3745.22
725.161	3624.39
725.347	3573.19
725.534	3616.2
725.72	3673.54
725.907	3550.67
726.094	3632.58
726.28	3653.06
726.467	3524.04
726.653	3597.77
726.84	3702.22
727.027	3612.1
727.213	3669.45
727.4	3608.01
727.586	3493.32
727.773	3546.57
727.959	3579.34
728.145	3624.39
728.332	3468.75
728.518	3663.3
728.705	3579.34
728.891	3663.3
729.077	3532.23
729.264	3581.39
729.45	3628.49
729.636	3538.38
729.823	3671.5
730.009	3567.05
730.195	3456.46
730.382	3612.1
730.568	3638.73
730.754	3474.89
730.94	3530.19
731.126	3567.05
731.313	3616.2
731.499	3448.27
731.685	3734.98
731.871	3337.68
732.057	3544.52
732.243	3476.94
732.429	3546.57
732.615	3446.22
732.801	3565
732.987	3540.43
733.173	3352.01
733.359	3427.79
733.545	3456.46
733.731	3468.75
733.917	3540.43
734.103	3687.88
734.289	3462.6
734.475	3444.17
734.661	3384.78
734.847	3544.52
735.033	3476.94
735.219	3388.88
735.404	3372.49
735.59	3386.83
735.776	3352.01
735.962	3470.8
736.148	3386.83
736.333	3544.52
736.519	3347.92
736.705	3216.85
736.89	3331.53
737.076	3278.29
737.262	3392.97
737.447	3200.46
737.633	3321.29
737.819	3280.33
738.004	3395.02
738.19	3280.33
738.375	3120.59
738.561	3468.75
738.747	3343.82
738.932	3296.72
739.118	3210.7
739.303	3212.75
739.489	3259.85
739.674	3157.46
739.859	3290.57
740.045	3319.25
740.23	3268.05
740.416	3147.22
740.601	3278.29
740.786	3177.94
740.972	3151.31
741.157	3079.63
741.342	3073.49
741.528	3061.2
741.713	3112.4
741.898	3108.3
742.084	3216.85
742.269	3153.36
742.454	3112.4
742.639	3106.26
742.824	2905.56
743.01	2969.04
743.195	3079.63
743.38	3159.5
743.565	2962.9
743.75	3003.86
743.935	3024.34
744.12	2983.38
744.305	2858.45
744.49	2825.68
744.675	2905.56
744.86	2932.18
745.045	2854.36
745.23	2835.92
745.415	2788.82
745.6	2905.56
745.785	2891.22
745.97	2706.9
746.155	2686.42
746.34	2840.02
746.525	2749.91
746.71	2768.34
746.895	2743.77
747.079	2729.43
747.264	2751.96
747.449	2764.25
747.634	2682.33
747.819	2633.18
748.003	2596.31
748.188	2573.78
748.373	2553.31
748.557	2440.67
748.742	2608.6
748.927	2581.98
749.111	2491.87
749.296	2442.71
749.481	2667.99
749.665	2508.25
749.85	2520.54
750.034	2438.62
750.219	2352.6
750.404	2432.47
750.588	2368.99
750.773	2242.01
750.957	2399.71
751.141	2395.61
751.326	2280.93
751.51	2315.74
751.695	2205.15
751.879	2299.36
752.064	2287.07
752.248	2147.81
752.432	2262.49
752.617	2285.02
752.801	2190.81
752.985	2158.05
753.17	2192.86
753.354	2168.29
753.538	2137.57
753.722	2096.61
753.907	2207.2
754.091	2149.86
754.275	2078.18
754.459	1934.82
754.643	2055.65
754.828	1975.78
755.012	2080.22
755.196	1904.1
755.38	1965.54
755.564	1916.39
755.748	1916.39
755.932	1938.91
756.116	1912.29
756.3	1791.46
756.484	1826.28
756.668	1877.48
756.852	1834.47
757.036	1893.86
757.22	1926.63
757.404	1844.71
757.588	1850.85
757.772	1889.76
757.956	1811.94
758.14	1857
758.323	1828.32
758.507	1773.03
758.691	1715.69
758.875	1805.8
759.059	1773.03
759.242	1707.49
759.426	1693.16
759.61	1834.47
759.794	1629.67
759.977	1654.25
760.161	1744.36
760.345	1699.3
760.528	1641.96
760.712	1684.97
760.895	1588.71
761.079	1658.34
761.263	1668.58
761.446	1580.52
761.63	1646.05
761.813	1533.42
761.997	1549.8
762.18	1541.61
762.364	1496.55
762.547	1529.32
762.731	1545.7
762.914	1521.13
763.098	1519.08
763.281	1603.05
763.464	1521.13
763.648	1418.73
763.831	1543.66
764.015	1416.68
764.198	1482.22
764.381	1457.64
764.564	1519.08
764.748	1394.15
764.931	1453.55
765.114	1412.59
765.297	1371.63
765.481	1406.44
765.664	1428.97
765.847	1345
766.03	1379.82
766.213	1388.01
766.397	1426.92
766.58	1379.82
766.763	1316.33
766.946	1347.05
767.129	1400.3
767.312	1332.72
767.495	1336.81
767.678	1320.43
767.861	1265.13
768.044	1265.13
768.227	1297.9
768.41	1228.27
768.593	1256.94
768.776	1240.56
768.959	1297.9
769.142	1330.67
769.324	1289.71
769.507	1240.56
769.69	1152.49
769.873	1238.51
770.056	1213.93
770.239	1136.11
770.421	1287.66
770.604	1199.6
770.787	1187.31
770.97	1220.08
771.152	1158.64
771.335	1199.6
771.518	1172.97
771.7	1238.51
771.883	1205.74
772.066	1099.25
772.248	1193.45
772.431	1261.04
772.613	1191.41
772.796	1095.15
772.978	1132.01
773.161	1127.92
773.343	1209.84
773.526	1138.16
773.708	1048.05
773.891	1048.05
774.073	1091.06
774.256	1035.76
774.438	1015.28
774.621	1111.54
774.803	1025.52
774.985	998.9
775.168	978.42
775.35	904.69
775.532	1066.48
775.715	1009.14
775.897	992.75
776.079	1005.04
776.261	957.94
776.444	957.94
776.626	876.02
776.808	925.17
776.99	886.26
777.173	906.74
777.355	931.31
777.537	994.8
777.719	962.03
777.901	822.77
778.083	894.45
778.265	867.83
778.447	888.31
778.629	890.35
778.811	830.96
778.993	1035.76
779.175	945.65
779.357	910.83
779.539	810.48
779.721	777.72
779.903	900.59
780.085	830.96
780.267	880.11
780.449	837.11
780.631	826.87
780.812	787.96
780.994	722.42
781.176	853.49
781.358	796.15
781.54	783.86
781.721	712.18
781.903	837.11
782.085	818.68
782.267	761.33
782.448	779.76
782.63	749.04
782.812	742.9
782.993	732.66
783.175	669.17
783.357	699.89
783.538	632.31
783.72	691.7
783.901	685.56
784.083	658.93
784.264	650.74
784.446	687.61
784.627	540.15
784.809	675.32
784.99	638.45
785.172	630.26
785.353	622.07
785.535	609.78
785.716	630.26
785.897	634.36
786.079	593.4
786.26	599.54
786.441	597.49
786.623	589.3
786.804	529.91
786.985	632.31
787.167	615.93
787.348	497.14
787.529	581.11
787.71	673.27
787.891	617.97
788.073	552.44
788.254	439.8
788.435	511.48
788.616	617.97
788.797	599.54
788.978	572.92
789.159	527.86
789.34	550.39
789.522	511.48
789.703	517.62
789.884	484.86
790.065	523.77
790.246	560.63
790.427	480.76
790.607	460.28
790.788	554.49
790.969	476.66
791.15	474.62
791.331	538.1
791.512	515.58
791.693	417.27
791.874	433.66
792.054	470.52
792.235	462.33
792.416	511.48
792.597	368.12
792.778	529.91
792.958	441.85
793.139	499.19
793.32	404.99
793.5	378.36
793.681	478.71
793.862	437.75
794.042	454.14
794.223	333.31
794.404	454.14
794.584	351.74
794.765	390.65
794.945	380.41
795.126	388.6
795.306	402.94
795.487	364.03
795.667	507.38
795.848	409.08
796.028	372.22
796.209	415.23
796.389	454.14
796.57	386.55
796.75	335.35
796.93	411.13
797.111	443.9
797.291	433.66
797.471	370.17
797.652	411.13
797.832	331.26
798.012	347.64
798.192	273.92
798.373	368.12
798.553	392.7
798.733	396.79
798.913	359.93
799.093	372.22
799.274	347.64
799.454	370.17
799.634	337.4
799.814	372.22
799.994	353.79
800.174	382.46
800.354	278.01
800.534	310.78
800.714	333.31
800.894	325.12
801.074	321.02
801.254	294.4
801.434	316.92
801.614	302.59
801.794	304.64
801.974	794.1
802.154	325.12
802.334	241.15
802.514	329.21
802.693	374.27
802.873	294.4
803.053	306.68
803.233	347.64
803.413	337.4
803.592	321.02
803.772	288.25
803.952	325.12
804.131	247.29
804.311	306.68
804.491	267.77
804.67	288.25
804.85	310.78
805.03	247.29
805.209	208.38
805.389	210.43
805.568	230.91
805.748	228.86
805.928	339.45
806.107	275.96
806.287	261.63
806.466	237.05
806.646	212.48
806.825	198.14
807.004	167.42
807.184	216.57
807.363	220.67
807.543	212.48
807.722	292.35
807.901	310.78
808.081	306.68
808.26	183.81
808.439	235
808.619	163.33
808.798	208.38
808.977	333.31
809.156	300.54
809.336	171.52
809.515	278.01
809.694	151.04
809.873	179.71
810.052	216.57
810.231	259.58
810.411	202.24
810.59	263.68
810.769	202.24
810.948	222.72
811.127	196.09
811.306	138.75
811.485	208.38
811.664	255.48
811.843	222.72
812.022	212.48
812.201	171.52
812.38	206.33
812.559	187.9
812.737	206.33
812.916	187.9
813.095	179.71
813.274	198.14
813.453	118.27
813.632	208.38
813.811	159.23
813.989	146.94
814.168	208.38
814.347	202.24
814.526	194.05
814.704	192
814.883	251.39
815.062	140.8
815.24	159.23
815.419	148.99
815.598	261.63
815.776	173.57
815.955	192
816.133	177.66
816.312	257.53
816.49	200.19
816.669	189.95
816.847	187.9
817.026	171.52
817.204	230.91
817.383	148.99
817.561	194.05
817.74	142.85
817.918	171.52
818.097	171.52
818.275	132.61
818.453	155.13
818.632	192
818.81	171.52
818.988	62.98
819.167	93.69
819.345	155.13
819.523	155.13
819.701	222.72
819.879	189.95
820.058	114.17
820.236	85.5
820.414	118.27
820.592	175.61
820.77	148.99
820.948	110.08
821.127	161.28
821.305	142.85
821.483	120.32
821.661	134.65
821.839	177.66
822.017	114.17
822.195	38.4
822.373	167.42
822.551	167.42
822.729	155.13
822.907	163.33
823.085	144.89
823.262	134.65
823.44	142.85
823.618	19.97
823.796	175.61
823.974	62.98
824.152	122.37
824.329	128.51
824.507	151.04
824.685	142.85
824.863	253.44
825.04	155.13
825.218	171.52
825.396	130.56
825.574	142.85
825.751	75.26
825.929	81.41
826.107	103.93
826.284	112.13
826.462	120.32
826.639	132.61
826.817	93.69
826.994	87.55
827.172	40.45
827.349	179.71
827.527	138.75
827.704	134.65
827.882	118.27
828.059	161.28
828.237	105.98
828.414	161.28
828.591	116.22
828.769	114.17
828.946	97.79
829.124	126.46
829.301	69.12
829.478	124.41
829.655	95.74
829.833	40.45
830.01	30.21
830.187	198.14
830.364	44.54
830.542	116.22
830.719	153.09
830.896	146.94
831.073	206.33
831.25	83.45
831.427	222.72
831.604	116.22
831.782	91.65
831.959	71.17
832.136	48.64
832.313	108.03
832.49	46.59
832.667	89.6
832.844	26.11
833.021	118.27
833.198	110.08
833.374	93.69
833.551	38.4
833.728	146.94
833.905	118.27
834.082	-12.8
834.259	159.23
834.436	126.46
834.612	52.74
834.789	69.12
834.966	151.04
835.143	67.07
835.319	151.04
835.496	128.51
835.673	118.27
835.85	50.69
836.026	46.59
836.203	95.74
836.38	19.97
836.556	9.73
836.733	5.63
836.909	101.89
837.086	48.64
837.262	52.74
837.439	83.45
837.616	183.81
837.792	85.5
837.968	11.78
838.145	15.87
838.321	36.35
838.498	97.79
838.674	97.79
838.851	5.63
839.027	77.31
839.203	48.64
839.38	85.5
839.556	32.26
839.732	105.98
839.909	91.65
840.085	140.8
840.261	17.92
840.437	62.98
840.614	42.5
840.79	114.17
840.966	28.16
841.142	75.26
841.318	36.35
841.494	13.82
841.671	85.5
841.847	60.93
842.023	-4.61
842.199	81.41
842.375	120.32
842.551	-4.61
842.727	26.11
842.903	114.17
843.079	71.17
843.255	101.89
843.431	62.98
843.607	11.78
843.783	38.4
843.959	77.31
844.134	67.07
844.31	120.32
844.486	-4.61
844.662	36.35
844.838	69.12
845.013	42.5
845.189	26.11
845.365	44.54
845.541	99.84
845.716	42.5
845.892	116.22
846.068	24.06
846.244	56.83
846.419	75.26
846.595	85.5
846.77	42.5
846.946	26.11
847.122	42.5
847.297	19.97
847.473	40.45
847.648	28.16
847.824	7.68
847.999	28.16
848.175	50.69
848.35	40.45
848.526	44.54
848.701	40.45
848.876	34.3
849.052	83.45
849.227	24.06
849.403	26.11
849.578	-18.94
849.753	19.97
849.929	79.36
850.104	-33.28
850.279	32.26
850.454	89.6
850.63	58.88
850.805	36.35
850.98	-0.51
851.155	110.08
851.33	79.36
851.505	3.58
851.681	32.26
851.856	11.78
852.031	58.88
852.206	77.31
852.381	-2.56
852.556	-29.18
852.731	108.03
852.906	58.88
853.081	17.92
853.256	34.3
853.431	-33.28
853.606	3.58
853.781	56.83
853.956	-66.05
854.131	52.74
854.305	-57.86
854.48	22.02
854.655	-18.94
854.83	-8.7
855.005	65.02
855.18	36.35
855.354	-4.61
855.529	15.87
855.704	52.74
855.879	5.63
856.053	-6.66
856.228	15.87
856.403	-43.52
856.577	26.11
856.752	1.54
856.926	32.26
857.101	7.68
857.276	54.78
857.45	-25.09
857.625	48.64
857.799	85.5
857.974	15.87
858.148	-51.71
858.323	11.78
858.497	93.69
858.672	5.63
858.846	32.26
859.02	58.88
859.195	-51.71
859.369	-8.7
859.543	-18.94
859.718	9.73
859.892	-72.19
860.066	1.54
860.241	-33.28
860.415	-12.8
860.589	-29.18
860.763	-12.8
860.938	-45.57
861.112	65.02
861.286	-51.71
861.46	17.92
861.634	3.58
861.808	34.3
861.982	-20.99
862.157	28.16
862.331	-49.66
862.505	-29.18
862.679	34.3
862.853	-33.28
863.027	34.3
863.201	110.08
863.375	-53.76
863.549	-14.85
863.722	48.64
863.896	48.64
864.07	-4.61
864.244	-53.76
864.418	11.78
864.592	3.58
864.766	54.78
864.939	26.11
865.113	-12.8
865.287	9.73
865.461	-16.9
865.634	-4.61
865.808	-53.76
865.982	3.58
866.156	7.68
866.329	-18.94
866.503	34.3
866.676	22.02
866.85	11.78
867.024	-4.61
867.197	-16.9
867.371	67.07
867.544	42.5
867.718	-16.9
867.891	13.82
868.065	44.54
868.238	-35.33
868.412	-25.09
868.585	-25.09
868.759	-29.18
868.932	-8.7
869.105	19.97
869.279	-59.9
869.452	58.88
869.625	-37.38
869.799	-45.57
869.972	-53.76
870.145	3.58
870.319	7.68
870.492	36.35
870.665	17.92
870.838	7.68
871.011	-20.99
871.185	-90.62
871.358	-57.86
871.531	-4.61
871.704	1.54
871.877	15.87
872.05	-0.51
872.223	-2.56
872.396	-31.23
872.569	15.87
872.742	-43.52
872.915	11.78
873.088	-6.66
873.261	-94.72
873.434	1.54
873.607	-25.09
873.78	19.97
873.953	-2.56
874.126	-37.38
874.299	-31.23
874.471	17.92
874.644	-43.52
874.817	7.68
874.99	54.78
875.163	-6.66
875.335	-18.94
875.508	-4.61
875.681	22.02
875.853	22.02
876.026	-0.51
876.199	65.02
876.371	-57.86
876.544	17.92
876.717	30.21
876.889	-55.81
877.062	48.64
877.234	-53.76
877.407	7.68
877.579	-2.56
877.752	32.26
877.924	9.73
878.097	-20.99
878.269	15.87
878.442	19.97
878.614	-16.9
878.786	-31.23
878.959	7.68
879.131	-18.94
879.303	-6.66
879.476	77.31
879.648	-78.33
879.82	5.63
879.993	-12.8
880.165	-33.28
880.337	60.93
880.509	24.06
880.681	-55.81
880.854	-23.04
881.026	5.63
881.198	17.92
881.37	-20.99
881.542	-12.8
881.714	-41.47
881.886	-66.05
882.058	7.68
882.23	3.58
882.402	-55.81
882.574	-51.71
882.746	28.16
882.918	36.35
883.09	28.16
883.262	60.93
883.434	-14.85
883.606	-37.38
883.778	-0.51
883.95	38.4
884.122	-49.66
884.293	5.63
884.465	9.73
884.637	-49.66
884.809	-41.47
884.98	15.87
885.152	-45.57
885.324	-0.51
885.496	-37.38
885.667	-47.62
885.839	36.35
886.011	-0.51
886.182	11.78
886.354	5.63
886.525	50.69
886.697	-45.57
886.869	-8.7
887.04	81.41
887.212	-25.09
887.383	5.63
887.555	-29.18
887.726	-96.77
887.897	34.3
888.069	32.26
888.24	-6.66
888.412	-8.7
888.583	24.06
888.754	5.63
888.926	-100.86
889.097	36.35
889.268	-47.62
889.44	-10.75
889.611	-31.23
889.782	-2.56
889.953	-29.18
890.125	42.5
890.296	-49.66
890.467	-18.94
890.638	-4.61
890.809	-12.8
890.98	-47.62
891.151	60.93
891.323	50.69
891.494	11.78
891.665	-0.51
891.836	7.68
892.007	46.59
892.178	-37.38
892.349	3.58
892.52	-2.56
892.691	28.16
892.862	36.35
893.032	-61.95
893.203	-45.57
893.374	-39.42
893.545	44.54
893.716	-45.57
893.887	-39.42
894.057	-64
894.228	-12.8
894.399	-29.18
894.57	32.26
894.74	38.4
894.911	15.87
895.082	-64
895.253	-59.9
895.423	-10.75
895.594	-45.57
895.764	-45.57
895.935	-68.09
896.106	-33.28
896.276	9.73
896.447	-0.51
896.617	-23.04
896.788	-57.86
896.958	26.11
897.129	-37.38
897.299	-84.48
897.47	93.69
897.64	46.59
897.81	-92.67
897.981	60.93
898.151	3.58
898.322	-74.24
898.492	1.54
898.662	-61.95
898.832	1.54
899.003	-47.62
899.173	-39.42
899.343	-92.67
899.513	-29.18
