Data from USB4F104151__211__10-29-52-924.txt Node

Date: Wed Mar 12 10:29:52 EDT 2025
User: louis
Spectrometer: USB4F10415
Trigger mode: 4
Integration Time (sec): 3.000000E-2
Scans to average: 1
Electric dark correction enabled: true
Nonlinearity correction enabled: false
Boxcar width: 0
XAxis mode: Wavelengths
Number of Pixels in Spectrum: 3648
>>>>>Begin Spectral Data<<<<<
178.204	-66.22
178.424	-66.22
178.644	-66.22
178.864	-113.32
179.084	-109.22
179.304	-17.07
179.524	-23.21
179.744	5.46
179.964	60.76
180.184	-4.78
180.404	23.89
180.624	-39.59
180.844	48.47
181.064	-15.02
181.283	-6.83
181.503	-47.79
181.723	15.7
181.943	32.08
182.163	62.8
182.383	34.13
182.602	21.85
182.822	3.41
183.042	-2.73
183.262	-2.73
183.482	54.61
183.701	-43.69
183.921	-41.64
184.141	9.56
184.361	-25.26
184.58	30.04
184.8	87.38
185.02	42.32
185.239	25.94
185.459	120.15
185.679	-45.74
185.898	34.13
186.118	95.57
186.338	-31.4
186.557	60.76
186.777	36.18
186.997	36.18
187.216	-8.87
187.436	25.94
187.655	21.85
187.875	91.48
188.095	-43.69
188.314	34.13
188.534	-31.4
188.753	-17.07
188.973	157.01
189.192	83.28
189.412	122.2
189.631	-0.68
189.851	23.89
190.07	87.38
190.29	-21.16
190.509	-17.07
190.729	54.61
190.948	58.71
191.168	161.11
191.387	83.28
191.607	25.94
191.826	32.08
192.045	-17.07
192.265	11.61
192.484	54.61
192.704	95.57
192.923	-2.73
193.142	107.86
193.362	21.85
193.581	197.97
193.8	46.42
194.02	101.72
194.239	40.28
194.458	116.05
194.678	21.85
194.897	66.9
195.116	13.65
195.335	89.43
195.555	-6.83
195.774	50.52
195.993	73.04
196.212	11.61
196.432	109.91
196.651	64.85
196.87	1.37
197.089	83.28
197.308	107.86
197.528	101.72
197.747	62.8
197.966	83.28
198.185	79.19
198.404	7.51
198.623	-23.21
198.842	85.33
199.062	3.41
199.281	111.96
199.5	75.09
199.719	62.8
199.938	109.91
200.157	97.62
200.376	32.08
200.595	58.71
200.814	58.71
201.033	27.99
201.252	54.61
201.471	93.52
201.69	95.57
201.909	48.47
202.128	58.71
202.347	50.52
202.566	-80.55
202.785	58.71
203.004	-35.5
203.223	56.66
203.442	34.13
203.661	30.04
203.879	3.41
204.098	15.7
204.317	27.99
204.536	34.13
204.755	9.56
204.974	68.95
205.193	83.28
205.411	136.53
205.63	-6.83
205.849	25.94
206.068	50.52
206.287	9.56
206.505	75.09
206.724	-39.59
206.943	34.13
207.162	58.71
207.381	116.05
207.599	42.32
207.818	52.56
208.037	5.46
208.255	36.18
208.474	56.66
208.693	25.94
208.911	-27.31
209.13	83.28
209.349	25.94
209.567	48.47
209.786	140.63
210.005	9.56
210.223	103.76
210.442	62.8
210.661	62.8
210.879	64.85
211.098	-8.87
211.316	19.8
211.535	71
211.753	50.52
211.972	58.71
212.191	15.7
212.409	9.56
212.628	99.67
212.846	-8.87
213.065	87.38
213.283	60.76
213.502	87.38
213.72	34.13
213.938	103.76
214.157	19.8
214.375	3.41
214.594	79.19
214.812	13.65
215.031	38.23
215.249	-2.73
215.467	58.71
215.686	-6.83
215.904	-15.02
216.122	-17.07
216.341	89.43
216.559	9.56
216.778	107.86
216.996	83.28
217.214	50.52
217.432	-2.73
217.651	17.75
217.869	32.08
218.087	107.86
218.306	62.8
218.524	-17.07
218.742	9.56
218.96	89.43
219.179	52.56
219.397	42.32
219.615	44.37
219.833	48.47
220.051	-10.92
220.27	103.76
220.488	-10.92
220.706	64.85
220.924	48.47
221.142	124.24
221.36	-25.26
221.578	40.28
221.796	17.75
222.015	40.28
222.233	64.85
222.451	138.58
222.669	-53.93
222.887	-10.92
223.105	-6.83
223.323	38.23
223.541	-4.78
223.759	-12.97
223.977	13.65
224.195	25.94
224.413	27.99
224.631	62.8
224.849	-10.92
225.067	73.04
225.285	5.46
225.503	50.52
225.721	52.56
225.939	9.56
226.157	64.85
226.375	25.94
226.592	23.89
226.81	7.51
227.028	58.71
227.246	58.71
227.464	58.71
227.682	97.62
227.9	62.8
228.117	-6.83
228.335	-15.02
228.553	42.32
228.771	-25.26
228.989	-2.73
229.206	130.39
229.424	-23.21
229.642	50.52
229.86	89.43
230.077	68.95
230.295	34.13
230.513	81.24
230.731	62.8
230.948	50.52
231.166	73.04
231.384	85.33
231.601	5.46
231.819	132.44
232.037	13.65
232.254	-82.6
232.472	60.76
232.689	48.47
232.907	44.37
233.125	30.04
233.342	23.89
233.56	-25.26
233.777	-4.78
233.995	71
234.213	79.19
234.43	38.23
234.648	42.32
234.865	50.52
235.083	-35.5
235.3	81.24
235.518	38.23
235.735	-15.02
235.953	48.47
236.17	50.52
236.388	87.38
236.605	91.48
236.822	32.08
237.04	-17.07
237.257	75.09
237.475	36.18
237.692	27.99
237.909	111.96
238.127	17.75
238.344	75.09
238.562	48.47
238.779	89.43
238.996	66.9
239.214	85.33
239.431	25.94
239.648	81.24
239.865	42.32
240.083	-58.03
240.3	-51.88
240.517	60.76
240.735	-6.83
240.952	58.71
241.169	25.94
241.386	93.52
241.603	5.46
241.821	42.32
242.038	36.18
242.255	44.37
242.472	32.08
242.689	25.94
242.907	32.08
243.124	77.14
243.341	21.85
243.558	66.9
243.775	52.56
243.992	-45.74
244.209	64.85
244.426	58.71
244.643	64.85
244.86	-15.02
245.078	60.76
245.295	52.56
245.512	56.66
245.729	87.38
245.946	42.32
246.163	116.05
246.38	99.67
246.597	11.61
246.814	-23.21
247.031	107.86
247.248	50.52
247.464	56.66
247.681	50.52
247.898	66.9
248.115	-31.4
248.332	-25.26
248.549	138.58
248.766	40.28
248.983	58.71
249.2	34.13
249.417	44.37
249.633	-0.68
249.85	71
250.067	140.63
250.284	13.65
250.501	146.77
250.717	85.33
250.934	-25.26
251.151	9.56
251.368	-98.99
251.585	128.34
251.801	-4.78
252.018	3.41
252.235	1.37
252.451	36.18
252.668	9.56
252.885	52.56
253.102	83.28
253.318	1.37
253.535	-45.74
253.752	-2.73
253.968	15.7
254.185	73.04
254.401	15.7
254.618	75.09
254.835	-12.97
255.051	66.9
255.268	-2.73
255.484	15.7
255.701	15.7
255.917	97.62
256.134	27.99
256.351	23.89
256.567	83.28
256.784	56.66
257	40.28
257.217	103.76
257.433	105.81
257.65	68.95
257.866	40.28
258.082	81.24
258.299	60.76
258.515	89.43
258.732	116.05
258.948	-35.5
259.165	60.76
259.381	25.94
259.597	44.37
259.814	23.89
260.03	21.85
260.246	64.85
260.463	46.42
260.679	40.28
260.895	36.18
261.112	73.04
261.328	34.13
261.544	19.8
261.761	99.67
261.977	36.18
262.193	30.04
262.409	-0.68
262.626	71
262.842	19.8
263.058	-10.92
263.274	46.42
263.49	-47.79
263.707	120.15
263.923	91.48
264.139	56.66
264.355	56.66
264.571	116.05
264.787	64.85
265.004	79.19
265.22	11.61
265.436	66.9
265.652	71
265.868	128.34
266.084	60.76
266.3	-15.02
266.516	-47.79
266.732	77.14
266.948	27.99
267.164	32.08
267.38	38.23
267.596	83.28
267.812	122.2
268.028	66.9
268.244	-8.87
268.46	-23.21
268.676	5.46
268.892	40.28
269.108	9.56
269.324	50.52
269.54	-43.69
269.756	32.08
269.972	21.85
270.188	85.33
270.403	32.08
270.619	54.61
270.835	-10.92
271.051	44.37
271.267	81.24
271.483	-29.35
271.698	89.43
271.914	107.86
272.13	1.37
272.346	30.04
272.562	71
272.777	73.04
272.993	77.14
273.209	30.04
273.425	9.56
273.64	54.61
273.856	27.99
274.072	-23.21
274.287	17.75
274.503	48.47
274.719	62.8
274.934	58.71
275.15	15.7
275.366	140.63
275.581	68.95
275.797	50.52
276.012	58.71
276.228	-12.97
276.444	93.52
276.659	148.82
276.875	7.51
277.09	-31.4
277.306	11.61
277.521	66.9
277.737	21.85
277.952	50.52
278.168	-12.97
278.383	118.1
278.599	91.48
278.814	116.05
279.03	1.37
279.245	85.33
279.461	126.29
279.676	-49.83
279.892	15.7
280.107	1.37
280.322	50.52
280.538	118.1
280.753	56.66
280.969	109.91
281.184	40.28
281.399	62.8
281.615	-37.55
281.83	-25.26
282.045	21.85
282.26	30.04
282.476	27.99
282.691	73.04
282.906	116.05
283.122	99.67
283.337	34.13
283.552	5.46
283.767	27.99
283.983	68.95
284.198	62.8
284.413	9.56
284.628	32.08
284.843	-25.26
285.058	-10.92
285.274	89.43
285.489	15.7
285.704	134.48
285.919	38.23
286.134	32.08
286.349	-49.83
286.564	56.66
286.779	171.35
286.995	60.76
287.21	13.65
287.425	77.14
287.64	30.04
287.855	91.48
288.07	32.08
288.285	-19.11
288.5	64.85
288.715	27.99
288.93	23.89
289.145	50.52
289.36	13.65
289.575	50.52
289.79	17.75
290.004	48.47
290.219	-10.92
290.434	-10.92
290.649	97.62
290.864	105.81
291.079	68.95
291.294	68.95
291.509	93.52
291.724	75.09
291.938	52.56
292.153	7.51
292.368	75.09
292.583	124.24
292.798	79.19
293.012	-10.92
293.227	91.48
293.442	-8.87
293.657	40.28
293.871	71
294.086	-10.92
294.301	111.96
294.516	34.13
294.73	15.7
294.945	50.52
295.16	50.52
295.374	50.52
295.589	40.28
295.804	109.91
296.018	34.13
296.233	91.48
296.447	17.75
296.662	-49.83
296.877	85.33
297.091	54.61
297.306	60.76
297.52	77.14
297.735	58.71
297.949	-31.4
298.164	52.56
298.378	66.9
298.593	42.32
298.807	42.32
299.022	42.32
299.236	44.37
299.451	-19.11
299.665	36.18
299.88	105.81
300.094	58.71
300.309	46.42
300.523	19.8
300.737	89.43
300.952	34.13
301.166	-39.59
301.381	17.75
301.595	48.47
301.809	79.19
302.024	27.99
302.238	-23.21
302.452	34.13
302.667	-41.64
302.881	107.86
303.095	109.91
303.309	60.76
303.524	7.51
303.738	-51.88
303.952	-76.46
304.166	56.66
304.381	-23.21
304.595	97.62
304.809	-6.83
305.023	48.47
305.237	46.42
305.452	68.95
305.666	73.04
305.88	30.04
306.094	71
306.308	64.85
306.522	50.52
306.736	62.8
306.95	58.71
307.164	58.71
307.379	79.19
307.593	75.09
307.807	1.37
308.021	52.56
308.235	30.04
308.449	105.81
308.663	36.18
308.877	85.33
309.091	5.46
309.305	60.76
309.519	30.04
309.733	138.58
309.947	30.04
310.161	46.42
310.374	1.37
310.588	116.05
310.802	23.89
311.016	56.66
311.23	62.8
311.444	7.51
311.658	107.86
311.872	75.09
312.085	144.72
312.299	99.67
312.513	111.96
312.727	17.75
312.941	9.56
313.154	46.42
313.368	99.67
313.582	58.71
313.796	73.04
314.009	42.32
314.223	97.62
314.437	66.9
314.651	13.65
314.864	27.99
315.078	25.94
315.292	44.37
315.505	9.56
315.719	-8.87
315.933	93.52
316.146	87.38
316.36	-92.84
316.573	71
316.787	81.24
317.001	71
317.214	25.94
317.428	54.61
317.641	5.46
317.855	1.37
318.068	46.42
318.282	11.61
318.495	23.89
318.709	48.47
318.922	77.14
319.136	114
319.349	52.56
319.563	56.66
319.776	111.96
319.99	-6.83
320.203	73.04
320.417	56.66
320.63	54.61
320.843	120.15
321.057	13.65
321.27	62.8
321.483	66.9
321.697	83.28
321.91	75.09
322.124	81.24
322.337	-10.92
322.55	38.23
322.763	64.85
322.977	62.8
323.19	42.32
323.403	71
323.617	-8.87
323.83	99.67
324.043	46.42
324.256	50.52
324.469	-21.16
324.683	99.67
324.896	42.32
325.109	87.38
325.322	21.85
325.535	71
325.748	83.28
325.962	21.85
326.175	54.61
326.388	50.52
326.601	30.04
326.814	-15.02
327.027	42.32
327.24	144.72
327.453	40.28
327.666	5.46
327.879	107.86
328.092	73.04
328.305	-29.35
328.518	46.42
328.731	30.04
328.944	50.52
329.157	93.52
329.37	30.04
329.583	91.48
329.796	36.18
330.009	-4.78
330.222	17.75
330.435	120.15
330.648	-6.83
330.861	1.37
331.073	107.86
331.286	-43.69
331.499	17.75
331.712	23.89
331.925	46.42
332.138	73.04
332.35	97.62
332.563	13.65
332.776	52.56
332.989	-27.31
333.202	17.75
333.414	25.94
333.627	52.56
333.84	17.75
334.053	105.81
334.265	48.47
334.478	83.28
334.691	-33.45
334.903	-19.11
335.116	75.09
335.329	17.75
335.541	83.28
335.754	107.86
335.966	66.9
336.179	36.18
336.392	5.46
336.604	62.8
336.817	97.62
337.029	64.85
337.242	52.56
337.454	36.18
337.667	52.56
337.88	124.24
338.092	79.19
338.305	116.05
338.517	17.75
338.729	75.09
338.942	62.8
339.154	9.56
339.367	62.8
339.579	87.38
339.792	50.52
340.004	40.28
340.217	54.61
340.429	38.23
340.641	-29.35
340.854	38.23
341.066	42.32
341.278	99.67
341.491	52.56
341.703	64.85
341.915	-39.59
342.128	17.75
342.34	66.9
342.552	19.8
342.764	32.08
342.977	60.76
343.189	-12.97
343.401	40.28
343.613	91.48
343.826	71
344.038	-8.87
344.25	97.62
344.462	50.52
344.674	58.71
344.886	3.41
345.099	103.76
345.311	19.8
345.523	3.41
345.735	73.04
345.947	75.09
346.159	23.89
346.371	1.37
346.583	56.66
346.795	107.86
347.007	19.8
347.219	107.86
347.431	9.56
347.643	105.81
347.855	40.28
348.067	21.85
348.279	25.94
348.491	79.19
348.703	15.7
348.915	42.32
349.127	32.08
349.339	40.28
349.551	77.14
349.763	81.24
349.975	-2.73
350.187	77.14
350.399	60.76
350.61	32.08
350.822	-6.83
351.034	130.39
351.246	-10.92
351.458	32.08
351.669	75.09
351.881	58.71
352.093	73.04
352.305	13.65
352.517	34.13
352.728	66.9
352.94	54.61
353.152	89.43
353.363	-8.87
353.575	23.89
353.787	-0.68
353.999	66.9
354.21	62.8
354.422	66.9
354.633	3.41
354.845	99.67
355.057	21.85
355.268	66.9
355.48	71
355.692	9.56
355.903	25.94
356.115	25.94
356.326	-6.83
356.538	42.32
356.749	34.13
356.961	105.81
357.172	44.37
357.384	36.18
357.595	97.62
357.807	11.61
358.018	34.13
358.23	60.76
358.441	159.06
358.653	87.38
358.864	44.37
359.075	58.71
359.287	114
359.498	114
359.709	58.71
359.921	54.61
360.132	66.9
360.344	-25.26
360.555	60.76
360.766	9.56
360.977	89.43
361.189	46.42
361.4	77.14
361.611	62.8
361.823	126.29
362.034	120.15
362.245	66.9
362.456	32.08
362.667	50.52
362.879	34.13
363.09	77.14
363.301	87.38
363.512	15.7
363.723	3.41
363.935	23.89
364.146	79.19
364.357	75.09
364.568	32.08
364.779	32.08
364.99	77.14
365.201	99.67
365.412	9.56
365.623	58.71
365.834	99.67
366.045	52.56
366.256	64.85
366.467	19.8
366.678	-19.11
366.889	95.57
367.1	66.9
367.311	81.24
367.522	-21.16
367.733	75.09
367.944	50.52
368.155	23.89
368.366	71
368.577	48.47
368.788	107.86
368.999	75.09
369.209	-47.79
369.42	122.2
369.631	89.43
369.842	38.23
370.053	-10.92
370.264	105.81
370.474	34.13
370.685	120.15
370.896	19.8
371.107	101.72
371.317	122.2
371.528	27.99
371.739	44.37
371.95	75.09
372.16	50.52
372.371	99.67
372.582	3.41
372.792	75.09
373.003	71
373.214	111.96
373.424	111.96
373.635	111.96
373.846	62.8
374.056	38.23
374.267	144.72
374.477	3.41
374.688	44.37
374.898	99.67
375.109	109.91
375.319	99.67
375.53	79.19
375.74	138.58
375.951	64.85
376.161	71
376.372	75.09
376.582	79.19
376.793	36.18
377.003	32.08
377.214	30.04
377.424	77.14
377.635	27.99
377.845	71
378.055	111.96
378.266	7.51
378.476	87.38
378.686	11.61
378.897	116.05
379.107	50.52
379.317	83.28
379.528	101.72
379.738	120.15
379.948	-0.68
380.158	15.7
380.369	75.09
380.579	68.95
380.789	44.37
380.999	64.85
381.21	42.32
381.42	126.29
381.63	50.52
381.84	68.95
382.05	75.09
382.261	144.72
382.471	152.92
382.681	48.47
382.891	83.28
383.101	11.61
383.311	30.04
383.521	32.08
383.731	81.24
383.941	56.66
384.151	62.8
384.361	79.19
384.571	68.95
384.781	91.48
384.991	99.67
385.201	71
385.411	87.38
385.621	40.28
385.831	157.01
386.041	128.34
386.251	79.19
386.461	48.47
386.671	97.62
386.881	62.8
387.091	13.65
387.301	42.32
387.511	21.85
387.72	71
387.93	97.62
388.14	91.48
388.35	52.56
388.56	66.9
388.769	52.56
388.979	103.76
389.189	68.95
389.399	64.85
389.609	54.61
389.818	25.94
390.028	122.2
390.238	13.65
390.447	34.13
390.657	111.96
390.867	71
391.076	52.56
391.286	87.38
391.496	46.42
391.705	99.67
391.915	32.08
392.125	83.28
392.334	50.52
392.544	62.8
392.753	85.33
392.963	46.42
393.172	142.68
393.382	17.75
393.591	152.92
393.801	-37.55
394.01	105.81
394.22	58.71
394.429	91.48
394.639	114
394.848	97.62
395.058	87.38
395.267	62.8
395.477	83.28
395.686	107.86
395.895	99.67
396.105	171.35
396.314	126.29
396.524	85.33
396.733	136.53
396.942	189.78
397.152	85.33
397.361	99.67
397.57	89.43
397.78	146.77
397.989	124.24
398.198	150.87
398.407	34.13
398.617	79.19
398.826	116.05
399.035	93.52
399.244	85.33
399.453	71
399.663	44.37
399.872	32.08
400.081	58.71
400.29	179.54
400.499	89.43
400.708	197.97
400.917	134.48
401.127	148.82
401.336	150.87
401.545	208.21
401.754	114
401.963	169.3
402.172	150.87
402.381	107.86
402.59	159.06
402.799	83.28
403.008	87.38
403.217	124.24
403.426	240.98
403.635	75.09
403.844	114
404.053	179.54
404.262	132.44
404.471	159.06
404.68	171.35
404.888	200.02
405.097	167.25
405.306	83.28
405.515	185.68
405.724	126.29
405.933	124.24
406.142	165.2
406.35	189.78
406.559	187.73
406.768	148.82
406.977	210.26
407.185	269.65
407.394	245.07
407.603	181.59
407.812	202.07
408.02	197.97
408.229	247.12
408.438	247.12
408.646	200.02
408.855	238.93
409.064	224.59
409.272	355.66
409.481	290.13
409.69	300.37
409.898	296.27
410.107	316.75
410.315	333.14
410.524	288.08
410.733	320.85
410.941	343.38
411.15	365.9
411.358	367.95
411.567	380.24
411.775	361.81
411.984	402.77
412.192	464.21
412.401	386.38
412.609	466.25
412.818	505.17
413.026	449.87
413.234	484.69
413.443	548.17
413.651	580.94
413.86	546.12
414.068	574.8
414.276	664.91
414.485	572.75
414.693	689.48
414.901	709.96
415.11	597.32
415.318	716.11
415.526	728.39
415.734	712.01
415.943	750.92
416.151	881.99
416.359	857.42
416.567	922.95
416.776	898.38
416.984	834.89
417.192	1062.21
417.4	1035.59
417.608	947.53
417.817	1011.01
418.025	1156.42
418.233	1174.85
418.441	1176.9
418.649	1152.32
418.857	1291.59
419.065	1293.63
419.273	1250.63
419.481	1398.08
419.689	1402.18
419.897	1508.67
420.105	1586.49
420.313	1670.46
420.521	1719.61
420.729	1656.12
420.937	1596.73
421.145	1733.95
421.353	1885.5
421.561	2000.18
421.769	2028.85
421.977	1981.75
422.185	2004.28
422.393	2184.5
422.601	2276.66
422.809	2286.9
423.017	2268.47
423.224	2397.49
423.432	2411.82
423.64	2499.89
423.848	2776.36
424.056	2555.18
424.263	2776.36
424.471	2768.17
424.679	2889
424.887	3087.65
425.094	3136.81
425.302	3228.96
425.51	3171.62
425.718	3431.71
425.925	3372.32
426.133	3317.03
426.341	3652.89
426.548	3824.92
426.756	3771.68
426.964	3929.37
427.171	4197.65
427.379	4166.93
427.586	4398.35
427.794	4474.13
428.001	4609.3
428.209	5008.65
428.417	4756.75
428.624	5039.37
428.832	5022.98
429.039	5039.37
429.247	5162.25
429.454	5477.63
429.662	5905.66
429.869	5676.29
430.076	5874.94
430.284	5758.21
430.491	6102.26
430.699	6362.36
430.906	6307.06
431.114	6591.73
431.321	6630.64
431.528	6915.31
431.736	7261.41
431.943	7535.84
432.15	7150.82
432.358	7447.78
432.565	7783.65
432.772	8004.83
432.979	8461.52
433.187	8453.33
433.394	8629.46
433.601	9041.1
433.808	8961.23
434.016	8756.43
434.223	9311.43
434.43	9739.46
434.637	9739.46
434.844	10446.01
435.052	10407.09
435.259	10368.18
435.466	10351.8
435.673	10310.84
435.88	11238.57
436.087	11564.2
436.294	11631.78
436.501	11197.61
436.708	11682.98
436.915	11695.27
437.122	12600.47
437.329	12475.54
437.537	12733.59
437.743	13120.65
437.95	12897.42
438.157	13626.5
438.364	14052.48
438.571	13853.83
438.778	14081.15
438.985	15453.29
439.192	14826.61
439.399	15301.74
439.606	14814.32
439.813	15791.2
440.02	17032.27
440.227	16479.32
440.433	16110.69
440.64	16960.59
440.847	16698.45
441.054	17165.39
441.261	18455.61
441.467	18019.39
441.674	18226.24
441.881	19072.05
442.088	19010.61
442.294	18748.47
442.501	19129.39
442.708	19629.1
442.914	20407.33
443.121	21189.65
443.328	20624.41
443.534	22273.03
443.741	21638.16
443.948	21335.06
444.154	22739.96
444.361	22463.49
444.568	22653.95
444.774	22752.25
444.981	22791.16
445.187	23798.76
445.394	24703.96
445.6	24384.48
445.807	26760.12
446.013	25568.21
446.22	26239.94
446.426	26862.52
446.633	27431.86
446.839	28070.82
447.046	26645.44
447.252	28316.58
447.459	28289.96
447.665	28468.13
447.871	29733.78
448.078	30626.69
448.284	29404.05
448.491	30174.09
448.697	31226.74
448.903	32076.65
449.11	31583.09
449.316	31255.42
449.522	31992.69
449.728	32631.65
449.935	32947.04
450.141	33031.01
450.347	33741.65
450.553	32445.29
450.76	33033.05
450.966	33930.06
451.172	33065.82
451.378	34476.87
451.584	33327.96
451.791	34675.52
451.997	34202.44
452.203	35060.54
452.409	34732.87
452.615	34835.27
452.821	33127.26
453.027	32988
453.233	34925.38
453.44	33274.71
453.646	33856.34
453.852	33598.29
454.058	33868.62
454.264	33037.15
454.47	34022.22
454.676	32973.66
454.882	34259.79
455.088	31189.88
455.294	31943.53
455.5	31710.07
455.705	32058.22
455.911	31089.53
456.117	30213
456.323	30073.74
456.529	28263.33
456.735	29987.72
456.941	28857.24
457.147	28543.91
457.352	27667.38
457.558	26983.35
457.764	27384.76
457.97	26414.02
458.176	26270.66
458.381	26129.35
458.587	24904.67
458.793	24634.33
458.999	23661.55
459.204	25177.05
459.41	24855.51
459.616	23051.25
459.821	22692.86
460.027	22856.7
460.233	22068.23
460.438	21277.71
460.644	21685.26
460.85	20550.68
461.055	20036.64
461.261	20184.1
461.466	18605.11
461.672	18070.59
461.878	19565.61
462.083	18273.34
462.289	17658.95
462.494	17208.4
462.7	16919.64
462.905	16266.33
463.111	17058.9
463.316	16989.27
463.522	16538.71
463.727	16753.75
463.932	16845.91
464.138	16645.21
464.343	16524.38
464.549	15952.99
464.754	16622.68
464.959	16735.32
465.165	16444.51
465.37	15545.45
465.575	15348.84
465.781	15871.08
465.986	15920.23
466.191	15268.97
466.397	15254.64
466.602	14556.28
466.807	14914.67
467.012	14855.28
467.218	14746.74
467.423	14668.92
467.628	15008.88
467.833	15326.32
468.038	14722.16
468.244	14261.37
468.449	14861.43
468.654	14466.17
468.859	14191.74
469.064	14238.84
469.269	13681.8
469.474	13894.79
469.679	13972.61
469.885	13808.77
470.09	13931.65
470.295	13964.42
470.5	13413.51
470.705	13409.42
470.91	13231.24
471.115	13296.78
471.32	13255.82
471.525	13347.98
471.73	12821.65
471.935	12790.93
472.139	12450.97
472.344	12577.94
472.549	12446.87
472.754	12358.81
472.959	12098.72
473.164	11787.43
473.369	11426.98
473.574	12168.35
473.778	11891.87
473.983	11842.72
474.188	11873.44
474.393	11336.87
474.598	11295.91
474.802	11302.06
475.007	11072.68
475.212	11263.15
475.417	10759.35
475.621	10818.74
475.826	10906.8
476.031	10708.15
476.235	10362.04
476.44	10665.14
476.645	10366.14
476.849	10431.67
477.054	10417.33
477.259	10216.63
477.463	10050.75
477.668	9882.81
477.872	10085.56
478.077	9870.53
478.282	9761.98
478.486	9606.34
478.691	9223.37
478.895	9280.71
479.1	9354.44
479.304	9440.45
479.509	9102.54
479.713	9172.17
479.918	9137.35
480.122	8996.04
480.326	9170.12
480.531	9043.15
480.735	8864.97
480.94	9026.76
481.144	9168.07
481.348	8914.13
481.553	9057.48
481.757	8594.64
481.961	8768.72
482.166	9002.19
482.37	8766.67
482.574	8651.99
482.778	8690.9
482.983	8799.44
483.187	8795.34
483.391	8613.07
483.595	8682.7
483.8	8617.17
484.004	8735.95
484.208	8920.27
484.412	8715.47
484.616	8756.43
484.821	8809.68
485.025	8520.92
485.229	8740.05
485.433	8647.89
485.637	8510.68
485.841	8787.15
486.045	8619.22
486.249	8578.26
486.453	8580.31
486.657	8633.55
486.861	8910.03
487.065	8627.41
487.269	8627.41
487.473	8574.16
487.677	8916.17
487.881	8926.41
488.085	8510.68
488.289	8867.02
488.493	8430.8
488.697	8873.17
488.901	8717.52
489.105	8750.29
489.309	8955.08
489.512	8813.77
489.716	8846.54
489.92	8840.4
490.124	8809.68
490.328	8897.74
490.531	8848.59
490.735	8967.37
490.939	9082.06
491.143	8975.56
491.346	9053.39
491.55	9209.03
491.754	9055.44
491.958	9209.03
492.161	9352.39
492.365	9403.59
492.569	9372.87
492.772	9139.4
492.976	9319.62
493.18	9467.08
493.383	9606.34
493.587	9551.04
493.79	9579.72
493.994	9579.72
494.197	9839.81
494.401	9911.49
494.605	9823.42
494.808	9778.37
495.012	9999.55
495.215	9868.48
495.419	10200.25
495.622	10009.79
495.825	10415.29
496.029	10265.78
496.232	10208.44
496.436	10456.25
496.639	10658.99
496.843	10683.57
497.046	10808.5
497.249	10972.33
497.453	10878.13
497.656	11205.8
497.859	11205.8
498.063	11349.16
498.266	11515.05
498.469	11467.94
498.673	11725.99
498.876	11883.68
499.079	12065.95
499.282	11773.09
499.485	12211.35
499.689	12108.96
499.892	12192.92
500.095	12278.94
500.298	12846.23
500.501	12520.6
500.705	12958.86
500.908	13059.21
501.111	13077.65
501.314	13225.1
501.517	13493.38
501.72	13763.72
501.923	13544.58
502.126	14009.47
502.329	14195.84
502.532	14234.75
502.735	14617.72
502.938	14822.52
503.141	14664.82
503.344	14943.35
503.547	15137.9
503.75	15262.83
503.953	15529.06
504.156	15545.45
504.359	15590.5
504.562	15987.81
504.765	16362.59
504.968	16282.72
505.17	16456.79
505.373	16626.78
505.576	16868.44
505.779	16976.98
505.982	17155.15
506.185	17421.39
506.387	17570.89
506.59	17728.58
506.793	18281.53
506.996	17974.34
507.198	18646.07
507.401	18295.87
507.604	18719.8
507.807	18869.3
508.009	19207.22
508.212	19172.4
508.415	19383.34
508.617	19862.57
508.82	19661.87
509.022	19651.63
509.225	20454.43
509.428	20196.39
509.63	20493.34
509.833	20440.09
510.035	21210.13
510.238	21130.26
510.44	21435.41
510.643	21832.71
510.845	21926.92
511.048	21703.69
511.25	22391.81
511.453	22242.31
511.655	23292.91
511.858	22866.94
512.06	23448.56
512.262	23624.68
512.465	23385.07
512.667	23796.71
512.87	24241.12
513.072	23882.73
513.274	24824.79
513.477	25097.17
513.679	25230.29
513.881	25502.67
514.084	25867.21
514.286	25658.32
514.488	25899.98
514.69	26762.17
514.893	26559.42
515.095	26725.31
515.297	26940.35
515.499	27327.41
515.701	27796.4
515.904	27659.18
516.106	28031.91
516.308	28375.97
516.51	28459.94
516.712	28660.64
516.914	29148.06
517.116	29488.02
517.318	29854.61
517.52	29926.28
517.722	29784.97
517.925	30729.09
518.127	30673.79
518.329	30927.74
518.531	30571.39
518.733	31656.82
518.935	31716.21
519.136	31746.93
519.338	32562.02
519.54	32373.61
519.742	32627.56
519.944	33299.29
520.146	33426.26
520.348	33790.8
520.55	33715.03
520.752	34376.52
520.954	34614.09
521.155	34120.52
521.357	34995.01
521.559	35044.16
521.761	35509.05
521.963	35672.88
522.164	36129.58
522.366	36117.29
522.568	36186.93
522.77	36872.99
522.971	37155.61
523.173	37344.03
523.375	37356.32
523.576	37591.83
523.778	37825.3
523.98	38130.45
524.181	38664.97
524.383	38484.75
524.584	38537.99
524.786	39097.09
524.988	38822.66
525.189	39627.51
525.391	39813.88
525.592	39914.23
525.794	40250.1
525.995	40147.7
526.197	40528.62
526.398	40753.9
526.6	40661.74
526.801	41188.06
527.003	40688.36
527.204	41046.75
527.406	41878.23
527.607	41319.13
527.808	41900.76
528.01	41573.08
528.211	41554.65
528.412	42369.74
528.614	42365.65
528.815	42601.16
529.016	42879.69
529.218	42275.54
529.419	42836.68
529.62	42609.36
529.822	42846.92
530.023	42412.75
530.224	43119.3
530.425	43322.05
530.626	42738.38
530.828	42861.26
531.029	43997.88
531.23	43535.04
531.431	43639.48
531.632	43535.04
531.833	43952.82
532.035	43762.36
532.236	44024.5
532.437	44061.36
532.638	43754.17
532.839	44321.46
533.04	44217.01
533.241	44174
533.442	44606.12
533.643	44409.52
533.844	44151.48
534.045	44706.48
534.246	43670.2
534.447	44626.6
534.648	44499.63
534.849	44645.04
535.05	44292.79
535.251	44190.39
535.451	44184.24
535.652	44913.32
535.853	44595.88
536.054	44829.35
536.255	44841.64
536.456	44253.87
536.657	44909.22
536.857	44546.73
537.058	44288.69
537.259	45077.16
537.46	45341.35
537.66	44589.74
537.861	44913.32
538.062	44747.43
538.263	45157.03
538.463	44673.71
538.664	44886.7
538.865	45271.71
539.065	45249.19
539.266	44513.97
539.466	45251.23
539.667	44182.2
539.868	45011.62
540.068	44698.28
540.269	44614.32
540.469	45359.78
540.67	44692.14
540.87	44518.06
541.071	44935.85
541.271	44714.67
541.472	45021.86
541.672	44753.58
541.873	44681.9
542.073	44661.42
542.274	45329.06
542.474	44868.26
542.675	44071.6
542.875	44970.66
543.075	44679.85
543.276	44425.9
543.476	44720.81
543.676	44788.39
543.877	44786.35
544.077	44485.29
544.277	44364.46
544.478	44649.13
544.678	44849.83
544.878	44432.05
545.078	44960.42
545.279	44202.67
545.479	44280.5
545.679	44458.67
545.879	44446.38
546.079	44855.98
546.28	44839.59
546.48	44262.07
546.68	44673.71
546.88	44417.71
547.08	44257.97
547.28	44669.61
547.48	44124.85
547.68	44350.13
547.88	44165.81
548.081	44720.81
548.281	44313.27
548.481	44571.31
548.681	44917.42
548.881	44288.69
549.081	44567.21
549.28	43948.73
549.48	44487.34
549.68	44335.79
549.88	44839.59
550.08	44034.74
550.28	44401.33
550.48	44038.84
550.68	44524.21
550.88	44053.17
551.08	44268.21
551.279	44624.56
551.479	44104.37
551.679	44282.55
551.879	44049.08
552.079	44440.24
552.278	44239.54
552.478	43934.39
552.678	44014.26
552.878	44274.35
553.077	43776.7
553.277	43727.55
553.477	44556.97
553.676	43748.03
553.876	43829.94
554.076	43823.8
554.275	43821.75
554.475	43410.11
554.674	43854.52
554.874	43809.46
555.074	43684.54
555.273	43915.96
555.473	43991.73
555.672	43739.83
555.872	43838.14
556.071	43772.6
556.271	44247.73
556.47	43219.65
556.67	43342.53
556.869	43252.42
557.068	43741.88
557.268	42859.21
557.467	43127.49
557.667	43027.14
557.866	43174.59
558.065	43285.18
558.265	42900.17
558.464	43018.95
558.663	43551.42
558.863	42506.96
559.062	43203.27
559.261	42601.16
559.461	43268.8
559.66	42394.32
559.859	42844.87
560.058	42224.34
560.258	42678.99
560.457	42015.44
560.656	42670.79
560.855	41720.54
561.054	42459.85
561.253	42166.99
561.453	41771.74
561.652	42224.34
561.851	42291.92
562.05	41937.62
562.249	41622.23
562.448	41462.49
562.647	41814.74
562.846	41489.12
563.045	41128.67
563.244	40991.46
563.443	41659.1
563.642	40610.54
563.841	40958.69
564.04	40577.77
564.239	41171.68
564.438	40458.99
564.637	41059.04
564.836	40987.36
565.035	40127.22
565.234	40846.05
565.432	40241.9
565.631	40004.34
565.83	40610.54
566.029	40159.98
566.228	39961.33
566.427	40159.98
566.625	39754.49
566.824	39267.07
567.023	39686.9
567.222	39068.42
567.42	39281.41
567.619	39602.94
567.818	39105.28
568.016	39389.95
568.215	39201.54
568.414	39029.51
568.612	39101.18
568.811	38537.99
569.01	38732.55
569.208	38218.51
569.407	38894.34
569.605	38245.13
569.804	38554.38
570.002	37899.03
570.201	38378.25
570.4	37952.27
570.598	37894.93
570.797	37546.78
570.995	37927.7
571.193	37231.39
571.392	37346.08
571.59	37192.48
571.789	37227.29
571.987	37071.65
572.186	37239.58
572.384	36700.97
572.582	36592.42
572.781	37002.02
572.979	36326.19
573.177	36461.35
573.376	36739.88
573.574	35928.88
573.772	36557.61
573.971	36127.53
574.169	35900.21
574.367	35736.37
574.565	36025.14
574.763	35443.51
574.962	35769.14
575.16	35228.48
575.358	35257.15
575.556	35517.24
575.754	35461.94
575.952	35066.69
576.151	34995.01
576.349	34644.8
576.547	34702.15
576.745	34753.35
576.943	34796.35
577.141	34745.16
577.339	34753.35
577.537	34569.03
577.735	34282.31
577.933	34327.37
578.131	34480.97
578.329	33772.37
578.527	33315.67
578.725	33856.34
578.923	33667.92
579.121	33575.76
579.319	33287
579.516	33530.71
579.714	33579.86
579.912	33061.72
580.11	33108.83
580.308	33399.64
580.506	33119.07
580.704	32385.9
580.901	32885.6
581.099	32578.4
581.297	32574.31
581.495	32494.44
581.692	32705.38
581.89	32367.46
582.088	32424.81
582.285	32140.14
582.483	32383.85
582.681	32326.5
582.878	31841.14
583.076	31796.08
583.274	32043.88
583.471	31705.97
583.669	31705.97
583.866	31691.63
584.064	31705.97
584.262	30788.48
584.459	31366.01
584.657	30851.97
584.854	31017.85
585.052	30385.03
585.249	31333.24
585.447	30751.62
585.644	30387.08
585.841	30612.35
586.039	30849.92
586.236	30061.45
586.434	30321.54
586.631	30264.2
586.828	30112.65
587.026	30129.03
587.223	29895.57
587.42	29830.03
587.618	30004.11
587.815	29381.52
588.012	29232.02
588.21	29768.59
588.407	29729.68
588.604	29494.16
588.801	29199.26
588.999	29201.3
589.196	29201.3
589.393	29256.6
589.59	28855.2
589.787	28572.58
589.984	28650.4
590.182	28597.15
590.379	28783.52
590.576	28617.63
590.773	28779.42
590.97	28146.6
591.167	28267.43
591.364	28025.77
591.561	28128.17
591.758	27949.99
591.955	28042.15
592.152	27857.84
592.349	28195.75
592.546	27653.04
592.743	27739.05
592.94	27468.72
593.137	27702.19
593.334	27812.78
593.531	27065.27
593.727	27470.77
593.924	27165.62
594.121	27093.94
594.318	27071.42
594.515	26651.58
594.712	27085.75
594.908	26500.03
595.105	26743.74
595.302	26629.06
595.499	26674.11
595.696	26516.42
595.892	26174.41
596.089	26172.36
596.286	26491.84
596.482	25983.94
596.679	25955.27
596.876	25940.94
597.072	25807.82
597.269	25914.31
597.466	25404.37
597.662	25525.2
597.859	25707.47
598.055	25359.31
598.252	25754.57
598.448	25406.42
598.645	25351.12
598.841	24990.68
599.038	25052.12
599.234	24953.82
599.431	24857.56
599.627	24421.34
599.824	24814.55
600.02	24189.92
600.217	24736.73
600.413	24517.6
600.609	24462.3
600.806	24124.39
601.002	24335.33
601.198	24040.42
601.395	24021.99
601.591	24017.89
601.787	23798.76
601.984	23923.69
602.18	23829.48
602.376	23905.26
602.572	23362.54
602.769	23659.5
602.965	23661.55
603.161	23655.4
603.357	23352.31
603.553	23380.98
603.75	23264.24
603.946	22787.07
604.142	23309.3
604.338	22950.9
604.534	23079.93
604.73	22844.41
604.926	22696.95
605.122	22586.36
605.318	23002.1
605.514	22488.06
605.71	22461.44
605.906	22434.81
606.102	22346.75
606.298	22432.77
606.494	22377.47
606.69	22174.72
606.886	22367.23
607.082	21988.36
607.278	22051.84
607.474	21724.17
607.67	22023.17
607.866	21312.53
608.062	21885.96
608.257	21605.39
608.453	21830.66
608.649	21791.75
608.845	21738.51
609.041	21421.07
609.236	21572.62
609.432	21476.37
609.628	21435.41
609.824	21445.65
610.019	21218.32
610.215	21433.36
610.411	21328.91
610.606	20917.27
610.802	21203.99
610.998	21308.43
611.193	20872.21
611.389	20888.6
611.584	20765.72
611.78	21066.77
611.976	20663.32
612.171	20616.22
612.367	20958.23
612.562	20556.83
612.758	20448.29
612.953	20212.77
613.149	20902.93
613.344	20417.57
613.539	20573.21
613.735	20392.99
613.93	20421.66
614.126	20227.1
614.321	20233.25
614.517	20327.46
614.712	19958.82
614.907	20141.09
615.103	20030.5
615.298	19991.59
615.493	20317.22
615.688	19907.62
615.884	20212.77
616.079	19450.92
616.274	19797.03
616.47	19688.49
616.665	19708.97
616.86	19592.23
617.055	19409.97
617.25	19487.79
617.445	19770.41
617.641	19270.7
617.836	19407.92
618.031	19260.46
618.226	19526.7
618.421	19344.43
618.616	19070
618.811	18775.09
619.006	19498.03
619.201	18865.21
619.396	19024.95
619.591	18488.38
619.786	18940.98
619.981	18691.13
620.176	18650.17
620.371	18480.19
620.566	18537.53
620.761	18394.17
620.956	18521.15
621.151	18146.37
621.346	18121.79
621.541	17763.4
621.735	18238.53
621.93	17583.18
622.125	17755.21
622.32	17622.09
622.515	17507.4
622.709	17622.09
622.904	17370.19
623.099	17398.86
623.294	17615.94
623.488	17284.17
623.683	17065.04
623.878	16890.96
624.072	16800.85
624.267	16784.47
624.462	17073.23
624.656	16751.7
624.851	16751.7
625.046	16450.65
625.24	16581.72
625.435	16389.21
625.629	16321.63
625.824	15985.76
626.018	16172.13
626.213	15848.55
626.407	15926.37
626.602	15711.33
626.796	15709.29
626.991	15561.83
627.185	15656.04
627.38	15287.4
627.574	15572.07
627.768	15268.97
627.963	15107.18
628.157	15096.94
628.352	15342.7
628.546	14873.71
628.74	15217.77
628.935	14740.6
629.129	14896.24
629.323	14675.06
629.517	14570.61
629.712	14607.48
629.906	14716.02
630.1	14353.53
630.294	14374.01
630.489	14218.36
630.683	14234.75
630.877	13945.98
631.071	14060.67
631.265	14150.78
631.459	13900.93
631.653	13843.59
631.848	13847.68
632.042	13468.81
632.236	13763.72
632.43	13544.58
632.624	13503.62
632.818	13354.12
633.012	13173.9
633.206	13302.92
633.4	13083.79
633.594	13038.73
633.788	13128.84
633.982	12969.1
634.176	13153.42
634.369	12889.23
634.563	12723.35
634.757	12833.94
634.951	12766.35
635.145	12543.13
635.339	12780.69
635.533	12237.98
635.726	12381.34
635.92	12270.75
636.114	12319.9
636.308	12221.59
636.501	11984.03
636.695	12221.59
636.889	11938.98
637.083	11748.51
637.276	12090.52
637.47	11824.29
637.664	11658.4
637.857	11674.79
638.051	11621.54
638.244	11257
638.438	11531.43
638.632	11496.61
638.825	11201.71
639.019	11404.46
639.212	11179.18
639.406	11175.08
639.599	11277.48
639.793	11168.94
639.986	10880.18
640.18	11097.26
640.373	10933.42
640.567	10730.67
640.76	10910.89
640.954	10484.92
641.147	10454.2
641.34	10663.09
641.534	10464.44
641.727	10441.91
641.92	10269.88
642.114	10349.75
642.307	10167.48
642.5	10060.99
642.694	10138.81
642.887	9964.73
643.08	10030.27
643.273	9972.93
643.467	10015.93
643.66	9970.88
643.853	9667.78
644.046	9624.77
644.239	9823.42
644.432	9542.85
644.626	9573.57
644.819	9508.04
645.012	9481.41
645.205	9458.89
645.398	9387.21
645.591	9159.88
645.784	9444.55
645.977	9133.26
646.17	9331.91
646.363	9264.33
646.556	9012.43
646.749	8842.45
646.942	8940.75
647.135	8881.36
647.328	8944.84
647.521	8705.23
647.714	8719.57
647.907	8793.3
648.099	8594.64
648.292	8654.03
648.485	8697.04
648.678	8522.96
648.871	8418.52
649.064	8428.76
649.256	8533.2
649.449	8361.17
649.642	8408.28
649.835	8158.42
650.027	8283.35
650.22	8234.2
650.413	8307.93
650.605	8189.14
650.798	8309.97
650.991	7986.4
651.183	7986.4
651.376	7980.25
651.568	7980.25
651.761	7845.09
651.954	8013.02
652.146	7967.96
652.339	8008.92
652.531	7732.45
652.724	7716.06
652.916	7664.86
653.109	7671.01
653.301	7687.39
653.494	7687.39
653.686	7390.44
653.879	7482.6
654.071	7621.86
654.263	7306.47
654.456	7292.13
654.648	7335.14
654.84	7175.4
655.033	7210.22
655.225	7179.5
655.417	7087.34
655.61	7138.54
655.802	7242.98
655.994	7077.1
656.186	7009.51
656.379	6962.41
656.571	6843.63
656.763	6880.49
656.955	6835.44
657.148	6743.28
657.34	6896.88
657.532	6536.43
657.724	6780.14
657.916	6747.37
658.108	6630.64
658.3	6681.84
658.492	6610.16
658.684	6585.58
658.876	6667.5
659.068	6507.76
659.26	6391.03
659.452	6540.53
659.644	6223.09
659.836	6431.99
660.028	6413.56
660.22	6319.35
660.412	6464.75
660.604	6313.2
660.796	6335.73
660.988	6071.54
661.18	6178.04
661.372	5971.19
661.563	6145.27
661.755	6030.59
661.947	6186.23
662.139	6087.93
662.331	5987.58
662.522	5991.67
662.714	5887.23
662.906	5709.05
663.097	6008.06
663.289	5811.45
663.481	5803.26
663.673	5682.43
663.864	5713.15
664.056	5616.9
664.247	5604.61
664.439	5512.45
664.631	5530.88
664.822	5416.19
665.014	5580.03
665.205	5614.85
665.397	5461.25
665.588	5645.57
665.78	5440.77
665.971	5508.35
666.163	5408
666.354	5446.91
666.546	5565.7
666.737	5166.34
666.929	5252.36
667.12	5342.47
667.311	5418.24
667.503	5426.43
667.694	5149.96
667.885	5092.62
668.077	5405.95
668.268	5260.55
668.459	5268.74
668.651	5205.25
668.842	5143.81
669.033	5160.2
669.224	5098.76
669.416	5309.7
669.607	5203.21
669.798	5080.33
669.989	5092.62
670.18	5055.75
670.371	4953.35
670.563	4928.78
670.754	5158.15
670.945	5096.71
671.136	4916.49
671.327	4979.98
671.518	4787.47
671.709	4934.92
671.9	4916.49
672.091	4883.72
672.282	4881.67
672.473	4912.39
672.664	5016.84
672.855	4773.13
673.046	4830.48
673.237	4867.34
673.428	4955.4
673.619	4728.08
673.809	4773.13
674	4764.94
674.191	4801.8
674.382	4810
674.573	4777.23
674.764	4693.26
674.954	4783.37
675.145	4650.25
675.336	4539.66
675.527	4584.72
675.717	4721.93
675.908	4586.77
676.099	4781.32
676.289	4670.73
676.48	4783.37
676.671	4582.67
676.861	4701.45
677.052	4486.42
677.243	4527.38
677.433	4650.25
677.624	4660.49
677.814	4766.99
678.005	4521.23
678.195	4558.1
678.386	4570.38
678.576	4650.25
678.767	4474.13
678.957	4510.99
679.148	4556.05
679.338	4578.58
679.529	4420.88
679.719	4558.1
679.909	4691.21
680.1	4502.8
680.29	4513.04
680.481	4435.22
680.671	4572.43
680.861	4513.04
681.052	4697.36
681.242	4545.81
681.432	4484.37
681.622	4564.24
681.813	4490.51
682.003	4463.89
682.193	4396.31
682.383	4537.62
682.573	4609.3
682.764	4547.86
682.954	4502.8
683.144	4334.87
683.334	4496.66
683.524	4480.27
683.714	4365.59
683.904	4441.36
684.094	4496.66
684.284	4359.44
684.474	4439.31
684.664	4523.28
684.854	4476.18
685.044	4449.55
685.234	4330.77
685.424	4392.21
685.614	4377.87
685.804	4531.47
685.994	4318.48
686.184	4300.05
686.374	4365.59
686.564	4504.85
686.753	4398.35
686.943	4261.14
687.133	4332.82
687.323	4191.51
687.513	4394.26
687.702	4257.04
687.892	4263.19
688.082	4191.51
688.272	4117.78
688.461	4222.23
688.651	4308.24
688.841	4005.14
689.03	4218.13
689.22	4115.73
689.41	4164.89
689.599	4144.41
689.789	3994.9
689.979	3915.03
690.168	4066.58
690.358	4025.62
690.547	4031.77
690.737	4078.87
690.926	4070.68
691.116	3816.73
691.305	4031.77
691.495	3937.56
691.684	3818.78
691.874	3915.03
692.063	3943.71
692.252	3960.09
692.442	3865.88
692.631	3710.24
692.82	3859.74
693.01	3808.54
693.199	3810.59
693.388	3630.37
693.578	3781.92
693.767	3773.72
693.956	3753.24
694.146	3681.57
694.335	3677.47
694.524	3857.69
694.713	3788.06
694.902	3597.6
695.092	3773.72
695.281	3570.97
695.47	3609.89
695.659	3564.83
695.848	3620.13
696.037	3704.09
696.226	3687.71
696.415	3626.27
696.604	3544.35
696.793	3605.79
696.982	3636.51
697.171	3718.43
697.36	3652.89
697.549	3499.3
697.738	3515.68
697.927	3669.28
698.116	3523.87
698.305	3474.72
698.494	3656.99
698.683	3607.84
698.872	3523.87
699.061	3616.03
699.25	3530.02
699.438	3513.63
699.627	3511.58
699.816	3591.45
700.005	3628.32
700.193	3503.39
700.382	3603.74
700.571	3568.93
700.76	3368.23
700.948	3489.06
701.137	3536.16
701.326	3513.63
701.514	3548.45
701.703	3622.17
701.892	3499.3
702.08	3640.61
702.269	3386.66
702.457	3530.02
702.646	3589.41
702.834	3568.93
703.023	3505.44
703.212	3400.99
703.4	3583.26
703.589	3384.61
703.777	3556.64
703.965	3464.48
704.154	3632.41
704.342	3589.41
704.531	3620.13
704.719	3333.41
704.907	3405.09
705.096	3347.75
705.284	3458.34
705.472	3601.69
705.661	3519.78
705.849	3554.59
706.037	3464.48
706.226	3421.47
706.414	3474.72
706.602	3462.43
706.79	3405.09
706.979	3552.54
707.167	3558.69
707.355	3411.23
707.543	3581.21
707.731	3544.35
707.919	3339.55
708.107	3609.89
708.296	3534.11
708.484	3347.75
708.672	3536.16
708.86	3489.06
709.048	3575.07
709.236	3425.57
709.424	3523.87
709.612	3583.26
709.8	3458.34
709.988	3378.47
710.176	3421.47
710.364	3441.95
710.551	3482.91
710.739	3357.99
710.927	3470.62
711.115	3515.68
711.303	3620.13
711.491	3513.63
711.679	3386.66
711.866	3415.33
712.054	3431.71
712.242	3439.9
712.43	3462.43
712.617	3427.62
712.805	3491.1
712.993	3501.34
713.181	3403.04
713.368	3478.82
713.556	3429.66
713.744	3327.27
713.931	3474.72
714.119	3446.05
714.306	3431.71
714.494	3525.92
714.682	3425.57
714.869	3489.06
715.057	3409.19
715.244	3441.95
715.432	3476.77
715.619	3552.54
715.807	3497.25
715.994	3478.82
716.182	3425.57
716.369	3452.19
716.556	3351.84
716.744	3413.28
716.931	3298.6
717.119	3525.92
717.306	3390.75
717.493	3429.66
717.681	3562.78
717.868	3398.95
718.055	3507.49
718.242	3409.19
718.43	3400.99
718.617	3462.43
718.804	3310.88
718.991	3622.17
719.179	3405.09
719.366	3360.03
719.553	3517.73
719.74	3466.53
719.927	3429.66
720.114	3419.43
720.301	3349.79
720.488	3415.33
720.676	3335.46
720.863	3484.96
721.05	3429.66
721.237	3327.27
721.424	3390.75
721.611	3390.75
721.798	3341.6
721.985	3335.46
722.172	3214.63
722.358	3470.62
722.545	3378.47
722.732	3298.6
722.919	3341.6
723.106	3333.41
723.293	3374.37
723.48	3388.71
723.667	3298.6
723.853	3314.98
724.04	3331.36
724.227	3286.31
724.414	3392.8
724.6	3423.52
724.787	3448.1
724.974	3271.97
725.161	3253.54
725.347	3263.78
725.534	3398.95
725.72	3448.1
725.907	3357.99
726.094	3384.61
726.28	3267.88
726.467	3343.65
726.653	3298.6
726.84	3298.6
727.027	3413.28
727.213	3376.42
727.4	3308.83
727.586	3329.31
727.773	3140.9
727.959	3282.21
728.145	3306.79
728.332	3271.97
728.518	3257.64
728.705	3257.64
728.891	3265.83
729.077	3308.83
729.264	3208.48
729.45	3210.53
729.636	3362.08
729.823	3106.09
730.009	3095.85
730.195	3319.07
730.382	3188
730.568	3241.25
730.754	3142.95
730.94	3157.29
731.126	3308.83
731.313	3263.78
731.499	3243.3
731.685	3317.03
731.871	3245.35
732.057	3192.1
732.243	3192.1
732.429	3081.51
732.615	3267.88
732.801	3263.78
732.987	3237.16
733.173	3196.2
733.359	3231.01
733.545	3233.06
733.731	3200.29
733.917	3304.74
734.103	3175.72
734.289	3237.16
734.475	3155.24
734.661	3077.41
734.847	3233.06
735.033	3136.81
735.219	3214.63
735.404	3145
735.59	3163.43
735.776	3093.8
735.962	3138.85
736.148	3198.24
736.333	3188
736.519	3155.24
736.705	3175.72
736.89	3155.24
737.076	3071.27
737.262	3001.64
737.447	3083.56
737.633	3046.69
737.819	3175.72
738.004	3020.07
738.19	3052.84
738.375	2925.86
738.561	3118.37
738.747	3005.74
738.932	3079.46
739.118	2999.59
739.303	3054.89
739.489	3001.64
739.674	2946.34
739.859	3015.98
740.045	3040.55
740.23	2835.75
740.416	2893.1
740.601	2968.87
740.786	2921.77
740.972	3026.22
741.157	3026.22
741.342	2909.48
741.528	2811.18
741.713	2880.81
741.898	2809.13
742.084	2917.67
742.269	2835.75
742.454	2848.04
742.639	2852.14
742.824	2762.03
743.01	2827.56
743.195	2903.34
743.38	2843.95
743.565	2821.42
743.75	2796.84
743.935	2616.62
744.12	2751.79
744.305	2604.33
744.49	2610.48
744.675	2815.27
744.86	2647.34
745.045	2630.96
745.23	2657.58
745.415	2682.16
745.6	2583.85
745.785	2587.95
745.97	2508.08
746.155	2630.96
746.34	2514.22
746.525	2524.46
746.71	2594.09
746.895	2465.07
747.079	2483.5
747.264	2479.41
747.449	2499.89
747.634	2460.98
747.819	2458.93
748.003	2428.21
748.188	2544.94
748.373	2454.83
748.557	2450.74
748.742	2358.58
748.927	2430.26
749.111	2395.44
749.296	2325.81
749.481	2286.9
749.665	2241.84
749.85	2256.18
750.034	2303.28
750.219	2231.6
750.404	2213.17
750.588	2256.18
750.773	2151.73
750.957	2209.08
751.141	2112.82
751.326	2135.35
751.51	2006.33
751.695	2118.97
751.879	2172.21
752.064	2147.64
752.248	2123.06
752.432	2102.58
752.617	2000.18
752.801	2164.02
752.985	2035
753.17	1934.65
753.354	2004.28
753.538	1971.51
753.722	1926.46
753.907	1875.26
754.091	1912.12
754.275	1885.5
754.459	1819.96
754.643	1893.69
754.828	1748.28
755.012	1809.72
755.196	1910.07
755.38	1803.58
755.564	1752.38
755.748	1817.91
755.932	1787.19
756.116	1766.71
756.3	1797.43
756.484	1725.75
756.668	1748.28
756.852	1699.13
757.036	1699.13
757.22	1639.74
757.404	1588.54
757.588	1633.6
757.772	1682.75
757.956	1852.73
758.14	1692.99
758.323	1621.31
758.507	1582.4
758.691	1598.78
758.875	1623.36
759.059	1611.07
759.242	1555.77
759.426	1475.9
759.61	1570.11
759.794	1506.62
759.977	1492.29
760.161	1504.57
760.345	1502.53
760.528	1443.14
760.712	1549.63
760.895	1488.19
761.079	1400.13
761.263	1482.05
761.446	1523.01
761.63	1377.6
761.813	1551.68
761.997	1432.9
762.18	1441.09
762.364	1381.7
762.547	1434.94
762.731	1357.12
762.914	1459.52
763.098	1281.35
763.281	1328.45
763.464	1469.76
763.648	1373.5
763.831	1385.79
764.015	1318.21
764.198	1359.17
764.381	1353.02
764.564	1328.45
764.748	1422.66
764.931	1307.97
765.114	1248.58
765.297	1252.67
765.481	1283.39
765.664	1310.02
765.847	1209.67
766.03	1250.63
766.213	1242.43
766.397	1287.49
766.58	1350.98
766.763	1244.48
766.946	1176.9
767.129	1310.02
767.312	1164.61
767.495	1193.28
767.678	1152.32
767.861	1131.84
768.044	1066.31
768.227	1137.99
768.41	1232.19
768.593	1238.34
768.776	1131.84
768.959	1129.8
769.142	1133.89
769.324	1054.02
769.507	1047.88
769.69	1129.8
769.873	1109.32
770.056	1127.75
770.239	1078.6
770.421	1072.45
770.604	1142.08
770.787	1094.98
770.97	1160.52
771.152	1025.35
771.335	1103.17
771.518	1156.42
771.7	1137.99
771.883	1054.02
772.066	1041.73
772.248	1035.59
772.431	1082.69
772.613	1045.83
772.796	1084.74
772.978	1006.92
773.161	1123.65
773.343	1015.11
773.526	1004.87
773.708	1013.06
773.891	914.76
774.073	957.77
774.256	935.24
774.438	965.96
774.621	881.99
774.803	1002.82
774.985	908.62
775.168	1013.06
775.35	937.29
775.532	849.22
775.715	902.47
775.897	902.47
776.079	906.57
776.261	994.63
776.444	886.09
776.626	922.95
776.808	947.53
776.99	845.13
777.173	791.88
777.355	826.7
777.537	918.86
777.719	826.7
777.901	783.69
778.083	820.55
778.265	820.55
778.447	896.33
778.629	824.65
778.811	812.36
778.993	795.98
779.175	812.36
779.357	820.55
779.539	789.83
779.721	787.79
779.903	859.46
780.085	718.15
780.267	822.6
780.449	759.11
780.631	738.63
780.812	744.78
780.994	742.73
781.176	720.2
781.358	752.97
781.54	712.01
781.721	669
781.903	763.21
782.085	720.2
782.267	671.05
782.448	607.56
782.63	613.71
782.812	660.81
782.993	703.82
783.175	669
783.357	609.61
783.538	638.28
783.72	638.28
783.901	576.84
784.083	652.62
784.264	623.95
784.446	554.32
784.627	539.98
784.809	605.52
784.99	621.9
785.172	595.28
785.353	603.47
785.535	587.08
785.716	546.12
785.897	507.21
786.079	548.17
786.26	601.42
786.441	589.13
786.623	537.93
786.804	490.83
786.985	507.21
787.167	582.99
787.348	482.64
787.529	519.5
787.71	564.56
787.891	589.13
788.073	539.98
788.254	552.27
788.435	554.32
788.616	574.8
788.797	476.49
788.978	484.69
789.159	417.1
789.34	554.32
789.522	466.25
789.703	505.17
789.884	535.89
790.065	578.89
790.246	505.17
790.427	509.26
790.607	447.82
790.788	472.4
790.969	480.59
791.15	408.91
791.331	390.48
791.512	509.26
791.693	349.52
791.874	396.62
792.054	513.36
792.235	392.53
792.416	316.75
792.597	398.67
792.778	509.26
792.958	482.64
793.139	380.24
793.32	357.71
793.5	392.53
793.681	517.45
793.862	425.29
794.042	322.9
794.223	324.94
794.404	474.45
794.584	392.53
794.765	458.06
794.945	439.63
795.126	408.91
795.306	382.29
795.487	374.1
795.667	427.34
795.848	419.15
796.028	337.23
796.209	388.43
796.389	370
796.57	419.15
796.75	349.52
796.93	345.42
797.111	380.24
797.291	329.04
797.471	300.37
797.652	302.42
797.832	382.29
798.012	384.34
798.192	341.33
798.373	363.86
798.553	261.46
798.733	447.82
798.913	267.6
799.093	361.81
799.274	300.37
799.454	294.22
799.634	367.95
799.814	314.7
799.994	345.42
800.174	322.9
800.354	372.05
800.534	298.32
800.714	286.03
800.894	339.28
801.074	263.51
801.254	290.13
801.434	312.66
801.614	247.12
801.794	247.12
801.974	918.86
802.154	337.23
802.334	296.27
802.514	255.31
802.693	288.08
802.873	240.98
803.053	269.65
803.233	329.04
803.413	294.22
803.592	277.84
803.772	259.41
803.952	363.86
804.131	197.97
804.311	378.19
804.491	398.67
804.67	255.31
804.85	234.83
805.03	275.79
805.209	300.37
805.389	273.75
805.568	216.4
805.748	279.89
805.928	351.57
806.107	316.75
806.287	249.17
806.466	218.45
806.646	251.22
806.825	281.94
807.004	197.97
807.184	300.37
807.363	232.79
807.543	263.51
807.722	247.12
807.901	288.08
808.081	288.08
808.26	273.75
808.439	300.37
808.619	210.26
808.798	281.94
808.977	210.26
809.156	214.35
809.336	222.55
809.515	247.12
809.694	228.69
809.873	208.21
810.052	238.93
810.231	308.56
810.411	259.41
810.59	179.54
810.769	226.64
810.948	161.11
811.127	148.82
811.306	251.22
811.485	265.55
811.664	243.03
811.843	195.92
812.022	243.03
812.201	161.11
812.38	230.74
812.559	181.59
812.737	210.26
812.916	152.92
813.095	212.31
813.274	202.07
813.453	152.92
813.632	195.92
813.811	308.56
813.989	146.77
814.168	181.59
814.347	136.53
814.526	173.39
814.704	234.83
814.883	247.12
815.062	152.92
815.24	226.64
815.419	126.29
815.598	175.44
815.776	146.77
815.955	148.82
816.133	140.63
816.312	185.68
816.49	202.07
816.669	181.59
816.847	163.15
817.026	220.5
817.204	161.11
817.383	181.59
817.561	218.45
817.74	279.89
817.918	97.62
818.097	220.5
818.275	191.83
818.453	118.1
818.632	208.21
818.81	214.35
818.988	111.96
819.167	77.14
819.345	208.21
819.523	202.07
819.701	107.86
819.879	150.87
820.058	169.3
820.236	191.83
820.414	177.49
820.592	195.92
820.77	169.3
820.948	214.35
821.127	157.01
821.305	146.77
821.483	87.38
821.661	171.35
821.839	163.15
822.017	187.73
822.195	128.34
822.373	245.07
822.551	157.01
822.729	173.39
822.907	167.25
823.085	173.39
823.262	132.44
823.44	181.59
823.618	144.72
823.796	46.42
823.974	116.05
824.152	146.77
824.329	83.28
824.507	169.3
824.685	136.53
824.863	99.67
825.04	152.92
825.218	107.86
825.396	154.96
825.574	163.15
825.751	202.07
825.929	138.58
826.107	124.24
826.284	175.44
826.462	179.54
826.639	87.38
826.817	140.63
826.994	171.35
827.172	154.96
827.349	165.2
827.527	126.29
827.704	157.01
827.882	116.05
828.059	85.33
828.237	140.63
828.414	167.25
828.591	122.2
828.769	36.18
828.946	154.96
829.124	75.09
829.301	140.63
829.478	181.59
829.655	140.63
829.833	107.86
830.01	132.44
830.187	161.11
830.364	81.24
830.542	83.28
830.719	111.96
830.896	171.35
831.073	185.68
831.25	126.29
831.427	185.68
831.604	165.2
831.782	60.76
831.959	138.58
832.136	120.15
832.313	157.01
832.49	71
832.667	116.05
832.844	93.52
833.021	134.48
833.198	83.28
833.374	105.81
833.551	56.66
833.728	64.85
833.905	81.24
834.082	99.67
834.259	81.24
834.436	116.05
834.612	50.52
834.789	124.24
834.966	122.2
835.143	152.92
835.319	21.85
835.496	167.25
835.673	99.67
835.85	140.63
836.026	87.38
836.203	148.82
836.38	21.85
836.556	27.99
836.733	95.57
836.909	81.24
837.086	138.58
837.262	73.04
837.439	60.76
837.616	105.81
837.792	95.57
837.968	128.34
838.145	68.95
838.321	9.56
838.498	91.48
838.674	165.2
838.851	83.28
839.027	58.71
839.203	97.62
839.38	9.56
839.556	56.66
839.732	116.05
839.909	103.76
840.085	97.62
840.261	30.04
840.437	171.35
840.614	62.8
840.79	146.77
840.966	107.86
841.142	64.85
841.318	75.09
841.494	9.56
841.671	105.81
841.847	75.09
842.023	9.56
842.199	105.81
842.375	89.43
842.551	58.71
842.727	77.14
842.903	42.32
843.079	83.28
843.255	68.95
843.431	97.62
843.607	107.86
843.783	7.51
843.959	99.67
844.134	27.99
844.31	50.52
844.486	46.42
844.662	25.94
844.838	58.71
845.013	89.43
845.189	58.71
845.365	95.57
845.541	36.18
845.716	79.19
845.892	77.14
846.068	91.48
846.244	79.19
846.419	85.33
846.595	66.9
846.77	32.08
846.946	58.71
847.122	27.99
847.297	83.28
847.473	159.06
847.648	48.47
847.824	23.89
847.999	46.42
848.175	46.42
848.35	122.2
848.526	34.13
848.701	50.52
848.876	107.86
849.052	107.86
849.227	73.04
849.403	13.65
849.578	23.89
849.753	54.61
849.929	71
850.104	83.28
850.279	62.8
850.454	91.48
850.63	36.18
850.805	1.37
850.98	138.58
851.155	21.85
851.33	109.91
851.505	13.65
851.681	89.43
851.856	23.89
852.031	27.99
852.206	34.13
852.381	83.28
852.556	-0.68
852.731	79.19
852.906	75.09
853.081	48.47
853.256	79.19
853.431	7.51
853.606	50.52
853.781	46.42
853.956	-41.64
854.131	60.76
854.305	50.52
854.48	81.24
854.655	-8.87
854.83	1.37
855.005	42.32
855.18	11.61
855.354	50.52
855.529	93.52
855.704	11.61
855.879	75.09
856.053	38.23
856.228	3.41
856.403	46.42
856.577	-21.16
856.752	30.04
856.926	52.56
857.101	68.95
857.276	44.37
857.45	66.9
857.625	64.85
857.799	97.62
857.974	-10.92
858.148	-58.03
858.323	36.18
858.497	75.09
858.672	138.58
858.846	58.71
859.02	142.68
859.195	-41.64
859.369	83.28
859.543	-10.92
859.718	85.33
859.892	-43.69
860.066	116.05
860.241	85.33
860.415	38.23
860.589	23.89
860.763	64.85
860.938	13.65
861.112	71
861.286	-12.97
861.46	36.18
861.634	11.61
861.808	89.43
861.982	83.28
862.157	64.85
862.331	34.13
862.505	91.48
862.679	32.08
862.853	64.85
863.027	-0.68
863.201	107.86
863.375	3.41
863.549	50.52
863.722	68.95
863.896	91.48
864.07	48.47
864.244	-8.87
864.418	62.8
864.592	32.08
864.766	30.04
864.939	1.37
865.113	48.47
865.287	58.71
865.461	-12.97
865.634	21.85
865.808	3.41
865.982	52.56
866.156	23.89
866.329	-10.92
866.503	40.28
866.676	25.94
866.85	1.37
867.024	68.95
867.197	71
867.371	79.19
867.544	44.37
867.718	11.61
867.891	1.37
868.065	52.56
868.238	13.65
868.412	83.28
868.585	-21.16
868.759	60.76
868.932	9.56
869.105	-0.68
869.279	44.37
869.452	13.65
869.625	23.89
869.799	-2.73
869.972	-41.64
870.145	-4.78
870.319	50.52
870.492	-15.02
870.665	27.99
870.838	64.85
871.011	-12.97
871.185	62.8
871.358	-39.59
871.531	52.56
871.704	-10.92
871.877	40.28
872.05	21.85
872.223	-33.45
872.396	103.76
872.569	7.51
872.742	-15.02
872.915	62.8
873.088	85.33
873.261	81.24
873.434	73.04
873.607	-72.36
873.78	9.56
873.953	1.37
874.126	83.28
874.299	25.94
874.471	-10.92
874.644	-6.83
874.817	-55.98
874.99	46.42
875.163	7.51
875.335	64.85
875.508	17.75
875.681	50.52
875.853	42.32
876.026	46.42
876.199	-15.02
876.371	27.99
876.544	32.08
876.717	46.42
876.889	15.7
877.062	21.85
877.234	-6.83
877.407	32.08
877.579	54.61
877.752	62.8
877.924	79.19
878.097	50.52
878.269	25.94
878.442	25.94
878.614	1.37
878.786	9.56
878.959	30.04
879.131	54.61
879.303	-66.22
879.476	44.37
879.648	-10.92
879.82	46.42
879.993	15.7
880.165	-12.97
880.337	-12.97
880.509	60.76
880.681	-17.07
880.854	-21.16
881.026	7.51
881.198	38.23
881.37	7.51
881.542	-8.87
881.714	48.47
881.886	-10.92
882.058	1.37
882.23	-23.21
882.402	5.46
882.574	5.46
882.746	7.51
882.918	48.47
883.09	83.28
883.262	5.46
883.434	38.23
883.606	21.85
883.778	9.56
883.95	93.52
884.122	-6.83
884.293	36.18
884.465	-10.92
884.637	-41.64
884.809	-15.02
884.98	25.94
885.152	58.71
885.324	-8.87
885.496	-2.73
885.667	9.56
885.839	-47.79
886.011	95.57
886.182	-8.87
886.354	77.14
886.525	30.04
886.697	25.94
886.869	21.85
887.04	-23.21
887.212	91.48
887.383	148.82
887.555	-43.69
887.726	48.47
887.897	-31.4
888.069	27.99
888.24	30.04
888.412	-43.69
888.583	44.37
888.754	58.71
888.926	17.75
889.097	38.23
889.268	42.32
889.44	66.9
889.611	-31.4
889.782	56.66
889.953	7.51
890.125	19.8
890.296	-41.64
890.467	5.46
890.638	-27.31
890.809	130.39
890.98	34.13
891.151	15.7
891.323	40.28
891.494	-19.11
891.665	71
891.836	-19.11
892.007	-2.73
892.178	30.04
892.349	-6.83
892.52	-51.88
892.691	-17.07
892.862	38.23
893.032	52.56
893.203	27.99
893.374	38.23
893.545	52.56
893.716	7.51
893.887	-12.97
894.057	-17.07
894.228	62.8
894.399	9.56
894.57	77.14
894.74	75.09
894.911	-33.45
895.082	42.32
895.253	42.32
895.423	50.52
895.594	1.37
895.764	54.61
895.935	73.04
896.106	44.37
896.276	7.51
896.447	32.08
896.617	23.89
896.788	1.37
896.958	-35.5
897.129	-74.41
897.299	9.56
897.47	30.04
897.64	103.76
897.81	21.85
897.981	7.51
898.151	9.56
898.322	-55.98
898.492	11.61
898.662	27.99
898.832	75.09
899.003	81.24
899.173	21.85
899.343	19.8
899.513	-33.45
