Data from USB4F104151__273__10-40-49-072.txt Node

Date: Wed Mar 12 10:40:49 EDT 2025
User: louis
Spectrometer: USB4F10415
Trigger mode: 4
Integration Time (sec): 3.000000E-2
Scans to average: 1
Electric dark correction enabled: true
Nonlinearity correction enabled: false
Boxcar width: 0
XAxis mode: Wavelengths
Number of Pixels in Spectrum: 3648
>>>>>Begin Spectral Data<<<<<
178.204	-101.2
178.424	-101.2
178.644	-101.2
178.864	-88.92
179.084	-70.48
179.304	-11.09
179.524	-9.05
179.744	-62.29
179.964	31.91
180.184	-0.85
180.404	56.49
180.624	56.49
180.844	-52.05
181.064	-13.14
181.283	76.97
181.503	-45.91
181.723	-27.48
181.943	-93.01
182.163	79.02
182.383	54.44
182.602	38.06
182.822	46.25
183.042	85.16
183.262	1.19
183.482	-4.95
183.701	-0.85
183.921	1.19
184.141	-11.09
184.361	81.07
184.58	68.78
184.8	13.48
185.02	29.87
185.239	-19.29
185.459	23.72
185.679	83.11
185.898	-33.62
186.118	72.87
186.338	29.87
186.557	81.07
186.777	56.49
186.997	33.96
187.216	52.39
187.436	62.63
187.655	-0.85
187.875	119.98
188.095	-13.14
188.314	95.4
188.534	29.87
188.753	70.83
188.973	66.73
189.192	152.74
189.412	97.45
189.631	27.82
189.851	76.97
190.07	-21.33
190.29	17.58
190.509	3.24
190.729	58.54
190.948	31.91
191.168	91.31
191.387	38.06
191.607	68.78
191.826	70.83
192.045	97.45
192.265	109.74
192.484	36.01
192.704	46.25
192.923	15.53
193.142	124.07
193.362	68.78
193.581	-15.19
193.8	52.39
194.02	15.53
194.239	42.15
194.458	91.31
194.678	33.96
194.897	33.96
195.116	1.19
195.335	15.53
195.555	74.92
195.774	38.06
195.993	62.63
196.212	31.91
196.432	-0.85
196.651	36.01
196.87	31.91
197.089	99.5
197.308	44.2
197.528	38.06
197.747	72.87
197.966	58.54
198.185	111.78
198.404	11.43
198.623	54.44
198.842	91.31
199.062	162.98
199.281	64.68
199.5	-2.9
199.719	66.73
199.938	19.63
200.157	76.97
200.376	81.07
200.595	54.44
200.814	76.97
201.033	83.11
201.252	111.78
201.471	-35.67
201.69	111.78
201.909	9.39
202.128	5.29
202.347	54.44
202.566	48.3
202.785	-2.9
203.004	27.82
203.223	58.54
203.442	13.48
203.661	-21.33
203.879	87.21
204.098	70.83
204.317	54.44
204.536	56.49
204.755	31.91
204.974	5.29
205.193	54.44
205.411	103.59
205.63	48.3
205.849	103.59
206.068	44.2
206.287	25.77
206.505	83.11
206.724	-37.72
206.943	111.78
207.162	-0.85
207.381	44.2
207.599	40.11
207.818	7.34
208.037	21.67
208.255	38.06
208.474	74.92
208.693	5.29
208.911	93.35
209.13	52.39
209.349	44.2
209.567	115.88
209.786	111.78
210.005	103.59
210.223	87.21
210.442	25.77
210.661	62.63
210.879	-13.14
211.098	27.82
211.316	-31.57
211.535	13.48
211.753	36.01
211.972	87.21
212.191	19.63
212.409	124.07
212.628	56.49
212.846	19.63
213.065	111.78
213.283	52.39
213.502	44.2
213.72	27.82
213.938	17.58
214.157	29.87
214.375	50.35
214.594	11.43
214.812	111.78
215.031	95.4
215.249	54.44
215.467	48.3
215.686	107.69
215.904	173.22
216.122	54.44
216.341	56.49
216.559	56.49
216.778	115.88
216.996	136.36
217.214	93.35
217.432	-4.95
217.651	40.11
217.869	21.67
218.087	-15.19
218.306	27.82
218.524	87.21
218.742	19.63
218.96	79.02
219.179	103.59
219.397	-27.48
219.615	62.63
219.833	64.68
220.051	25.77
220.27	162.98
220.488	40.11
220.706	79.02
220.924	31.91
221.142	64.68
221.36	-37.72
221.578	-19.29
221.796	89.26
222.015	36.01
222.233	72.87
222.451	126.12
222.669	13.48
222.887	79.02
223.105	15.53
223.323	66.73
223.541	25.77
223.759	81.07
223.977	44.2
224.195	56.49
224.413	11.43
224.631	-9.05
224.849	38.06
225.067	72.87
225.285	-23.38
225.503	-9.05
225.721	19.63
225.939	105.64
226.157	44.2
226.375	128.17
226.592	52.39
226.81	31.91
227.028	44.2
227.246	109.74
227.464	44.2
227.682	79.02
227.9	29.87
228.117	11.43
228.335	1.19
228.553	-19.29
228.771	36.01
228.989	44.2
229.206	31.91
229.424	68.78
229.642	23.72
229.86	-11.09
230.077	38.06
230.295	62.63
230.513	64.68
230.731	79.02
230.948	42.15
231.166	52.39
231.384	23.72
231.601	87.21
231.819	62.63
232.037	72.87
232.254	83.11
232.472	68.78
232.689	-27.48
232.907	52.39
233.125	33.96
233.342	79.02
233.56	-4.95
233.777	79.02
233.995	-9.05
234.213	48.3
234.43	50.35
234.648	-7
234.865	93.35
235.083	62.63
235.3	66.73
235.518	23.72
235.735	42.15
235.953	23.72
236.17	87.21
236.388	38.06
236.605	93.35
236.822	72.87
237.04	81.07
237.257	62.63
237.475	-15.19
237.692	-29.52
237.909	70.83
238.127	83.11
238.344	62.63
238.562	29.87
238.779	74.92
238.996	-39.76
239.214	52.39
239.431	44.2
239.648	79.02
239.865	19.63
240.083	109.74
240.3	27.82
240.517	17.58
240.735	27.82
240.952	144.55
241.169	74.92
241.386	48.3
241.603	7.34
241.821	9.39
242.038	31.91
242.255	9.39
242.472	64.68
242.689	36.01
242.907	76.97
243.124	17.58
243.341	68.78
243.558	1.19
243.775	42.15
243.992	33.96
244.209	70.83
244.426	105.64
244.643	33.96
244.86	66.73
245.078	-15.19
245.295	70.83
245.512	-23.38
245.729	17.58
245.946	50.35
246.163	66.73
246.38	9.39
246.597	13.48
246.814	9.39
247.031	21.67
247.248	109.74
247.464	9.39
247.681	1.19
247.898	27.82
248.115	87.21
248.332	-62.29
248.549	105.64
248.766	105.64
248.983	91.31
249.2	25.77
249.417	85.16
249.633	9.39
249.85	54.44
250.067	91.31
250.284	58.54
250.501	52.39
250.717	68.78
250.934	46.25
251.151	56.49
251.368	21.67
251.585	21.67
251.801	25.77
252.018	48.3
252.235	52.39
252.451	-35.67
252.668	132.26
252.885	31.91
253.102	17.58
253.318	25.77
253.535	-43.86
253.752	66.73
253.968	17.58
254.185	140.46
254.401	58.54
254.618	5.29
254.835	3.24
255.051	83.11
255.268	76.97
255.484	74.92
255.701	23.72
255.917	103.59
256.134	23.72
256.351	103.59
256.567	-54.1
256.784	5.29
257	-54.1
257.217	68.78
257.433	76.97
257.65	60.59
257.866	50.35
258.082	9.39
258.299	-7
258.515	13.48
258.732	-2.9
258.948	44.2
259.165	48.3
259.381	-4.95
259.597	9.39
259.814	54.44
260.03	-2.9
260.246	42.15
260.463	72.87
260.679	117.93
260.895	42.15
261.112	62.63
261.328	54.44
261.544	-7
261.761	107.69
261.977	107.69
262.193	-19.29
262.409	-7
262.626	29.87
262.842	-9.05
263.058	-23.38
263.274	54.44
263.49	117.93
263.707	11.43
263.923	1.19
264.139	5.29
264.355	83.11
264.571	15.53
264.787	93.35
265.004	42.15
265.22	19.63
265.436	64.68
265.652	-15.19
265.868	97.45
266.084	9.39
266.3	72.87
266.516	64.68
266.732	138.41
266.948	62.63
267.164	58.54
267.38	9.39
267.596	162.98
267.812	124.07
268.028	13.48
268.244	66.73
268.46	33.96
268.676	42.15
268.892	70.83
269.108	7.34
269.324	31.91
269.54	29.87
269.756	56.49
269.972	-37.72
270.188	-31.57
270.403	38.06
270.619	85.16
270.835	50.35
271.051	44.2
271.267	21.67
271.483	-2.9
271.698	-2.9
271.914	68.78
272.13	-37.72
272.346	33.96
272.562	50.35
272.777	128.17
272.993	29.87
273.209	138.41
273.425	89.26
273.64	3.24
273.856	29.87
274.072	95.4
274.287	89.26
274.503	17.58
274.719	167.08
274.934	62.63
275.15	52.39
275.366	33.96
275.581	1.19
275.797	50.35
276.012	70.83
276.228	76.97
276.444	44.2
276.659	95.4
276.875	68.78
277.09	58.54
277.306	38.06
277.521	87.21
277.737	17.58
277.952	52.39
278.168	103.59
278.383	38.06
278.599	3.24
278.814	70.83
279.03	46.25
279.245	74.92
279.461	-9.05
279.676	38.06
279.892	-4.95
280.107	40.11
280.322	17.58
280.538	72.87
280.753	48.3
280.969	-7
281.184	85.16
281.399	87.21
281.615	66.73
281.83	85.16
282.045	54.44
282.26	-25.43
282.476	29.87
282.691	58.54
282.906	103.59
283.122	44.2
283.337	31.91
283.552	56.49
283.767	111.78
283.983	81.07
284.198	72.87
284.413	50.35
284.628	-4.95
284.843	7.34
285.058	95.4
285.274	87.21
285.489	38.06
285.704	5.29
285.919	29.87
286.134	27.82
286.349	109.74
286.564	74.92
286.779	83.11
286.995	62.63
287.21	74.92
287.425	87.21
287.64	46.25
287.855	113.83
288.07	54.44
288.285	54.44
288.5	89.26
288.715	79.02
288.93	31.91
289.145	52.39
289.36	33.96
289.575	122.02
289.79	79.02
290.004	15.53
290.219	50.35
290.434	38.06
290.649	38.06
290.864	105.64
291.079	21.67
291.294	70.83
291.509	85.16
291.724	122.02
291.938	50.35
292.153	68.78
292.368	85.16
292.583	7.34
292.798	81.07
293.012	83.11
293.227	-2.9
293.442	52.39
293.657	70.83
293.871	76.97
294.086	11.43
294.301	72.87
294.516	21.67
294.73	87.21
294.945	40.11
295.16	60.59
295.374	36.01
295.589	109.74
295.804	99.5
296.018	19.63
296.233	29.87
296.447	36.01
296.662	46.25
296.877	21.67
297.091	85.16
297.306	79.02
297.52	29.87
297.735	83.11
297.949	23.72
298.164	111.78
298.378	44.2
298.593	44.2
298.807	-25.43
299.022	58.54
299.236	101.55
299.451	83.11
299.665	3.24
299.88	36.01
300.094	33.96
300.309	117.93
300.523	11.43
300.737	50.35
300.952	52.39
301.166	62.63
301.381	-2.9
301.595	105.64
301.809	76.97
302.024	48.3
302.238	21.67
302.452	70.83
302.667	103.59
302.881	50.35
303.095	128.17
303.309	31.91
303.524	-7
303.738	29.87
303.952	5.29
304.166	83.11
304.381	38.06
304.595	101.55
304.809	64.68
305.023	111.78
305.237	40.11
305.452	-45.91
305.666	42.15
305.88	66.73
306.094	85.16
306.308	132.26
306.522	103.59
306.736	83.11
306.95	95.4
307.164	56.49
307.379	72.87
307.593	138.41
307.807	27.82
308.021	81.07
308.235	54.44
308.449	7.34
308.663	62.63
308.877	93.35
309.091	46.25
309.305	89.26
309.519	13.48
309.733	70.83
309.947	-47.96
310.161	42.15
310.374	38.06
310.588	87.21
310.802	29.87
311.016	7.34
311.23	54.44
311.444	50.35
311.658	23.72
311.872	87.21
312.085	117.93
312.299	38.06
312.513	126.12
312.727	42.15
312.941	-4.95
313.154	9.39
313.368	38.06
313.582	70.83
313.796	36.01
314.009	44.2
314.223	15.53
314.437	126.12
314.651	36.01
314.864	38.06
315.078	44.2
315.292	44.2
315.505	62.63
315.719	56.49
315.933	72.87
316.146	103.59
316.36	85.16
316.573	42.15
316.787	46.25
317.001	29.87
317.214	64.68
317.428	74.92
317.641	-13.14
317.855	107.69
318.068	21.67
318.282	101.55
318.495	79.02
318.709	103.59
318.922	66.73
319.136	13.48
319.349	95.4
319.563	33.96
319.776	113.83
319.99	38.06
320.203	79.02
320.417	25.77
320.63	128.17
320.843	64.68
321.057	38.06
321.27	23.72
321.483	40.11
321.697	74.92
321.91	62.63
322.124	-15.19
322.337	62.63
322.55	87.21
322.763	111.78
322.977	62.63
323.19	74.92
323.403	54.44
323.617	42.15
323.83	150.7
324.043	3.24
324.256	23.72
324.469	7.34
324.683	142.5
324.896	66.73
325.109	23.72
325.322	11.43
325.535	74.92
325.748	60.59
325.962	42.15
326.175	66.73
326.388	13.48
326.601	76.97
326.814	54.44
327.027	60.59
327.24	107.69
327.453	54.44
327.666	154.79
327.879	101.55
328.092	85.16
328.305	15.53
328.518	103.59
328.731	25.77
328.944	66.73
329.157	62.63
329.37	50.35
329.583	111.78
329.796	13.48
330.009	58.54
330.222	81.07
330.435	87.21
330.648	70.83
330.861	97.45
331.073	79.02
331.286	115.88
331.499	81.07
331.712	29.87
331.925	79.02
332.138	95.4
332.35	95.4
332.563	29.87
332.776	56.49
332.989	54.44
333.202	95.4
333.414	3.24
333.627	54.44
333.84	52.39
334.053	66.73
334.265	-31.57
334.478	9.39
334.691	119.98
334.903	85.16
335.116	-4.95
335.329	83.11
335.541	177.32
335.754	99.5
335.966	74.92
336.179	36.01
336.392	93.35
336.604	124.07
336.817	60.59
337.029	5.29
337.242	76.97
337.454	124.07
337.667	93.35
337.88	107.69
338.092	66.73
338.305	76.97
338.517	-21.33
338.729	83.11
338.942	126.12
339.154	52.39
339.367	70.83
339.579	79.02
339.792	5.29
340.004	52.39
340.217	50.35
340.429	50.35
340.641	42.15
340.854	19.63
341.066	68.78
341.278	74.92
341.491	117.93
341.703	1.19
341.915	62.63
342.128	101.55
342.34	19.63
342.552	-13.14
342.764	36.01
342.977	72.87
343.189	76.97
343.401	33.96
343.613	85.16
343.826	50.35
344.038	89.26
344.25	81.07
344.462	160.94
344.674	83.11
344.886	40.11
345.099	56.49
345.311	56.49
345.523	85.16
345.735	38.06
345.947	95.4
346.159	3.24
346.371	15.53
346.583	25.77
346.795	74.92
347.007	-4.95
347.219	13.48
347.431	76.97
347.643	91.31
347.855	1.19
348.067	95.4
348.279	11.43
348.491	13.48
348.703	36.01
348.915	36.01
349.127	95.4
349.339	9.39
349.551	17.58
349.763	68.78
349.975	62.63
350.187	36.01
350.399	154.79
350.61	136.36
350.822	15.53
351.034	81.07
351.246	46.25
351.458	76.97
351.669	85.16
351.881	52.39
352.093	29.87
352.305	99.5
352.517	60.59
352.728	156.84
352.94	23.72
353.152	66.73
353.363	-19.29
353.575	25.77
353.787	140.46
353.999	95.4
354.21	93.35
354.422	91.31
354.633	17.58
354.845	36.01
355.057	48.3
355.268	95.4
355.48	13.48
355.692	97.45
355.903	87.21
356.115	79.02
356.326	1.19
356.538	76.97
356.749	33.96
356.961	109.74
357.172	74.92
357.384	17.58
357.595	119.98
357.807	87.21
358.018	62.63
358.23	40.11
358.441	134.31
358.653	33.96
358.864	-0.85
359.075	89.26
359.287	105.64
359.498	107.69
359.709	36.01
359.921	50.35
360.132	68.78
360.344	58.54
360.555	62.63
360.766	95.4
360.977	29.87
361.189	66.73
361.4	-11.09
361.611	93.35
361.823	46.25
362.034	99.5
362.245	50.35
362.456	52.39
362.667	33.96
362.879	50.35
363.09	91.31
363.301	101.55
363.512	79.02
363.723	38.06
363.935	76.97
364.146	50.35
364.357	70.83
364.568	122.02
364.779	101.55
364.99	130.22
365.201	50.35
365.412	91.31
365.623	-23.38
365.834	31.91
366.045	113.83
366.256	46.25
366.467	44.2
366.678	25.77
366.889	119.98
367.1	134.31
367.311	107.69
367.522	76.97
367.733	158.89
367.944	103.59
368.155	87.21
368.366	128.17
368.577	154.79
368.788	52.39
368.999	17.58
369.209	-21.33
369.42	162.98
369.631	154.79
369.842	74.92
370.053	33.96
370.264	111.78
370.474	42.15
370.685	91.31
370.896	89.26
371.107	85.16
371.317	85.16
371.528	38.06
371.739	173.22
371.95	99.5
372.16	72.87
372.371	-23.38
372.582	38.06
372.792	119.98
373.003	62.63
373.214	54.44
373.424	97.45
373.635	74.92
373.846	109.74
374.056	70.83
374.267	70.83
374.477	-4.95
374.688	70.83
374.898	103.59
375.109	93.35
375.319	91.31
375.53	70.83
375.74	109.74
375.951	74.92
376.161	62.63
376.372	99.5
376.582	70.83
376.793	95.4
377.003	72.87
377.214	87.21
377.424	107.69
377.635	36.01
377.845	50.35
378.055	113.83
378.266	33.96
378.476	140.46
378.686	58.54
378.897	64.68
379.107	66.73
379.317	50.35
379.528	81.07
379.738	42.15
379.948	60.59
380.158	66.73
380.369	140.46
380.579	142.5
380.789	64.68
380.999	109.74
381.21	117.93
381.42	138.41
381.63	83.11
381.84	64.68
382.05	81.07
382.261	181.42
382.471	103.59
382.681	97.45
382.891	76.97
383.101	115.88
383.311	83.11
383.521	21.67
383.731	74.92
383.941	128.17
384.151	87.21
384.361	83.11
384.571	56.49
384.781	66.73
384.991	58.54
385.201	85.16
385.411	72.87
385.621	15.53
385.831	81.07
386.041	124.07
386.251	111.78
386.461	138.41
386.671	64.68
386.881	103.59
387.091	85.16
387.301	5.29
387.511	124.07
387.72	124.07
387.93	136.36
388.14	76.97
388.35	126.12
388.56	119.98
388.769	126.12
388.979	132.26
389.189	58.54
389.399	21.67
389.609	36.01
389.818	93.35
390.028	122.02
390.238	89.26
390.447	29.87
390.657	42.15
390.867	87.21
391.076	79.02
391.286	111.78
391.496	64.68
391.705	56.49
391.915	93.35
392.125	56.49
392.334	109.74
392.544	89.26
392.753	126.12
392.963	146.6
393.172	29.87
393.382	119.98
393.591	105.64
393.801	72.87
394.01	146.6
394.22	95.4
394.429	134.31
394.639	87.21
394.848	119.98
395.058	140.46
395.267	54.44
395.477	148.65
395.686	107.69
395.895	124.07
396.105	220.33
396.314	185.51
396.524	144.55
396.733	99.5
396.942	122.02
397.152	185.51
397.361	201.9
397.57	146.6
397.78	89.26
397.989	97.45
398.198	132.26
398.407	162.98
398.617	165.03
398.826	126.12
399.035	97.45
399.244	154.79
399.453	128.17
399.663	167.08
399.872	142.5
400.081	132.26
400.29	214.18
400.499	119.98
400.708	132.26
400.917	189.61
401.127	134.31
401.336	134.31
401.545	226.47
401.754	169.13
401.963	214.18
402.172	136.36
402.381	154.79
402.59	185.51
402.799	162.98
403.008	177.32
403.217	66.73
403.426	183.46
403.635	242.85
403.844	165.03
404.053	197.8
404.262	201.9
404.471	187.56
404.68	193.7
404.888	220.33
405.097	177.32
405.306	275.62
405.515	216.23
405.724	199.85
405.933	222.38
406.142	271.53
406.35	277.67
406.559	328.87
406.768	185.51
406.977	353.45
407.185	283.81
407.394	298.15
407.603	246.95
407.812	347.3
408.02	365.73
408.229	218.28
408.438	345.25
408.646	298.15
408.855	373.92
409.064	357.54
409.272	365.73
409.481	431.27
409.69	330.92
409.898	392.36
410.107	459.94
410.315	427.17
410.524	492.71
410.733	504.99
410.941	494.76
411.15	443.56
411.358	480.42
411.567	535.71
411.775	490.66
411.984	509.09
412.192	582.82
412.401	580.77
412.609	685.22
412.818	644.26
413.026	644.26
413.234	717.98
413.443	754.85
413.651	705.7
413.86	677.02
414.068	818.33
414.276	801.95
414.485	830.62
414.693	887.97
414.901	890.01
415.11	1012.89
415.318	830.62
415.526	1053.85
415.734	1086.62
415.943	1074.33
416.151	1117.34
416.359	1096.86
416.567	1103
416.776	1172.63
416.984	1254.55
417.192	1262.74
417.4	1318.04
417.608	1383.57
417.817	1449.11
418.025	1442.96
418.233	1590.42
418.441	1635.47
418.649	1559.7
418.857	1725.58
419.065	1809.55
419.273	1676.43
419.481	1827.98
419.689	1969.29
419.897	2159.75
420.105	2108.55
420.313	2106.51
420.521	2182.28
420.729	2262.15
420.937	2282.63
421.145	2344.07
421.353	2440.33
421.561	2661.51
421.769	2673.79
421.977	2815.1
422.185	2729.09
422.393	2970.75
422.601	3150.97
422.809	3130.49
423.017	3175.55
423.224	3335.29
423.432	3441.78
423.64	3361.91
423.848	3624.05
424.056	3640.44
424.263	3955.82
424.471	3849.33
424.679	4000.88
424.887	4217.96
425.094	4336.74
425.302	4301.93
425.51	4451.43
425.718	4666.47
425.925	4510.82
426.133	4916.32
426.341	5219.42
426.548	5213.28
426.756	5434.46
426.964	5456.98
427.171	5786.71
427.379	5932.11
427.586	6036.56
427.794	6298.7
428.001	6546.5
428.209	6790.21
428.417	6759.49
428.624	7230.52
428.832	7208
429.039	7156.8
429.247	7447.61
429.454	7787.57
429.662	8326.19
429.869	7844.91
430.076	8504.36
430.284	8143.92
430.491	8410.15
430.699	8975.39
430.906	8868.9
431.114	9092.13
431.321	9571.35
431.528	9638.94
431.736	10218.51
431.943	10820.61
432.15	10273.81
432.358	10380.3
432.565	10982.4
432.772	11158.53
432.979	11480.06
433.187	11705.34
433.394	11695.1
433.601	12573.67
433.808	12745.7
434.016	12680.17
434.223	13130.72
434.43	13765.59
434.637	13521.88
434.844	14406.61
435.052	14789.58
435.259	14599.12
435.466	14840.78
435.673	14652.36
435.88	15379.39
436.087	16255.92
436.294	16509.87
436.501	16110.52
436.708	16616.37
436.915	16710.57
437.122	17877.91
437.329	17922.97
437.537	18140.05
437.743	18615.18
437.95	18504.59
438.157	19252.1
438.364	20542.32
438.571	20001.66
438.778	20087.67
438.985	21769.05
439.192	21140.33
439.399	22072.15
439.606	21433.19
439.813	22780.75
440.02	23810.88
440.227	23061.32
440.433	23483.2
440.64	24331.06
440.847	23794.5
441.054	24558.39
441.261	26057.5
441.467	25758.5
441.674	26223.39
441.881	27394.82
442.088	26911.5
442.294	26712.85
442.501	27464.46
442.708	28406.52
442.914	29461.23
443.121	30466.78
443.328	29788.9
443.534	31550.15
443.741	30800.6
443.948	30479.07
444.154	33092.27
444.361	31967.94
444.568	32780.98
444.774	32760.5
444.981	32934.58
445.187	33858.21
445.394	35228.31
445.6	34874.01
445.807	38337.12
446.013	36504.19
446.22	37388.91
446.426	38523.49
446.633	39094.87
446.839	40233.54
447.046	39246.42
447.252	40684.09
447.459	40757.82
447.665	41011.77
447.871	42433.06
448.078	43899.4
448.284	41863.72
448.491	43307.54
448.697	44722.69
448.903	45515.25
449.11	45873.65
449.316	44327.43
449.522	45355.51
449.728	46533.09
449.935	46823.9
450.141	47172.06
450.347	48404.94
450.553	46590.44
450.76	47329.75
450.966	48433.61
451.172	48028.11
451.378	48953.79
451.584	47718.87
451.791	49322.43
451.997	48906.69
452.203	49355.19
452.409	49195.45
452.615	49469.88
452.821	47206.87
453.027	46807.52
453.233	49334.71
453.44	46864.86
453.646	47903.18
453.852	48101.84
454.058	48761.28
454.264	46942.69
454.47	48230.86
454.676	46885.34
454.882	48363.98
455.088	44544.51
455.294	45009.4
455.5	45163
455.705	46006.76
455.911	43854.35
456.117	43387.41
456.323	42490.4
456.529	40254.02
456.735	42060.33
456.941	41052.73
457.147	40307.27
457.352	39377.49
457.558	38832.73
457.764	38632.03
457.97	38322.79
458.176	36985.46
458.381	37128.82
458.587	35619.47
458.793	35195.54
458.999	33356.46
459.204	35859.08
459.41	34861.72
459.616	32412.35
459.821	32445.12
460.027	32473.79
460.233	32012.99
460.438	30003.94
460.644	30411.48
460.85	29240.04
461.055	28627.7
461.261	28465.91
461.466	26428.18
461.672	26053.41
461.878	27773.7
462.083	26014.49
462.289	25353
462.494	25000.75
462.7	24083.26
462.905	23571.27
463.111	24261.43
463.316	24308.54
463.522	23817.02
463.727	23944
463.932	23718.72
464.138	23567.17
464.343	23651.14
464.549	22995.79
464.754	23757.63
464.959	23671.62
465.165	23438.15
465.37	22563.67
465.575	22012.76
465.781	22889.29
465.986	23122.76
466.191	22276.95
466.397	21762.91
466.602	20620.14
466.807	21535.59
467.012	21621.6
467.218	21392.23
467.423	20958.06
467.628	21152.62
467.833	22152.02
468.038	21496.67
468.244	20706.16
468.449	21191.53
468.654	20994.92
468.859	20822.89
469.064	20599.66
469.269	19522.43
469.474	19823.48
469.679	20024.19
469.885	19700.61
470.09	20188.02
470.295	20038.52
470.5	19440.51
470.705	19714.94
470.91	18887.56
471.115	18791.31
471.32	19288.96
471.525	19090.31
471.73	18385.81
471.935	18531.22
472.139	17918.87
472.344	18181.01
472.549	17957.78
472.754	18092.95
472.959	17271.72
473.164	16675.76
473.369	16964.52
473.574	17423.26
473.778	17324.96
473.983	17058.73
474.188	17052.58
474.393	16214.96
474.598	16620.46
474.802	16235.44
475.007	16102.32
475.212	16112.56
475.417	15395.78
475.621	15442.88
475.826	15682.49
476.031	15406.02
476.235	15008.71
476.44	15289.28
476.645	14808.01
476.849	14894.02
477.054	14771.15
477.259	14535.63
477.463	14812.1
477.668	14351.31
477.872	14463.95
478.077	14123.99
478.282	13882.33
478.486	13837.27
478.691	13568.99
478.895	13661.15
479.1	13403.1
479.304	13431.77
479.509	13063.14
479.713	13409.25
479.918	13063.14
480.122	13001.7
480.326	13286.37
480.531	13276.13
480.735	12973.03
480.94	12919.78
481.144	13368.29
481.348	12622.83
481.553	13003.75
481.757	12497.9
481.961	12573.67
482.166	13267.94
482.37	12766.18
482.574	12757.99
482.778	12637.16
482.983	12977.12
483.187	12805.1
483.391	12825.57
483.595	12749.8
483.8	12426.22
484.004	12571.63
484.208	12940.26
484.412	12639.21
484.616	12594.15
484.821	12844.01
485.025	12530.67
485.229	12813.29
485.433	12469.23
485.637	12694.5
485.841	12438.51
486.045	12643.31
486.249	12690.41
486.453	12360.69
486.657	12893.16
486.861	12620.78
487.065	12649.45
487.269	12647.4
487.473	12338.16
487.677	12739.56
487.881	12549.1
488.085	12696.55
488.289	12858.34
488.493	12825.57
488.697	12696.55
488.901	12760.04
489.105	12790.76
489.309	12774.38
489.512	12835.81
489.716	12882.92
489.92	13079.52
490.124	12661.74
490.328	12960.74
490.531	12981.22
490.735	12942.31
490.939	12981.22
491.143	13239.26
491.346	12901.35
491.55	13206.5
491.754	13349.85
491.958	13173.73
492.161	13069.28
492.365	13431.77
492.569	13310.94
492.772	13214.69
492.976	13585.37
493.18	13448.16
493.383	13743.06
493.587	13767.64
493.79	13865.94
493.994	13683.67
494.197	13984.73
494.401	14166.99
494.605	14189.52
494.808	14093.27
495.012	14261.2
495.215	14459.85
495.419	14773.19
495.622	14752.71
495.825	14734.28
496.029	15107.01
496.232	15039.43
496.436	15207.36
496.639	15576
496.843	15287.23
497.046	15600.57
497.249	15799.23
497.453	15983.54
497.656	15918.01
497.859	16303.03
498.063	16294.83
498.266	16729
498.469	16565.17
498.673	16702.38
498.876	17003.43
499.079	17408.93
499.282	17021.86
499.485	17693.6
499.689	17611.68
499.892	17789.85
500.095	17884.06
500.298	18238.36
500.501	18000.79
500.705	18789.26
500.908	18670.48
501.111	19000.2
501.314	19110.79
501.517	19487.62
501.72	19729.28
501.923	19655.55
502.126	20032.38
502.329	20306.8
502.532	20747.12
502.735	20661.1
502.938	21007.21
503.141	21252.97
503.344	21281.64
503.547	21263.21
503.75	21879.64
503.953	22145.88
504.156	22274.9
504.359	22481.75
504.562	22350.68
504.765	23221.06
504.968	23202.63
505.17	23386.95
505.373	23356.23
505.576	23673.67
505.779	24097.59
505.982	24179.51
506.185	24924.97
506.387	24767.28
506.59	25084.72
506.793	25668.39
506.996	25361.19
507.198	26213.15
507.401	26139.42
507.604	26301.21
507.807	26712.85
508.009	27028.24
508.212	27233.04
508.415	27323.15
508.617	27482.89
508.82	27917.06
509.022	27689.73
509.225	28762.87
509.428	28740.34
509.63	28891.89
509.833	28928.75
510.035	29684.45
510.238	29684.45
510.44	30178.01
510.643	30366.43
510.845	30485.21
511.048	30927.57
511.25	31087.31
511.453	31308.49
511.655	32404.16
511.858	31679.18
512.06	32242.37
512.262	32545.47
512.465	32561.85
512.667	33168.05
512.87	33677.99
513.072	33528.49
513.274	34343.58
513.477	34570.91
513.679	34425.5
513.881	35031.7
514.084	35586.7
514.286	35431.05
514.488	35543.69
514.69	36260.48
514.893	36450.94
515.095	36608.64
515.297	37198.45
515.499	37341.81
515.701	37841.51
515.904	38206.05
516.106	38238.82
516.308	38445.66
516.51	38660.7
516.712	38730.33
516.914	39662.16
517.116	39987.78
517.318	40297.03
517.52	40231.49
517.722	40219.2
517.925	40839.74
518.127	41187.89
518.329	41759.28
518.531	41763.37
518.733	42646.05
518.935	42576.42
519.136	42719.77
519.338	43309.59
519.54	43307.54
519.742	43506.19
519.944	43862.54
520.146	44730.88
520.348	45115.9
520.55	45203.96
520.752	45185.53
520.954	46133.74
521.155	45656.56
521.357	46549.48
521.559	46442.98
521.761	47557.08
521.963	47204.83
522.164	47692.24
522.366	47585.75
522.568	47661.52
522.77	48333.26
522.971	48796.1
523.173	48873.92
523.375	48548.29
523.576	48798.15
523.778	49363.39
523.98	50309.55
524.181	50129.33
524.383	49895.86
524.584	50321.83
524.786	50977.18
524.988	50422.19
525.189	51159.45
525.391	51521.94
525.592	51706.26
525.794	52011.41
525.995	51747.22
526.197	51952.02
526.398	52355.47
526.6	52277.64
526.801	52515.21
527.003	53137.79
527.204	52812.16
527.406	53631.35
527.607	53373.31
527.808	53582.2
528.01	53100.93
528.211	53358.97
528.412	54016.37
528.614	53842.29
528.815	54278.51
529.016	54360.43
529.218	54194.54
529.419	54475.12
529.62	54600.04
529.822	54569.32
530.023	54468.97
530.224	54651.24
530.425	54841.7
530.626	54671.72
530.828	54532.46
531.029	55621.98
531.23	54573.42
531.431	54733.16
531.632	55400.8
531.833	55288.16
532.035	55052.64
532.236	55499.1
532.437	55724.38
532.638	55114.08
532.839	55437.66
533.04	56031.57
533.241	54974.82
533.442	56195.41
533.643	55566.68
533.844	55855.45
534.045	56207.7
534.246	55849.3
534.447	56076.63
534.648	55929.17
534.849	55949.65
535.05	55544.16
535.251	56187.22
535.451	55830.87
535.652	56140.11
535.853	56211.79
536.054	56088.91
536.255	56236.37
536.456	56000.85
536.657	56383.82
536.857	55818.58
537.058	55730.52
537.259	56445.26
537.46	56271.18
537.66	56373.58
537.861	56596.81
538.062	56174.93
538.263	56551.76
538.463	55785.82
538.664	56664.39
538.865	56328.53
539.065	56445.26
539.266	55707.99
539.466	56629.58
539.667	55419.23
539.868	56254.8
540.068	56125.78
540.269	56146.26
540.469	56547.66
540.67	56133.97
540.87	56109.39
541.071	55884.12
541.271	56316.24
541.472	55998.8
541.672	55986.52
541.873	56176.98
542.073	55556.44
542.274	56467.79
542.474	56090.96
542.675	55759.19
542.875	56883.53
543.075	56326.48
543.276	55288.16
543.476	56656.2
543.676	55847.25
543.877	56478.03
544.077	56097.11
544.277	55562.59
544.478	56336.72
544.678	56240.46
544.878	55875.93
545.078	56318.29
545.279	55925.08
545.479	56004.95
545.679	56154.45
545.879	56082.77
546.079	56314.19
546.28	56164.69
546.48	55224.67
546.68	56047.96
546.88	55761.24
547.08	55998.8
547.28	56105.3
547.48	55294.3
547.68	55761.24
547.88	55484.76
548.081	55998.8
548.281	55398.75
548.481	56064.34
548.681	55759.19
548.881	55970.13
549.081	56140.11
549.28	55419.23
549.48	56007
549.68	55851.35
549.88	55951.7
550.08	55548.25
550.28	56203.6
550.48	55621.98
550.68	56256.85
550.88	55202.14
551.08	55583.07
551.279	55732.57
551.479	55294.3
551.679	55628.12
551.879	56080.72
552.079	56076.63
552.278	55851.35
552.478	55834.97
552.678	55691.61
552.878	55671.13
553.077	55458.14
553.277	55607.64
553.477	56502.6
553.676	55556.44
553.876	55724.38
554.076	55736.66
554.275	55294.3
554.475	55269.73
554.674	55146.85
554.874	55509.34
555.074	55232.86
555.273	55476.57
555.473	55695.7
555.672	55011.68
555.872	55605.59
556.071	55177.57
556.271	55279.97
556.47	55173.47
556.67	55058.79
556.869	55028.07
557.068	54913.38
557.268	54743.4
557.467	54681.96
557.667	55105.89
557.866	55097.7
558.065	54765.93
558.265	54860.13
558.464	54348.14
558.663	55558.49
558.863	54061.43
559.062	55015.78
559.261	54520.17
559.461	54868.33
559.66	54018.42
559.859	54743.4
560.058	54258.03
560.258	54518.12
560.457	54024.56
560.656	54495.6
560.855	53887.35
561.054	54258.03
561.253	54229.36
561.453	53999.99
561.652	53897.59
561.851	54436.2
562.05	53633.4
562.249	53483.9
562.448	53823.86
562.647	53649.78
562.846	53264.77
563.045	53602.68
563.244	53107.07
563.443	53750.13
563.642	52713.86
563.841	53094.78
564.04	52683.14
564.239	53404.03
564.438	52754.82
564.637	52920.71
564.836	52969.86
565.035	52545.93
565.234	52615.56
565.432	52390.28
565.631	52005.27
565.83	52212.11
566.029	52277.64
566.228	52484.49
566.427	52011.41
566.625	52068.75
566.824	51454.36
567.023	52177.29
567.222	51296.67
567.42	52044.18
567.619	51956.11
567.818	51431.83
568.016	51417.5
568.215	51308.96
568.414	51104.16
568.612	51771.8
568.811	50837.92
569.01	50995.62
569.208	50676.13
569.407	50993.57
569.605	50092.46
569.804	50733.48
570.002	50237.87
570.201	50393.51
570.4	49856.95
570.598	49715.64
570.797	49682.87
570.995	50117.04
571.193	49498.55
571.392	50035.12
571.59	49539.51
571.789	49998.26
571.987	49408.44
572.186	49623.48
572.384	48947.65
572.582	49482.17
572.781	49242.56
572.979	48458.18
573.177	48908.74
573.376	49068.48
573.574	48282.06
573.772	48669.12
573.971	48413.13
574.169	48265.67
574.367	47958.48
574.565	48566.73
574.763	47981.01
574.962	47888.85
575.16	47626.71
575.358	47690.19
575.556	47229.4
575.754	47718.87
575.952	47247.83
576.151	47720.91
576.349	46735.84
576.547	46647.78
576.745	47071.71
576.943	46770.66
577.141	46234.09
577.339	46533.09
577.537	46260.71
577.735	46610.92
577.933	46074.35
578.131	46549.48
578.329	45955.57
578.527	45930.99
578.725	46137.83
578.923	45744.62
579.121	45492.72
579.319	45525.49
579.516	45795.82
579.714	45494.77
579.912	45117.95
580.11	45019.64
580.308	44857.85
580.506	45124.09
580.704	44042.76
580.901	44960.25
581.099	44777.98
581.297	44171.78
581.495	44448.26
581.692	44720.64
581.89	44165.64
582.088	44354.05
582.285	43895.31
582.483	43866.64
582.681	43799.05
582.878	43717.14
583.076	43332.12
583.274	43850.25
583.471	42723.87
583.669	43373.08
583.866	42631.71
584.064	43227.67
584.262	42340.9
584.459	42727.97
584.657	42291.75
584.854	42836.51
585.052	41878.06
585.249	42447.39
585.447	42172.97
585.644	41601.58
585.841	41812.52
586.039	42332.71
586.236	41280.05
586.434	41450.03
586.631	41237.05
586.828	41196.09
587.026	41269.81
587.223	41001.53
587.42	41087.54
587.618	40944.19
587.815	40352.32
588.012	40411.71
588.21	40585.79
588.407	40913.47
588.604	40176.2
588.801	39639.63
588.999	39985.74
589.196	40235.59
589.393	39785.04
589.59	39555.66
589.787	39443.02
589.984	39297.62
590.182	38716
590.379	39232.08
590.576	39000.66
590.773	39359.06
590.97	38959.7
591.167	39090.77
591.364	38175.33
591.561	38568.54
591.758	38249.06
591.955	38208.1
592.152	38552.16
592.349	38062.69
592.546	37941.86
592.743	37812.84
592.94	37403.25
593.137	37667.44
593.334	37624.43
593.531	36848.25
593.727	37233.27
593.924	37294.71
594.121	37110.39
594.318	37263.99
594.515	36749.95
594.712	36817.53
594.908	36661.88
595.105	37022.33
595.302	35986.05
595.499	36225.67
595.696	36127.36
595.892	35789.45
596.089	36307.58
596.286	35535.5
596.482	35644.04
596.679	35744.39
596.876	35555.98
597.072	35087
597.269	35240.59
597.466	34933.4
597.662	35017.36
597.859	34841.24
598.055	35154.58
598.252	34681.5
598.448	35005.08
598.645	34366.11
598.841	33946.28
599.038	33882.79
599.234	34290.34
599.431	33665.7
599.627	34005.67
599.824	34077.35
600.02	33452.72
600.217	33610.41
600.413	33673.9
600.609	33518.25
600.806	33327.79
601.002	33004.21
601.198	33045.17
601.395	33024.69
601.591	32615.1
601.787	33182.38
601.984	32584.38
602.18	32889.52
602.376	32252.61
602.572	32266.94
602.769	32254.65
602.965	31912.64
603.161	32070.34
603.357	31910.6
603.553	31922.88
603.75	31963.84
603.946	31570.63
604.142	31673.03
604.338	31279.82
604.534	31351.5
604.73	30980.82
604.926	31195.85
605.122	31202
605.318	31236.81
605.514	30501.59
605.71	30620.38
605.906	30636.76
606.102	30372.57
606.298	30456.54
606.494	30515.93
606.69	30393.05
606.886	30345.95
607.082	30063.33
607.278	30464.73
607.474	29754.08
607.67	29766.37
607.866	29537
608.062	30171.87
608.257	29704.93
608.453	29819.62
608.649	29561.58
608.845	29029.1
609.041	29276.91
609.236	29731.56
609.432	29164.27
609.628	29338.35
609.824	28996.34
610.019	28658.42
610.215	28650.23
610.411	28930.8
610.606	28500.73
610.802	29151.98
610.998	28773.11
611.193	28973.81
611.389	28607.22
611.584	28431.1
611.78	28230.4
611.976	28449.53
612.171	28273.4
612.367	28277.5
612.562	27949.82
612.758	28109.57
612.953	28013.31
613.149	28287.74
613.344	27532.04
613.539	28465.91
613.735	27962.11
613.93	27855.62
614.126	27654.92
614.321	27421.45
614.517	27697.92
614.712	27421.45
614.907	27386.63
615.103	27534.09
615.298	27515.65
615.493	27319.05
615.688	27099.92
615.884	27642.63
616.079	26960.66
616.274	27347.72
616.47	27061.01
616.665	27001.61
616.86	26762
617.055	26819.35
617.25	26835.73
617.445	26913.55
617.641	26368.79
617.836	26532.63
618.031	26204.95
618.226	26446.62
618.421	26108.7
618.616	26434.33
618.811	25969.44
619.006	26395.42
619.201	25697.06
619.396	25674.53
619.591	25340.71
619.786	25811.74
619.981	25330.47
620.176	25502.5
620.371	25195.31
620.566	25432.87
620.761	25049.9
620.956	25146.15
621.151	24865.58
621.346	24859.44
621.541	24392.5
621.735	25078.57
621.93	24136.51
622.125	24353.59
622.32	24070.97
622.515	24019.77
622.709	23628.61
622.904	23722.82
623.099	23817.02
623.294	23700.29
623.488	23305.03
623.683	23464.77
623.878	23094.09
624.072	23010.12
624.267	22971.21
624.462	22917.96
624.656	22745.94
624.851	22567.76
625.046	22334.29
625.24	22391.64
625.435	22143.83
625.629	22387.54
625.824	22119.26
626.018	22051.67
626.213	21734.24
626.407	21783.39
626.602	21461.86
626.796	21742.43
626.991	21269.35
627.185	21300.07
627.38	21111.66
627.574	20945.77
627.768	20591.47
627.963	20700.01
628.157	20673.39
628.352	20773.74
628.546	20462.45
628.74	20298.61
628.935	19956.6
629.129	20292.47
629.323	19815.29
629.517	20015.99
629.712	20018.04
629.906	19813.24
630.1	19731.33
630.294	19706.75
630.489	19401.6
630.683	19282.82
630.877	19225.48
631.071	19006.34
631.265	19413.89
631.459	18936.71
631.653	18731.92
631.848	18684.81
632.042	18508.69
632.236	18547.6
632.43	18297.75
632.624	18498.45
632.818	18191.25
633.012	18035.61
633.206	18111.38
633.4	18133.91
633.594	17550.24
633.788	17683.36
633.982	17740.7
634.176	17660.83
634.369	17462.18
634.563	17574.81
634.757	17284
634.951	17294.24
635.145	17071.01
635.339	17251.24
635.533	17075.11
635.726	17144.74
635.92	16966.57
636.114	16688.04
636.308	16532.4
636.501	16341.94
636.695	16380.85
636.889	16450.48
637.083	16358.32
637.276	16200.63
637.47	16251.83
637.664	16217.01
637.857	15987.64
638.051	15797.18
638.244	15836.09
638.438	15875
638.632	15829.95
638.825	15686.59
639.019	15604.67
639.212	15389.63
639.406	15514.56
639.599	15414.21
639.793	15426.5
639.986	15270.85
640.18	15002.57
640.373	14883.78
640.567	14967.75
640.76	14906.31
640.954	14992.33
641.147	14629.84
641.34	14457.81
641.534	14388.18
641.727	14312.4
641.92	14422.99
642.114	14201.81
642.307	14320.59
642.5	14312.4
642.694	14027.73
642.887	14021.59
643.08	14224.34
643.273	14128.08
643.467	14003.16
643.66	13630.43
643.853	13489.12
644.046	13589.47
644.239	13515.74
644.432	13536.22
644.626	13280.22
644.819	13372.38
645.012	13210.59
645.205	13419.49
645.398	13267.94
645.591	12899.3
645.784	12805.1
645.977	12725.22
646.17	12747.75
646.363	12651.5
646.556	12530.67
646.749	12549.1
646.942	12704.74
647.135	12612.59
647.328	12432.36
647.521	12426.22
647.714	12334.06
647.907	12313.58
648.099	12313.58
648.292	12172.27
648.485	12073.97
648.678	11955.19
648.871	11801.59
649.064	11770.87
649.256	11949.04
649.449	11817.97
649.642	11633.66
649.835	11744.25
650.027	11551.74
650.22	11604.99
650.413	11371.52
650.605	11305.98
650.798	11219.97
650.991	11299.84
651.183	11207.68
651.376	11250.69
651.568	11222.02
651.761	11346.94
651.954	11174.91
652.146	10986.5
652.339	10986.5
652.531	10908.68
652.724	10951.68
652.916	10587.15
653.109	10695.69
653.301	10572.81
653.494	10683.4
653.686	10581
653.879	10576.91
654.071	10501.13
654.263	10419.21
654.456	10122.26
654.648	10339.34
654.84	9874.45
655.033	10152.98
655.225	9917.46
655.417	9954.32
655.61	9995.28
655.802	10314.77
655.994	9944.08
656.186	9968.66
656.379	9765.91
656.571	9776.15
656.763	9612.31
656.955	9634.84
657.148	9755.67
657.34	9640.98
657.532	9362.46
657.724	9352.22
657.916	9526.3
658.108	9452.57
658.3	9401.37
658.492	9559.06
658.684	9374.75
658.876	9022.5
659.068	9251.87
659.26	8977.44
659.452	9204.77
659.644	9004.07
659.836	8885.28
660.028	9141.28
660.22	8834.08
660.412	8846.37
660.604	8647.72
660.796	8721.45
660.988	8686.63
661.18	8629.29
661.372	8578.09
661.563	8780.84
661.755	8537.13
661.947	8404.01
662.139	8424.49
662.331	8547.37
662.522	8361
662.714	8266.8
662.906	8297.52
663.097	8363.05
663.289	8139.82
663.481	8188.97
663.673	8152.11
663.864	8211.5
664.056	8045.62
664.247	8080.43
664.439	7806
664.631	7885.87
664.822	7904.31
665.014	7820.34
665.205	7806
665.397	7846.96
665.588	7883.83
665.78	7509.05
665.971	7789.62
666.163	7521.34
666.354	7662.65
666.546	7562.3
666.737	7515.19
666.929	7423.03
667.12	7474.23
667.311	7347.26
667.503	7351.35
667.694	7246.91
667.885	7289.92
668.077	7302.2
668.268	7111.74
668.459	7152.7
668.651	7099.45
668.842	7173.18
669.033	7033.92
669.224	6923.33
669.416	7093.31
669.607	6890.56
669.798	7119.93
669.989	6921.28
670.18	6820.93
670.371	6739.01
670.563	6761.54
670.754	6847.55
670.945	6724.68
671.136	6958.14
671.327	6790.21
671.518	6661.19
671.709	6681.67
671.9	6571.08
672.091	6716.48
672.282	6644.81
672.473	6493.26
672.664	6620.23
672.855	6689.86
673.046	6532.17
673.237	6517.83
673.428	6460.49
673.619	6390.86
673.809	6319.18
674	6286.41
674.191	6386.76
674.382	6214.73
674.573	6337.61
674.764	6282.31
674.954	6229.07
675.145	6351.95
675.336	6251.6
675.527	6106.19
675.717	6128.72
675.908	6116.43
676.099	6057.04
676.289	6011.98
676.48	5989.46
676.671	5817.43
676.861	6093.9
677.052	6040.65
677.243	5858.39
677.433	6057.04
677.624	6067.28
677.814	5971.02
678.005	5979.22
678.195	5887.06
678.386	5868.63
678.576	5739.6
678.767	5733.46
678.957	5966.93
679.148	5758.03
679.338	5907.54
679.529	5710.93
679.719	5633.11
679.909	5762.13
680.1	5590.1
680.29	5700.69
680.481	5758.03
680.671	5624.92
680.861	5651.54
681.052	5620.82
681.242	5571.67
681.432	5743.7
681.622	5543
681.813	5407.83
682.003	5547.09
682.193	5534.81
682.383	5469.27
682.573	5571.67
682.764	5508.18
682.954	5516.37
683.144	5366.87
683.334	5514.33
683.524	5354.58
683.714	5446.74
683.904	5381.21
684.094	5395.54
684.284	5299.29
684.474	5344.35
684.664	5299.29
684.854	5272.67
685.044	5188.7
685.234	5233.75
685.424	5252.19
685.614	5198.94
685.804	5196.89
685.994	5340.25
686.184	5162.08
686.374	5170.27
686.564	4959.33
686.753	5080.16
686.943	4973.66
687.133	4920.42
687.323	4838.5
687.513	5071.97
687.702	4977.76
687.892	4994.14
688.082	4789.35
688.272	4918.37
688.461	5008.48
688.651	4738.15
688.841	4752.48
689.03	4662.37
689.22	4789.35
689.41	4705.38
689.599	4680.8
689.789	4836.45
689.979	4666.47
690.168	4654.18
690.358	4590.69
690.547	4598.88
690.737	4639.84
690.926	4658.28
691.116	4576.36
691.305	4547.69
691.495	4592.74
691.684	4383.85
691.874	4531.3
692.063	4578.4
692.252	4367.46
692.442	4512.87
692.631	4308.07
692.82	4303.98
693.01	4342.89
693.199	4353.13
693.388	4422.76
693.578	4355.18
693.767	4301.93
693.956	4330.6
694.146	4217.96
694.335	4226.15
694.524	4195.43
694.713	4185.19
694.902	4152.43
695.092	4242.54
695.281	4181.1
695.47	4129.9
695.659	4117.61
695.848	3978.35
696.037	4117.61
696.226	4211.82
696.415	4281.45
696.604	4201.58
696.793	4025.45
696.982	3982.45
697.171	4070.51
697.36	4101.23
697.549	3974.25
697.738	4002.93
697.927	3943.53
698.116	4031.6
698.305	3984.49
698.494	3884.14
698.683	3878
698.872	3992.69
699.061	3863.66
699.25	3837.04
699.438	3892.34
699.627	3882.1
699.816	3875.95
700.005	3968.11
700.193	3908.72
700.382	3884.14
700.571	3804.27
700.76	3753.07
700.948	3882.1
701.137	3796.08
701.326	3740.79
701.514	3816.56
701.703	3841.14
701.892	3744.88
702.08	3753.07
702.269	3785.84
702.457	3746.93
702.646	3691.63
702.834	3728.5
703.023	3703.92
703.212	3753.07
703.4	3689.59
703.589	3617.91
703.777	3685.49
703.965	3787.89
704.154	3654.77
704.342	3681.39
704.531	3488.89
704.719	3624.05
704.907	3718.26
705.096	3630.2
705.284	3691.63
705.472	3699.83
705.661	3568.76
705.849	3622
706.037	3675.25
706.226	3454.07
706.414	3703.92
706.602	3533.94
706.79	3562.61
706.979	3581.04
707.167	3492.98
707.355	3572.85
707.543	3640.44
707.731	3554.42
707.919	3589.24
708.107	3671.15
708.296	3413.11
708.484	3585.14
708.672	3583.09
708.86	3521.65
709.048	3497.08
709.236	3492.98
709.424	3425.4
709.612	3468.41
709.8	3480.69
709.988	3382.39
710.176	3642.48
710.364	3484.79
710.551	3509.37
710.739	3425.4
710.927	3411.06
711.115	3339.38
711.303	3503.22
711.491	3466.36
711.679	3452.02
711.866	3308.66
712.054	3443.83
712.242	3347.58
712.43	3550.32
712.617	3419.25
712.805	3366.01
712.993	3413.11
713.181	3390.58
713.368	3314.81
713.556	3517.56
713.744	3273.85
713.931	3390.58
714.119	3327.1
714.306	3341.43
714.494	3376.25
714.682	3409.01
714.869	3220.6
715.057	3429.49
715.244	3277.94
715.432	3359.86
715.619	3357.82
715.807	3357.82
715.994	3255.42
716.182	3265.66
716.369	3306.62
716.556	3374.2
716.744	3269.75
716.931	3200.12
717.119	3247.23
717.306	3269.75
717.493	3343.48
717.681	3273.85
717.868	3212.41
718.055	3191.93
718.242	3241.08
718.43	3435.64
718.617	3304.57
718.804	3243.13
718.991	3189.88
719.179	3249.27
719.366	3247.23
719.553	3306.62
719.74	3265.66
719.927	3327.1
720.114	3300.47
720.301	3243.13
720.488	3073.15
720.676	3155.07
720.863	3241.08
721.05	3314.81
721.237	3239.03
721.424	3206.27
721.611	3054.72
721.798	3036.28
721.985	3155.07
722.172	3130.49
722.358	3130.49
722.545	3069.05
722.732	3251.32
722.919	3204.22
723.106	3253.37
723.293	3210.36
723.48	3177.59
723.667	3181.69
723.853	3259.51
724.04	3222.65
724.227	3161.21
724.414	3073.15
724.6	3019.9
724.787	3177.59
724.974	3040.38
725.161	3146.87
725.347	3026.04
725.534	3155.07
725.72	3155.07
725.907	3148.92
726.094	3081.34
726.28	3179.64
726.467	3171.45
726.653	3089.53
726.84	3107.96
727.027	3077.24
727.213	2878.59
727.4	3122.3
727.586	3087.48
727.773	3173.5
727.959	3017.85
728.145	3130.49
728.332	2974.85
728.518	2950.27
728.705	3021.95
728.891	2976.89
729.077	2980.99
729.264	3083.39
729.45	2899.07
729.636	3013.76
729.823	3024
730.009	2987.13
730.195	3040.38
730.382	2993.28
730.568	3105.92
730.754	3056.76
730.94	3050.62
731.126	2960.51
731.313	2937.98
731.499	2919.55
731.685	2944.13
731.871	2927.74
732.057	2851.97
732.243	2905.21
732.429	2919.55
732.615	3030.14
732.801	2897.02
732.987	2827.39
733.173	2940.03
733.359	2882.69
733.545	2901.12
733.731	2921.6
733.917	2845.82
734.103	2903.17
734.289	2792.58
734.475	2884.73
734.661	2913.41
734.847	3007.61
735.033	2851.97
735.219	3015.8
735.404	2751.62
735.59	2878.59
735.776	2667.65
735.962	2737.28
736.148	2778.24
736.333	2823.3
736.519	2862.21
736.705	2804.86
736.89	2862.21
737.076	2700.42
737.262	2759.81
737.447	2778.24
737.633	2806.91
737.819	2780.29
738.004	2716.8
738.19	2708.61
738.375	2741.38
738.561	2792.58
738.747	2600.07
738.932	2624.64
739.118	2684.03
739.303	2788.48
739.489	2677.89
739.674	2616.45
739.859	2681.99
740.045	2626.69
740.23	2606.21
740.416	2536.58
740.601	2557.06
740.786	2532.48
740.972	2567.3
741.157	2581.64
741.342	2462.85
741.528	2696.32
741.713	2622.59
741.898	2395.27
742.084	2483.33
742.269	2569.35
742.454	2557.06
742.639	2454.66
742.824	2438.28
743.01	2495.62
743.195	2532.48
743.38	2518.15
743.565	2559.11
743.75	2446.47
743.935	2460.81
744.12	2524.29
744.305	2415.75
744.49	2352.26
744.675	2423.94
744.86	2315.4
745.045	2395.27
745.23	2397.32
745.415	2356.36
745.6	2301.06
745.785	2249.86
745.97	2333.83
746.155	2292.87
746.34	2251.91
746.525	2225.29
746.71	2262.15
746.895	2296.97
747.079	2229.38
747.264	2292.87
747.449	2223.24
747.634	2188.43
747.819	2217.1
748.003	2114.7
748.188	2071.69
748.373	2249.86
748.557	2071.69
748.742	2012.3
748.927	2137.23
749.111	2096.27
749.296	1926.29
749.481	2063.5
749.665	2018.44
749.85	1981.58
750.034	1977.48
750.219	1905.81
750.404	1942.67
750.588	1911.95
750.773	1975.44
750.957	1905.81
751.141	1905.81
751.326	1932.43
751.51	1866.89
751.695	1797.26
751.879	1881.23
752.064	1895.57
752.248	1852.56
752.432	1711.25
752.617	1881.23
752.801	1825.93
752.985	1658
753.17	1721.49
753.354	1789.07
753.538	1680.53
753.722	1729.68
753.907	1760.4
754.091	1729.68
754.275	1692.82
754.459	1606.8
754.643	1614.99
754.828	1672.34
755.012	1553.55
755.196	1571.99
755.38	1617.04
755.564	1612.95
755.748	1602.71
755.932	1619.09
756.116	1436.82
756.3	1531.03
756.484	1502.36
756.668	1531.03
756.852	1561.75
757.036	1578.13
757.22	1442.96
757.404	1451.16
757.588	1473.68
757.772	1469.59
757.956	1385.62
758.14	1455.25
758.323	1481.88
758.507	1399.96
758.691	1467.54
758.875	1426.58
759.059	1350.81
759.242	1414.29
759.426	1504.4
759.61	1397.91
759.794	1313.94
759.977	1432.72
760.161	1455.25
760.345	1236.12
760.528	1352.85
760.712	1412.25
760.895	1385.62
761.079	1406.1
761.263	1199.26
761.446	1311.89
761.63	1299.61
761.813	1260.7
761.997	1266.84
762.18	1279.13
762.364	1414.29
762.547	1162.39
762.731	1217.69
762.914	1240.22
763.098	1152.15
763.281	1281.18
763.464	1277.08
763.648	1184.92
763.831	1268.89
764.015	1268.89
764.198	1137.82
764.381	1197.21
764.564	1066.14
764.748	1180.82
764.931	1148.06
765.114	1174.68
765.297	1143.96
765.481	1182.87
765.664	1246.36
765.847	1186.97
766.03	1176.73
766.213	1123.48
766.397	1137.82
766.58	1121.43
766.763	1195.16
766.946	1062.04
767.129	1082.52
767.312	1117.34
767.495	1158.3
767.678	1068.19
767.861	1078.43
768.044	1184.92
768.227	1111.19
768.41	1033.37
768.593	1076.38
768.776	1033.37
768.959	1109.15
769.142	1074.33
769.324	1016.99
769.507	1109.15
769.69	1014.94
769.873	1014.94
770.056	1096.86
770.239	1019.04
770.421	1066.14
770.604	998.56
770.787	1000.6
770.97	916.64
771.152	988.32
771.335	926.88
771.518	1066.14
771.7	1049.75
771.883	1023.13
772.066	904.35
772.248	1027.23
772.431	967.84
772.613	955.55
772.796	963.74
772.978	947.36
773.161	967.84
773.343	853.15
773.526	971.93
773.708	902.3
773.891	922.78
774.073	879.77
774.256	933.02
774.438	969.88
774.621	810.14
774.803	957.6
774.985	898.2
775.168	832.67
775.35	908.44
775.532	916.64
775.715	900.25
775.897	844.96
776.079	838.81
776.261	859.29
776.444	734.37
776.626	799.9
776.808	806.05
776.99	775.33
777.173	797.85
777.355	791.71
777.537	752.8
777.719	763.04
777.901	779.42
778.083	754.85
778.265	732.32
778.447	844.96
778.629	683.17
778.811	773.28
778.993	715.94
779.175	822.43
779.357	691.36
779.539	693.41
779.721	717.98
779.903	717.98
780.085	760.99
780.267	683.17
780.449	660.64
780.631	693.41
780.812	701.6
780.994	679.07
781.176	662.69
781.358	640.16
781.54	627.87
781.721	664.74
781.903	677.02
782.085	668.83
782.267	629.92
782.448	572.58
782.63	636.06
782.812	623.78
782.993	564.39
783.175	599.2
783.357	701.6
783.538	648.35
783.72	541.86
783.901	603.3
784.083	636.06
784.264	572.58
784.446	541.86
784.627	502.95
784.809	584.87
784.99	486.56
785.172	597.15
785.353	591.01
785.535	494.76
785.716	519.33
785.897	537.76
786.079	564.39
786.26	480.42
786.441	552.1
786.623	418.98
786.804	527.52
786.985	431.27
787.167	478.37
787.348	418.98
787.529	515.23
787.71	550.05
787.891	439.46
788.073	423.08
788.254	402.6
788.435	500.9
788.616	466.08
788.797	435.36
788.978	455.84
789.159	427.17
789.34	445.6
789.522	472.23
789.703	482.47
789.884	378.02
790.065	453.8
790.246	494.76
790.427	369.83
790.607	455.84
790.788	402.6
790.969	396.45
791.15	427.17
791.331	412.84
791.512	412.84
791.693	388.26
791.874	396.45
792.054	418.98
792.235	410.79
792.416	461.99
792.597	441.51
792.778	421.03
792.958	427.17
793.139	328.87
793.32	314.53
793.5	316.58
793.681	423.08
793.862	349.35
794.042	335.01
794.223	314.53
794.404	343.21
794.584	363.69
794.765	349.35
794.945	388.26
795.126	386.21
795.306	416.93
795.487	296.1
795.667	406.69
795.848	355.49
796.028	314.53
796.209	294.05
796.389	390.31
796.57	365.73
796.75	304.29
796.93	310.44
797.111	341.16
797.291	283.81
797.471	330.92
797.652	302.25
797.832	310.44
798.012	392.36
798.192	353.45
798.373	271.53
798.553	300.2
798.733	308.39
798.913	298.15
799.093	279.72
799.274	226.47
799.454	242.85
799.634	347.3
799.814	279.72
799.994	249
800.174	287.91
800.354	351.4
800.534	189.61
800.714	326.82
800.894	242.85
801.074	312.49
801.254	353.45
801.434	281.77
801.614	277.67
801.794	257.19
801.974	717.98
802.154	224.42
802.334	351.4
802.514	240.81
802.693	275.62
802.873	300.2
803.053	306.34
803.233	273.57
803.413	267.43
803.592	251.05
803.772	253.09
803.952	304.29
804.131	269.48
804.311	353.45
804.491	279.72
804.67	263.33
804.85	210.09
805.03	341.16
805.209	251.05
805.389	287.91
805.568	191.66
805.748	169.13
805.928	228.52
806.107	236.71
806.287	255.14
806.466	165.03
806.646	226.47
806.825	193.7
807.004	187.56
807.184	269.48
807.363	208.04
807.543	195.75
807.722	259.24
807.901	275.62
808.081	265.38
808.26	191.66
808.439	201.9
808.619	195.75
808.798	228.52
808.977	300.2
809.156	224.42
809.336	226.47
809.515	175.27
809.694	214.18
809.873	185.51
810.052	189.61
810.231	244.9
810.411	226.47
810.59	212.14
810.769	199.85
810.948	175.27
811.127	138.41
811.306	185.51
811.485	230.57
811.664	220.33
811.843	236.71
812.022	148.65
812.201	144.55
812.38	216.23
812.559	197.8
812.737	255.14
812.916	191.66
813.095	167.08
813.274	193.7
813.453	205.99
813.632	175.27
813.811	150.7
813.989	158.89
814.168	205.99
814.347	171.18
814.526	240.81
814.704	300.2
814.883	255.14
815.062	134.31
815.24	144.55
815.419	160.94
815.598	154.79
815.776	138.41
815.955	181.42
816.133	126.12
816.312	263.33
816.49	144.55
816.669	249
816.847	187.56
817.026	316.58
817.204	173.22
817.383	160.94
817.561	240.81
817.74	179.37
817.918	148.65
818.097	87.21
818.275	134.31
818.453	224.42
818.632	152.74
818.81	83.11
818.988	132.26
819.167	146.6
819.345	130.22
819.523	183.46
819.701	101.55
819.879	189.61
820.058	117.93
820.236	115.88
820.414	113.83
820.592	160.94
820.77	140.46
820.948	236.71
821.127	142.5
821.305	150.7
821.483	187.56
821.661	132.26
821.839	111.78
822.017	148.65
822.195	158.89
822.373	124.07
822.551	134.31
822.729	117.93
822.907	183.46
823.085	144.55
823.262	107.69
823.44	136.36
823.618	136.36
823.796	173.22
823.974	87.21
824.152	160.94
824.329	99.5
824.507	122.02
824.685	136.36
824.863	72.87
825.04	158.89
825.218	119.98
825.396	103.59
825.574	165.03
825.751	234.66
825.929	177.32
826.107	40.11
826.284	128.17
826.462	126.12
826.639	128.17
826.817	165.03
826.994	126.12
827.172	148.65
827.349	136.36
827.527	60.59
827.704	107.69
827.882	64.68
828.059	64.68
828.237	181.42
828.414	119.98
828.591	111.78
828.769	134.31
828.946	1.19
829.124	144.55
829.301	89.26
829.478	103.59
829.655	68.78
829.833	142.5
830.01	60.59
830.187	111.78
830.364	122.02
830.542	148.65
830.719	117.93
830.896	99.5
831.073	119.98
831.25	171.18
831.427	214.18
831.604	197.8
831.782	150.7
831.959	154.79
832.136	36.01
832.313	50.35
832.49	76.97
832.667	52.39
832.844	160.94
833.021	158.89
833.198	107.69
833.374	91.31
833.551	126.12
833.728	142.5
833.905	111.78
834.082	21.67
834.259	132.26
834.436	128.17
834.612	119.98
834.789	40.11
834.966	97.45
835.143	-4.95
835.319	70.83
835.496	197.8
835.673	91.31
835.85	107.69
836.026	5.29
836.203	162.98
836.38	140.46
836.556	56.49
836.733	46.25
836.909	95.4
837.086	44.2
837.262	52.39
837.439	193.7
837.616	89.26
837.792	44.2
837.968	38.06
838.145	101.55
838.321	29.87
838.498	113.83
838.674	83.11
838.851	25.77
839.027	31.91
839.203	23.72
839.38	99.5
839.556	101.55
839.732	109.74
839.909	58.54
840.085	74.92
840.261	85.16
840.437	56.49
840.614	42.15
840.79	130.22
840.966	124.07
841.142	48.3
841.318	79.02
841.494	7.34
841.671	42.15
841.847	109.74
842.023	3.24
842.199	62.63
842.375	66.73
842.551	60.59
842.727	29.87
842.903	56.49
843.079	64.68
843.255	111.78
843.431	21.67
843.607	97.45
843.783	83.11
843.959	97.45
844.134	109.74
844.31	76.97
844.486	56.49
844.662	15.53
844.838	93.35
845.013	144.55
845.189	136.36
845.365	83.11
845.541	79.02
845.716	87.21
845.892	87.21
846.068	68.78
846.244	21.67
846.419	68.78
846.595	31.91
846.77	66.73
846.946	79.02
847.122	-29.52
847.297	38.06
847.473	130.22
847.648	60.59
847.824	95.4
847.999	46.25
848.175	97.45
848.35	68.78
848.526	60.59
848.701	111.78
848.876	138.41
849.052	44.2
849.227	95.4
849.403	165.03
849.578	50.35
849.753	101.55
849.929	27.82
850.104	-11.09
850.279	29.87
850.454	13.48
850.63	117.93
850.805	54.44
850.98	76.97
851.155	44.2
851.33	111.78
851.505	19.63
851.681	17.58
851.856	17.58
852.031	105.64
852.206	81.07
852.381	15.53
852.556	3.24
852.731	81.07
852.906	58.54
853.081	44.2
853.256	52.39
853.431	31.91
853.606	19.63
853.781	40.11
853.956	54.44
854.131	44.2
854.305	54.44
854.48	1.19
854.655	-31.57
854.83	38.06
855.005	152.74
855.18	29.87
855.354	27.82
855.529	81.07
855.704	42.15
855.879	74.92
856.053	33.96
856.228	89.26
856.403	38.06
856.577	46.25
856.752	13.48
856.926	128.17
857.101	-39.76
857.276	46.25
857.45	5.29
857.625	40.11
857.799	-21.33
857.974	-29.52
858.148	15.53
858.323	56.49
858.497	-31.57
858.672	33.96
858.846	89.26
859.02	19.63
859.195	-27.48
859.369	54.44
859.543	11.43
859.718	97.45
859.892	58.54
860.066	62.63
860.241	56.49
860.415	52.39
860.589	46.25
860.763	38.06
860.938	-11.09
861.112	44.2
861.286	-25.43
861.46	107.69
861.634	13.48
861.808	40.11
861.982	19.63
862.157	3.24
862.331	25.77
862.505	-35.67
862.679	1.19
862.853	21.67
863.027	74.92
863.201	107.69
863.375	-64.34
863.549	-11.09
863.722	36.01
863.896	70.83
864.07	-4.95
864.244	29.87
864.418	42.15
864.592	-21.33
864.766	31.91
864.939	-2.9
865.113	66.73
865.287	-13.14
865.461	70.83
865.634	62.63
865.808	79.02
865.982	64.68
866.156	3.24
866.329	-21.33
866.503	23.72
866.676	-21.33
866.85	33.96
867.024	50.35
867.197	54.44
867.371	62.63
867.544	42.15
867.718	-0.85
867.891	17.58
868.065	85.16
868.238	23.72
868.412	17.58
868.585	21.67
868.759	76.97
868.932	25.77
869.105	-15.19
869.279	1.19
869.452	21.67
869.625	5.29
869.799	38.06
869.972	1.19
870.145	81.07
870.319	7.34
870.492	25.77
870.665	79.02
870.838	-25.43
871.011	-66.39
871.185	111.78
871.358	66.73
871.531	25.77
871.704	1.19
871.877	60.59
872.05	25.77
872.223	40.11
872.396	21.67
872.569	13.48
872.742	-11.09
872.915	29.87
873.088	46.25
873.261	-0.85
873.434	3.24
873.607	60.59
873.78	76.97
873.953	7.34
874.126	-4.95
874.299	62.63
874.471	-43.86
874.644	21.67
874.817	42.15
874.99	70.83
875.163	-31.57
875.335	-4.95
875.508	7.34
875.681	72.87
875.853	-19.29
876.026	1.19
876.199	72.87
876.371	1.19
876.544	27.82
876.717	56.49
876.889	36.01
877.062	72.87
877.234	-2.9
877.407	115.88
877.579	9.39
877.752	19.63
877.924	29.87
878.097	-19.29
878.269	29.87
878.442	-17.24
878.614	5.29
878.786	-2.9
878.959	103.59
879.131	56.49
879.303	-19.29
879.476	50.35
879.648	29.87
879.82	52.39
879.993	-0.85
880.165	25.77
880.337	54.44
880.509	27.82
880.681	-86.87
880.854	1.19
881.026	56.49
881.198	85.16
881.37	-11.09
881.542	-2.9
881.714	44.2
881.886	-19.29
882.058	19.63
882.23	38.06
882.402	50.35
882.574	42.15
882.746	3.24
882.918	44.2
883.09	50.35
883.262	44.2
883.434	60.59
883.606	33.96
883.778	-13.14
883.95	19.63
884.122	-33.62
884.293	60.59
884.465	-7
884.637	52.39
884.809	-25.43
884.98	-11.09
885.152	46.25
885.324	42.15
885.496	72.87
885.667	-2.9
885.839	-43.86
886.011	-56.15
886.182	50.35
886.354	23.72
886.525	-25.43
886.697	33.96
886.869	7.34
887.04	52.39
887.212	5.29
887.383	21.67
887.555	70.83
887.726	-31.57
887.897	-11.09
888.069	1.19
888.24	60.59
888.412	-0.85
888.583	64.68
888.754	33.96
888.926	33.96
889.097	-56.15
889.268	38.06
889.44	17.58
889.611	-9.05
889.782	21.67
889.953	9.39
890.125	50.35
890.296	-33.62
890.467	-13.14
890.638	7.34
890.809	-9.05
890.98	-37.72
891.151	56.49
891.323	7.34
891.494	76.97
891.665	36.01
891.836	40.11
892.007	105.64
892.178	-17.24
892.349	-33.62
892.52	29.87
892.691	-56.15
892.862	31.91
893.032	-68.44
893.203	-66.39
893.374	9.39
893.545	60.59
893.716	33.96
893.887	21.67
894.057	1.19
894.228	25.77
894.399	-58.2
894.57	27.82
894.74	-52.05
894.911	11.43
895.082	-29.52
895.253	1.19
895.423	5.29
895.594	89.26
895.764	40.11
895.935	87.21
896.106	54.44
896.276	17.58
896.447	9.39
896.617	17.58
896.788	38.06
896.958	-19.29
897.129	31.91
897.299	-21.33
897.47	79.02
897.64	-21.33
897.81	-25.43
897.981	17.58
898.151	50.35
898.322	25.77
898.492	36.01
898.662	13.48
898.832	-17.24
899.003	-23.38
899.173	21.67
899.343	21.67
899.513	40.11
