Data from USB4F104151__250__10-31-04-826.txt Node

Date: Wed Mar 12 10:31:04 EDT 2025
User: louis
Spectrometer: USB4F10415
Trigger mode: 4
Integration Time (sec): 3.000000E-2
Scans to average: 1
Electric dark correction enabled: true
Nonlinearity correction enabled: false
Boxcar width: 0
XAxis mode: Wavelengths
Number of Pixels in Spectrum: 3648
>>>>>Begin Spectral Data<<<<<
178.204	-92.16
178.424	-92.16
178.644	-92.16
178.864	-73.73
179.084	-110.59
179.304	-61.44
179.524	22.53
179.744	26.62
179.964	20.48
180.184	12.29
180.404	-81.92
180.624	22.53
180.844	24.58
181.064	-38.91
181.283	-8.19
181.503	22.53
181.723	38.91
181.943	-55.3
182.163	102.4
182.383	59.39
182.602	59.39
182.822	16.38
183.042	65.53
183.262	34.82
183.482	51.2
183.701	-32.77
183.921	59.39
184.141	6.14
184.361	47.1
184.58	-88.06
184.8	26.62
185.02	6.14
185.239	14.34
185.459	6.14
185.679	24.58
185.898	0
186.118	32.77
186.338	-6.14
186.557	-12.29
186.777	67.58
186.997	0
187.216	96.25
187.436	26.62
187.655	51.2
187.875	51.2
188.095	28.67
188.314	18.43
188.534	-18.43
188.753	34.82
188.973	14.34
189.192	81.92
189.412	98.3
189.631	34.82
189.851	18.43
190.07	53.25
190.29	67.58
190.509	59.39
190.729	10.24
190.948	22.53
191.168	90.11
191.387	51.2
191.607	49.15
191.826	-43.01
192.045	10.24
192.265	-12.29
192.484	38.91
192.704	45.06
192.923	-55.3
193.142	141.31
193.362	38.91
193.581	-14.34
193.8	67.58
194.02	26.62
194.239	22.53
194.458	26.62
194.678	4.1
194.897	-10.24
195.116	45.06
195.335	63.49
195.555	83.97
195.774	-6.14
195.993	63.49
196.212	34.82
196.432	65.53
196.651	47.1
196.87	2.05
197.089	-2.05
197.308	92.16
197.528	8.19
197.747	-65.54
197.966	43.01
198.185	10.24
198.404	-26.62
198.623	10.24
198.842	83.97
199.062	51.2
199.281	49.15
199.5	51.2
199.719	-34.82
199.938	14.34
200.157	83.97
200.376	-55.3
200.595	116.73
200.814	2.05
201.033	-26.62
201.252	32.77
201.471	-16.38
201.69	108.54
201.909	8.19
202.128	-49.15
202.347	71.68
202.566	55.3
202.785	-2.05
203.004	-12.29
203.223	88.06
203.442	2.05
203.661	49.15
203.879	49.15
204.098	-8.19
204.317	20.48
204.536	88.06
204.755	-40.96
204.974	22.53
205.193	83.97
205.411	92.16
205.63	65.53
205.849	8.19
206.068	-32.77
206.287	55.3
206.505	53.25
206.724	0
206.943	-14.34
207.162	34.82
207.381	-22.53
207.599	-2.05
207.818	2.05
208.037	12.29
208.255	10.24
208.474	20.48
208.693	73.73
208.911	-24.58
209.13	65.53
209.349	18.43
209.567	-22.53
209.786	16.38
210.005	61.44
210.223	-2.05
210.442	34.82
210.661	-2.05
210.879	14.34
211.098	-20.48
211.316	34.82
211.535	55.3
211.753	-51.2
211.972	67.58
212.191	2.05
212.409	20.48
212.628	71.68
212.846	-67.58
213.065	116.73
213.283	59.39
213.502	49.15
213.72	86.01
213.938	6.14
214.157	22.53
214.375	-26.62
214.594	67.58
214.812	100.35
215.031	63.49
215.249	47.1
215.467	-8.19
215.686	8.19
215.904	0
216.122	73.73
216.341	20.48
216.559	79.87
216.778	40.96
216.996	73.73
217.214	20.48
217.432	-2.05
217.651	55.3
217.869	-14.34
218.087	26.62
218.306	43.01
218.524	126.97
218.742	22.53
218.96	8.19
219.179	-34.82
219.397	69.63
219.615	88.06
219.833	43.01
220.051	28.67
220.27	77.82
220.488	14.34
220.706	40.96
220.924	30.72
221.142	16.38
221.36	63.49
221.578	38.91
221.796	57.34
222.015	-8.19
222.233	36.86
222.451	131.07
222.669	-14.34
222.887	114.69
223.105	30.72
223.323	61.44
223.541	-8.19
223.759	55.3
223.977	-26.62
224.195	110.59
224.413	55.3
224.631	53.25
224.849	34.82
225.067	83.97
225.285	-28.67
225.503	8.19
225.721	-24.58
225.939	45.06
226.157	14.34
226.375	100.35
226.592	-40.96
226.81	4.1
227.028	-18.43
227.246	71.68
227.464	67.58
227.682	141.31
227.9	38.91
228.117	67.58
228.335	18.43
228.553	38.91
228.771	-32.77
228.989	63.49
229.206	30.72
229.424	-24.58
229.642	106.49
229.86	30.72
230.077	16.38
230.295	-14.34
230.513	100.35
230.731	28.67
230.948	61.44
231.166	43.01
231.384	38.91
231.601	26.62
231.819	43.01
232.037	71.68
232.254	-63.49
232.472	6.14
232.689	-6.14
232.907	-8.19
233.125	32.77
233.342	57.34
233.56	-8.19
233.777	-24.58
233.995	4.1
234.213	88.06
234.43	57.34
234.648	-20.48
234.865	-32.77
235.083	16.38
235.3	45.06
235.518	2.05
235.735	51.2
235.953	86.01
236.17	0
236.388	59.39
236.605	40.96
236.822	81.92
237.04	49.15
237.257	57.34
237.475	18.43
237.692	63.49
237.909	55.3
238.127	-26.62
238.344	10.24
238.562	-2.05
238.779	22.53
238.996	2.05
239.214	22.53
239.431	-6.14
239.648	65.53
239.865	49.15
240.083	18.43
240.3	59.39
240.517	-32.77
240.735	6.14
240.952	18.43
241.169	20.48
241.386	8.19
241.603	-10.24
241.821	-102.4
242.038	65.53
242.255	26.62
242.472	-8.19
242.689	55.3
242.907	75.77
243.124	45.06
243.341	45.06
243.558	59.39
243.775	96.25
243.992	-32.77
244.209	57.34
244.426	28.67
244.643	38.91
244.86	-2.05
245.078	28.67
245.295	77.82
245.512	43.01
245.729	59.39
245.946	69.63
246.163	79.87
246.38	47.1
246.597	10.24
246.814	22.53
247.031	-32.77
247.248	18.43
247.464	18.43
247.681	2.05
247.898	53.25
248.115	90.11
248.332	71.68
248.549	-8.19
248.766	90.11
248.983	-38.91
249.2	57.34
249.417	32.77
249.633	32.77
249.85	2.05
250.067	30.72
250.284	108.54
250.501	30.72
250.717	75.77
250.934	14.34
251.151	51.2
251.368	-2.05
251.585	81.92
251.801	83.97
252.018	-24.58
252.235	28.67
252.451	-10.24
252.668	20.48
252.885	14.34
253.102	57.34
253.318	34.82
253.535	-36.86
253.752	43.01
253.968	32.77
254.185	6.14
254.401	22.53
254.618	71.68
254.835	10.24
255.051	116.73
255.268	26.62
255.484	-14.34
255.701	-38.91
255.917	-28.67
256.134	100.35
256.351	8.19
256.567	4.1
256.784	26.62
257	20.48
257.217	126.97
257.433	47.1
257.65	-2.05
257.866	47.1
258.082	-22.53
258.299	8.19
258.515	53.25
258.732	-8.19
258.948	53.25
259.165	88.06
259.381	26.62
259.597	38.91
259.814	116.73
260.03	83.97
260.246	28.67
260.463	-34.82
260.679	28.67
260.895	26.62
261.112	-6.14
261.328	0
261.544	47.1
261.761	120.83
261.977	32.77
262.193	-30.72
262.409	18.43
262.626	30.72
262.842	63.49
263.058	28.67
263.274	6.14
263.49	57.34
263.707	79.87
263.923	22.53
264.139	100.35
264.355	-18.43
264.571	61.44
264.787	69.63
265.004	26.62
265.22	6.14
265.436	86.01
265.652	49.15
265.868	73.73
266.084	-22.53
266.3	34.82
266.516	-14.34
266.732	55.3
266.948	36.86
267.164	83.97
267.38	69.63
267.596	-8.19
267.812	86.01
268.028	18.43
268.244	2.05
268.46	79.87
268.676	106.49
268.892	20.48
269.108	8.19
269.324	43.01
269.54	55.3
269.756	40.96
269.972	16.38
270.188	94.21
270.403	-49.15
270.619	-14.34
270.835	10.24
271.051	67.58
271.267	63.49
271.483	6.14
271.698	-4.1
271.914	34.82
272.13	51.2
272.346	14.34
272.562	47.1
272.777	63.49
272.993	18.43
273.209	16.38
273.425	114.69
273.64	34.82
273.856	40.96
274.072	2.05
274.287	-34.82
274.503	24.58
274.719	4.1
274.934	12.29
275.15	12.29
275.366	65.53
275.581	38.91
275.797	28.67
276.012	96.25
276.228	26.62
276.444	0
276.659	51.2
276.875	40.96
277.09	-4.1
277.306	28.67
277.521	92.16
277.737	67.58
277.952	114.69
278.168	-10.24
278.383	6.14
278.599	51.2
278.814	63.49
279.03	-12.29
279.245	26.62
279.461	79.87
279.676	114.69
279.892	28.67
280.107	53.25
280.322	18.43
280.538	22.53
280.753	-47.1
280.969	-2.05
281.184	43.01
281.399	131.07
281.615	-6.14
281.83	40.96
282.045	-20.48
282.26	28.67
282.476	-18.43
282.691	81.92
282.906	65.53
283.122	73.73
283.337	-22.53
283.552	106.49
283.767	32.77
283.983	57.34
284.198	38.91
284.413	57.34
284.628	2.05
284.843	38.91
285.058	79.87
285.274	67.58
285.489	49.15
285.704	57.34
285.919	26.62
286.134	98.3
286.349	6.14
286.564	6.14
286.779	32.77
286.995	-18.43
287.21	49.15
287.425	73.73
287.64	67.58
287.855	81.92
288.07	-20.48
288.285	98.3
288.5	88.06
288.715	63.49
288.93	-6.14
289.145	94.21
289.36	59.39
289.575	51.2
289.79	26.62
290.004	2.05
290.219	88.06
290.434	131.07
290.649	-4.1
290.864	-18.43
291.079	-2.05
291.294	75.77
291.509	6.14
291.724	10.24
291.938	59.39
292.153	79.87
292.368	47.1
292.583	61.44
292.798	0
293.012	-26.62
293.227	57.34
293.442	51.2
293.657	18.43
293.871	83.97
294.086	28.67
294.301	90.11
294.516	24.58
294.73	-32.77
294.945	43.01
295.16	30.72
295.374	61.44
295.589	-45.06
295.804	-55.3
296.018	36.86
296.233	71.68
296.447	83.97
296.662	43.01
296.877	32.77
297.091	81.92
297.306	40.96
297.52	-26.62
297.735	81.92
297.949	-88.06
298.164	104.45
298.378	-77.82
298.593	30.72
298.807	51.2
299.022	79.87
299.236	67.58
299.451	-65.54
299.665	43.01
299.88	22.53
300.094	92.16
300.309	38.91
300.523	53.25
300.737	-8.19
300.952	92.16
301.166	79.87
301.381	-14.34
301.595	0
301.809	43.01
302.024	-26.62
302.238	18.43
302.452	12.29
302.667	38.91
302.881	55.3
303.095	53.25
303.309	26.62
303.524	-69.63
303.738	43.01
303.952	26.62
304.166	55.3
304.381	10.24
304.595	43.01
304.809	-61.44
305.023	83.97
305.237	65.53
305.452	22.53
305.666	32.77
305.88	34.82
306.094	22.53
306.308	71.68
306.522	18.43
306.736	49.15
306.95	10.24
307.164	28.67
307.379	-10.24
307.593	43.01
307.807	100.35
308.021	43.01
308.235	38.91
308.449	-40.96
308.663	59.39
308.877	81.92
309.091	-26.62
309.305	57.34
309.519	-2.05
309.733	59.39
309.947	-51.2
310.161	-22.53
310.374	65.53
310.588	137.21
310.802	-2.05
311.016	55.3
311.23	38.91
311.444	40.96
311.658	16.38
311.872	98.3
312.085	26.62
312.299	55.3
312.513	71.68
312.727	59.39
312.941	22.53
313.154	32.77
313.368	69.63
313.582	-14.34
313.796	8.19
314.009	10.24
314.223	-6.14
314.437	49.15
314.651	79.87
314.864	26.62
315.078	57.34
315.292	-43.01
315.505	-18.43
315.719	77.82
315.933	-14.34
316.146	28.67
316.36	16.38
316.573	38.91
316.787	73.73
317.001	100.35
317.214	22.53
317.428	30.72
317.641	-16.38
317.855	104.45
318.068	55.3
318.282	26.62
318.495	38.91
318.709	90.11
318.922	47.1
319.136	59.39
319.349	67.58
319.563	0
319.776	47.1
319.99	-55.3
320.203	83.97
320.417	16.38
320.63	79.87
320.843	73.73
321.057	-4.1
321.27	0
321.483	26.62
321.697	75.77
321.91	63.49
322.124	40.96
322.337	34.82
322.55	-14.34
322.763	-24.58
322.977	12.29
323.19	49.15
323.403	22.53
323.617	26.62
323.83	43.01
324.043	10.24
324.256	98.3
324.469	26.62
324.683	92.16
324.896	6.14
325.109	38.91
325.322	63.49
325.535	102.4
325.748	30.72
325.962	61.44
326.175	-77.82
326.388	71.68
326.601	34.82
326.814	65.53
327.027	0
327.24	110.59
327.453	0
327.666	4.1
327.879	75.77
328.092	65.53
328.305	67.58
328.518	49.15
328.731	34.82
328.944	14.34
329.157	45.06
329.37	2.05
329.583	83.97
329.796	114.69
330.009	-18.43
330.222	43.01
330.435	133.12
330.648	182.27
330.861	49.15
331.073	4.1
331.286	55.3
331.499	0
331.712	6.14
331.925	-12.29
332.138	69.63
332.35	120.83
332.563	0
332.776	55.3
332.989	-55.3
333.202	10.24
333.414	108.54
333.627	57.34
333.84	67.58
334.053	81.92
334.265	75.77
334.478	40.96
334.691	59.39
334.903	16.38
335.116	0
335.329	83.97
335.541	36.86
335.754	112.64
335.966	51.2
336.179	12.29
336.392	49.15
336.604	45.06
336.817	-24.58
337.029	57.34
337.242	38.91
337.454	116.73
337.667	77.82
337.88	-40.96
338.092	-10.24
338.305	-6.14
338.517	40.96
338.729	6.14
338.942	49.15
339.154	-30.72
339.367	-6.14
339.579	81.92
339.792	2.05
340.004	49.15
340.217	-6.14
340.429	38.91
340.641	10.24
340.854	-6.14
341.066	34.82
341.278	106.49
341.491	92.16
341.703	16.38
341.915	69.63
342.128	38.91
342.34	131.07
342.552	10.24
342.764	36.86
342.977	-10.24
343.189	2.05
343.401	49.15
343.613	18.43
343.826	47.1
344.038	0
344.25	36.86
344.462	-53.25
344.674	57.34
344.886	-10.24
345.099	22.53
345.311	65.53
345.523	38.91
345.735	-18.43
345.947	96.25
346.159	79.87
346.371	49.15
346.583	4.1
346.795	55.3
347.007	-43.01
347.219	24.58
347.431	-2.05
347.643	81.92
347.855	38.91
348.067	69.63
348.279	43.01
348.491	57.34
348.703	51.2
348.915	-24.58
349.127	69.63
349.339	55.3
349.551	55.3
349.763	75.77
349.975	47.1
350.187	20.48
350.399	55.3
350.61	59.39
350.822	77.82
351.034	57.34
351.246	2.05
351.458	22.53
351.669	22.53
351.881	57.34
352.093	141.31
352.305	-18.43
352.517	83.97
352.728	32.77
352.94	30.72
353.152	96.25
353.363	36.86
353.575	49.15
353.787	59.39
353.999	-4.1
354.21	8.19
354.422	47.1
354.633	61.44
354.845	51.2
355.057	81.92
355.268	92.16
355.48	40.96
355.692	26.62
355.903	2.05
356.115	43.01
356.326	-2.05
356.538	79.87
356.749	51.2
356.961	8.19
357.172	-34.82
357.384	28.67
357.595	135.17
357.807	81.92
358.018	79.87
358.23	45.06
358.441	81.92
358.653	55.3
358.864	38.91
359.075	45.06
359.287	-49.15
359.498	98.3
359.709	18.43
359.921	40.96
360.132	61.44
360.344	100.35
360.555	0
360.766	63.49
360.977	43.01
361.189	40.96
361.4	57.34
361.611	110.59
361.823	141.31
362.034	-4.1
362.245	59.39
362.456	69.63
362.667	71.68
362.879	59.39
363.09	18.43
363.301	120.83
363.512	4.1
363.723	-26.62
363.935	8.19
364.146	57.34
364.357	67.58
364.568	30.72
364.779	0
364.99	108.54
365.201	49.15
365.412	114.69
365.623	-6.14
365.834	59.39
366.045	36.86
366.256	81.92
366.467	-2.05
366.678	40.96
366.889	57.34
367.1	59.39
367.311	73.73
367.522	40.96
367.733	98.3
367.944	57.34
368.155	83.97
368.366	51.2
368.577	86.01
368.788	22.53
368.999	-34.82
369.209	61.44
369.42	96.25
369.631	90.11
369.842	94.21
370.053	10.24
370.264	22.53
370.474	69.63
370.685	45.06
370.896	47.1
371.107	112.64
371.317	51.2
371.528	83.97
371.739	61.44
371.95	-40.96
372.16	-14.34
372.371	26.62
372.582	71.68
372.792	12.29
373.003	43.01
373.214	53.25
373.424	96.25
373.635	51.2
373.846	51.2
374.056	75.77
374.267	8.19
374.477	45.06
374.688	69.63
374.898	30.72
375.109	149.5
375.319	83.97
375.53	18.43
375.74	38.91
375.951	45.06
376.161	81.92
376.372	92.16
376.582	-10.24
376.793	57.34
377.003	83.97
377.214	10.24
377.424	45.06
377.635	43.01
377.845	-40.96
378.055	96.25
378.266	8.19
378.476	-16.38
378.686	0
378.897	67.58
379.107	147.45
379.317	67.58
379.528	88.06
379.738	75.77
379.948	40.96
380.158	26.62
380.369	69.63
380.579	61.44
380.789	83.97
380.999	96.25
381.21	112.64
381.42	20.48
381.63	112.64
381.84	40.96
382.05	63.49
382.261	81.92
382.471	129.02
382.681	24.58
382.891	79.87
383.101	90.11
383.311	26.62
383.521	38.91
383.731	126.97
383.941	34.82
384.151	51.2
384.361	86.01
384.571	65.53
384.781	71.68
384.991	83.97
385.201	114.69
385.411	26.62
385.621	75.77
385.831	47.1
386.041	118.78
386.251	59.39
386.461	102.4
386.671	67.58
386.881	116.73
387.091	51.2
387.301	77.82
387.511	137.21
387.72	137.21
387.93	-6.14
388.14	-2.05
388.35	14.34
388.56	122.88
388.769	124.93
388.979	104.45
389.189	57.34
389.399	120.83
389.609	12.29
389.818	73.73
390.028	57.34
390.238	51.2
390.447	4.1
390.657	22.53
390.867	10.24
391.076	75.77
391.286	67.58
391.496	14.34
391.705	83.97
391.915	43.01
392.125	100.35
392.334	24.58
392.544	104.45
392.753	36.86
392.963	38.91
393.172	137.21
393.382	2.05
393.591	63.49
393.801	55.3
394.01	98.3
394.22	83.97
394.429	135.17
394.639	112.64
394.848	69.63
395.058	24.58
395.267	129.02
395.477	116.73
395.686	83.97
395.895	81.92
396.105	143.36
396.314	79.87
396.524	120.83
396.733	129.02
396.942	118.78
397.152	116.73
397.361	147.45
397.57	137.21
397.78	129.02
397.989	98.3
398.198	172.03
398.407	137.21
398.617	141.31
398.826	112.64
399.035	92.16
399.244	212.99
399.453	75.77
399.663	157.69
399.872	165.89
400.081	4.1
400.29	145.41
400.499	122.88
400.708	159.74
400.917	94.21
401.127	169.98
401.336	75.77
401.545	231.42
401.754	178.17
401.963	174.08
402.172	182.27
402.381	145.41
402.59	141.31
402.799	49.15
403.008	141.31
403.217	186.37
403.426	219.13
403.635	79.87
403.844	118.78
404.053	96.25
404.262	149.5
404.471	196.61
404.68	153.6
404.888	129.02
405.097	174.08
405.306	145.41
405.515	190.46
405.724	135.17
405.933	120.83
406.142	323.58
406.35	245.76
406.559	149.5
406.768	182.27
406.977	282.62
407.185	176.13
407.394	268.28
407.603	231.42
407.812	235.52
408.02	194.56
408.229	260.09
408.438	288.76
408.646	272.38
408.855	188.41
409.064	354.3
409.272	280.57
409.481	286.72
409.69	278.52
409.898	313.34
410.107	313.34
410.315	288.76
410.524	329.72
410.733	380.92
410.941	378.87
411.15	401.4
411.358	372.73
411.567	419.83
411.775	411.64
411.984	397.31
412.192	520.18
412.401	497.66
412.609	466.94
412.818	479.22
413.026	555
413.234	602.1
413.443	548.86
413.651	575.48
413.86	534.52
414.068	636.92
414.276	673.78
414.485	651.25
414.693	655.35
414.901	845.81
415.11	751.6
415.318	681.97
415.526	788.47
415.734	796.66
415.943	833.52
416.151	862.19
416.359	911.35
416.567	880.63
416.776	913.39
416.984	987.12
417.192	1021.94
417.4	958.45
417.608	1038.32
417.817	1114.09
418.025	1011.7
418.233	1185.77
418.441	1169.39
418.649	1273.84
418.857	1327.08
419.065	1304.56
419.273	1341.42
419.481	1423.34
419.689	1425.39
419.897	1574.89
420.105	1538.02
420.313	1515.5
420.521	1773.54
420.729	1738.73
420.937	1845.22
421.145	1791.97
421.353	1986.53
421.561	2035.68
421.769	2144.22
421.977	2172.89
422.185	2062.3
422.393	2346.97
422.601	2336.73
422.809	2320.35
423.017	2443.23
423.224	2457.56
423.432	2648.02
423.64	2682.84
423.848	2867.16
424.056	2709.46
424.263	2922.45
424.471	2953.17
424.679	3020.75
424.887	3217.36
425.094	3360.72
425.302	3286.99
425.51	3395.53
425.718	3583.95
425.925	3506.12
426.133	3684.3
426.341	3893.19
426.548	4016.07
426.756	4057.03
426.964	4095.94
427.171	4304.83
427.379	4388.8
427.586	4642.75
427.794	4579.26
428.001	4933.56
428.209	5064.63
428.417	4995
428.624	5390.25
428.832	5359.53
429.039	5359.53
429.247	5369.77
429.454	5906.34
429.662	6203.3
429.869	5926.82
430.076	6268.83
430.284	6309.79
430.491	6244.26
430.699	6858.65
430.906	6686.62
431.114	6856.6
431.321	7108.5
431.528	7155.6
431.736	7772.04
431.943	7919.5
432.15	7892.87
432.358	7769.99
432.565	8411.01
432.772	8241.03
432.979	8597.37
433.187	8896.38
433.394	8806.27
433.601	9439.09
433.808	9387.89
434.016	9197.43
434.223	9824.11
434.43	10600.29
434.637	10168.16
434.844	10899.29
435.052	11044.7
435.259	10807.13
435.466	11104.09
435.673	11018.07
435.88	11849.55
436.087	12502.85
436.294	12406.59
436.501	12154.69
436.708	12279.62
436.915	12779.33
437.122	13360.95
437.329	13080.38
437.537	13635.38
437.743	13842.22
437.95	13817.65
438.157	14429.99
438.364	14995.23
438.571	14886.68
438.778	14974.75
438.985	16473.86
439.192	15857.42
439.399	16291.59
439.606	15951.63
439.813	16793.34
440.02	17782.51
440.227	17342.2
440.433	17370.87
440.64	17782.51
440.847	17778.42
441.054	18235.11
441.261	19402.46
441.467	19406.55
441.674	19605.2
441.881	20197.07
442.088	20176.59
442.294	20012.75
442.501	20553.41
442.708	20870.85
442.914	21884.59
443.121	22841
443.328	22085.29
443.534	23658.13
443.741	22814.37
443.948	22720.17
444.154	24563.34
444.361	24196.75
444.568	24245.9
444.774	24522.38
444.981	24675.98
445.187	25286.27
445.394	26377.84
445.6	26046.07
445.807	28513.87
446.013	27100.77
446.22	27784.79
446.426	28685.9
446.633	29042.24
446.839	29933.11
447.046	28757.58
447.252	30197.3
447.459	30570.03
447.665	30459.44
447.871	31510.05
448.078	32890.38
448.284	31237.67
448.491	32202.26
448.697	33533.44
448.903	34033.14
449.11	33969.66
449.316	33678.85
449.522	34049.53
449.728	34999.79
449.935	35141.1
450.141	35040.75
450.347	35939.8
450.553	34645.49
450.76	35249.64
450.966	36339.16
451.172	35818.97
451.378	36781.52
451.584	36052.44
451.791	37146.06
451.997	36677.07
452.203	37432.77
452.409	37027.27
452.615	37187.02
452.821	35853.79
453.027	35454.43
453.233	37285.32
453.44	35898.84
453.646	35921.37
453.852	35993.05
454.058	36799.95
454.264	35433.96
454.47	36406.74
454.676	35419.62
454.882	36507.09
455.088	33271.3
455.294	33668.61
455.5	34438.64
455.705	34838
455.911	33185.29
456.117	32880.14
456.323	32001.56
456.529	30869.03
456.735	31829.53
456.941	31188.52
457.147	29947.45
457.352	29670.97
457.558	29154.88
457.764	29642.3
457.97	29075.01
458.176	28014.16
458.381	27915.86
458.587	26525.29
458.793	26629.74
458.999	25167.49
459.204	26961.51
459.41	26285.68
459.616	24651.4
459.821	24696.46
460.027	24649.35
460.233	24030.87
460.438	22714.02
460.644	23148.19
460.85	21925.55
461.055	21604.02
461.261	21583.54
461.466	20010.7
461.672	19603.16
461.878	20739.78
462.083	19531.48
462.289	19373.78
462.494	18898.66
462.7	18429.67
462.905	17811.18
463.111	18292.46
463.316	18431.72
463.522	17897.2
463.727	18188.01
463.932	17889.01
464.138	17694.45
464.343	17762.03
464.549	17235.7
464.754	17889.01
464.959	17704.69
465.165	17544.95
465.37	16881.41
465.575	16582.4
465.781	17096.44
465.986	17190.65
466.191	16422.66
466.397	16234.25
466.602	15468.31
466.807	15902.48
467.012	15828.75
467.218	16000.78
467.423	15865.61
467.628	15804.17
467.833	16283.4
468.038	15707.92
468.244	15499.03
468.449	16105.23
468.654	15507.22
468.859	15064.86
469.064	15439.64
469.269	14798.62
469.474	14640.93
469.679	15091.48
469.885	14497.57
470.09	14778.14
470.295	14649.12
470.5	14112.55
470.705	14423.84
470.91	14018.35
471.115	14038.83
471.32	14128.94
471.525	14319.4
471.73	13887.28
471.935	13651.76
472.139	13258.55
472.344	13414.2
472.549	13199.16
472.754	12965.69
472.959	12891.96
473.164	12547.9
473.369	12490.56
473.574	12730.17
473.778	12744.51
473.983	12674.88
474.188	12482.37
474.393	11943.75
474.598	12103.5
474.802	11976.52
475.007	11663.18
475.212	11738.96
475.417	11394.9
475.621	11648.85
475.826	11276.12
476.031	11394.9
476.235	11032.41
476.44	11251.54
476.645	11063.13
476.849	10970.97
477.054	11069.27
477.259	10520.42
477.463	10714.97
477.668	10520.42
477.872	10610.53
478.077	10235.75
478.282	10026.85
478.486	10200.93
478.691	10121.06
478.895	10055.53
479.1	10112.87
479.304	9756.52
479.509	9594.73
479.713	9957.22
479.918	9611.12
480.122	9424.75
480.326	9701.23
480.531	9541.49
480.735	9531.25
480.94	9328.5
481.144	9699.18
481.348	9265.01
481.553	9330.55
481.757	9070.45
481.961	9355.12
482.166	9549.68
482.37	9203.57
482.574	9025.4
482.778	9285.49
482.983	9465.71
483.187	9158.52
483.391	9082.74
483.595	9156.47
483.8	9123.7
484.004	9154.42
484.208	9400.18
484.412	9131.89
484.616	9316.21
484.821	9174.9
485.025	8980.34
485.229	9004.92
485.433	8974.2
485.637	9158.52
485.841	8929.14
486.045	9041.78
486.249	9279.35
486.453	8966.01
486.657	9230.2
486.861	9162.61
487.065	8877.94
487.269	9265.01
487.473	9062.26
487.677	9381.74
487.881	9308.02
488.085	9133.94
488.289	9166.71
488.493	8951.67
488.697	9213.81
488.901	9138.04
489.105	9086.84
489.309	9465.71
489.512	9115.51
489.716	9090.93
489.92	9340.79
490.124	9254.77
490.328	9199.48
490.531	9201.52
490.735	9385.84
490.939	9344.88
491.143	9234.29
491.346	9502.58
491.55	9676.65
491.754	9437.04
491.958	9410.42
492.161	9533.29
492.365	9807.72
492.569	9459.57
492.772	9600.88
492.976	9615.21
493.18	9777
493.383	9809.77
493.587	9885.55
493.79	9994.09
493.994	9787.24
494.197	9957.22
494.401	10278.76
494.605	10182.5
494.808	10223.46
495.012	10014.57
495.215	10403.68
495.419	10307.43
495.622	10483.55
495.825	10637.15
496.029	10415.97
496.232	10776.41
496.436	10764.12
496.639	11247.44
496.843	10973.02
497.046	11126.61
497.249	11394.9
497.453	11302.74
497.656	11409.23
497.859	11478.86
498.063	11710.29
498.266	11835.21
498.469	11822.92
498.673	11941.71
498.876	12134.21
499.079	12375.88
499.282	12240.71
499.485	12513.09
499.689	12625.73
499.892	12810.04
500.095	12828.48
500.298	13213.49
500.501	13160.25
500.705	13199.16
500.908	13530.93
501.111	13596.46
501.314	13805.36
501.517	14061.35
501.72	13995.82
501.923	13920.04
502.126	14335.78
502.329	14640.93
502.532	14702.37
502.735	14872.35
502.938	14833.44
503.141	15036.19
503.344	15351.57
503.547	15294.23
503.75	15757.07
503.953	15816.46
504.156	15873.81
504.359	16103.18
504.562	15951.63
504.765	16779.01
504.968	16623.36
505.17	17022.72
505.373	16879.36
505.576	17186.55
505.779	17508.08
505.982	17452.79
506.185	17899.25
506.387	17876.72
506.59	18114.28
506.793	18519.78
506.996	18274.03
507.198	18927.33
507.401	18540.26
507.604	19117.79
507.807	19404.5
508.009	19650.26
508.212	19666.64
508.415	19967.7
508.617	20158.16
508.82	19975.89
509.022	20297.42
509.225	20586.18
509.428	21083.84
509.63	21124.8
509.833	20870.85
510.035	21710.52
510.238	21563.06
510.44	22118.06
510.643	22283.95
510.845	22118.06
511.048	22120.11
511.25	22615.72
511.453	22666.92
511.655	23604.89
511.858	23299.74
512.06	23617.18
512.262	23598.74
512.465	23903.89
512.667	24503.95
512.87	24448.65
513.072	24753.8
513.274	25048.71
513.477	24860.29
513.679	25546.36
513.881	25613.95
514.084	26033.78
514.286	26033.78
514.488	26474.09
514.69	27051.62
514.893	27035.24
515.095	27240.03
515.297	27344.48
515.499	27602.52
515.701	28147.28
515.904	28644.94
516.106	28450.38
516.308	28634.7
516.51	29079.11
516.712	28911.17
516.914	29433.41
517.116	29793.85
517.318	29933.11
517.52	30264.88
517.722	30465.58
517.925	30543.41
518.127	31256.1
518.329	31551.01
518.531	31016.49
518.733	31667.74
518.935	32130.58
519.136	32200.21
519.338	32888.33
519.54	32689.68
519.742	32687.63
519.944	33150.47
520.146	34006.52
520.348	33660.41
520.55	34008.57
520.752	34547.18
520.954	34942.44
521.155	34549.23
521.357	35517.92
521.559	35309.03
521.761	36224.47
521.963	36021.72
522.164	36169.18
522.366	36601.3
522.568	36560.34
522.77	37182.92
522.971	37680.58
523.173	37236.17
523.375	37727.68
523.576	38022.59
523.778	38020.54
523.98	38448.57
524.181	38378.93
524.383	38712.75
524.584	39286.18
524.786	39204.27
524.988	38905.26
525.189	39939.49
525.391	40015.26
525.592	40082.84
525.794	40539.54
525.995	40285.59
526.197	40138.14
526.398	40643.99
526.6	41137.55
526.801	40932.75
527.003	41366.92
527.204	41233.8
527.406	41747.84
527.607	41799.04
527.808	42110.33
528.01	41541
528.211	42167.68
528.412	42663.28
528.614	42433.91
528.815	42739.06
529.016	43013.49
529.218	42407.29
529.419	43033.97
529.62	43380.07
529.822	43027.82
530.023	43179.37
530.224	43324.78
530.425	43326.83
530.626	43332.97
530.828	43085.17
531.029	44072.29
531.23	43875.68
531.431	43767.14
531.632	43822.44
531.833	44281.18
532.035	44117.34
532.236	44010.85
532.437	44608.86
532.638	44178.78
532.839	44723.54
533.04	44578.14
533.241	44051.81
533.442	45227.34
533.643	44971.35
533.844	44662.1
534.045	44201.31
534.246	44389.72
534.447	44756.31
534.648	44391.77
534.849	44674.39
535.05	44522.84
535.251	44772.69
535.451	44512.6
535.652	45229.39
535.853	44649.81
536.054	44907.86
536.255	45145.42
536.456	44944.72
536.657	45290.83
536.857	44684.63
537.058	44739.93
537.259	45129.04
537.46	44782.93
537.66	45149.52
537.861	44952.91
538.062	45233.49
538.263	45133.14
538.463	44727.64
538.664	45256.01
538.865	44920.15
539.065	44866.9
539.266	44995.92
539.466	45634.89
539.667	44936.53
539.868	45387.08
540.068	44901.71
540.269	44756.31
540.469	45634.89
540.67	45030.74
540.87	44772.69
541.071	45079.89
541.271	45305.16
541.472	45190.48
541.672	44690.77
541.873	45051.22
542.073	44305.76
542.274	45227.34
542.474	44879.19
542.675	44756.31
542.875	45170
543.075	45206.86
543.276	44715.35
543.476	45165.9
543.676	44995.92
543.877	45077.84
544.077	44873.04
544.277	44895.57
544.478	44997.97
544.678	44975.44
544.878	44936.53
545.078	44938.58
545.279	44807.51
545.479	44752.21
545.679	44879.19
545.879	44803.41
546.079	44719.45
546.28	44610.9
546.48	44199.26
546.68	45049.17
546.88	44832.08
547.08	45040.98
547.28	44692.82
547.48	44672.34
547.68	45018.45
547.88	44416.35
548.081	44739.93
548.281	44610.9
548.481	44508.5
548.681	45167.95
548.881	44301.66
549.081	44690.77
549.28	44633.43
549.48	45016.4
549.68	44684.63
549.88	45354.32
550.08	44428.63
550.28	45002.07
550.48	44236.12
550.68	44846.42
550.88	44289.37
551.08	44465.5
551.279	44635.48
551.479	44621.14
551.679	44371.29
551.879	44232.03
552.079	44686.68
552.278	44682.58
552.478	44408.15
552.678	44612.95
552.878	44666.2
553.077	44184.93
553.277	44199.26
553.477	44901.71
553.676	43715.94
553.876	44326.24
554.076	44053.86
554.275	43695.46
554.475	43820.39
554.674	44252.51
554.874	44416.35
555.074	43943.27
555.273	44111.2
555.473	44199.26
555.672	43672.93
555.872	44307.8
556.071	43939.17
556.271	43978.08
556.47	43941.22
556.67	43461.99
556.869	43572.58
557.068	43855.2
557.268	43490.66
557.467	43648.36
557.667	43754.85
557.866	43887.97
558.065	43576.68
558.265	43038.06
558.464	42845.55
558.663	43431.27
558.863	43083.12
559.062	43271.53
559.261	42552.69
559.461	43208.04
559.66	42440.06
559.859	42966.38
560.058	42278.27
560.258	42614.13
560.457	42495.35
560.656	42720.63
560.855	42376.57
561.054	42843.51
561.253	42276.22
561.453	42360.19
561.652	42724.72
561.851	42814.83
562.05	42200.44
562.249	41848.19
562.448	42106.24
562.647	41973.12
562.846	42040.7
563.045	41840
563.244	41516.42
563.443	41874.82
563.642	41354.63
563.841	41375.11
564.04	40885.65
564.239	41620.87
564.438	41162.12
564.637	41092.49
564.836	40863.12
565.035	40807.83
565.234	40908.18
565.432	40652.18
565.631	40431
565.83	40576.4
566.029	40408.47
566.228	40140.19
566.427	39972.25
566.625	39703.97
566.824	39321
567.023	40078.75
567.222	39400.87
567.42	40152.48
567.619	39372.2
567.818	39323.05
568.016	39321
568.215	39417.25
568.414	39357.86
568.612	39456.17
568.811	39234.99
569.01	39222.7
569.208	38393.27
569.407	38806.96
569.605	38131.13
569.804	39022
570.002	38401.46
570.201	38452.66
570.4	38073.79
570.598	38325.69
570.797	38106.55
570.995	38108.6
571.193	37836.22
571.392	37699.01
571.59	37367.24
571.789	37537.22
571.987	37459.4
572.186	37475.78
572.384	37555.65
572.582	37389.77
572.781	37711.3
572.979	36670.93
573.177	36974.03
573.376	37098.95
573.574	36773.33
573.772	37129.67
573.971	36290.01
574.169	36367.83
574.367	36171.22
574.565	36034.01
574.763	36068.83
574.962	36163.03
575.16	35648.99
575.358	35302.89
575.556	35190.25
575.754	35628.51
575.952	35515.87
576.151	35859.93
576.349	34842.09
576.547	35397.09
576.745	34928.11
576.943	34989.55
577.141	35003.88
577.339	35198.44
577.537	34600.43
577.735	34960.87
577.933	34794.99
578.131	34258.42
578.329	33895.93
578.527	33955.32
578.725	34285.04
578.923	34072.06
579.121	33986.04
579.319	34049.53
579.516	33924.6
579.714	33863.16
579.912	33832.44
580.11	33635.84
580.308	33572.35
580.506	33281.54
580.704	32570.89
580.901	33306.12
581.099	33424.9
581.297	33091.08
581.495	32951.82
581.692	33152.52
581.89	32210.45
582.088	32787.98
582.285	32476.69
582.483	32878.09
582.681	32443.92
582.878	32136.73
583.076	32153.11
583.274	32144.92
583.471	31714.84
583.669	31663.64
583.866	31510.05
584.064	31667.74
584.262	31409.7
584.459	31288.87
584.657	31270.43
584.854	31469.09
585.052	31071.78
585.249	31444.51
585.447	31053.35
585.644	30674.48
585.841	30840.36
586.039	30979.62
586.236	30510.64
586.434	30703.15
586.631	30324.27
586.828	30574.13
587.026	30461.49
587.223	30178.87
587.42	29881.91
587.618	30348.85
587.815	29552.19
588.012	29765.18
588.21	29679.16
588.407	30101.04
588.604	29666.88
588.801	29285.95
588.999	29259.33
589.196	29029.96
589.393	29408.83
589.59	29328.96
589.787	29009.48
589.984	29197.89
590.182	28538.44
590.379	28655.18
590.576	28520.01
590.773	28663.37
590.97	28171.86
591.167	28595.79
591.364	28235.35
591.561	28274.26
591.758	27919.96
591.955	27997.78
592.152	28128.85
592.349	27807.32
592.546	27952.73
592.743	28022.36
592.94	27106.91
593.137	27600.47
593.334	27709.02
593.531	27209.31
593.727	27414.11
593.924	27309.66
594.121	26920.55
594.318	27057.76
594.515	26795.62
594.712	26981.99
594.908	27002.47
595.105	26795.62
595.302	26504.81
595.499	27059.81
595.696	26435.18
595.892	26177.14
596.089	26369.65
596.286	26596.97
596.482	26064.5
596.679	25888.37
596.876	25992.82
597.072	25841.27
597.269	25724.54
597.466	25720.44
597.662	25603.71
597.859	25513.59
598.055	25220.74
598.252	24835.72
598.448	25267.84
598.645	25341.57
598.841	24657.54
599.038	25001.6
599.234	25040.51
599.431	24622.73
599.627	24571.53
599.824	24876.68
600.02	24270.48
600.217	24428.17
600.413	24708.74
600.609	24155.79
600.806	24192.65
601.002	24264.33
601.198	24100.5
601.395	23867.03
601.591	24153.74
601.787	24077.97
601.984	23705.24
602.18	23819.92
602.376	23584.41
602.572	23588.5
602.769	23365.28
602.965	23180.96
603.161	23531.16
603.357	23469.72
603.553	23271.07
603.75	22771.36
603.946	23090.85
604.142	23144.09
604.338	22824.61
604.534	22668.97
604.73	22896.29
604.926	22697.64
605.122	22843.04
605.318	22406.83
605.514	22218.41
605.71	22234.8
605.906	22439.59
606.102	22132.4
606.298	22320.81
606.494	22120.11
606.69	21876.4
606.886	22304.43
607.082	21894.83
607.278	22044.34
607.474	21626.55
607.67	21520.06
607.866	21597.88
608.062	21929.65
608.257	21526.2
608.453	21436.09
608.649	21489.34
608.845	21595.83
609.041	21479.1
609.236	21417.66
609.432	21477.05
609.628	21251.77
609.824	21221.05
610.019	21151.42
610.215	21094.08
610.411	21122.75
610.606	21122.75
610.802	20917.95
610.998	21016.26
611.193	20883.14
611.389	20459.21
611.584	20803.27
611.78	20512.45
611.976	20573.89
612.171	20719.3
612.367	20664
612.562	20676.29
612.758	20176.59
612.953	20299.47
613.149	20768.45
613.344	20397.77
613.539	20735.68
613.735	20221.64
613.93	20440.78
614.126	20328.14
614.321	20479.69
614.517	20256.46
614.712	19853.01
614.907	19875.54
615.103	19893.97
615.298	19848.91
615.493	20025.04
615.688	19826.39
615.884	20192.97
616.079	19613.4
616.274	19644.12
616.47	19799.76
616.665	19764.95
616.86	19564.25
617.055	19498.71
617.25	19738.32
617.445	19531.48
617.641	19173.08
617.836	19324.63
618.031	19148.51
618.226	19484.37
618.421	19119.84
618.616	19345.11
618.811	18636.52
619.006	19359.45
619.201	18845.41
619.396	19097.31
619.591	18558.69
619.786	18923.23
619.981	18415.33
620.176	18554.6
620.371	18339.56
620.566	18601.7
620.761	18302.7
620.956	18355.94
621.151	17862.38
621.346	18259.69
621.541	17751.79
621.735	17725.17
621.93	17532.66
622.125	17735.41
622.32	17489.65
622.515	17706.74
622.709	17442.55
622.904	17303.29
623.099	17354.49
623.294	17178.36
623.488	17071.87
623.683	17247.99
623.878	16838.4
624.072	16897.79
624.267	16989.95
624.462	16422.66
624.656	16721.66
624.851	16488.2
625.046	16305.93
625.24	16410.37
625.435	16307.98
625.629	16025.36
625.824	15963.92
626.018	15820.56
626.213	15810.32
626.407	15824.65
626.602	15589.14
626.796	15785.74
626.991	15695.63
627.185	15666.96
627.38	15460.12
627.574	15398.68
627.768	15197.98
627.963	15314.71
628.157	14788.38
628.352	14944.03
628.546	14784.29
628.74	15107.87
628.935	14507.81
629.129	14511.91
629.323	14280.49
629.517	14374.69
629.712	14448.42
629.906	14415.65
630.1	14192.42
630.294	14083.88
630.489	14202.66
630.683	14192.42
630.877	13932.33
631.071	13852.46
631.265	14014.25
631.459	13444.91
631.653	13645.62
631.848	13913.9
632.042	13553.46
632.236	13412.15
632.43	13363
632.624	13510.45
632.818	13211.45
633.012	13170.49
633.206	13229.88
633.4	13074.23
633.594	12908.35
633.788	12877.63
633.982	12756.8
634.176	13080.38
634.369	12537.66
634.563	12621.63
634.757	12762.94
634.951	12719.93
635.145	12525.38
635.339	12527.42
635.533	12347.2
635.726	12384.07
635.92	11953.99
636.114	12097.35
636.308	12093.26
636.501	12007.24
636.695	12044.1
636.889	12060.49
637.083	11939.66
637.276	11781.96
637.47	11671.37
637.664	11573.07
637.857	11741
638.051	11636.56
638.244	11382.61
638.438	11347.79
638.632	11390.8
638.825	11132.76
639.019	11161.43
639.212	11073.37
639.406	11079.51
639.599	11056.98
639.793	11065.18
639.986	10999.64
640.18	10854.23
640.373	10977.11
640.567	10446.69
640.76	10723.16
640.954	10694.49
641.147	10571.61
641.34	10463.07
641.534	10438.5
641.727	10528.61
641.92	10252.13
642.114	10188.64
642.307	10321.76
642.5	10288.99
642.694	10172.26
642.887	9992.04
643.08	10051.43
643.273	9834.35
643.467	9922.41
643.66	9946.98
643.853	9799.53
644.046	9654.12
644.239	9828.2
644.432	9736.04
644.626	9326.45
644.819	9455.47
645.012	9449.33
645.205	9488.24
645.398	9252.72
645.591	9240.43
645.784	9334.64
645.977	9107.32
646.17	9203.57
646.363	8927.1
646.556	9168.76
646.749	9168.76
646.942	9092.98
647.135	9004.92
647.328	8849.27
647.521	8929.14
647.714	8843.13
647.907	8800.12
648.099	8777.59
648.292	8828.79
648.485	8685.44
648.678	8724.35
648.871	8566.65
649.064	8535.93
649.256	8488.83
649.449	8677.24
649.642	8402.82
649.835	8173.44
650.027	8234.88
650.22	8150.92
650.413	8206.21
650.605	8134.53
650.798	8163.2
650.991	7944.07
651.183	8152.96
651.376	7851.91
651.568	7958.41
651.761	7972.74
651.954	7948.17
652.146	7741.32
652.339	7845.77
652.531	7909.26
652.724	7772.04
652.916	7696.27
653.109	7778.19
653.301	7485.33
653.494	7563.15
653.686	7585.68
653.879	7550.86
654.071	7626.64
654.263	7391.12
654.456	7489.42
654.648	7333.78
654.84	7333.78
655.033	7227.28
655.225	7325.58
655.417	7264.15
655.61	7157.65
655.802	7051.16
655.994	6963.09
656.186	7102.36
656.379	7149.46
656.571	6965.14
656.763	6981.53
656.955	6940.57
657.148	6922.13
657.34	7016.34
657.532	6782.87
657.724	6973.33
657.916	6791.06
658.108	6840.22
658.3	6588.32
658.492	6576.03
658.684	6627.23
658.876	6567.84
659.068	6700.95
659.26	6520.73
659.452	6496.16
659.644	6549.4
659.836	6467.49
660.028	6451.1
660.22	6442.91
660.412	6434.72
660.604	6254.5
660.796	6389.66
660.988	6428.57
661.18	6221.73
661.372	6211.49
661.563	6154.15
661.755	6109.09
661.947	6326.18
662.139	6014.88
662.331	5947.3
662.522	5975.97
662.714	5963.68
662.906	6094.75
663.097	6006.69
663.289	5881.77
663.481	5832.61
663.673	5904.29
663.864	5748.65
664.056	5930.92
664.247	5762.98
664.439	5726.12
664.631	5701.55
664.822	5564.33
665.014	5760.94
665.205	5662.63
665.397	5531.56
665.588	5468.08
665.78	5558.19
665.971	5537.71
666.163	5556.14
666.354	5441.45
666.546	5515.18
666.737	5445.55
666.929	5556.14
667.12	5513.13
667.311	5400.49
667.503	5478.32
667.694	5435.31
667.885	5371.82
668.077	5404.59
668.268	5330.86
668.459	5269.42
668.651	5273.52
668.842	5332.91
669.033	5156.79
669.224	5244.85
669.416	5214.13
669.607	5078.96
669.798	5236.66
669.989	5259.18
670.18	5236.66
670.371	5164.98
670.563	5156.79
670.754	5046.19
670.945	4939.7
671.136	5134.26
671.327	4986.8
671.518	4974.52
671.709	4982.71
671.9	4999.09
672.091	5054.39
672.282	5091.25
672.473	4923.32
672.664	4978.61
672.855	4859.83
673.046	5060.53
673.237	4982.71
673.428	4800.44
673.619	4782.01
673.809	4771.77
674	4769.72
674.191	4894.65
674.382	4810.68
674.573	4784.05
674.764	4837.3
674.954	4822.97
675.145	4739
675.336	4831.16
675.527	4669.37
675.717	4632.51
675.908	4698.04
676.099	4659.13
676.289	4642.75
676.48	4691.9
676.671	4544.44
676.861	4663.22
677.052	4669.37
677.243	4618.17
677.433	4712.38
677.624	4704.18
677.814	4714.42
678.005	4800.44
678.195	4521.91
678.386	4579.26
678.576	4581.31
678.767	4462.52
678.957	4513.72
679.148	4601.79
679.338	4644.79
679.529	4511.68
679.719	4573.11
679.909	4655.03
680.1	4581.31
680.29	4749.24
680.481	4577.21
680.671	4423.61
680.861	4491.2
681.052	4622.27
681.242	4569.02
681.432	4634.55
681.622	4409.28
681.813	4487.1
682.003	4405.18
682.193	4446.14
682.383	4507.58
682.573	4562.87
682.764	4454.33
682.954	4540.35
683.144	4446.14
683.334	4501.44
683.524	4552.63
683.714	4380.61
683.904	4343.74
684.094	4470.72
684.284	4454.33
684.474	4372.41
684.664	4384.7
684.854	4429.76
685.044	4386.75
685.234	4429.76
685.424	4335.55
685.614	4382.65
685.804	4329.41
685.994	4335.55
686.184	4415.42
686.374	4376.51
686.564	4237.25
686.753	4288.45
686.943	4153.28
687.133	4425.66
687.323	4218.82
687.513	4270.01
687.702	4243.39
687.892	4118.47
688.082	4145.09
688.272	4198.34
688.461	4106.18
688.651	4286.4
688.841	4097.99
689.03	4036.55
689.22	4097.99
689.41	4011.97
689.599	4097.99
689.789	4110.27
689.979	3864.52
690.168	4022.21
690.358	4007.87
690.547	3911.62
690.737	3903.43
690.926	3938.24
691.116	3829.7
691.305	3975.11
691.495	3780.55
691.684	3768.26
691.874	3889.09
692.063	3911.62
692.252	3801.03
692.442	3825.61
692.631	3841.99
692.82	3794.89
693.01	3753.93
693.199	3594.19
693.388	3798.98
693.578	3692.49
693.767	3686.34
693.956	3725.26
694.146	3674.06
694.335	3794.89
694.524	3712.97
694.713	3725.26
694.902	3672.01
695.092	3612.62
695.281	3592.14
695.47	3581.9
695.659	3487.69
695.848	3508.17
696.037	3620.81
696.226	3735.49
696.415	3635.14
696.604	3602.38
696.793	3637.19
696.982	3512.27
697.171	3598.28
697.36	3545.03
697.549	3549.13
697.738	3538.89
697.927	3563.47
698.116	3600.33
698.305	3588.04
698.494	3512.27
698.683	3555.27
698.872	3604.43
699.061	3502.03
699.25	3567.56
699.438	3495.88
699.627	3399.63
699.816	3549.13
700.005	3583.95
700.193	3399.63
700.382	3483.59
700.571	3540.94
700.76	3510.22
700.948	3530.7
701.137	3317.71
701.326	3463.12
701.514	3506.12
701.703	3442.64
701.892	3530.7
702.08	3534.79
702.269	3469.26
702.457	3391.44
702.646	3600.33
702.834	3475.4
703.023	3499.98
703.212	3499.98
703.4	3448.78
703.589	3542.99
703.777	3536.84
703.965	3475.4
704.154	3540.94
704.342	3536.84
704.531	3452.88
704.719	3377.1
704.907	3545.03
705.096	3432.4
705.284	3418.06
705.472	3391.44
705.661	3530.7
705.849	3471.31
706.037	3493.83
706.226	3467.21
706.414	3469.26
706.602	3604.43
706.79	3510.22
706.979	3512.27
707.167	3475.4
707.355	3481.55
707.543	3366.86
707.731	3626.95
707.919	3448.78
708.107	3469.26
708.296	3506.12
708.484	3465.16
708.672	3405.77
708.86	3493.83
709.048	3524.55
709.236	3524.55
709.424	3438.54
709.612	3409.87
709.8	3477.45
709.988	3428.3
710.176	3635.14
710.364	3588.04
710.551	3481.55
710.739	3491.79
710.927	3524.55
711.115	3426.25
711.303	3508.17
711.491	3467.21
711.679	3461.07
711.866	3395.53
712.054	3522.51
712.242	3446.73
712.43	3604.43
712.617	3520.46
712.805	3479.5
712.993	3489.74
713.181	3524.55
713.368	3493.83
713.556	3510.22
713.744	3375.05
713.931	3579.85
714.119	3502.03
714.306	3557.32
714.494	3532.75
714.682	3604.43
714.869	3571.66
715.057	3526.6
715.244	3522.51
715.432	3555.27
715.619	3545.03
715.807	3512.27
715.994	3569.61
716.182	3483.59
716.369	3635.14
716.556	3495.88
716.744	3557.32
716.931	3481.55
717.119	3502.03
717.306	3596.23
717.493	3475.4
717.681	3549.13
717.868	3547.08
718.055	3557.32
718.242	3547.08
718.43	3596.23
718.617	3444.68
718.804	3565.51
718.991	3567.56
719.179	3418.06
719.366	3571.66
719.553	3508.17
719.74	3629
719.927	3497.93
720.114	3430.35
720.301	3514.31
720.488	3461.07
720.676	3497.93
720.863	3403.72
721.05	3629
721.237	3565.51
721.424	3717.06
721.611	3538.89
721.798	3563.47
721.985	3430.35
722.172	3571.66
722.358	3510.22
722.545	3528.65
722.732	3440.59
722.919	3598.28
723.106	3465.16
723.293	3657.67
723.48	3528.65
723.667	3573.71
723.853	3667.91
724.04	3563.47
724.227	3422.16
724.414	3551.18
724.6	3413.96
724.787	3459.02
724.974	3436.49
725.161	3536.84
725.347	3463.12
725.534	3561.42
725.72	3549.13
725.907	3504.07
726.094	3622.86
726.28	3407.82
726.467	3475.4
726.653	3508.17
726.84	3475.4
727.027	3467.21
727.213	3389.39
727.4	3432.4
727.586	3561.42
727.773	3413.96
727.959	3454.92
728.145	3565.51
728.332	3399.63
728.518	3555.27
728.705	3446.73
728.891	3481.55
729.077	3475.4
729.264	3366.86
729.45	3510.22
729.636	3569.61
729.823	3454.92
730.009	3502.03
730.195	3516.36
730.382	3559.37
730.568	3440.59
730.754	3473.35
730.94	3448.78
731.126	3510.22
731.313	3362.76
731.499	3330
731.685	3391.44
731.871	3381.2
732.057	3416.01
732.243	3504.07
732.429	3481.55
732.615	3518.41
732.801	3520.46
732.987	3524.55
733.173	3336.14
733.359	3307.47
733.545	3377.1
733.731	3397.58
733.917	3387.34
734.103	3375.05
734.289	3332.05
734.475	3291.09
734.661	3411.92
734.847	3424.2
735.033	3366.86
735.219	3256.27
735.404	3413.96
735.59	3448.78
735.776	3370.96
735.962	3340.24
736.148	3239.89
736.333	3409.87
736.519	3399.63
736.705	3262.41
736.89	3266.51
737.076	3309.52
737.262	3303.37
737.447	3344.33
737.633	3321.81
737.819	3235.79
738.004	3250.13
738.19	3233.74
738.375	3319.76
738.561	3375.05
738.747	3123.15
738.932	3184.59
739.118	3235.79
739.303	3119.06
739.489	3135.44
739.674	3065.81
739.859	3143.63
740.045	3254.22
740.23	3151.82
740.416	3246.03
740.601	3256.27
740.786	3092.43
740.972	3119.06
741.157	3192.78
741.342	3033.04
741.528	3043.28
741.713	3110.86
741.898	3090.38
742.084	2951.12
742.269	3061.71
742.454	3053.52
742.639	2992.08
742.824	3028.95
743.01	3071.95
743.195	3129.3
743.38	3004.37
743.565	2965.46
743.75	2928.6
743.935	3006.42
744.12	3020.75
744.305	2824.15
744.49	2840.53
744.675	2957.27
744.86	2904.02
745.045	2922.45
745.23	2877.4
745.415	2830.29
745.6	2879.44
745.785	2686.93
745.97	2795.48
746.155	2901.97
746.34	2815.96
746.525	2744.28
746.71	2688.98
746.895	2596.82
747.079	2672.6
747.264	2729.94
747.449	2707.41
747.634	2656.22
747.819	2719.7
748.003	2617.3
748.188	2635.74
748.373	2568.15
748.557	2525.15
748.742	2611.16
748.927	2525.15
749.111	2592.73
749.296	2428.89
749.481	2533.34
749.665	2521.05
749.85	2455.51
750.034	2420.7
750.219	2465.75
750.404	2406.36
750.588	2410.46
750.773	2373.6
750.957	2344.92
751.141	2328.54
751.326	2297.82
751.51	2217.95
751.695	2252.77
751.879	2199.52
752.064	2283.49
752.248	2174.94
752.432	2217.95
752.617	2105.31
752.801	2220
752.985	2199.52
753.17	2193.37
753.354	2185.18
753.538	2088.93
753.722	2105.31
753.907	2039.78
754.091	2031.59
754.275	1980.39
754.459	1923.04
754.643	1998.82
754.828	1980.39
755.012	1947.62
755.196	2013.15
755.38	1941.47
755.564	1968.1
755.748	1896.42
755.932	1959.91
756.116	1931.23
756.3	1875.94
756.484	1853.41
756.668	1900.51
756.852	1806.31
757.036	1771.49
757.22	1869.8
757.404	1828.84
757.588	1728.49
757.772	1812.45
757.956	1800.16
758.14	1736.68
758.323	1718.25
758.507	1703.91
758.691	1714.15
758.875	1720.29
759.059	1767.4
759.242	1677.29
759.426	1751.01
759.61	1640.42
759.794	1681.38
759.977	1681.38
760.161	1820.64
760.345	1636.33
760.528	1583.08
760.712	1566.7
760.895	1656.81
761.079	1624.04
761.263	1468.39
761.446	1552.36
761.63	1566.7
761.813	1560.55
761.997	1617.9
762.18	1615.85
762.364	1492.97
762.547	1437.67
762.731	1417.19
762.914	1531.88
763.098	1538.02
763.281	1452.01
763.464	1482.73
763.648	1468.39
763.831	1531.88
764.015	1378.28
764.198	1474.54
764.381	1388.52
764.564	1368.04
764.748	1394.67
764.931	1492.97
765.114	1421.29
765.297	1343.47
765.481	1374.19
765.664	1310.7
765.847	1312.75
766.03	1417.19
766.213	1290.22
766.397	1415.15
766.58	1333.23
766.763	1282.03
766.946	1368.04
767.129	1341.42
767.312	1329.13
767.495	1261.55
767.678	1298.41
767.861	1302.51
768.044	1347.56
768.227	1255.4
768.41	1202.16
768.593	1316.84
768.776	1204.21
768.959	1314.8
769.142	1335.28
769.324	1241.07
769.507	1126.38
769.69	1294.32
769.873	1222.64
770.056	1288.17
770.239	1220.59
770.421	1245.16
770.604	1212.4
770.787	1120.24
770.97	1196.01
771.152	1099.76
771.335	1249.26
771.518	1144.81
771.7	1083.38
771.883	1193.97
772.066	1171.44
772.248	1169.39
772.431	1179.63
772.613	1116.14
772.796	993.26
772.978	1071.09
773.161	1167.34
773.343	1062.9
773.526	1009.65
773.708	1052.66
773.891	993.26
774.073	1066.99
774.256	1028.08
774.438	1032.18
774.621	1013.74
774.803	997.36
774.985	962.55
775.168	1019.89
775.35	1073.14
775.532	1013.74
775.715	874.48
775.897	1081.33
776.079	952.31
776.261	1009.65
776.444	1013.74
776.626	968.69
776.808	944.11
776.99	880.63
777.173	942.07
777.355	866.29
777.537	944.11
777.719	962.55
777.901	843.76
778.083	866.29
778.265	808.95
778.447	827.38
778.629	849.91
778.811	923.63
778.993	798.71
779.175	772.08
779.357	860.15
779.539	804.85
779.721	845.81
779.903	886.77
780.085	819.19
780.267	802.8
780.449	790.52
780.631	770.04
780.812	835.57
780.994	751.6
781.176	876.53
781.358	735.22
781.54	731.12
781.721	698.36
781.903	739.32
782.085	763.89
782.267	780.28
782.448	698.36
782.63	755.7
782.812	694.26
782.993	745.46
783.175	753.65
783.357	657.4
783.538	669.69
783.72	745.46
783.901	657.4
784.083	690.17
784.264	653.3
784.446	696.31
784.627	557.05
784.809	643.06
784.99	624.63
785.172	604.15
785.353	606.2
785.535	651.25
785.716	550.9
785.897	573.43
786.079	579.58
786.26	602.1
786.441	579.58
786.623	587.77
786.804	604.15
786.985	606.2
787.167	657.4
787.348	604.15
787.529	591.86
787.71	563.19
787.891	534.52
788.073	595.96
788.254	624.63
788.435	557.05
788.616	634.87
788.797	417.79
788.978	520.18
789.159	542.71
789.34	557.05
789.522	538.62
789.703	524.28
789.884	430.07
790.065	507.9
790.246	526.33
790.427	464.89
790.607	475.13
790.788	532.47
790.969	514.04
791.15	462.84
791.331	409.59
791.512	503.8
791.693	460.79
791.874	487.42
792.054	561.14
792.235	440.31
792.416	499.7
792.597	468.98
792.778	438.27
792.958	518.14
793.139	425.98
793.32	479.22
793.5	368.63
793.681	477.18
793.862	399.35
794.042	337.91
794.223	446.46
794.404	387.07
794.584	305.15
794.765	442.36
794.945	360.44
795.126	450.55
795.306	438.27
795.487	376.83
795.667	354.3
795.848	370.68
796.028	450.55
796.209	423.93
796.389	417.79
796.57	368.63
796.75	366.59
796.93	401.4
797.111	411.64
797.291	362.49
797.471	393.21
797.652	337.91
797.832	385.02
798.012	331.77
798.192	411.64
798.373	432.12
798.553	378.87
798.733	329.72
798.913	389.11
799.093	348.15
799.274	385.02
799.454	327.67
799.634	296.96
799.814	395.26
799.994	305.15
800.174	389.11
800.354	309.24
800.534	417.79
800.714	378.87
800.894	313.34
801.074	309.24
801.254	335.87
801.434	303.1
801.614	329.72
801.794	276.48
801.974	796.66
802.154	282.62
802.334	333.82
802.514	313.34
802.693	315.39
802.873	266.24
803.053	317.44
803.233	364.54
803.413	276.48
803.592	311.29
803.772	305.15
803.952	284.67
804.131	321.53
804.311	237.56
804.491	395.26
804.67	264.19
804.85	204.8
805.03	231.42
805.209	268.28
805.389	270.33
805.568	309.24
805.748	258.04
805.928	305.15
806.107	288.76
806.287	237.56
806.466	264.19
806.646	303.1
806.825	325.63
807.004	280.57
807.184	251.9
807.363	282.62
807.543	301.05
807.722	276.48
807.901	319.48
808.081	303.1
808.26	196.61
808.439	235.52
808.619	247.8
808.798	278.52
808.977	215.04
809.156	319.48
809.336	280.57
809.515	227.32
809.694	163.84
809.873	225.28
810.052	296.96
810.231	274.43
810.411	256
810.59	180.22
810.769	266.24
810.948	272.38
811.127	294.91
811.306	256
811.485	204.8
811.664	303.1
811.843	243.71
812.022	208.89
812.201	169.98
812.38	274.43
812.559	239.61
812.737	208.89
812.916	124.93
813.095	174.08
813.274	161.79
813.453	133.12
813.632	192.51
813.811	176.13
813.989	192.51
814.168	225.28
814.347	176.13
814.526	190.46
814.704	247.8
814.883	237.56
815.062	129.02
815.24	194.56
815.419	124.93
815.598	198.65
815.776	124.93
815.955	165.89
816.133	206.84
816.312	219.13
816.49	96.25
816.669	212.99
816.847	194.56
817.026	233.47
817.204	139.26
817.383	151.55
817.561	139.26
817.74	190.46
817.918	180.22
818.097	120.83
818.275	139.26
818.453	194.56
818.632	186.37
818.81	135.17
818.988	83.97
819.167	180.22
819.345	88.06
819.523	264.19
819.701	137.21
819.879	159.74
820.058	159.74
820.236	221.18
820.414	174.08
820.592	200.7
820.77	178.17
820.948	169.98
821.127	206.84
821.305	112.64
821.483	106.49
821.661	178.17
821.839	137.21
822.017	163.84
822.195	116.73
822.373	194.56
822.551	178.17
822.729	126.97
822.907	90.11
823.085	122.88
823.262	122.88
823.44	131.07
823.618	129.02
823.796	47.1
823.974	147.45
824.152	129.02
824.329	190.46
824.507	159.74
824.685	141.31
824.863	139.26
825.04	155.65
825.218	155.65
825.396	116.73
825.574	163.84
825.751	153.6
825.929	153.6
826.107	75.77
826.284	190.46
826.462	229.37
826.639	176.13
826.817	53.25
826.994	149.5
827.172	157.69
827.349	229.37
827.527	114.69
827.704	182.27
827.882	159.74
828.059	88.06
828.237	182.27
828.414	188.41
828.591	108.54
828.769	151.55
828.946	120.83
829.124	147.45
829.301	141.31
829.478	143.36
829.655	86.01
829.833	131.07
830.01	38.91
830.187	129.02
830.364	77.82
830.542	147.45
830.719	163.84
830.896	198.65
831.073	90.11
831.25	229.37
831.427	190.46
831.604	165.89
831.782	126.97
831.959	96.25
832.136	81.92
832.313	120.83
832.49	65.53
832.667	135.17
832.844	116.73
833.021	212.99
833.198	57.34
833.374	120.83
833.551	69.63
833.728	129.02
833.905	133.12
834.082	55.3
834.259	137.21
834.436	133.12
834.612	124.93
834.789	90.11
834.966	143.36
835.143	100.35
835.319	67.58
835.496	124.93
835.673	104.45
835.85	53.25
836.026	106.49
836.203	141.31
836.38	63.49
836.556	20.48
836.733	-24.58
836.909	73.73
837.086	88.06
837.262	90.11
837.439	47.1
837.616	83.97
837.792	0
837.968	88.06
838.145	32.77
838.321	92.16
838.498	116.73
838.674	92.16
838.851	-6.14
839.027	124.93
839.203	79.87
839.38	90.11
839.556	106.49
839.732	77.82
839.909	126.97
840.085	135.17
840.261	57.34
840.437	96.25
840.614	67.58
840.79	108.54
840.966	-30.72
841.142	43.01
841.318	73.73
841.494	57.34
841.671	126.97
841.847	57.34
842.023	77.82
842.199	149.5
842.375	133.12
842.551	65.53
842.727	-30.72
842.903	86.01
843.079	47.1
843.255	116.73
843.431	100.35
843.607	49.15
843.783	79.87
843.959	90.11
844.134	51.2
844.31	79.87
844.486	26.62
844.662	47.1
844.838	108.54
845.013	96.25
845.189	57.34
845.365	69.63
845.541	69.63
845.716	96.25
845.892	86.01
846.068	38.91
846.244	47.1
846.419	98.3
846.595	-6.14
846.77	57.34
846.946	71.68
847.122	104.45
847.297	24.58
847.473	124.93
847.648	-12.29
847.824	143.36
847.999	8.19
848.175	71.68
848.35	47.1
848.526	106.49
848.701	43.01
848.876	126.97
849.052	108.54
849.227	75.77
849.403	34.82
849.578	100.35
849.753	36.86
849.929	79.87
850.104	67.58
850.279	96.25
850.454	59.39
850.63	51.2
850.805	83.97
850.98	38.91
851.155	83.97
851.33	104.45
851.505	34.82
851.681	18.43
851.856	2.05
852.031	30.72
852.206	116.73
852.381	63.49
852.556	16.38
852.731	53.25
852.906	92.16
853.081	20.48
853.256	69.63
853.431	61.44
853.606	0
853.781	22.53
853.956	-12.29
854.131	8.19
854.305	28.67
854.48	86.01
854.655	2.05
854.83	57.34
855.005	47.1
855.18	83.97
855.354	2.05
855.529	-6.14
855.704	75.77
855.879	40.96
856.053	-34.82
856.228	67.58
856.403	112.64
856.577	16.38
856.752	-47.1
856.926	20.48
857.101	65.53
857.276	-14.34
857.45	36.86
857.625	16.38
857.799	57.34
857.974	53.25
858.148	0
858.323	-22.53
858.497	-32.77
858.672	75.77
858.846	22.53
859.02	-6.14
859.195	0
859.369	59.39
859.543	43.01
859.718	-43.01
859.892	24.58
860.066	59.39
860.241	12.29
860.415	-4.1
860.589	49.15
860.763	2.05
860.938	49.15
861.112	71.68
861.286	14.34
861.46	59.39
861.634	51.2
861.808	59.39
861.982	65.53
862.157	110.59
862.331	69.63
862.505	59.39
862.679	22.53
862.853	20.48
863.027	36.86
863.201	61.44
863.375	22.53
863.549	-30.72
863.722	10.24
863.896	75.77
864.07	51.2
864.244	-16.38
864.418	73.73
864.592	65.53
864.766	57.34
864.939	49.15
865.113	43.01
865.287	102.4
865.461	10.24
865.634	59.39
865.808	49.15
865.982	79.87
866.156	92.16
866.329	10.24
866.503	79.87
866.676	49.15
866.85	71.68
867.024	34.82
867.197	6.14
867.371	-20.48
867.544	22.53
867.718	96.25
867.891	18.43
868.065	38.91
868.238	32.77
868.412	51.2
868.585	-45.06
868.759	81.92
868.932	47.1
869.105	-40.96
869.279	-8.19
869.452	-22.53
869.625	10.24
869.799	47.1
869.972	-88.06
870.145	88.06
870.319	24.58
870.492	-6.14
870.665	14.34
870.838	16.38
871.011	-63.49
871.185	94.21
871.358	34.82
871.531	34.82
871.704	-69.63
871.877	18.43
872.05	-26.62
872.223	18.43
872.396	26.62
872.569	67.58
872.742	30.72
872.915	40.96
873.088	16.38
873.261	2.05
873.434	61.44
873.607	-26.62
873.78	0
873.953	-6.14
874.126	10.24
874.299	47.1
874.471	18.43
874.644	-18.43
874.817	-4.1
874.99	59.39
875.163	2.05
875.335	0
875.508	8.19
875.681	43.01
875.853	108.54
876.026	22.53
876.199	28.67
876.371	16.38
876.544	10.24
876.717	-73.73
876.889	49.15
877.062	-6.14
877.234	38.91
877.407	96.25
877.579	73.73
877.752	-12.29
877.924	38.91
878.097	-22.53
878.269	0
878.442	79.87
878.614	32.77
878.786	90.11
878.959	32.77
879.131	10.24
879.303	-8.19
879.476	-2.05
879.648	34.82
879.82	4.1
879.993	12.29
880.165	32.77
880.337	55.3
880.509	22.53
880.681	8.19
880.854	-14.34
881.026	-6.14
881.198	43.01
881.37	32.77
881.542	-34.82
881.714	-30.72
881.886	10.24
882.058	8.19
882.23	-18.43
882.402	-10.24
882.574	53.25
882.746	6.14
882.918	2.05
883.09	75.77
883.262	28.67
883.434	-10.24
883.606	-61.44
883.778	-55.3
883.95	77.82
884.122	24.58
884.293	6.14
884.465	-22.53
884.637	43.01
884.809	-4.1
884.98	40.96
885.152	4.1
885.324	-2.05
885.496	53.25
885.667	57.34
885.839	18.43
886.011	24.58
886.182	24.58
886.354	30.72
886.525	83.97
886.697	-2.05
886.869	-10.24
887.04	47.1
887.212	10.24
887.383	10.24
887.555	-36.86
887.726	-8.19
887.897	28.67
888.069	2.05
888.24	55.3
888.412	81.92
888.583	-43.01
888.754	-26.62
888.926	-26.62
889.097	53.25
889.268	-63.49
889.44	43.01
889.611	-8.19
889.782	-59.39
889.953	8.19
890.125	61.44
890.296	59.39
890.467	32.77
890.638	6.14
890.809	53.25
890.98	-45.06
891.151	2.05
891.323	-2.05
891.494	-16.38
891.665	12.29
891.836	51.2
892.007	-32.77
892.178	51.2
892.349	28.67
892.52	12.29
892.691	-38.91
892.862	12.29
893.032	57.34
893.203	18.43
893.374	22.53
893.545	47.1
893.716	-14.34
893.887	14.34
894.057	16.38
894.228	100.35
894.399	55.3
894.57	75.77
894.74	-59.39
894.911	26.62
895.082	67.58
895.253	45.06
895.423	-14.34
895.594	92.16
895.764	22.53
895.935	-2.05
896.106	86.01
896.276	-75.77
896.447	20.48
896.617	-51.2
896.788	8.19
896.958	-40.96
897.129	26.62
897.299	-30.72
897.47	-43.01
897.64	114.69
897.81	-12.29
897.981	34.82
898.151	30.72
898.322	0
898.492	-49.15
898.662	-32.77
898.832	-63.49
899.003	-22.53
899.173	63.49
899.343	24.58
899.513	-20.48
