Data from USB4F104151__134__10-25-46-411.txt Node

Date: Wed Mar 12 10:25:46 EDT 2025
User: louis
Spectrometer: USB4F10415
Trigger mode: 4
Integration Time (sec): 3.000000E-2
Scans to average: 1
Electric dark correction enabled: true
Nonlinearity correction enabled: false
Boxcar width: 0
XAxis mode: Wavelengths
Number of Pixels in Spectrum: 3648
>>>>>Begin Spectral Data<<<<<
178.204	-29.52
178.424	-29.52
178.644	-29.52
178.864	-129.88
179.084	-154.45
179.304	-25.43
179.524	-15.19
179.744	33.96
179.964	50.35
180.184	-93.01
180.404	-58.2
180.624	13.48
180.844	54.44
181.064	25.77
181.283	-23.38
181.503	27.82
181.723	9.39
181.943	-9.05
182.163	74.92
182.383	9.39
182.602	58.54
182.822	25.77
183.042	27.82
183.262	-17.24
183.482	17.58
183.701	-13.14
183.921	9.39
184.141	-45.91
184.361	25.77
184.58	-45.91
184.8	42.15
185.02	-60.24
185.239	105.64
185.459	21.67
185.679	17.58
185.898	-4.95
186.118	54.44
186.338	50.35
186.557	31.91
186.777	-41.81
186.997	13.48
187.216	-19.29
187.436	-0.85
187.655	-7
187.875	99.5
188.095	13.48
188.314	15.53
188.534	99.5
188.753	54.44
188.973	122.02
189.192	72.87
189.412	81.07
189.631	33.96
189.851	-43.86
190.07	48.3
190.29	-17.24
190.509	62.63
190.729	15.53
190.948	46.25
191.168	111.78
191.387	31.91
191.607	-19.29
191.826	31.91
192.045	-54.1
192.265	-4.95
192.484	-9.05
192.704	17.58
192.923	23.72
193.142	56.49
193.362	-54.1
193.581	66.73
193.8	58.54
194.02	64.68
194.239	-7
194.458	42.15
194.678	40.11
194.897	-7
195.116	-17.24
195.335	117.93
195.555	54.44
195.774	-9.05
195.993	21.67
196.212	74.92
196.432	-11.09
196.651	-11.09
196.87	7.34
197.089	97.45
197.308	91.31
197.528	66.73
197.747	68.78
197.966	76.97
198.185	-7
198.404	25.77
198.623	38.06
198.842	38.06
199.062	62.63
199.281	136.36
199.5	3.24
199.719	60.59
199.938	58.54
200.157	64.68
200.376	17.58
200.595	48.3
200.814	-17.24
201.033	-0.85
201.252	70.83
201.471	25.77
201.69	-15.19
201.909	79.02
202.128	23.72
202.347	42.15
202.566	25.77
202.785	-23.38
203.004	40.11
203.223	117.93
203.442	44.2
203.661	9.39
203.879	23.72
204.098	42.15
204.317	-31.57
204.536	48.3
204.755	29.87
204.974	95.4
205.193	1.19
205.411	76.97
205.63	66.73
205.849	33.96
206.068	48.3
206.287	13.48
206.505	89.26
206.724	21.67
206.943	40.11
207.162	-25.43
207.381	17.58
207.599	27.82
207.818	-7
208.037	-27.48
208.255	58.54
208.474	25.77
208.693	-9.05
208.911	-7
209.13	27.82
209.349	99.5
209.567	-80.72
209.786	29.87
210.005	50.35
210.223	-21.33
210.442	-66.39
210.661	25.77
210.879	40.11
211.098	-19.29
211.316	83.11
211.535	-39.76
211.753	-7
211.972	72.87
212.191	17.58
212.409	99.5
212.628	-9.05
212.846	36.01
213.065	115.88
213.283	-11.09
213.502	46.25
213.72	48.3
213.938	21.67
214.157	36.01
214.375	13.48
214.594	50.35
214.812	42.15
215.031	58.54
215.249	-35.67
215.467	70.83
215.686	99.5
215.904	64.68
216.122	38.06
216.341	7.34
216.559	40.11
216.778	31.91
216.996	31.91
217.214	31.91
217.432	70.83
217.651	17.58
217.869	-27.48
218.087	48.3
218.306	25.77
218.524	68.78
218.742	68.78
218.96	107.69
219.179	29.87
219.397	1.19
219.615	15.53
219.833	33.96
220.051	7.34
220.27	54.44
220.488	48.3
220.706	-19.29
220.924	-23.38
221.142	-4.95
221.36	17.58
221.578	58.54
221.796	15.53
222.015	-54.1
222.233	25.77
222.451	50.35
222.669	7.34
222.887	40.11
223.105	7.34
223.323	3.24
223.541	-56.15
223.759	85.16
223.977	74.92
224.195	68.78
224.413	81.07
224.631	31.91
224.849	50.35
225.067	-15.19
225.285	9.39
225.503	19.63
225.721	-7
225.939	-0.85
226.157	7.34
226.375	126.12
226.592	33.96
226.81	62.63
227.028	54.44
227.246	99.5
227.464	62.63
227.682	83.11
227.9	52.39
228.117	33.96
228.335	-0.85
228.553	52.39
228.771	56.49
228.989	89.26
229.206	79.02
229.424	66.73
229.642	-31.57
229.86	-33.62
230.077	15.53
230.295	31.91
230.513	66.73
230.731	79.02
230.948	42.15
231.166	-11.09
231.384	-31.57
231.601	9.39
231.819	74.92
232.037	31.91
232.254	15.53
232.472	25.77
232.689	-43.86
232.907	21.67
233.125	29.87
233.342	40.11
233.56	-31.57
233.777	33.96
233.995	-9.05
234.213	87.21
234.43	72.87
234.648	-39.76
234.865	48.3
235.083	66.73
235.3	25.77
235.518	83.11
235.735	-11.09
235.953	85.16
236.17	72.87
236.388	15.53
236.605	36.01
236.822	74.92
237.04	7.34
237.257	15.53
237.475	17.58
237.692	74.92
237.909	23.72
238.127	79.02
238.344	66.73
238.562	-7
238.779	42.15
238.996	7.34
239.214	130.22
239.431	-19.29
239.648	-105.3
239.865	79.02
240.083	66.73
240.3	-35.67
240.517	33.96
240.735	-31.57
240.952	42.15
241.169	44.2
241.386	-35.67
241.603	19.63
241.821	50.35
242.038	81.07
242.255	13.48
242.472	5.29
242.689	66.73
242.907	64.68
243.124	-19.29
243.341	87.21
243.558	-25.43
243.775	38.06
243.992	-4.95
244.209	38.06
244.426	101.55
244.643	1.19
244.86	9.39
245.078	62.63
245.295	52.39
245.512	-33.62
245.729	-64.34
245.946	76.97
246.163	36.01
246.38	58.54
246.597	-13.14
246.814	29.87
247.031	62.63
247.248	64.68
247.464	17.58
247.681	5.29
247.898	11.43
248.115	50.35
248.332	-15.19
248.549	-9.05
248.766	83.11
248.983	36.01
249.2	66.73
249.417	17.58
249.633	42.15
249.85	15.53
250.067	79.02
250.284	56.49
250.501	97.45
250.717	58.54
250.934	-39.76
251.151	56.49
251.368	66.73
251.585	33.96
251.801	56.49
252.018	1.19
252.235	-11.09
252.451	-47.96
252.668	-23.38
252.885	29.87
253.102	-31.57
253.318	1.19
253.535	-7
253.752	5.29
253.968	-2.9
254.185	-7
254.401	42.15
254.618	-17.24
254.835	64.68
255.051	64.68
255.268	103.59
255.484	9.39
255.701	89.26
255.917	68.78
256.134	1.19
256.351	-39.76
256.567	31.91
256.784	29.87
257	15.53
257.217	62.63
257.433	27.82
257.65	52.39
257.866	124.07
258.082	17.58
258.299	5.29
258.515	50.35
258.732	5.29
258.948	13.48
259.165	83.11
259.381	-31.57
259.597	68.78
259.814	36.01
260.03	72.87
260.246	-15.19
260.463	66.73
260.679	13.48
260.895	128.17
261.112	3.24
261.328	-47.96
261.544	-11.09
261.761	117.93
261.977	23.72
262.193	-56.15
262.409	11.43
262.626	-4.95
262.842	42.15
263.058	-52.05
263.274	50.35
263.49	62.63
263.707	54.44
263.923	15.53
264.139	-47.96
264.355	42.15
264.571	107.69
264.787	-0.85
265.004	15.53
265.22	48.3
265.436	19.63
265.652	27.82
265.868	87.21
266.084	31.91
266.3	-19.29
266.516	-25.43
266.732	48.3
266.948	66.73
267.164	48.3
267.38	29.87
267.596	13.48
267.812	154.79
268.028	103.59
268.244	15.53
268.46	62.63
268.676	5.29
268.892	17.58
269.108	-7
269.324	66.73
269.54	58.54
269.756	21.67
269.972	29.87
270.188	44.2
270.403	13.48
270.619	29.87
270.835	36.01
271.051	21.67
271.267	-23.38
271.483	1.19
271.698	-56.15
271.914	58.54
272.13	58.54
272.346	56.49
272.562	21.67
272.777	54.44
272.993	-15.19
273.209	31.91
273.425	58.54
273.64	19.63
273.856	72.87
274.072	64.68
274.287	46.25
274.503	31.91
274.719	11.43
274.934	29.87
275.15	33.96
275.366	87.21
275.581	38.06
275.797	-0.85
276.012	17.58
276.228	70.83
276.444	7.34
276.659	72.87
276.875	72.87
277.09	48.3
277.306	25.77
277.521	62.63
277.737	81.07
277.952	81.07
278.168	38.06
278.383	62.63
278.599	146.6
278.814	89.26
279.03	58.54
279.245	74.92
279.461	-11.09
279.676	36.01
279.892	27.82
280.107	56.49
280.322	27.82
280.538	62.63
280.753	-15.19
280.969	64.68
281.184	19.63
281.399	17.58
281.615	115.88
281.83	1.19
282.045	-13.14
282.26	-7
282.476	-4.95
282.691	87.21
282.906	-9.05
283.122	29.87
283.337	-11.09
283.552	42.15
283.767	-39.76
283.983	91.31
284.198	-27.48
284.413	79.02
284.628	-76.63
284.843	40.11
285.058	70.83
285.274	50.35
285.489	-7
285.704	89.26
285.919	13.48
286.134	-25.43
286.349	79.02
286.564	9.39
286.779	31.91
286.995	38.06
287.21	38.06
287.425	130.22
287.64	66.73
287.855	17.58
288.07	-19.29
288.285	50.35
288.5	70.83
288.715	64.68
288.93	58.54
289.145	-43.86
289.36	-0.85
289.575	72.87
289.79	33.96
290.004	15.53
290.219	25.77
290.434	60.59
290.649	15.53
290.864	-31.57
291.079	29.87
291.294	36.01
291.509	48.3
291.724	46.25
291.938	-33.62
292.153	50.35
292.368	64.68
292.583	48.3
292.798	13.48
293.012	38.06
293.227	40.11
293.442	91.31
293.657	33.96
293.871	89.26
294.086	48.3
294.301	107.69
294.516	140.46
294.73	79.02
294.945	9.39
295.16	44.2
295.374	56.49
295.589	154.79
295.804	87.21
296.018	29.87
296.233	64.68
296.447	64.68
296.662	33.96
296.877	99.5
297.091	40.11
297.306	42.15
297.52	68.78
297.735	93.35
297.949	97.45
298.164	62.63
298.378	-19.29
298.593	17.58
298.807	29.87
299.022	29.87
299.236	56.49
299.451	11.43
299.665	70.83
299.88	68.78
300.094	42.15
300.309	13.48
300.523	119.98
300.737	111.78
300.952	58.54
301.166	103.59
301.381	31.91
301.595	95.4
301.809	36.01
302.024	-4.95
302.238	7.34
302.452	97.45
302.667	44.2
302.881	56.49
303.095	9.39
303.309	52.39
303.524	15.53
303.738	-2.9
303.952	83.11
304.166	19.63
304.381	-23.38
304.595	13.48
304.809	31.91
305.023	36.01
305.237	19.63
305.452	-9.05
305.666	62.63
305.88	-13.14
306.094	25.77
306.308	66.73
306.522	70.83
306.736	-7
306.95	7.34
307.164	60.59
307.379	11.43
307.593	97.45
307.807	9.39
308.021	64.68
308.235	50.35
308.449	23.72
308.663	74.92
308.877	79.02
309.091	56.49
309.305	3.24
309.519	-9.05
309.733	72.87
309.947	-11.09
310.161	60.59
310.374	17.58
310.588	91.31
310.802	17.58
311.016	93.35
311.23	42.15
311.444	27.82
311.658	72.87
311.872	83.11
312.085	117.93
312.299	70.83
312.513	105.64
312.727	5.29
312.941	9.39
313.154	103.59
313.368	72.87
313.582	5.29
313.796	25.77
314.009	7.34
314.223	-4.95
314.437	52.39
314.651	72.87
314.864	-35.67
315.078	50.35
315.292	89.26
315.505	42.15
315.719	83.11
315.933	40.11
316.146	9.39
316.36	23.72
316.573	117.93
316.787	-23.38
317.001	89.26
317.214	9.39
317.428	-15.19
317.641	23.72
317.855	-62.29
318.068	83.11
318.282	38.06
318.495	91.31
318.709	25.77
318.922	91.31
319.136	36.01
319.349	48.3
319.563	62.63
319.776	-41.81
319.99	48.3
320.203	87.21
320.417	31.91
320.63	21.67
320.843	99.5
321.057	-7
321.27	-7
321.483	74.92
321.697	134.31
321.91	7.34
322.124	70.83
322.337	122.02
322.55	21.67
322.763	48.3
322.977	9.39
323.19	9.39
323.403	36.01
323.617	-19.29
323.83	11.43
324.043	-9.05
324.256	76.97
324.469	13.48
324.683	122.02
324.896	40.11
325.109	36.01
325.322	38.06
325.535	101.55
325.748	72.87
325.962	-23.38
326.175	74.92
326.388	72.87
326.601	70.83
326.814	5.29
327.027	23.72
327.24	91.31
327.453	29.87
327.666	48.3
327.879	103.59
328.092	62.63
328.305	103.59
328.518	-0.85
328.731	-9.05
328.944	79.02
329.157	113.83
329.37	-0.85
329.583	142.5
329.796	15.53
330.009	9.39
330.222	29.87
330.435	58.54
330.648	21.67
330.861	72.87
331.073	89.26
331.286	50.35
331.499	50.35
331.712	-11.09
331.925	-2.9
332.138	64.68
332.35	95.4
332.563	50.35
332.776	17.58
332.989	13.48
333.202	-31.57
333.414	42.15
333.627	23.72
333.84	50.35
334.053	68.78
334.265	85.16
334.478	83.11
334.691	50.35
334.903	50.35
335.116	17.58
335.329	54.44
335.541	27.82
335.754	64.68
335.966	21.67
336.179	70.83
336.392	54.44
336.604	-15.19
336.817	74.92
337.029	27.82
337.242	15.53
337.454	85.16
337.667	-7
337.88	46.25
338.092	42.15
338.305	-9.05
338.517	21.67
338.729	111.78
338.942	66.73
339.154	38.06
339.367	-2.9
339.579	72.87
339.792	54.44
340.004	46.25
340.217	13.48
340.429	122.02
340.641	74.92
340.854	58.54
341.066	7.34
341.278	146.6
341.491	93.35
341.703	36.01
341.915	-29.52
342.128	68.78
342.34	25.77
342.552	68.78
342.764	9.39
342.977	31.91
343.189	25.77
343.401	72.87
343.613	79.02
343.826	11.43
344.038	-72.53
344.25	60.59
344.462	79.02
344.674	72.87
344.886	31.91
345.099	99.5
345.311	42.15
345.523	60.59
345.735	-17.24
345.947	-27.48
346.159	-33.62
346.371	79.02
346.583	31.91
346.795	130.22
347.007	19.63
347.219	115.88
347.431	-9.05
347.643	87.21
347.855	17.58
348.067	7.34
348.279	93.35
348.491	25.77
348.703	91.31
348.915	31.91
349.127	11.43
349.339	40.11
349.551	27.82
349.763	64.68
349.975	85.16
350.187	83.11
350.399	144.55
350.61	5.29
350.822	-15.19
351.034	46.25
351.246	40.11
351.458	130.22
351.669	85.16
351.881	91.31
352.093	50.35
352.305	105.64
352.517	54.44
352.728	62.63
352.94	-9.05
353.152	81.07
353.363	50.35
353.575	11.43
353.787	62.63
353.999	87.21
354.21	52.39
354.422	83.11
354.633	95.4
354.845	62.63
355.057	13.48
355.268	99.5
355.48	76.97
355.692	56.49
355.903	-11.09
356.115	48.3
356.326	50.35
356.538	87.21
356.749	64.68
356.961	208.04
357.172	79.02
357.384	29.87
357.595	111.78
357.807	-4.95
358.018	-2.9
358.23	79.02
358.441	101.55
358.653	101.55
358.864	17.58
359.075	58.54
359.287	119.98
359.498	66.73
359.709	76.97
359.921	68.78
360.132	5.29
360.344	-2.9
360.555	29.87
360.766	62.63
360.977	7.34
361.189	105.64
361.4	-0.85
361.611	60.59
361.823	113.83
362.034	64.68
362.245	50.35
362.456	-25.43
362.667	48.3
362.879	68.78
363.09	-0.85
363.301	109.74
363.512	33.96
363.723	-33.62
363.935	60.59
364.146	29.87
364.357	-7
364.568	107.69
364.779	19.63
364.99	89.26
365.201	27.82
365.412	162.98
365.623	15.53
365.834	70.83
366.045	33.96
366.256	74.92
366.467	-2.9
366.678	91.31
366.889	87.21
367.1	126.12
367.311	56.49
367.522	21.67
367.733	48.3
367.944	54.44
368.155	48.3
368.366	38.06
368.577	74.92
368.788	50.35
368.999	85.16
369.209	122.02
369.42	72.87
369.631	119.98
369.842	7.34
370.053	52.39
370.264	56.49
370.474	117.93
370.685	70.83
370.896	103.59
371.107	-15.19
371.317	5.29
371.528	17.58
371.739	13.48
371.95	83.11
372.16	103.59
372.371	42.15
372.582	11.43
372.792	142.5
373.003	101.55
373.214	21.67
373.424	42.15
373.635	36.01
373.846	113.83
374.056	31.91
374.267	119.98
374.477	138.41
374.688	113.83
374.898	50.35
375.109	62.63
375.319	50.35
375.53	72.87
375.74	81.07
375.951	132.26
376.161	97.45
376.372	72.87
376.582	23.72
376.793	-0.85
377.003	46.25
377.214	33.96
377.424	74.92
377.635	46.25
377.845	124.07
378.055	158.89
378.266	23.72
378.476	15.53
378.686	40.11
378.897	17.58
379.107	124.07
379.317	62.63
379.528	54.44
379.738	107.69
379.948	36.01
380.158	52.39
380.369	19.63
380.579	95.4
380.789	97.45
380.999	64.68
381.21	99.5
381.42	124.07
381.63	-2.9
381.84	156.84
382.05	31.91
382.261	27.82
382.471	79.02
382.681	66.73
382.891	68.78
383.101	122.02
383.311	48.3
383.521	130.22
383.731	62.63
383.941	56.49
384.151	91.31
384.361	-25.43
384.571	31.91
384.781	107.69
384.991	101.55
385.201	107.69
385.411	-0.85
385.621	109.74
385.831	140.46
386.041	101.55
386.251	44.2
386.461	68.78
386.671	33.96
386.881	95.4
387.091	36.01
387.301	29.87
387.511	70.83
387.72	66.73
387.93	38.06
388.14	54.44
388.35	64.68
388.56	40.11
388.769	99.5
388.979	105.64
389.189	46.25
389.399	50.35
389.609	1.19
389.818	130.22
390.028	58.54
390.238	95.4
390.447	119.98
390.657	107.69
390.867	19.63
391.076	66.73
391.286	25.77
391.496	1.19
391.705	13.48
391.915	76.97
392.125	158.89
392.334	-4.95
392.544	132.26
392.753	23.72
392.963	40.11
393.172	66.73
393.382	48.3
393.591	140.46
393.801	72.87
394.01	83.11
394.22	91.31
394.429	50.35
394.639	17.58
394.848	101.55
395.058	29.87
395.267	99.5
395.477	95.4
395.686	91.31
395.895	162.98
396.105	68.78
396.314	54.44
396.524	62.63
396.733	79.02
396.942	130.22
397.152	122.02
397.361	132.26
397.57	115.88
397.78	97.45
397.989	126.12
398.198	117.93
398.407	21.67
398.617	177.32
398.826	9.39
399.035	46.25
399.244	95.4
399.453	142.5
399.663	91.31
399.872	31.91
400.081	95.4
400.29	97.45
400.499	107.69
400.708	56.49
400.917	111.78
401.127	83.11
401.336	70.83
401.545	150.7
401.754	124.07
401.963	152.74
402.172	54.44
402.381	181.42
402.59	179.37
402.799	72.87
403.008	195.75
403.217	140.46
403.426	124.07
403.635	56.49
403.844	109.74
404.053	122.02
404.262	128.17
404.471	185.51
404.68	222.38
404.888	142.5
405.097	126.12
405.306	140.46
405.515	179.37
405.724	126.12
405.933	181.42
406.142	191.66
406.35	136.36
406.559	169.13
406.768	201.9
406.977	277.67
407.185	208.04
407.394	140.46
407.603	107.69
407.812	263.33
408.02	230.57
408.229	275.62
408.438	236.71
408.646	269.48
408.855	220.33
409.064	230.57
409.272	179.37
409.481	259.24
409.69	347.3
409.898	283.81
410.107	337.06
410.315	314.53
410.524	214.18
410.733	312.49
410.941	304.29
411.15	384.16
411.358	398.5
411.567	421.03
411.775	314.53
411.984	388.26
412.192	439.46
412.401	414.88
412.609	443.56
412.818	474.28
413.026	525.47
413.234	496.8
413.443	502.95
413.651	537.76
413.86	474.28
414.068	621.73
414.276	636.06
414.485	558.24
414.693	681.12
414.901	771.23
415.11	687.26
415.318	691.36
415.526	666.78
415.734	767.13
415.943	793.76
416.151	822.43
416.359	787.61
416.567	918.68
416.776	898.2
416.984	1029.27
417.192	980.12
417.4	967.84
417.608	990.36
417.817	988.32
418.025	1055.9
418.233	1234.07
418.441	1162.39
418.649	1137.82
418.857	1258.65
419.065	1303.7
419.273	1254.55
419.481	1381.53
419.689	1471.64
419.897	1498.26
420.105	1483.92
420.313	1508.5
420.521	1549.46
420.729	1621.14
420.937	1631.38
421.145	1750.16
421.353	1842.32
421.561	1823.89
421.769	1881.23
421.977	2000.01
422.185	1977.48
422.393	2065.55
422.601	2319.5
422.809	2204.81
423.017	2167.95
423.224	2350.21
423.432	2233.48
423.64	2378.89
423.848	2765.95
424.056	2636.93
424.263	2819.2
424.471	2866.3
424.679	2860.16
424.887	2892.93
425.094	3011.71
425.302	3169.4
425.51	3136.63
425.718	3329.14
425.925	3458.17
426.133	3511.41
426.341	3685.49
426.548	3757.17
426.756	3783.79
426.964	3875.95
427.171	4066.41
427.379	4174.95
427.586	4287.59
427.794	4406.38
428.001	4619.36
428.209	4856.93
428.417	4701.28
428.624	5123.16
428.832	5160.03
429.039	5067.87
429.247	4994.14
429.454	5524.57
429.662	5948.5
429.869	5499.99
430.076	5956.69
430.284	5604.44
430.491	5813.33
430.699	6304.84
430.906	6339.66
431.114	6382.67
431.321	6677.57
431.528	6517.83
431.736	7218.24
431.943	7562.3
432.15	7328.83
432.358	7410.75
432.565	7816.24
432.772	7681.08
432.979	8303.66
433.187	8260.65
433.394	8387.63
433.601	8885.28
433.808	9069.6
434.016	8893.47
434.223	9165.85
434.43	9888.79
434.637	9716.76
434.844	10206.22
435.052	10376.2
435.259	10335.24
435.466	10613.77
435.673	10306.57
435.88	11090.95
436.087	11656.18
436.294	11731.96
436.501	11303.93
436.708	11549.69
436.915	12033.01
437.122	12592.11
437.329	12137.46
437.537	12819.43
437.743	12993.51
437.95	12917.73
438.157	13626.33
438.364	13781.98
438.571	13945.81
438.778	14058.45
438.985	15420.35
439.192	14666.7
439.399	15231.94
439.606	14822.34
439.813	15819.71
440.02	16599.98
440.227	16315.31
440.433	16161.72
440.64	16712.62
440.847	16610.22
441.054	17241
441.261	18113.43
441.467	17927.07
441.674	18346.9
441.881	19086.22
442.088	18817.93
442.294	18742.16
442.501	19411.84
442.708	19559.3
442.914	20460.4
443.121	21341.03
443.328	20546.42
443.534	22303.57
443.741	21574.5
443.948	21277.54
444.154	22795.09
444.361	22457.17
444.568	22801.23
444.774	22817.61
444.981	23104.33
445.187	23485.25
445.394	24580.92
445.6	24195.9
445.807	26512.15
446.013	25746.21
446.22	25879.33
446.426	26784.53
446.633	27192.08
446.839	27874.05
447.046	26888.98
447.252	28306.17
447.459	28531.45
447.665	28254.97
447.871	29416.17
448.078	30687.96
448.284	29252.33
448.491	30065.38
448.697	30946
448.903	31697.61
449.11	31779.53
449.316	31285.97
449.522	31754.95
449.728	32381.63
449.935	32985.78
450.141	32492.22
450.347	33501.87
450.553	32363.2
450.76	32869.05
450.966	33370.8
451.172	33292.97
451.378	33835.69
451.584	33170.1
451.791	34048.68
451.997	34278.05
452.203	34665.11
452.409	34546.33
452.615	34146.98
452.821	32983.73
453.027	32527.03
453.233	34499.23
453.44	32815.8
453.646	33297.07
453.852	33118.9
454.058	34249.38
454.264	32797.37
454.47	33712.81
454.676	32768.69
454.882	33807.01
455.088	30841.56
455.294	31410.89
455.5	31634.12
455.705	31972.03
455.911	30642.9
456.117	29954.79
456.323	29745.89
456.529	28132.09
456.735	29483.75
456.941	28754.68
457.147	27888.39
457.352	26921.74
457.558	26729.23
457.764	26657.56
457.97	26368.79
458.176	25840.42
458.381	25600.8
458.587	24308.54
458.793	24501.04
458.999	23190.34
459.204	25070.38
459.41	24181.56
459.616	22596.43
459.821	22575.95
460.027	22637.39
460.233	22057.82
460.438	20882.28
460.644	21318.5
460.85	20409.2
461.055	20093.82
461.261	19573.63
461.466	18557.84
461.672	17699.74
461.878	19084.17
462.083	17662.88
462.289	17642.4
462.494	17331.11
462.7	16759.72
462.905	16065.46
463.111	16698.28
463.316	16923.56
463.522	16389.04
463.727	16374.7
463.932	16421.81
464.138	16475.06
464.343	16573.36
464.549	15811.51
464.754	16612.27
464.959	16212.92
465.165	16280.5
465.37	15549.37
465.575	14937.03
465.781	15801.27
465.986	15881.14
466.191	15107.01
466.397	15176.64
466.602	14226.39
466.807	14758.86
467.012	14744.52
467.218	14595.02
467.423	14318.54
467.628	14529.48
467.833	15342.53
468.038	14934.98
468.244	14121.94
468.449	14943.17
468.654	14152.66
468.859	14261.2
469.064	14085.08
469.269	13317.09
469.474	13634.52
469.679	13861.85
469.885	13515.74
470.09	13593.56
470.295	13462.49
470.5	13274.08
470.705	13296.61
470.91	12884.97
471.115	12901.35
471.32	13016.04
471.525	12923.88
471.73	12909.54
471.935	12686.31
472.139	12098.55
472.344	12188.66
472.549	12338.16
472.754	12157.94
472.959	11908.08
473.164	11656.18
473.369	11564.03
473.574	12096.5
473.778	11811.83
473.983	11770.87
474.188	11613.18
474.393	11125.76
474.598	10880
474.802	11013.12
475.007	10959.88
475.212	11011.07
475.417	10597.38
475.621	10587.15
475.826	10812.42
476.031	10339.34
476.235	10251.28
476.44	10339.34
476.645	10101.78
476.849	10028.05
477.054	10013.71
477.259	9702.42
477.463	9866.26
477.668	9497.63
477.872	9903.12
478.077	9720.85
478.282	9301.02
478.486	9384.99
478.691	9139.23
478.895	9217.05
479.1	9407.52
479.304	9067.55
479.509	9004.07
479.713	9151.52
479.918	8969.25
480.122	8786.98
480.326	8897.57
480.531	9047.07
480.735	8799.27
480.94	8784.93
481.144	9049.12
481.348	8578.09
481.553	8703.01
481.757	8588.33
481.961	8870.95
482.166	8647.72
482.37	8588.33
482.574	8416.3
482.778	8592.42
482.983	8770.6
483.187	8635.43
483.391	8576.04
483.595	8447.02
483.8	8555.56
484.004	8660.01
484.208	8670.25
484.412	8467.5
484.616	8621.1
484.821	8696.87
485.025	8518.7
485.229	8596.52
485.433	8545.32
485.637	8492.07
485.841	8475.69
486.045	8592.42
486.249	8328.24
486.453	8490.03
486.657	8502.31
486.861	8444.97
487.065	8350.76
487.269	8428.59
487.473	8422.44
487.677	8541.22
487.881	8657.96
488.085	8467.5
488.289	8633.38
488.493	8526.89
488.697	8760.36
488.901	8619.05
489.105	8631.33
489.309	8645.67
489.512	8668.2
489.716	8526.89
489.92	8567.85
490.124	8639.53
490.328	8789.03
490.531	8506.41
490.735	8694.82
490.939	8733.73
491.143	8807.46
491.346	8746.02
491.55	9053.22
491.754	8936.48
491.958	8848.42
492.161	8930.34
492.365	9243.68
492.569	9090.08
492.772	9059.36
492.976	9071.65
493.18	9321.5
493.383	9182.24
493.587	9245.73
493.79	9298.97
493.994	9141.28
494.197	9360.41
494.401	9501.72
494.605	9382.94
494.808	9597.98
495.012	9735.19
495.215	9602.07
495.419	9942.03
495.622	9794.58
495.825	10044.43
496.029	9753.62
496.232	10257.42
496.436	10181.65
496.639	10482.7
496.843	10263.57
497.046	10411.02
497.249	10605.58
497.453	10650.63
497.656	10918.92
497.859	10996.74
498.063	11166.72
498.266	11070.47
498.469	11230.21
498.673	11121.66
498.876	11375.61
499.079	11566.07
499.282	11596.79
499.485	11947
499.689	11869.17
499.892	11969.52
500.095	12162.03
500.298	12356.59
500.501	12299.25
500.705	12774.38
500.908	12731.37
501.111	12768.23
501.314	13079.52
501.517	13040.61
501.72	13302.75
501.923	13085.67
502.126	13546.46
502.329	13743.06
502.532	13784.02
502.735	13997.01
502.938	14359.5
503.141	14468.05
503.344	14603.21
503.547	14574.54
503.75	14459.85
503.953	14986.18
504.156	15117.25
504.359	15233.99
504.562	15098.82
504.765	15510.46
504.968	15920.06
505.17	15934.39
505.373	15782.84
505.576	16155.57
505.779	16350.13
505.982	16417.71
506.185	17101.73
506.387	16776.11
506.59	17046.44
506.793	17226.66
506.996	17302.43
507.198	17779.61
507.401	17832.86
507.604	18004.89
507.807	18371.47
508.009	18461.58
508.212	18447.25
508.415	18770.83
508.617	18713.49
508.82	19266.44
509.022	19065.74
509.225	19602.3
509.428	19532.67
509.63	19594.11
509.833	19704.7
510.035	20654.96
510.238	20431.73
510.44	20466.55
510.643	20693.87
510.845	20941.68
511.048	20833.13
511.25	21594.98
511.453	21648.22
511.655	22475.6
511.858	22008.67
512.06	22111.07
512.262	22461.27
512.465	22469.46
512.667	22874.96
512.87	23079.75
513.072	23157.58
513.274	23726.91
513.477	23778.11
513.679	23939.9
513.881	23903.04
514.084	24312.63
514.286	24800.05
514.488	24785.71
514.69	25279.27
514.893	25348.9
515.095	25426.73
515.297	25551.65
515.499	25969.44
515.701	26231.58
515.904	26686.23
516.106	26716.95
516.308	26837.78
516.51	27437.83
516.712	27374.34
516.914	27777.79
517.116	28062.46
517.318	28265.21
517.52	28527.35
517.722	28654.33
517.925	28789.49
518.127	29256.43
518.329	29299.44
518.531	29207.28
518.733	29952.74
518.935	30241.5
519.136	30190.3
519.338	30667.48
519.54	30913.23
519.742	31333.07
519.944	31025.87
520.146	32015.04
520.348	32109.25
520.55	31767.24
520.752	31795.91
520.954	32715.45
521.155	32715.45
521.357	33110.71
521.559	33131.19
521.761	34110.11
521.963	33831.59
522.164	33917.61
522.366	34103.97
522.568	34402.97
522.77	34581.15
522.971	35078.8
523.173	34826.9
523.375	35125.91
523.576	35054.23
523.778	35318.42
523.98	35785.35
524.181	36172.42
524.383	36063.88
524.584	36825.72
524.786	36649.6
524.988	36182.66
525.189	36858.49
525.391	37526.13
525.592	37319.28
525.794	37591.66
525.995	37821.03
526.197	37929.58
526.398	38177.38
526.6	38345.31
526.801	38492.77
527.003	38648.41
527.204	38503.01
527.406	39053.91
527.607	38908.5
527.808	39217.75
528.01	38554.21
528.211	39287.38
528.412	39522.9
528.614	39459.41
528.815	39705.16
529.016	39844.43
529.218	39764.56
529.419	39995.98
529.62	40143.43
529.822	39426.64
530.023	40094.28
530.224	40084.04
530.425	40555.07
530.626	40391.23
530.828	40165.96
531.029	41073.21
531.23	40311.36
531.431	40045.13
531.632	40774.2
531.833	41128.5
532.035	40723.01
532.236	41187.89
532.437	40962.62
532.638	40884.79
532.839	40960.57
533.04	41237.05
533.241	40694.33
533.442	42285.61
533.643	41273.91
533.844	41273.91
534.045	41171.51
534.246	40708.67
534.447	41337.4
534.648	41546.29
534.849	41404.98
535.05	40995.39
535.251	41314.87
535.451	40960.57
535.652	41900.59
535.853	41476.66
536.054	41357.88
536.255	41347.64
536.456	41257.53
536.657	41720.37
536.857	40931.9
537.058	41155.13
537.259	41667.12
537.46	41667.12
537.66	41353.78
537.861	41568.82
538.062	41077.3
538.263	41368.12
538.463	41599.54
538.664	41296.44
538.865	41421.36
539.065	41435.7
539.266	41046.58
539.466	41994.79
539.667	40866.36
539.868	41658.93
540.068	41120.31
540.269	41601.58
540.469	41546.29
540.67	41394.74
540.87	41314.87
541.071	41245.24
541.271	41407.03
541.472	41490.99
541.672	41200.18
541.873	41443.89
542.073	40839.74
542.274	41482.8
542.474	41069.11
542.675	41478.71
542.875	41732.65
543.075	41617.97
543.276	40909.37
543.476	41566.77
543.676	41318.96
543.877	41355.83
544.077	41067.06
544.277	41368.12
544.478	41357.88
544.678	41282.1
544.878	41144.89
545.078	41187.89
545.279	40958.52
545.479	41089.59
545.679	41208.37
545.879	41093.69
546.079	41097.78
546.28	41470.51
546.48	41032.25
546.68	41208.37
546.88	40991.29
547.08	40993.34
547.28	41169.46
547.48	41118.26
547.68	41146.93
547.88	40639.04
548.081	40839.74
548.281	41148.98
548.481	40983.1
548.681	41400.88
548.881	41361.97
549.081	41359.92
549.28	40688.19
549.48	41241.14
549.68	41259.57
549.88	41339.44
550.08	40649.28
550.28	41046.58
550.48	40739.39
550.68	40860.22
550.88	40397.38
551.08	40507.97
551.279	40735.29
551.479	41009.72
551.679	40856.12
551.879	40573.5
552.079	40888.89
552.278	40870.46
552.478	40561.22
552.678	40520.26
552.878	40426.05
553.077	40364.61
553.277	39891.53
553.477	41034.3
553.676	40864.32
553.876	40450.63
554.076	40483.39
554.275	40503.87
554.475	40006.22
554.674	40266.31
554.874	40675.9
555.074	40094.28
555.273	40489.54
555.473	40628.8
555.672	40075.85
555.872	40192.58
556.071	40155.72
556.271	40327.75
556.47	39690.83
556.67	40018.5
556.869	40028.74
557.068	40059.46
557.268	39930.44
557.467	40004.17
557.667	39832.14
557.866	39825.99
558.065	39660.11
558.265	39553.62
558.464	39561.81
558.663	39823.95
558.863	39299.67
559.062	40063.56
559.261	38996.57
559.461	39451.22
559.66	38660.7
559.859	39158.36
560.058	38697.56
560.258	39385.68
560.457	39031.38
560.656	39258.71
560.855	38978.14
561.054	39084.63
561.253	38464.1
561.453	38951.51
561.652	38654.56
561.851	38943.32
562.05	38324.83
562.249	38685.28
562.448	38842.97
562.647	38181.48
562.846	38285.92
563.045	38390.37
563.244	37767.79
563.443	38404.7
563.642	37409.39
563.841	37870.18
564.04	37751.4
564.239	38169.19
564.438	37548.65
564.637	37667.44
564.836	37423.73
565.035	37370.48
565.234	37259.89
565.432	37239.41
565.631	37302.9
565.83	37358.19
566.029	36942.45
566.228	37165.68
566.427	36661.88
566.625	36512.38
566.824	36147.84
567.023	36872.82
567.222	36033.16
567.42	36551.29
567.619	36213.38
567.818	36315.78
568.016	36473.47
568.215	36424.32
568.414	35957.38
568.612	36471.42
568.811	35814.02
569.01	36186.75
569.208	35666.57
569.407	35670.67
569.605	35551.88
569.804	36010.63
570.002	35482.25
570.201	35555.98
570.4	34970.26
570.598	34906.77
570.797	34767.51
570.995	34933.4
571.193	34577.05
571.392	34919.06
571.59	34263.71
571.789	34851.48
571.987	34288.29
572.186	34220.7
572.384	34130.59
572.582	34552.48
572.781	34327.2
572.979	34032.29
573.177	34097.83
573.376	34038.44
573.574	33659.56
573.772	33886.89
573.971	33653.42
574.169	33598.12
574.367	33315.5
574.565	33622.7
574.763	33073.84
574.962	33403.56
575.16	32721.59
575.358	32746.17
575.556	32719.54
575.754	33163.95
575.952	32430.78
576.151	32578.23
576.349	32398.01
576.547	32455.36
576.745	32578.23
576.943	32731.83
577.141	32340.67
577.339	32398.01
577.537	32240.32
577.735	31898.31
577.933	31656.65
578.131	31832.77
578.329	31914.69
578.527	31593.16
578.725	31582.92
578.923	31351.5
579.121	31212.24
579.319	31142.61
579.516	31447.75
579.714	31464.14
579.912	31226.57
580.11	30923.47
580.308	31060.69
580.506	30866.13
580.704	30419.67
580.901	31167.18
581.099	30819.03
581.297	30266.08
581.495	30358.24
581.692	30892.76
581.89	30018.27
582.088	30214.88
582.285	30030.56
582.483	30251.74
582.681	30182.11
582.878	29823.72
583.076	29491.94
583.274	29666.02
583.471	29375.21
583.669	29627.11
583.866	29479.66
584.064	29721.32
584.262	29291.24
584.459	29553.38
584.657	29158.13
584.854	29356.78
585.052	29008.62
585.249	28715.76
585.447	29135.6
585.644	28560.12
585.841	28619.51
586.039	28803.83
586.236	28207.87
586.434	28306.17
586.631	28076.8
586.828	28336.89
587.026	28064.51
587.223	28009.22
587.42	28080.89
587.618	27849.47
587.815	28003.07
588.012	27785.99
588.21	27992.83
588.407	27831.04
588.604	27822.85
588.801	27347.72
588.999	27583.24
589.196	27400.97
589.393	27417.35
589.59	27228.94
589.787	27357.96
589.984	26895.12
590.182	26751.76
590.379	26989.33
590.576	26573.59
590.773	26815.25
590.97	26526.49
591.167	26606.36
591.364	26174.24
591.561	26403.61
591.758	26207
591.955	26166.04
592.152	26317.59
592.349	25977.63
592.546	26073.88
592.743	25973.53
592.94	25740.07
593.137	26049.31
593.334	25785.12
593.531	25570.08
593.727	25475.88
593.924	25881.38
594.121	25447.21
594.318	25735.97
594.515	25400.1
594.712	25256.75
594.908	25252.65
595.105	25135.92
595.302	25047.85
595.499	25084.72
595.696	24888.11
595.892	24556.34
596.089	24830.77
596.286	24814.38
596.482	24654.64
596.679	24652.59
596.876	24355.64
597.072	24480.57
597.269	24226.62
597.466	24247.1
597.662	24181.56
597.859	24046.4
598.055	24034.11
598.252	23972.67
598.448	23941.95
598.645	23989.05
598.841	23345.99
599.038	23477.06
599.234	23587.65
599.431	23681.86
599.627	23452.48
599.824	23573.31
600.02	23198.54
600.217	23462.72
600.413	23046.99
600.609	22993.74
600.806	22870.86
601.002	22909.77
601.198	22692.69
601.395	22616.91
601.591	22506.32
601.787	22924.11
601.984	22817.61
602.18	22831.95
602.376	22451.03
602.572	22686.54
602.769	22149.98
602.965	21959.52
603.161	21943.13
603.357	22104.92
603.553	22164.31
603.75	22246.23
603.946	21771.1
604.142	22125.4
604.338	21691.23
604.534	21984.09
604.73	21742.43
604.926	21648.22
605.122	21623.65
605.318	21250.92
605.514	21357.41
605.71	21191.53
605.906	21214.05
606.102	21275.49
606.298	21289.83
606.494	21150.57
606.69	20986.73
606.886	21287.78
607.082	20960.11
607.278	21111.66
607.474	20724.59
607.67	21005.16
607.866	20630.38
608.062	20956.01
608.257	20431.73
608.453	20550.51
608.649	20556.66
608.845	20423.54
609.041	20527.99
609.236	20523.89
609.432	20444.02
609.628	20292.47
609.824	20462.45
610.019	20165.49
610.215	20405.11
610.411	20259.7
610.606	20167.54
610.802	19884.92
610.998	20183.93
611.193	20202.36
611.389	20065.14
611.584	19741.57
611.78	19626.88
611.976	19940.22
612.171	19907.45
612.367	19860.35
612.562	19422.08
612.758	19383.17
612.953	19526.53
613.149	19663.74
613.344	19370.88
613.539	19864.44
613.735	19770.24
613.93	19483.52
614.126	19336.07
614.321	19499.91
614.517	19141.51
614.712	19209.09
614.907	19127.17
615.103	19268.48
615.298	19172.23
615.493	19358.6
615.688	18721.68
615.884	19456.9
616.079	18924.43
616.274	19006.34
616.47	18879.37
616.665	18905.99
616.86	18688.91
617.055	18758.54
617.25	18539.41
617.445	18942.86
617.641	18375.57
617.836	18533.26
618.031	18183.06
618.226	18666.38
618.421	18363.28
618.616	18529.17
618.811	18121.62
619.006	18420.63
619.201	17968.02
619.396	18181.01
619.591	17931.16
619.786	18236.31
619.981	17730.46
620.176	17902.49
620.371	17712.03
620.566	17752.99
620.761	17558.43
620.956	17546.14
621.151	17396.64
621.346	17466.27
621.541	17093.54
621.735	17709.98
621.93	17148.84
622.125	17224.61
622.32	16774.06
622.515	16901.03
622.709	16655.28
622.904	16800.68
623.099	16483.25
623.294	16573.36
623.488	16194.48
623.683	16423.86
623.878	16440.24
624.072	16589.74
624.267	16008.12
624.462	15948.73
624.656	15768.51
624.851	16057.27
625.046	15997.88
625.24	15887.29
625.435	15571.9
625.629	15737.79
625.824	15485.89
626.018	15301.57
626.213	15211.46
626.407	15430.59
626.602	15121.35
626.796	15031.24
626.991	15037.38
627.185	14908.36
627.38	14652.36
627.574	14846.92
627.768	14834.63
627.963	14521.29
628.157	14324.69
628.352	14820.3
628.546	14382.03
628.74	14400.46
628.935	14013.4
629.129	14246.87
629.323	13994.97
629.517	13988.82
629.712	13835.22
629.906	13966.29
630.1	13738.97
630.294	13609.95
630.489	13548.51
630.683	13880.28
630.877	13491.16
631.071	13394.91
631.265	13597.66
631.459	13202.4
631.653	13114.34
631.848	13163.49
632.042	13138.91
632.236	12977.12
632.43	12837.86
632.624	12987.36
632.818	13009.89
633.012	12567.53
633.206	12653.55
633.4	12727.27
633.594	12577.77
633.788	12592.11
633.982	12286.96
634.176	12422.13
634.369	12289.01
634.563	12301.29
634.757	12086.26
634.951	12057.59
635.145	12090.35
635.339	12078.07
635.533	12172.27
635.726	11658.23
635.92	11826.17
636.114	11801.59
636.308	11652.09
636.501	11625.47
636.695	11531.26
636.889	11435
637.083	11422.72
637.276	11336.7
637.47	11320.32
637.664	11338.75
637.857	11377.66
638.051	11492.35
638.244	11166.72
638.438	11070.47
638.632	10808.33
638.825	10728.45
639.019	10771.46
639.212	10732.55
639.406	10761.22
639.599	10707.98
639.793	10624.01
639.986	10343.44
640.18	10435.6
640.373	10304.53
640.567	10349.58
640.76	10359.82
640.954	10212.37
641.147	10232.85
641.34	10099.73
641.534	10048.53
641.727	10040.34
641.92	10017.81
642.114	10069.01
642.307	9921.56
642.5	9810.96
642.694	9759.77
642.887	9864.21
643.08	9808.92
643.273	9737.24
643.467	9516.06
643.66	9374.75
643.853	9194.53
644.046	9493.53
644.239	9491.48
644.432	9317.4
644.626	9384.99
644.819	9180.19
645.012	9407.52
645.205	9174.05
645.398	9090.08
645.591	8870.95
645.784	8799.27
645.977	8954.91
646.17	8916
646.363	8840.23
646.556	8676.39
646.749	8557.61
646.942	8789.03
647.135	8815.65
647.328	8729.64
647.521	8442.92
647.714	8447.02
647.907	8213.55
648.099	8518.7
648.292	8354.86
648.485	8322.09
648.678	8279.08
648.871	8418.35
649.064	8387.63
649.256	7980.08
649.449	8004.66
649.642	8035.38
649.835	8117.29
650.027	7889.97
650.22	7988.27
650.413	8031.28
650.605	7879.73
650.798	7867.44
650.991	7810.1
651.183	7867.44
651.376	7629.88
651.568	7705.65
651.761	7562.3
651.954	7586.87
652.146	7734.32
652.339	7531.58
652.531	7560.25
652.724	7431.23
652.916	7255.1
653.109	7134.27
653.301	7334.97
653.494	7367.74
653.686	7308.35
653.879	7185.47
654.071	7308.35
654.263	7160.89
654.456	7111.74
654.648	7068.73
654.84	7042.11
655.033	6962.24
655.225	6816.83
655.417	6755.4
655.61	6808.64
655.802	6755.4
655.994	6743.11
656.186	6855.75
656.379	6810.69
656.571	6800.45
656.763	6503.5
656.955	6558.79
657.148	6620.23
657.34	6571.08
657.532	6442.06
657.724	6517.83
657.916	6376.52
658.108	6417.48
658.3	6532.17
658.492	6458.44
658.684	6276.17
658.876	6317.13
659.068	6206.54
659.26	6239.31
659.452	6284.36
659.644	6151.24
659.836	6018.13
660.028	6104.14
660.22	6024.27
660.412	5997.65
660.604	6171.72
660.796	5977.17
660.988	5993.55
661.18	5944.4
661.372	5901.39
661.563	6048.85
661.755	5676.12
661.947	5905.49
662.139	5907.54
662.331	5817.43
662.522	5569.62
662.714	5790.8
662.906	5569.62
663.097	5676.12
663.289	5676.12
663.481	5528.66
663.673	5522.52
663.864	5551.19
664.056	5426.26
664.247	5454.94
664.439	5362.78
664.631	5399.64
664.822	5354.58
665.014	5186.65
665.205	5491.8
665.397	5313.63
665.588	5370.97
665.78	5119.07
665.971	5180.51
666.163	5243.99
666.354	5233.75
666.546	5313.63
666.737	5170.27
666.929	5160.03
667.12	5190.75
667.311	5129.31
667.503	5112.92
667.694	5090.4
667.885	5059.68
668.077	4926.56
668.268	4885.6
668.459	4959.33
668.651	4990.05
668.842	4826.21
669.033	4836.45
669.224	4850.78
669.416	4932.7
669.607	4867.17
669.798	4947.04
669.989	4803.68
670.18	4910.18
670.371	4768.87
670.563	4654.18
670.754	4764.77
670.945	4777.06
671.136	4699.23
671.327	4545.64
671.518	4699.23
671.709	4605.03
671.9	4596.84
672.091	4656.23
672.282	4641.89
672.473	4508.77
672.664	4613.22
672.855	4760.67
673.046	4590.69
673.237	4504.68
673.428	4545.64
673.619	4533.35
673.809	4488.29
674	4590.69
674.191	4498.53
674.382	4428.9
674.573	4488.29
674.764	4510.82
674.954	4447.33
675.145	4527.21
675.336	4564.07
675.527	4355.18
675.717	4314.22
675.908	4445.29
676.099	4260.97
676.289	4269.16
676.48	4357.22
676.671	4312.17
676.861	4312.17
677.052	4172.91
677.243	4330.6
677.433	4451.43
677.624	4344.94
677.814	4275.31
678.005	4324.46
678.195	4201.58
678.386	4263.02
678.576	4123.76
678.767	4340.84
678.957	4299.88
679.148	4117.61
679.338	4236.39
679.529	4095.08
679.719	4197.48
679.909	4074.6
680.1	4179.05
680.29	4174.95
680.481	4088.94
680.671	4058.22
680.861	4140.14
681.052	4103.28
681.242	4136.04
681.432	4090.99
681.622	4097.13
681.813	4177
682.003	4115.56
682.193	3859.57
682.383	4224.11
682.573	4220.01
682.764	4107.37
682.954	4134
683.144	3992.69
683.334	4029.55
683.524	4050.03
683.714	4113.52
683.904	4039.79
684.094	3974.25
684.284	4097.13
684.474	4004.97
684.664	4158.57
684.854	3882.1
685.044	4000.88
685.234	3867.76
685.424	3884.14
685.614	3855.47
685.804	3972.21
685.994	3902.58
686.184	4035.69
686.374	3972.21
686.564	3880.05
686.753	3986.54
686.943	3839.09
687.133	3781.74
687.323	3759.22
687.513	3929.2
687.702	3714.16
687.892	3716.21
688.082	3585.14
688.272	3826.8
688.461	3699.83
688.651	3757.17
688.841	3685.49
689.03	3683.44
689.22	3628.15
689.41	3695.73
689.599	3648.63
689.789	3599.48
689.979	3570.8
690.168	3689.59
690.358	3513.46
690.547	3562.61
690.737	3550.32
690.926	3488.89
691.116	3472.5
691.305	3589.24
691.495	3550.32
691.684	3478.65
691.874	3521.65
692.063	3499.13
692.252	3437.69
692.442	3544.18
692.631	3452.02
692.82	3447.93
693.01	3370.1
693.199	3396.73
693.388	3437.69
693.578	3320.95
693.767	3318.9
693.956	3390.58
694.146	3359.86
694.335	3335.29
694.524	3546.23
694.713	3351.67
694.902	3261.56
695.092	3269.75
695.281	3415.16
695.47	3251.32
695.659	3298.42
695.848	3212.41
696.037	3165.31
696.226	3323
696.415	3200.12
696.604	3198.07
696.793	3222.65
696.982	3116.16
697.171	3282.04
697.36	3279.99
697.549	3153.02
697.738	3034.24
697.927	3118.2
698.116	3200.12
698.305	3073.15
698.494	3236.99
698.683	3064.96
698.872	3255.42
699.061	3128.44
699.25	3171.45
699.438	3046.52
699.627	3110.01
699.816	3097.72
700.005	3087.48
700.193	3179.64
700.382	3095.68
700.571	3062.91
700.76	3064.96
700.948	3093.63
701.137	3089.53
701.326	3103.87
701.514	3134.59
701.703	3132.54
701.892	3024
702.08	3138.68
702.269	3060.86
702.457	3099.77
702.646	3038.33
702.834	3060.86
703.023	3060.86
703.212	3142.78
703.4	3064.96
703.589	3105.92
703.777	3148.92
703.965	3003.52
704.154	3036.28
704.342	3011.71
704.531	3034.24
704.719	2980.99
704.907	3017.85
705.096	2978.94
705.284	3060.86
705.472	2972.8
705.661	3001.47
705.849	3026.04
706.037	2989.18
706.226	2960.51
706.414	3101.82
706.602	3093.63
706.79	2952.32
706.979	2946.17
707.167	3030.14
707.355	3019.9
707.543	2980.99
707.731	2991.23
707.919	2931.84
708.107	2909.31
708.296	2950.27
708.484	3007.61
708.672	2991.23
708.86	3009.66
709.048	2944.13
709.236	2897.02
709.424	2948.22
709.612	2880.64
709.8	2823.3
709.988	2958.46
710.176	2948.22
710.364	2954.37
710.551	2888.83
710.739	2972.8
710.927	2937.98
711.115	2888.83
711.303	2882.69
711.491	2925.69
711.679	2917.5
711.866	2911.36
712.054	3073.15
712.242	2868.35
712.43	2983.04
712.617	3017.85
712.805	2950.27
712.993	2929.79
713.181	2856.06
713.368	2931.84
713.556	2991.23
713.744	3042.43
713.931	3130.49
714.119	2935.93
714.306	2976.89
714.494	2800.77
714.682	2962.56
714.869	2778.24
715.057	2894.97
715.244	2849.92
715.432	2802.82
715.619	2884.73
715.807	2966.65
715.994	3001.47
716.182	2940.03
716.369	2974.85
716.556	2958.46
716.744	2927.74
716.931	2931.84
717.119	3015.8
717.306	2997.37
717.493	2923.65
717.681	2956.41
717.868	2811.01
718.055	2882.69
718.242	2954.37
718.43	2858.11
718.617	2960.51
718.804	2831.49
718.991	2876.54
719.179	2858.11
719.366	2823.3
719.553	2860.16
719.74	2942.08
719.927	3001.47
720.114	2983.04
720.301	2983.04
720.488	2804.86
720.676	2851.97
720.863	2964.61
721.05	2968.7
721.237	2956.41
721.424	2942.08
721.611	2886.78
721.798	2856.06
721.985	2933.89
722.172	2843.78
722.358	2774.14
722.545	2876.54
722.732	2808.96
722.919	2970.75
723.106	2849.92
723.293	2768
723.48	2921.6
723.667	2737.28
723.853	2921.6
724.04	2802.82
724.227	2827.39
724.414	2899.07
724.6	2903.17
724.787	2886.78
724.974	2864.25
725.161	2792.58
725.347	2798.72
725.534	2776.19
725.72	2843.78
725.907	2806.91
726.094	2882.69
726.28	2800.77
726.467	2784.38
726.653	2919.55
726.84	2794.62
727.027	2870.4
727.213	2880.64
727.4	2778.24
727.586	2745.47
727.773	2811.01
727.959	2915.45
728.145	2796.67
728.332	2753.66
728.518	2778.24
728.705	2677.89
728.891	2782.34
729.077	2727.04
729.264	2712.71
729.45	2716.8
729.636	2782.34
729.823	2589.83
730.009	2743.42
730.195	2743.42
730.382	2813.06
730.568	2819.2
730.754	2751.62
730.94	2768
731.126	2778.24
731.313	2753.66
731.499	2737.28
731.685	2731.14
731.871	2659.46
732.057	2724.99
732.243	2643.07
732.429	2770.05
732.615	2724.99
732.801	2659.46
732.987	2628.74
733.173	2778.24
733.359	2786.43
733.545	2675.84
733.731	2712.71
733.917	2649.22
734.103	2819.2
734.289	2718.85
734.475	2573.44
734.661	2800.77
734.847	2735.23
735.033	2598.02
735.219	2706.56
735.404	2669.7
735.59	2770.05
735.776	2765.95
735.962	2634.88
736.148	2657.41
736.333	2661.51
736.519	2686.08
736.705	2577.54
736.89	2630.79
737.076	2567.3
737.262	2544.77
737.447	2446.47
737.633	2645.12
737.819	2520.2
738.004	2589.83
738.19	2522.24
738.375	2555.01
738.561	2610.31
738.747	2602.11
738.932	2593.92
739.118	2456.71
739.303	2561.16
739.489	2550.92
739.674	2495.62
739.859	2444.42
740.045	2350.21
740.23	2528.39
740.416	2368.65
740.601	2585.73
740.786	2565.25
740.972	2425.99
741.157	2393.22
741.342	2456.71
741.528	2380.93
741.713	2544.77
741.898	2352.26
742.084	2501.76
742.269	2550.92
742.454	2403.46
742.639	2362.5
742.824	2264.2
743.01	2364.55
743.195	2385.03
743.38	2317.45
743.565	2489.48
743.75	2286.73
743.935	2251.91
744.12	2317.45
744.305	2301.06
744.49	2321.54
744.675	2180.23
744.86	2139.27
745.045	2288.78
745.23	2217.1
745.415	2221.19
745.6	2204.81
745.785	2190.47
745.97	2245.77
746.155	2163.85
746.34	2184.33
746.525	2059.4
746.71	2088.07
746.895	2075.79
747.079	2165.9
747.264	2176.14
747.449	2112.65
747.634	2163.85
747.819	2126.99
748.003	1977.48
748.188	1873.04
748.373	2006.16
748.557	2002.06
748.742	2000.01
748.927	1954.96
749.111	1932.43
749.296	1823.89
749.481	1934.48
749.665	1989.77
749.85	1946.76
750.034	1959.05
750.219	1909.9
750.404	1782.93
750.588	1799.31
750.773	1850.51
750.957	1877.13
751.141	1827.98
751.326	1809.55
751.51	1868.94
751.695	1836.17
751.879	1791.12
752.064	1782.93
752.248	1795.22
752.432	1766.54
752.617	1717.39
752.801	1764.5
752.985	1629.33
753.17	1580.18
753.354	1655.95
753.538	1664.15
753.722	1653.91
753.907	1725.58
754.091	1608.85
754.275	1631.38
754.459	1614.99
754.643	1631.38
754.828	1598.61
755.012	1496.21
755.196	1551.51
755.38	1467.54
755.564	1492.12
755.748	1514.64
755.932	1496.21
756.116	1414.29
756.3	1461.4
756.484	1494.16
756.668	1551.51
756.852	1408.15
757.036	1399.96
757.22	1361.05
757.404	1361.05
757.588	1336.47
757.772	1342.61
757.956	1455.25
758.14	1537.17
758.323	1326.23
758.507	1408.15
758.691	1328.28
758.875	1418.39
759.059	1410.2
759.242	1365.14
759.426	1299.61
759.61	1299.61
759.794	1195.16
759.977	1291.41
760.161	1283.22
760.345	1338.52
760.528	1324.18
760.712	1221.78
760.895	1275.03
761.079	1309.85
761.263	1213.59
761.446	1209.5
761.63	1201.3
761.813	1242.26
761.997	1143.96
762.18	1193.11
762.364	1168.54
762.547	1262.74
762.731	1189.02
762.914	1205.4
763.098	1225.88
763.281	1143.96
763.464	1059.99
763.648	1107.1
763.831	1189.02
764.015	1074.33
764.198	1197.21
764.381	1096.86
764.564	1107.1
764.748	1113.24
764.931	1109.15
765.114	1146.01
765.297	1051.8
765.481	1062.04
765.664	1082.52
765.847	1074.33
766.03	1053.85
766.213	1168.54
766.397	1080.47
766.58	1004.7
766.763	1115.29
766.946	1068.19
767.129	1107.1
767.312	1129.63
767.495	984.22
767.678	973.98
767.861	1021.08
768.044	1068.19
768.227	1021.08
768.41	900.25
768.593	1045.66
768.776	992.41
768.959	1045.66
769.142	1039.51
769.324	1002.65
769.507	992.41
769.69	935.07
769.873	918.68
770.056	996.51
770.239	924.83
770.421	945.31
770.604	992.41
770.787	902.3
770.97	963.74
771.152	912.54
771.335	951.45
771.518	910.49
771.7	963.74
771.883	920.73
772.066	894.11
772.248	939.16
772.431	828.57
772.613	885.92
772.796	820.38
772.978	863.39
773.161	863.39
773.343	910.49
773.526	818.33
773.708	773.28
773.891	855.2
774.073	722.08
774.256	799.9
774.438	881.82
774.621	804
774.803	818.33
774.985	873.63
775.168	785.57
775.35	744.61
775.532	842.91
775.715	804
775.897	785.57
776.079	773.28
776.261	689.31
776.444	713.89
776.626	685.22
776.808	799.9
776.99	695.46
777.173	730.27
777.355	726.18
777.537	773.28
777.719	662.69
777.901	728.22
778.083	670.88
778.265	664.74
778.447	668.83
778.629	724.13
778.811	724.13
778.993	744.61
779.175	744.61
779.357	640.16
779.539	652.45
779.721	689.31
779.903	724.13
780.085	617.63
780.267	634.02
780.449	672.93
780.631	672.93
780.812	644.26
780.994	683.17
781.176	580.77
781.358	607.39
781.54	613.54
781.721	541.86
781.903	634.02
782.085	582.82
782.267	656.54
782.448	681.12
782.63	517.28
782.812	611.49
782.993	517.28
783.175	568.48
783.357	593.06
783.538	576.67
783.72	603.3
783.901	576.67
784.083	588.96
784.264	591.01
784.446	476.32
784.627	509.09
784.809	558.24
784.99	486.56
785.172	527.52
785.353	580.77
785.535	482.47
785.716	451.75
785.897	523.43
786.079	451.75
786.26	482.47
786.441	490.66
786.623	459.94
786.804	406.69
786.985	445.6
787.167	439.46
787.348	492.71
787.529	435.36
787.71	556.19
787.891	478.37
788.073	525.47
788.254	363.69
788.435	513.19
788.616	408.74
788.797	398.5
788.978	392.36
789.159	433.32
789.34	480.42
789.522	373.92
789.703	437.41
789.884	398.5
790.065	406.69
790.246	369.83
790.427	386.21
790.607	412.84
790.788	470.18
790.969	378.02
791.15	398.5
791.331	332.97
791.512	351.4
791.693	349.35
791.874	355.49
792.054	378.02
792.235	451.75
792.416	351.4
792.597	361.64
792.778	353.45
792.958	343.21
793.139	326.82
793.32	304.29
793.5	304.29
793.681	359.59
793.862	357.54
794.042	335.01
794.223	365.73
794.404	326.82
794.584	312.49
794.765	226.47
794.945	310.44
795.126	382.12
795.306	386.21
795.487	373.92
795.667	314.53
795.848	222.38
796.028	332.97
796.209	310.44
796.389	273.57
796.57	283.81
796.75	261.29
796.93	332.97
797.111	259.24
797.291	345.25
797.471	345.25
797.652	306.34
797.832	269.48
798.012	294.05
798.192	246.95
798.373	201.9
798.553	275.62
798.733	312.49
798.913	328.87
799.093	310.44
799.274	337.06
799.454	251.05
799.634	267.43
799.814	322.73
799.994	287.91
800.174	304.29
800.354	294.05
800.534	201.9
800.714	222.38
800.894	230.57
801.074	220.33
801.254	246.95
801.434	269.48
801.614	289.96
801.794	275.62
801.974	736.42
802.154	302.25
802.334	185.51
802.514	220.33
802.693	277.67
802.873	271.53
803.053	289.96
803.233	193.7
803.413	341.16
803.592	189.61
803.772	117.93
803.952	253.09
804.131	230.57
804.311	267.43
804.491	302.25
804.67	255.14
804.85	234.66
805.03	214.18
805.209	267.43
805.389	212.14
805.568	169.13
805.748	189.61
805.928	271.53
806.107	244.9
806.287	294.05
806.466	240.81
806.646	240.81
806.825	191.66
807.004	339.11
807.184	216.23
807.363	179.37
807.543	136.36
807.722	218.28
807.901	236.71
808.081	310.44
808.26	165.03
808.439	289.96
808.619	203.94
808.798	218.28
808.977	287.91
809.156	144.55
809.336	165.03
809.515	218.28
809.694	162.98
809.873	218.28
810.052	185.51
810.231	236.71
810.411	208.04
810.59	267.43
810.769	138.41
810.948	322.73
811.127	148.65
811.306	185.51
811.485	148.65
811.664	271.53
811.843	181.42
812.022	72.87
812.201	259.24
812.38	154.79
812.559	171.18
812.737	130.22
812.916	191.66
813.095	210.09
813.274	197.8
813.453	167.08
813.632	99.5
813.811	255.14
813.989	222.38
814.168	224.42
814.347	148.65
814.526	175.27
814.704	224.42
814.883	134.31
815.062	113.83
815.24	195.75
815.419	109.74
815.598	146.6
815.776	177.32
815.955	128.17
816.133	132.26
816.312	154.79
816.49	146.6
816.669	89.26
816.847	183.46
817.026	105.64
817.204	111.78
817.383	99.5
817.561	136.36
817.74	156.84
817.918	138.41
818.097	169.13
818.275	40.11
818.453	156.84
818.632	173.22
818.81	210.09
818.988	95.4
819.167	89.26
819.345	144.55
819.523	91.31
819.701	171.18
819.879	126.12
820.058	171.18
820.236	72.87
820.414	111.78
820.592	91.31
820.77	142.5
820.948	115.88
821.127	101.55
821.305	91.31
821.483	115.88
821.661	138.41
821.839	93.35
822.017	99.5
822.195	115.88
822.373	158.89
822.551	162.98
822.729	158.89
822.907	132.26
823.085	97.45
823.262	220.33
823.44	128.17
823.618	140.46
823.796	99.5
823.974	107.69
824.152	89.26
824.329	89.26
824.507	134.31
824.685	119.98
824.863	64.68
825.04	169.13
825.218	79.02
825.396	68.78
825.574	105.64
825.751	95.4
825.929	99.5
826.107	91.31
826.284	158.89
826.462	91.31
826.639	89.26
826.817	64.68
826.994	158.89
827.172	50.35
827.349	105.64
827.527	124.07
827.704	140.46
827.882	111.78
828.059	58.54
828.237	107.69
828.414	148.65
828.591	17.58
828.769	97.45
828.946	64.68
829.124	146.6
829.301	115.88
829.478	62.63
829.655	115.88
829.833	115.88
830.01	115.88
830.187	97.45
830.364	128.17
830.542	50.35
830.719	148.65
830.896	87.21
831.073	119.98
831.25	60.59
831.427	66.73
831.604	130.22
831.782	156.84
831.959	68.78
832.136	124.07
832.313	107.69
832.49	-19.29
832.667	79.02
832.844	79.02
833.021	115.88
833.198	-7
833.374	56.49
833.551	54.44
833.728	91.31
833.905	111.78
834.082	66.73
834.259	13.48
834.436	177.32
834.612	56.49
834.789	107.69
834.966	58.54
835.143	122.02
835.319	62.63
835.496	105.64
835.673	91.31
835.85	42.15
836.026	64.68
836.203	13.48
836.38	103.59
836.556	105.64
836.733	56.49
836.909	97.45
837.086	44.2
837.262	58.54
837.439	58.54
837.616	54.44
837.792	25.77
837.968	70.83
838.145	25.77
838.321	74.92
838.498	74.92
838.674	40.11
838.851	93.35
839.027	52.39
839.203	122.02
839.38	81.07
839.556	42.15
839.732	132.26
839.909	66.73
840.085	52.39
840.261	40.11
840.437	38.06
840.614	115.88
840.79	148.65
840.966	99.5
841.142	109.74
841.318	48.3
841.494	107.69
841.671	81.07
841.847	50.35
842.023	36.01
842.199	97.45
842.375	105.64
842.551	-41.81
842.727	58.54
842.903	119.98
843.079	74.92
843.255	107.69
843.431	15.53
843.607	44.2
843.783	58.54
843.959	99.5
844.134	74.92
844.31	76.97
844.486	124.07
844.662	1.19
844.838	89.26
845.013	74.92
845.189	138.41
845.365	21.67
845.541	13.48
845.716	119.98
845.892	48.3
846.068	42.15
846.244	76.97
846.419	56.49
846.595	79.02
846.77	72.87
846.946	146.6
847.122	107.69
847.297	-11.09
847.473	97.45
847.648	31.91
847.824	54.44
847.999	23.72
848.175	25.77
848.35	79.02
848.526	56.49
848.701	62.63
848.876	117.93
849.052	50.35
849.227	99.5
849.403	17.58
849.578	38.06
849.753	46.25
849.929	54.44
850.104	36.01
850.279	-23.38
850.454	56.49
850.63	79.02
850.805	52.39
850.98	44.2
851.155	48.3
851.33	117.93
851.505	1.19
851.681	107.69
851.856	7.34
852.031	79.02
852.206	91.31
852.381	36.01
852.556	103.59
852.731	62.63
852.906	1.19
853.081	99.5
853.256	58.54
853.431	64.68
853.606	13.48
853.781	44.2
853.956	31.91
854.131	76.97
854.305	60.59
854.48	36.01
854.655	76.97
854.83	46.25
855.005	-29.52
855.18	62.63
855.354	115.88
855.529	31.91
855.704	40.11
855.879	52.39
856.053	-25.43
856.228	29.87
856.403	-35.67
856.577	76.97
856.752	42.15
856.926	13.48
857.101	76.97
857.276	103.59
857.45	29.87
857.625	54.44
857.799	105.64
857.974	85.16
858.148	68.78
858.323	70.83
858.497	40.11
858.672	29.87
858.846	-47.96
859.02	97.45
859.195	-13.14
859.369	1.19
859.543	33.96
859.718	33.96
859.892	-9.05
860.066	29.87
860.241	62.63
860.415	46.25
860.589	31.91
860.763	81.07
860.938	44.2
861.112	91.31
861.286	36.01
861.46	66.73
861.634	31.91
861.808	99.5
861.982	-9.05
862.157	40.11
862.331	-7
862.505	-17.24
862.679	101.55
862.853	31.91
863.027	60.59
863.201	44.2
863.375	-9.05
863.549	74.92
863.722	70.83
863.896	-13.14
864.07	-21.33
864.244	-60.24
864.418	38.06
864.592	72.87
864.766	-27.48
864.939	40.11
865.113	-13.14
865.287	21.67
865.461	7.34
865.634	31.91
865.808	60.59
865.982	29.87
866.156	9.39
866.329	66.73
866.503	13.48
866.676	66.73
866.85	15.53
867.024	17.58
867.197	7.34
867.371	5.29
867.544	83.11
867.718	19.63
867.891	74.92
868.065	27.82
868.238	33.96
868.412	48.3
868.585	17.58
868.759	-15.19
868.932	23.72
869.105	-39.76
869.279	15.53
869.452	-27.48
869.625	-13.14
869.799	29.87
869.972	-37.72
870.145	17.58
870.319	46.25
870.492	42.15
870.665	33.96
870.838	-0.85
871.011	5.29
871.185	21.67
871.358	11.43
871.531	74.92
871.704	-33.62
871.877	21.67
872.05	-21.33
872.223	-21.33
872.396	9.39
872.569	79.02
872.742	-2.9
872.915	36.01
873.088	-25.43
873.261	17.58
873.434	-9.05
873.607	42.15
873.78	113.83
873.953	42.15
874.126	76.97
874.299	40.11
874.471	85.16
874.644	5.29
874.817	70.83
874.99	54.44
875.163	1.19
875.335	-35.67
875.508	50.35
875.681	25.77
875.853	36.01
876.026	17.58
876.199	79.02
876.371	-25.43
876.544	19.63
876.717	48.3
876.889	81.07
877.062	27.82
877.234	-88.92
877.407	23.72
877.579	-39.76
877.752	-19.29
877.924	81.07
878.097	7.34
878.269	21.67
878.442	15.53
878.614	-2.9
878.786	119.98
878.959	7.34
879.131	-97.11
879.303	-13.14
879.476	3.24
879.648	-37.72
879.82	3.24
879.993	-31.57
880.165	-9.05
880.337	-19.29
880.509	-13.14
880.681	-33.62
880.854	31.91
881.026	9.39
881.198	76.97
881.37	111.78
881.542	-23.38
881.714	42.15
881.886	-56.15
882.058	46.25
882.23	-23.38
882.402	9.39
882.574	68.78
882.746	13.48
882.918	83.11
883.09	64.68
883.262	21.67
883.434	9.39
883.606	-47.96
883.778	58.54
883.95	107.69
884.122	15.53
884.293	38.06
884.465	-33.62
884.637	38.06
884.809	-35.67
884.98	11.43
885.152	21.67
885.324	1.19
885.496	9.39
885.667	-13.14
885.839	-35.67
886.011	44.2
886.182	-11.09
886.354	33.96
886.525	33.96
886.697	1.19
886.869	-15.19
887.04	36.01
887.212	81.07
887.383	79.02
887.555	56.49
887.726	-43.86
887.897	-88.92
888.069	68.78
888.24	64.68
888.412	-25.43
888.583	23.72
888.754	81.07
888.926	-9.05
889.097	13.48
889.268	-68.44
889.44	93.35
889.611	-25.43
889.782	25.77
889.953	-13.14
890.125	-2.9
890.296	13.48
890.467	42.15
890.638	23.72
890.809	79.02
890.98	44.2
891.151	-45.91
891.323	42.15
891.494	72.87
891.665	-50
891.836	66.73
892.007	-23.38
892.178	72.87
892.349	-17.24
892.52	-29.52
892.691	-9.05
892.862	27.82
893.032	25.77
893.203	-37.72
893.374	25.77
893.545	93.35
893.716	27.82
893.887	79.02
894.057	-72.53
894.228	17.58
894.399	-19.29
894.57	70.83
894.74	52.39
894.911	9.39
895.082	21.67
895.253	3.24
895.423	11.43
895.594	74.92
895.764	5.29
895.935	-0.85
896.106	83.11
896.276	-7
896.447	-33.62
896.617	-13.14
896.788	-2.9
896.958	-11.09
897.129	-11.09
897.299	7.34
897.47	58.54
897.64	38.06
897.81	-15.19
897.981	21.67
898.151	9.39
898.322	21.67
898.492	-2.9
898.662	62.63
898.832	23.72
899.003	17.58
899.173	-11.09
899.343	23.72
899.513	-2.9
