Data from USB4F104151__61__10-23-57-763.txt Node

Date: Wed Mar 12 10:23:57 EDT 2025
User: louis
Spectrometer: USB4F10415
Trigger mode: 4
Integration Time (sec): 3.000000E-2
Scans to average: 1
Electric dark correction enabled: true
Nonlinearity correction enabled: false
Boxcar width: 0
XAxis mode: Wavelengths
Number of Pixels in Spectrum: 3648
>>>>>Begin Spectral Data<<<<<
178.204	-167.42
178.424	-167.42
178.644	-167.42
178.864	-93.69
179.084	-116.22
179.304	-36.35
179.524	20.99
179.744	31.23
179.964	6.66
180.184	-44.54
180.404	-62.98
180.624	-46.59
180.844	8.7
181.064	-28.16
181.283	55.81
181.503	23.04
181.723	72.19
181.943	-24.06
182.163	33.28
182.383	51.71
182.602	12.8
182.822	45.57
183.042	35.33
183.262	66.05
183.482	72.19
183.701	2.56
183.921	20.99
184.141	6.66
184.361	70.14
184.58	94.72
184.8	37.38
185.02	-3.58
185.239	23.04
185.459	53.76
185.679	20.99
185.898	0.51
186.118	-24.06
186.338	18.94
186.557	14.85
186.777	-30.21
186.997	-40.45
187.216	25.09
187.436	76.29
187.655	49.66
187.875	39.42
188.095	-9.73
188.314	70.14
188.534	25.09
188.753	35.33
188.973	68.09
189.192	18.94
189.412	33.28
189.631	129.53
189.851	18.94
190.07	94.72
190.29	-9.73
190.509	-3.58
190.729	49.66
190.948	39.42
191.168	20.99
191.387	92.67
191.607	66.05
191.826	8.7
192.045	18.94
192.265	72.19
192.484	-5.63
192.704	47.62
192.923	-58.88
193.142	98.81
193.362	25.09
193.581	156.16
193.8	86.53
194.02	12.8
194.239	123.39
194.458	12.8
194.678	61.95
194.897	4.61
195.116	76.29
195.335	86.53
195.555	92.67
195.774	59.9
195.993	104.96
196.212	45.57
196.432	20.99
196.651	20.99
196.87	2.56
197.089	51.71
197.308	59.9
197.528	37.38
197.747	20.99
197.966	-1.54
198.185	53.76
198.404	74.24
198.623	82.43
198.842	61.95
199.062	49.66
199.281	37.38
199.5	37.38
199.719	94.72
199.938	16.9
200.157	113.15
200.376	27.14
200.595	100.86
200.814	86.53
201.033	66.05
201.252	84.48
201.471	-26.11
201.69	18.94
201.909	-32.26
202.128	55.81
202.347	47.62
202.566	29.18
202.785	10.75
203.004	-40.45
203.223	143.87
203.442	2.56
203.661	2.56
203.879	-28.16
204.098	35.33
204.317	-30.21
204.536	53.76
204.755	78.33
204.974	55.81
205.193	35.33
205.411	49.66
205.63	20.99
205.849	78.33
206.068	47.62
206.287	61.95
206.505	55.81
206.724	-118.27
206.943	0.51
207.162	66.05
207.381	37.38
207.599	-22.02
207.818	43.52
208.037	33.28
208.255	78.33
208.474	4.61
208.693	-3.58
208.911	88.57
209.13	-44.54
209.349	53.76
209.567	94.72
209.786	53.76
210.005	25.09
210.223	86.53
210.442	-30.21
210.661	-22.02
210.879	2.56
211.098	51.71
211.316	8.7
211.535	61.95
211.753	31.23
211.972	41.47
212.191	64
212.409	25.09
212.628	70.14
212.846	-50.69
213.065	49.66
213.283	111.1
213.502	10.75
213.72	-32.26
213.938	-3.58
214.157	55.81
214.375	-5.63
214.594	51.71
214.812	27.14
215.031	84.48
215.249	90.62
215.467	92.67
215.686	25.09
215.904	80.38
216.122	-3.58
216.341	18.94
216.559	27.14
216.778	6.66
216.996	20.99
217.214	12.8
217.432	66.05
217.651	14.85
217.869	16.9
218.087	109.05
218.306	0.51
218.524	86.53
218.742	14.85
218.96	86.53
219.179	84.48
219.397	10.75
219.615	20.99
219.833	37.38
220.051	25.09
220.27	53.76
220.488	72.19
220.706	33.28
220.924	25.09
221.142	4.61
221.36	10.75
221.578	66.05
221.796	25.09
222.015	-11.78
222.233	37.38
222.451	27.14
222.669	14.85
222.887	-15.87
223.105	0.51
223.323	61.95
223.541	64
223.759	39.42
223.977	12.8
224.195	90.62
224.413	55.81
224.631	51.71
224.849	23.04
225.067	86.53
225.285	0.51
225.503	-38.4
225.721	8.7
225.939	-1.54
226.157	4.61
226.375	117.25
226.592	37.38
226.81	53.76
227.028	45.57
227.246	20.99
227.464	74.24
227.682	37.38
227.9	10.75
228.117	12.8
228.335	51.71
228.553	12.8
228.771	-1.54
228.989	61.95
229.206	33.28
229.424	-32.26
229.642	68.09
229.86	-15.87
230.077	82.43
230.295	59.9
230.513	68.09
230.731	-1.54
230.948	78.33
231.166	92.67
231.384	-11.78
231.601	66.05
231.819	66.05
232.037	23.04
232.254	14.85
232.472	59.9
232.689	10.75
232.907	82.43
233.125	92.67
233.342	4.61
233.56	-3.58
233.777	8.7
233.995	-22.02
234.213	82.43
234.43	61.95
234.648	20.99
234.865	51.71
235.083	51.71
235.3	-9.73
235.518	23.04
235.735	64
235.953	70.14
236.17	20.99
236.388	49.66
236.605	25.09
236.822	78.33
237.04	-1.54
237.257	8.7
237.475	23.04
237.692	-7.68
237.909	6.66
238.127	-24.06
238.344	102.91
238.562	90.62
238.779	16.9
238.996	37.38
239.214	4.61
239.431	23.04
239.648	16.9
239.865	84.48
240.083	61.95
240.3	35.33
240.517	27.14
240.735	-3.58
240.952	59.9
241.169	78.33
241.386	25.09
241.603	111.1
241.821	-3.58
242.038	92.67
242.255	94.72
242.472	27.14
242.689	47.62
242.907	16.9
243.124	-5.63
243.341	135.68
243.558	-22.02
243.775	-44.54
243.992	68.09
244.209	37.38
244.426	94.72
244.643	-38.4
244.86	20.99
245.078	-5.63
245.295	59.9
245.512	51.71
245.729	-24.06
245.946	53.76
246.163	-24.06
246.38	33.28
246.597	20.99
246.814	41.47
247.031	10.75
247.248	4.61
247.464	39.42
247.681	20.99
247.898	31.23
248.115	109.05
248.332	16.9
248.549	43.52
248.766	68.09
248.983	61.95
249.2	53.76
249.417	-3.58
249.633	-34.3
249.85	61.95
250.067	70.14
250.284	0.51
250.501	-13.82
250.717	68.09
250.934	59.9
251.151	29.18
251.368	10.75
251.585	43.52
251.801	51.71
252.018	51.71
252.235	88.57
252.451	45.57
252.668	0.51
252.885	61.95
253.102	88.57
253.318	-3.58
253.535	-15.87
253.752	-5.63
253.968	39.42
254.185	6.66
254.401	49.66
254.618	68.09
254.835	61.95
255.051	8.7
255.268	2.56
255.484	55.81
255.701	-15.87
255.917	66.05
256.134	16.9
256.351	49.66
256.567	-1.54
256.784	27.14
257	66.05
257.217	55.81
257.433	55.81
257.65	-85.5
257.866	53.76
258.082	66.05
258.299	0.51
258.515	16.9
258.732	20.99
258.948	78.33
259.165	33.28
259.381	6.66
259.597	82.43
259.814	53.76
260.03	45.57
260.246	29.18
260.463	16.9
260.679	39.42
260.895	76.29
261.112	64
261.328	55.81
261.544	8.7
261.761	78.33
261.977	2.56
262.193	45.57
262.409	18.94
262.626	94.72
262.842	-11.78
263.058	0.51
263.274	-13.82
263.49	90.62
263.707	74.24
263.923	70.14
264.139	-26.11
264.355	-7.68
264.571	70.14
264.787	45.57
265.004	61.95
265.22	33.28
265.436	-3.58
265.652	76.29
265.868	37.38
266.084	-11.78
266.3	-9.73
266.516	4.61
266.732	29.18
266.948	27.14
267.164	29.18
267.38	29.18
267.596	-19.97
267.812	76.29
268.028	6.66
268.244	86.53
268.46	0.51
268.676	53.76
268.892	10.75
269.108	49.66
269.324	18.94
269.54	-22.02
269.756	59.9
269.972	20.99
270.188	27.14
270.403	0.51
270.619	16.9
270.835	12.8
271.051	27.14
271.267	57.86
271.483	20.99
271.698	109.05
271.914	43.52
272.13	25.09
272.346	61.95
272.562	59.9
272.777	20.99
272.993	35.33
273.209	27.14
273.425	82.43
273.64	41.47
273.856	8.7
274.072	55.81
274.287	2.56
274.503	78.33
274.719	-15.87
274.934	10.75
275.15	66.05
275.366	78.33
275.581	-30.21
275.797	2.56
276.012	-13.82
276.228	-15.87
276.444	16.9
276.659	39.42
276.875	33.28
277.09	45.57
277.306	82.43
277.521	-1.54
277.737	-22.02
277.952	68.09
278.168	23.04
278.383	82.43
278.599	78.33
278.814	-30.21
279.03	-11.78
279.245	86.53
279.461	55.81
279.676	8.7
279.892	-5.63
280.107	0.51
280.322	27.14
280.538	20.99
280.753	-44.54
280.969	39.42
281.184	35.33
281.399	37.38
281.615	-17.92
281.83	35.33
282.045	66.05
282.26	-24.06
282.476	86.53
282.691	18.94
282.906	80.38
283.122	66.05
283.337	37.38
283.552	51.71
283.767	27.14
283.983	49.66
284.198	68.09
284.413	27.14
284.628	-75.26
284.843	29.18
285.058	90.62
285.274	37.38
285.489	37.38
285.704	-22.02
285.919	53.76
286.134	35.33
286.349	-11.78
286.564	12.8
286.779	2.56
286.995	47.62
287.21	-9.73
287.425	4.61
287.64	31.23
287.855	51.71
288.07	49.66
288.285	43.52
288.5	57.86
288.715	78.33
288.93	-3.58
289.145	37.38
289.36	59.9
289.575	59.9
289.79	98.81
290.004	51.71
290.219	76.29
290.434	23.04
290.649	53.76
290.864	78.33
291.079	-13.82
291.294	43.52
291.509	74.24
291.724	78.33
291.938	2.56
292.153	66.05
292.368	4.61
292.583	12.8
292.798	59.9
293.012	74.24
293.227	-7.68
293.442	64
293.657	55.81
293.871	23.04
294.086	-7.68
294.301	90.62
294.516	72.19
294.73	66.05
294.945	59.9
295.16	64
295.374	61.95
295.589	59.9
295.804	45.57
296.018	-42.5
296.233	98.81
296.447	76.29
296.662	2.56
296.877	0.51
297.091	68.09
297.306	37.38
297.52	98.81
297.735	66.05
297.949	29.18
298.164	55.81
298.378	53.76
298.593	43.52
298.807	70.14
299.022	2.56
299.236	86.53
299.451	0.51
299.665	53.76
299.88	4.61
300.094	16.9
300.309	29.18
300.523	59.9
300.737	-30.21
300.952	41.47
301.166	94.72
301.381	-69.12
301.595	47.62
301.809	-30.21
302.024	35.33
302.238	-15.87
302.452	51.71
302.667	41.47
302.881	53.76
303.095	121.34
303.309	70.14
303.524	49.66
303.738	-7.68
303.952	-50.69
304.166	98.81
304.381	-15.87
304.595	150.01
304.809	29.18
305.023	53.76
305.237	59.9
305.452	66.05
305.666	2.56
305.88	113.15
306.094	27.14
306.308	92.67
306.522	33.28
306.736	18.94
306.95	47.62
307.164	-30.21
307.379	-54.78
307.593	53.76
307.807	66.05
308.021	90.62
308.235	18.94
308.449	-1.54
308.663	29.18
308.877	12.8
309.091	-58.88
309.305	2.56
309.519	-11.78
309.733	4.61
309.947	41.47
310.161	55.81
310.374	37.38
310.588	88.57
310.802	10.75
311.016	18.94
311.23	12.8
311.444	-22.02
311.658	61.95
311.872	12.8
312.085	74.24
312.299	35.33
312.513	29.18
312.727	25.09
312.941	31.23
313.154	12.8
313.368	6.66
313.582	47.62
313.796	33.28
314.009	49.66
314.223	102.91
314.437	76.29
314.651	27.14
314.864	53.76
315.078	37.38
315.292	31.23
315.505	33.28
315.719	51.71
315.933	29.18
316.146	80.38
316.36	-19.97
316.573	90.62
316.787	8.7
317.001	23.04
317.214	23.04
317.428	-7.68
317.641	33.28
317.855	66.05
318.068	20.99
318.282	51.71
318.495	102.91
318.709	119.29
318.922	-52.74
319.136	61.95
319.349	18.94
319.563	-15.87
319.776	2.56
319.99	-9.73
320.203	66.05
320.417	39.42
320.63	90.62
320.843	29.18
321.057	29.18
321.27	84.48
321.483	16.9
321.697	78.33
321.91	115.2
322.124	100.86
322.337	59.9
322.55	-24.06
322.763	133.63
322.977	51.71
323.19	-19.97
323.403	66.05
323.617	25.09
323.83	59.9
324.043	43.52
324.256	61.95
324.469	14.85
324.683	57.86
324.896	-5.63
325.109	59.9
325.322	23.04
325.535	-28.16
325.748	-24.06
325.962	20.99
326.175	-24.06
326.388	49.66
326.601	49.66
326.814	70.14
327.027	12.8
327.24	33.28
327.453	-32.26
327.666	94.72
327.879	23.04
328.092	10.75
328.305	8.7
328.518	-11.78
328.731	113.15
328.944	29.18
329.157	53.76
329.37	-13.82
329.583	37.38
329.796	94.72
330.009	-36.35
330.222	68.09
330.435	94.72
330.648	33.28
330.861	41.47
331.073	55.81
331.286	76.29
331.499	78.33
331.712	-11.78
331.925	49.66
332.138	68.09
332.35	90.62
332.563	20.99
332.776	86.53
332.989	51.71
333.202	27.14
333.414	39.42
333.627	31.23
333.84	-28.16
334.053	72.19
334.265	-28.16
334.478	78.33
334.691	10.75
334.903	86.53
335.116	61.95
335.329	47.62
335.541	45.57
335.754	72.19
335.966	61.95
336.179	6.66
336.392	-30.21
336.604	8.7
336.817	113.15
337.029	12.8
337.242	68.09
337.454	88.57
337.667	68.09
337.88	127.49
338.092	55.81
338.305	49.66
338.517	18.94
338.729	43.52
338.942	139.77
339.154	-13.82
339.367	29.18
339.579	104.96
339.792	-26.11
340.004	20.99
340.217	90.62
340.429	6.66
340.641	37.38
340.854	10.75
341.066	8.7
341.278	127.49
341.491	125.44
341.703	-1.54
341.915	-11.78
342.128	41.47
342.34	-24.06
342.552	94.72
342.764	86.53
342.977	12.8
343.189	64
343.401	78.33
343.613	-15.87
343.826	-32.26
344.038	111.1
344.25	49.66
344.462	37.38
344.674	51.71
344.886	53.76
345.099	-32.26
345.311	-13.82
345.523	29.18
345.735	-71.17
345.947	76.29
346.159	14.85
346.371	84.48
346.583	-3.58
346.795	64
347.007	-11.78
347.219	23.04
347.431	29.18
347.643	96.77
347.855	0.51
348.067	27.14
348.279	-30.21
348.491	72.19
348.703	53.76
348.915	27.14
349.127	43.52
349.339	12.8
349.551	45.57
349.763	111.1
349.975	74.24
350.187	20.99
350.399	45.57
350.61	27.14
350.822	29.18
351.034	41.47
351.246	53.76
351.458	82.43
351.669	6.66
351.881	92.67
352.093	51.71
352.305	29.18
352.517	4.61
352.728	82.43
352.94	59.9
353.152	12.8
353.363	61.95
353.575	31.23
353.787	37.38
353.999	33.28
354.21	70.14
354.422	4.61
354.633	37.38
354.845	37.38
355.057	20.99
355.268	-17.92
355.48	70.14
355.692	78.33
355.903	18.94
356.115	-3.58
356.326	4.61
356.538	115.2
356.749	57.86
356.961	90.62
357.172	53.76
357.384	61.95
357.595	178.69
357.807	27.14
358.018	-1.54
358.23	14.85
358.441	76.29
358.653	88.57
358.864	18.94
359.075	-11.78
359.287	-19.97
359.498	53.76
359.709	100.86
359.921	59.9
360.132	39.42
360.344	92.67
360.555	-15.87
360.766	107.01
360.977	37.38
361.189	125.44
361.4	0.51
361.611	37.38
361.823	18.94
362.034	51.71
362.245	53.76
362.456	59.9
362.667	125.44
362.879	94.72
363.09	84.48
363.301	88.57
363.512	47.62
363.723	37.38
363.935	-22.02
364.146	57.86
364.357	47.62
364.568	86.53
364.779	43.52
364.99	37.38
365.201	25.09
365.412	47.62
365.623	61.95
365.834	53.76
366.045	72.19
366.256	23.04
366.467	70.14
366.678	68.09
366.889	68.09
367.1	64
367.311	102.91
367.522	41.47
367.733	29.18
367.944	102.91
368.155	59.9
368.366	-24.06
368.577	92.67
368.788	66.05
368.999	37.38
369.209	76.29
369.42	139.77
369.631	61.95
369.842	49.66
370.053	39.42
370.264	78.33
370.474	-1.54
370.685	61.95
370.896	76.29
371.107	59.9
371.317	43.52
371.528	29.18
371.739	135.68
371.95	88.57
372.16	20.99
372.371	74.24
372.582	0.51
372.792	78.33
373.003	2.56
373.214	61.95
373.424	76.29
373.635	-5.63
373.846	78.33
374.056	10.75
374.267	4.61
374.477	90.62
374.688	4.61
374.898	78.33
375.109	94.72
375.319	59.9
375.53	12.8
375.74	59.9
375.951	14.85
376.161	107.01
376.372	147.97
376.582	100.86
376.793	45.57
377.003	72.19
377.214	111.1
377.424	37.38
377.635	68.09
377.845	4.61
378.055	88.57
378.266	14.85
378.476	64
378.686	88.57
378.897	139.77
379.107	80.38
379.317	55.81
379.528	80.38
379.738	16.9
379.948	98.81
380.158	-1.54
380.369	33.28
380.579	59.9
380.789	53.76
380.999	61.95
381.21	43.52
381.42	158.21
381.63	-69.12
381.84	86.53
382.05	53.76
382.261	74.24
382.471	66.05
382.681	-26.11
382.891	78.33
383.101	66.05
383.311	-50.69
383.521	12.8
383.731	72.19
383.941	57.86
384.151	41.47
384.361	27.14
384.571	37.38
384.781	39.42
384.991	100.86
385.201	66.05
385.411	88.57
385.621	31.23
385.831	84.48
386.041	94.72
386.251	100.86
386.461	174.59
386.671	-15.87
386.881	51.71
387.091	82.43
387.301	51.71
387.511	127.49
387.72	117.25
387.93	64
388.14	53.76
388.35	51.71
388.56	117.25
388.769	66.05
388.979	68.09
389.189	33.28
389.399	12.8
389.609	74.24
389.818	123.39
390.028	113.15
390.238	78.33
390.447	107.01
390.657	53.76
390.867	14.85
391.076	8.7
391.286	70.14
391.496	111.1
391.705	47.62
391.915	96.77
392.125	94.72
392.334	102.91
392.544	82.43
392.753	8.7
392.963	12.8
393.172	102.91
393.382	-1.54
393.591	90.62
393.801	70.14
394.01	152.06
394.22	117.25
394.429	115.2
394.639	111.1
394.848	125.44
395.058	143.87
395.267	86.53
395.477	152.06
395.686	45.57
395.895	100.86
396.105	80.38
396.314	143.87
396.524	94.72
396.733	123.39
396.942	70.14
397.152	188.93
397.361	102.91
397.57	111.1
397.78	164.35
397.989	117.25
398.198	172.54
398.407	127.49
398.617	88.57
398.826	37.38
399.035	37.38
399.244	127.49
399.453	150.01
399.663	82.43
399.872	86.53
400.081	168.45
400.29	59.9
400.499	102.91
400.708	104.96
400.917	111.1
401.127	92.67
401.336	90.62
401.545	180.73
401.754	94.72
401.963	147.97
402.172	178.69
402.381	109.05
402.59	193.02
402.799	82.43
403.008	152.06
403.217	166.4
403.426	107.01
403.635	111.1
403.844	168.45
404.053	135.68
404.262	8.7
404.471	143.87
404.68	184.83
404.888	145.92
405.097	100.86
405.306	178.69
405.515	135.68
405.724	184.83
405.933	246.27
406.142	180.73
406.35	225.79
406.559	131.58
406.768	143.87
406.977	301.56
407.185	176.64
407.394	143.87
407.603	209.4
407.812	231.93
408.02	207.36
408.229	188.93
408.438	295.42
408.646	176.64
408.855	283.13
409.064	258.56
409.272	279.04
409.481	246.27
409.69	305.66
409.898	266.75
410.107	352.76
410.315	252.41
410.524	295.42
410.733	311.8
410.941	330.23
411.15	354.81
411.358	412.15
411.567	473.59
411.775	446.97
411.984	465.4
412.192	467.45
412.401	379.39
412.609	514.55
412.818	455.16
413.026	541.18
413.234	549.37
413.443	502.26
413.651	610.81
413.86	559.61
414.068	612.85
414.276	727.54
414.485	662.01
414.693	690.68
414.901	756.21
415.11	756.21
415.318	729.59
415.526	717.3
415.734	815.6
415.943	817.65
416.151	913.91
416.359	870.9
416.567	840.18
416.776	1004.02
416.984	905.71
417.192	1036.78
417.4	995.82
417.608	1026.54
417.817	1059.31
418.025	1110.51
418.233	1149.42
418.441	1208.81
418.649	1210.86
418.857	1294.83
419.065	1331.69
419.273	1354.22
419.481	1378.79
419.689	1464.81
419.897	1481.19
420.105	1532.39
420.313	1630.7
420.521	1622.5
420.729	1675.75
420.937	1698.28
421.145	1878.5
421.353	1851.88
421.561	1868.26
421.769	1901.03
421.977	2136.54
422.185	2036.19
422.393	2200.03
422.601	2273.76
422.809	2265.57
423.017	2281.95
423.224	2331.1
423.432	2562.52
423.64	2562.52
423.848	2793.94
424.056	2705.88
424.263	2929.11
424.471	2912.72
424.679	2998.74
424.887	3056.08
425.094	3174.86
425.302	3205.58
425.51	3256.78
425.718	3367.37
425.925	3342.8
426.133	3527.11
426.341	3940.8
426.548	3834.31
426.756	3922.37
426.964	3920.32
427.171	4204.99
427.379	4344.25
427.586	4467.13
427.794	4549.05
428.001	4714.94
428.209	4989.36
428.417	4852.15
428.624	5312.94
428.832	5128.63
429.039	5192.11
429.247	5353.9
429.454	5738.92
429.662	6072.74
429.869	5527.98
430.076	6117.79
430.284	5816.74
430.491	6199.71
430.699	6500.76
430.906	6388.13
431.114	6646.17
431.321	6939.03
431.528	6961.56
431.736	7293.33
431.943	7463.31
432.15	7596.43
432.358	7631.24
432.565	8001.93
432.772	7840.14
432.979	8331.65
433.187	8796.54
433.394	8548.73
433.601	9003.38
433.808	9210.23
434.016	8886.65
434.223	9531.76
434.43	9918.82
434.637	9818.47
434.844	10473.82
435.052	10527.07
435.259	10639.71
435.466	10578.27
435.673	10342.75
435.88	11372.88
436.087	11661.65
436.294	11759.95
436.501	11589.97
436.708	11768.14
436.915	12153.16
437.122	12652.86
437.329	12570.94
437.537	13072.7
437.743	13306.16
437.95	13121.85
438.157	13818.16
438.364	14295.33
438.571	14317.86
438.778	14518.56
438.985	15909.13
439.192	15044.89
439.399	15597.84
439.606	15284.5
439.813	16072.97
440.02	17101.05
440.227	16632.07
440.433	16617.73
440.64	17211.64
440.847	16969.98
441.054	17359.1
441.261	18546.92
441.467	18295.02
441.674	18796.77
441.881	19501.27
442.088	19366.1
442.294	19204.31
442.501	19648.72
442.708	19996.88
442.914	21022.91
443.121	21872.82
443.328	20990.14
443.534	22800.55
443.741	21860.53
443.948	21686.45
444.154	23445.66
444.361	23048.35
444.568	23115.94
444.774	23130.27
444.981	23470.23
445.187	24363.15
445.394	25170.05
445.6	24862.85
445.807	27132
446.013	25784.44
446.22	26591.34
446.426	27594.84
446.633	27646.04
446.839	28661.83
447.046	27494.49
447.252	29112.39
447.459	29241.41
447.665	28653.64
447.871	29878.33
448.078	31162.4
448.284	29831.22
448.491	30607.4
448.697	31653.92
448.903	32442.38
449.11	32163.86
449.316	31868.95
449.522	32325.65
449.728	33142.79
449.935	33746.94
450.141	33341.44
450.347	34342.9
450.553	33183.75
450.76	33396.74
450.966	34646
451.172	34338.8
451.378	34936.81
451.584	34334.71
451.791	35149.8
451.997	34973.67
452.203	35403.75
452.409	35416.04
452.615	34912.24
452.821	33632.25
453.027	33517.57
453.233	34902
453.44	34015.22
453.646	34136.06
453.852	34373.62
454.058	34867.18
454.264	33892.35
454.47	34795.5
454.676	33540.1
454.882	34570.22
455.088	31580.19
455.294	32092.18
455.5	32307.22
455.705	32731.15
455.911	31485.98
456.117	31131.68
456.323	30701.61
456.529	28797
456.735	29802.55
456.941	29212.74
457.147	28622.92
457.352	27934.81
457.558	27744.34
457.764	27830.36
457.97	26814.57
458.176	26374.25
458.381	26542.19
458.587	25004.16
458.793	25270.4
458.999	23789.72
459.204	25747.58
459.41	24963.2
459.616	23189.66
459.821	23345.31
460.027	23228.57
460.233	22902.95
460.438	21704.88
460.644	21596.34
460.85	20674.76
461.055	20457.67
461.261	20498.63
461.466	19140.83
461.672	18073.84
461.878	20031.69
462.083	18424.04
462.289	18006.25
462.494	17856.75
462.7	17082.62
462.905	16386.31
463.111	17021.18
463.316	17277.18
463.522	16902.4
463.727	16961.79
463.932	16808.19
464.138	16656.64
464.343	16630.02
464.549	16511.24
464.754	16982.27
464.959	16816.38
465.165	16498.95
465.37	16130.31
465.575	15290.65
465.781	16152.84
465.986	16218.38
466.191	15405.33
466.397	15372.57
466.602	14747.93
466.807	15100.19
467.012	14997.79
467.218	15143.19
467.423	15024.41
467.628	15159.58
467.833	15554.83
468.038	14831.9
468.244	14354.72
468.449	15235.35
468.654	14575.91
468.859	14827.81
469.064	14459.17
469.269	13893.93
469.474	13844.78
469.679	14088.49
469.885	13895.98
470.09	13986.09
470.295	14166.31
470.5	13599.02
470.705	13934.89
470.91	13269.3
471.115	13035.83
471.32	13531.44
471.525	13228.34
471.73	13150.52
471.935	12945.72
472.139	12351.81
472.344	12546.37
472.549	12503.36
472.754	12351.81
472.959	12267.84
473.164	12085.58
473.369	11561.3
473.574	12140.87
473.778	12058.95
473.983	12050.76
474.188	11817.29
474.393	11368.79
474.598	11385.17
474.802	11313.49
475.007	11280.72
475.212	11198.81
475.417	10832.22
475.621	10922.33
475.826	10946.9
476.031	10606.94
476.235	10563.93
476.44	10664.29
476.645	10602.85
476.849	10332.51
477.054	10271.08
477.259	10299.75
477.463	10232.16
477.668	9970.02
477.872	10170.72
478.077	9873.77
478.282	9478.51
478.486	9797.99
478.691	9427.31
478.895	9486.7
479.1	9431.41
479.304	9478.51
479.509	9199.99
479.713	9345.39
479.918	9091.45
480.122	9224.56
480.326	9275.76
480.531	9146.74
480.735	9087.35
480.94	9032.05
481.144	9331.06
481.348	8794.49
481.553	8903.03
481.757	8653.18
481.961	8786.3
482.166	8927.61
482.37	8999.29
482.574	8608.12
482.778	8546.69
482.983	8886.65
483.187	8765.82
483.391	8841.59
483.595	8774.01
483.8	8628.6
484.004	8702.33
484.208	8972.66
484.412	8671.61
484.616	8954.23
484.821	8872.31
485.025	8409.47
485.229	8735.1
485.433	8634.75
485.637	8747.39
485.841	8683.9
486.045	8630.65
486.249	8663.42
486.453	8720.76
486.657	8741.24
486.861	8782.2
487.065	8612.22
487.269	8860.02
487.473	8778.11
487.677	9003.38
487.881	8814.97
488.085	8814.97
488.289	8806.78
488.493	8741.24
488.697	9015.67
488.901	8704.38
489.105	8587.64
489.309	8839.55
489.512	8790.39
489.716	8855.93
489.92	8786.3
490.124	8763.77
490.328	8849.78
490.531	8780.15
490.735	8968.57
490.939	9099.64
491.143	8962.42
491.346	8919.42
491.55	9273.71
491.754	8964.47
491.958	9093.49
492.161	9228.66
492.365	9077.11
492.569	9142.64
492.772	9232.76
492.976	9249.14
493.18	9273.71
493.383	9505.13
493.587	9496.94
493.79	9585.01
493.994	9578.86
494.197	9679.21
494.401	9603.44
494.605	9793.9
494.808	9810.28
495.012	9963.88
495.215	10025.32
495.419	10019.18
495.622	9931.11
495.825	9996.65
496.029	10105.19
496.232	10273.12
496.436	10320.23
496.639	10652
496.843	10455.39
497.046	10574.17
497.249	10789.21
497.453	10807.64
497.656	11026.78
497.859	11082.07
498.063	11129.17
498.266	11272.53
498.469	11508.05
498.673	11575.63
498.876	11778.38
499.079	11807.05
499.282	11682.13
499.485	12069.19
499.689	12015.94
499.892	12341.57
500.095	12321.09
500.298	12491.07
500.501	12538.18
500.705	12861.76
500.908	12812.6
501.111	12919.1
501.314	13027.64
501.517	13381.94
501.72	13580.59
501.923	13738.29
502.126	13556.02
502.329	14096.68
502.532	13709.61
502.735	14123.3
502.938	14504.23
503.141	14467.36
503.344	14917.92
503.547	14848.29
503.75	15018.27
503.953	15264.02
504.156	15534.35
504.359	15477.01
504.562	15264.02
504.765	15810.83
504.968	16029.96
505.17	16161.03
505.373	16222.47
505.576	16627.97
505.779	16806.14
505.982	16789.76
506.185	17168.63
506.387	17209.59
506.59	17328.38
506.793	17467.64
506.996	17623.28
507.198	18200.81
507.401	18209
507.604	18352.36
507.807	18602.21
508.009	19013.85
508.212	18790.63
508.415	19232.99
508.617	19501.27
508.82	19331.29
509.022	19312.86
509.225	19945.68
509.428	20181.2
509.63	20160.72
509.833	20277.45
510.035	21024.96
510.238	20613.32
510.44	21043.39
510.643	21268.67
510.845	21483.7
511.048	21205.18
511.25	21614.77
511.453	21788.85
511.655	22653.09
511.858	22534.31
512.06	22751.4
512.262	23058.59
512.465	22669.48
512.667	23031.97
512.87	23443.61
513.072	23367.84
513.274	23863.44
513.477	24217.74
513.679	24139.92
513.881	24596.62
514.084	24574.09
514.286	24981.63
514.488	24930.44
514.69	26024.05
514.893	25663.61
515.095	25870.45
515.297	26220.66
515.499	26572.91
515.701	26298.48
515.904	26822.76
516.106	27289.7
516.308	27355.23
516.51	27951.19
516.712	27754.58
516.914	27883.61
517.116	28385.36
517.318	28407.89
517.52	28627.02
517.722	28770.38
517.925	29220.93
518.127	29671.48
518.329	29849.66
518.531	29880.38
518.733	30212.15
518.935	30470.19
519.136	30816.3
519.338	31160.36
519.54	31135.78
519.742	31399.97
519.944	31438.88
520.146	32180.24
520.348	32286.74
520.55	32348.18
520.752	32434.19
520.954	33087.5
521.155	33234.95
521.357	33386.5
521.559	33542.14
521.761	34312.18
521.963	34056.18
522.164	34297.84
522.366	34695.15
522.568	34967.53
522.77	35088.36
522.971	35340.26
523.173	35096.55
523.375	35821.53
523.576	35813.34
523.778	36091.87
523.98	36446.16
524.181	36800.46
524.383	36718.54
524.584	37412.81
524.786	37185.48
524.988	36779.98
525.189	37797.82
525.391	37758.91
525.592	38033.34
525.794	38211.51
525.995	37943.23
526.197	38328.25
526.398	38586.29
526.6	38887.34
526.801	38760.37
527.003	39385
527.204	39389.09
527.406	39991.2
527.607	39356.33
527.808	39798.69
528.01	39552.93
528.211	39649.19
528.412	40660.88
528.614	40503.19
528.815	40163.23
529.016	40923.02
529.218	40402.84
529.419	40568.72
529.62	40957.84
529.822	40660.88
530.023	41078.67
530.224	41295.75
530.425	41166.73
530.626	40857.49
530.828	41000.85
531.029	41605
531.23	41285.51
531.431	41611.14
531.632	41774.98
531.833	41981.82
532.035	41936.77
532.236	42137.47
532.437	42078.08
532.638	41387.91
532.839	42059.65
533.04	41983.87
533.241	41822.08
533.442	42657.65
533.643	42110.85
533.844	42246.01
534.045	42299.26
534.246	41777.03
534.447	42211.2
534.648	42237.82
534.849	42264.44
535.05	42112.89
535.251	42354.55
535.451	42547.06
535.652	42981.23
535.853	42366.84
536.054	42620.79
536.255	42829.68
536.456	42467.19
536.657	42583.93
536.857	42612.6
537.058	42352.51
537.259	42839.92
537.46	42821.49
537.66	42278.78
537.861	42547.06
538.062	42297.21
538.263	42860.4
538.463	42198.91
538.664	42088.32
538.865	42862.45
539.065	42905.46
539.266	42702.71
539.466	42827.63
539.667	42424.18
539.868	42964.85
540.068	42450.81
540.269	42108.8
540.469	43036.53
540.67	42526.58
540.87	42927.98
541.071	42819.44
541.271	42628.98
541.472	42506.1
541.672	42229.63
541.873	42364.79
542.073	42209.15
542.274	43054.96
542.474	42233.72
542.675	42176.38
542.875	42731.38
543.075	42540.92
543.276	42162.04
543.476	42575.73
543.676	42215.29
543.877	42700.66
544.077	42522.49
544.277	42430.33
544.478	42547.06
544.678	42801.01
544.878	42176.38
545.078	42270.59
545.279	41908.1
545.479	42334.07
545.679	42383.23
545.879	42233.72
546.079	42375.03
546.28	42377.08
546.48	41858.95
546.68	42594.17
546.88	42588.02
547.08	42336.12
547.28	42229.63
547.48	41705.35
547.68	42454.9
547.88	42133.37
548.081	42178.43
548.281	42340.22
548.481	42239.87
548.681	42385.27
548.881	42180.48
549.081	42190.72
549.28	42205.05
549.48	42743.67
549.68	41867.14
549.88	42379.13
550.08	41828.23
550.28	42299.26
550.48	42051.45
550.68	42073.98
550.88	41791.36
551.08	42164.09
551.279	42366.84
551.479	41899.9
551.679	41629.57
551.879	41981.82
552.079	42403.7
552.278	42000.26
552.478	41731.97
552.678	41990.02
552.878	42043.26
553.077	42332.03
553.277	41957.25
553.477	42125.18
553.676	41877.38
553.876	41803.65
554.076	41752.45
554.275	41799.55
554.475	40882.06
554.674	41535.37
554.874	41318.28
555.074	41459.59
555.273	41826.18
555.473	41858.95
555.672	41574.28
555.872	41203.6
556.071	41449.35
556.271	41353.1
556.47	41123.72
556.67	41043.85
556.869	41045.9
557.068	41346.95
557.268	40914.83
557.467	40972.17
557.667	41371.53
557.866	40953.74
558.065	40767.38
558.265	40566.68
558.464	40886.16
558.663	41172.88
558.863	40462.23
559.062	40916.88
559.261	40476.57
559.461	40816.53
559.66	40417.18
559.859	40384.41
560.058	40062.88
560.258	40300.44
560.457	39866.27
560.656	40495
560.855	40216.47
561.054	40179.61
561.253	39432.1
561.453	39782.3
561.652	40130.46
561.851	40054.68
562.05	39837.6
562.249	39622.56
562.448	39706.53
562.647	39466.92
562.846	39505.83
563.045	39706.53
563.244	38977.45
563.443	39718.82
563.642	38918.06
563.841	39090.09
564.04	39081.9
564.239	39229.35
564.438	38569.91
564.637	38657.97
564.836	38657.97
565.035	38152.12
565.234	38592.44
565.432	38348.73
565.631	38496.18
565.83	38416.31
566.029	38322.1
566.228	38094.78
566.427	37953.47
566.625	37578.69
566.824	37650.37
567.023	37642.18
567.222	37238.73
567.42	37525.44
567.619	37543.88
567.818	37457.86
568.016	37484.48
568.215	37627.84
568.414	37263.3
568.612	37447.62
568.811	37029.83
569.01	36779.98
569.208	36409.3
569.407	36845.52
569.605	36079.58
569.804	36698.06
570.002	35917.79
570.201	36388.82
570.4	36038.62
570.598	35964.89
570.797	35532.77
570.995	36165.59
571.193	35581.92
571.392	35837.92
571.59	35469.28
571.789	35442.66
571.987	35225.57
572.186	35149.8
572.384	35051.5
572.582	35141.61
572.781	35231.72
572.979	34535.41
573.177	34627.57
573.376	34742.25
573.574	34551.79
573.772	34908.14
573.971	34338.8
574.169	34478.07
574.367	33789.95
574.565	34295.8
574.763	34070.52
574.962	33742.85
575.16	33906.68
575.358	34195.45
575.556	33435.65
575.754	33841.15
575.952	33060.87
576.151	33777.66
576.349	33128.45
576.547	33372.16
576.745	33212.42
576.943	33218.57
577.141	33273.86
577.339	33034.25
577.537	32913.42
577.735	32811.02
577.933	32552.98
578.131	32745.48
578.329	32663.57
578.527	32061.46
578.725	32266.26
578.923	32393.23
579.121	32049.17
579.319	31973.4
579.516	32198.68
579.714	32243.73
579.912	31696.92
580.11	31492.13
580.308	31850.52
580.506	31475.74
580.704	30863.4
580.901	31348.77
581.099	31719.45
581.297	31528.99
581.495	30963.75
581.692	31195.17
581.89	31078.44
582.088	30992.42
582.285	30701.61
582.483	30863.4
582.681	30677.04
582.878	30539.82
583.076	30365.74
583.274	30709.8
583.471	30240.82
583.669	30390.32
583.866	29927.48
584.064	30154.8
584.262	29771.83
584.459	30076.98
584.657	29808.7
584.854	29845.56
585.052	29300.8
585.249	29628.48
585.447	29681.72
585.644	29472.83
585.841	29282.37
586.039	29605.95
586.236	28887.11
586.434	28835.91
586.631	29087.81
586.828	29096
587.026	28639.31
587.223	28717.13
587.42	28688.46
587.618	28588.11
587.815	28360.78
588.012	28164.18
588.21	28219.47
588.407	28373.07
588.604	28139.6
588.801	27775.06
588.999	27910.23
589.196	27990.1
589.393	27736.15
589.59	27930.71
589.787	27355.23
589.984	27553.88
590.182	27236.45
590.379	27580.51
590.576	27140.19
590.773	27396.19
590.97	27275.36
591.167	27183.2
591.364	26538.09
591.561	27267.17
591.758	26722.41
591.955	26671.21
592.152	27123.81
592.349	26622.06
592.546	26542.19
592.743	26472.56
592.94	25847.93
593.137	26499.18
593.334	26445.93
593.531	26185.84
593.727	26134.64
593.924	26226.8
594.121	26116.21
594.318	26054.77
594.515	25860.21
594.712	25985.14
594.908	25573.5
595.105	25653.37
595.302	25208.96
595.499	25520.25
595.696	25272.45
595.892	25147.52
596.089	25206.91
596.286	25446.52
596.482	24936.58
596.679	25366.65
596.876	25071.75
597.072	24866.95
597.269	25081.99
597.466	24565.9
597.662	24553.61
597.859	24713.35
598.055	24688.78
598.252	24133.78
598.448	24195.21
598.645	24098.96
598.841	24076.43
599.038	24127.63
599.234	24225.93
599.431	23877.78
599.627	23898.26
599.824	23847.06
600.02	23677.08
600.217	23795.86
600.413	23804.05
600.609	23253.15
600.806	23701.65
601.002	23660.69
601.198	23249.05
601.395	22923.43
601.591	23103.65
601.787	23079.07
601.984	22722.73
602.18	23054.5
602.376	22902.95
602.572	22818.98
602.769	22902.95
602.965	22749.35
603.161	22769.83
603.357	22749.35
603.553	22427.82
603.75	22667.43
603.946	22296.75
604.142	22223.02
604.338	22102.19
604.534	22354.09
604.73	22266.03
604.926	21889.2
605.122	21829.81
605.318	21719.22
605.514	21903.54
605.71	22007.98
605.906	21573.81
606.102	21528.76
606.298	21547.19
606.494	21598.39
606.69	21520.57
606.886	21412.03
607.082	21342.39
607.278	21727.41
607.474	20963.52
607.67	21283
607.866	21084.35
608.062	21196.99
608.257	20758.72
608.453	20957.38
608.649	21158.08
608.845	20504.78
609.041	20666.56
609.236	20873.41
609.432	20678.85
609.628	20674.76
609.824	20768.96
610.019	20562.12
610.215	20455.62
610.411	20592.84
610.606	20168.91
610.802	20609.22
610.998	20220.11
611.193	20347.08
611.389	19890.38
611.584	20089.04
611.78	19869.9
611.976	20345.03
612.171	20166.86
612.367	19884.24
612.562	19593.43
612.758	19744.98
612.953	19665.11
613.149	20039.89
613.344	19753.17
613.539	19794.13
613.735	19591.38
613.93	19663.06
614.126	19525.85
614.321	19931.34
614.517	19661.01
614.712	19519.7
614.907	19351.77
615.103	19566.81
615.298	19239.13
615.493	19566.81
615.688	19169.5
615.884	19355.86
616.079	18843.87
616.274	19187.93
616.47	18925.79
616.665	19011.81
616.86	18983.13
617.055	18948.32
617.25	18757.86
617.445	19142.88
617.641	18508.01
617.836	18890.98
618.031	18516.2
618.226	18764
618.421	18489.57
618.616	18514.15
618.811	18600.16
619.006	18688.23
619.201	18284.78
619.396	18241.77
619.591	18026.73
619.786	18454.76
619.981	17582.32
620.176	17930.48
620.371	17936.62
620.566	17912.05
620.761	17611
620.956	18051.31
621.151	17297.66
621.346	17846.51
621.541	17320.18
621.735	17563.89
621.93	17199.35
622.125	17221.88
622.32	17058.04
622.515	17051.9
622.709	17178.87
622.904	16904.45
623.099	16814.34
623.294	16800
623.488	16521.48
623.683	16634.11
623.878	16410.89
624.072	16419.08
624.267	16468.23
624.462	16410.89
624.656	16156.94
624.851	15968.52
625.046	15927.56
625.24	15898.89
625.435	15776.02
625.629	15612.18
625.824	15886.61
626.018	15718.67
626.213	15257.88
626.407	15583.51
626.602	15089.95
626.796	15290.65
626.991	15188.25
627.185	15206.68
627.38	14649.63
627.574	15130.91
627.768	14672.16
627.963	14887.2
628.157	14655.78
628.352	14489.89
628.546	14182.7
628.74	14635.3
628.935	14170.41
629.129	14407.97
629.323	14125.35
629.517	14297.38
629.712	13951.28
629.906	14000.43
630.1	13748.53
630.294	13842.73
630.489	13785.39
630.683	13656.37
630.877	13590.83
631.071	13664.56
631.265	13576.5
631.459	13351.22
631.653	13205.81
631.848	13267.25
632.042	13054.26
632.236	13402.42
632.43	13009.21
632.624	13197.62
632.818	12749.12
633.012	12919.1
633.206	12847.42
633.4	12808.51
633.594	12593.47
633.788	12636.48
633.982	12403.01
634.176	12548.42
634.369	12187.97
634.563	12284.23
634.757	12159.3
634.951	12192.07
635.145	12235.08
635.339	12497.22
635.533	12122.44
635.726	12030.28
635.92	11899.21
636.114	11882.83
636.308	11753.8
636.501	11897.16
636.695	11762
636.889	11530.58
637.083	11524.43
637.276	11280.72
637.47	11462.99
637.664	11213.14
637.857	11225.43
638.051	11252.05
638.244	10930.52
638.438	10879.32
638.632	10963.29
638.825	10713.44
639.019	10867.03
639.212	10629.47
639.406	10895.71
639.599	10748.25
639.793	10817.88
639.986	10535.26
640.18	10543.46
640.373	10551.65
640.567	10322.27
640.76	10490.21
640.954	10383.71
641.147	10387.81
641.34	10238.31
641.534	10275.17
641.727	9982.31
641.92	10117.48
642.114	9951.59
642.307	10176.87
642.5	9877.87
642.694	9511.28
642.887	9849.19
643.08	9847.15
643.273	9746.8
643.467	9722.22
643.66	9650.54
643.853	9404.78
644.046	9498.99
644.239	9501.04
644.432	9412.98
644.626	9097.59
644.819	9300.34
645.012	9372.02
645.205	9267.57
645.398	9220.47
645.591	8825.21
645.784	9032.05
645.977	8903.03
646.17	8786.3
646.363	8931.7
646.556	8784.25
646.749	8761.72
646.942	8808.83
647.135	8464.77
647.328	8585.6
647.521	8634.75
647.714	8479.1
647.907	8501.63
648.099	8532.35
648.292	8536.45
648.485	8472.96
648.678	8288.64
648.871	8358.27
649.064	8053.13
649.256	8296.83
649.449	8057.22
649.642	7893.38
649.835	7934.34
650.027	8059.27
650.22	7838.09
650.413	8038.79
650.605	7852.42
650.798	7793.03
650.991	7686.54
651.183	7891.34
651.376	7631.24
651.568	7840.14
651.761	7621
651.954	7729.55
652.146	7465.36
652.339	7504.27
652.531	7473.55
652.724	7563.66
652.916	7244.18
653.109	7328.14
653.301	7225.75
653.494	7213.46
653.686	7160.21
653.879	7233.94
654.071	7244.18
654.263	7100.82
654.456	7123.35
654.648	7278.99
654.84	6918.55
655.033	6910.36
655.225	6943.13
655.417	6734.23
655.61	6926.74
655.802	6830.49
655.994	6941.08
656.186	6658.46
656.379	6732.19
656.571	6652.31
656.763	6670.75
656.955	6617.5
657.148	6621.59
657.34	6637.98
657.532	6545.82
657.724	6535.58
657.916	6455.71
658.108	6484.38
658.3	6396.32
658.492	6373.79
658.684	6443.42
658.876	6384.03
659.068	6402.46
659.26	6298.02
659.452	6281.63
659.644	6099.36
659.836	6119.84
660.028	6130.08
660.22	5843.37
660.412	5951.91
660.604	5931.43
660.796	5992.87
660.988	5951.91
661.18	6085.03
661.372	5886.37
661.563	5894.57
661.755	5826.98
661.947	5845.41
662.139	5826.98
662.331	5722.54
662.522	5835.17
662.714	5626.28
662.906	5722.54
663.097	5837.22
663.289	5542.32
663.481	5736.87
663.673	5540.27
663.864	5507.5
664.056	5441.96
664.247	5390.77
664.439	5306.8
664.631	5431.73
664.822	5360.05
665.014	5353.9
665.205	5368.24
665.397	5253.55
665.588	5458.35
665.78	5233.07
665.971	5409.2
666.163	5306.8
666.354	5206.45
666.546	5110.19
666.737	5087.67
666.929	5126.58
667.12	5030.32
667.311	5253.55
667.503	5108.15
667.694	5118.39
667.885	4999.6
668.077	5048.75
668.268	5013.94
668.459	4919.73
668.651	4909.49
668.842	5026.23
669.033	4905.4
669.224	4805.05
669.416	4968.88
669.607	4846.01
669.798	4686.26
669.989	4770.23
670.18	4770.23
670.371	4796.85
670.563	4581.82
670.754	4952.5
670.945	4647.35
671.136	4755.9
671.327	4590.01
671.518	4637.11
671.709	4759.99
671.9	4788.66
672.091	4661.69
672.282	4528.57
672.473	4547
672.664	4604.35
672.855	4583.87
673.046	4587.96
673.237	4424.12
673.428	4342.21
673.619	4497.85
673.809	4504
674	4512.19
674.191	4485.56
674.382	4585.91
674.573	4409.79
674.764	4471.23
674.954	4504
675.145	4354.49
675.336	4338.11
675.527	4297.15
675.717	4420.03
675.908	4280.77
676.099	4395.45
676.289	4356.54
676.48	4297.15
676.671	4452.8
676.861	4264.38
677.052	4221.38
677.243	4217.28
677.433	4209.09
677.624	4336.06
677.814	4170.18
678.005	4223.42
678.195	4245.95
678.386	4170.18
678.576	4118.98
678.767	4342.21
678.957	4260.29
679.148	4360.64
679.338	4129.22
679.529	4145.6
679.719	4211.14
679.909	4254.14
680.1	4172.22
680.29	4227.52
680.481	4204.99
680.671	4237.76
680.861	4108.74
681.052	4135.36
681.242	4026.82
681.432	4096.45
681.622	4000.19
681.813	4116.93
682.003	3998.15
682.193	4127.17
682.383	4026.82
682.573	3971.52
682.764	4080.07
682.954	4274.62
683.144	3996.1
683.334	4096.45
683.524	4028.87
683.714	4100.55
683.904	4041.15
684.094	4184.51
684.284	4004.29
684.474	4114.88
684.664	4125.12
684.854	4008.39
685.044	3957.19
685.234	3949
685.424	3951.04
685.614	4055.49
685.804	4002.24
685.994	3965.38
686.184	3955.14
686.374	3998.15
686.564	3940.8
686.753	3828.17
686.943	3887.56
687.133	3983.81
687.323	3731.91
687.513	3881.41
687.702	3887.56
687.892	3717.58
688.082	3869.12
688.272	3903.94
688.461	3750.34
688.651	3832.26
688.841	3649.99
689.03	3658.18
689.22	3588.55
689.41	3789.25
689.599	3643.85
689.789	3707.34
689.979	3723.72
690.168	3539.4
690.358	3598.79
690.547	3619.27
690.737	3647.94
690.926	3736.01
691.116	3424.72
691.305	3588.55
691.495	3572.17
691.684	3389.9
691.874	3504.59
692.063	3604.94
692.252	3445.2
692.442	3359.18
692.631	3437
692.82	3557.83
693.01	3441.1
693.199	3508.68
693.388	3281.36
693.578	3410.38
693.767	3475.91
693.956	3457.48
694.146	3330.51
694.335	3299.79
694.524	3350.99
694.713	3299.79
694.902	3295.69
695.092	3371.47
695.281	3363.28
695.47	3328.46
695.659	3320.27
695.848	3248.59
696.037	3230.16
696.226	3295.69
696.415	3439.05
696.604	3371.47
696.793	3260.88
696.982	3217.87
697.171	3330.51
697.36	3248.59
697.549	3330.51
697.738	3051.99
697.927	3238.35
698.116	3316.17
698.305	3297.74
698.494	3287.5
698.683	3326.41
698.872	3291.6
699.061	3234.25
699.25	3291.6
699.438	3080.66
699.627	3219.92
699.816	3248.59
700.005	3199.44
700.193	3189.2
700.382	3301.84
700.571	3242.45
700.76	3228.11
700.948	3109.33
701.137	3101.14
701.326	3207.63
701.514	3148.24
701.703	3254.73
701.892	3191.25
702.08	3240.4
702.269	3150.29
702.457	3125.71
702.646	3224.01
702.834	3097.04
703.023	3090.9
703.212	3142.1
703.4	3025.36
703.589	3246.54
703.777	3256.78
703.965	3236.3
704.154	3250.64
704.342	3205.58
704.531	3140.05
704.719	3172.82
704.907	3138
705.096	3178.96
705.284	3236.3
705.472	3160.53
705.661	3129.81
705.849	3148.24
706.037	3152.34
706.226	3074.51
706.414	3234.25
706.602	3199.44
706.79	3199.44
706.979	3060.18
707.167	3219.92
707.355	3101.14
707.543	3219.92
707.731	3162.58
707.919	3117.52
708.107	3195.34
708.296	3152.34
708.484	3246.54
708.672	3224.01
708.86	3197.39
709.048	3146.19
709.236	3248.59
709.424	3359.18
709.612	3133.9
709.8	3201.49
709.988	3127.76
710.176	3181.01
710.364	3203.54
710.551	3193.3
710.739	3156.43
710.927	3226.06
711.115	3125.71
711.303	3338.7
711.491	3166.67
711.679	3213.77
711.866	3256.78
712.054	3320.27
712.242	3207.63
712.43	3305.93
712.617	3121.62
712.805	3228.11
712.993	3162.58
713.181	3070.42
713.368	3113.42
713.556	3293.65
713.744	3097.04
713.931	3246.54
714.119	3293.65
714.306	3172.82
714.494	3277.26
714.682	3140.05
714.869	3260.88
715.057	3183.06
715.244	3213.77
715.432	3258.83
715.619	3129.81
715.807	3307.98
715.994	3172.82
716.182	3172.82
716.369	3385.8
716.556	3328.46
716.744	3248.59
716.931	3258.83
717.119	3336.65
717.306	3250.64
717.493	3207.63
717.681	3260.88
717.868	3256.78
718.055	3396.04
718.242	3232.21
718.43	3183.06
718.617	3230.16
718.804	3330.51
718.991	3307.98
719.179	3269.07
719.366	3375.56
719.553	3355.08
719.74	3158.48
719.927	3191.25
720.114	3207.63
720.301	3228.11
720.488	3238.35
720.676	3260.88
720.863	3129.81
721.05	3213.77
721.237	3273.17
721.424	3328.46
721.611	3310.03
721.798	3402.19
721.985	3092.94
722.172	3195.34
722.358	3140.05
722.545	3289.55
722.732	3185.1
722.919	3191.25
723.106	3168.72
723.293	3195.34
723.48	3224.01
723.667	3238.35
723.853	3176.91
724.04	3150.29
724.227	3244.49
724.414	3277.26
724.6	3375.56
724.787	3238.35
724.974	3295.69
725.161	3256.78
725.347	3082.7
725.534	3125.71
725.72	3224.01
725.907	3058.13
726.094	3174.86
726.28	3113.42
726.467	3172.82
726.653	3189.2
726.84	3301.84
727.027	3387.85
727.213	3172.82
727.4	3275.21
727.586	3191.25
727.773	3230.16
727.959	3183.06
728.145	3113.42
728.332	3226.06
728.518	3115.47
728.705	3285.45
728.891	3181.01
729.077	3240.4
729.264	3215.82
729.45	3260.88
729.636	3367.37
729.823	3187.15
730.009	3322.32
730.195	3224.01
730.382	3316.17
730.568	3045.84
730.754	3221.97
730.94	3174.86
731.126	3174.86
731.313	3199.44
731.499	3183.06
731.685	3174.86
731.871	3133.9
732.057	3178.96
732.243	3174.86
732.429	3199.44
732.615	3142.1
732.801	3252.69
732.987	3185.1
733.173	3131.86
733.359	3086.8
733.545	3064.27
733.731	3238.35
733.917	3238.35
734.103	3047.89
734.289	3099.09
734.475	3084.75
734.661	3135.95
734.847	3140.05
735.033	3162.58
735.219	2955.73
735.404	3064.27
735.59	3068.37
735.776	3066.32
735.962	3099.09
736.148	3123.66
736.333	3072.47
736.519	3121.62
736.705	3129.81
736.89	3037.65
737.076	3000.79
737.262	2984.4
737.447	2990.55
737.633	2953.68
737.819	3025.36
738.004	2976.21
738.19	3107.28
738.375	2925.01
738.561	3051.99
738.747	3047.89
738.932	2896.34
739.118	3019.22
739.303	2959.83
739.489	2951.63
739.674	2935.25
739.859	2961.87
740.045	2867.67
740.23	2992.59
740.416	2814.42
740.601	2925.01
740.786	2970.07
740.972	2673.11
741.157	2884.05
741.342	2812.37
741.528	2914.77
741.713	2853.33
741.898	2992.59
742.084	2851.28
742.269	2785.75
742.454	2656.73
742.639	2703.83
742.824	2816.47
743.01	2750.93
743.195	2890.2
743.38	2746.84
743.565	2771.41
743.75	2761.17
743.935	2798.04
744.12	2685.4
744.305	2701.78
744.49	2617.82
744.675	2679.26
744.86	2681.3
745.045	2568.66
745.23	2650.58
745.415	2621.91
745.6	2632.15
745.785	2564.57
745.97	2660.82
746.155	2468.31
746.34	2544.09
746.525	2595.29
746.71	2499.03
746.895	2576.86
747.079	2509.27
747.264	2421.21
747.449	2492.89
747.634	2556.38
747.819	2384.35
748.003	2406.88
748.188	2492.89
748.373	2370.01
748.557	2370.01
748.742	2294.24
748.927	2105.82
749.111	2310.62
749.296	2257.37
749.481	2216.41
749.665	2265.57
749.85	2253.28
750.034	2230.75
750.219	2208.22
750.404	2240.99
750.588	2189.79
750.773	2177.5
750.957	2056.67
751.141	2171.36
751.326	2167.26
751.51	1980.9
751.695	2200.03
751.879	2044.38
752.064	2083.3
752.248	2136.54
752.432	1978.85
752.617	2124.26
752.801	2050.53
752.985	1997.28
753.17	2017.76
753.354	1913.31
753.538	1843.68
753.722	1876.45
753.907	1896.93
754.091	1864.16
754.275	1939.94
754.459	1886.69
754.643	1780.2
754.828	1798.63
755.012	1786.34
755.196	1806.82
755.38	1606.12
755.564	1759.72
755.748	1751.53
755.932	1757.67
756.116	1772
756.3	1671.65
756.484	1726.95
756.668	1749.48
756.852	1706.47
757.036	1692.13
757.22	1657.32
757.404	1726.95
757.588	1599.98
757.772	1663.46
757.956	1647.08
758.14	1655.27
758.323	1577.45
758.507	1667.56
758.691	1583.59
758.875	1511.91
759.059	1587.69
759.242	1559.02
759.426	1546.73
759.61	1573.35
759.794	1548.78
759.977	1534.44
760.161	1530.34
760.345	1511.91
760.528	1540.58
760.712	1425.9
760.895	1411.56
761.079	1505.77
761.263	1434.09
761.446	1425.9
761.63	1378.79
761.813	1495.53
761.997	1372.65
762.18	1499.63
762.364	1352.17
762.547	1458.67
762.731	1507.82
762.914	1397.23
763.098	1323.5
763.281	1368.56
763.464	1343.98
763.648	1331.69
763.831	1219.05
764.015	1372.65
764.198	1348.08
764.381	1286.64
764.564	1397.23
764.748	1350.12
764.931	1319.4
765.114	1298.92
765.297	1311.21
765.481	1323.5
765.664	1278.44
765.847	1143.28
766.03	1343.98
766.213	1268.2
766.397	1348.08
766.58	1391.08
766.763	1239.53
766.946	1260.01
767.129	1217.01
767.312	1200.62
767.495	1227.25
767.678	1200.62
767.861	1280.49
768.044	1231.34
768.227	1128.94
768.41	1159.66
768.593	1163.76
768.776	1223.15
768.959	1073.65
769.142	1182.19
769.324	1176.05
769.507	1147.37
769.69	1102.32
769.873	1110.51
770.056	1251.82
770.239	1030.64
770.421	1147.37
770.604	1159.66
770.787	1143.28
770.97	1036.78
771.152	1018.35
771.335	1075.7
771.518	1096.18
771.7	1204.72
771.883	1085.94
772.066	1133.04
772.248	1073.65
772.431	1061.36
772.613	1094.13
772.796	922.1
772.978	1001.97
773.161	1038.83
773.343	1094.13
773.526	1024.5
773.708	1006.06
773.891	924.15
774.073	979.44
774.256	895.47
774.438	997.87
774.621	885.23
774.803	979.44
774.985	926.19
775.168	1116.65
775.35	926.19
775.532	1010.16
775.715	848.37
775.897	989.68
776.079	911.86
776.261	872.95
776.444	842.23
776.626	803.32
776.808	971.25
776.99	846.32
777.173	856.56
777.355	842.23
777.537	862.71
777.719	827.89
777.901	782.84
778.083	827.89
778.265	758.26
778.447	811.51
778.629	766.45
778.811	795.12
778.993	831.99
779.175	819.7
779.357	848.37
779.539	739.83
779.721	737.78
779.903	698.87
780.085	684.53
780.267	709.11
780.449	705.01
780.631	862.71
780.812	758.26
780.994	725.49
781.176	600.57
781.358	709.11
781.54	723.44
781.721	676.34
781.903	758.26
782.085	756.21
782.267	709.11
782.448	610.81
782.63	643.57
782.812	643.57
782.993	670.2
783.175	616.95
783.357	674.29
783.538	672.25
783.72	635.38
783.901	606.71
784.083	623.09
784.264	586.23
784.446	594.42
784.627	553.46
784.809	557.56
784.99	616.95
785.172	670.2
785.353	551.42
785.535	600.57
785.716	569.85
785.897	532.98
786.079	600.57
786.26	619
786.441	580.09
786.623	563.7
786.804	479.74
786.985	524.79
787.167	545.27
787.348	532.98
787.529	612.85
787.71	553.46
787.891	518.65
788.073	555.51
788.254	504.31
788.435	535.03
788.616	477.69
788.797	520.7
788.978	442.87
789.159	551.42
789.34	502.26
789.522	467.45
789.703	434.68
789.884	473.59
790.065	397.82
790.246	438.78
790.427	446.97
790.607	463.35
790.788	514.55
790.969	549.37
791.15	375.29
791.331	496.12
791.512	428.54
791.693	453.11
791.874	406.01
792.054	498.17
792.235	459.26
792.416	469.5
792.597	383.48
792.778	418.3
792.958	471.54
793.139	467.45
793.32	422.39
793.5	487.93
793.681	414.2
793.862	455.16
794.042	444.92
794.223	365.05
794.404	408.06
794.584	348.67
794.765	492.02
794.945	360.95
795.126	375.29
795.306	479.74
795.487	375.29
795.667	262.65
795.848	375.29
796.028	281.08
796.209	393.72
796.389	403.96
796.57	336.38
796.75	385.53
796.93	348.67
797.111	305.66
797.291	385.53
797.471	360.95
797.652	328.19
797.832	375.29
798.012	461.3
798.192	295.42
798.373	270.84
798.553	336.38
798.733	274.94
798.913	352.76
799.093	381.43
799.274	320
799.454	272.89
799.634	354.81
799.814	358.91
799.994	291.32
800.174	358.91
800.354	287.23
800.534	260.6
800.714	313.85
800.894	260.6
801.074	266.75
801.254	324.09
801.434	330.23
801.614	328.19
801.794	225.79
801.974	834.04
802.154	248.32
802.334	340.47
802.514	248.32
802.693	260.6
802.873	242.17
803.053	293.37
803.233	311.8
803.413	246.27
803.592	190.97
803.772	213.5
803.952	264.7
804.131	229.88
804.311	305.66
804.491	225.79
804.67	244.22
804.85	274.94
805.03	182.78
805.209	256.51
805.389	299.52
805.568	317.95
805.748	246.27
805.928	293.37
806.107	201.21
806.287	287.23
806.466	270.84
806.646	242.17
806.825	264.7
807.004	238.08
807.184	258.56
807.363	236.03
807.543	311.8
807.722	207.36
807.901	233.98
808.081	332.28
808.26	197.12
808.439	281.08
808.619	264.7
808.798	221.69
808.977	217.6
809.156	233.98
809.336	223.74
809.515	229.88
809.694	195.07
809.873	195.07
810.052	313.85
810.231	252.41
810.411	158.21
810.59	205.31
810.769	221.69
810.948	215.55
811.127	164.35
811.306	178.69
811.485	182.78
811.664	209.4
811.843	225.79
812.022	176.64
812.201	276.99
812.38	285.18
812.559	131.58
812.737	274.94
812.916	172.54
813.095	147.97
813.274	250.36
813.453	199.16
813.632	274.94
813.811	260.6
813.989	248.32
814.168	219.64
814.347	150.01
814.526	178.69
814.704	225.79
814.883	176.64
815.062	137.73
815.24	195.07
815.419	113.15
815.598	248.32
815.776	123.39
815.955	172.54
816.133	143.87
816.312	172.54
816.49	123.39
816.669	219.64
816.847	158.21
817.026	125.44
817.204	215.55
817.383	168.45
817.561	154.11
817.74	188.93
817.918	205.31
818.097	147.97
818.275	143.87
818.453	223.74
818.632	166.4
818.81	203.26
818.988	127.49
819.167	190.97
819.345	174.59
819.523	162.3
819.701	178.69
819.879	152.06
820.058	147.97
820.236	244.22
820.414	139.77
820.592	47.62
820.77	119.29
820.948	164.35
821.127	135.68
821.305	125.44
821.483	119.29
821.661	166.4
821.839	94.72
822.017	180.73
822.195	86.53
822.373	215.55
822.551	131.58
822.729	246.27
822.907	137.73
823.085	162.3
823.262	156.16
823.44	131.58
823.618	125.44
823.796	117.25
823.974	141.82
824.152	131.58
824.329	152.06
824.507	178.69
824.685	102.91
824.863	143.87
825.04	209.4
825.218	143.87
825.396	182.78
825.574	104.96
825.751	115.2
825.929	184.83
826.107	76.29
826.284	201.21
826.462	102.91
826.639	129.53
826.817	78.33
826.994	203.26
827.172	109.05
827.349	184.83
827.527	129.53
827.704	92.67
827.882	104.96
828.059	174.59
828.237	147.97
828.414	78.33
828.591	37.38
828.769	150.01
828.946	158.21
829.124	102.91
829.301	139.77
829.478	203.26
829.655	111.1
829.833	143.87
830.01	102.91
830.187	172.54
830.364	47.62
830.542	129.53
830.719	115.2
830.896	86.53
831.073	119.29
831.25	111.1
831.427	76.29
831.604	86.53
831.782	100.86
831.959	100.86
832.136	104.96
832.313	84.48
832.49	70.14
832.667	111.1
832.844	94.72
833.021	119.29
833.198	88.57
833.374	176.64
833.551	127.49
833.728	18.94
833.905	100.86
834.082	68.09
834.259	61.95
834.436	111.1
834.612	139.77
834.789	125.44
834.966	96.77
835.143	70.14
835.319	53.76
835.496	86.53
835.673	111.1
835.85	94.72
836.026	139.77
836.203	152.06
836.38	70.14
836.556	31.23
836.733	119.29
836.909	117.25
837.086	164.35
837.262	-7.68
837.439	125.44
837.616	-13.82
837.792	82.43
837.968	70.14
838.145	139.77
838.321	96.77
838.498	29.18
838.674	57.86
838.851	115.2
839.027	113.15
839.203	33.28
839.38	131.58
839.556	57.86
839.732	115.2
839.909	20.99
840.085	178.69
840.261	16.9
840.437	-3.58
840.614	102.91
840.79	117.25
840.966	41.47
841.142	115.2
841.318	78.33
841.494	100.86
841.671	59.9
841.847	-5.63
842.023	33.28
842.199	80.38
842.375	100.86
842.551	59.9
842.727	70.14
842.903	127.49
843.079	25.09
843.255	68.09
843.431	0.51
843.607	66.05
843.783	45.57
843.959	117.25
844.134	117.25
844.31	125.44
844.486	102.91
844.662	47.62
844.838	0.51
845.013	111.1
845.189	70.14
845.365	68.09
845.541	45.57
845.716	94.72
845.892	23.04
846.068	33.28
846.244	39.42
846.419	47.62
846.595	0.51
846.77	37.38
846.946	37.38
847.122	33.28
847.297	61.95
847.473	109.05
847.648	31.23
847.824	66.05
847.999	20.99
848.175	61.95
848.35	41.47
848.526	92.67
848.701	-36.35
848.876	117.25
849.052	76.29
849.227	72.19
849.403	64
849.578	64
849.753	92.67
849.929	80.38
850.104	61.95
850.279	57.86
850.454	119.29
850.63	72.19
850.805	68.09
850.98	94.72
851.155	20.99
851.33	82.43
851.505	6.66
851.681	94.72
851.856	64
852.031	66.05
852.206	53.76
852.381	29.18
852.556	10.75
852.731	92.67
852.906	18.94
853.081	29.18
853.256	53.76
853.431	43.52
853.606	-9.73
853.781	66.05
853.956	10.75
854.131	45.57
854.305	-32.26
854.48	59.9
854.655	55.81
854.83	164.35
855.005	107.01
855.18	59.9
855.354	35.33
855.529	33.28
855.704	76.29
855.879	107.01
856.053	57.86
856.228	12.8
856.403	-40.45
856.577	84.48
856.752	12.8
856.926	55.81
857.101	33.28
857.276	-24.06
857.45	72.19
857.625	84.48
857.799	-19.97
857.974	109.05
858.148	-69.12
858.323	107.01
858.497	33.28
858.672	135.68
858.846	59.9
859.02	29.18
859.195	-11.78
859.369	64
859.543	16.9
859.718	92.67
859.892	-3.58
860.066	37.38
860.241	33.28
860.415	-11.78
860.589	39.42
860.763	10.75
860.938	4.61
861.112	-38.4
861.286	-67.07
861.46	23.04
861.634	66.05
861.808	80.38
861.982	-26.11
862.157	-19.97
862.331	51.71
862.505	35.33
862.679	-3.58
862.853	92.67
863.027	-19.97
863.201	76.29
863.375	55.81
863.549	4.61
863.722	53.76
863.896	90.62
864.07	-114.17
864.244	-15.87
864.418	45.57
864.592	12.8
864.766	4.61
864.939	27.14
865.113	-44.54
865.287	18.94
865.461	20.99
865.634	4.61
865.808	20.99
865.982	72.19
866.156	37.38
866.329	72.19
866.503	16.9
866.676	33.28
866.85	61.95
867.024	43.52
867.197	53.76
867.371	16.9
867.544	16.9
867.718	-3.58
867.891	25.09
868.065	-19.97
868.238	25.09
868.412	66.05
868.585	2.56
868.759	-5.63
868.932	-3.58
869.105	-26.11
869.279	45.57
869.452	2.56
869.625	-40.45
869.799	66.05
869.972	49.66
870.145	61.95
870.319	16.9
870.492	-3.58
870.665	45.57
870.838	20.99
871.011	-93.69
871.185	51.71
871.358	-17.92
871.531	49.66
871.704	29.18
871.877	20.99
872.05	-32.26
872.223	37.38
872.396	-19.97
872.569	8.7
872.742	-56.83
872.915	35.33
873.088	-19.97
873.261	-17.92
873.434	37.38
873.607	29.18
873.78	-3.58
873.953	-17.92
874.126	78.33
874.299	53.76
874.471	2.56
874.644	-28.16
874.817	45.57
874.99	84.48
875.163	51.71
875.335	2.56
875.508	61.95
875.681	57.86
875.853	29.18
876.026	-28.16
876.199	-46.59
876.371	0.51
876.544	-52.74
876.717	92.67
876.889	45.57
877.062	53.76
877.234	-7.68
877.407	16.9
877.579	57.86
877.752	59.9
877.924	27.14
878.097	-3.58
878.269	-1.54
878.442	39.42
878.614	8.7
878.786	20.99
878.959	-28.16
879.131	-5.63
879.303	-97.79
879.476	-1.54
879.648	8.7
879.82	66.05
879.993	-67.07
880.165	2.56
880.337	-32.26
880.509	23.04
880.681	-9.73
880.854	-48.64
881.026	27.14
881.198	88.57
881.37	-17.92
881.542	27.14
881.714	-3.58
881.886	18.94
882.058	-17.92
882.23	0.51
882.402	-28.16
882.574	12.8
882.746	61.95
882.918	119.29
883.09	-3.58
883.262	2.56
883.434	-9.73
883.606	-38.4
883.778	59.9
883.95	35.33
884.122	35.33
884.293	55.81
884.465	16.9
884.637	90.62
884.809	-77.31
884.98	2.56
885.152	20.99
885.324	-9.73
885.496	-32.26
885.667	-7.68
885.839	23.04
886.011	-58.88
886.182	-56.83
886.354	20.99
886.525	-9.73
886.697	66.05
886.869	18.94
887.04	18.94
887.212	66.05
887.383	86.53
887.555	-34.3
887.726	10.75
887.897	-11.78
888.069	94.72
888.24	-24.06
888.412	2.56
888.583	-19.97
888.754	27.14
888.926	-24.06
889.097	29.18
889.268	-30.21
889.44	4.61
889.611	29.18
889.782	-60.93
889.953	-13.82
890.125	39.42
890.296	-19.97
890.467	18.94
890.638	6.66
890.809	82.43
890.98	31.23
891.151	-75.26
891.323	59.9
891.494	-44.54
891.665	-62.98
891.836	20.99
892.007	20.99
892.178	27.14
892.349	-7.68
892.52	27.14
892.691	-36.35
892.862	2.56
893.032	-13.82
893.203	47.62
893.374	8.7
893.545	27.14
893.716	43.52
893.887	25.09
894.057	-32.26
894.228	-1.54
894.399	76.29
894.57	100.86
894.74	86.53
894.911	64
895.082	43.52
895.253	-19.97
895.423	35.33
895.594	18.94
895.764	33.28
895.935	-13.82
896.106	37.38
896.276	37.38
896.447	-60.93
896.617	8.7
896.788	14.85
896.958	18.94
897.129	-3.58
897.299	27.14
897.47	4.61
897.64	-1.54
897.81	14.85
897.981	10.75
898.151	14.85
898.322	64
898.492	-69.12
898.662	55.81
898.832	-28.16
899.003	-105.98
899.173	4.61
899.343	-28.16
899.513	-5.63
