Data from USB4F104151__187__10-28-44-111.txt Node

Date: Wed Mar 12 10:28:44 EDT 2025
User: louis
Spectrometer: USB4F10415
Trigger mode: 4
Integration Time (sec): 3.000000E-2
Scans to average: 1
Electric dark correction enabled: true
Nonlinearity correction enabled: false
Boxcar width: 0
XAxis mode: Wavelengths
Number of Pixels in Spectrum: 3648
>>>>>Begin Spectral Data<<<<<
178.204	-72.36
178.424	-72.36
178.644	-72.36
178.864	-86.7
179.084	-72.36
179.304	-23.21
179.524	-21.16
179.744	-45.74
179.964	44.37
180.184	30.04
180.404	-29.35
180.624	-2.73
180.844	19.8
181.064	-37.55
181.283	58.71
181.503	-39.59
181.723	46.42
181.943	-29.35
182.163	44.37
182.383	-53.93
182.602	38.23
182.822	21.85
183.042	120.15
183.262	-2.73
183.482	32.08
183.701	3.41
183.921	5.46
184.141	77.14
184.361	73.04
184.58	109.91
184.8	44.37
185.02	-15.02
185.239	95.57
185.459	89.43
185.679	40.28
185.898	-12.97
186.118	50.52
186.338	66.9
186.557	-58.03
186.777	71
186.997	77.14
187.216	66.9
187.436	73.04
187.655	85.33
187.875	21.85
188.095	17.75
188.314	64.85
188.534	56.66
188.753	-45.74
188.973	48.47
189.192	103.76
189.412	-12.97
189.631	-64.17
189.851	11.61
190.07	81.24
190.29	-8.87
190.509	-6.83
190.729	66.9
190.948	75.09
191.168	175.44
191.387	38.23
191.607	5.46
191.826	5.46
192.045	-62.12
192.265	85.33
192.484	-31.4
192.704	48.47
192.923	52.56
193.142	9.56
193.362	9.56
193.581	9.56
193.8	79.19
194.02	7.51
194.239	32.08
194.458	40.28
194.678	42.32
194.897	56.66
195.116	54.61
195.335	64.85
195.555	75.09
195.774	-15.02
195.993	-21.16
196.212	68.95
196.432	-2.73
196.651	-27.31
196.87	-0.68
197.089	48.47
197.308	79.19
197.528	93.52
197.747	-2.73
197.966	-45.74
198.185	11.61
198.404	21.85
198.623	54.61
198.842	46.42
199.062	62.8
199.281	95.57
199.5	-2.73
199.719	62.8
199.938	-4.78
200.157	48.47
200.376	30.04
200.595	-4.78
200.814	3.41
201.033	81.24
201.252	54.61
201.471	21.85
201.69	95.57
201.909	3.41
202.128	-0.68
202.347	42.32
202.566	87.38
202.785	11.61
203.004	111.96
203.223	89.43
203.442	5.46
203.661	99.67
203.879	40.28
204.098	73.04
204.317	44.37
204.536	32.08
204.755	15.7
204.974	-25.26
205.193	38.23
205.411	62.8
205.63	15.7
205.849	71
206.068	68.95
206.287	-12.97
206.505	79.19
206.724	114
206.943	5.46
207.162	-15.02
207.381	-10.92
207.599	50.52
207.818	19.8
208.037	13.65
208.255	-6.83
208.474	36.18
208.693	23.89
208.911	9.56
209.13	19.8
209.349	95.57
209.567	83.28
209.786	64.85
210.005	66.9
210.223	71
210.442	46.42
210.661	71
210.879	-53.93
211.098	17.75
211.316	60.76
211.535	38.23
211.753	58.71
211.972	62.8
212.191	97.62
212.409	48.47
212.628	91.48
212.846	83.28
213.065	25.94
213.283	68.95
213.502	25.94
213.72	36.18
213.938	38.23
214.157	-37.55
214.375	58.71
214.594	30.04
214.812	-2.73
215.031	56.66
215.249	85.33
215.467	75.09
215.686	62.8
215.904	44.37
216.122	42.32
216.341	77.14
216.559	7.51
216.778	54.61
216.996	-17.07
217.214	-2.73
217.432	11.61
217.651	21.85
217.869	-6.83
218.087	54.61
218.306	13.65
218.524	77.14
218.742	68.95
218.96	66.9
219.179	40.28
219.397	34.13
219.615	114
219.833	25.94
220.051	85.33
220.27	52.56
220.488	81.24
220.706	75.09
220.924	21.85
221.142	44.37
221.36	17.75
221.578	97.62
221.796	1.37
222.015	48.47
222.233	-6.83
222.451	-31.4
222.669	9.56
222.887	85.33
223.105	30.04
223.323	-37.55
223.541	-53.93
223.759	79.19
223.977	-2.73
224.195	60.76
224.413	95.57
224.631	11.61
224.849	19.8
225.067	75.09
225.285	25.94
225.503	13.65
225.721	-51.88
225.939	79.19
226.157	21.85
226.375	99.67
226.592	21.85
226.81	1.37
227.028	25.94
227.246	54.61
227.464	62.8
227.682	81.24
227.9	48.47
228.117	60.76
228.335	-2.73
228.553	38.23
228.771	38.23
228.989	-8.87
229.206	46.42
229.424	52.56
229.642	54.61
229.86	25.94
230.077	130.39
230.295	15.7
230.513	58.71
230.731	54.61
230.948	101.72
231.166	30.04
231.384	54.61
231.601	-45.74
231.819	111.96
232.037	9.56
232.254	36.18
232.472	60.76
232.689	30.04
232.907	52.56
233.125	27.99
233.342	5.46
233.56	17.75
233.777	87.38
233.995	30.04
234.213	91.48
234.43	89.43
234.648	3.41
234.865	71
235.083	64.85
235.3	32.08
235.518	71
235.735	71
235.953	38.23
236.17	-41.64
236.388	30.04
236.605	17.75
236.822	116.05
237.04	17.75
237.257	32.08
237.475	-2.73
237.692	79.19
237.909	17.75
238.127	3.41
238.344	-21.16
238.562	103.76
238.779	-37.55
238.996	15.7
239.214	71
239.431	30.04
239.648	38.23
239.865	85.33
240.083	-19.11
240.3	79.19
240.517	34.13
240.735	-0.68
240.952	85.33
241.169	25.94
241.386	19.8
241.603	38.23
241.821	36.18
242.038	60.76
242.255	68.95
242.472	50.52
242.689	25.94
242.907	30.04
243.124	97.62
243.341	-80.55
243.558	27.99
243.775	83.28
243.992	46.42
244.209	71
244.426	109.91
244.643	-19.11
244.86	30.04
245.078	68.95
245.295	-12.97
245.512	79.19
245.729	13.65
245.946	68.95
246.163	23.89
246.38	30.04
246.597	46.42
246.814	25.94
247.031	111.96
247.248	103.76
247.464	34.13
247.681	42.32
247.898	44.37
248.115	50.52
248.332	36.18
248.549	91.48
248.766	-8.87
248.983	101.72
249.2	-21.16
249.417	-15.02
249.633	-17.07
249.85	3.41
250.067	34.13
250.284	58.71
250.501	25.94
250.717	44.37
250.934	-25.26
251.151	42.32
251.368	34.13
251.585	19.8
251.801	5.46
252.018	-41.64
252.235	132.44
252.451	87.38
252.668	30.04
252.885	118.1
253.102	60.76
253.318	79.19
253.535	30.04
253.752	116.05
253.968	7.51
254.185	52.56
254.401	13.65
254.618	52.56
254.835	-6.83
255.051	103.76
255.268	58.71
255.484	52.56
255.701	56.66
255.917	50.52
256.134	54.61
256.351	13.65
256.567	36.18
256.784	36.18
257	66.9
257.217	85.33
257.433	-8.87
257.65	54.61
257.866	50.52
258.082	-17.07
258.299	68.95
258.515	58.71
258.732	9.56
258.948	105.81
259.165	15.7
259.381	25.94
259.597	25.94
259.814	42.32
260.03	-2.73
260.246	79.19
260.463	120.15
260.679	124.24
260.895	21.85
261.112	-0.68
261.328	-60.07
261.544	30.04
261.761	140.63
261.977	21.85
262.193	25.94
262.409	-2.73
262.626	19.8
262.842	54.61
263.058	-4.78
263.274	13.65
263.49	-31.4
263.707	71
263.923	81.24
264.139	-4.78
264.355	58.71
264.571	25.94
264.787	54.61
265.004	32.08
265.22	99.67
265.436	71
265.652	107.86
265.868	40.28
266.084	-39.59
266.3	48.47
266.516	-47.79
266.732	52.56
266.948	52.56
267.164	21.85
267.38	79.19
267.596	11.61
267.812	62.8
268.028	46.42
268.244	13.65
268.46	1.37
268.676	87.38
268.892	23.89
269.108	34.13
269.324	-0.68
269.54	11.61
269.756	58.71
269.972	46.42
270.188	136.53
270.403	-10.92
270.619	83.28
270.835	103.76
271.051	60.76
271.267	62.8
271.483	71
271.698	62.8
271.914	36.18
272.13	42.32
272.346	71
272.562	83.28
272.777	95.57
272.993	66.9
273.209	27.99
273.425	30.04
273.64	-17.07
273.856	21.85
274.072	95.57
274.287	34.13
274.503	34.13
274.719	89.43
274.934	79.19
275.15	36.18
275.366	11.61
275.581	56.66
275.797	11.61
276.012	-12.97
276.228	15.7
276.444	40.28
276.659	40.28
276.875	79.19
277.09	68.95
277.306	46.42
277.521	75.09
277.737	40.28
277.952	17.75
278.168	87.38
278.383	38.23
278.599	54.61
278.814	75.09
279.03	44.37
279.245	71
279.461	46.42
279.676	54.61
279.892	54.61
280.107	-35.5
280.322	15.7
280.538	116.05
280.753	42.32
280.969	148.82
281.184	81.24
281.399	136.53
281.615	30.04
281.83	60.76
282.045	30.04
282.26	-21.16
282.476	81.24
282.691	87.38
282.906	44.37
283.122	23.89
283.337	11.61
283.552	19.8
283.767	62.8
283.983	109.91
284.198	40.28
284.413	30.04
284.628	21.85
284.843	99.67
285.058	52.56
285.274	-37.55
285.489	36.18
285.704	85.33
285.919	66.9
286.134	54.61
286.349	46.42
286.564	13.65
286.779	152.92
286.995	11.61
287.21	40.28
287.425	44.37
287.64	62.8
287.855	54.61
288.07	-51.88
288.285	93.52
288.5	77.14
288.715	87.38
288.93	5.46
289.145	73.04
289.36	-19.11
289.575	54.61
289.79	79.19
290.004	62.8
290.219	103.76
290.434	5.46
290.649	62.8
290.864	48.47
291.079	-2.73
291.294	77.14
291.509	13.65
291.724	21.85
291.938	148.82
292.153	38.23
292.368	-4.78
292.583	89.43
292.798	85.33
293.012	13.65
293.227	27.99
293.442	-4.78
293.657	79.19
293.871	140.63
294.086	109.91
294.301	99.67
294.516	58.71
294.73	1.37
294.945	-4.78
295.16	38.23
295.374	13.65
295.589	54.61
295.804	36.18
296.018	30.04
296.233	126.29
296.447	99.67
296.662	54.61
296.877	58.71
297.091	-0.68
297.306	68.95
297.52	5.46
297.735	42.32
297.949	91.48
298.164	50.52
298.378	60.76
298.593	62.8
298.807	60.76
299.022	54.61
299.236	157.01
299.451	58.71
299.665	19.8
299.88	95.57
300.094	1.37
300.309	42.32
300.523	89.43
300.737	1.37
300.952	-10.92
301.166	-2.73
301.381	40.28
301.595	83.28
301.809	42.32
302.024	66.9
302.238	5.46
302.452	13.65
302.667	62.8
302.881	42.32
303.095	-23.21
303.309	64.85
303.524	5.46
303.738	93.52
303.952	38.23
304.166	11.61
304.381	25.94
304.595	126.29
304.809	46.42
305.023	56.66
305.237	21.85
305.452	81.24
305.666	111.96
305.88	132.44
306.094	73.04
306.308	56.66
306.522	152.92
306.736	105.81
306.95	105.81
307.164	21.85
307.379	19.8
307.593	91.48
307.807	60.76
308.021	79.19
308.235	79.19
308.449	36.18
308.663	46.42
308.877	30.04
309.091	103.76
309.305	95.57
309.519	5.46
309.733	50.52
309.947	7.51
310.161	48.47
310.374	9.56
310.588	79.19
310.802	-6.83
311.016	54.61
311.23	77.14
311.444	91.48
311.658	120.15
311.872	73.04
312.085	62.8
312.299	19.8
312.513	38.23
312.727	7.51
312.941	3.41
313.154	-8.87
313.368	66.9
313.582	73.04
313.796	30.04
314.009	64.85
314.223	46.42
314.437	15.7
314.651	13.65
314.864	-0.68
315.078	60.76
315.292	56.66
315.505	58.71
315.719	46.42
315.933	50.52
316.146	3.41
316.36	79.19
316.573	75.09
316.787	109.91
317.001	91.48
317.214	-64.17
317.428	60.76
317.641	40.28
317.855	50.52
318.068	40.28
318.282	68.95
318.495	48.47
318.709	19.8
318.922	1.37
319.136	32.08
319.349	30.04
319.563	167.25
319.776	54.61
319.99	66.9
320.203	23.89
320.417	77.14
320.63	56.66
320.843	128.34
321.057	62.8
321.27	40.28
321.483	36.18
321.697	56.66
321.91	-2.73
322.124	38.23
322.337	34.13
322.55	7.51
322.763	48.47
322.977	93.52
323.19	48.47
323.403	107.86
323.617	73.04
323.83	46.42
324.043	30.04
324.256	21.85
324.469	79.19
324.683	50.52
324.896	9.56
325.109	66.9
325.322	75.09
325.535	21.85
325.748	11.61
325.962	79.19
326.175	15.7
326.388	93.52
326.601	62.8
326.814	68.95
327.027	30.04
327.24	99.67
327.453	13.65
327.666	95.57
327.879	42.32
328.092	48.47
328.305	17.75
328.518	50.52
328.731	122.2
328.944	85.33
329.157	95.57
329.37	15.7
329.583	95.57
329.796	77.14
330.009	9.56
330.222	101.72
330.435	85.33
330.648	32.08
330.861	38.23
331.073	46.42
331.286	-12.97
331.499	91.48
331.712	-0.68
331.925	95.57
332.138	101.72
332.35	60.76
332.563	15.7
332.776	54.61
332.989	13.65
333.202	13.65
333.414	50.52
333.627	58.71
333.84	1.37
334.053	81.24
334.265	32.08
334.478	66.9
334.691	50.52
334.903	-0.68
335.116	68.95
335.329	36.18
335.541	58.71
335.754	34.13
335.966	13.65
336.179	38.23
336.392	46.42
336.604	64.85
336.817	62.8
337.029	85.33
337.242	75.09
337.454	116.05
337.667	-4.78
337.88	64.85
338.092	81.24
338.305	93.52
338.517	42.32
338.729	83.28
338.942	42.32
339.154	36.18
339.367	13.65
339.579	-19.11
339.792	62.8
340.004	9.56
340.217	-8.87
340.429	77.14
340.641	38.23
340.854	11.61
341.066	21.85
341.278	95.57
341.491	58.71
341.703	36.18
341.915	-0.68
342.128	40.28
342.34	56.66
342.552	91.48
342.764	71
342.977	95.57
343.189	-2.73
343.401	30.04
343.613	56.66
343.826	116.05
344.038	-10.92
344.25	107.86
344.462	87.38
344.674	58.71
344.886	68.95
345.099	50.52
345.311	93.52
345.523	7.51
345.735	-37.55
345.947	-2.73
346.159	77.14
346.371	58.71
346.583	34.13
346.795	132.44
347.007	66.9
347.219	87.38
347.431	60.76
347.643	83.28
347.855	17.75
348.067	32.08
348.279	5.46
348.491	105.81
348.703	93.52
348.915	58.71
349.127	44.37
349.339	77.14
349.551	46.42
349.763	124.24
349.975	5.46
350.187	64.85
350.399	83.28
350.61	68.95
350.822	40.28
351.034	79.19
351.246	44.37
351.458	91.48
351.669	25.94
351.881	66.9
352.093	30.04
352.305	140.63
352.517	77.14
352.728	25.94
352.94	73.04
353.152	136.53
353.363	60.76
353.575	122.2
353.787	132.44
353.999	101.72
354.21	154.96
354.422	-19.11
354.633	85.33
354.845	87.38
355.057	79.19
355.268	105.81
355.48	79.19
355.692	23.89
355.903	60.76
356.115	68.95
356.326	58.71
356.538	56.66
356.749	97.62
356.961	140.63
357.172	25.94
357.384	7.51
357.595	62.8
357.807	30.04
358.018	48.47
358.23	46.42
358.441	38.23
358.653	154.96
358.864	-27.31
359.075	68.95
359.287	111.96
359.498	91.48
359.709	95.57
359.921	-12.97
360.132	95.57
360.344	36.18
360.555	93.52
360.766	89.43
360.977	140.63
361.189	46.42
361.4	71
361.611	130.39
361.823	128.34
362.034	77.14
362.245	-8.87
362.456	64.85
362.667	71
362.879	11.61
363.09	46.42
363.301	91.48
363.512	103.76
363.723	42.32
363.935	27.99
364.146	52.56
364.357	42.32
364.568	140.63
364.779	71
364.99	107.86
365.201	52.56
365.412	95.57
365.623	25.94
365.834	42.32
366.045	79.19
366.256	44.37
366.467	38.23
366.678	105.81
366.889	79.19
367.1	40.28
367.311	68.95
367.522	54.61
367.733	95.57
367.944	54.61
368.155	101.72
368.366	89.43
368.577	120.15
368.788	132.44
368.999	46.42
369.209	36.18
369.42	118.1
369.631	140.63
369.842	66.9
370.053	23.89
370.264	54.61
370.474	66.9
370.685	25.94
370.896	52.56
371.107	77.14
371.317	60.76
371.528	118.1
371.739	107.86
371.95	27.99
372.16	58.71
372.371	44.37
372.582	77.14
372.792	38.23
373.003	111.96
373.214	140.63
373.424	99.67
373.635	136.53
373.846	93.52
374.056	83.28
374.267	30.04
374.477	71
374.688	58.71
374.898	64.85
375.109	54.61
375.319	89.43
375.53	136.53
375.74	101.72
375.951	64.85
376.161	95.57
376.372	167.25
376.582	71
376.793	93.52
377.003	44.37
377.214	116.05
377.424	103.76
377.635	21.85
377.845	56.66
378.055	66.9
378.266	58.71
378.476	58.71
378.686	42.32
378.897	58.71
379.107	36.18
379.317	95.57
379.528	85.33
379.738	64.85
379.948	21.85
380.158	13.65
380.369	44.37
380.579	58.71
380.789	109.91
380.999	79.19
381.21	75.09
381.42	89.43
381.63	44.37
381.84	87.38
382.05	99.67
382.261	140.63
382.471	68.95
382.681	56.66
382.891	93.52
383.101	148.82
383.311	79.19
383.521	116.05
383.731	118.1
383.941	60.76
384.151	46.42
384.361	97.62
384.571	97.62
384.781	128.34
384.991	150.87
385.201	124.24
385.411	87.38
385.621	32.08
385.831	50.52
386.041	13.65
386.251	50.52
386.461	-0.68
386.671	124.24
386.881	75.09
387.091	62.8
387.301	107.86
387.511	97.62
387.72	95.57
387.93	73.04
388.14	-10.92
388.35	105.81
388.56	103.76
388.769	93.52
388.979	87.38
389.189	109.91
389.399	-19.11
389.609	120.15
389.818	159.06
390.028	111.96
390.238	122.2
390.447	126.29
390.657	36.18
390.867	66.9
391.076	83.28
391.286	48.47
391.496	50.52
391.705	154.96
391.915	111.96
392.125	103.76
392.334	81.24
392.544	197.97
392.753	75.09
392.963	77.14
393.172	81.24
393.382	193.87
393.591	230.74
393.801	111.96
394.01	114
394.22	71
394.429	118.1
394.639	185.68
394.848	144.72
395.058	85.33
395.267	42.32
395.477	60.76
395.686	191.83
395.895	132.44
396.105	177.49
396.314	103.76
396.524	150.87
396.733	157.01
396.942	210.26
397.152	128.34
397.361	85.33
397.57	103.76
397.78	161.11
397.989	154.96
398.198	177.49
398.407	122.2
398.617	220.5
398.826	126.29
399.035	138.58
399.244	128.34
399.453	165.2
399.663	222.55
399.872	152.92
400.081	150.87
400.29	148.82
400.499	107.86
400.708	216.4
400.917	140.63
401.127	154.96
401.336	124.24
401.545	300.37
401.754	243.03
401.963	105.81
402.172	111.96
402.381	154.96
402.59	173.39
402.799	120.15
403.008	234.83
403.217	173.39
403.426	157.01
403.635	222.55
403.844	179.54
404.053	157.01
404.262	183.63
404.471	292.18
404.68	206.16
404.888	228.69
405.097	234.83
405.306	187.73
405.515	191.83
405.724	195.92
405.933	187.73
406.142	245.07
406.35	261.46
406.559	304.46
406.768	337.23
406.977	300.37
407.185	292.18
407.394	232.79
407.603	232.79
407.812	281.94
408.02	316.75
408.229	337.23
408.438	279.89
408.646	281.94
408.855	390.48
409.064	329.04
409.272	384.34
409.481	374.1
409.69	374.1
409.898	431.44
410.107	404.82
410.315	441.68
410.524	505.17
410.733	464.21
410.941	505.17
411.15	595.28
411.358	511.31
411.567	537.93
411.775	556.36
411.984	597.32
412.192	621.9
412.401	675.15
412.609	689.48
412.818	693.58
413.026	656.72
413.234	718.15
413.443	771.4
413.651	742.73
413.86	789.83
414.068	879.94
414.276	795.98
414.485	879.94
414.693	941.38
414.901	894.28
415.11	992.58
415.318	1031.49
415.526	943.43
415.734	1056.07
415.943	1236.29
416.151	1205.57
416.359	1103.17
416.567	1236.29
416.776	1254.72
416.984	1254.72
417.192	1400.13
417.4	1322.31
417.608	1377.6
417.817	1416.51
418.025	1566.01
418.233	1592.64
418.441	1617.21
418.649	1572.16
418.857	1758.52
419.065	1819.96
419.273	1826.11
419.481	1973.56
419.689	2045.24
419.897	2159.92
420.105	2190.64
420.313	2190.64
420.521	2241.84
420.729	2336.05
420.937	2329.91
421.145	2360.63
421.353	2729.26
421.561	2811.18
421.769	2782.51
421.977	2843.95
422.185	2831.66
422.393	3069.22
422.601	3231.01
422.809	3339.55
423.017	3214.63
423.224	3265.83
423.432	3495.2
423.64	3597.6
423.848	3740.96
424.056	3687.71
424.263	4109.59
424.471	4013.34
424.679	4066.58
424.887	4472.08
425.094	4535.57
425.302	4238.61
425.51	4637.97
425.718	4760.84
425.925	4844.81
426.133	5199.11
426.341	5297.41
426.548	5487.87
426.756	5528.83
426.964	5604.61
427.171	5946.62
427.379	6126.84
427.586	6264.05
427.794	6243.57
428.001	6601.97
428.209	6819.05
428.417	6821.1
428.624	7255.27
428.832	7257.32
429.039	7220.46
429.247	7150.82
429.454	8113.37
429.662	8357.08
429.869	8062.17
430.076	8533.2
430.284	8279.25
430.491	8651.99
430.699	9086.15
430.906	9080.01
431.114	9264.33
431.321	9761.98
431.528	9901.25
431.736	10433.72
431.943	10763.44
432.15	10605.75
432.358	10759.35
432.565	11361.45
432.772	11048.11
432.979	11816.1
433.187	11981.98
433.394	12156.06
433.601	12801.17
433.808	12883.09
434.016	12876.94
434.223	13307.02
434.43	14331
434.637	13976.7
434.844	14865.52
435.052	14957.68
435.259	14830.71
435.466	15262.83
435.673	15168.62
435.88	16280.67
436.087	16704.6
436.294	16966.74
436.501	16362.59
436.708	16819.28
436.915	17198.16
437.122	18107.46
437.329	18164.8
437.537	18748.47
437.743	18803.77
437.95	18631.74
438.157	19665.96
438.364	20151.33
438.571	20372.51
438.778	20456.48
438.985	22330.37
439.192	21240.85
439.399	22311.94
439.606	21625.87
439.813	23016.44
440.02	24185.83
440.227	23798.76
440.433	23385.07
440.64	24495.07
440.847	24173.54
441.054	25113.56
441.261	26309.57
441.467	26102.73
441.674	26665.92
441.881	27444.15
442.088	27483.06
442.294	27446.19
442.501	28038.06
442.708	28482.47
442.914	29789.07
443.121	30923.65
443.328	30102.41
443.534	31742.83
443.741	31589.24
443.948	31021.95
444.154	33155.93
444.361	32734.05
444.568	33125.21
444.774	32820.06
444.981	33301.34
445.187	34347.85
445.394	35687.22
445.6	35404.6
445.807	38642.44
446.013	36907.81
446.22	37714.71
446.426	39140.1
446.633	39406.33
446.839	40375.02
447.046	39136
447.252	41396.96
447.459	41786.07
447.665	41040.61
447.871	42918.6
448.078	44423.86
448.284	42879.69
448.491	43293.38
448.697	45089.45
448.903	45869.72
449.11	45746.84
449.316	45257.38
449.522	46045.85
449.728	47049.35
449.935	47643.26
450.141	47643.26
450.347	48519.79
450.553	46885.51
450.76	47583.87
450.966	49203.81
451.172	48378.48
451.378	49613.41
451.584	48626.29
451.791	50039.39
451.997	49781.34
452.203	50160.22
452.409	50530.9
452.615	50164.31
452.821	48218.74
453.027	47929.98
453.233	50115.16
453.44	47995.51
453.646	48986.73
453.852	48826.99
454.058	49767.01
454.264	47712.89
454.47	49072.74
454.676	47626.88
454.882	49121.9
455.088	45271.71
455.294	45662.88
455.5	46783.12
455.705	46807.69
455.911	45015.72
456.117	44202.67
456.323	43410.11
456.529	41417.44
456.735	43014.85
456.941	41818.84
457.147	41401.05
457.352	40182.51
457.558	39516.92
457.764	39918.32
457.97	38767.37
458.176	37923.6
458.381	38171.41
458.587	36256.56
458.793	36356.91
458.999	34485.06
459.204	37049.12
459.41	36221.74
459.616	33647.44
459.821	33588.05
460.027	33110.88
460.233	32543.59
460.438	30976.89
460.644	31472.5
460.85	29866.89
461.055	29553.55
461.261	29346.71
461.466	27579.31
461.672	26471.36
461.878	28271.53
462.083	26502.08
462.289	26254.28
462.494	25930.7
462.7	24869.85
462.905	24253.41
463.111	24794.07
463.316	25355.22
463.522	24597.47
463.727	24611.81
463.932	24296.42
464.138	24200.16
464.343	24415.2
464.549	23628.78
464.754	24736.73
464.959	24173.54
465.165	24228.84
465.37	23061.49
465.575	22420.48
465.781	23294.96
465.986	23712.75
466.191	22627.32
466.397	22248.45
466.602	20919.32
466.807	22129.67
467.012	22268.93
467.218	21724.17
467.423	21638.16
467.628	21922.82
467.833	22576.12
468.038	21881.86
468.244	21005.33
468.449	22113.28
468.654	21191.7
468.859	21326.86
469.064	21197.84
469.269	20220.96
469.474	20499.48
469.679	20562.97
469.885	20288.54
470.09	20401.18
470.295	20202.53
470.5	19743.78
470.705	19948.58
470.91	19598.38
471.115	19317.81
471.32	19817.51
471.525	19326
471.73	19125.3
471.935	18744.38
472.139	18285.63
472.344	18351.17
472.549	18181.18
472.754	17990.72
472.959	17835.08
473.164	17167.44
473.369	17108.05
473.574	17845.32
473.778	17452.11
473.983	17486.92
474.188	17146.96
474.393	16575.58
474.598	16747.61
474.802	16651.35
475.007	16471.13
475.212	16344.16
475.417	16084.06
475.621	15860.84
475.826	16059.49
476.031	15637.61
476.235	15330.41
476.44	15436.91
476.645	15277.16
476.849	15123.57
477.054	15027.31
477.259	14871.67
477.463	14818.42
477.668	14648.44
477.872	14484.6
478.077	14349.43
478.282	14083.2
478.486	13945.98
478.691	14001.28
478.895	13651.08
479.1	13739.14
479.304	13939.84
479.509	13456.52
479.713	13761.67
479.918	13376.65
480.122	13128.84
480.326	13255.82
480.531	13280.39
480.735	13458.57
480.94	12901.52
481.144	13532.29
481.348	12860.56
481.553	12985.49
481.757	12852.37
481.961	12946.58
482.166	13122.7
482.37	12895.38
482.574	12618.9
482.778	12623
482.983	13337.74
483.187	13012.11
483.391	12874.9
483.595	12780.69
483.8	12555.41
484.004	12760.21
484.208	12934.29
484.412	12702.87
484.616	12850.32
484.821	13016.21
485.025	12590.23
485.229	12899.47
485.433	12768.4
485.637	12682.39
485.841	12713.11
486.045	12582.04
486.249	12551.32
486.453	12799.12
486.657	12833.94
486.861	12878.99
487.065	12749.97
487.269	12790.93
487.473	12807.31
487.677	12969.1
487.881	12895.38
488.085	12833.94
488.289	13026.45
488.493	12563.61
488.697	12807.31
488.901	13053.07
489.105	12795.03
489.309	13048.97
489.512	12930.19
489.716	12811.41
489.92	12903.57
490.124	12809.36
490.328	13311.11
490.531	13077.65
490.735	13085.84
490.939	13214.86
491.143	12856.47
491.346	13059.21
491.55	13534.34
491.754	13294.73
491.958	13538.44
492.161	13591.69
492.365	13620.36
492.569	13628.55
492.772	13513.86
492.976	13618.31
493.18	13397.13
493.383	14003.33
493.587	13866.11
493.79	14011.52
493.994	13755.52
494.197	14032
494.401	14300.28
494.605	14253.18
494.808	14820.47
495.012	14417.02
495.215	14804.08
495.419	14859.38
495.622	14584.95
495.825	14771.32
496.029	14724.21
496.232	15023.22
496.436	15195.25
496.639	15610.98
496.843	15461.48
497.046	15678.57
497.249	15871.08
497.453	16088.16
497.656	16344.16
497.859	16254.05
498.063	16497.75
498.266	16821.33
498.469	16733.27
498.673	16882.77
498.876	17421.39
499.079	17732.68
499.282	17294.41
499.485	18031.68
499.689	17796.17
499.892	18267.2
500.095	17960
500.298	18635.83
500.501	18336.83
500.705	19053.62
500.908	19233.84
501.111	19358.77
501.314	19360.81
501.517	19430.44
501.72	20153.38
501.923	20036.64
502.126	20331.55
502.329	20755.48
502.532	20962.33
502.735	20941.85
502.938	21216.27
503.141	21416.97
503.344	21732.36
503.547	22021.13
503.75	22273.03
503.953	22256.64
504.156	22520.83
504.359	22805.5
504.562	22760.44
504.765	23223.28
504.968	23538.67
505.17	23794.67
505.373	23661.55
505.576	24345.57
505.779	24495.07
505.982	24740.83
506.185	24863.71
506.387	25562.06
506.59	25445.33
506.793	25852.87
506.996	25992.14
507.198	26620.86
507.401	26483.65
507.604	27124.66
507.807	27538.35
508.009	27550.64
508.212	27718.57
508.415	28576.67
508.617	28441.51
508.82	28615.58
509.022	28558.24
509.225	29193.11
509.428	29567.89
509.63	29750.16
509.833	29885.33
510.035	30430.08
510.238	30266.25
510.44	30901.12
510.643	31148.92
510.845	31513.46
511.048	31046.52
511.25	32103.28
511.453	32015.21
511.655	33545.05
511.858	32832.35
512.06	32865.12
512.262	33731.41
512.465	33366.87
512.667	34329.42
512.87	34528.07
513.072	34663.24
513.274	35169.08
513.477	35719.99
513.679	36074.29
513.881	35984.18
514.084	36580.14
514.286	36696.87
514.488	37053.22
514.69	37894.93
514.893	38042.38
515.095	37696.28
515.297	38605.58
515.499	38468.36
515.701	39195.39
515.904	39308.03
516.106	39609.08
516.308	39869.17
516.51	40643.31
516.712	40622.83
516.914	40958.69
517.116	41917.14
517.318	41573.08
517.52	42160.85
517.722	42150.61
517.925	42482.38
518.127	43166.4
518.329	43252.42
518.531	43389.63
518.733	44143.28
518.935	44673.71
519.136	44315.31
519.338	45087.4
519.54	45345.44
519.742	46023.32
519.944	46201.49
520.146	46561.93
520.348	47235.72
520.55	47184.52
520.752	47530.62
520.954	48495.22
521.155	47719.04
521.357	48638.58
521.559	48708.21
521.761	49472.1
521.963	49252.97
522.164	49998.43
522.366	50115.16
522.568	50813.52
522.77	51108.43
522.971	51614.27
523.173	50854.48
523.375	51694.14
523.576	51784.26
523.778	51755.58
523.98	52515.38
524.181	53041.71
524.383	52730.42
524.584	53289.51
524.786	54006.3
524.988	53445.16
525.189	54168.09
525.391	54381.08
525.592	55167.5
525.794	54684.18
525.995	54968.85
526.197	54983.18
526.398	55233.03
526.6	55818.75
526.801	55773.7
527.003	55978.5
527.204	56103.42
527.406	56947.18
527.607	56029.69
527.808	57262.57
528.01	55847.43
528.211	56863.22
528.412	57989.6
528.614	57481.7
528.815	57645.54
529.016	58368.47
529.218	57846.24
529.419	57975.26
529.62	58425.82
529.822	58266.08
530.023	57993.7
530.224	58120.67
530.425	59046.35
530.626	58341.85
530.828	57962.98
531.029	59529.67
531.23	58317.28
531.431	58741.21
531.632	59337.16
531.833	59441.61
532.035	59494.86
532.236	59431.37
532.437	59888.07
532.638	59455.95
532.839	59480.52
533.04	59840.96
533.241	58939.86
533.442	60406.2
533.643	59826.63
533.844	59865.54
534.045	60170.69
534.246	59464.14
534.447	60477.88
534.648	59890.12
534.849	60359.1
535.05	59531.72
535.251	60070.34
535.451	59554.25
535.652	60375.48
535.853	60357.05
536.054	60332.48
536.255	60133.82
536.456	59447.75
536.657	60717.49
536.857	60164.54
537.058	59906.5
537.259	60580.28
537.46	60477.88
537.66	60168.64
537.861	60389.82
538.062	60363.2
538.263	60989.87
538.463	59873.73
538.664	59947.46
538.865	60408.25
539.065	60643.77
539.266	60078.53
539.466	60893.62
539.667	59546.06
539.868	60656.06
540.068	60324.28
540.269	60326.33
540.469	60434.88
540.67	59980.23
540.87	60164.54
541.071	60225.98
541.271	60154.3
541.472	60049.86
541.672	60015.04
541.873	60385.72
542.073	59867.59
542.274	60463.55
542.474	60027.33
542.675	59726.28
542.875	60701.11
543.075	60033.47
543.276	59621.83
543.476	60733.88
543.676	59918.79
543.877	60115.39
544.077	60066.24
544.277	59890.12
544.478	59916.74
544.678	60246.46
544.878	60418.49
545.078	59568.58
545.279	59865.54
545.479	59685.32
545.679	60086.72
545.879	59933.12
546.079	60113.34
546.28	60070.34
546.48	59345.36
546.68	60111.3
546.88	60537.27
547.08	60103.1
547.28	59685.32
547.48	59859.4
547.68	59775.43
547.88	59607.5
548.081	60254.65
548.281	60129.73
548.481	59857.35
548.681	60101.06
548.881	59845.06
549.081	59472.33
549.28	59607.5
549.48	60367.29
549.68	59677.13
549.88	60510.65
550.08	59851.2
550.28	59632.07
550.48	59660.74
550.68	60111.3
550.88	59627.98
551.08	59875.78
551.279	59675.08
551.479	59308.49
551.679	59525.58
551.879	59351.5
552.079	60041.67
552.278	59648.46
552.478	59638.22
552.678	59576.78
552.878	60074.43
553.077	59025.87
553.277	58790.36
553.477	59785.67
553.676	59013.58
553.876	59279.82
554.076	58939.86
554.275	59107.79
554.475	58751.44
554.674	58866.13
554.874	59025.87
555.074	59136.46
555.273	59300.3
555.473	59480.52
555.672	58757.59
555.872	58735.06
556.071	59351.5
556.271	59431.37
556.47	58898.9
556.67	58386.91
556.869	58343.9
557.068	58952.15
557.268	58360.28
557.467	58517.98
557.667	58522.07
557.866	58296.8
558.065	58505.69
558.265	58233.31
558.464	58132.96
558.663	58716.63
558.863	57692.64
559.062	58747.35
559.261	57692.64
559.461	58358.23
559.66	57215.47
559.859	57801.19
560.058	57297.39
560.258	57420.27
560.457	57037.29
560.656	57856.48
560.855	57401.83
561.054	57567.72
561.253	56191.48
561.453	57407.98
561.652	57485.8
561.851	57055.73
562.05	56654.32
562.249	56177.15
562.448	57057.77
562.647	56809.97
562.846	56814.07
563.045	55998.97
563.244	55863.81
563.443	56517.11
563.642	55984.64
563.841	56297.98
564.04	56027.65
564.239	56039.93
564.438	55548.42
564.637	56191.48
564.836	55589.38
565.035	55230.99
565.234	55921.15
565.432	54974.99
565.631	55314.95
565.83	55392.78
566.029	54796.82
566.228	54958.61
566.427	54772.24
566.625	54364.7
566.824	53862.94
567.023	55171.6
567.222	53918.24
567.42	54546.96
567.619	54295.06
567.818	54487.57
568.016	53803.55
568.215	54184.47
568.414	53713.44
568.612	54106.65
568.811	53510.69
569.01	53539.36
569.208	53148.2
569.407	53686.82
569.605	52724.27
569.804	53357.1
570.002	52439.61
570.201	53240.36
570.4	52240.95
570.598	52353.59
570.797	52003.39
570.995	52677.17
571.193	51522.12
571.392	52460.08
571.59	51640.9
571.789	51847.74
571.987	51528.26
572.186	51857.98
572.384	50985.55
572.582	51558.98
572.781	51419.72
572.979	50608.72
573.177	51167.82
573.376	51380.81
573.574	50846.29
573.772	50606.67
573.971	50477.65
574.169	50307.67
574.367	49834.59
574.565	50313.81
574.763	50053.72
574.962	50199.13
575.16	49289.83
575.358	49830.49
575.556	49207.91
575.754	50141.78
575.952	48687.73
576.151	49420.9
576.349	48933.48
576.547	49056.36
576.745	48847.47
576.943	48982.63
577.141	48956.01
577.339	48233.08
577.537	48343.67
577.735	48243.32
577.933	47598.21
578.131	48355.96
578.329	47817.34
578.527	47475.33
578.725	48097.91
578.923	47905.4
579.121	47733.37
579.319	46905.99
579.516	47745.66
579.714	47317.64
579.912	47182.47
580.11	47209.09
580.308	46865.03
580.506	46715.53
580.704	46047.89
580.901	46217.88
581.099	47012.49
581.297	45902.49
581.495	45890.2
581.692	46076.57
581.89	45574.81
582.088	45957.78
582.285	45460.13
582.483	46197.4
582.681	45247.14
582.878	45134.5
583.076	45337.25
583.274	45126.31
583.471	44679.85
583.669	45122.21
583.866	44706.48
584.064	44915.37
584.262	44001.97
584.459	44884.65
584.657	44348.08
584.854	44296.88
585.052	43516.61
585.249	44042.93
585.447	44096.18
585.644	43694.78
585.841	43774.65
586.039	43686.59
586.236	43283.14
586.434	43211.46
586.631	43059.91
586.828	43031.24
587.026	42650.31
587.223	42562.25
587.42	42533.58
587.618	42506.96
587.815	42244.82
588.012	42285.78
588.21	41573.08
588.407	42547.92
588.604	41784.02
588.801	41601.75
588.999	41927.38
589.196	41421.53
589.393	41474.78
589.59	41327.33
589.787	41163.49
589.984	41005.8
590.182	40702.7
590.379	41280.22
590.576	40661.74
590.773	40960.74
590.97	40272.62
591.167	40585.96
591.364	39838.45
591.561	40418.03
591.758	40151.79
591.955	39813.88
592.152	39897.84
592.349	39549.69
592.546	39715.58
592.743	39635.7
592.94	39328.51
593.137	39273.21
593.334	39533.31
593.531	38984.45
593.727	39277.31
593.924	39027.46
594.121	38099.73
594.318	39281.41
594.515	38527.75
594.712	38488.84
594.908	37851.92
595.105	38275.85
595.302	37903.12
595.499	38173.45
595.696	37794.58
595.892	37788.44
596.089	37796.63
596.286	37454.62
596.482	37260.06
596.679	37501.72
596.876	37124.89
597.072	37077.79
597.269	37286.68
597.466	36858.66
597.662	36604.71
597.859	36776.74
598.055	36690.73
598.252	36707.11
598.448	36383.53
598.645	36279.08
598.841	35941.17
599.038	36395.82
599.234	35758.9
599.431	35568.44
599.627	35629.88
599.824	36088.62
600.02	35826.48
600.217	35349.31
600.413	35576.63
600.609	35259.2
600.806	35167.04
601.002	35271.48
601.198	34980.67
601.395	34706.24
601.591	34757.44
601.787	34554.69
601.984	34175.82
602.18	34820.93
602.376	34245.45
602.572	34106.19
602.769	33921.87
602.965	33586
603.161	34083.66
603.357	33764.18
603.553	33993.55
603.75	33508.18
603.946	33456.98
604.142	33479.51
604.338	33086.3
604.534	33315.67
604.73	32861.02
604.926	32705.38
605.122	32998.24
605.318	32693.09
605.514	32797.54
605.71	32299.88
605.906	32564.07
606.102	32490.34
606.298	32508.77
606.494	32332.65
606.69	32236.39
606.886	32242.54
607.082	31656.82
607.278	32181.1
607.474	31230.84
607.67	31746.93
607.866	31400.82
608.062	31867.76
608.257	31556.47
608.453	31538.04
608.649	31613.81
608.845	31169.4
609.041	31196.03
609.236	31191.93
609.432	31325.05
609.628	31243.13
609.824	31056.76
610.019	31138.68
610.215	30860.16
610.411	31101.82
610.606	30763.9
610.802	30837.63
610.998	30354.31
611.193	30528.39
611.389	30077.83
611.584	30583.68
611.78	30174.09
611.976	30163.85
612.171	30235.53
612.367	30249.86
612.562	30020.49
612.758	29703.06
612.953	29961.1
613.149	30172.04
613.344	29215.64
613.539	30108.55
613.735	29946.76
613.93	29617.04
614.126	29506.45
614.321	29860.75
614.517	29725.58
614.712	29592.47
614.907	29301.65
615.103	29574.03
615.298	29199.26
615.493	29371.29
615.688	29006.75
615.884	29645.71
616.079	28758.94
616.274	29250.46
616.47	29045.66
616.665	28996.51
616.86	28648.35
617.055	28650.4
617.25	28693.41
617.445	28693.41
617.641	28464.03
617.836	28484.51
618.031	28425.12
618.226	28498.85
618.421	27919.28
618.616	28283.81
618.811	27906.99
619.006	28222.37
619.201	27573.17
619.396	27849.64
619.591	27134.9
619.786	27491.25
619.981	27177.91
620.176	27526.07
620.371	26893.24
620.566	27364.28
620.761	27067.32
620.956	27179.96
621.151	26739.65
621.346	26981.31
621.541	26084.3
621.735	26418.11
621.93	25930.7
622.125	25983.94
622.32	25830.35
622.515	26182.6
622.709	25895.88
622.904	25695.18
623.099	25490.38
623.294	25439.19
623.488	25424.85
623.683	25117.65
623.878	24931.29
624.072	25199.57
624.267	24855.51
624.462	24552.41
624.656	24419.3
624.851	24890.33
625.046	24261.6
625.24	23966.7
625.435	24255.46
625.629	24110.05
625.824	23692.27
626.018	23466.99
626.213	23198.71
626.407	23409.65
626.602	23229.43
626.796	23561.2
626.991	23055.35
627.185	22811.64
627.38	22930.42
627.574	22653.95
627.768	22438.91
627.963	22412.29
628.157	22082.56
628.352	22361.09
628.546	22068.23
628.74	22152.2
628.935	21814.28
629.129	22098.95
629.323	21529.61
629.517	21644.3
629.712	21685.26
629.906	21312.53
630.1	21296.14
630.294	21236.75
630.489	21011.48
630.683	21183.51
630.877	20579.36
631.071	20444.19
631.265	20536.35
631.459	20415.52
631.653	20411.42
631.848	20218.91
632.042	20036.64
632.236	19995.68
632.43	19854.37
632.624	19909.67
632.818	19842.09
633.012	19907.62
633.206	19209.26
633.4	19727.4
633.594	19319.85
633.788	19237.94
633.982	19321.9
634.176	19231.79
634.369	18791.48
634.563	18510.91
634.757	18863.16
634.951	18641.98
635.145	18441.28
635.339	18478.14
635.533	18359.36
635.726	18404.41
635.92	18080.83
636.114	18283.58
636.308	17996.87
636.501	17976.39
636.695	17755.21
636.889	17562.7
637.083	17392.72
637.276	17353.8
637.47	17400.91
637.664	17253.45
637.857	16989.27
638.051	17138.77
638.244	16954.45
638.438	16897.11
638.632	16639.06
638.825	16882.77
639.019	16626.78
639.212	16671.83
639.406	16321.63
639.599	16153.69
639.793	16247.9
639.986	16399.45
640.18	15971.43
640.373	16067.68
640.567	15987.81
640.76	16082.02
640.954	15531.11
641.147	15629.41
641.34	15656.04
641.534	15651.94
641.727	15215.73
641.92	15236.2
642.114	15209.58
642.307	15363.18
642.5	15084.66
642.694	14933.11
642.887	14847.09
643.08	14904.43
643.273	14781.56
643.467	14888.05
643.66	14316.67
643.853	14644.34
644.046	14218.36
644.239	14615.67
644.432	14410.87
644.626	14191.74
644.819	14242.94
645.012	14353.53
645.205	13919.36
645.398	13954.18
645.591	13816.96
645.784	13839.49
645.977	13939.84
646.17	13776
646.363	13507.72
646.556	13397.13
646.749	13540.49
646.942	13513.86
647.135	13255.82
647.328	13225.1
647.521	13284.49
647.714	12956.82
647.907	13126.8
648.099	13059.21
648.292	12915.86
648.485	12893.33
648.678	12586.13
648.871	12684.44
649.064	12776.59
649.256	12721.3
649.449	12274.84
649.642	12346.52
649.835	12287.13
650.027	12205.21
650.22	12266.65
650.413	12244.12
650.605	12078.24
650.798	12037.28
650.991	11981.98
651.183	12092.57
651.376	11756.71
651.568	11877.54
651.761	11746.47
651.954	11908.26
652.146	11607.2
652.339	11709.6
652.531	11416.74
652.724	11410.6
652.916	11420.84
653.109	11449.51
653.301	11291.82
653.494	11130.03
653.686	11033.77
653.879	11261.1
654.071	11154.6
654.263	10906.8
654.456	10943.66
654.648	10839.22
654.84	10722.48
655.033	10667.19
655.225	10368.18
655.417	10568.88
655.61	10478.77
655.802	10679.47
655.994	10626.23
656.186	10529.97
656.379	10302.65
656.571	10151.1
656.763	10093.76
656.955	10241.21
657.148	10253.5
657.34	10032.32
657.532	9997.5
657.724	10230.97
657.916	9962.69
658.108	9956.54
658.3	9942.21
658.492	9962.69
658.684	9657.54
658.876	9698.5
659.068	9794.75
659.26	9637.06
659.452	9690.31
659.644	9551.04
659.836	9376.97
660.028	9454.79
660.22	9217.22
660.412	9258.18
660.604	9090.25
660.796	9407.69
660.988	9194.7
661.18	9178.31
661.372	8996.04
661.563	8858.83
661.755	9006.28
661.947	8858.83
662.139	8858.83
662.331	8809.68
662.522	8570.07
662.714	8756.43
662.906	8813.77
663.097	8758.48
663.289	8606.93
663.481	8617.17
663.673	8408.28
663.864	8279.25
664.056	8426.71
664.247	8565.97
664.439	8332.5
664.631	8369.37
664.822	8305.88
665.014	8297.69
665.205	8144.09
665.397	8193.24
665.588	8121.56
665.78	8084.7
665.971	8135.9
666.163	8072.41
666.354	8015.07
666.546	7873.76
666.737	7974.11
666.929	8013.02
667.12	7771.36
667.311	7834.85
667.503	7677.15
667.694	7824.61
667.885	7652.58
668.077	7664.86
668.268	7591.14
668.459	7513.31
668.651	7531.75
668.842	7619.81
669.033	7621.86
669.224	7408.87
669.416	7425.25
669.607	7435.49
669.798	7374.05
669.989	7451.88
670.18	7322.85
670.371	7261.41
670.563	7275.75
670.754	7292.13
670.945	7169.26
671.136	7204.07
671.327	7234.79
671.518	7068.91
671.709	7181.54
671.9	7066.86
672.091	6915.31
672.282	6950.12
672.473	7003.37
672.664	6876.4
672.855	6819.05
673.046	6878.44
673.237	6909.16
673.428	7017.71
673.619	6839.53
673.809	6612.21
674	6798.57
674.191	6757.61
674.382	6647.02
674.573	6655.22
674.764	6599.92
674.954	6571.25
675.145	6323.44
675.336	6663.41
675.527	6558.96
675.717	6421.75
675.908	6399.22
676.099	6360.31
676.289	6526.19
676.48	6511.86
676.671	6481.14
676.861	6362.36
677.052	6253.81
677.243	6286.58
677.433	6378.74
677.624	6556.91
677.814	6196.47
678.005	6370.55
678.195	6409.46
678.386	6296.82
678.576	6145.27
678.767	6333.68
678.957	6163.7
679.148	6216.95
679.338	6128.89
679.529	6132.98
679.719	6081.78
679.909	6251.77
680.1	6188.28
680.29	6202.61
680.481	6208.76
680.671	6182.14
680.861	6112.5
681.052	6079.74
681.242	6055.16
681.432	6044.92
681.622	6059.26
681.813	6001.91
682.003	6210.81
682.193	5963
682.383	6034.68
682.573	5860.6
682.764	5971.19
682.954	6001.91
683.144	5862.65
683.334	5848.32
683.524	5872.89
683.714	5934.33
683.904	5745.92
684.094	5821.69
684.284	5774.59
684.474	5901.56
684.664	5829.88
684.854	5817.6
685.044	5717.25
685.234	5606.66
685.424	5692.67
685.614	5580.03
685.804	5496.07
685.994	5592.32
686.184	5678.33
686.374	5803.26
686.564	5496.07
686.753	5571.84
686.943	5410.05
687.133	5590.27
687.323	5387.52
687.513	5430.53
687.702	5418.24
687.892	5444.87
688.082	5240.07
688.272	5387.52
688.461	5403.91
688.651	5231.88
688.841	5223.69
689.03	5424.39
689.22	5324.04
689.41	5113.1
689.599	5217.54
689.789	5166.34
689.979	5172.49
690.168	5229.83
690.358	5104.9
690.547	5178.63
690.737	5106.95
690.926	5192.97
691.116	5033.22
691.305	5129.48
691.495	4951.31
691.684	5059.85
691.874	4971.79
692.063	4961.55
692.252	4994.31
692.442	5039.37
692.631	4871.43
692.82	4924.68
693.01	4775.18
693.199	4848.91
693.388	4805.9
693.578	4793.61
693.767	4828.43
693.956	4633.87
694.146	4711.69
694.335	4670.73
694.524	4803.85
694.713	4781.32
694.902	4762.89
695.092	4703.5
695.281	4662.54
695.47	4726.03
695.659	4580.62
695.848	4607.25
696.037	4549.9
696.226	4748.56
696.415	4662.54
696.604	4691.21
696.793	4670.73
696.982	4701.45
697.171	4668.69
697.36	4541.71
697.549	4531.47
697.738	4594.96
697.927	4424.98
698.116	4513.04
698.305	4476.18
698.494	4500.75
698.683	4535.57
698.872	4539.66
699.061	4347.15
699.25	4398.35
699.438	4465.94
699.627	4531.47
699.816	4424.98
700.005	4480.27
700.193	4406.55
700.382	4603.15
700.571	4498.7
700.76	4435.22
700.948	4535.57
701.137	4357.39
701.326	4437.27
701.514	4363.54
701.703	4408.59
701.892	4418.83
702.08	4420.88
702.269	4359.44
702.457	4367.63
702.646	4353.3
702.834	4332.82
703.023	4386.07
703.212	4293.91
703.4	4351.25
703.589	4246.8
703.777	4412.69
703.965	4199.7
704.154	4306.2
704.342	4242.71
704.531	4275.48
704.719	4232.47
704.907	4269.33
705.096	4150.55
705.284	4259.09
705.472	4242.71
705.661	4201.75
705.849	4224.28
706.037	4207.89
706.226	4304.15
706.414	4224.28
706.602	4345.11
706.79	4338.96
706.979	4175.13
707.167	4205.85
707.355	4160.79
707.543	4113.69
707.731	4195.61
707.919	4252.95
708.107	4148.5
708.296	4236.56
708.484	4107.54
708.672	4062.49
708.86	4121.88
709.048	4195.61
709.236	4103.45
709.424	4273.43
709.612	4252.95
709.8	4289.81
709.988	4072.73
710.176	4207.89
710.364	4175.13
710.551	4134.17
710.739	4103.45
710.927	4019.48
711.115	4164.89
711.303	4197.65
711.491	4150.55
711.679	4226.32
711.866	4117.78
712.054	4179.22
712.242	4009.24
712.43	4226.32
712.617	4193.56
712.805	4138.26
712.993	4074.78
713.181	4130.07
713.368	4218.13
713.556	4205.85
713.744	4152.6
713.931	4189.46
714.119	4115.73
714.306	4054.3
714.494	4101.4
714.682	4154.65
714.869	4201.75
715.057	4113.69
715.244	4128.02
715.432	4171.03
715.619	4168.98
715.807	4109.59
715.994	3984.66
716.182	4101.4
716.369	4074.78
716.556	4011.29
716.744	3988.76
716.931	4224.28
717.119	4035.86
717.306	4087.06
717.493	4052.25
717.681	4085.02
717.868	4283.67
718.055	3996.95
718.242	4056.34
718.43	3919.13
718.617	3994.9
718.804	4015.38
718.991	3949.85
719.179	4009.24
719.366	3925.27
719.553	4101.4
719.74	3910.94
719.927	4013.34
720.114	3980.57
720.301	4181.27
720.488	3951.9
720.676	4044.06
720.863	3951.9
721.05	4064.54
721.237	3978.52
721.424	3966.23
721.611	3992.86
721.798	3876.12
721.985	4070.68
722.172	3831.07
722.358	3861.79
722.545	4031.77
722.732	4105.49
722.919	4044.06
723.106	3964.18
723.293	3831.07
723.48	3765.53
723.667	3814.68
723.853	3730.72
724.04	3861.79
724.227	4027.67
724.414	3927.32
724.6	3806.49
724.787	3822.88
724.974	3902.75
725.161	3841.31
725.347	3855.64
725.534	3947.8
725.72	3781.92
725.907	3896.6
726.094	3904.79
726.28	3861.79
726.467	3734.81
726.653	3765.53
726.84	3659.04
727.027	3925.27
727.213	3755.29
727.4	3896.6
727.586	3761.44
727.773	3882.27
727.959	3753.24
728.145	3798.3
728.332	3677.47
728.518	3833.11
728.705	3790.11
728.891	3667.23
729.077	3759.39
729.264	3745.05
729.45	3786.01
729.636	3779.87
729.823	3831.07
730.009	3695.9
730.195	3753.24
730.382	3736.86
730.568	3743
730.754	3755.29
730.94	3736.86
731.126	3882.27
731.313	3726.62
731.499	3810.59
731.685	3798.3
731.871	3730.72
732.057	3710.24
732.243	3700
732.429	3710.24
732.615	3796.25
732.801	3695.9
732.987	3730.72
733.173	3626.27
733.359	3689.76
733.545	3738.91
733.731	3626.27
733.917	3562.78
734.103	3716.38
734.289	3759.39
734.475	3470.62
734.661	3798.3
734.847	3677.47
735.033	3618.08
735.219	3538.21
735.404	3609.89
735.59	3487.01
735.776	3652.89
735.962	3681.57
736.148	3573.02
736.333	3736.86
736.519	3665.18
736.705	3513.63
736.89	3558.69
737.076	3564.83
737.262	3507.49
737.447	3403.04
737.633	3294.5
737.819	3423.52
738.004	3487.01
738.19	3394.85
738.375	3400.99
738.561	3550.5
738.747	3482.91
738.932	3507.49
739.118	3423.52
739.303	3560.73
739.489	3495.2
739.674	3378.47
739.859	3415.33
740.045	3425.57
740.23	3269.92
740.416	3267.88
740.601	3341.6
740.786	3394.85
740.972	3327.27
741.157	3435.81
741.342	3237.16
741.528	3128.61
741.713	3204.39
741.898	3319.07
742.084	3202.34
742.269	3302.69
742.454	3190.05
742.639	3228.96
742.824	3116.33
743.01	3069.22
743.195	3188
743.38	3099.94
743.565	3171.62
743.75	3093.8
743.935	3052.84
744.12	3151.14
744.305	3011.88
744.49	2962.73
744.675	2983.21
744.86	3022.12
745.045	2936.1
745.23	3067.17
745.415	2956.58
745.6	2977.06
745.785	3040.55
745.97	2858.28
746.155	2856.23
746.34	2909.48
746.525	2880.81
746.71	3020.07
746.895	2829.61
747.079	2848.04
747.264	2848.04
747.449	2821.42
747.634	2782.51
747.819	2749.74
748.003	2774.31
748.188	2694.44
748.373	2868.52
748.557	2659.63
748.742	2755.88
748.927	2708.78
749.111	2565.42
749.296	2585.9
749.481	2635.05
749.665	2555.18
749.85	2420.02
750.034	2573.61
750.219	2561.33
750.404	2532.65
750.588	2485.55
750.773	2477.36
750.957	2411.82
751.141	2454.83
751.326	2397.49
751.51	2501.94
751.695	2385.2
751.879	2463.02
752.064	2338.1
752.248	2303.28
752.432	2385.2
752.617	2293.04
752.801	2301.23
752.985	2204.98
753.17	2196.79
753.354	2321.71
753.538	2161.97
753.722	2215.22
753.907	2268.47
754.091	2172.21
754.275	2102.58
754.459	2135.35
754.643	2104.63
754.828	2137.4
755.012	1975.61
755.196	2078.01
755.38	2041.14
755.564	2026.81
755.748	2071.86
755.932	2075.96
756.116	2080.05
756.3	1989.94
756.484	2071.86
756.668	1996.09
756.852	1836.35
757.036	2004.28
757.22	1889.59
757.404	1946.94
757.588	1889.59
757.772	1908.02
757.956	1869.11
758.14	1862.97
758.323	1887.54
758.507	1799.48
758.691	1682.75
758.875	1885.5
759.059	1809.72
759.242	1832.25
759.426	1697.08
759.61	1719.61
759.794	1807.67
759.977	1701.18
760.161	1842.49
760.345	1738.04
760.528	1633.6
760.712	1770.81
760.895	1715.52
761.079	1615.16
761.263	1654.08
761.446	1639.74
761.63	1697.08
761.813	1742.14
761.997	1623.36
762.18	1692.99
762.364	1598.78
762.547	1516.86
762.731	1635.64
762.914	1594.68
763.098	1545.53
763.281	1504.57
763.464	1586.49
763.648	1447.23
763.831	1463.62
764.015	1477.95
764.198	1516.86
764.381	1609.02
764.564	1480
764.748	1512.77
764.931	1463.62
765.114	1514.81
765.297	1539.39
765.481	1439.04
765.664	1420.61
765.847	1539.39
766.03	1531.2
766.213	1480
766.397	1449.28
766.58	1363.26
766.763	1443.14
766.946	1377.6
767.129	1496.38
767.312	1320.26
767.495	1361.22
767.678	1418.56
767.861	1439.04
768.044	1381.7
768.227	1307.97
768.41	1316.16
768.593	1391.94
768.776	1336.64
768.959	1320.26
769.142	1373.5
769.324	1443.14
769.507	1277.25
769.69	1344.83
769.873	1299.78
770.056	1297.73
770.239	1285.44
770.421	1256.77
770.604	1314.11
770.787	1242.43
770.97	1297.73
771.152	1267.01
771.335	1353.02
771.518	1295.68
771.7	1254.72
771.883	1254.72
772.066	1281.35
772.248	1240.39
772.431	1267.01
772.613	1264.96
772.796	1228.1
772.978	1250.63
773.161	1252.67
773.343	1217.86
773.526	1144.13
773.708	1054.02
773.891	1146.18
774.073	1117.51
774.256	1207.62
774.438	1135.94
774.621	1158.47
774.803	1146.18
774.985	1078.6
775.168	1144.13
775.35	1072.45
775.532	1107.27
775.715	1019.21
775.897	1082.69
776.079	1070.41
776.261	984.39
776.444	1103.17
776.626	976.2
776.808	1029.45
776.99	927.05
777.173	1060.17
777.355	957.77
777.537	1002.82
777.719	982.34
777.901	978.25
778.083	951.62
778.265	931.14
778.447	1008.97
778.629	945.48
778.811	970.05
778.993	947.53
779.175	906.57
779.357	933.19
779.539	828.74
779.721	849.22
779.903	912.71
780.085	894.28
780.267	886.09
780.449	896.33
780.631	877.9
780.812	834.89
780.994	781.64
781.176	795.98
781.358	877.9
781.54	824.65
781.721	892.23
781.903	828.74
782.085	834.89
782.267	800.07
782.448	775.5
782.63	732.49
782.812	757.07
782.993	834.89
783.175	836.94
783.357	681.29
783.538	664.91
783.72	705.87
783.901	714.06
784.083	775.5
784.264	714.06
784.446	697.67
784.627	742.73
784.809	787.79
784.99	626
785.172	763.21
785.353	683.34
785.535	648.52
785.716	685.39
785.897	650.57
786.079	722.25
786.26	626
786.441	722.25
786.623	595.28
786.804	660.81
786.985	652.62
787.167	701.77
787.348	640.33
787.529	578.89
787.71	552.27
787.891	619.85
788.073	617.8
788.254	636.24
788.435	660.81
788.616	578.89
788.797	556.36
788.978	607.56
789.159	544.08
789.34	619.85
789.522	517.45
789.703	533.84
789.884	554.32
790.065	609.61
790.246	611.66
790.427	554.32
790.607	568.65
790.788	529.74
790.969	505.17
791.15	517.45
791.331	617.8
791.512	562.51
791.693	556.36
791.874	453.97
792.054	527.69
792.235	562.51
792.416	494.93
792.597	507.21
792.778	511.31
792.958	531.79
793.139	456.01
793.32	443.73
793.5	492.88
793.681	468.3
793.862	488.78
794.042	480.59
794.223	447.82
794.404	357.71
794.584	331.09
794.765	480.59
794.945	472.4
795.126	529.74
795.306	492.88
795.487	410.96
795.667	476.49
795.848	447.82
796.028	404.82
796.209	384.34
796.389	441.68
796.57	439.63
796.75	429.39
796.93	386.38
797.111	419.15
797.291	378.19
797.471	398.67
797.652	437.58
797.832	374.1
798.012	441.68
798.192	386.38
798.373	402.77
798.553	390.48
798.733	386.38
798.913	392.53
799.093	320.85
799.274	402.77
799.454	392.53
799.634	318.8
799.814	374.1
799.994	359.76
800.174	402.77
800.354	378.19
800.534	406.86
800.714	449.87
800.894	361.81
801.074	302.42
801.254	392.53
801.434	406.86
801.614	320.85
801.794	277.84
801.974	904.52
802.154	339.28
802.334	382.29
802.514	333.14
802.693	312.66
802.873	372.05
803.053	312.66
803.233	318.8
803.413	316.75
803.592	308.56
803.772	310.61
803.952	255.31
804.131	314.7
804.311	300.37
804.491	365.9
804.67	288.08
804.85	308.56
805.03	320.85
805.209	449.87
805.389	386.38
805.568	345.42
805.748	292.18
805.928	292.18
806.107	251.22
806.287	298.32
806.466	351.57
806.646	240.98
806.825	275.79
807.004	316.75
807.184	384.34
807.363	316.75
807.543	308.56
807.722	331.09
807.901	216.4
808.081	367.95
808.26	259.41
808.439	195.92
808.619	267.6
808.798	304.46
808.977	263.51
809.156	292.18
809.336	271.7
809.515	228.69
809.694	261.46
809.873	267.6
810.052	292.18
810.231	283.99
810.411	259.41
810.59	304.46
810.769	298.32
810.948	214.35
811.127	308.56
811.306	218.45
811.485	224.59
811.664	251.22
811.843	283.99
812.022	273.75
812.201	234.83
812.38	228.69
812.559	179.54
812.737	234.83
812.916	179.54
813.095	222.55
813.274	275.79
813.453	210.26
813.632	273.75
813.811	240.98
813.989	197.97
814.168	245.07
814.347	161.11
814.526	269.65
814.704	243.03
814.883	253.27
815.062	243.03
815.24	159.06
815.419	116.05
815.598	202.07
815.776	152.92
815.955	220.5
816.133	148.82
816.312	193.87
816.49	120.15
816.669	152.92
816.847	185.68
817.026	206.16
817.204	271.7
817.383	234.83
817.561	189.78
817.74	157.01
817.918	189.78
818.097	220.5
818.275	167.25
818.453	206.16
818.632	202.07
818.81	128.34
818.988	243.03
819.167	152.92
819.345	165.2
819.523	249.17
819.701	152.92
819.879	181.59
820.058	191.83
820.236	181.59
820.414	193.87
820.592	183.63
820.77	175.44
820.948	234.83
821.127	247.12
821.305	161.11
821.483	161.11
821.661	206.16
821.839	97.62
822.017	171.35
822.195	99.67
822.373	93.52
822.551	179.54
822.729	173.39
822.907	214.35
823.085	193.87
823.262	181.59
823.44	134.48
823.618	116.05
823.796	148.82
823.974	154.96
824.152	136.53
824.329	148.82
824.507	195.92
824.685	185.68
824.863	128.34
825.04	175.44
825.218	232.79
825.396	195.92
825.574	116.05
825.751	152.92
825.929	116.05
826.107	120.15
826.284	193.87
826.462	228.69
826.639	89.43
826.817	140.63
826.994	216.4
827.172	173.39
827.349	146.77
827.527	124.24
827.704	99.67
827.882	193.87
828.059	150.87
828.237	114
828.414	120.15
828.591	103.76
828.769	93.52
828.946	116.05
829.124	202.07
829.301	154.96
829.478	154.96
829.655	126.29
829.833	148.82
830.01	40.28
830.187	128.34
830.364	144.72
830.542	134.48
830.719	218.45
830.896	109.91
831.073	111.96
831.25	142.68
831.427	134.48
831.604	136.53
831.782	54.61
831.959	175.44
832.136	138.58
832.313	140.63
832.49	103.76
832.667	165.2
832.844	77.14
833.021	234.83
833.198	85.33
833.374	120.15
833.551	36.18
833.728	120.15
833.905	75.09
834.082	79.19
834.259	73.04
834.436	148.82
834.612	165.2
834.789	91.48
834.966	130.39
835.143	161.11
835.319	75.09
835.496	109.91
835.673	148.82
835.85	83.28
836.026	136.53
836.203	107.86
836.38	130.39
836.556	81.24
836.733	173.39
836.909	214.35
837.086	167.25
837.262	97.62
837.439	167.25
837.616	38.23
837.792	99.67
837.968	128.34
838.145	73.04
838.321	36.18
838.498	79.19
838.674	95.57
838.851	103.76
839.027	101.72
839.203	120.15
839.38	87.38
839.556	48.47
839.732	71
839.909	97.62
840.085	124.24
840.261	126.29
840.437	140.63
840.614	128.34
840.79	159.06
840.966	85.33
841.142	64.85
841.318	81.24
841.494	46.42
841.671	7.51
841.847	87.38
842.023	111.96
842.199	50.52
842.375	68.95
842.551	173.39
842.727	58.71
842.903	126.29
843.079	77.14
843.255	187.73
843.431	138.58
843.607	134.48
843.783	71
843.959	79.19
844.134	52.56
844.31	60.76
844.486	30.04
844.662	19.8
844.838	15.7
845.013	152.92
845.189	111.96
845.365	73.04
845.541	7.51
845.716	15.7
845.892	64.85
846.068	60.76
846.244	130.39
846.419	132.44
846.595	93.52
846.77	21.85
846.946	81.24
847.122	58.71
847.297	150.87
847.473	27.99
847.648	44.37
847.824	77.14
847.999	19.8
848.175	50.52
848.35	15.7
848.526	120.15
848.701	81.24
848.876	89.43
849.052	71
849.227	46.42
849.403	60.76
849.578	36.18
849.753	101.72
849.929	142.68
850.104	13.65
850.279	60.76
850.454	46.42
850.63	91.48
850.805	42.32
850.98	58.71
851.155	3.41
851.33	23.89
851.505	58.71
851.681	144.72
851.856	5.46
852.031	54.61
852.206	54.61
852.381	73.04
852.556	58.71
852.731	54.61
852.906	97.62
853.081	46.42
853.256	62.8
853.431	19.8
853.606	5.46
853.781	75.09
853.956	-19.11
854.131	36.18
854.305	-17.07
854.48	40.28
854.655	-15.02
854.83	36.18
855.005	54.61
855.18	77.14
855.354	46.42
855.529	32.08
855.704	38.23
855.879	77.14
856.053	21.85
856.228	75.09
856.403	77.14
856.577	91.48
856.752	38.23
856.926	150.87
857.101	56.66
857.276	15.7
857.45	60.76
857.625	5.46
857.799	27.99
857.974	75.09
858.148	42.32
858.323	21.85
858.497	23.89
858.672	1.37
858.846	-17.07
859.02	46.42
859.195	-12.97
859.369	9.56
859.543	85.33
859.718	-8.87
859.892	38.23
860.066	66.9
860.241	79.19
860.415	38.23
860.589	3.41
860.763	-21.16
860.938	105.81
861.112	25.94
861.286	62.8
861.46	68.95
861.634	-33.45
861.808	118.1
861.982	17.75
862.157	50.52
862.331	1.37
862.505	19.8
862.679	-27.31
862.853	23.89
863.027	68.95
863.201	54.61
863.375	52.56
863.549	83.28
863.722	81.24
863.896	107.86
864.07	-2.73
864.244	66.9
864.418	44.37
864.592	46.42
864.766	21.85
864.939	83.28
865.113	-15.02
865.287	25.94
865.461	46.42
865.634	91.48
865.808	32.08
865.982	120.15
866.156	36.18
866.329	87.38
866.503	30.04
866.676	23.89
866.85	60.76
867.024	34.13
867.197	85.33
867.371	71
867.544	64.85
867.718	13.65
867.891	32.08
868.065	40.28
868.238	13.65
868.412	25.94
868.585	3.41
868.759	1.37
868.932	77.14
869.105	21.85
869.279	54.61
869.452	19.8
869.625	-21.16
869.799	79.19
869.972	-17.07
870.145	-80.55
870.319	38.23
870.492	11.61
870.665	-4.78
870.838	-10.92
871.011	-64.17
871.185	38.23
871.358	-10.92
871.531	60.76
871.704	3.41
871.877	58.71
872.05	73.04
872.223	-0.68
872.396	-15.02
872.569	79.19
872.742	73.04
872.915	109.91
873.088	21.85
873.261	-0.68
873.434	21.85
873.607	54.61
873.78	124.24
873.953	-8.87
874.126	30.04
874.299	71
874.471	62.8
874.644	-23.21
874.817	5.46
874.99	66.9
875.163	7.51
875.335	83.28
875.508	5.46
875.681	75.09
875.853	-27.31
876.026	30.04
876.199	3.41
876.371	30.04
876.544	-0.68
876.717	17.75
876.889	-12.97
877.062	34.13
877.234	-64.17
877.407	105.81
877.579	-19.11
877.752	27.99
877.924	44.37
878.097	27.99
878.269	58.71
878.442	62.8
878.614	36.18
878.786	25.94
878.959	38.23
879.131	27.99
879.303	-39.59
879.476	3.41
879.648	7.51
879.82	48.47
879.993	30.04
880.165	50.52
880.337	-27.31
880.509	11.61
880.681	-15.02
880.854	19.8
881.026	52.56
881.198	34.13
881.37	-35.5
881.542	23.89
881.714	46.42
881.886	25.94
882.058	42.32
882.23	36.18
882.402	107.86
882.574	64.85
882.746	44.37
882.918	38.23
883.09	11.61
883.262	-10.92
883.434	17.75
883.606	3.41
883.778	-45.74
883.95	1.37
884.122	15.7
884.293	44.37
884.465	1.37
884.637	122.2
884.809	3.41
884.98	42.32
885.152	-10.92
885.324	99.67
885.496	64.85
885.667	91.48
885.839	79.19
886.011	64.85
886.182	99.67
886.354	-10.92
886.525	-15.02
886.697	34.13
886.869	128.34
887.04	-4.78
887.212	21.85
887.383	95.57
887.555	38.23
887.726	42.32
887.897	68.95
888.069	60.76
888.24	87.38
888.412	-21.16
888.583	-37.55
888.754	-10.92
888.926	-49.83
889.097	46.42
889.268	-70.31
889.44	-6.83
889.611	-60.07
889.782	-12.97
889.953	-72.36
890.125	11.61
890.296	17.75
890.467	-90.79
890.638	50.52
890.809	-27.31
890.98	-47.79
891.151	79.19
891.323	66.9
891.494	9.56
891.665	-19.11
891.836	46.42
892.007	27.99
892.178	52.56
892.349	3.41
892.52	-12.97
892.691	15.7
892.862	-27.31
893.032	-49.83
893.203	-33.45
893.374	-58.03
893.545	32.08
893.716	-27.31
893.887	111.96
894.057	27.99
894.228	-21.16
894.399	32.08
894.57	71
894.74	-33.45
894.911	46.42
895.082	5.46
895.253	30.04
895.423	34.13
895.594	40.28
895.764	62.8
895.935	-27.31
896.106	-15.02
896.276	21.85
896.447	30.04
896.617	13.65
896.788	-8.87
896.958	13.65
897.129	44.37
897.299	19.8
897.47	7.51
897.64	79.19
897.81	-41.64
897.981	-60.07
898.151	11.61
898.322	19.8
898.492	27.99
898.662	46.42
898.832	79.19
899.003	77.14
899.173	25.94
899.343	40.28
899.513	-17.07
