Data from USB4F104151__129__10-25-22-803.txt Node

Date: Wed Mar 12 10:25:22 EDT 2025
User: louis
Spectrometer: USB4F10415
Trigger mode: 4
Integration Time (sec): 3.000000E-2
Scans to average: 1
Electric dark correction enabled: true
Nonlinearity correction enabled: false
Boxcar width: 0
XAxis mode: Wavelengths
Number of Pixels in Spectrum: 3648
>>>>>Begin Spectral Data<<<<<
178.204	-32.26
178.424	-32.26
178.644	-32.26
178.864	-71.17
179.084	-89.6
179.304	31.23
179.524	-1.54
179.744	-19.97
179.964	-71.17
180.184	64
180.404	10.75
180.624	-5.63
180.844	-5.63
181.064	45.57
181.283	0.51
181.503	-34.3
181.723	-13.82
181.943	-40.45
182.163	96.77
182.383	31.23
182.602	18.94
182.822	35.33
183.042	41.47
183.262	49.66
183.482	35.33
183.701	66.05
183.921	80.38
184.141	-1.54
184.361	123.39
184.58	70.14
184.8	53.76
185.02	70.14
185.239	35.33
185.459	29.18
185.679	18.94
185.898	14.85
186.118	-5.63
186.338	78.33
186.557	98.81
186.777	35.33
186.997	-62.98
187.216	10.75
187.436	39.42
187.655	10.75
187.875	64
188.095	-48.64
188.314	51.71
188.534	57.86
188.753	53.76
188.973	68.09
189.192	29.18
189.412	23.04
189.631	0.51
189.851	84.48
190.07	102.91
190.29	10.75
190.509	57.86
190.729	31.23
190.948	23.04
191.168	115.2
191.387	14.85
191.607	4.61
191.826	92.67
192.045	23.04
192.265	-3.58
192.484	20.99
192.704	43.52
192.923	53.76
193.142	51.71
193.362	70.14
193.581	-17.92
193.8	117.25
194.02	31.23
194.239	6.66
194.458	61.95
194.678	55.81
194.897	92.67
195.116	6.66
195.335	51.71
195.555	100.86
195.774	59.9
195.993	53.76
196.212	68.09
196.432	43.52
196.651	68.09
196.87	10.75
197.089	68.09
197.308	16.9
197.528	45.57
197.747	51.71
197.966	64
198.185	100.86
198.404	20.99
198.623	27.14
198.842	125.44
199.062	2.56
199.281	66.05
199.5	49.66
199.719	55.81
199.938	98.81
200.157	119.29
200.376	16.9
200.595	104.96
200.814	-34.3
201.033	55.81
201.252	78.33
201.471	-38.4
201.69	64
201.909	20.99
202.128	90.62
202.347	27.14
202.566	72.19
202.785	-46.59
203.004	80.38
203.223	37.38
203.442	64
203.661	76.29
203.879	14.85
204.098	66.05
204.317	78.33
204.536	53.76
204.755	18.94
204.974	51.71
205.193	-19.97
205.411	109.05
205.63	68.09
205.849	59.9
206.068	31.23
206.287	6.66
206.505	37.38
206.724	102.91
206.943	2.56
207.162	47.62
207.381	31.23
207.599	0.51
207.818	35.33
208.037	76.29
208.255	92.67
208.474	0.51
208.693	82.43
208.911	14.85
209.13	84.48
209.349	61.95
209.567	27.14
209.786	-9.73
210.005	16.9
210.223	68.09
210.442	4.61
210.661	64
210.879	102.91
211.098	84.48
211.316	18.94
211.535	88.57
211.753	68.09
211.972	84.48
212.191	55.81
212.409	29.18
212.628	33.28
212.846	-11.78
213.065	39.42
213.283	141.82
213.502	35.33
213.72	92.67
213.938	59.9
214.157	80.38
214.375	37.38
214.594	98.81
214.812	18.94
215.031	51.71
215.249	64
215.467	115.2
215.686	-17.92
215.904	137.73
216.122	47.62
216.341	39.42
216.559	49.66
216.778	158.21
216.996	107.01
217.214	-17.92
217.432	25.09
217.651	10.75
217.869	31.23
218.087	25.09
218.306	68.09
218.524	113.15
218.742	-15.87
218.96	109.05
219.179	49.66
219.397	82.43
219.615	49.66
219.833	-73.21
220.051	74.24
220.27	39.42
220.488	59.9
220.706	55.81
220.924	55.81
221.142	59.9
221.36	35.33
221.578	88.57
221.796	115.2
222.015	92.67
222.233	66.05
222.451	76.29
222.669	35.33
222.887	113.15
223.105	43.52
223.323	55.81
223.541	27.14
223.759	100.86
223.977	-38.4
224.195	23.04
224.413	39.42
224.631	-42.5
224.849	55.81
225.067	172.54
225.285	92.67
225.503	29.18
225.721	59.9
225.939	59.9
226.157	41.47
226.375	154.11
226.592	-17.92
226.81	92.67
227.028	104.96
227.246	127.49
227.464	100.86
227.682	-17.92
227.9	86.53
228.117	76.29
228.335	90.62
228.553	0.51
228.771	33.28
228.989	80.38
229.206	80.38
229.424	53.76
229.642	-24.06
229.86	80.38
230.077	-5.63
230.295	31.23
230.513	82.43
230.731	-13.82
230.948	18.94
231.166	92.67
231.384	57.86
231.601	18.94
231.819	98.81
232.037	33.28
232.254	47.62
232.472	31.23
232.689	10.75
232.907	37.38
233.125	31.23
233.342	6.66
233.56	18.94
233.777	82.43
233.995	45.57
234.213	-32.26
234.43	39.42
234.648	-9.73
234.865	53.76
235.083	20.99
235.3	117.25
235.518	129.53
235.735	59.9
235.953	31.23
236.17	-24.06
236.388	-17.92
236.605	-38.4
236.822	82.43
237.04	123.39
237.257	88.57
237.475	51.71
237.692	111.1
237.909	64
238.127	51.71
238.344	82.43
238.562	10.75
238.779	37.38
238.996	4.61
239.214	59.9
239.431	57.86
239.648	53.76
239.865	76.29
240.083	18.94
240.3	8.7
240.517	57.86
240.735	-1.54
240.952	88.57
241.169	100.86
241.386	41.47
241.603	35.33
241.821	-40.45
242.038	33.28
242.255	47.62
242.472	-30.21
242.689	57.86
242.907	18.94
243.124	35.33
243.341	-15.87
243.558	18.94
243.775	84.48
243.992	-28.16
244.209	96.77
244.426	119.29
244.643	90.62
244.86	-13.82
245.078	31.23
245.295	-13.82
245.512	127.49
245.729	39.42
245.946	141.82
246.163	18.94
246.38	96.77
246.597	2.56
246.814	27.14
247.031	76.29
247.248	86.53
247.464	84.48
247.681	104.96
247.898	90.62
248.115	55.81
248.332	18.94
248.549	115.2
248.766	27.14
248.983	90.62
249.2	66.05
249.417	2.56
249.633	94.72
249.85	117.25
250.067	100.86
250.284	35.33
250.501	68.09
250.717	166.4
250.934	27.14
251.151	47.62
251.368	18.94
251.585	68.09
251.801	64
252.018	27.14
252.235	92.67
252.451	4.61
252.668	-5.63
252.885	33.28
253.102	43.52
253.318	66.05
253.535	20.99
253.752	86.53
253.968	47.62
254.185	92.67
254.401	39.42
254.618	80.38
254.835	14.85
255.051	152.06
255.268	31.23
255.484	84.48
255.701	64
255.917	72.19
256.134	72.19
256.351	96.77
256.567	-11.78
256.784	41.47
257	45.57
257.217	61.95
257.433	76.29
257.65	6.66
257.866	-40.45
258.082	23.04
258.299	25.09
258.515	160.25
258.732	4.61
258.948	92.67
259.165	33.28
259.381	6.66
259.597	20.99
259.814	76.29
260.03	90.62
260.246	84.48
260.463	84.48
260.679	53.76
260.895	109.05
261.112	49.66
261.328	59.9
261.544	43.52
261.761	98.81
261.977	49.66
262.193	12.8
262.409	88.57
262.626	107.01
262.842	47.62
263.058	27.14
263.274	102.91
263.49	43.52
263.707	72.19
263.923	39.42
264.139	64
264.355	74.24
264.571	92.67
264.787	47.62
265.004	94.72
265.22	6.66
265.436	72.19
265.652	-17.92
265.868	88.57
266.084	4.61
266.3	88.57
266.516	23.04
266.732	14.85
266.948	-13.82
267.164	88.57
267.38	51.71
267.596	92.67
267.812	76.29
268.028	66.05
268.244	12.8
268.46	100.86
268.676	6.66
268.892	100.86
269.108	-36.35
269.324	-24.06
269.54	-15.87
269.756	53.76
269.972	-17.92
270.188	10.75
270.403	131.58
270.619	47.62
270.835	47.62
271.051	10.75
271.267	-11.78
271.483	72.19
271.698	98.81
271.914	84.48
272.13	123.39
272.346	39.42
272.562	-7.68
272.777	84.48
272.993	35.33
273.209	12.8
273.425	100.86
273.64	68.09
273.856	43.52
274.072	27.14
274.287	76.29
274.503	25.09
274.719	68.09
274.934	104.96
275.15	20.99
275.366	-5.63
275.581	80.38
275.797	-34.3
276.012	92.67
276.228	76.29
276.444	82.43
276.659	84.48
276.875	-7.68
277.09	33.28
277.306	66.05
277.521	109.05
277.737	59.9
277.952	88.57
278.168	-9.73
278.383	14.85
278.599	33.28
278.814	82.43
279.03	88.57
279.245	90.62
279.461	49.66
279.676	43.52
279.892	72.19
280.107	23.04
280.322	0.51
280.538	129.53
280.753	-7.68
280.969	51.71
281.184	16.9
281.399	100.86
281.615	61.95
281.83	45.57
282.045	-28.16
282.26	6.66
282.476	68.09
282.691	41.47
282.906	84.48
283.122	61.95
283.337	47.62
283.552	39.42
283.767	18.94
283.983	57.86
284.198	33.28
284.413	64
284.628	35.33
284.843	41.47
285.058	102.91
285.274	29.18
285.489	29.18
285.704	51.71
285.919	27.14
286.134	12.8
286.349	18.94
286.564	16.9
286.779	84.48
286.995	70.14
287.21	-7.68
287.425	90.62
287.64	35.33
287.855	74.24
288.07	-19.97
288.285	47.62
288.5	-15.87
288.715	23.04
288.93	-62.98
289.145	33.28
289.36	147.97
289.575	90.62
289.79	84.48
290.004	49.66
290.219	18.94
290.434	45.57
290.649	43.52
290.864	86.53
291.079	92.67
291.294	23.04
291.509	51.71
291.724	-17.92
291.938	68.09
292.153	72.19
292.368	-48.64
292.583	78.33
292.798	47.62
293.012	84.48
293.227	23.04
293.442	49.66
293.657	100.86
293.871	115.2
294.086	-22.02
294.301	55.81
294.516	27.14
294.73	25.09
294.945	20.99
295.16	-30.21
295.374	74.24
295.589	16.9
295.804	59.9
296.018	104.96
296.233	41.47
296.447	-38.4
296.662	33.28
296.877	66.05
297.091	74.24
297.306	80.38
297.52	31.23
297.735	107.01
297.949	-13.82
298.164	133.63
298.378	35.33
298.593	113.15
298.807	55.81
299.022	-15.87
299.236	33.28
299.451	-5.63
299.665	23.04
299.88	25.09
300.094	70.14
300.309	100.86
300.523	41.47
300.737	76.29
300.952	55.81
301.166	88.57
301.381	-22.02
301.595	29.18
301.809	18.94
302.024	80.38
302.238	20.99
302.452	18.94
302.667	96.77
302.881	25.09
303.095	53.76
303.309	84.48
303.524	-13.82
303.738	74.24
303.952	45.57
304.166	74.24
304.381	51.71
304.595	100.86
304.809	-7.68
305.023	76.29
305.237	18.94
305.452	43.52
305.666	59.9
305.88	162.3
306.094	80.38
306.308	59.9
306.522	86.53
306.736	86.53
306.95	23.04
307.164	84.48
307.379	43.52
307.593	55.81
307.807	18.94
308.021	-22.02
308.235	117.25
308.449	16.9
308.663	4.61
308.877	82.43
309.091	14.85
309.305	61.95
309.519	10.75
309.733	107.01
309.947	23.04
310.161	53.76
310.374	88.57
310.588	92.67
310.802	10.75
311.016	57.86
311.23	37.38
311.444	-17.92
311.658	33.28
311.872	76.29
312.085	59.9
312.299	78.33
312.513	86.53
312.727	117.25
312.941	-24.06
313.154	135.68
313.368	0.51
313.582	43.52
313.796	20.99
314.009	64
314.223	82.43
314.437	12.8
314.651	74.24
314.864	76.29
315.078	51.71
315.292	41.47
315.505	-13.82
315.719	68.09
315.933	51.71
316.146	8.7
316.36	55.81
316.573	115.2
316.787	74.24
317.001	55.81
317.214	16.9
317.428	80.38
317.641	2.56
317.855	41.47
318.068	53.76
318.282	39.42
318.495	135.68
318.709	119.29
318.922	49.66
319.136	94.72
319.349	6.66
319.563	-13.82
319.776	29.18
319.99	8.7
320.203	125.44
320.417	27.14
320.63	4.61
320.843	72.19
321.057	27.14
321.27	25.09
321.483	68.09
321.697	137.73
321.91	41.47
322.124	-28.16
322.337	96.77
322.55	2.56
322.763	72.19
322.977	76.29
323.19	43.52
323.403	-13.82
323.617	78.33
323.83	80.38
324.043	86.53
324.256	41.47
324.469	-13.82
324.683	137.73
324.896	96.77
325.109	51.71
325.322	10.75
325.535	55.81
325.748	82.43
325.962	96.77
326.175	35.33
326.388	10.75
326.601	109.05
326.814	45.57
327.027	64
327.24	141.82
327.453	-1.54
327.666	92.67
327.879	80.38
328.092	72.19
328.305	35.33
328.518	14.85
328.731	31.23
328.944	41.47
329.157	57.86
329.37	41.47
329.583	31.23
329.796	98.81
330.009	68.09
330.222	119.29
330.435	51.71
330.648	92.67
330.861	92.67
331.073	59.9
331.286	117.25
331.499	121.34
331.712	8.7
331.925	55.81
332.138	51.71
332.35	141.82
332.563	70.14
332.776	121.34
332.989	23.04
333.202	18.94
333.414	74.24
333.627	92.67
333.84	68.09
334.053	51.71
334.265	20.99
334.478	76.29
334.691	18.94
334.903	82.43
335.116	55.81
335.329	45.57
335.541	33.28
335.754	76.29
335.966	57.86
336.179	78.33
336.392	6.66
336.604	66.05
336.817	72.19
337.029	31.23
337.242	49.66
337.454	72.19
337.667	64
337.88	55.81
338.092	51.71
338.305	94.72
338.517	2.56
338.729	109.05
338.942	119.29
339.154	41.47
339.367	57.86
339.579	45.57
339.792	66.05
340.004	55.81
340.217	64
340.429	57.86
340.641	-13.82
340.854	41.47
341.066	66.05
341.278	100.86
341.491	90.62
341.703	45.57
341.915	20.99
342.128	123.39
342.34	33.28
342.552	2.56
342.764	59.9
342.977	43.52
343.189	82.43
343.401	27.14
343.613	59.9
343.826	92.67
344.038	35.33
344.25	31.23
344.462	86.53
344.674	90.62
344.886	66.05
345.099	37.38
345.311	84.48
345.523	47.62
345.735	51.71
345.947	94.72
346.159	25.09
346.371	-19.97
346.583	-13.82
346.795	117.25
347.007	72.19
347.219	61.95
347.431	55.81
347.643	66.05
347.855	45.57
348.067	74.24
348.279	-17.92
348.491	59.9
348.703	104.96
348.915	14.85
349.127	-22.02
349.339	107.01
349.551	76.29
349.763	104.96
349.975	39.42
350.187	90.62
350.399	76.29
350.61	94.72
350.822	80.38
351.034	76.29
351.246	64
351.458	139.77
351.669	43.52
351.881	133.63
352.093	-3.58
352.305	57.86
352.517	59.9
352.728	70.14
352.94	57.86
353.152	76.29
353.363	41.47
353.575	104.96
353.787	123.39
353.999	61.95
354.21	84.48
354.422	16.9
354.633	45.57
354.845	88.57
355.057	76.29
355.268	49.66
355.48	53.76
355.692	25.09
355.903	35.33
356.115	43.52
356.326	4.61
356.538	59.9
356.749	39.42
356.961	29.18
357.172	88.57
357.384	33.28
357.595	129.53
357.807	57.86
358.018	2.56
358.23	109.05
358.441	129.53
358.653	141.82
358.864	-22.02
359.075	78.33
359.287	115.2
359.498	59.9
359.709	53.76
359.921	74.24
360.132	64
360.344	-9.73
360.555	55.81
360.766	115.2
360.977	72.19
361.189	84.48
361.4	25.09
361.611	43.52
361.823	92.67
362.034	96.77
362.245	61.95
362.456	86.53
362.667	57.86
362.879	-40.45
363.09	76.29
363.301	59.9
363.512	123.39
363.723	-1.54
363.935	31.23
364.146	141.82
364.357	119.29
364.568	47.62
364.779	41.47
364.99	125.44
365.201	16.9
365.412	115.2
365.623	47.62
365.834	166.4
366.045	125.44
366.256	96.77
366.467	70.14
366.678	51.71
366.889	117.25
367.1	96.77
367.311	59.9
367.522	92.67
367.733	107.01
367.944	96.77
368.155	57.86
368.366	61.95
368.577	107.01
368.788	41.47
368.999	49.66
369.209	76.29
369.42	113.15
369.631	158.21
369.842	96.77
370.053	33.28
370.264	88.57
370.474	102.91
370.685	145.92
370.896	57.86
371.107	113.15
371.317	86.53
371.528	39.42
371.739	117.25
371.95	104.96
372.16	66.05
372.371	8.7
372.582	47.62
372.792	0.51
373.003	100.86
373.214	72.19
373.424	47.62
373.635	66.05
373.846	98.81
374.056	27.14
374.267	20.99
374.477	86.53
374.688	14.85
374.898	80.38
375.109	131.58
375.319	90.62
375.53	92.67
375.74	109.05
375.951	66.05
376.161	23.04
376.372	64
376.582	98.81
376.793	23.04
377.003	43.52
377.214	143.87
377.424	119.29
377.635	98.81
377.845	43.52
378.055	141.82
378.266	23.04
378.476	47.62
378.686	113.15
378.897	117.25
379.107	100.86
379.317	-5.63
379.528	-5.63
379.738	76.29
379.948	88.57
380.158	76.29
380.369	16.9
380.579	150.01
380.789	23.04
380.999	68.09
381.21	68.09
381.42	117.25
381.63	49.66
381.84	102.91
382.05	109.05
382.261	107.01
382.471	64
382.681	133.63
382.891	59.9
383.101	57.86
383.311	8.7
383.521	23.04
383.731	72.19
383.941	18.94
384.151	109.05
384.361	156.16
384.571	68.09
384.781	64
384.991	133.63
385.201	115.2
385.411	154.11
385.621	68.09
385.831	66.05
386.041	96.77
386.251	123.39
386.461	133.63
386.671	80.38
386.881	113.15
387.091	72.19
387.301	123.39
387.511	51.71
387.72	156.16
387.93	66.05
388.14	2.56
388.35	96.77
388.56	90.62
388.769	145.92
388.979	141.82
389.189	76.29
389.399	68.09
389.609	72.19
389.818	156.16
390.028	104.96
390.238	84.48
390.447	64
390.657	109.05
390.867	72.19
391.076	41.47
391.286	72.19
391.496	68.09
391.705	100.86
391.915	100.86
392.125	117.25
392.334	43.52
392.544	104.96
392.753	86.53
392.963	104.96
393.172	33.28
393.382	51.71
393.591	109.05
393.801	82.43
394.01	125.44
394.22	59.9
394.429	125.44
394.639	100.86
394.848	125.44
395.058	150.01
395.267	90.62
395.477	152.06
395.686	141.82
395.895	133.63
396.105	150.01
396.314	109.05
396.524	111.1
396.733	84.48
396.942	172.54
397.152	121.34
397.361	190.97
397.57	66.05
397.78	150.01
397.989	150.01
398.198	184.83
398.407	143.87
398.617	51.71
398.826	201.21
399.035	123.39
399.244	133.63
399.453	109.05
399.663	92.67
399.872	147.97
400.081	176.64
400.29	125.44
400.499	102.91
400.708	219.64
400.917	111.1
401.127	90.62
401.336	162.3
401.545	123.39
401.754	168.45
401.963	184.83
402.172	145.92
402.381	154.11
402.59	147.97
402.799	154.11
403.008	139.77
403.217	141.82
403.426	154.11
403.635	92.67
403.844	236.03
404.053	166.4
404.262	162.3
404.471	180.73
404.68	154.11
404.888	215.55
405.097	123.39
405.306	203.26
405.515	274.94
405.724	162.3
405.933	231.93
406.142	258.56
406.35	205.31
406.559	227.84
406.768	199.16
406.977	330.23
407.185	305.66
407.394	213.5
407.603	315.9
407.812	336.38
408.02	375.29
408.229	258.56
408.438	303.61
408.646	350.71
408.855	434.68
409.064	322.04
409.272	256.51
409.481	326.14
409.69	305.66
409.898	369.15
410.107	373.24
410.315	399.87
410.524	369.15
410.733	483.83
410.941	348.67
411.15	432.63
411.358	469.5
411.567	492.02
411.775	469.5
411.984	596.47
412.192	532.98
412.401	567.8
412.609	588.28
412.818	530.94
413.026	608.76
413.234	641.53
413.443	627.19
413.651	641.53
413.86	645.62
414.068	735.73
414.276	729.59
414.485	739.83
414.693	748.02
414.901	809.46
415.11	811.51
415.318	860.66
415.526	879.09
415.734	891.38
415.943	926.19
416.151	973.3
416.359	1034.74
416.567	1034.74
416.776	1102.32
416.984	1116.65
417.192	1223.15
417.4	1214.96
417.608	1231.34
417.817	1268.2
418.025	1354.22
418.233	1505.77
418.441	1284.59
418.649	1546.73
418.857	1524.2
419.065	1556.97
419.273	1503.72
419.481	1769.96
419.689	1802.72
419.897	1778.15
420.105	1876.45
420.313	1802.72
420.521	1948.13
420.729	2050.53
420.937	2091.49
421.145	2138.59
421.353	2167.26
421.561	2333.15
421.769	2331.1
421.977	2425.31
422.185	2480.6
422.393	2611.67
422.601	2707.93
422.809	2761.17
423.017	2744.79
423.224	3008.98
423.432	2984.4
423.64	3015.12
423.848	3230.16
424.056	3080.66
424.263	3492.3
424.471	3482.06
424.679	3475.91
424.887	3649.99
425.094	3742.15
425.302	3799.49
425.51	4118.98
425.718	3973.57
425.925	4106.69
426.133	4297.15
426.341	4585.91
426.548	4626.87
426.756	4704.7
426.964	4817.33
427.171	4942.26
427.379	5102
427.586	5198.26
427.794	5376.43
428.001	5642.67
428.209	5943.72
428.417	5867.94
428.624	6054.31
428.832	6150.56
429.039	6105.51
429.247	6156.71
429.454	6930.84
429.662	7303.57
429.869	6859.16
430.076	7332.24
430.284	7278.99
430.491	7389.58
430.699	7790.99
430.906	7825.8
431.114	7995.78
431.321	8049.03
431.528	8388.99
431.736	8792.44
431.943	9228.66
432.15	9025.91
432.358	9030.01
432.565	9419.12
432.772	9578.86
432.979	9828.71
433.187	10283.36
433.394	10326.37
433.601	10795.36
433.808	10932.57
434.016	10778.97
434.223	11147.61
434.43	11929.93
434.637	11827.53
434.844	12538.18
435.052	12613.95
435.259	12558.66
435.466	12880.19
435.673	12749.12
435.88	13570.35
436.087	14270.76
436.294	14346.53
436.501	13836.59
436.708	14137.64
436.915	14569.76
437.122	15290.65
437.329	15290.65
437.537	15956.24
437.743	16158.99
437.95	15884.56
438.157	16484.61
438.364	17469.69
438.571	17223.93
438.778	17363.19
438.985	18796.77
439.192	18381.03
439.399	18737.38
439.606	18288.87
439.813	19357.91
440.02	20539.59
440.227	20052.17
440.433	19849.43
440.64	20615.37
440.847	20580.55
441.054	21227.71
441.261	22456.49
441.467	22036.66
441.674	22491.3
441.881	23482.52
442.088	23345.31
442.294	23226.53
442.501	23718.04
442.708	24154.26
442.914	25108.61
443.121	25960.56
443.328	25464.96
443.534	26988.64
443.741	26566.76
443.948	25798.77
444.154	27969.62
444.361	27859.03
444.568	28094.55
444.774	27795.54
444.981	28188.75
445.187	29222.98
445.394	29937.72
445.6	30027.83
445.807	32643.09
446.013	31469.6
446.22	31948.82
446.426	33128.45
446.633	33191.94
446.839	34734.06
447.046	32950.28
447.252	34707.44
447.459	34801.64
447.665	34861.04
447.871	36321.24
448.078	37654.47
448.284	36057.05
448.491	36974.54
448.697	38287.29
448.903	38807.47
449.11	39223.21
449.316	38297.53
449.522	39325.61
449.728	40118.17
449.935	40349.59
450.141	39935.9
450.347	41553.8
450.553	39837.6
450.76	40071.07
450.966	41449.35
451.172	41078.67
451.378	42088.32
451.584	40898.45
451.791	42008.45
451.997	42000.26
452.203	42358.65
452.409	42676.08
452.615	42471.29
452.821	40640.4
453.027	40632.21
453.233	42545.01
453.44	40757.14
453.646	40906.64
453.852	41527.17
454.058	42090.37
454.264	40619.92
454.47	41504.65
454.676	39950.24
454.882	41781.12
455.088	38248.38
455.294	38690.74
455.5	39284.65
455.705	39290.79
455.911	38045.63
456.117	37214.15
456.323	36765.65
456.529	35006.44
456.735	36200.41
456.941	35389.41
457.147	34727.92
457.352	34082.81
457.558	33341.44
457.764	33357.83
457.97	32718.86
458.176	31854.62
458.381	32356.37
458.587	30398.51
458.793	30586.93
458.999	28905.54
459.204	31232.04
459.41	30058.55
459.616	28170.32
459.821	28358.74
460.027	28360.78
460.233	27543.64
460.438	26159.22
460.644	26431.6
460.85	25288.83
461.055	24983.68
461.261	24774.79
461.466	23036.06
461.672	22433.96
461.878	23963.79
462.083	22329.52
462.289	22030.51
462.494	22079.66
462.7	20818.11
462.905	20017.36
463.111	21006.53
463.316	20936.9
463.522	20580.55
463.727	20515.01
463.932	20615.37
464.138	20195.53
464.343	20402.38
464.549	20005.07
464.754	20256.97
464.959	20181.2
465.165	19990.73
465.37	19488.98
465.575	18764
465.781	19544.28
465.986	19763.41
466.191	19036.38
466.397	18770.15
466.602	17823.98
466.807	18327.78
467.012	18364.65
467.218	18475.24
467.423	18088.17
467.628	18319.59
467.833	18962.65
468.038	18137.32
468.244	17674.48
468.449	18438.37
468.654	17844.46
468.859	17426.68
469.064	17553.65
469.269	16832.77
469.474	17225.98
469.679	17092.86
469.885	16670.98
470.09	16730.37
470.295	16890.11
470.5	16275.72
470.705	16605.44
470.91	16146.7
471.115	16011.53
471.32	16232.71
471.525	16201.99
471.73	15722.77
471.935	15571.22
472.139	15339.8
472.344	15411.48
472.549	15288.6
472.754	15069.47
472.959	14907.68
473.164	14510.37
473.369	14328.1
473.574	14977.31
473.778	14498.08
473.983	14506.27
474.188	14450.98
474.393	13836.59
474.598	13828.4
474.802	13760.81
475.007	13906.22
475.212	13723.95
475.417	13173.05
475.621	13390.13
475.826	13136.18
476.031	13068.6
476.235	12712.25
476.44	13001.02
476.645	12693.82
476.849	12648.77
477.054	12632.38
477.259	12458.31
477.463	12409.15
477.668	11888.97
477.872	12093.77
478.077	11813.2
478.282	11561.3
478.486	11622.73
478.691	11589.97
478.895	11489.62
479.1	11520.34
479.304	11485.52
479.509	11092.31
479.713	11448.66
479.918	11006.3
480.122	10832.22
480.326	11149.65
480.531	11067.74
480.735	10963.29
480.94	10905.95
481.144	11082.07
481.348	10740.06
481.553	10766.68
481.757	10482.02
481.961	10731.87
482.166	11010.39
482.37	10668.38
482.574	10588.51
482.778	10598.75
482.983	10869.08
483.187	10707.29
483.391	10778.97
483.595	10572.13
483.8	10426.72
484.004	10674.53
484.208	10727.77
484.412	10531.17
484.616	10723.68
484.821	10602.85
485.025	10439.01
485.229	10697.05
485.433	10551.65
485.637	10463.58
485.841	10494.3
486.045	10748.25
486.249	10641.76
486.453	10668.38
486.657	10629.47
486.861	10572.13
487.065	10387.81
487.269	10496.35
487.473	10430.82
487.677	10518.88
487.881	10778.97
488.085	10578.27
488.289	10676.57
488.493	10635.61
488.697	10783.07
488.901	10699.1
489.105	10445.15
489.309	10709.34
489.512	10854.75
489.716	10717.53
489.92	10910.04
490.124	10711.39
490.328	10953.05
490.531	10740.06
490.735	10946.9
490.939	11008.34
491.143	10944.86
491.346	11110.74
491.55	11069.78
491.754	10871.13
491.958	11143.51
492.161	11061.59
492.365	11032.92
492.569	11250
492.772	11186.52
492.976	11376.98
493.18	11446.61
493.383	11651.41
493.587	11700.56
493.79	11790.67
493.994	11647.31
494.197	11587.92
494.401	11774.28
494.605	11852.11
494.808	12099.91
495.012	12138.82
495.215	12063.05
495.419	12212.55
495.622	12163.4
495.825	12163.4
496.029	12622.14
496.232	12493.12
496.436	12439.87
496.639	13015.35
496.843	12783.93
497.046	13033.79
497.249	13302.07
497.453	13218.1
497.656	13445.43
497.859	13463.86
498.063	13642.03
498.266	13871.4
498.469	13928.75
498.673	14084.39
498.876	14240.04
499.079	14188.84
499.282	14393.64
499.485	14776.61
499.689	14866.72
499.892	14821.66
500.095	15143.19
500.298	15442.2
500.501	15345.94
500.705	15743.25
500.908	16036.11
501.111	15771.92
501.314	16097.55
501.517	16310.54
501.72	16648.45
501.923	16154.89
502.126	16867.58
502.329	17258.74
502.532	16951.55
502.735	17215.74
502.938	17553.65
503.141	17897.71
503.344	18018.54
503.547	18055.4
503.75	18043.12
503.953	18716.9
504.156	18614.5
504.359	18983.13
504.562	19069.15
504.765	19718.36
504.968	19663.06
505.17	19878.1
505.373	19734.74
505.576	20457.67
505.779	20553.93
505.982	20277.45
506.185	21059.77
506.387	21094.59
506.59	21121.21
506.793	21584.05
506.996	21366.97
507.198	22104.24
507.401	21930.16
507.604	22298.8
507.807	22692.01
508.009	22751.4
508.212	23062.69
508.415	23466.14
508.617	23304.35
508.82	23799.96
509.022	23814.29
509.225	24301.71
509.428	24283.28
509.63	24780.93
509.833	24639.62
510.035	25262.21
510.238	25223.3
510.44	25585.79
510.643	25935.99
510.845	26083.44
511.048	26118.26
511.25	26493.04
511.453	26708.07
511.655	27519.07
511.858	27267.17
512.06	27549.79
512.262	28037.2
512.465	28004.44
512.667	28338.26
512.87	28774.47
513.072	28823.62
513.274	29286.47
513.477	29446.21
513.679	30027.83
513.881	30181.43
514.084	30677.04
514.286	30689.32
514.488	30576.69
514.69	31225.89
514.893	31346.72
515.095	31309.86
515.297	31830.04
515.499	32153.62
515.701	33017.86
515.904	32669.71
516.106	33134.6
516.308	33910.78
516.51	33957.88
516.712	33923.07
516.914	34211.83
517.116	34672.62
517.318	35102.7
517.52	35241.96
517.722	35379.17
517.925	35811.29
518.127	36167.64
518.329	36671.44
518.531	36339.67
518.733	36941.77
518.935	37498.82
519.136	37277.64
519.338	37883.84
519.54	37810.11
519.742	38559.67
519.944	38221.75
520.146	39565.22
520.348	39352.23
520.55	39421.86
520.752	39796.64
520.954	40398.74
521.155	40308.63
521.357	40646.55
521.559	41191.31
521.761	41688.96
521.963	41574.28
522.164	41990.02
522.366	42334.07
522.568	42444.66
522.77	42844.02
522.971	43437.93
523.173	42938.22
523.375	43409.26
523.576	43413.35
523.778	43894.63
523.98	44068.7
524.181	44253.02
524.383	44654.42
524.584	45215.57
524.786	45387.6
524.988	44945.23
525.189	45979.46
525.391	46178.11
525.592	46298.94
525.794	46300.99
525.995	46294.85
526.197	46530.36
526.398	46772.02
526.6	47118.13
526.801	47177.52
527.003	47497
527.204	47527.72
527.406	48256.8
527.607	48303.9
527.808	48240.42
528.01	47937.32
528.211	48129.83
528.412	49174.29
528.614	48447.26
528.815	48758.55
529.016	49321.74
529.218	48682.78
529.419	49434.38
529.62	49299.22
529.822	49254.16
530.023	49329.94
530.224	49483.53
530.425	49745.67
530.626	49235.73
530.828	48867.09
531.029	50489.09
531.23	49737.48
531.431	49393.42
531.632	49843.98
531.833	50595.58
532.035	50237.19
532.236	50351.87
532.437	50409.21
532.638	50126.6
532.839	50679.55
533.04	50720.51
533.241	50192.13
533.442	50996.98
533.643	50831.1
533.844	50401.02
534.045	51293.94
534.246	50757.37
534.447	50990.84
534.648	51019.51
534.849	50863.86
535.05	50634.49
535.251	50794.23
535.451	50466.56
535.652	51248.88
535.853	50988.79
536.054	50544.38
536.255	51384.05
536.456	50343.68
536.657	51556.08
536.857	50990.84
537.058	50732.79
537.259	50939.64
537.46	50941.69
537.66	50892.54
537.861	51289.84
538.062	51066.61
538.263	51197.68
538.463	51056.37
538.664	50609.92
538.865	51355.38
539.065	51683.05
539.266	50525.95
539.466	51664.62
539.667	50675.45
539.868	51678.96
540.068	51320.56
540.269	50564.86
540.469	51375.86
540.67	50673.4
540.87	50867.96
541.071	50837.24
541.271	50943.73
541.472	50857.72
541.672	51320.56
541.873	51121.91
542.073	50843.38
542.274	51547.89
542.474	51252.98
542.675	50798.33
542.875	51291.89
543.075	50915.06
543.276	50609.92
543.476	51338.99
543.676	50773.75
543.877	51035.89
544.077	50761.47
544.277	50927.35
544.478	50581.24
544.678	50833.14
544.878	50675.45
545.078	50925.3
545.279	50777.85
545.479	50583.29
545.679	51107.57
545.879	50626.3
546.079	51064.56
546.28	50538.24
546.48	50032.39
546.68	50769.66
546.88	50351.87
547.08	51056.37
547.28	50417.41
547.48	50149.12
547.68	50654.97
547.88	50409.21
548.081	50704.12
548.281	50579.2
548.481	50368.26
548.681	50710.27
548.881	50067.2
549.081	50659.07
549.28	50040.58
549.48	50837.24
549.68	50020.1
549.88	51007.22
550.08	50220.8
550.28	50691.83
550.48	50173.7
550.68	50638.59
550.88	50038.53
551.08	50276.1
551.279	50679.55
551.479	50099.97
551.679	50190.08
551.879	49958.66
552.079	50329.34
552.278	50116.36
552.478	50065.16
552.678	50257.67
552.878	50386.69
553.077	49942.28
553.277	49964.81
553.477	50315.01
553.676	49573.64
553.876	50280.19
554.076	49633.03
554.275	49770.25
554.475	48854.81
554.674	50093.83
554.874	49340.18
555.074	49655.56
555.273	49725.19
555.473	49848.07
555.672	49614.6
555.872	49612.55
556.071	49696.52
556.271	49671.95
556.47	49446.67
556.67	49209.11
556.869	49030.93
557.068	49637.13
557.268	48803.61
557.467	49223.44
557.667	49127.19
557.866	49237.78
558.065	48819.99
558.265	48688.92
558.464	48426.78
558.663	49110.8
558.863	48371.49
559.062	49192.72
559.261	48289.57
559.461	49069.84
559.66	47945.51
559.859	48598.81
560.058	48070.43
560.258	48396.06
560.457	48002.85
560.656	48394.01
560.855	48015.14
561.054	48404.25
561.253	47451.95
561.453	47849.25
561.652	47949.6
561.851	47947.56
562.05	47271.73
562.249	47275.82
562.448	47857.45
562.647	47873.83
562.846	47284.01
563.045	47591.21
563.244	46542.65
563.443	47501.1
563.642	46671.67
563.841	46997.3
564.04	46671.67
564.239	47263.53
564.438	46184.26
564.637	46665.53
564.836	46839.61
565.035	45903.68
565.234	46526.27
565.432	46174.02
565.631	46159.68
565.83	45854.53
566.029	45969.22
566.228	45559.62
566.427	45375.31
566.625	45473.61
566.824	45039.44
567.023	45832
567.222	44455.77
567.42	45645.64
567.619	44918.61
567.818	45041.49
568.016	44961.62
568.215	45053.78
568.414	44715.86
568.612	44717.91
568.811	44480.35
569.01	44592.98
569.208	44058.46
569.407	44230.49
569.605	43706.21
569.804	44334.94
570.002	43392.87
570.201	43945.83
570.4	43452.26
570.598	43399.02
570.797	43022.19
570.995	43163.5
571.193	43050.86
571.392	43394.92
571.59	42676.08
571.789	42796.91
571.987	42549.11
572.186	42753.91
572.384	42356.6
572.582	42467.19
572.781	42678.13
572.979	41893.76
573.177	42090.37
573.376	42438.52
573.574	41799.55
573.772	42166.14
573.971	41834.37
574.169	41875.33
574.367	41181.07
574.565	41684.87
574.763	41066.38
574.962	41041.81
575.16	40888.21
575.358	41447.3
575.556	40353.69
575.754	41199.5
575.952	40435.61
576.151	40730.51
576.349	39997.34
576.547	40296.35
576.745	40017.82
576.943	40402.84
577.141	39792.54
577.339	39876.51
577.537	39966.62
577.735	39710.63
577.933	39217.07
578.131	39686.05
578.329	39249.83
578.527	39518.12
578.725	39638.95
578.923	39616.42
579.121	39137.19
579.319	38709.17
579.516	39020.46
579.714	38899.63
579.912	38797.23
580.11	38854.58
580.308	38555.57
580.506	38784.94
580.704	37887.93
580.901	38510.52
581.099	38467.51
581.297	38059.96
581.495	38049.72
581.692	37871.55
581.89	37371.85
582.088	37748.67
582.285	37334.98
582.483	37619.65
582.681	37476.29
582.878	37052.36
583.076	36972.49
583.274	37044.17
583.471	36851.66
583.669	37130.19
583.866	36661.2
584.064	36632.53
584.262	36132.82
584.459	36536.27
584.657	36638.67
584.854	36421.59
585.052	35743.71
585.249	36257.75
585.447	36136.92
585.644	35534.82
585.841	36186.07
586.039	36057.05
586.236	35491.81
586.434	35366.88
586.631	35035.11
586.828	35244.01
587.026	35471.33
587.223	35049.45
587.42	35209.19
587.618	34959.34
587.815	34633.71
588.012	34254.84
588.21	34402.29
588.407	34828.27
588.604	34340.85
588.801	34291.7
588.999	34031.61
589.196	34512.88
589.393	34179.06
589.59	33828.86
589.787	33894.39
589.984	33374.21
590.182	33644.54
590.379	33681.41
590.576	33323.01
590.773	33320.96
590.97	33222.66
591.167	33282.05
591.364	32610.32
591.561	32966.66
591.758	33179.65
591.955	32632.85
592.152	32880.65
592.349	32604.17
592.546	32589.84
592.743	32735.24
592.94	31787.03
593.137	32067.61
593.334	32143.38
593.531	31647.77
593.727	31938.58
593.924	32051.22
594.121	31621.15
594.318	31864.86
594.515	31346.72
594.712	31547.42
594.908	30988.33
595.105	31430.69
595.302	31328.29
595.499	31381.54
595.696	30859.31
595.892	30732.33
596.089	31070.25
596.286	30685.23
596.482	30898.22
596.679	30685.23
596.876	30560.3
597.072	30122.04
597.269	30380.08
597.466	30355.5
597.662	29716.54
597.859	30156.85
598.055	30357.55
598.252	29954.1
598.448	29653.05
598.645	29763.64
598.841	29298.75
599.038	29407.3
599.234	29292.61
599.431	29186.11
599.627	29069.38
599.824	29390.91
600.02	28917.83
600.217	29024.33
600.413	28584.01
600.609	28725.32
600.806	28547.15
601.002	28608.59
601.198	28737.61
601.395	28426.32
601.591	28258.38
601.787	28399.69
601.984	28133.46
602.18	28461.13
602.376	27910.23
602.572	27973.72
602.769	27863.13
602.965	27379.81
603.161	27603.03
603.357	27437.15
603.553	27510.88
603.75	27496.54
603.946	27093.09
604.142	27191.39
604.338	27045.99
604.534	27224.16
604.73	26697.83
604.926	26841.19
605.122	26953.83
605.318	26620.01
605.514	26779.75
605.71	26611.82
605.906	26574.95
606.102	26413.16
606.298	26366.06
606.494	26566.76
606.69	26316.91
606.886	26370.16
607.082	25872.5
607.278	26255.47
607.474	25653.37
607.67	26013.81
607.866	25591.93
608.062	26022
608.257	25993.33
608.453	25495.67
608.649	25794.68
608.845	25497.72
609.041	25319.55
609.236	25376.89
609.432	25352.32
609.628	25616.51
609.824	25309.31
610.019	25174.14
610.215	24991.87
610.411	25065.6
610.606	25241.73
610.802	24862.85
610.998	25170.05
611.193	25118.85
611.389	24856.71
611.584	24903.81
611.78	24656.01
611.976	24567.95
612.171	24375.44
612.367	24746.12
612.562	24443.02
612.758	24295.57
612.953	24363.15
613.149	24492.17
613.344	23928.98
613.539	24529.03
613.735	24049.81
613.93	24297.61
614.126	24303.76
614.321	24359.05
614.517	23953.55
614.712	23955.6
614.907	23775.38
615.103	23849.11
615.298	23441.56
615.493	24252.56
615.688	23572.63
615.884	23873.68
616.079	23396.51
616.274	23576.73
616.47	23623.83
616.665	23675.03
616.86	23474.33
617.055	23091.36
617.25	22923.43
617.445	23449.75
617.641	22855.84
617.836	23220.38
618.031	23056.54
618.226	22984.87
618.421	22610.09
618.616	22933.67
618.811	22524.07
619.006	23175.33
619.201	22296.75
619.396	22577.32
619.591	22180.01
619.786	22519.98
619.981	21917.87
620.176	22372.52
620.371	22010.03
620.566	21975.22
620.761	22134.96
620.956	21862.58
621.151	21582.01
621.346	21799.09
621.541	21211.32
621.735	21508.28
621.93	21260.48
622.125	21530.81
622.32	20541.64
622.515	20951.23
622.709	20900.03
622.904	20938.94
623.099	20816.07
623.294	20834.5
623.488	20414.66
623.683	20367.56
623.878	20220.11
624.072	20082.89
624.267	20123.85
624.462	19806.42
624.656	19970.26
624.851	19828.95
625.046	19890.38
625.24	19714.26
625.435	19200.22
625.629	19509.46
625.824	18976.99
626.018	19216.6
626.213	18819.3
626.407	19017.95
626.602	18839.78
626.796	18645.22
626.991	18526.44
627.185	18485.48
627.38	18307.3
627.574	18352.36
627.768	18235.63
627.963	18206.95
628.157	17846.51
628.352	18194.67
628.546	17598.71
628.74	17760.5
628.935	17584.37
629.129	17834.22
629.323	17398.01
629.517	17162.49
629.712	17625.33
629.906	17250.55
630.1	17058.04
630.294	17170.68
630.489	16879.87
630.683	17033.47
630.877	16560.39
631.071	16259.34
631.265	16480.52
631.459	16503.04
631.653	16226.57
631.848	16068.87
632.042	16032.01
632.236	16179.47
632.43	16013.58
632.624	16070.92
632.818	15778.06
633.012	15683.86
633.206	15882.51
633.4	15495.44
633.594	15477.01
633.788	15507.73
633.982	15661.33
634.176	15200.54
634.369	15294.74
634.563	15204.63
634.757	15014.17
634.951	15253.78
635.145	15085.85
635.339	14815.52
635.533	14790.94
635.726	14711.07
635.92	14321.96
636.114	14614.82
636.308	14420.26
636.501	14313.77
636.695	14043.43
636.889	14149.93
637.083	14244.13
637.276	14010.67
637.47	13973.8
637.664	13828.4
637.857	13812.01
638.051	13883.69
638.244	13680.94
638.438	13664.56
638.632	13666.61
638.825	13377.84
639.019	13527.35
639.212	13238.58
639.406	13361.46
639.599	13152.57
639.793	13078.84
639.986	12898.62
640.18	13074.74
640.373	12814.65
640.567	12630.34
640.76	12462.4
640.954	12611.9
641.147	12851.52
641.34	12538.18
641.534	12519.74
641.727	12329.28
641.92	12609.86
642.114	12200.26
642.307	12046.66
642.5	12161.35
642.694	11895.11
642.887	11884.87
643.08	12104.01
643.273	11923.79
643.467	11882.83
643.66	11872.59
643.853	11675.98
644.046	11649.36
644.239	11387.22
644.432	11655.5
644.626	11524.43
644.819	11356.5
645.012	11243.86
645.205	11295.06
645.398	11260.24
645.591	10938.71
645.784	10932.57
645.977	11071.83
646.17	10961.24
646.363	10846.55
646.556	10666.33
646.749	10682.72
646.942	10809.69
647.135	10621.28
647.328	10688.86
647.521	10584.41
647.714	10475.87
647.907	10373.47
648.099	10420.58
648.292	10277.22
648.485	10221.92
648.678	9988.46
648.871	10074.47
649.064	9963.88
649.256	10129.77
649.449	9873.77
649.642	10004.84
649.835	9873.77
650.027	9820.52
650.22	9949.54
650.413	9781.61
650.605	9716.08
650.798	9472.37
650.991	9519.47
651.183	9671.02
651.376	9568.62
651.568	9415.02
651.761	9175.41
651.954	9511.28
652.146	9292.15
652.339	9429.36
652.531	9277.81
652.724	8894.84
652.916	8950.14
653.109	9089.4
653.301	9095.54
653.494	8982.9
653.686	8726.91
653.879	8884.6
654.071	8909.18
654.263	8745.34
654.456	8771.96
654.648	8694.14
654.84	8515.97
655.033	8593.79
655.225	8583.55
655.417	8409.47
655.61	8311.17
655.802	8470.91
655.994	8196.48
656.186	8364.42
656.379	8216.96
656.571	8350.08
656.763	8112.52
656.955	8143.24
657.148	8157.57
657.34	8161.67
657.532	8077.7
657.724	7870.86
657.916	8120.71
658.108	8032.65
658.3	7973.25
658.492	7862.66
658.684	7799.18
658.876	7731.59
659.068	7707.02
659.26	7717.26
659.452	7637.39
659.644	7825.8
659.836	7504.27
660.028	7621
660.22	7367.06
660.412	7399.82
660.604	7465.36
660.796	7391.63
660.988	7096.72
661.18	7084.44
661.372	7233.94
661.563	7403.92
661.755	7178.64
661.947	7143.83
662.139	7184.79
662.331	6900.12
662.522	7109.01
662.714	6957.46
662.906	6920.6
663.097	7045.52
663.289	6928.79
663.481	6807.96
663.673	6787.48
663.864	6805.91
664.056	6820.25
664.247	6787.48
664.439	6711.71
664.631	6537.63
664.822	6676.89
665.014	6666.65
665.205	6474.14
665.397	6476.19
665.588	6396.32
665.78	6511
665.971	6398.37
666.163	6484.38
666.354	6238.62
666.546	6308.26
666.737	6334.88
666.929	6273.44
667.12	6261.15
667.311	6287.78
667.503	6085.03
667.694	6001.06
667.885	6140.32
668.077	6123.94
668.268	6011.3
668.459	6160.8
668.651	6062.5
668.842	6111.65
669.033	6117.79
669.224	5943.72
669.416	6023.59
669.607	6035.88
669.798	6025.64
669.989	6105.51
670.18	5853.61
670.371	5861.8
670.563	5826.98
670.754	5851.56
670.945	5820.84
671.136	5790.12
671.327	5773.74
671.518	5720.49
671.709	5743.02
671.9	5722.54
672.091	5640.62
672.282	5661.1
672.473	5646.76
672.664	5640.62
672.855	5618.09
673.046	5613.99
673.237	5757.35
673.428	5564.84
673.619	5515.69
673.809	5450.16
674	5444.01
674.191	5548.46
674.382	5284.27
674.573	5310.89
674.764	5597.61
674.954	5460.4
675.145	5503.4
675.336	5489.07
675.527	5368.24
675.717	5456.3
675.908	5329.33
676.099	5267.89
676.289	5409.2
676.48	5327.28
676.671	5302.7
676.861	5345.71
677.052	5388.72
677.243	5188.02
677.433	5142.96
677.624	5386.67
677.814	5163.44
678.005	5271.98
678.195	5269.94
678.386	5358
678.576	5157.3
678.767	5095.86
678.957	5306.8
679.148	5073.33
679.338	5091.76
679.529	5095.86
679.719	5073.33
679.909	5151.15
680.1	5298.61
680.29	5024.18
680.481	4954.55
680.671	5046.71
680.861	4901.3
681.052	5075.38
681.242	4874.68
681.432	5058.99
681.622	4923.83
681.813	5040.56
682.003	4966.84
682.193	4991.41
682.383	5093.81
682.573	5044.66
682.764	5079.47
682.954	5075.38
683.144	4995.51
683.334	5020.08
683.524	4956.6
683.714	5120.43
683.904	5003.7
684.094	5011.89
684.284	4854.2
684.474	5073.33
684.664	4921.78
684.854	4956.6
685.044	4798.9
685.234	4858.29
685.424	4827.57
685.614	4897.21
685.804	4735.42
685.994	4778.42
686.184	4782.52
686.374	4864.44
686.564	4747.7
686.753	4792.76
686.943	4741.56
687.133	4710.84
687.323	4596.15
687.513	4661.69
687.702	4735.42
687.892	4712.89
688.082	4737.46
688.272	4712.89
688.461	4641.21
688.651	4714.94
688.841	4504
689.03	4364.73
689.22	4475.32
689.41	4417.98
689.599	4440.51
689.789	4495.8
689.979	4397.5
690.168	4534.71
690.358	4471.23
690.547	4176.32
690.737	4467.13
690.926	4403.64
691.116	4295.1
691.305	4395.45
691.495	4381.12
691.684	4295.1
691.874	4235.71
692.063	4155.84
692.252	3975.62
692.442	4409.79
692.631	4235.71
692.82	4135.36
693.01	4121.03
693.199	4112.83
693.388	4151.74
693.578	4188.61
693.767	4024.77
693.956	4090.31
694.146	4065.73
694.335	3946.95
694.524	4100.55
694.713	4073.92
694.902	4078.02
695.092	3959.24
695.281	3891.65
695.47	4004.29
695.659	4082.11
695.848	3824.07
696.037	3936.71
696.226	3920.32
696.415	4000.19
696.604	4057.54
696.793	3869.12
696.982	3973.57
697.171	3889.6
697.36	3979.72
697.549	3899.84
697.738	3852.74
697.927	3809.73
698.116	3910.08
698.305	3793.35
698.494	3922.37
698.683	3860.93
698.872	3819.97
699.061	3959.24
699.25	3736.01
699.438	3881.41
699.627	3936.71
699.816	3883.46
700.005	3883.46
700.193	3840.45
700.382	3850.69
700.571	3772.87
700.76	3830.21
700.948	3873.22
701.137	3776.97
701.326	3748.29
701.514	3822.02
701.703	3916.23
701.892	3668.42
702.08	3809.73
702.269	3914.18
702.457	3740.1
702.646	3670.47
702.834	3697.1
703.023	3797.45
703.212	3738.05
703.4	3772.87
703.589	3695.05
703.777	3873.22
703.965	3709.38
704.154	3750.34
704.342	3869.12
704.531	3713.48
704.719	3682.76
704.907	3781.06
705.096	3672.52
705.284	3834.31
705.472	3742.15
705.661	3668.42
705.849	3764.68
706.037	3662.28
706.226	3815.88
706.414	3779.01
706.602	3686.86
706.79	3799.49
706.979	3799.49
707.167	3848.65
707.355	3830.21
707.543	3686.86
707.731	3746.25
707.919	3680.71
708.107	3740.1
708.296	3699.14
708.484	3754.44
708.672	3658.18
708.86	3754.44
709.048	3719.62
709.236	3713.48
709.424	3828.17
709.612	3729.86
709.8	3709.38
709.988	3768.77
710.176	3858.89
710.364	3750.34
710.551	3748.29
710.739	3656.14
710.927	3576.27
711.115	3727.82
711.303	3703.24
711.491	3731.91
711.679	3676.62
711.866	3750.34
712.054	3791.3
712.242	3674.57
712.43	3822.02
712.617	3668.42
712.805	3705.29
712.993	3684.81
713.181	3574.22
713.368	3656.14
713.556	3760.58
713.744	3508.68
713.931	3727.82
714.119	3688.9
714.306	3725.77
714.494	3680.71
714.682	3705.29
714.869	3527.11
715.057	3781.06
715.244	3686.86
715.432	3729.86
715.619	3752.39
715.807	3705.29
715.994	3688.9
716.182	3803.59
716.369	3738.05
716.556	3768.77
716.744	3633.61
716.931	3736.01
717.119	3848.65
717.306	3738.05
717.493	3744.2
717.681	3670.47
717.868	3738.05
718.055	3697.1
718.242	3756.49
718.43	3721.67
718.617	3719.62
718.804	3561.93
718.991	3572.17
719.179	3658.18
719.366	3750.34
719.553	3639.75
719.74	3781.06
719.927	3848.65
720.114	3633.61
720.301	3654.09
720.488	3744.2
720.676	3756.49
720.863	3717.58
721.05	3809.73
721.237	3584.46
721.424	3795.4
721.611	3688.9
721.798	3609.03
721.985	3668.42
722.172	3672.52
722.358	3705.29
722.545	3752.39
722.732	3635.66
722.919	3672.52
723.106	3631.56
723.293	3664.33
723.48	3586.51
723.667	3670.47
723.853	3699.14
724.04	3678.66
724.227	3639.75
724.414	3701.19
724.6	3643.85
724.787	3686.86
724.974	3506.63
725.161	3574.22
725.347	3570.12
725.534	3719.62
725.72	3566.03
725.907	3578.31
726.094	3582.41
726.28	3643.85
726.467	3721.67
726.653	3613.13
726.84	3588.55
727.027	3795.4
727.213	3531.21
727.4	3676.62
727.586	3664.33
727.773	3592.65
727.959	3537.35
728.145	3609.03
728.332	3576.27
728.518	3652.04
728.705	3643.85
728.891	3535.31
729.077	3471.82
729.264	3631.56
729.45	3500.49
729.636	3611.08
729.823	3523.02
730.009	3525.07
730.195	3623.37
730.382	3563.98
730.568	3547.59
730.754	3408.33
730.94	3543.5
731.126	3533.26
731.313	3529.16
731.499	3537.35
731.685	3572.17
731.871	3375.56
732.057	3584.46
732.243	3537.35
732.429	3516.87
732.615	3508.68
732.801	3494.35
732.987	3422.67
733.173	3477.96
733.359	3484.11
733.545	3447.24
733.731	3387.85
733.917	3451.34
734.103	3512.78
734.289	3412.43
734.475	3320.27
734.661	3490.25
734.847	3432.91
735.033	3434.96
735.219	3371.47
735.404	3443.15
735.59	3451.34
735.776	3426.76
735.962	3267.02
736.148	3359.18
736.333	3338.7
736.519	3256.78
736.705	3285.45
736.89	3285.45
737.076	3236.3
737.262	3322.32
737.447	3336.65
737.633	3293.65
737.819	3303.89
738.004	3230.16
738.19	3324.37
738.375	3277.26
738.561	3361.23
738.747	3174.86
738.932	3187.15
739.118	3183.06
739.303	3109.33
739.489	3264.97
739.674	3187.15
739.859	3133.9
740.045	3189.2
740.23	3275.21
740.416	3176.91
740.601	3172.82
740.786	3267.02
740.972	3115.47
741.157	3152.34
741.342	3033.55
741.528	3037.65
741.713	3092.94
741.898	3135.95
742.084	3088.85
742.269	2945.49
742.454	3066.32
742.639	3056.08
742.824	3158.48
743.01	3088.85
743.195	3236.3
743.38	3054.03
743.565	2937.3
743.75	3049.94
743.935	2769.37
744.12	2965.97
744.305	2720.21
744.49	2957.78
744.675	2968.02
744.86	2800.09
745.045	2916.82
745.23	2814.42
745.415	3021.27
745.6	2802.13
745.785	2849.24
745.97	2963.92
746.155	2824.66
746.34	2839
746.525	2755.03
746.71	2771.41
746.895	2695.64
747.079	2640.34
747.264	2607.58
747.449	2691.54
747.634	2769.37
747.819	2681.3
748.003	2679.26
748.188	2578.9
748.373	2542.04
748.557	2558.42
748.742	2539.99
748.927	2623.96
749.111	2505.18
749.296	2492.89
749.481	2550.23
749.665	2513.37
749.85	2439.64
750.034	2441.69
750.219	2437.59
750.404	2394.59
750.588	2392.54
750.773	2476.51
750.957	2419.16
751.141	2288.09
751.326	2333.15
751.51	2253.28
751.695	2290.14
751.879	2294.24
752.064	2240.99
752.248	2304.48
752.432	2240.99
752.617	2306.52
752.801	2189.79
752.985	2140.64
753.17	2243.04
753.354	2066.91
753.538	2154.98
753.722	2083.3
753.907	2111.97
754.091	2091.49
754.275	2038.24
754.459	1980.9
754.643	2062.82
754.828	2060.77
755.012	1982.95
755.196	1995.23
755.38	1991.14
755.564	1855.97
755.748	1982.95
755.932	2001.38
756.116	1941.99
756.3	1974.75
756.484	1776.1
756.668	1868.26
756.852	1833.44
757.036	1884.64
757.22	1772
757.404	1864.16
757.588	1722.85
757.772	1763.81
757.956	1788.39
758.14	1853.92
758.323	1739.24
758.507	1737.19
758.691	1702.37
758.875	1778.15
759.059	1772
759.242	1673.7
759.426	1688.04
759.61	1753.57
759.794	1673.7
759.977	1776.1
760.161	1716.71
760.345	1700.33
760.528	1630.7
760.712	1634.79
760.895	1624.55
761.079	1597.93
761.263	1569.26
761.446	1532.39
761.63	1509.86
761.813	1448.43
761.997	1534.44
762.18	1509.86
762.364	1591.78
762.547	1530.34
762.731	1536.49
762.914	1473
763.098	1501.67
763.281	1479.15
763.464	1581.54
763.648	1485.29
763.831	1466.86
764.015	1432.04
764.198	1509.86
764.381	1389.03
764.564	1487.34
764.748	1505.77
764.931	1495.53
765.114	1423.85
765.297	1407.47
765.481	1374.7
765.664	1427.95
765.847	1372.65
766.03	1366.51
766.213	1475.05
766.397	1255.92
766.58	1307.12
766.763	1325.55
766.946	1460.71
767.129	1321.45
767.312	1354.22
767.495	1296.88
767.678	1290.73
767.861	1389.03
768.044	1325.55
768.227	1290.73
768.41	1311.21
768.593	1389.03
768.776	1284.59
768.959	1343.98
769.142	1309.16
769.324	1296.88
769.507	1251.82
769.69	1239.53
769.873	1257.96
770.056	1317.36
770.239	1274.35
770.421	1206.77
770.604	1245.68
770.787	1266.16
770.97	1251.82
771.152	1169.9
771.335	1149.42
771.518	1204.72
771.7	1092.08
771.883	1231.34
772.066	1122.8
772.248	1133.04
772.431	1130.99
772.613	1200.62
772.796	1114.61
772.978	1106.42
773.161	1141.23
773.343	1090.03
773.526	1126.89
773.708	1104.37
773.891	1049.07
774.073	1077.74
774.256	1026.54
774.438	1102.32
774.621	1020.4
774.803	1016.3
774.985	1049.07
775.168	1081.84
775.35	1038.83
775.532	1020.4
775.715	1012.21
775.897	961.01
776.079	926.19
776.261	981.49
776.444	991.73
776.626	907.76
776.808	1004.02
776.99	1024.5
777.173	940.53
777.355	1016.3
777.537	809.46
777.719	891.38
777.901	930.29
778.083	901.62
778.265	883.19
778.447	813.56
778.629	893.43
778.811	895.47
778.993	870.9
779.175	899.57
779.357	903.67
779.539	842.23
779.721	981.49
779.903	811.51
780.085	852.47
780.267	930.29
780.449	803.32
780.631	743.92
780.812	831.99
780.994	776.69
781.176	776.69
781.358	758.26
781.54	768.5
781.721	776.69
781.903	739.83
782.085	719.35
782.267	680.44
782.448	676.34
782.63	692.73
782.812	772.6
782.993	645.62
783.175	772.6
783.357	641.53
783.538	688.63
783.72	705.01
783.901	641.53
784.083	721.4
784.264	696.82
784.446	578.04
784.627	596.47
784.809	668.15
784.99	627.19
785.172	666.1
785.353	780.79
785.535	578.04
785.716	610.81
785.897	641.53
786.079	639.48
786.26	514.55
786.441	590.33
786.623	672.25
786.804	633.33
786.985	584.18
787.167	616.95
787.348	571.9
787.529	506.36
787.71	664.05
787.891	518.65
788.073	596.47
788.254	612.85
788.435	659.96
788.616	604.66
788.797	475.64
788.978	547.32
789.159	565.75
789.34	569.85
789.522	483.83
789.703	600.57
789.884	547.32
790.065	541.18
790.246	539.13
790.427	510.46
790.607	555.51
790.788	532.98
790.969	526.84
791.15	430.59
791.331	498.17
791.512	451.07
791.693	514.55
791.874	449.02
792.054	612.85
792.235	489.98
792.416	514.55
792.597	479.74
792.778	494.07
792.958	510.46
793.139	371.19
793.32	543.22
793.5	502.26
793.681	471.54
793.862	453.11
794.042	375.29
794.223	465.4
794.404	406.01
794.584	387.58
794.765	356.86
794.945	383.48
795.126	492.02
795.306	379.39
795.487	489.98
795.667	483.83
795.848	401.91
796.028	496.12
796.209	395.77
796.389	459.26
796.57	332.28
796.75	334.33
796.93	432.63
797.111	377.34
797.291	395.77
797.471	508.41
797.652	465.4
797.832	416.25
798.012	424.44
798.192	412.15
798.373	293.37
798.553	340.47
798.733	356.86
798.913	272.89
799.093	336.38
799.274	410.11
799.454	403.96
799.634	363
799.814	363
799.994	401.91
800.174	391.67
800.354	393.72
800.534	334.33
800.714	311.8
800.894	334.33
801.074	322.04
801.254	369.15
801.434	403.96
801.614	301.56
801.794	348.67
801.974	854.51
802.154	338.43
802.334	320
802.514	291.32
802.693	322.04
802.873	346.62
803.053	354.81
803.233	311.8
803.413	320
803.592	293.37
803.772	246.27
803.952	313.85
804.131	248.32
804.311	293.37
804.491	395.77
804.67	186.88
804.85	336.38
805.03	403.96
805.209	317.95
805.389	320
805.568	276.99
805.748	309.76
805.928	354.81
806.107	313.85
806.287	283.13
806.466	348.67
806.646	328.19
806.825	252.41
807.004	227.84
807.184	299.52
807.363	330.23
807.543	311.8
807.722	254.46
807.901	295.42
808.081	270.84
808.26	236.03
808.439	317.95
808.619	371.19
808.798	221.69
808.977	197.12
809.156	322.04
809.336	279.04
809.515	274.94
809.694	244.22
809.873	248.32
810.052	223.74
810.231	246.27
810.411	240.12
810.59	215.55
810.769	238.08
810.948	276.99
811.127	199.16
811.306	266.75
811.485	150.01
811.664	268.8
811.843	207.36
812.022	231.93
812.201	264.7
812.38	307.71
812.559	182.78
812.737	279.04
812.916	276.99
813.095	252.41
813.274	193.02
813.453	184.83
813.632	311.8
813.811	184.83
813.989	262.65
814.168	266.75
814.347	139.77
814.526	268.8
814.704	258.56
814.883	246.27
815.062	119.29
815.24	213.5
815.419	270.84
815.598	248.32
815.776	160.25
815.955	217.6
816.133	139.77
816.312	256.51
816.49	172.54
816.669	170.49
816.847	141.82
817.026	279.04
817.204	201.21
817.383	182.78
817.561	131.58
817.74	213.5
817.918	225.79
818.097	188.93
818.275	201.21
818.453	209.4
818.632	248.32
818.81	203.26
818.988	203.26
819.167	221.69
819.345	256.51
819.523	176.64
819.701	166.4
819.879	197.12
820.058	141.82
820.236	64
820.414	107.01
820.592	199.16
820.77	145.92
820.948	160.25
821.127	139.77
821.305	170.49
821.483	229.88
821.661	160.25
821.839	199.16
822.017	123.39
822.195	188.93
822.373	162.3
822.551	178.69
822.729	170.49
822.907	172.54
823.085	174.59
823.262	158.21
823.44	219.64
823.618	139.77
823.796	129.53
823.974	109.05
824.152	162.3
824.329	158.21
824.507	129.53
824.685	197.12
824.863	109.05
825.04	154.11
825.218	211.45
825.396	229.88
825.574	141.82
825.751	147.97
825.929	156.16
826.107	117.25
826.284	154.11
826.462	86.53
826.639	121.34
826.817	96.77
826.994	135.68
827.172	70.14
827.349	133.63
827.527	174.59
827.704	156.16
827.882	104.96
828.059	211.45
828.237	90.62
828.414	125.44
828.591	37.38
828.769	150.01
828.946	154.11
829.124	137.73
829.301	166.4
829.478	117.25
829.655	133.63
829.833	129.53
830.01	59.9
830.187	100.86
830.364	59.9
830.542	92.67
830.719	158.21
830.896	90.62
831.073	84.48
831.25	137.73
831.427	129.53
831.604	117.25
831.782	113.15
831.959	209.4
832.136	154.11
832.313	133.63
832.49	84.48
832.667	133.63
832.844	102.91
833.021	125.44
833.198	31.23
833.374	180.73
833.551	147.97
833.728	88.57
833.905	156.16
834.082	139.77
834.259	141.82
834.436	143.87
834.612	121.34
834.789	57.86
834.966	109.05
835.143	94.72
835.319	119.29
835.496	115.2
835.673	92.67
835.85	137.73
836.026	59.9
836.203	184.83
836.38	158.21
836.556	88.57
836.733	84.48
836.909	135.68
837.086	86.53
837.262	125.44
837.439	57.86
837.616	92.67
837.792	39.42
837.968	84.48
838.145	64
838.321	145.92
838.498	119.29
838.674	104.96
838.851	82.43
839.027	98.81
839.203	70.14
839.38	74.24
839.556	33.28
839.732	96.77
839.909	66.05
840.085	96.77
840.261	96.77
840.437	166.4
840.614	129.53
840.79	174.59
840.966	125.44
841.142	74.24
841.318	137.73
841.494	66.05
841.671	166.4
841.847	59.9
842.023	102.91
842.199	92.67
842.375	127.49
842.551	68.09
842.727	68.09
842.903	80.38
843.079	98.81
843.255	100.86
843.431	39.42
843.607	84.48
843.783	59.9
843.959	96.77
844.134	31.23
844.31	131.58
844.486	139.77
844.662	10.75
844.838	76.29
845.013	141.82
845.189	78.33
845.365	41.47
845.541	64
845.716	47.62
845.892	131.58
846.068	88.57
846.244	25.09
846.419	92.67
846.595	55.81
846.77	6.66
846.946	33.28
847.122	92.67
847.297	117.25
847.473	98.81
847.648	33.28
847.824	78.33
847.999	39.42
848.175	96.77
848.35	49.66
848.526	51.71
848.701	66.05
848.876	113.15
849.052	117.25
849.227	86.53
849.403	37.38
849.578	96.77
849.753	72.19
849.929	113.15
850.104	-30.21
850.279	10.75
850.454	51.71
850.63	94.72
850.805	35.33
850.98	100.86
851.155	49.66
851.33	27.14
851.505	55.81
851.681	70.14
851.856	72.19
852.031	92.67
852.206	72.19
852.381	35.33
852.556	76.29
852.731	59.9
852.906	51.71
853.081	152.06
853.256	100.86
853.431	20.99
853.606	27.14
853.781	29.18
853.956	49.66
854.131	109.05
854.305	-24.06
854.48	82.43
854.655	2.56
854.83	98.81
855.005	115.2
855.18	39.42
855.354	31.23
855.529	35.33
855.704	12.8
855.879	90.62
856.053	10.75
856.228	18.94
856.403	39.42
856.577	70.14
856.752	-11.78
856.926	-13.82
857.101	82.43
857.276	39.42
857.45	33.28
857.625	94.72
857.799	41.47
857.974	113.15
858.148	64
858.323	88.57
858.497	18.94
858.672	39.42
858.846	0.51
859.02	86.53
859.195	23.04
859.369	61.95
859.543	31.23
859.718	23.04
859.892	72.19
860.066	39.42
860.241	33.28
860.415	59.9
860.589	8.7
860.763	20.99
860.938	33.28
861.112	68.09
861.286	31.23
861.46	20.99
861.634	2.56
861.808	117.25
861.982	-1.54
862.157	68.09
862.331	57.86
862.505	25.09
862.679	-15.87
862.853	-46.59
863.027	82.43
863.201	111.1
863.375	6.66
863.549	8.7
863.722	76.29
863.896	121.34
864.07	84.48
864.244	117.25
864.418	25.09
864.592	55.81
864.766	100.86
864.939	55.81
865.113	23.04
865.287	96.77
865.461	68.09
865.634	68.09
865.808	49.66
865.982	18.94
866.156	0.51
866.329	68.09
866.503	96.77
866.676	-1.54
866.85	94.72
867.024	-71.17
867.197	16.9
867.371	88.57
867.544	98.81
867.718	74.24
867.891	27.14
868.065	0.51
868.238	27.14
868.412	51.71
868.585	31.23
868.759	25.09
868.932	137.73
869.105	27.14
869.279	-7.68
869.452	-40.45
869.625	45.57
869.799	92.67
869.972	59.9
870.145	10.75
870.319	39.42
870.492	117.25
870.665	-5.63
870.838	59.9
871.011	-77.31
871.185	35.33
871.358	-5.63
871.531	8.7
871.704	35.33
871.877	55.81
872.05	-7.68
872.223	51.71
872.396	43.52
872.569	51.71
872.742	53.76
872.915	66.05
873.088	59.9
873.261	27.14
873.434	76.29
873.607	41.47
873.78	70.14
873.953	31.23
874.126	14.85
874.299	0.51
874.471	41.47
874.644	0.51
874.817	72.19
874.99	102.91
875.163	12.8
875.335	35.33
875.508	16.9
875.681	80.38
875.853	14.85
876.026	-67.07
876.199	57.86
876.371	98.81
876.544	-22.02
876.717	43.52
876.889	35.33
877.062	14.85
877.234	-7.68
877.407	-42.5
877.579	18.94
877.752	37.38
877.924	-1.54
878.097	-22.02
878.269	-7.68
878.442	76.29
878.614	98.81
878.786	20.99
878.959	51.71
879.131	25.09
879.303	-9.73
879.476	-9.73
879.648	90.62
879.82	-1.54
879.993	43.52
880.165	-46.59
880.337	-42.5
880.509	47.62
880.681	39.42
880.854	80.38
881.026	102.91
881.198	86.53
881.37	33.28
881.542	18.94
881.714	2.56
881.886	64
882.058	-95.74
882.23	6.66
882.402	59.9
882.574	35.33
882.746	16.9
882.918	18.94
883.09	-26.11
883.262	2.56
883.434	80.38
883.606	29.18
883.778	68.09
883.95	-5.63
884.122	6.66
884.293	61.95
884.465	-9.73
884.637	92.67
884.809	33.28
884.98	-38.4
885.152	-9.73
885.324	43.52
885.496	31.23
885.667	68.09
885.839	27.14
886.011	55.81
886.182	39.42
886.354	0.51
886.525	37.38
886.697	2.56
886.869	6.66
887.04	68.09
887.212	-28.16
887.383	88.57
887.555	64
887.726	33.28
887.897	4.61
888.069	84.48
888.24	76.29
888.412	20.99
888.583	31.23
888.754	74.24
888.926	23.04
889.097	6.66
889.268	-22.02
889.44	-30.21
889.611	2.56
889.782	10.75
889.953	-22.02
890.125	41.47
890.296	-24.06
890.467	25.09
890.638	2.56
890.809	53.76
890.98	74.24
891.151	-26.11
891.323	47.62
891.494	57.86
891.665	-1.54
891.836	55.81
892.007	117.25
892.178	12.8
892.349	-48.64
892.52	0.51
892.691	-32.26
892.862	18.94
893.032	-17.92
893.203	80.38
893.374	31.23
893.545	57.86
893.716	16.9
893.887	2.56
894.057	57.86
894.228	27.14
894.399	2.56
894.57	82.43
894.74	18.94
894.911	-19.97
895.082	25.09
895.253	107.01
895.423	72.19
895.594	31.23
895.764	-24.06
895.935	-73.21
896.106	-1.54
896.276	76.29
896.447	10.75
896.617	51.71
896.788	-3.58
896.958	49.66
897.129	6.66
897.299	25.09
897.47	51.71
897.64	74.24
897.81	10.75
897.981	8.7
898.151	43.52
898.322	45.57
898.492	-9.73
898.662	10.75
898.832	27.14
899.003	-3.58
899.173	53.76
899.343	51.71
899.513	-58.88
