Data from USB4F104151__233__10-30-26-220.txt Node

Date: Wed Mar 12 10:30:26 EDT 2025
User: louis
Spectrometer: USB4F10415
Trigger mode: 4
Integration Time (sec): 3.000000E-2
Scans to average: 1
Electric dark correction enabled: true
Nonlinearity correction enabled: false
Boxcar width: 0
XAxis mode: Wavelengths
Number of Pixels in Spectrum: 3648
>>>>>Begin Spectral Data<<<<<
178.204	-96.43
178.424	-96.43
178.644	-96.43
178.864	-77.99
179.084	-139.43
179.304	-12.46
179.524	-53.42
179.744	-4.27
179.964	-37.03
180.184	-22.7
180.404	44.88
180.624	-12.46
180.844	14.17
181.064	1.88
181.283	57.17
181.503	26.45
181.723	-2.22
181.943	-57.51
182.163	85.84
182.383	59.22
182.602	-49.32
182.822	34.64
183.042	-10.41
183.262	61.27
183.482	38.74
183.701	81.75
183.921	20.31
184.141	-37.03
184.361	102.23
184.58	51.03
184.8	12.12
185.02	34.64
185.239	100.18
185.459	-14.51
185.679	34.64
185.898	-8.36
186.118	114.52
186.338	32.6
186.557	40.79
186.777	1.88
186.997	32.6
187.216	44.88
187.436	79.7
187.655	36.69
187.875	24.4
188.095	69.46
188.314	73.56
188.534	16.21
188.753	12.12
188.973	-4.27
189.192	79.7
189.412	22.36
189.631	8.02
189.851	20.31
190.07	67.41
190.29	53.08
190.509	20.31
190.729	30.55
190.948	32.6
191.168	118.61
191.387	61.27
191.607	30.55
191.826	73.56
192.045	40.79
192.265	10.07
192.484	75.6
192.704	16.21
192.923	130.9
193.142	53.08
193.362	32.6
193.581	61.27
193.8	77.65
194.02	5.97
194.239	-20.65
194.458	-22.7
194.678	94.04
194.897	53.08
195.116	20.31
195.335	-16.55
195.555	12.12
195.774	20.31
195.993	22.36
196.212	20.31
196.432	-30.89
196.651	57.17
196.87	57.17
197.089	-16.55
197.308	79.7
197.528	59.22
197.747	36.69
197.966	48.98
198.185	75.6
198.404	18.26
198.623	118.61
198.842	-0.17
199.062	28.5
199.281	61.27
199.5	-0.17
199.719	63.32
199.938	18.26
200.157	69.46
200.376	59.22
200.595	81.75
200.814	51.03
201.033	-32.94
201.252	67.41
201.471	48.98
201.69	24.4
201.909	-12.46
202.128	1.88
202.347	51.03
202.566	94.04
202.785	-37.03
203.004	20.31
203.223	38.74
203.442	36.69
203.661	28.5
203.879	112.47
204.098	85.84
204.317	-0.17
204.536	75.6
204.755	53.08
204.974	24.4
205.193	3.93
205.411	57.17
205.63	-28.84
205.849	32.6
206.068	30.55
206.287	12.12
206.505	10.07
206.724	3.93
206.943	5.97
207.162	63.32
207.381	36.69
207.599	118.61
207.818	24.4
208.037	-37.03
208.255	18.26
208.474	122.71
208.693	-10.41
208.911	1.88
209.13	59.22
209.349	83.8
209.567	87.89
209.786	124.76
210.005	34.64
210.223	-14.51
210.442	14.17
210.661	48.98
210.879	-24.75
211.098	40.79
211.316	69.46
211.535	51.03
211.753	22.36
211.972	53.08
212.191	36.69
212.409	36.69
212.628	22.36
212.846	44.88
213.065	122.71
213.283	32.6
213.502	63.32
213.72	3.93
213.938	55.12
214.157	3.93
214.375	116.56
214.594	67.41
214.812	81.75
215.031	14.17
215.249	51.03
215.467	48.98
215.686	75.6
215.904	67.41
216.122	12.12
216.341	-12.46
216.559	55.12
216.778	116.56
216.996	1.88
217.214	-14.51
217.432	48.98
217.651	36.69
217.869	67.41
218.087	63.32
218.306	3.93
218.524	87.89
218.742	26.45
218.96	51.03
219.179	3.93
219.397	73.56
219.615	89.94
219.833	8.02
220.051	-0.17
220.27	-12.46
220.488	24.4
220.706	12.12
220.924	-8.36
221.142	18.26
221.36	44.88
221.578	55.12
221.796	28.5
222.015	24.4
222.233	63.32
222.451	112.47
222.669	-8.36
222.887	67.41
223.105	128.85
223.323	83.8
223.541	71.51
223.759	26.45
223.977	28.5
224.195	5.97
224.413	135
224.631	-34.99
224.849	3.93
225.067	46.93
225.285	30.55
225.503	-18.6
225.721	-30.89
225.939	28.5
226.157	71.51
226.375	-10.41
226.592	42.84
226.81	96.08
227.028	-18.6
227.246	53.08
227.464	65.36
227.682	28.5
227.9	16.21
228.117	53.08
228.335	38.74
228.553	96.08
228.771	12.12
228.989	96.08
229.206	20.31
229.424	-24.75
229.642	53.08
229.86	10.07
230.077	40.79
230.295	32.6
230.513	24.4
230.731	114.52
230.948	85.84
231.166	61.27
231.384	-6.31
231.601	28.5
231.819	55.12
232.037	12.12
232.254	40.79
232.472	14.17
232.689	-20.65
232.907	28.5
233.125	-28.84
233.342	59.22
233.56	34.64
233.777	-39.08
233.995	12.12
234.213	18.26
234.43	48.98
234.648	55.12
234.865	-47.27
235.083	94.04
235.3	-22.7
235.518	1.88
235.735	98.13
235.953	87.89
236.17	-28.84
236.388	57.17
236.605	-55.47
236.822	38.74
237.04	79.7
237.257	34.64
237.475	-8.36
237.692	3.93
237.909	36.69
238.127	32.6
238.344	85.84
238.562	91.99
238.779	-22.7
238.996	69.46
239.214	77.65
239.431	12.12
239.648	-47.27
239.865	20.31
240.083	57.17
240.3	42.84
240.517	-6.31
240.735	89.94
240.952	44.88
241.169	77.65
241.386	44.88
241.603	73.56
241.821	57.17
242.038	26.45
242.255	36.69
242.472	87.89
242.689	65.36
242.907	34.64
243.124	-26.79
243.341	22.36
243.558	-28.84
243.775	-45.23
243.992	-45.23
244.209	75.6
244.426	96.08
244.643	5.97
244.86	36.69
245.078	94.04
245.295	59.22
245.512	-8.36
245.729	-24.75
245.946	61.27
246.163	59.22
246.38	24.4
246.597	42.84
246.814	-4.27
247.031	67.41
247.248	63.32
247.464	67.41
247.681	16.21
247.898	-8.36
248.115	12.12
248.332	14.17
248.549	139.09
248.766	110.42
248.983	12.12
249.2	44.88
249.417	40.79
249.633	-2.22
249.85	51.03
250.067	51.03
250.284	30.55
250.501	28.5
250.717	89.94
250.934	18.26
251.151	-4.27
251.368	48.98
251.585	77.65
251.801	44.88
252.018	38.74
252.235	114.52
252.451	-55.47
252.668	16.21
252.885	65.36
253.102	-75.95
253.318	61.27
253.535	10.07
253.752	67.41
253.968	44.88
254.185	-18.6
254.401	104.28
254.618	151.38
254.835	-12.46
255.051	36.69
255.268	67.41
255.484	16.21
255.701	20.31
255.917	5.97
256.134	-10.41
256.351	102.23
256.567	12.12
256.784	46.93
257	16.21
257.217	48.98
257.433	44.88
257.65	38.74
257.866	-6.31
258.082	36.69
258.299	42.84
258.515	73.56
258.732	24.4
258.948	-22.7
259.165	67.41
259.381	36.69
259.597	91.99
259.814	-16.55
260.03	-28.84
260.246	46.93
260.463	53.08
260.679	42.84
260.895	8.02
261.112	44.88
261.328	-20.65
261.544	36.69
261.761	40.79
261.977	22.36
262.193	63.32
262.409	63.32
262.626	8.02
262.842	77.65
263.058	-20.65
263.274	-41.13
263.49	48.98
263.707	46.93
263.923	69.46
264.139	-14.51
264.355	51.03
264.571	85.84
264.787	98.13
265.004	83.8
265.22	96.08
265.436	12.12
265.652	77.65
265.868	20.31
266.084	-96.43
266.3	34.64
266.516	24.4
266.732	51.03
266.948	34.64
267.164	53.08
267.38	40.79
267.596	-49.32
267.812	77.65
268.028	96.08
268.244	-24.75
268.46	20.31
268.676	14.17
268.892	3.93
269.108	-10.41
269.324	-12.46
269.54	-4.27
269.756	8.02
269.972	-30.89
270.188	100.18
270.403	-4.27
270.619	16.21
270.835	81.75
271.051	26.45
271.267	69.46
271.483	22.36
271.698	38.74
271.914	-41.13
272.13	114.52
272.346	-2.22
272.562	40.79
272.777	44.88
272.993	67.41
273.209	61.27
273.425	124.76
273.64	51.03
273.856	55.12
274.072	20.31
274.287	53.08
274.503	65.36
274.719	75.6
274.934	-12.46
275.15	-69.8
275.366	57.17
275.581	8.02
275.797	100.18
276.012	94.04
276.228	77.65
276.444	51.03
276.659	110.42
276.875	75.6
277.09	46.93
277.306	51.03
277.521	55.12
277.737	89.94
277.952	55.12
278.168	100.18
278.383	12.12
278.599	3.93
278.814	94.04
279.03	44.88
279.245	73.56
279.461	30.55
279.676	102.23
279.892	-14.51
280.107	73.56
280.322	75.6
280.538	118.61
280.753	85.84
280.969	79.7
281.184	32.6
281.399	85.84
281.615	51.03
281.83	102.23
282.045	57.17
282.26	-26.79
282.476	108.37
282.691	87.89
282.906	55.12
283.122	55.12
283.337	-4.27
283.552	102.23
283.767	38.74
283.983	34.64
284.198	61.27
284.413	-4.27
284.628	-4.27
284.843	55.12
285.058	-8.36
285.274	24.4
285.489	8.02
285.704	-24.75
285.919	34.64
286.134	-4.27
286.349	36.69
286.564	12.12
286.779	151.38
286.995	10.07
287.21	18.26
287.425	3.93
287.64	16.21
287.855	69.46
288.07	5.97
288.285	36.69
288.5	38.74
288.715	69.46
288.93	77.65
289.145	10.07
289.36	112.47
289.575	8.02
289.79	71.51
290.004	75.6
290.219	30.55
290.434	38.74
290.649	36.69
290.864	-0.17
291.079	-0.17
291.294	147.28
291.509	48.98
291.724	53.08
291.938	-4.27
292.153	81.75
292.368	12.12
292.583	16.21
292.798	38.74
293.012	73.56
293.227	-4.27
293.442	-22.7
293.657	106.32
293.871	77.65
294.086	61.27
294.301	42.84
294.516	16.21
294.73	14.17
294.945	12.12
295.16	53.08
295.374	94.04
295.589	48.98
295.804	-8.36
296.018	-4.27
296.233	94.04
296.447	102.23
296.662	40.79
296.877	18.26
297.091	118.61
297.306	18.26
297.52	30.55
297.735	5.97
297.949	94.04
298.164	104.28
298.378	8.02
298.593	8.02
298.807	-4.27
299.022	94.04
299.236	30.55
299.451	55.12
299.665	48.98
299.88	79.7
300.094	28.5
300.309	118.61
300.523	30.55
300.737	53.08
300.952	34.64
301.166	32.6
301.381	42.84
301.595	28.5
301.809	44.88
302.024	55.12
302.238	32.6
302.452	79.7
302.667	81.75
302.881	75.6
303.095	36.69
303.309	57.17
303.524	38.74
303.738	26.45
303.952	-6.31
304.166	24.4
304.381	5.97
304.595	73.56
304.809	-39.08
305.023	-18.6
305.237	22.36
305.452	51.03
305.666	51.03
305.88	69.46
306.094	14.17
306.308	75.6
306.522	3.93
306.736	102.23
306.95	114.52
307.164	-4.27
307.379	40.79
307.593	8.02
307.807	28.5
308.021	110.42
308.235	75.6
308.449	34.64
308.663	22.36
308.877	44.88
309.091	135
309.305	100.18
309.519	48.98
309.733	94.04
309.947	40.79
310.161	16.21
310.374	87.89
310.588	73.56
310.802	73.56
311.016	100.18
311.23	122.71
311.444	-37.03
311.658	10.07
311.872	120.66
312.085	57.17
312.299	77.65
312.513	14.17
312.727	61.27
312.941	24.4
313.154	100.18
313.368	30.55
313.582	57.17
313.796	42.84
314.009	61.27
314.223	91.99
314.437	65.36
314.651	-14.51
314.864	40.79
315.078	128.85
315.292	24.4
315.505	28.5
315.719	32.6
315.933	40.79
316.146	-14.51
316.36	32.6
316.573	40.79
316.787	120.66
317.001	81.75
317.214	16.21
317.428	28.5
317.641	24.4
317.855	24.4
318.068	118.61
318.282	61.27
318.495	71.51
318.709	102.23
318.922	30.55
319.136	89.94
319.349	65.36
319.563	-2.22
319.776	36.69
319.99	-28.84
320.203	69.46
320.417	46.93
320.63	71.51
320.843	139.09
321.057	79.7
321.27	5.97
321.483	71.51
321.697	77.65
321.91	61.27
322.124	59.22
322.337	34.64
322.55	18.26
322.763	-24.75
322.977	81.75
323.19	44.88
323.403	36.69
323.617	77.65
323.83	79.7
324.043	104.28
324.256	1.88
324.469	57.17
324.683	71.51
324.896	69.46
325.109	53.08
325.322	46.93
325.535	-22.7
325.748	48.98
325.962	14.17
326.175	16.21
326.388	61.27
326.601	16.21
326.814	-32.94
327.027	53.08
327.24	91.99
327.453	-24.75
327.666	65.36
327.879	96.08
328.092	94.04
328.305	106.32
328.518	79.7
328.731	67.41
328.944	-0.17
329.157	51.03
329.37	77.65
329.583	98.13
329.796	83.8
330.009	24.4
330.222	28.5
330.435	22.36
330.648	-8.36
330.861	42.84
331.073	75.6
331.286	34.64
331.499	61.27
331.712	73.56
331.925	30.55
332.138	-26.79
332.35	126.8
332.563	67.41
332.776	91.99
332.989	26.45
333.202	44.88
333.414	73.56
333.627	30.55
333.84	69.46
334.053	100.18
334.265	75.6
334.478	116.56
334.691	96.08
334.903	-18.6
335.116	36.69
335.329	135
335.541	61.27
335.754	120.66
335.966	-12.46
336.179	16.21
336.392	18.26
336.604	85.84
336.817	40.79
337.029	48.98
337.242	63.32
337.454	36.69
337.667	46.93
337.88	67.41
338.092	-16.55
338.305	-4.27
338.517	-28.84
338.729	94.04
338.942	67.41
339.154	-22.7
339.367	36.69
339.579	32.6
339.792	75.6
340.004	130.9
340.217	53.08
340.429	110.42
340.641	10.07
340.854	63.32
341.066	-2.22
341.278	153.43
341.491	77.65
341.703	65.36
341.915	-30.89
342.128	67.41
342.34	14.17
342.552	67.41
342.764	-8.36
342.977	28.5
343.189	81.75
343.401	55.12
343.613	-4.27
343.826	51.03
344.038	-4.27
344.25	98.13
344.462	42.84
344.674	44.88
344.886	73.56
345.099	53.08
345.311	-10.41
345.523	-24.75
345.735	-24.75
345.947	3.93
346.159	-2.22
346.371	26.45
346.583	-4.27
346.795	106.32
347.007	51.03
347.219	59.22
347.431	59.22
347.643	28.5
347.855	61.27
348.067	94.04
348.279	69.46
348.491	75.6
348.703	36.69
348.915	51.03
349.127	36.69
349.339	16.21
349.551	40.79
349.763	77.65
349.975	12.12
350.187	102.23
350.399	89.94
350.61	-49.32
350.822	16.21
351.034	38.74
351.246	48.98
351.458	77.65
351.669	106.32
351.881	67.41
352.093	73.56
352.305	-2.22
352.517	20.31
352.728	73.56
352.94	48.98
353.152	94.04
353.363	104.28
353.575	128.85
353.787	96.08
353.999	24.4
354.21	89.94
354.422	40.79
354.633	-20.65
354.845	30.55
355.057	34.64
355.268	94.04
355.48	77.65
355.692	16.21
355.903	-4.27
356.115	40.79
356.326	122.71
356.538	89.94
356.749	94.04
356.961	89.94
357.172	-39.08
357.384	36.69
357.595	38.74
357.807	57.17
358.018	1.88
358.23	53.08
358.441	55.12
358.653	53.08
358.864	34.64
359.075	30.55
359.287	44.88
359.498	69.46
359.709	34.64
359.921	-0.17
360.132	77.65
360.344	-10.41
360.555	46.93
360.766	63.32
360.977	44.88
361.189	75.6
361.4	40.79
361.611	48.98
361.823	-26.79
362.034	98.13
362.245	48.98
362.456	51.03
362.667	44.88
362.879	14.17
363.09	18.26
363.301	63.32
363.512	32.6
363.723	98.13
363.935	51.03
364.146	18.26
364.357	89.94
364.568	22.36
364.779	77.65
364.99	98.13
365.201	46.93
365.412	46.93
365.623	120.66
365.834	71.51
366.045	24.4
366.256	87.89
366.467	46.93
366.678	10.07
366.889	73.56
367.1	65.36
367.311	32.6
367.522	30.55
367.733	100.18
367.944	53.08
368.155	61.27
368.366	130.9
368.577	28.5
368.788	75.6
368.999	26.45
369.209	24.4
369.42	124.76
369.631	34.64
369.842	46.93
370.053	32.6
370.264	98.13
370.474	51.03
370.685	69.46
370.896	-0.17
371.107	110.42
371.317	69.46
371.528	51.03
371.739	42.84
371.95	65.36
372.16	46.93
372.371	75.6
372.582	73.56
372.792	28.5
373.003	73.56
373.214	135
373.424	55.12
373.635	61.27
373.846	167.76
374.056	14.17
374.267	77.65
374.477	83.8
374.688	110.42
374.898	71.51
375.109	40.79
375.319	61.27
375.53	32.6
375.74	28.5
375.951	26.45
376.161	61.27
376.372	145.24
376.582	34.64
376.793	67.41
377.003	34.64
377.214	-28.84
377.424	46.93
377.635	42.84
377.845	12.12
378.055	98.13
378.266	69.46
378.476	89.94
378.686	96.08
378.897	24.4
379.107	89.94
379.317	153.43
379.528	55.12
379.738	69.46
379.948	135
380.158	34.64
380.369	75.6
380.579	51.03
380.789	36.69
380.999	61.27
381.21	110.42
381.42	120.66
381.63	51.03
381.84	102.23
382.05	73.56
382.261	51.03
382.471	96.08
382.681	34.64
382.891	61.27
383.101	143.19
383.311	110.42
383.521	61.27
383.731	120.66
383.941	53.08
384.151	53.08
384.361	186.19
384.571	69.46
384.781	106.32
384.991	143.19
385.201	130.9
385.411	32.6
385.621	83.8
385.831	59.22
386.041	87.89
386.251	98.13
386.461	98.13
386.671	40.79
386.881	59.22
387.091	-6.31
387.301	91.99
387.511	155.47
387.72	61.27
387.93	1.88
388.14	48.98
388.35	65.36
388.56	139.09
388.769	85.84
388.979	75.6
389.189	77.65
389.399	46.93
389.609	75.6
389.818	85.84
390.028	112.47
390.238	83.8
390.447	59.22
390.657	110.42
390.867	106.32
391.076	18.26
391.286	126.8
391.496	55.12
391.705	116.56
391.915	108.37
392.125	94.04
392.334	20.31
392.544	81.75
392.753	114.52
392.963	69.46
393.172	114.52
393.382	77.65
393.591	87.89
393.801	106.32
394.01	139.09
394.22	46.93
394.429	-8.36
394.639	163.67
394.848	81.75
395.058	65.36
395.267	81.75
395.477	65.36
395.686	96.08
395.895	165.71
396.105	139.09
396.314	61.27
396.524	69.46
396.733	-12.46
396.942	178
397.152	83.8
397.361	91.99
397.57	155.47
397.78	98.13
397.989	155.47
398.198	108.37
398.407	65.36
398.617	96.08
398.826	98.13
399.035	147.28
399.244	165.71
399.453	180.05
399.663	182.1
399.872	173.91
400.081	116.56
400.29	110.42
400.499	77.65
400.708	38.74
400.917	91.99
401.127	163.67
401.336	81.75
401.545	163.67
401.754	200.53
401.963	139.09
402.172	175.95
402.381	85.84
402.59	73.56
402.799	89.94
403.008	147.28
403.217	116.56
403.426	135
403.635	106.32
403.844	120.66
404.053	221.01
404.262	159.57
404.471	221.01
404.68	163.67
404.888	161.62
405.097	167.76
405.306	143.19
405.515	190.29
405.724	196.43
405.933	192.34
406.142	245.59
406.35	266.07
406.559	153.43
406.768	235.35
406.977	202.58
407.185	225.11
407.394	216.91
407.603	159.57
407.812	221.01
408.02	227.15
408.229	210.77
408.438	266.07
408.646	276.31
408.855	259.92
409.064	241.49
409.272	335.7
409.481	378.7
409.69	298.83
409.898	307.02
410.107	388.94
410.315	360.27
410.524	335.7
410.733	464.72
410.941	372.56
411.15	425.81
411.358	450.38
411.567	474.96
411.775	456.53
411.984	372.56
412.192	440.14
412.401	515.92
412.609	515.92
412.818	530.25
413.026	552.78
413.234	499.53
413.443	585.55
413.651	655.18
413.86	585.55
414.068	651.08
414.276	683.85
414.485	642.89
414.693	747.34
414.901	714.57
415.11	821.06
415.318	769.87
415.526	786.25
415.734	819.02
415.943	859.98
416.151	851.78
416.359	972.61
416.567	929.61
416.776	1029.96
416.984	1126.21
417.192	1120.07
417.4	1085.25
417.608	1099.59
417.817	1179.46
418.025	1249.09
418.233	1378.11
418.441	1288
418.649	1316.67
418.857	1378.11
419.065	1494.85
419.273	1441.6
419.481	1568.57
419.689	1541.95
419.897	1640.25
420.105	1625.92
420.313	1812.28
420.521	1828.67
420.729	1795.9
420.937	1896.25
421.145	1967.93
421.353	2010.93
421.561	2328.37
421.769	2182.96
421.977	2309.94
422.185	2203.44
422.393	2400.05
422.601	2602.8
422.809	2422.58
423.017	2410.29
423.224	2629.42
423.432	2719.53
423.64	2756.4
423.848	2938.66
424.056	2932.52
424.263	3102.5
424.471	3190.56
424.679	3116.84
424.887	3374.88
425.094	3401.51
425.302	3684.13
425.51	3684.13
425.718	3809.05
425.925	3843.87
426.133	3987.22
426.341	4183.83
426.548	4183.83
426.756	4335.38
426.964	4282.13
427.171	4691.73
427.379	4712.21
427.586	4855.56
427.794	4927.24
428.001	5197.57
428.209	5431.04
428.417	5381.89
428.624	5793.53
428.832	5730.05
429.039	5627.65
429.247	5539.58
429.454	6266.61
429.662	6528.75
429.869	6125.3
430.076	6594.29
430.284	6291.19
430.491	6805.23
430.699	7075.56
430.906	7098.09
431.114	7261.93
431.321	7411.43
431.528	7630.56
431.736	7954.14
431.943	8328.92
432.15	8105.69
432.358	8306.39
432.565	8687.31
432.772	8746.7
432.979	9187.02
433.187	9248.46
433.394	9709.25
433.601	10045.12
433.808	9952.96
434.016	10014.4
434.223	10444.47
434.43	10899.12
434.637	10735.28
434.844	11478.69
435.052	11507.37
435.259	11552.42
435.466	11538.09
435.673	11632.29
435.88	12498.58
436.087	12838.55
436.294	13117.07
436.501	12603.03
436.708	13059.73
436.915	13360.78
437.122	13966.98
437.329	13913.73
437.537	14425.72
437.743	14638.71
437.95	14583.41
438.157	15373.93
438.364	15877.73
438.571	15816.29
438.778	15957.6
438.985	17325.64
439.192	16662.1
439.399	17108.56
439.606	16561.75
439.813	17757.77
440.02	18953.78
440.227	18124.35
440.433	18249.28
440.64	18873.91
440.847	18767.41
441.054	19283.5
441.261	20508.19
441.467	20235.81
441.674	20755.99
441.881	21368.34
442.088	21022.23
442.294	20993.56
442.501	21650.95
442.708	21757.45
442.914	23016.95
443.121	24085.99
443.328	23309.81
443.534	24866.27
443.741	23741.93
443.948	23690.73
444.154	25636.3
444.361	25351.63
444.568	25505.23
444.774	25642.45
444.981	25841.1
445.187	26688.96
445.394	27688.37
445.6	27139.51
445.807	30023.05
446.013	28511.65
446.22	29021.59
446.426	30393.73
446.633	30174.6
446.839	31774.06
447.046	30238.09
447.252	31901.04
447.459	31862.13
447.665	31624.56
447.871	33256.79
448.078	34288.97
448.284	32322.92
448.491	33645.91
448.697	34809.15
448.903	35423.54
449.11	35609.91
449.316	35009.86
449.522	35579.19
449.728	36660.52
449.935	36922.66
450.141	36877.6
450.347	37348.64
450.553	36513.06
450.76	36875.55
450.966	37762.33
451.172	37455.13
451.378	38362.38
451.584	37688.6
451.791	38442.25
451.997	38544.65
452.203	38882.56
452.409	38882.56
452.615	38653.19
452.821	37225.76
453.027	37012.77
453.233	38630.66
453.44	37195.04
453.646	37844.24
453.852	37969.17
454.058	37901.59
454.264	37160.22
454.47	37602.58
454.676	36963.62
454.882	38366.48
455.088	34442.57
455.294	35374.39
455.5	35702.07
455.705	36298.03
455.911	34635.08
456.117	33563.99
456.323	33920.34
456.529	31917.42
456.735	33215.83
456.941	32068.97
457.147	31882.61
457.352	31016.32
457.558	30307.72
457.764	30590.34
457.97	29799.82
458.176	29408.66
458.381	29117.85
458.587	27866.54
458.793	27895.21
458.999	26572.22
459.204	28317.09
459.41	27426.23
459.616	25904.59
459.821	25591.25
460.027	25615.82
460.233	24966.62
460.438	23743.98
460.644	24147.43
460.85	22685.18
461.055	22834.68
461.261	22539.77
461.466	20608.54
461.672	20346.4
461.878	21902.86
462.083	20493.85
462.289	19844.65
462.494	19566.12
462.7	18925.11
462.905	18316.86
463.111	19029.55
463.316	19113.52
463.522	18820.66
463.727	18732.6
463.932	18503.23
464.138	18523.71
464.343	18611.77
464.549	17946.18
464.754	18865.72
464.959	18613.82
465.165	18601.53
465.37	17800.77
465.575	16940.63
465.781	17747.53
465.986	17874.5
466.191	17245.77
466.397	16852.56
466.602	16094.82
466.807	16723.54
467.012	16848.47
467.218	16571.99
467.423	16447.07
467.628	16549.46
467.833	17460.81
468.038	16604.76
468.244	16043.62
468.449	16776.79
468.654	16254.56
468.859	16051.81
469.064	16035.42
469.269	15576.68
469.474	15707.75
469.679	15746.66
469.885	15367.79
470.09	15611.5
470.295	15488.62
470.5	15122.03
470.705	15320.68
470.91	14780.02
471.115	14775.92
471.32	14976.62
471.525	14945.91
471.73	14503.54
471.935	14288.51
472.139	13815.43
472.344	14157.44
472.549	13985.41
472.754	13848.19
472.959	13555.33
473.164	13282.95
473.369	13067.92
473.574	13700.74
473.778	13483.66
473.983	13145.74
474.188	13280.91
474.393	12605.08
474.598	12758.67
474.802	12611.22
475.007	12525.21
475.212	12492.44
475.417	12082.84
475.621	12064.41
475.826	12146.33
476.031	11921.06
476.235	11507.37
476.44	11646.63
476.645	11599.52
476.849	11757.22
477.054	11513.51
477.259	11409.06
477.463	11380.39
477.668	11081.39
477.872	11052.72
478.077	11034.28
478.282	10727.09
478.486	10696.37
478.691	10538.68
478.895	10657.46
479.1	10686.13
479.304	10620.6
479.509	10155.71
479.713	10456.76
479.918	9950.91
480.122	9942.72
480.326	10038.97
480.531	10262.2
480.735	10192.57
480.94	9649.86
481.144	10563.25
481.348	9887.42
481.553	10041.02
481.757	9621.19
481.961	9979.58
482.166	9825.98
482.37	9852.61
482.574	9567.94
482.778	9828.03
482.983	9948.86
483.187	9727.68
483.391	9909.95
483.595	9799.36
483.8	9744.06
484.004	9543.36
484.208	9897.66
484.412	9557.7
484.616	9651.91
484.821	9785.02
485.025	9733.82
485.229	9754.3
485.433	9772.74
485.637	9813.7
485.841	9699.01
486.045	9744.06
486.249	9758.4
486.453	9584.32
486.657	9725.63
486.861	9866.94
487.065	9457.35
487.269	9531.08
487.473	9580.23
487.677	9656
487.881	9852.61
488.085	9719.49
488.289	9707.2
488.493	9641.67
488.697	9942.72
488.901	9881.28
489.105	9762.5
489.309	9836.22
489.512	9762.5
489.716	9760.45
489.92	9918.14
490.124	9893.57
490.328	9883.33
490.531	9928.38
490.735	10139.32
490.939	10030.78
491.143	10061.5
491.346	10022.59
491.55	10245.82
491.754	10165.95
491.958	10204.86
492.161	10342.07
492.365	10284.73
492.569	10426.04
492.772	10356.41
492.976	10630.84
493.18	10718.9
493.383	10591.92
493.587	10663.6
493.79	10716.85
493.994	10553.01
494.197	10852.02
494.401	10753.71
494.605	10942.13
494.808	10985.13
495.012	11079.34
495.215	11163.31
495.419	11234.99
495.622	11060.91
495.825	11392.68
496.029	11099.82
496.232	11759.27
496.436	11607.72
496.639	11982.49
496.843	11671.2
497.046	12152.48
497.249	11941.54
497.453	12177.05
497.656	12164.76
497.859	12535.45
498.063	12539.54
498.266	12863.12
498.469	12480.15
498.673	12785.3
498.876	13209.23
499.079	13321.87
499.282	13215.37
499.485	13489.8
499.689	13475.46
499.892	13837.95
500.095	13653.64
500.298	14300.8
500.501	14141.05
500.705	14487.16
500.908	14521.98
501.111	14880.37
501.314	14585.46
501.517	14962.29
501.72	15011.44
501.923	15212.14
502.126	15349.36
502.329	15457.9
502.532	15801.96
502.735	15756.9
502.938	16180.83
503.141	16131.68
503.344	16295.52
503.547	16789.08
503.75	16827.99
503.953	17059.41
504.156	17421.9
504.359	17268.3
504.562	17548.87
504.765	17784.39
504.968	17942.08
505.17	18077.25
505.373	18376.25
505.576	18757.18
505.779	18488.89
505.982	18710.07
506.185	19439.15
506.387	19088.95
506.59	19484.2
506.793	19727.91
506.996	19467.82
507.198	20168.23
507.401	20090.4
507.604	20581.92
507.807	20616.73
508.009	20950.55
508.212	20839.96
508.415	21382.67
508.617	21493.26
508.82	21478.93
509.022	21722.63
509.225	22377.98
509.428	22398.46
509.63	22595.07
509.833	22711.8
510.035	23105.01
510.238	23193.08
510.44	23272.95
510.643	23623.15
510.845	23918.06
511.048	23969.26
511.25	24192.48
511.453	24757.72
511.655	25275.86
511.858	25179.61
512.06	25251.28
512.262	25947.59
512.465	25705.93
512.667	26236.36
512.87	26105.29
513.072	26490.31
513.274	26961.34
513.477	27334.07
513.679	27559.34
513.881	27467.19
514.084	28351.91
514.286	28036.52
514.488	28425.64
514.69	28994.97
514.893	29044.12
515.095	29074.84
515.297	29427.09
515.499	29506.96
515.701	29816.21
515.904	30039.43
516.106	30313.86
516.308	30852.48
516.51	30922.11
516.712	31149.43
516.914	31614.32
517.116	32167.27
517.318	31993.2
517.52	32494.95
517.722	32433.51
517.925	32982.37
518.127	33574.23
518.329	33596.76
518.531	33285.47
518.733	34170.19
518.935	34266.44
519.136	34538.82
519.338	35093.82
519.54	35155.26
519.742	35683.64
519.944	35513.66
520.146	36326.7
520.348	36480.3
520.55	36605.22
520.752	36908.32
520.954	37592.34
521.155	37000.48
521.357	37418.27
521.559	38290.7
521.761	38327.56
521.963	38511.88
522.164	38630.66
522.366	38876.42
522.568	39415.04
522.77	39279.87
522.971	40121.59
523.173	39668.98
523.375	40342.77
523.576	40115.44
523.778	40211.7
523.98	41071.84
524.181	41458.91
524.383	41733.34
524.584	41798.87
524.786	41620.7
524.988	41843.93
525.189	42712.27
525.391	42290.38
525.592	42570.96
525.794	42984.65
525.995	43349.18
526.197	43504.83
526.398	42958.02
526.6	43392.19
526.801	43596.99
527.003	44215.47
527.204	43848.89
527.406	44324.02
527.607	44412.08
527.808	44770.47
528.01	44096.69
528.211	44971.18
528.412	45434.02
528.614	45288.61
528.815	45073.57
529.016	45626.53
529.218	45147.3
529.419	45517.98
529.62	45315.23
529.822	45687.96
530.023	45524.13
530.224	45759.64
530.425	46060.69
530.626	45499.55
530.828	45659.29
531.029	46738.57
531.23	46406.8
531.431	46308.5
531.632	46331.03
531.833	46466.19
532.035	46736.52
532.236	46890.12
532.437	46621.84
532.638	46865.55
532.839	46988.42
533.04	46595.21
533.241	46388.37
533.442	47389.83
533.643	46963.85
533.844	47461.51
534.045	46929.03
534.246	46795.92
534.447	47297.67
534.648	47201.41
534.849	47694.97
535.05	46896.27
535.251	47236.23
535.451	47182.98
535.652	47604.86
535.853	47355.01
536.054	47340.67
536.255	47678.59
536.456	47215.75
536.657	47553.66
536.857	47250.56
537.058	47436.93
537.259	47785.08
537.46	47281.28
537.66	47527.04
537.861	47656.06
538.062	47465.6
538.263	47086.73
538.463	47447.17
538.664	47678.59
538.865	47594.62
539.065	47926.39
539.266	47092.87
539.466	47572.1
539.667	47166.6
539.868	47746.17
540.068	47662.21
540.269	47584.38
540.469	47615.1
540.67	47494.27
540.87	47240.32
541.071	47352.96
541.271	47907.96
541.472	47479.94
541.672	47469.7
541.873	47461.51
542.073	46986.38
542.274	47633.53
542.474	47371.39
542.675	47127.69
542.875	47604.86
543.075	47488.13
543.276	47017.1
543.476	47764.6
543.676	47084.68
543.877	47441.03
544.077	47484.03
544.277	47297.67
544.478	47064.2
544.678	47316.1
544.878	47375.49
545.078	46888.07
545.279	47250.56
545.479	46701.71
545.679	47453.31
545.879	47166.6
546.079	47125.64
546.28	47379.59
546.48	46863.5
546.68	47119.49
546.88	47076.49
547.08	46922.89
547.28	47013
547.48	46668.94
547.68	47010.95
547.88	46433.42
548.081	46818.44
548.281	47082.63
548.481	46630.03
548.681	47262.85
548.881	47234.18
549.081	47137.93
549.28	46808.2
549.48	47273.09
549.68	46607.5
549.88	47428.74
550.08	46775.44
550.28	47170.69
550.48	47062.15
550.68	47305.86
550.88	46734.48
551.08	46875.79
551.279	46781.58
551.479	46603.41
551.679	46711.95
551.879	46419.09
552.079	47252.61
552.278	46439.57
552.478	46871.69
552.678	46593.17
552.878	46914.7
553.077	46595.21
553.277	46068.89
553.477	47273.09
553.676	46478.48
553.876	46404.75
554.076	46257.3
554.275	46388.37
554.475	45976.73
554.674	46580.88
554.874	46597.26
555.074	46093.46
555.273	46349.46
555.473	46933.13
555.672	46279.83
555.872	46134.42
556.071	46240.92
556.271	46863.5
556.47	45931.67
556.67	46105.75
556.869	45909.14
557.068	45966.49
557.268	45675.68
557.467	45741.21
557.667	45657.24
557.866	46212.24
558.065	45522.08
558.265	45278.37
558.464	45601.95
558.663	45638.81
558.863	45173.92
559.062	45745.31
559.261	45135.01
559.461	45794.46
559.66	44737.71
559.859	45151.4
560.058	44434.61
560.258	45028.52
560.457	44766.38
560.656	45073.57
560.855	45298.85
561.054	45030.57
561.253	44295.35
561.453	44592.3
561.652	44780.71
561.851	44676.27
562.05	44274.87
562.249	44057.78
562.448	44530.86
562.647	44143.8
562.846	44242.1
563.045	44176.56
563.244	43857.08
563.443	44125.36
563.642	43605.18
563.841	43756.73
564.04	43347.14
564.239	43955.38
564.438	43203.78
564.637	43451.58
564.836	43459.77
565.035	43453.63
565.234	43300.03
565.432	42923.21
565.631	42429.65
565.83	42892.49
566.029	42239.18
566.228	42622.15
566.427	42738.89
566.625	42505.42
566.824	41972.95
567.023	42753.22
567.222	41407.71
567.42	42173.65
567.619	42235.09
567.818	41733.34
568.016	42042.58
568.215	42226.9
568.414	41563.36
568.612	41792.73
568.811	41518.3
569.01	41219.3
569.208	40867.05
569.407	41420
569.605	40867.05
569.804	41096.42
570.002	40717.54
570.201	41063.65
570.4	40760.55
570.598	40434.92
570.797	40242.42
570.995	40088.82
571.193	39714.04
571.392	40219.89
571.59	39877.88
571.789	39648.5
571.987	40076.53
572.186	39836.92
572.384	39576.83
572.582	39871.73
572.781	39732.47
572.979	38884.61
573.177	39515.39
573.376	39335.17
573.574	38888.71
573.772	38767.88
573.971	38835.46
574.169	38937.86
574.367	38333.71
574.565	38389
574.763	38558.98
574.962	38348.04
575.16	37940.5
575.358	38378.76
575.556	37639.45
575.754	38483.21
575.952	37657.88
576.151	37991.7
576.349	37571.86
576.547	37336.35
576.745	37969.17
576.943	37631.26
577.141	37477.66
577.339	37336.35
577.537	37084.45
577.735	37168.41
577.933	36820.26
578.131	36807.97
578.329	36822.31
578.527	36295.98
578.725	36732.2
578.923	36508.97
579.121	36484.39
579.319	36136.24
579.516	36621.61
579.714	36097.33
579.912	36058.42
580.11	35968.3
580.308	35896.63
580.506	35904.82
580.704	35339.58
580.901	35675.44
581.099	35917.11
581.297	35593.53
581.495	34940.22
581.692	34995.52
581.89	34932.03
582.088	35343.67
582.285	34600.26
582.483	35052.86
582.681	34913.6
582.878	35022.14
583.076	34305.35
583.274	34819.39
583.471	34415.94
583.669	34383.18
583.866	34372.94
584.064	34440.52
584.262	33543.51
584.459	34162
584.657	33723.73
584.854	34610.5
585.052	33316.18
585.249	33699.16
585.447	33817.94
585.644	33209.69
585.841	33279.32
586.039	33348.95
586.236	32996.7
586.434	32935.26
586.631	32660.83
586.828	32884.06
587.026	32904.54
587.223	32951.65
587.42	32398.69
587.618	32570.72
587.815	32179.56
588.012	32220.52
588.21	32062.83
588.407	32497
588.604	31944.05
588.801	32032.11
588.999	31794.54
589.196	31731.06
589.393	31753.58
589.59	31651.19
589.787	31708.53
589.984	31675.76
590.182	31487.35
590.379	31186.3
590.576	31077.76
590.773	31380.85
590.97	30852.48
591.167	31133.05
591.364	30506.37
591.561	30840.19
591.758	30696.83
591.955	30637.44
592.152	30621.06
592.349	30039.43
592.546	30248.33
592.743	30430.6
592.94	29732.24
593.137	30037.39
593.334	30109.07
593.531	29879.69
593.727	29801.87
593.924	29896.08
594.121	29416.85
594.318	29521.3
594.515	29300.12
594.712	29259.16
594.908	29201.82
595.105	29423
595.302	28980.64
595.499	29150.62
595.696	29373.85
595.892	28982.68
596.089	28941.72
596.286	28693.92
596.482	28536.23
596.679	28536.23
596.876	28642.72
597.072	28255.65
597.269	28388.77
597.466	28413.35
597.662	28085.67
597.859	28048.81
598.055	27964.84
598.252	27635.12
598.448	28007.85
598.645	27608.5
598.841	27368.88
599.038	27723.18
599.234	27428.27
599.431	27092.41
599.627	27540.91
599.824	27159.99
600.02	27149.75
600.217	27352.5
600.413	27069.88
600.609	26871.23
600.806	26965.43
601.002	27057.59
601.198	26725.82
601.395	26535.36
601.591	26301.89
601.787	26582.46
601.984	26285.51
602.18	26883.52
602.376	25937.35
602.572	25884.11
602.769	25890.25
602.965	25619.92
603.161	25845.19
603.357	25687.5
603.553	25742.8
603.75	25558.48
603.946	25382.35
604.142	25386.45
604.338	25114.07
604.534	25419.22
604.73	25331.15
604.926	24970.71
605.122	25269.72
605.318	25071.06
605.514	25155.03
605.71	24675.8
605.906	24665.56
606.102	24933.85
606.298	24679.9
606.494	24688.09
606.69	24452.58
606.886	24710.62
607.082	24317.41
607.278	24612.32
607.474	24208.87
607.67	24079.85
607.866	24188.39
608.062	24432.1
608.257	24188.39
608.453	24124.9
608.649	24014.31
608.845	23975.4
609.041	24028.65
609.236	23961.06
609.432	23883.24
609.628	24098.28
609.824	23772.65
610.019	23698.92
610.215	23344.63
610.411	23756.27
610.606	23193.08
610.802	23401.97
610.998	23418.35
611.193	23193.08
611.389	23205.36
611.584	23268.85
611.78	22889.98
611.976	23397.87
612.171	22943.22
612.367	23082.49
612.562	23002.61
612.758	22830.58
612.953	22672.89
613.149	22728.19
613.344	22892.02
613.539	22914.55
613.735	22699.51
613.93	22740.47
614.126	22545.92
614.321	22781.43
614.517	22294.02
614.712	22586.88
614.907	22500.86
615.103	22603.26
615.298	22324.74
615.493	22312.45
615.688	22033.93
615.884	22623.74
616.079	22015.49
616.274	22220.29
616.47	22005.25
616.665	22050.31
616.86	21913.09
617.055	21880.33
617.25	22054.4
617.445	21896.71
617.641	21472.78
617.836	21947.91
618.031	21204.5
618.226	21853.7
618.421	21571.08
618.616	21589.52
618.811	21544.46
619.006	21517.84
619.201	20946.45
619.396	21155.35
619.591	20819.48
619.786	21165.59
619.981	20719.13
620.176	21151.25
620.371	20649.5
620.566	20856.34
620.761	20710.94
620.956	20622.87
621.151	20340.25
621.346	20571.68
621.541	20098.59
621.735	20246.05
621.93	19807.78
622.125	20043.3
622.32	19705.38
622.515	19809.83
622.709	19424.81
622.904	19500.59
623.099	19258.93
623.294	19471.92
623.488	19162.67
623.683	19373.61
623.878	18828.85
624.072	19043.89
624.267	19146.29
624.462	18654.78
624.656	18513.47
624.851	18533.95
625.046	18597.43
625.24	18732.6
625.435	18409.02
625.629	18114.11
625.824	18271.81
626.018	17995.33
626.213	17708.62
626.407	18144.83
626.602	17712.71
626.796	17616.46
626.991	17686.09
627.185	17335.88
627.38	17192.53
627.574	17327.69
627.768	16983.63
627.963	17051.22
628.157	16993.87
628.352	17043.03
628.546	16604.76
628.74	16830.04
628.935	16623.19
629.129	16852.56
629.323	16266.85
629.517	16524.89
629.712	16512.6
629.906	16094.82
630.1	16117.34
630.294	15967.84
630.489	16078.43
630.683	15799.91
630.877	15629.93
631.071	15423.08
631.265	15711.85
631.459	15554.15
631.653	15187.57
631.848	15421.03
632.042	15255.15
632.236	15341.16
632.43	14839.41
632.624	15171.18
632.818	14911.09
633.012	14960.24
633.206	14835.31
633.4	14675.57
633.594	14607.99
633.788	14495.35
633.982	14333.56
634.176	14501.5
634.369	14325.37
634.563	14425.72
634.757	13993.6
634.951	14190.2
635.145	14104.19
635.339	14024.32
635.533	13848.19
635.726	13899.39
635.92	13596.29
636.114	14009.98
636.308	13493.9
636.501	13622.92
636.695	13430.41
636.889	13096.59
637.083	13297.29
637.276	13348.49
637.47	13029.01
637.664	12881.55
637.857	13106.83
638.051	13002.38
638.244	12801.68
638.438	12533.4
638.632	12820.11
638.825	12646.04
639.019	12701.33
639.212	12402.33
639.406	12289.69
639.599	12392.09
639.793	12275.35
639.986	12136.09
640.18	12320.41
640.373	12076.7
640.567	11935.39
640.76	12045.98
640.954	12005.02
641.147	11706.02
641.34	11546.28
641.534	11669.16
641.727	11540.13
641.92	11771.55
642.114	11407.02
642.307	11357.86
642.5	11343.53
642.694	11140.78
642.887	11105.96
643.08	11402.92
643.273	11099.82
643.467	10997.42
643.66	10983.09
643.853	10942.13
644.046	10712.75
644.239	10780.34
644.432	10772.14
644.626	10876.59
644.819	10538.68
645.012	10608.31
645.205	10677.94
645.398	10495.67
645.591	10342.07
645.784	10571.44
645.977	10505.91
646.17	10161.85
646.363	10174.14
646.556	10172.09
646.749	10180.28
646.942	10272.44
647.135	10012.35
647.328	9989.82
647.521	9975.49
647.714	9885.37
647.907	9789.12
648.099	9672.39
648.292	9772.74
648.485	9610.95
648.678	9445.06
648.871	9438.92
649.064	9416.39
649.256	9584.32
649.449	9494.21
649.642	9242.31
649.835	9109.19
650.027	9264.84
650.22	9221.83
650.413	9062.09
650.605	9084.62
650.798	9109.19
650.991	8777.42
651.183	9002.7
651.376	8908.49
651.568	8715.98
651.761	8752.85
651.954	8738.51
652.146	8799.95
652.339	8758.99
652.531	8720.08
652.724	8498.9
652.916	8308.44
653.109	8609.49
653.301	8437.46
653.494	8466.13
653.686	8197.85
653.879	8453.84
654.071	8056.54
654.263	8175.32
654.456	8320.73
654.648	8255.19
654.84	8036.06
655.033	8105.69
655.225	8171.22
655.417	8040.15
655.61	7888.6
655.802	7909.08
655.994	7653.09
656.186	7767.77
656.379	7786.21
656.571	7642.85
656.763	7667.42
656.955	7587.55
657.148	7653.09
657.34	7569.12
657.532	7339.75
657.724	7263.97
657.916	7382.76
658.108	7644.9
658.3	7184.1
658.492	7487.2
658.684	7243.49
658.876	7327.46
659.068	7302.89
659.26	7204.58
659.452	7343.85
659.644	7079.66
659.836	7104.23
660.028	7057.13
660.22	6936.3
660.412	6883.05
660.604	6772.46
660.796	6848.24
660.988	6905.58
661.18	6817.52
661.372	6743.79
661.563	6809.33
661.755	6717.17
661.947	6743.79
662.139	6768.37
662.331	6665.97
662.522	6514.42
662.714	6586.1
662.906	6563.57
663.097	6409.97
663.289	6360.82
663.481	6461.17
663.673	6618.86
663.864	6547.19
664.056	6336.24
664.247	6555.38
664.439	6119.16
664.631	6305.53
664.822	6231.8
665.014	6180.6
665.205	6084.34
665.397	6166.26
665.588	6082.3
665.78	5971.71
665.971	6149.88
666.163	6018.81
666.354	6209.27
666.546	5928.7
666.737	5963.51
666.929	5945.08
667.12	5881.6
667.311	5910.27
667.503	5734.14
667.694	5955.32
667.885	5834.49
668.077	5863.16
668.268	5824.25
668.459	5861.12
668.651	5590.78
668.842	5549.82
669.033	5650.18
669.224	5541.63
669.416	5699.33
669.607	5719.81
669.798	5639.94
669.989	5635.84
670.18	5621.5
670.371	5635.84
670.563	5476.1
670.754	5500.67
670.945	5435.14
671.136	5541.63
671.327	5304.07
671.518	5308.16
671.709	5363.46
671.9	5328.64
672.091	5336.84
672.282	5459.71
672.473	5328.64
672.664	5265.16
672.855	5136.13
673.046	5328.64
673.237	5480.19
673.428	5127.94
673.619	5244.68
673.809	5320.45
674	5205.77
674.191	5345.03
674.382	5138.18
674.573	5252.87
674.764	5211.91
674.954	5111.56
675.145	5197.57
675.336	5119.75
675.527	4972.3
675.717	5107.46
675.908	5101.32
676.099	5103.37
676.289	5203.72
676.48	5011.21
676.671	5005.06
676.861	5142.28
677.052	5082.89
677.243	5013.26
677.433	5056.26
677.624	5072.65
677.814	5007.11
678.005	4982.54
678.195	4904.71
678.386	5046.02
678.576	4968.2
678.767	4972.3
678.957	4955.91
679.148	4986.63
679.338	4929.29
679.529	4968.2
679.719	4808.46
679.909	4992.78
680.1	4873.99
680.29	4845.32
680.481	4876.04
680.671	4849.42
680.861	4675.34
681.052	4802.32
681.242	4812.56
681.432	4949.77
681.622	4775.69
681.813	4871.95
682.003	4830.99
682.193	4712.21
682.383	4693.77
682.573	4833.04
682.764	4781.84
682.954	4640.53
683.144	4855.56
683.334	4810.51
683.524	4763.4
683.714	4697.87
683.904	4773.64
684.094	4683.53
684.284	4648.72
684.474	4744.97
684.664	4652.81
684.854	4665.1
685.044	4689.68
685.234	4665.1
685.424	4611.85
685.614	4519.7
685.804	4714.25
685.994	4570.9
686.184	4640.53
686.374	4685.58
686.564	4708.11
686.753	4525.84
686.943	4476.69
687.133	4585.23
687.323	4351.76
687.513	4550.42
687.702	4523.79
687.892	4540.18
688.082	4433.68
688.272	4517.65
688.461	4456.21
688.651	4474.64
688.841	4466.45
689.03	4245.27
689.22	4413.2
689.41	4263.7
689.599	4507.41
689.789	4353.81
689.979	4327.19
690.168	4366.1
690.358	4292.37
690.547	4333.33
690.737	4130.58
690.926	4241.17
691.116	4167.45
691.305	4124.44
691.495	4177.69
691.684	4142.87
691.874	4054.81
692.063	4071.19
692.252	4093.72
692.442	4128.53
692.631	4108.05
692.82	4048.66
693.01	4089.62
693.199	4089.62
693.388	3893.02
693.578	3931.93
693.767	3940.12
693.956	4044.57
694.146	3899.16
694.335	3788.57
694.524	3847.96
694.713	3917.59
694.902	3983.13
695.092	3874.59
695.281	3933.98
695.47	3880.73
695.659	3620.64
695.848	3819.29
696.037	3804.96
696.226	3952.41
696.415	3813.15
696.604	3919.64
696.793	3843.87
696.982	3845.91
697.171	3911.45
697.36	3796.76
697.549	3655.45
697.738	3972.89
697.927	3768.09
698.116	3720.99
698.305	3798.81
698.494	3856.15
698.683	3725.08
698.872	3823.39
699.061	3770.14
699.25	3788.57
699.438	3704.6
699.627	3733.28
699.816	3770.14
700.005	3661.6
700.193	3706.65
700.382	3680.03
700.571	3661.6
700.76	3761.95
700.948	3741.47
701.137	3764
701.326	3645.21
701.514	3770.14
701.703	3747.61
701.892	3622.69
702.08	3714.84
702.269	3704.6
702.457	3657.5
702.646	3680.03
702.834	3684.13
703.023	3596.06
703.212	3634.97
703.4	3712.8
703.589	3659.55
703.777	3663.65
703.965	3551.01
704.154	3682.08
704.342	3551.01
704.531	3551.01
704.719	3565.34
704.907	3596.06
705.096	3622.69
705.284	3637.02
705.472	3559.2
705.661	3606.3
705.849	3680.03
706.037	3667.74
706.226	3688.22
706.414	3452.7
706.602	3532.58
706.79	3591.97
706.979	3536.67
707.167	3454.75
707.355	3727.13
707.543	3499.81
707.731	3620.64
707.919	3594.01
708.107	3624.73
708.296	3487.52
708.484	3626.78
708.672	3614.49
708.86	3493.66
709.048	3694.36
709.236	3682.08
709.424	3477.28
709.612	3551.01
709.8	3581.73
709.988	3510.05
710.176	3671.84
710.364	3528.48
710.551	3591.97
710.739	3596.06
710.927	3583.77
711.115	3600.16
711.303	3583.77
711.491	3594.01
711.679	3579.68
711.866	3563.29
712.054	3551.01
712.242	3569.44
712.43	3598.11
712.617	3628.83
712.805	3688.22
712.993	3647.26
713.181	3483.42
713.368	3665.69
713.556	3712.8
713.744	3542.82
713.931	3637.02
714.119	3571.49
714.306	3743.52
714.494	3610.4
714.682	3669.79
714.869	3405.6
715.057	3508
715.244	3637.02
715.432	3677.98
715.619	3481.38
715.807	3735.32
715.994	3694.36
716.182	3436.32
716.369	3464.99
716.556	3725.08
716.744	3682.08
716.931	3706.65
717.119	3692.32
717.306	3581.73
717.493	3577.63
717.681	3589.92
717.868	3569.44
718.055	3667.74
718.242	3591.97
718.43	3579.68
718.617	3573.53
718.804	3440.42
718.991	3714.84
719.179	3665.69
719.366	3598.11
719.553	3553.06
719.74	3540.77
719.927	3796.76
720.114	3612.45
720.301	3555.1
720.488	3548.96
720.676	3559.2
720.863	3641.12
721.05	3555.1
721.237	3524.38
721.424	3741.47
721.611	3612.45
721.798	3632.93
721.985	3591.97
722.172	3704.6
722.358	3569.44
722.545	3702.56
722.732	3643.17
722.919	3542.82
723.106	3569.44
723.293	3555.1
723.48	3604.25
723.667	3508
723.853	3403.55
724.04	3534.62
724.227	3591.97
724.414	3542.82
724.6	3432.22
724.787	3618.59
724.974	3503.9
725.161	3444.51
725.347	3387.17
725.534	3559.2
725.72	3604.25
725.907	3583.77
726.094	3583.77
726.28	3714.84
726.467	3569.44
726.653	3497.76
726.84	3528.48
727.027	3569.44
727.213	3565.34
727.4	3454.75
727.586	3497.76
727.773	3600.16
727.959	3546.91
728.145	3479.33
728.332	3538.72
728.518	3481.38
728.705	3491.62
728.891	3477.28
729.077	3378.98
729.264	3503.9
729.45	3323.68
729.636	3503.9
729.823	3421.99
730.009	3364.64
730.195	3608.35
730.382	3405.6
730.568	3340.07
730.754	3411.75
730.94	3395.36
731.126	3368.74
731.313	3514.14
731.499	3432.22
731.685	3411.75
731.871	3419.94
732.057	3381.03
732.243	3454.75
732.429	3346.21
732.615	3456.8
732.801	3381.03
732.987	3378.98
733.173	3276.58
733.359	3284.77
733.545	3428.13
733.731	3286.82
733.917	3368.74
734.103	3624.73
734.289	3491.62
734.475	3329.83
734.661	3489.57
734.847	3338.02
735.033	3458.85
735.219	3319.59
735.404	3305.25
735.59	3395.36
735.776	3393.31
735.962	3362.59
736.148	3421.99
736.333	3243.81
736.519	3313.44
736.705	3354.4
736.89	3467.04
737.076	3157.8
737.262	3340.07
737.447	3077.93
737.633	3239.72
737.819	3252
738.004	3295.01
738.19	3084.07
738.375	3139.37
738.561	3426.08
738.747	3186.47
738.932	3147.56
739.118	3196.71
739.303	3327.78
739.489	3329.83
739.674	3157.8
739.859	3106.6
740.045	3274.53
740.23	3163.94
740.416	3086.12
740.601	3237.67
740.786	3041.06
740.972	3104.55
741.157	3157.8
741.342	2957.1
741.528	3118.89
741.713	3120.93
741.898	3018.54
742.084	2967.34
742.269	3061.54
742.454	2944.81
742.639	2963.24
742.824	2821.93
743.01	3049.25
743.195	3071.78
743.38	2969.38
743.565	2893.61
743.75	3174.18
743.935	2844.46
744.12	3032.87
744.305	2946.86
744.49	2969.38
744.675	2846.51
744.86	2889.51
745.045	2715.44
745.23	2842.41
745.415	2848.55
745.6	2928.42
745.785	2740.01
745.97	2746.16
746.155	2678.57
746.34	2809.64
746.525	2707.24
746.71	2641.71
746.895	2668.33
747.079	2633.52
747.264	2731.82
747.449	2674.48
747.634	2598.7
747.819	2715.44
748.003	2592.56
748.188	2477.87
748.373	2506.54
748.557	2600.75
748.742	2621.23
748.927	2465.58
749.111	2621.23
749.296	2518.83
749.481	2436.91
749.665	2438.96
749.85	2393.9
750.034	2406.19
750.219	2377.52
750.404	2434.86
750.588	2342.71
750.773	2344.75
750.957	2379.57
751.141	2344.75
751.326	2342.71
751.51	2187.06
751.695	2291.51
751.879	2232.12
752.064	2334.51
752.248	2387.76
752.432	2043.7
752.617	2221.88
752.801	2305.84
752.985	2254.64
753.17	2205.49
753.354	2166.58
753.538	2094.9
753.722	2074.42
753.907	2080.57
754.091	2055.99
754.275	2031.41
754.459	1945.4
754.643	2068.28
754.828	2023.22
755.012	1939.26
755.196	1867.58
755.38	2027.32
755.564	1898.3
755.748	1886.01
755.932	1976.12
756.116	1906.49
756.3	1853.24
756.484	1871.67
756.668	1951.54
756.852	1810.23
757.036	1861.43
757.22	1838.91
757.404	1773.37
757.588	1845.05
757.772	1761.08
757.956	1814.33
758.14	1773.37
758.323	1716.03
758.507	1785.66
758.691	1716.03
758.875	1521.47
759.059	1720.12
759.242	1679.16
759.426	1673.02
759.61	1685.31
759.794	1554.24
759.977	1699.64
760.161	1687.36
760.345	1640.25
760.528	1701.69
760.712	1584.96
760.895	1615.68
761.079	1617.72
761.263	1601.34
761.446	1482.56
761.63	1654.59
761.813	1638.2
761.997	1541.95
762.18	1558.33
762.364	1470.27
762.547	1531.71
762.731	1478.46
762.914	1460.03
763.098	1539.9
763.281	1490.75
763.464	1486.65
763.648	1457.98
763.831	1419.07
764.015	1423.17
764.198	1484.61
764.381	1513.28
764.564	1404.74
764.748	1443.65
764.931	1505.09
765.114	1339.2
765.297	1476.41
765.481	1357.63
765.664	1343.3
765.847	1298.24
766.03	1367.87
766.213	1376.06
766.397	1335.1
766.58	1347.39
766.763	1376.06
766.946	1285.95
767.129	1318.72
767.312	1367.87
767.495	1294.15
767.678	1181.51
767.861	1277.76
768.044	1300.29
768.227	1331.01
768.41	1306.43
768.593	1228.61
768.776	1183.56
768.959	1249.09
769.142	1281.86
769.324	1257.28
769.507	1285.95
769.69	1324.87
769.873	1230.66
770.056	1322.82
770.239	1189.7
770.421	1324.87
770.604	1195.84
770.787	1206.08
770.97	1156.93
771.152	1232.71
771.335	1216.32
771.518	1204.03
771.7	1236.8
771.883	1201.99
772.066	1124.16
772.248	1103.68
772.431	1107.78
772.613	1204.03
772.796	1210.18
772.978	1128.26
773.161	1206.08
773.343	1066.82
773.526	1058.63
773.708	1091.4
773.891	1150.79
774.073	1140.55
774.256	1052.49
774.438	1077.06
774.621	1107.78
774.803	1077.06
774.985	980.81
775.168	1091.4
775.35	995.14
775.532	995.14
775.715	1019.72
775.897	1003.33
776.079	964.42
776.261	1027.91
776.444	966.47
776.626	907.08
776.808	864.07
776.99	872.26
777.173	925.51
777.355	876.36
777.537	956.23
777.719	923.46
777.901	970.57
778.083	915.27
778.265	892.74
778.447	1032.01
778.629	905.03
778.811	870.22
778.993	816.97
779.175	843.59
779.357	782.15
779.539	829.26
779.721	896.84
779.903	802.63
780.085	816.97
780.267	909.13
780.449	763.72
780.631	794.44
780.812	773.96
780.994	839.5
781.176	702.28
781.358	745.29
781.54	716.62
781.721	796.49
781.903	706.38
782.085	714.57
782.267	733
782.448	659.28
782.63	769.87
782.812	802.63
782.993	755.53
783.175	816.97
783.357	663.37
783.538	741.19
783.72	626.51
783.901	651.08
784.083	708.43
784.264	628.56
784.446	630.6
784.627	649.04
784.809	642.89
784.99	624.46
785.172	667.47
785.353	597.84
785.535	689.99
785.716	614.22
785.897	671.56
786.079	669.52
786.26	614.22
786.441	601.93
786.623	587.6
786.804	614.22
786.985	624.46
787.167	501.58
787.348	581.45
787.529	569.16
787.71	671.56
787.891	606.03
788.073	601.93
788.254	507.73
788.435	573.26
788.616	583.5
788.797	546.64
788.978	548.68
789.159	524.11
789.34	505.68
789.522	511.82
789.703	483.15
789.884	474.96
790.065	515.92
790.246	560.97
790.427	544.59
790.607	515.92
790.788	563.02
790.969	456.53
791.15	458.57
791.331	501.58
791.512	458.57
791.693	450.38
791.874	544.59
792.054	567.12
792.235	460.62
792.416	421.71
792.597	483.15
792.778	401.23
792.958	503.63
793.139	345.94
793.32	343.89
793.5	511.82
793.681	431.95
793.862	425.81
794.042	347.98
794.223	495.44
794.404	460.62
794.584	397.14
794.765	421.71
794.945	466.77
795.126	483.15
795.306	421.71
795.487	384.85
795.667	374.61
795.848	462.67
796.028	380.75
796.209	366.42
796.389	460.62
796.57	401.23
796.75	378.7
796.93	405.33
797.111	364.37
797.291	343.89
797.471	401.23
797.652	407.38
797.832	315.22
798.012	415.57
798.192	352.08
798.373	362.32
798.553	388.94
798.733	456.53
798.913	315.22
799.093	345.94
799.274	364.37
799.454	362.32
799.634	364.37
799.814	358.22
799.994	380.75
800.174	317.26
800.354	347.98
800.534	364.37
800.714	438.09
800.894	341.84
801.074	307.02
801.254	302.93
801.434	352.08
801.614	331.6
801.794	278.35
801.974	819.02
802.154	249.68
802.334	304.98
802.514	241.49
802.693	341.84
802.873	282.45
803.053	386.9
803.233	382.8
803.413	274.26
803.592	292.69
803.772	266.07
803.952	319.31
804.131	292.69
804.311	284.5
804.491	321.36
804.67	311.12
804.85	237.39
805.03	319.31
805.209	270.16
805.389	347.98
805.568	264.02
805.748	216.91
805.928	245.59
806.107	274.26
806.287	231.25
806.466	307.02
806.646	235.35
806.825	200.53
807.004	223.06
807.184	331.6
807.363	298.83
807.543	249.68
807.722	233.3
807.901	229.2
808.081	239.44
808.26	229.2
808.439	288.59
808.619	208.72
808.798	278.35
808.977	237.39
809.156	253.78
809.336	204.63
809.515	210.77
809.694	257.87
809.873	202.58
810.052	302.93
810.231	229.2
810.411	241.49
810.59	241.49
810.769	214.87
810.948	264.02
811.127	212.82
811.306	229.2
811.485	259.92
811.664	261.97
811.843	249.68
812.022	241.49
812.201	231.25
812.38	259.92
812.559	257.87
812.737	257.87
812.916	235.35
813.095	214.87
813.274	218.96
813.453	245.59
813.632	214.87
813.811	304.98
813.989	190.29
814.168	294.74
814.347	180.05
814.526	278.35
814.704	229.2
814.883	251.73
815.062	169.81
815.24	198.48
815.419	241.49
815.598	157.52
815.776	161.62
815.955	282.45
816.133	89.94
816.312	218.96
816.49	210.77
816.669	151.38
816.847	124.76
817.026	149.33
817.204	196.43
817.383	235.35
817.561	124.76
817.74	182.1
817.918	169.81
818.097	231.25
818.275	216.91
818.453	194.39
818.632	188.24
818.81	102.23
818.988	214.87
819.167	200.53
819.345	157.52
819.523	175.95
819.701	102.23
819.879	165.71
820.058	145.24
820.236	204.63
820.414	175.95
820.592	100.18
820.77	124.76
820.948	218.96
821.127	118.61
821.305	198.48
821.483	91.99
821.661	165.71
821.839	192.34
822.017	180.05
822.195	116.56
822.373	196.43
822.551	175.95
822.729	198.48
822.907	247.63
823.085	214.87
823.262	190.29
823.44	141.14
823.618	221.01
823.796	147.28
823.974	192.34
824.152	59.22
824.329	163.67
824.507	161.62
824.685	182.1
824.863	141.14
825.04	137.04
825.218	200.53
825.396	139.09
825.574	106.32
825.751	188.24
825.929	124.76
826.107	141.14
826.284	104.28
826.462	188.24
826.639	108.37
826.817	67.41
826.994	122.71
827.172	114.52
827.349	175.95
827.527	184.15
827.704	161.62
827.882	87.89
828.059	114.52
828.237	118.61
828.414	102.23
828.591	157.52
828.769	180.05
828.946	110.42
829.124	126.8
829.301	151.38
829.478	124.76
829.655	194.39
829.833	79.7
830.01	98.13
830.187	173.91
830.364	83.8
830.542	171.86
830.719	118.61
830.896	108.37
831.073	55.12
831.25	122.71
831.427	137.04
831.604	94.04
831.782	108.37
831.959	212.82
832.136	104.28
832.313	114.52
832.49	59.22
832.667	104.28
832.844	110.42
833.021	149.33
833.198	40.79
833.374	139.09
833.551	143.19
833.728	69.46
833.905	135
834.082	108.37
834.259	161.62
834.436	79.7
834.612	57.17
834.789	130.9
834.966	114.52
835.143	120.66
835.319	132.95
835.496	73.56
835.673	118.61
835.85	192.34
836.026	59.22
836.203	155.47
836.38	69.46
836.556	167.76
836.733	83.8
836.909	171.86
837.086	83.8
837.262	108.37
837.439	112.47
837.616	122.71
837.792	18.26
837.968	147.28
838.145	10.07
838.321	126.8
838.498	98.13
838.674	81.75
838.851	137.04
839.027	112.47
839.203	30.55
839.38	104.28
839.556	132.95
839.732	83.8
839.909	139.09
840.085	71.51
840.261	69.46
840.437	67.41
840.614	85.84
840.79	26.45
840.966	79.7
841.142	108.37
841.318	94.04
841.494	155.47
841.671	83.8
841.847	57.17
842.023	44.88
842.199	167.76
842.375	83.8
842.551	38.74
842.727	53.08
842.903	63.32
843.079	87.89
843.255	98.13
843.431	59.22
843.607	67.41
843.783	112.47
843.959	94.04
844.134	44.88
844.31	126.8
844.486	71.51
844.662	91.99
844.838	14.17
845.013	77.65
845.189	42.84
845.365	14.17
845.541	59.22
845.716	36.69
845.892	89.94
846.068	20.31
846.244	48.98
846.419	59.22
846.595	34.64
846.77	28.5
846.946	34.64
847.122	135
847.297	77.65
847.473	91.99
847.648	32.6
847.824	130.9
847.999	-4.27
848.175	128.85
848.35	14.17
848.526	178
848.701	24.4
848.876	55.12
849.052	77.65
849.227	36.69
849.403	89.94
849.578	94.04
849.753	69.46
849.929	20.31
850.104	8.02
850.279	16.21
850.454	57.17
850.63	91.99
850.805	38.74
850.98	79.7
851.155	30.55
851.33	44.88
851.505	63.32
851.681	38.74
851.856	18.26
852.031	69.46
852.206	-2.22
852.381	89.94
852.556	40.79
852.731	85.84
852.906	87.89
853.081	98.13
853.256	69.46
853.431	14.17
853.606	40.79
853.781	32.6
853.956	16.21
854.131	57.17
854.305	32.6
854.48	44.88
854.655	12.12
854.83	34.64
855.005	12.12
855.18	59.22
855.354	26.45
855.529	48.98
855.704	44.88
855.879	67.41
856.053	20.31
856.228	3.93
856.403	63.32
856.577	30.55
856.752	-4.27
856.926	75.6
857.101	44.88
857.276	22.36
857.45	65.36
857.625	102.23
857.799	5.97
857.974	12.12
858.148	-4.27
858.323	85.84
858.497	26.45
858.672	42.84
858.846	36.69
859.02	24.4
859.195	46.93
859.369	5.97
859.543	61.27
859.718	85.84
859.892	20.31
860.066	22.36
860.241	-12.46
860.415	-0.17
860.589	57.17
860.763	63.32
860.938	28.5
861.112	48.98
861.286	8.02
861.46	-34.99
861.634	40.79
861.808	77.65
861.982	-4.27
862.157	3.93
862.331	-8.36
862.505	-12.46
862.679	38.74
862.853	-10.41
863.027	65.36
863.201	112.47
863.375	-28.84
863.549	22.36
863.722	-43.18
863.896	67.41
864.07	143.19
864.244	-2.22
864.418	98.13
864.592	48.98
864.766	44.88
864.939	40.79
865.113	36.69
865.287	85.84
865.461	-32.94
865.634	46.93
865.808	46.93
865.982	32.6
866.156	28.5
866.329	-12.46
866.503	22.36
866.676	16.21
866.85	-4.27
867.024	-6.31
867.197	1.88
867.371	46.93
867.544	55.12
867.718	32.6
867.891	24.4
868.065	12.12
868.238	12.12
868.412	-6.31
868.585	-8.36
868.759	57.17
868.932	28.5
869.105	32.6
869.279	24.4
869.452	46.93
869.625	-37.03
869.799	-26.79
869.972	36.69
870.145	5.97
870.319	10.07
870.492	-43.18
870.665	1.88
870.838	79.7
871.011	-30.89
871.185	40.79
871.358	22.36
871.531	-55.47
871.704	85.84
871.877	16.21
872.05	-55.47
872.223	34.64
872.396	77.65
872.569	16.21
872.742	-71.85
872.915	16.21
873.088	67.41
873.261	20.31
873.434	26.45
873.607	-22.7
873.78	71.51
873.953	5.97
874.126	-6.31
874.299	26.45
874.471	26.45
874.644	-6.31
874.817	-8.36
874.99	36.69
875.163	-0.17
875.335	53.08
875.508	-2.22
875.681	61.27
875.853	3.93
876.026	44.88
876.199	63.32
876.371	32.6
876.544	8.02
876.717	24.4
876.889	-2.22
877.062	28.5
877.234	-84.14
877.407	53.08
877.579	14.17
877.752	-4.27
877.924	24.4
878.097	32.6
878.269	-24.75
878.442	12.12
878.614	-51.37
878.786	-20.65
878.959	-24.75
879.131	14.17
879.303	12.12
879.476	-16.55
879.648	120.66
879.82	55.12
879.993	-57.51
880.165	28.5
880.337	-37.03
880.509	-12.46
880.681	-4.27
880.854	20.31
881.026	36.69
881.198	73.56
881.37	-2.22
881.542	-16.55
881.714	22.36
881.886	-32.94
882.058	57.17
882.23	34.64
882.402	20.31
882.574	24.4
882.746	-0.17
882.918	120.66
883.09	-55.47
883.262	20.31
883.434	36.69
883.606	-14.51
883.778	-4.27
883.95	73.56
884.122	63.32
884.293	-41.13
884.465	44.88
884.637	-28.84
884.809	-4.27
884.98	53.08
885.152	26.45
885.324	3.93
885.496	-30.89
885.667	-41.13
885.839	-30.89
886.011	40.79
886.182	106.32
886.354	32.6
886.525	40.79
886.697	51.03
886.869	59.22
887.04	-49.32
887.212	1.88
887.383	36.69
887.555	44.88
887.726	-45.23
887.897	-41.13
888.069	12.12
888.24	16.21
888.412	-2.22
888.583	36.69
888.754	91.99
888.926	-41.13
889.097	-16.55
889.268	-12.46
889.44	26.45
889.611	-0.17
889.782	-4.27
889.953	-45.23
890.125	61.27
890.296	61.27
890.467	36.69
890.638	20.31
890.809	77.65
890.98	-0.17
891.151	40.79
891.323	91.99
891.494	8.02
891.665	10.07
891.836	-14.51
892.007	10.07
892.178	8.02
892.349	26.45
892.52	-37.03
892.691	20.31
892.862	-14.51
893.032	-18.6
893.203	-24.75
893.374	38.74
893.545	10.07
893.716	-14.51
893.887	51.03
894.057	22.36
894.228	44.88
894.399	-73.9
894.57	3.93
894.74	69.46
894.911	59.22
895.082	40.79
895.253	1.88
895.423	3.93
895.594	-24.75
895.764	16.21
895.935	61.27
896.106	-6.31
896.276	10.07
896.447	26.45
896.617	20.31
896.788	-51.37
896.958	12.12
897.129	20.31
897.299	-0.17
897.47	75.6
897.64	16.21
897.81	28.5
897.981	22.36
898.151	-26.79
898.322	59.22
898.492	5.97
898.662	42.84
898.832	-77.99
899.003	-32.94
899.173	28.5
899.343	16.21
899.513	32.6
