Data from USB4F104151__25__10-21-37-228.txt Node

Date: Wed Mar 12 10:21:37 EDT 2025
User: louis
Spectrometer: USB4F10415
Trigger mode: 4
Integration Time (sec): 3.000000E-2
Scans to average: 1
Electric dark correction enabled: true
Nonlinearity correction enabled: false
Boxcar width: 0
XAxis mode: Wavelengths
Number of Pixels in Spectrum: 3648
>>>>>Begin Spectral Data<<<<<
178.204	-56.49
178.424	-56.49
178.644	-56.49
178.864	-117.93
179.084	-87.21
179.304	7
179.524	-48.3
179.744	-17.58
179.964	-50.35
180.184	80.72
180.404	2.9
180.624	-3.24
180.844	21.33
181.064	-1.19
181.283	39.76
181.503	23.38
181.723	-54.44
181.943	11.09
182.163	9.05
182.383	33.62
182.602	50
182.822	70.48
183.042	84.82
183.262	11.09
183.482	50
183.701	19.29
183.921	115.54
184.141	-13.48
184.361	64.34
184.58	25.43
184.8	35.67
185.02	52.05
185.239	23.38
185.459	45.91
185.679	121.68
185.898	45.91
186.118	72.53
186.338	41.81
186.557	62.29
186.777	45.91
186.997	2.9
187.216	-7.34
187.436	23.38
187.655	21.33
187.875	62.29
188.095	45.91
188.314	133.97
188.534	109.4
188.753	7
188.973	13.14
189.192	47.96
189.412	-5.29
189.631	7
189.851	52.05
190.07	88.92
190.29	19.29
190.509	35.67
190.729	33.62
190.948	54.1
191.168	131.92
191.387	52.05
191.607	2.9
191.826	54.1
192.045	19.29
192.265	45.91
192.484	-5.29
192.704	113.49
192.923	15.19
193.142	113.49
193.362	39.76
193.581	64.34
193.8	37.72
194.02	58.2
194.239	23.38
194.458	62.29
194.678	-25.77
194.897	29.52
195.116	54.1
195.335	90.96
195.555	101.2
195.774	37.72
195.993	58.2
196.212	31.57
196.432	93.01
196.651	31.57
196.87	-13.48
197.089	101.2
197.308	-3.24
197.528	97.11
197.747	-1.19
197.966	80.72
198.185	72.53
198.404	0.85
198.623	45.91
198.842	80.72
199.062	47.96
199.281	35.67
199.5	99.16
199.719	78.68
199.938	58.2
200.157	166.74
200.376	35.67
200.595	41.81
200.814	109.4
201.033	25.43
201.252	68.44
201.471	54.1
201.69	101.2
201.909	39.76
202.128	56.15
202.347	76.63
202.566	72.53
202.785	21.33
203.004	-50.35
203.223	86.87
203.442	27.48
203.661	125.78
203.879	23.38
204.098	60.24
204.317	56.15
204.536	17.24
204.755	31.57
204.974	56.15
205.193	105.3
205.411	64.34
205.63	78.68
205.849	-11.43
206.068	66.39
206.287	86.87
206.505	56.15
206.724	-31.91
206.943	64.34
207.162	68.44
207.381	37.72
207.599	105.3
207.818	-68.78
208.037	-29.87
208.255	68.44
208.474	52.05
208.693	39.76
208.911	70.48
209.13	23.38
209.349	19.29
209.567	52.05
209.786	64.34
210.005	4.95
210.223	105.3
210.442	-11.43
210.661	66.39
210.879	123.73
211.098	-31.91
211.316	68.44
211.535	-38.06
211.753	50
211.972	78.68
212.191	15.19
212.409	-13.48
212.628	31.57
212.846	17.24
213.065	33.62
213.283	52.05
213.502	47.96
213.72	97.11
213.938	76.63
214.157	54.1
214.375	58.2
214.594	11.09
214.812	23.38
215.031	86.87
215.249	-33.96
215.467	99.16
215.686	47.96
215.904	150.36
216.122	62.29
216.341	54.1
216.559	117.59
216.778	78.68
216.996	56.15
217.214	62.29
217.432	-13.48
217.651	4.95
217.869	-38.06
218.087	-38.06
218.306	7
218.524	148.31
218.742	-7.34
218.96	58.2
219.179	60.24
219.397	72.53
219.615	47.96
219.833	7
220.051	58.2
220.27	29.52
220.488	21.33
220.706	95.06
220.924	50
221.142	54.1
221.36	-36.01
221.578	52.05
221.796	33.62
222.015	43.86
222.233	43.86
222.451	72.53
222.669	9.05
222.887	25.43
223.105	43.86
223.323	0.85
223.541	-31.91
223.759	-9.39
223.977	70.48
224.195	52.05
224.413	90.96
224.631	64.34
224.849	84.82
225.067	105.3
225.285	-7.34
225.503	72.53
225.721	93.01
225.939	103.25
226.157	-25.77
226.375	90.96
226.592	56.15
226.81	31.57
227.028	45.91
227.246	23.38
227.464	39.76
227.682	37.72
227.9	64.34
228.117	37.72
228.335	56.15
228.553	82.77
228.771	45.91
228.989	72.53
229.206	72.53
229.424	37.72
229.642	27.48
229.86	37.72
230.077	133.97
230.295	41.81
230.513	54.1
230.731	76.63
230.948	70.48
231.166	95.06
231.384	90.96
231.601	11.09
231.819	-23.72
232.037	-25.77
232.254	97.11
232.472	37.72
232.689	2.9
232.907	117.59
233.125	52.05
233.342	-31.91
233.56	29.52
233.777	31.57
233.995	33.62
234.213	43.86
234.43	-29.87
234.648	66.39
234.865	80.72
235.083	13.14
235.3	70.48
235.518	56.15
235.735	86.87
235.953	52.05
236.17	23.38
236.388	-9.39
236.605	-11.43
236.822	39.76
237.04	43.86
237.257	58.2
237.475	33.62
237.692	29.52
237.909	103.25
238.127	62.29
238.344	23.38
238.562	78.68
238.779	11.09
238.996	23.38
239.214	35.67
239.431	58.2
239.648	-13.48
239.865	84.82
240.083	62.29
240.3	101.2
240.517	41.81
240.735	-9.39
240.952	93.01
241.169	50
241.386	84.82
241.603	4.95
241.821	35.67
242.038	68.44
242.255	56.15
242.472	-17.58
242.689	39.76
242.907	7
243.124	-13.48
243.341	0.85
243.558	-62.63
243.775	66.39
243.992	29.52
244.209	31.57
244.426	97.11
244.643	113.49
244.86	7
245.078	47.96
245.295	117.59
245.512	80.72
245.729	29.52
245.946	103.25
246.163	2.9
246.38	68.44
246.597	45.91
246.814	-7.34
247.031	31.57
247.248	70.48
247.464	76.63
247.681	43.86
247.898	56.15
248.115	72.53
248.332	52.05
248.549	21.33
248.766	113.49
248.983	72.53
249.2	58.2
249.417	86.87
249.633	-52.39
249.85	33.62
250.067	47.96
250.284	33.62
250.501	93.01
250.717	101.2
250.934	39.76
251.151	78.68
251.368	60.24
251.585	60.24
251.801	35.67
252.018	103.25
252.235	107.35
252.451	39.76
252.668	43.86
252.885	23.38
253.102	23.38
253.318	-21.67
253.535	41.81
253.752	39.76
253.968	31.57
254.185	-48.3
254.401	37.72
254.618	23.38
254.835	47.96
255.051	70.48
255.268	-1.19
255.484	76.63
255.701	56.15
255.917	56.15
256.134	23.38
256.351	37.72
256.567	11.09
256.784	37.72
257	-42.15
257.217	103.25
257.433	25.43
257.65	39.76
257.866	56.15
258.082	37.72
258.299	33.62
258.515	23.38
258.732	41.81
258.948	60.24
259.165	70.48
259.381	90.96
259.597	58.2
259.814	82.77
260.03	84.82
260.246	19.29
260.463	56.15
260.679	39.76
260.895	29.52
261.112	99.16
261.328	43.86
261.544	29.52
261.761	103.25
261.977	90.96
262.193	-5.29
262.409	50
262.626	29.52
262.842	88.92
263.058	4.95
263.274	150.36
263.49	64.34
263.707	54.1
263.923	58.2
264.139	-1.19
264.355	50
264.571	78.68
264.787	86.87
265.004	113.49
265.22	74.58
265.436	58.2
265.652	64.34
265.868	35.67
266.084	4.95
266.3	31.57
266.516	-38.06
266.732	125.78
266.948	90.96
267.164	54.1
267.38	47.96
267.596	56.15
267.812	43.86
268.028	105.3
268.244	54.1
268.46	80.72
268.676	21.33
268.892	43.86
269.108	97.11
269.324	35.67
269.54	80.72
269.756	68.44
269.972	54.1
270.188	52.05
270.403	66.39
270.619	35.67
270.835	45.91
271.051	58.2
271.267	56.15
271.483	54.1
271.698	15.19
271.914	68.44
272.13	58.2
272.346	86.87
272.562	68.44
272.777	74.58
272.993	58.2
273.209	56.15
273.425	31.57
273.64	7
273.856	80.72
274.072	64.34
274.287	15.19
274.503	43.86
274.719	9.05
274.934	13.14
275.15	33.62
275.366	35.67
275.581	11.09
275.797	-15.53
276.012	27.48
276.228	17.24
276.444	95.06
276.659	66.39
276.875	58.2
277.09	35.67
277.306	21.33
277.521	43.86
277.737	-1.19
277.952	25.43
278.168	47.96
278.383	80.72
278.599	4.95
278.814	56.15
279.03	15.19
279.245	72.53
279.461	62.29
279.676	84.82
279.892	25.43
280.107	2.9
280.322	23.38
280.538	43.86
280.753	50
280.969	78.68
281.184	2.9
281.399	115.54
281.615	17.24
281.83	66.39
282.045	113.49
282.26	23.38
282.476	129.88
282.691	-13.48
282.906	162.64
283.122	95.06
283.337	19.29
283.552	68.44
283.767	80.72
283.983	27.48
284.198	-17.58
284.413	60.24
284.628	95.06
284.843	31.57
285.058	54.1
285.274	-5.29
285.489	19.29
285.704	162.64
285.919	33.62
286.134	70.48
286.349	19.29
286.564	80.72
286.779	62.29
286.995	-17.58
287.21	-9.39
287.425	13.14
287.64	95.06
287.855	4.95
288.07	47.96
288.285	146.26
288.5	97.11
288.715	70.48
288.93	31.57
289.145	15.19
289.36	29.52
289.575	-17.58
289.79	78.68
290.004	-13.48
290.219	117.59
290.434	7
290.649	41.81
290.864	64.34
291.079	52.05
291.294	4.95
291.509	86.87
291.724	84.82
291.938	72.53
292.153	60.24
292.368	37.72
292.583	66.39
292.798	47.96
293.012	39.76
293.227	15.19
293.442	0.85
293.657	19.29
293.871	88.92
294.086	107.35
294.301	107.35
294.516	99.16
294.73	68.44
294.945	54.1
295.16	41.81
295.374	47.96
295.589	88.92
295.804	35.67
296.018	84.82
296.233	109.4
296.447	74.58
296.662	39.76
296.877	29.52
297.091	60.24
297.306	117.59
297.52	-5.29
297.735	68.44
297.949	47.96
298.164	41.81
298.378	35.67
298.593	56.15
298.807	54.1
299.022	-56.49
299.236	78.68
299.451	43.86
299.665	41.81
299.88	7
300.094	72.53
300.309	50
300.523	23.38
300.737	72.53
300.952	105.3
301.166	43.86
301.381	-13.48
301.595	27.48
301.809	74.58
302.024	50
302.238	47.96
302.452	158.55
302.667	56.15
302.881	90.96
303.095	74.58
303.309	9.05
303.524	31.57
303.738	45.91
303.952	-15.53
304.166	88.92
304.381	-19.63
304.595	95.06
304.809	13.14
305.023	72.53
305.237	74.58
305.452	52.05
305.666	31.57
305.88	90.96
306.094	-25.77
306.308	31.57
306.522	41.81
306.736	35.67
306.95	80.72
307.164	68.44
307.379	21.33
307.593	103.25
307.807	93.01
308.021	95.06
308.235	90.96
308.449	47.96
308.663	52.05
308.877	131.92
309.091	-11.43
309.305	50
309.519	-38.06
309.733	103.25
309.947	31.57
310.161	33.62
310.374	60.24
310.588	154.45
310.802	56.15
311.016	52.05
311.23	121.68
311.444	33.62
311.658	-7.34
311.872	68.44
312.085	121.68
312.299	54.1
312.513	72.53
312.727	52.05
312.941	0.85
313.154	37.72
313.368	95.06
313.582	25.43
313.796	21.33
314.009	29.52
314.223	129.88
314.437	-1.19
314.651	76.63
314.864	105.3
315.078	35.67
315.292	23.38
315.505	64.34
315.719	76.63
315.933	56.15
316.146	25.43
316.36	-38.06
316.573	45.91
316.787	109.4
317.001	64.34
317.214	31.57
317.428	41.81
317.641	-21.67
317.855	115.54
318.068	50
318.282	78.68
318.495	136.02
318.709	7
318.922	31.57
319.136	80.72
319.349	23.38
319.563	29.52
319.776	64.34
319.99	-1.19
320.203	27.48
320.417	-27.82
320.63	68.44
320.843	80.72
321.057	56.15
321.27	45.91
321.483	2.9
321.697	138.07
321.91	-23.72
322.124	74.58
322.337	129.88
322.55	56.15
322.763	105.3
322.977	64.34
323.19	39.76
323.403	-5.29
323.617	93.01
323.83	82.77
324.043	7
324.256	97.11
324.469	103.25
324.683	64.34
324.896	64.34
325.109	43.86
325.322	76.63
325.535	93.01
325.748	60.24
325.962	80.72
326.175	7
326.388	111.44
326.601	43.86
326.814	72.53
327.027	72.53
327.24	82.77
327.453	31.57
327.666	72.53
327.879	47.96
328.092	97.11
328.305	125.78
328.518	-1.19
328.731	45.91
328.944	74.58
329.157	72.53
329.37	88.92
329.583	45.91
329.796	103.25
330.009	19.29
330.222	121.68
330.435	129.88
330.648	88.92
330.861	58.2
331.073	41.81
331.286	39.76
331.499	60.24
331.712	64.34
331.925	76.63
332.138	23.38
332.35	41.81
332.563	-21.67
332.776	121.68
332.989	64.34
333.202	129.88
333.414	82.77
333.627	82.77
333.84	17.24
334.053	119.64
334.265	17.24
334.478	-33.96
334.691	54.1
334.903	47.96
335.116	47.96
335.329	15.19
335.541	138.07
335.754	121.68
335.966	45.91
336.179	125.78
336.392	66.39
336.604	140.12
336.817	45.91
337.029	90.96
337.242	41.81
337.454	78.68
337.667	23.38
337.88	115.54
338.092	72.53
338.305	15.19
338.517	25.43
338.729	43.86
338.942	56.15
339.154	39.76
339.367	68.44
339.579	93.01
339.792	64.34
340.004	31.57
340.217	58.2
340.429	50
340.641	21.33
340.854	103.25
341.066	95.06
341.278	93.01
341.491	105.3
341.703	105.3
341.915	-21.67
342.128	70.48
342.34	9.05
342.552	43.86
342.764	47.96
342.977	64.34
343.189	39.76
343.401	97.11
343.613	23.38
343.826	64.34
344.038	68.44
344.25	74.58
344.462	43.86
344.674	78.68
344.886	119.64
345.099	43.86
345.311	52.05
345.523	45.91
345.735	56.15
345.947	129.88
346.159	-31.91
346.371	66.39
346.583	127.83
346.795	97.11
347.007	-25.77
347.219	84.82
347.431	88.92
347.643	39.76
347.855	35.67
348.067	99.16
348.279	-33.96
348.491	35.67
348.703	25.43
348.915	68.44
349.127	43.86
349.339	80.72
349.551	43.86
349.763	86.87
349.975	-5.29
350.187	160.59
350.399	84.82
350.61	58.2
350.822	84.82
351.034	84.82
351.246	80.72
351.458	54.1
351.669	21.33
351.881	117.59
352.093	150.36
352.305	76.63
352.517	74.58
352.728	78.68
352.94	105.3
353.152	88.92
353.363	70.48
353.575	70.48
353.787	45.91
353.999	31.57
354.21	93.01
354.422	74.58
354.633	93.01
354.845	19.29
355.057	68.44
355.268	47.96
355.48	45.91
355.692	119.64
355.903	93.01
356.115	72.53
356.326	35.67
356.538	45.91
356.749	27.48
356.961	117.59
357.172	-5.29
357.384	90.96
357.595	54.1
357.807	54.1
358.018	86.87
358.23	21.33
358.441	150.36
358.653	82.77
358.864	35.67
359.075	58.2
359.287	111.44
359.498	15.19
359.709	56.15
359.921	101.2
360.132	60.24
360.344	43.86
360.555	62.29
360.766	78.68
360.977	64.34
361.189	121.68
361.4	17.24
361.611	88.92
361.823	95.06
362.034	41.81
362.245	56.15
362.456	70.48
362.667	70.48
362.879	21.33
363.09	19.29
363.301	35.67
363.512	117.59
363.723	72.53
363.935	0.85
364.146	45.91
364.357	76.63
364.568	64.34
364.779	52.05
364.99	97.11
365.201	72.53
365.412	125.78
365.623	-15.53
365.834	95.06
366.045	121.68
366.256	33.62
366.467	70.48
366.678	35.67
366.889	101.2
367.1	101.2
367.311	148.31
367.522	9.05
367.733	107.35
367.944	21.33
368.155	117.59
368.366	97.11
368.577	97.11
368.788	47.96
368.999	15.19
369.209	21.33
369.42	80.72
369.631	84.82
369.842	88.92
370.053	68.44
370.264	88.92
370.474	27.48
370.685	39.76
370.896	27.48
371.107	99.16
371.317	142.16
371.528	70.48
371.739	80.72
371.95	97.11
372.16	43.86
372.371	19.29
372.582	35.67
372.792	146.26
373.003	80.72
373.214	113.49
373.424	107.35
373.635	62.29
373.846	66.39
374.056	43.86
374.267	25.43
374.477	74.58
374.688	45.91
374.898	97.11
375.109	78.68
375.319	109.4
375.53	88.92
375.74	45.91
375.951	47.96
376.161	121.68
376.372	103.25
376.582	60.24
376.793	129.88
377.003	60.24
377.214	62.29
377.424	109.4
377.635	78.68
377.845	54.1
378.055	101.2
378.266	2.9
378.476	56.15
378.686	82.77
378.897	19.29
379.107	66.39
379.317	74.58
379.528	15.19
379.738	47.96
379.948	0.85
380.158	88.92
380.369	103.25
380.579	25.43
380.789	39.76
380.999	60.24
381.21	97.11
381.42	136.02
381.63	64.34
381.84	50
382.05	43.86
382.261	4.95
382.471	88.92
382.681	150.36
382.891	90.96
383.101	78.68
383.311	-1.19
383.521	13.14
383.731	109.4
383.941	37.72
384.151	60.24
384.361	27.48
384.571	93.01
384.781	97.11
384.991	113.49
385.201	103.25
385.411	47.96
385.621	129.88
385.831	74.58
386.041	131.92
386.251	68.44
386.461	158.55
386.671	84.82
386.881	86.87
387.091	35.67
387.301	76.63
387.511	86.87
387.72	78.68
387.93	86.87
388.14	64.34
388.35	11.09
388.56	76.63
388.769	117.59
388.979	113.49
389.189	27.48
389.399	93.01
389.609	111.44
389.818	56.15
390.028	56.15
390.238	76.63
390.447	93.01
390.657	84.82
390.867	90.96
391.076	88.92
391.286	105.3
391.496	109.4
391.705	56.15
391.915	111.44
392.125	101.2
392.334	13.14
392.544	117.59
392.753	105.3
392.963	21.33
393.172	68.44
393.382	50
393.591	56.15
393.801	66.39
394.01	138.07
394.22	133.97
394.429	68.44
394.639	95.06
394.848	142.16
395.058	101.2
395.267	146.26
395.477	164.69
395.686	117.59
395.895	127.83
396.105	183.12
396.314	109.4
396.524	101.2
396.733	64.34
396.942	121.68
397.152	41.81
397.361	113.49
397.57	95.06
397.78	109.4
397.989	11.09
398.198	166.74
398.407	117.59
398.617	88.92
398.826	113.49
399.035	152.4
399.244	125.78
399.453	146.26
399.663	133.97
399.872	66.39
400.081	170.83
400.29	133.97
400.499	152.4
400.708	144.21
400.917	76.63
401.127	170.83
401.336	95.06
401.545	174.93
401.754	109.4
401.963	236.37
402.172	111.44
402.381	148.31
402.59	84.82
402.799	127.83
403.008	240.47
403.217	113.49
403.426	183.12
403.635	125.78
403.844	160.59
404.053	148.31
404.262	156.5
404.471	117.59
404.68	129.88
404.888	211.79
405.097	154.45
405.306	211.79
405.515	166.74
405.724	166.74
405.933	154.45
406.142	152.4
406.35	193.36
406.559	232.27
406.768	181.07
406.977	275.28
407.185	176.98
407.394	308.05
407.603	168.79
407.812	289.62
408.02	328.53
408.229	187.22
408.438	193.36
408.646	240.47
408.855	248.66
409.064	316.24
409.272	338.77
409.481	283.47
409.69	281.43
409.898	252.75
410.107	353.1
410.315	297.81
410.524	281.43
410.733	336.72
410.941	363.34
411.15	363.34
411.358	381.78
411.567	414.54
411.775	428.88
411.984	412.5
412.192	471.89
412.401	443.21
412.609	457.55
412.818	541.52
413.026	533.33
413.234	605
413.443	496.46
413.651	555.85
413.86	549.71
414.068	570.19
414.276	686.92
414.485	533.33
414.693	564.04
414.901	744.27
415.11	682.83
415.318	768.84
415.526	848.71
415.734	744.27
415.943	879.43
416.151	854.86
416.359	883.53
416.567	873.29
416.776	994.12
416.984	975.69
417.192	1012.55
417.4	983.88
417.608	1002.31
417.817	1047.37
418.025	1153.86
418.233	1178.44
418.441	1117
418.649	1268.55
418.857	1219.39
419.065	1311.55
419.273	1334.08
419.481	1360.7
419.689	1473.34
419.897	1487.68
420.105	1624.89
420.313	1604.41
420.521	1694.52
420.729	1657.66
420.937	1688.38
421.145	1743.67
421.353	1874.74
421.561	1913.66
421.769	2026.29
421.977	2083.64
422.185	1989.43
422.393	2233.14
422.601	2339.63
422.809	2267.95
423.017	2353.97
423.224	2509.62
423.432	2550.57
423.64	2497.33
423.848	2849.58
424.056	2773.8
424.263	2810.67
424.471	2929.45
424.679	2892.59
424.887	3121.96
425.094	3277.6
425.302	3226.4
425.51	3386.15
425.718	3343.14
425.925	3504.93
426.133	3590.94
426.341	3846.94
426.548	3937.05
426.756	3875.61
426.964	3982.1
427.171	4168.47
427.379	4328.21
427.586	4414.23
427.794	4541.2
428.001	4780.81
428.209	5053.19
428.417	4737.81
428.624	5380.87
428.832	5176.07
429.039	5157.64
429.247	5124.87
429.454	5776.13
429.662	6159.1
429.869	5692.16
430.076	6054.65
430.284	5935.87
430.491	6173.43
430.699	6548.21
430.906	6621.94
431.114	6759.15
431.321	6902.51
431.528	7058.15
431.736	7357.16
431.943	7879.39
432.15	7568.1
432.358	7680.74
432.565	8137.43
432.772	8133.34
432.979	8669.91
433.187	8858.32
433.394	8778.45
433.601	9136.84
433.808	9241.29
434.016	9329.35
434.223	9489.09
434.43	10185.4
434.637	9968.32
434.844	10726.07
435.052	10642.1
435.259	10756.79
435.466	10762.93
435.673	10488.5
435.88	11623.08
436.087	11838.11
436.294	11985.57
436.501	11506.34
436.708	12010.14
436.915	12438.17
437.122	12989.07
437.329	12696.21
437.537	13271.69
437.743	13685.38
437.95	13306.51
438.157	14080.64
438.364	14580.34
438.571	14439.03
438.778	14580.34
438.985	15786.6
439.192	15155.82
439.399	15811.17
439.606	15403.63
439.813	16630.36
440.02	17209.93
440.227	16915.03
440.433	17087.06
440.64	17601.1
440.847	17148.5
441.054	17615.43
441.261	18891.32
441.467	18659.9
441.674	18952.76
441.881	19700.26
442.088	19511.85
442.294	19485.23
442.501	20073
442.708	20206.11
442.914	20943.38
443.121	21643.79
443.328	21453.33
443.534	23157.24
443.741	22297.09
443.948	21950.98
444.154	23857.64
444.361	23503.34
444.568	23665.13
444.774	23702
444.981	23679.47
445.187	24611.29
445.394	25463.25
445.6	25309.65
445.807	27564.46
446.013	26300.87
446.22	27075
446.426	27705.77
446.633	28248.49
446.839	29088.15
447.046	27468.21
447.252	29419.92
447.459	29139.35
447.665	29168.02
447.871	30310.79
448.078	31496.56
448.284	30267.78
448.491	31152.51
448.697	31854.96
448.903	32866.66
449.11	32948.57
449.316	32014.7
449.522	32547.17
449.728	33487.19
449.935	34013.52
450.141	34130.25
450.347	34634.05
450.553	33235.29
450.76	33829.2
450.966	34765.12
451.172	34822.47
451.378	35340.6
451.584	34791.75
451.791	35438.9
451.997	34980.16
452.203	35815.73
452.409	35887.41
452.615	35719.48
452.821	34160.97
453.027	33784.15
453.233	35189.05
453.44	33624.4
453.646	34652.48
453.852	34261.32
454.058	35068.22
454.264	33665.36
454.47	34398.54
454.676	33839.44
454.882	34775.36
455.088	31232.38
455.294	32194.92
455.5	32620.9
455.705	32809.31
455.911	31555.96
456.117	31060.35
456.323	30480.77
456.529	29024.67
456.735	30294.41
456.941	29512.08
457.147	29008.28
457.352	28193.19
457.558	27445.68
457.764	27883.95
457.97	27109.82
458.176	26673.6
458.381	26337.73
458.587	25283.03
458.793	25278.93
458.999	23867.88
459.204	25614.8
459.41	24852.95
459.616	23349.75
459.821	23341.55
460.027	23085.56
460.233	22641.15
460.438	21594.64
460.644	22006.28
460.85	21041.68
461.055	20730.39
461.261	20445.73
461.466	18838.07
461.672	18248.25
461.878	19692.07
462.083	18326.08
462.289	18240.06
462.494	18086.47
462.7	17089.1
462.905	16923.22
463.111	17455.69
463.316	17164.88
463.522	16849.49
463.727	17058.39
463.932	16982.61
464.138	16740.95
464.343	16859.73
464.549	16570.97
464.754	16990.8
464.959	16917.08
465.165	16489.05
465.37	15975.01
465.575	15446.63
465.781	16106.08
465.986	16304.73
466.191	15643.24
466.397	15465.07
466.602	14551.67
466.807	15282.8
467.012	15286.89
467.218	15030.9
467.423	15051.38
467.628	15041.14
467.833	15489.64
468.038	15237.74
468.244	14563.96
468.449	15415.91
468.654	14690.93
468.859	14807.67
469.064	14611.06
469.269	14133.89
469.474	13955.71
469.679	14445.18
469.885	13957.76
470.09	13978.24
470.295	13841.03
470.5	13722.24
470.705	13922.94
470.91	13415.05
471.115	12948.11
471.32	13591.17
471.525	13349.51
471.73	12987.02
471.935	12925.58
472.139	12741.27
472.344	12808.85
472.549	12710.55
472.754	12737.17
472.959	12081.82
473.164	12139.16
473.369	11915.94
473.574	12399.26
473.778	12235.42
473.983	12325.53
474.188	11864.74
474.393	11385.51
474.598	11659.94
474.802	11256.49
475.007	11205.29
475.212	11547.3
475.417	10775.22
475.621	10939.05
475.826	11008.69
476.031	10797.74
476.235	10627.76
476.44	10662.58
476.645	10504.89
476.849	10349.24
477.054	10721.97
477.259	10388.15
477.463	10265.27
477.668	10074.81
477.872	10146.49
478.077	9962.17
478.282	9874.11
478.486	9773.76
478.691	9544.39
478.895	9573.06
479.1	9632.45
479.304	9659.07
479.509	9194.19
479.713	9480.9
479.918	9233.1
480.122	9286.34
480.326	9185.99
480.531	9245.38
480.735	9083.59
480.94	8891.09
481.144	9530.05
481.348	9185.99
481.553	9155.27
481.757	8876.75
481.961	8997.58
482.166	9067.21
482.37	9179.85
482.574	9050.83
482.778	8913.61
482.983	9106.12
483.187	8882.89
483.391	9099.98
483.595	8968.91
483.8	8690.38
484.004	9016.01
484.208	9067.21
484.412	8837.84
484.616	8843.98
484.821	8991.44
485.025	8772.3
485.229	9071.31
485.433	8993.48
485.637	8889.04
485.841	8776.4
486.045	9022.16
486.249	8913.61
486.453	8747.73
486.657	8993.48
486.861	8948.43
487.065	8764.11
487.269	8876.75
487.473	8745.68
487.677	9007.82
487.881	9044.68
488.085	8897.23
488.289	9011.92
488.493	8934.09
488.697	8964.81
488.901	9034.44
489.105	9159.37
489.309	9214.66
489.512	8997.58
489.716	9011.92
489.92	9005.77
490.124	9059.02
490.328	9192.14
490.531	9102.03
490.735	9235.14
490.939	9222.86
491.143	9147.08
491.346	9179.85
491.55	9253.58
491.754	9525.96
491.958	9415.37
492.161	9368.26
492.365	9409.22
492.569	9439.94
492.772	9392.84
492.976	9740.99
493.18	9695.94
493.383	9708.23
493.587	9835.2
493.79	10003.13
493.994	9786.05
494.197	9771.71
494.401	9982.65
494.605	9843.39
494.808	10048.19
495.012	10298.04
495.215	10101.44
495.419	10476.21
495.622	10418.87
495.825	10476.21
496.029	10549.94
496.232	10629.81
496.436	10678.96
496.639	11063.98
496.843	10844.85
497.046	11211.43
497.249	11252.39
497.453	11229.87
497.656	11479.72
497.859	11254.44
498.063	11514.53
498.266	11870.88
498.469	11805.35
498.673	11752.1
498.876	12143.26
499.079	12247.71
499.282	12376.73
499.485	12513.94
499.689	12515.99
499.892	12909.2
500.095	12757.65
500.298	13146.76
500.501	13054.61
500.705	13482.63
500.908	13415.05
501.111	13732.48
501.314	13732.48
501.517	13945.47
501.72	14049.92
501.923	14176.89
502.126	14439.03
502.329	14766.71
502.532	14545.53
502.735	14723.7
502.938	15026.8
503.141	15096.43
503.344	15315.56
503.547	15331.95
503.75	15768.16
503.953	15817.32
504.156	15956.58
504.359	16179.81
504.562	16443.99
504.765	16781.91
504.968	16624.22
505.17	16849.49
505.373	16747.09
505.576	17168.98
505.779	17578.57
505.982	17734.21
506.185	18074.18
506.387	17994.31
506.59	17965.64
506.793	18410.04
506.996	18420.28
507.198	18924.08
507.401	19190.32
507.604	19208.75
507.807	19599.91
508.009	19716.65
508.212	19724.84
508.415	20126.24
508.617	20171.3
508.82	20306.46
509.022	20386.33
509.225	21092.88
509.428	20900.37
509.63	21211.67
509.833	21668.36
510.035	22034.95
510.238	21660.17
510.44	22233.6
510.643	22327.81
510.845	22635
511.048	22620.67
511.25	22977.01
511.453	22995.45
511.655	23917.03
511.858	23831.02
512.06	23605.74
512.262	24252.9
512.465	24275.43
512.667	24816.09
512.87	24902.11
513.072	24707.55
513.274	25444.82
513.477	25715.15
513.679	26229.19
513.881	26173.89
514.084	26388.93
514.286	26393.03
514.488	26489.28
514.69	27847.08
514.893	27261.37
515.095	27738.54
515.297	28103.08
515.499	28397.99
515.701	28350.88
515.904	28989.85
516.106	28959.13
516.308	29006.23
516.51	29782.41
516.712	29815.18
516.914	29985.16
517.116	30570.88
517.318	30560.64
517.52	30531.97
517.722	31224.18
517.925	31263.1
518.127	31787.38
518.329	31973.74
518.531	32031.08
518.733	32530.79
518.935	33282.39
519.136	32967.01
519.338	33245.53
519.54	33409.37
519.742	33747.28
519.944	34287.95
520.146	34574.66
520.348	34851.14
520.55	35211.58
520.752	35416.38
520.954	35764.53
521.155	35266.88
521.357	36270.38
521.559	36585.77
521.761	37411.1
521.963	36981.03
522.164	36888.87
522.366	37198.11
522.568	37892.37
522.77	38056.21
522.971	38398.22
523.173	38283.53
523.375	38539.53
523.576	38824.2
523.778	38957.31
523.98	39446.78
524.181	39760.12
524.383	40161.52
524.584	39932.15
524.786	40378.61
524.988	40595.69
525.189	40816.87
525.391	41046.24
525.592	41320.67
525.794	41271.52
525.995	41873.62
526.197	41820.38
526.398	41996.5
526.6	42021.08
526.801	42275.02
527.003	42553.55
527.204	42778.82
527.406	43370.69
527.607	42754.25
527.808	43380.93
528.01	42703.05
528.211	42930.37
528.412	44265.65
528.614	44077.24
528.815	43792.57
529.016	44490.93
529.218	43761.85
529.419	44085.43
529.62	44236.98
529.822	44388.53
530.023	44435.63
530.224	44869.8
530.425	44787.88
530.626	44329.14
530.828	44785.83
531.029	45389.98
531.23	44929.19
531.431	44722.35
531.632	45209.76
531.833	45523.1
532.035	45535.39
532.236	45682.84
532.437	45707.42
532.638	45314.21
532.839	45402.27
533.04	45840.54
533.241	45310.11
533.442	46463.12
533.643	45637.79
533.844	45766.81
534.045	46026.9
534.246	45404.32
534.447	46117.01
534.648	46049.43
534.849	46325.91
535.05	45623.45
535.251	45738.14
535.451	46303.38
535.652	46270.61
535.853	45953.18
536.054	46229.65
536.255	46123.16
536.456	45697.18
536.657	46653.58
536.857	45951.13
537.058	45596.83
537.259	46325.91
537.46	46383.25
537.66	46088.34
537.861	46317.71
538.062	45863.07
538.263	46366.87
538.463	46221.46
538.664	46121.11
538.865	46635.15
539.065	46657.68
539.266	45957.27
539.466	46604.43
539.667	45711.52
539.868	46897.29
540.068	46276.76
540.269	45967.51
540.469	46647.44
540.67	46131.35
540.87	45971.61
541.071	46243.99
541.271	46321.81
541.472	46174.36
541.672	46014.62
541.873	46024.86
542.073	45400.22
542.274	46737.55
542.474	45901.98
542.675	45932.7
542.875	46366.87
543.075	46133.4
543.276	45580.45
543.476	46381.2
543.676	45697.18
543.877	46127.25
544.077	45916.31
544.277	46198.93
544.478	46078.1
544.678	46170.26
544.878	46235.8
545.078	45899.93
545.279	46047.38
545.479	45500.58
545.679	46153.88
545.879	45985.94
546.079	46117.01
546.28	45924.5
546.48	45242.53
546.68	46055.57
546.88	46155.93
547.08	45922.46
547.28	45922.46
547.48	45222.05
547.68	46020.76
547.88	45476
548.081	45602.97
548.281	46049.43
548.481	45719.71
548.681	45854.87
548.881	45488.29
549.081	46104.73
549.28	45523.1
549.48	45990.04
549.68	45613.21
549.88	46098.58
550.08	45578.4
550.28	46170.26
550.48	45756.57
550.68	45654.17
550.88	45453.47
551.08	45555.87
551.279	45654.17
551.479	44880.04
551.679	45596.83
551.879	45435.04
552.079	45912.22
552.278	45412.51
552.478	45148.32
552.678	45482.14
552.878	45519.01
553.077	45367.46
553.277	45291.68
553.477	46061.72
553.676	45082.79
553.876	45406.37
554.076	45072.55
554.275	44937.38
554.475	44755.11
554.674	45428.9
554.874	45205.67
555.074	44988.58
555.273	45084.84
555.473	45490.34
555.672	44738.73
555.872	45164.71
556.071	45189.28
556.271	44843.18
556.47	44945.58
556.67	44447.92
556.869	44703.92
557.068	44826.79
557.268	44470.45
557.467	44611.76
557.667	44032.18
557.866	44679.34
558.065	44341.42
558.265	44212.4
558.464	43813.05
558.663	44304.56
558.863	43598.01
559.062	44384.43
559.261	43747.51
559.461	44511.41
559.66	43401.41
559.859	43671.74
560.058	43638.97
560.258	43604.16
560.457	42975.43
560.656	43487.42
560.855	43094.21
561.054	43700.41
561.253	43075.78
561.453	43421.89
561.652	43231.43
561.851	43548.86
562.05	43337.92
562.249	42643.66
562.448	43235.52
562.647	42870.98
562.846	42567.88
563.045	42483.92
563.244	42184.91
563.443	42957
563.642	41640.15
563.841	42197.2
564.04	41898.2
564.239	42139.86
564.438	41701.59
564.637	41930.97
564.836	41980.12
565.035	41599.19
565.234	41402.59
565.432	41173.22
565.631	41521.37
565.83	41644.25
566.029	41011.43
566.228	41208.03
566.427	41103.59
566.625	40806.63
566.824	40478.96
567.023	40976.61
567.222	40562.92
567.42	40700.14
567.619	40562.92
567.818	40325.36
568.016	40116.47
568.215	40491.24
568.414	40024.31
568.612	40225.01
568.811	40327.41
569.01	39885.04
569.208	39395.58
569.407	40124.66
569.605	38947.08
569.804	39567.61
570.002	39024.9
570.201	39588.09
570.4	39407.87
570.598	39031.04
570.797	38502.67
570.995	38918.4
571.193	38039.82
571.392	38809.86
571.59	38103.31
571.789	38349.07
571.987	38265.1
572.186	37912.85
572.384	37955.86
572.582	37896.47
572.781	37894.42
572.979	37605.66
573.177	37667.09
573.376	37789.97
573.574	37439.77
573.772	37794.07
573.971	37019.94
574.169	36704.55
574.367	36790.56
574.565	37024.03
574.763	36999.46
574.962	36432.17
575.16	36260.14
575.358	36759.84
575.556	35846.45
575.754	36548.9
575.952	36139.31
576.151	36020.53
576.349	35586.36
576.547	35533.11
576.745	35864.88
576.943	35774.77
577.141	35496.25
577.339	35524.92
577.537	35012.93
577.735	35377.47
577.933	35129.66
578.131	35350.84
578.329	34769.22
578.527	34863.43
578.725	34695.49
578.923	34668.87
579.121	34695.49
579.319	34470.22
579.516	34324.81
579.714	34801.99
579.912	34132.3
580.11	34500.93
580.308	34265.42
580.506	34193.74
580.704	33225.05
580.901	34126.16
581.099	33988.94
581.297	33753.43
581.495	33268.06
581.692	33575.25
581.89	33171.8
582.088	33421.66
582.285	32864.61
582.483	33317.21
582.681	33036.64
582.878	32899.42
583.076	32401.77
583.274	32967.01
583.471	32227.69
583.669	32219.5
583.866	32090.48
584.064	32940.38
584.262	31814
584.459	32196.97
584.657	31658.35
584.854	32448.87
585.052	31400.31
585.249	31687.03
585.447	31674.74
585.644	31308.15
585.841	31582.58
586.039	31535.48
586.236	30929.28
586.434	31420.79
586.631	30966.14
586.828	31504.76
587.026	31156.6
587.223	30701.95
587.42	30927.23
587.618	30681.47
587.815	30251.4
588.012	30747.01
588.21	30382.47
588.407	30585.22
588.604	30007.69
588.801	29991.31
588.999	29888.91
589.196	30067.08
589.393	29958.54
589.59	29858.19
589.787	29790.61
589.984	29815.18
590.182	29362.58
590.379	29510.04
590.576	29204.89
590.773	29159.83
590.97	29024.67
591.167	29172.12
591.364	28963.23
591.561	28821.92
591.758	28367.27
591.955	28832.16
592.152	28717.47
592.349	28170.66
592.546	28576.16
592.743	28473.76
592.94	27996.59
593.137	28467.62
593.334	28297.64
593.531	27947.43
593.727	28064.17
593.924	27830.7
594.121	27769.26
594.318	27931.05
594.515	27376.05
594.712	27904.43
594.908	27478.45
595.105	27556.27
595.302	27154.87
595.499	27326.9
595.696	27314.61
595.892	26913.21
596.089	27148.73
596.286	27048.38
596.482	26878.4
596.679	26952.12
596.876	27107.77
597.072	26448.32
597.269	26851.77
597.466	26288.58
597.662	26204.61
597.859	26309.06
598.055	26536.38
598.252	26151.37
598.448	26065.35
598.645	25883.08
598.841	25739.72
599.038	25639.37
599.234	25805.26
599.431	25438.67
599.627	25051.61
599.824	25496.02
600.02	25309.65
600.217	25301.46
600.413	25231.83
600.609	25113.05
600.806	24893.91
601.002	25010.65
601.198	24775.13
601.395	24867.29
601.591	24723.93
601.787	25094.61
601.984	24617.44
602.18	24994.26
602.376	24400.35
602.572	24173.03
602.769	24228.32
602.965	23880.17
603.161	24455.65
603.357	24351.2
603.553	24082.92
603.75	23976.42
603.946	23597.55
604.142	24123.88
604.338	23566.83
604.534	23689.71
604.73	23362.03
604.926	23435.76
605.122	23456.24
605.318	23482.86
605.514	23261.68
605.71	23282.16
605.906	23253.49
606.102	23343.6
606.298	23304.69
606.494	23116.28
606.69	22841.85
606.886	22927.86
607.082	22579.71
607.278	22886.9
607.474	22112.77
607.67	22766.07
607.866	22159.88
608.062	22487.55
608.257	22266.37
608.453	22569.47
608.649	22284.8
608.845	22401.54
609.041	22211.07
609.236	22270.47
609.432	22159.88
609.628	21963.27
609.824	21944.84
610.019	21860.87
610.215	21895.69
610.411	22016.52
610.606	21520.91
610.802	22077.96
610.998	21750.28
611.193	21758.47
611.389	21705.23
611.584	21279.25
611.78	21182.99
611.976	21484.05
612.171	21625.36
612.367	21357.07
612.562	21355.02
612.758	21158.42
612.953	21090.84
613.149	21287.44
613.344	20994.58
613.539	21535.24
613.735	21096.98
613.93	21213.71
614.126	20793.88
614.321	21144.08
614.517	20873.75
614.712	20861.46
614.907	20785.69
615.103	20963.86
615.298	20734.49
615.493	20935.19
615.688	20394.53
615.884	21015.06
616.079	20181.54
616.274	20767.26
616.47	20343.33
616.665	20386.33
616.86	20384.29
617.055	20312.61
617.25	20380.19
617.445	20281.89
617.641	19929.64
617.836	20173.35
618.031	19825.19
618.226	19939.88
618.421	19741.22
618.616	20021.8
618.811	19477.04
619.006	20050.47
619.201	19382.83
619.396	19554.86
619.591	19294.77
619.786	19618.35
619.981	19040.82
620.176	19065.39
620.371	18946.61
620.566	18938.42
620.761	18852.41
620.956	19139.12
621.151	18737.72
621.346	18868.79
621.541	18491.96
621.735	18932.28
621.93	18371.13
622.125	18422.33
622.32	18162.24
622.515	18104.9
622.709	18195.01
622.904	18119.23
623.099	17963.59
623.294	17648.2
623.488	17789.51
623.683	17701.45
623.878	17603.14
624.072	17447.5
624.267	17216.08
624.462	17447.5
624.656	17013.33
624.851	17119.82
625.046	16859.73
625.24	16872.02
625.435	17001.04
625.629	16642.65
625.824	16728.66
626.018	16566.87
626.213	16335.45
626.407	16431.71
626.602	15835.75
626.796	16300.64
626.991	16085.6
627.185	16188
627.38	15714.92
627.574	15589.99
627.768	15413.87
627.963	15630.95
628.157	15612.52
628.352	15534.7
628.546	15182.45
628.74	15514.22
628.935	15100.53
629.129	15477.35
629.323	15141.49
629.517	15194.73
629.712	14957.17
629.906	14822
630.1	14690.93
630.294	14862.96
630.489	14686.84
630.683	14666.36
630.877	14385.79
631.071	14332.54
631.265	14465.66
631.459	14191.23
631.653	14074.49
631.848	14154.37
632.042	13777.54
632.236	14037.63
632.43	13832.83
632.624	13744.77
632.818	13544.07
633.012	13386.38
633.206	13517.45
633.4	13423.24
633.594	13322.89
633.788	13554.31
633.982	13343.37
634.176	13195.92
634.369	13077.13
634.563	13185.68
634.757	12896.91
634.951	12991.12
635.145	12966.54
635.339	12925.58
635.533	12602.01
635.726	12817.04
635.92	12669.59
636.114	12554.9
636.308	12434.07
636.501	12176.03
636.695	12581.53
636.889	12245.66
637.083	12241.56
637.276	12133.02
637.47	11909.79
637.664	11877.02
637.857	11926.18
638.051	11950.75
638.244	11551.4
638.438	11809.44
638.632	11719.33
638.825	11475.62
639.019	11408.04
639.212	11500.2
639.406	11385.51
639.599	11340.46
639.793	11334.31
639.986	11127.47
640.18	11135.66
640.373	11082.41
640.567	11016.88
640.76	10865.33
640.954	10654.39
641.147	10889.9
641.34	10572.47
641.534	10652.34
641.727	10619.57
641.92	10656.43
642.114	10586.8
642.307	10363.58
642.5	10433.21
642.694	10099.39
642.887	10058.43
643.08	10363.58
643.273	10160.83
643.467	10140.35
643.66	9919.17
643.853	10113.72
644.046	9962.17
644.239	9925.31
644.432	9886.4
644.626	9683.65
644.819	9870.01
645.012	9525.96
645.205	9777.86
645.398	9687.75
645.591	9509.57
645.784	9505.48
645.977	9290.44
646.17	9542.34
646.363	9124.55
646.556	9095.88
646.749	9247.43
646.942	9341.64
647.135	9177.8
647.328	9048.78
647.521	8997.58
647.714	9005.77
647.907	8766.16
648.099	8710.86
648.292	8860.37
648.485	8665.81
648.678	8506.07
648.871	8755.92
649.064	8643.28
649.256	8606.42
649.449	8444.63
649.642	8461.01
649.835	8354.52
650.027	8475.35
650.22	8366.81
650.413	8407.77
650.605	8227.54
650.798	8227.54
650.991	8104.67
651.183	8149.72
651.376	7940.83
651.568	8256.22
651.761	7826.14
651.954	8055.51
652.146	7883.49
652.339	7770.85
652.531	7871.2
652.724	7975.64
652.916	7527.14
653.109	7623.39
653.301	7762.65
653.494	7840.48
653.686	7439.08
653.879	7496.42
654.071	7553.76
654.263	7371.49
654.456	7535.33
654.648	7443.17
654.84	7256.81
655.033	7369.44
655.225	7310.05
655.417	7138.02
655.61	7279.33
655.802	7297.77
655.994	7260.9
656.186	7060.2
656.379	7215.85
656.571	7170.79
656.763	6894.32
656.955	6996.71
657.148	6933.23
657.34	6875.88
657.532	6777.58
657.724	6802.16
657.916	6869.74
658.108	6771.44
658.3	6664.94
658.492	6701.81
658.684	6466.29
658.876	6470.39
659.068	6619.89
659.26	6497.01
659.452	6449.91
659.644	6421.24
659.836	6376.18
660.028	6425.33
660.22	6343.41
660.412	6384.37
660.604	6474.48
660.796	6216.44
660.988	6419.19
661.18	6208.25
661.372	6269.69
661.563	6169.34
661.755	6058.74
661.947	6058.74
662.139	6189.81
662.331	6132.47
662.522	5815.04
662.714	6036.22
662.906	6042.36
663.097	5937.91
663.289	5839.61
663.481	5753.6
663.673	5956.35
663.864	5741.31
664.056	5946.11
664.247	5772.03
664.439	5853.95
664.631	5679.87
664.822	5600
665.014	5696.25
665.205	5655.3
665.397	5618.43
665.588	5620.48
665.78	5436.16
665.971	5507.84
666.163	5563.14
666.354	5477.12
666.546	5513.99
666.737	5393.16
666.929	5389.06
667.12	5466.88
667.311	5241.61
667.503	5346.05
667.694	5305.09
667.885	5239.56
668.077	5233.41
668.268	5305.09
668.459	5165.83
668.651	5307.14
668.842	5153.54
669.033	5241.61
669.224	5214.98
669.416	5128.97
669.607	5288.71
669.798	5094.15
669.989	5079.82
670.18	5026.57
670.371	5063.43
670.563	4952.84
670.754	4885.26
670.945	5085.96
671.136	4930.31
671.327	4946.7
671.518	4862.73
671.709	4944.65
671.9	5106.44
672.091	4887.31
672.282	5008.14
672.473	4782.86
672.664	4954.89
672.855	4829.96
673.046	4969.23
673.237	4932.36
673.428	4856.59
673.619	4907.79
673.809	4821.77
674	4805.39
674.191	4748.04
674.382	4813.58
674.573	4717.33
674.764	4721.42
674.954	4750.09
675.145	4803.34
675.336	4610.83
675.527	4786.96
675.717	4754.19
675.908	4567.82
676.099	4537.1
676.289	4578.06
676.48	4817.68
676.671	4590.35
676.861	4647.69
677.052	4567.82
677.243	4442.9
677.433	4598.54
677.624	4655.89
677.814	4537.1
678.005	4836.11
678.195	4719.37
678.386	4623.12
678.576	4610.83
678.767	4483.86
678.957	4659.98
679.148	4674.32
679.338	4639.5
679.529	4633.36
679.719	4580.11
679.909	4780.81
680.1	4543.25
680.29	4623.12
680.481	4569.87
680.671	4608.78
680.861	4631.31
681.052	4637.45
681.242	4586.26
681.432	4557.58
681.622	4444.95
681.813	4561.68
682.003	4496.14
682.193	4526.86
682.383	4631.31
682.573	4487.95
682.764	4557.58
682.954	4539.15
683.144	4573.97
683.334	4541.2
683.524	4635.41
683.714	4592.4
683.904	4440.85
684.094	4524.82
684.284	4483.86
684.474	4442.9
684.664	4356.88
684.854	4573.97
685.044	4385.55
685.234	4422.42
685.424	4520.72
685.614	4371.22
685.804	4459.28
685.994	4326.16
686.184	4436.75
686.374	4395.79
686.564	4289.3
686.753	4551.44
686.943	4311.83
687.133	4397.84
687.323	4223.76
687.513	4350.74
687.702	4330.26
687.892	4297.49
688.082	4188.95
688.272	4203.29
688.461	4217.62
688.651	4324.12
688.841	4238.1
689.03	4143.89
689.22	4270.87
689.41	4193.05
689.599	4252.44
689.789	4231.96
689.979	4117.27
690.168	4156.18
690.358	4113.17
690.547	4135.7
690.737	4094.74
690.926	4049.69
691.116	4141.85
691.305	4123.41
691.495	4064.02
691.684	4018.97
691.874	4018.97
692.063	3961.62
692.252	4000.54
692.442	3894.04
692.631	3832.6
692.82	4004.63
693.01	3736.35
693.199	3812.12
693.388	3799.84
693.578	3724.06
693.767	3910.43
693.956	3808.03
694.146	3881.75
694.335	3836.7
694.524	3836.7
694.713	3836.7
694.902	3799.84
695.092	3814.17
695.281	3783.45
695.47	3848.99
695.659	3726.11
695.848	3621.66
696.037	3722.01
696.226	3644.19
696.415	3873.56
696.604	3783.45
696.793	3756.83
696.982	3832.6
697.171	3695.39
697.36	3621.66
697.549	3636
697.738	3709.72
697.927	3631.9
698.116	3668.77
698.305	3666.72
698.494	3564.32
698.683	3750.68
698.872	3717.92
699.061	3642.14
699.25	3726.11
699.438	3595.04
699.627	3590.94
699.816	3689.25
700.005	3533.6
700.193	3572.51
700.382	3810.08
700.571	3777.31
700.76	3644.19
700.948	3570.46
701.137	3668.77
701.326	3752.73
701.514	3742.49
701.703	3599.13
701.892	3693.34
702.08	3740.44
702.269	3568.41
702.457	3609.37
702.646	3636
702.834	3494.69
703.023	3545.89
703.212	3584.8
703.4	3668.77
703.589	3758.88
703.777	3607.33
703.965	3416.87
704.154	3683.1
704.342	3509.02
704.531	3621.66
704.719	3611.42
704.907	3517.22
705.096	3672.86
705.284	3377.95
705.472	3615.52
705.661	3519.26
705.849	3638.05
706.037	3652.38
706.226	3582.75
706.414	3504.93
706.602	3578.65
706.79	3640.09
706.979	3642.14
707.167	3552.03
707.355	3482.4
707.543	3619.61
707.731	3707.68
707.919	3687.2
708.107	3595.04
708.296	3595.04
708.484	3629.85
708.672	3549.98
708.86	3650.33
709.048	3535.65
709.236	3611.42
709.424	3724.06
709.612	3549.98
709.8	3605.28
709.988	3689.25
710.176	3644.19
710.364	3707.68
710.551	3629.85
710.739	3611.42
710.927	3644.19
711.115	3767.07
711.303	3498.78
711.491	3441.44
711.679	3607.33
711.866	3619.61
712.054	3566.37
712.242	3584.8
712.43	3771.16
712.617	3648.29
712.805	3521.31
712.993	3482.4
713.181	3625.76
713.368	3664.67
713.556	3683.1
713.744	3576.61
713.931	3597.09
714.119	3506.98
714.306	3601.18
714.494	3580.7
714.682	3679.01
714.869	3578.65
715.057	3529.5
715.244	3617.57
715.432	3767.07
715.619	3545.89
715.807	3406.63
715.994	3525.41
716.182	3617.57
716.369	3623.71
716.556	3631.9
716.744	3697.44
716.931	3574.56
717.119	3603.23
717.306	3676.96
717.493	3531.55
717.681	3742.49
717.868	3666.72
718.055	3664.67
718.242	3693.34
718.43	3713.82
718.617	3650.33
718.804	3713.82
718.991	3601.18
719.179	3609.37
719.366	3613.47
719.553	3621.66
719.74	3566.37
719.927	3562.27
720.114	3697.44
720.301	3601.18
720.488	3584.8
720.676	3658.53
720.863	3576.61
721.05	3666.72
721.237	3554.08
721.424	3566.37
721.611	3636
721.798	3521.31
721.985	3468.06
722.172	3545.89
722.358	3611.42
722.545	3566.37
722.732	3482.4
722.919	3586.85
723.106	3511.07
723.293	3636
723.48	3576.61
723.667	3566.37
723.853	3455.78
724.04	3560.22
724.227	3590.94
724.414	3461.92
724.6	3398.43
724.787	3595.04
724.974	3554.08
725.161	3599.13
725.347	3607.33
725.534	3525.41
725.72	3523.36
725.907	3568.41
726.094	3504.93
726.28	3570.46
726.467	3355.43
726.653	3513.12
726.84	3539.74
727.027	3638.05
727.213	3336.99
727.4	3429.15
727.586	3492.64
727.773	3488.54
727.959	3613.47
728.145	3494.69
728.332	3488.54
728.518	3396.39
728.705	3400.48
728.891	3478.3
729.077	3484.45
729.264	3404.58
729.45	3476.26
729.636	3617.57
729.823	3412.77
730.009	3339.04
730.195	3480.35
730.382	3490.59
730.568	3480.35
730.754	3531.55
730.94	3341.09
731.126	3509.02
731.313	3384.1
731.499	3463.97
731.685	3408.67
731.871	3449.63
732.057	3351.33
732.243	3472.16
732.429	3472.16
732.615	3490.59
732.801	3472.16
732.987	3339.04
733.173	3445.54
733.359	3404.58
733.545	3304.23
733.731	3312.42
733.917	3365.67
734.103	3320.61
734.289	3406.63
734.475	3382.05
734.661	3390.24
734.847	3316.51
735.033	3470.11
735.219	3347.23
735.404	3279.65
735.59	3334.95
735.776	3173.16
735.962	3291.94
736.148	3164.97
736.333	3339.04
736.519	3328.8
736.705	3349.28
736.89	3224.36
737.076	3349.28
737.262	3216.16
737.447	3300.13
737.633	3255.08
737.819	3171.11
738.004	3189.54
738.19	3238.69
738.375	3146.53
738.561	3369.76
738.747	3224.36
738.932	3128.1
739.118	3257.12
739.303	3167.01
739.489	3205.92
739.674	3103.53
739.859	3136.29
740.045	3132.2
740.23	3246.88
740.416	3068.71
740.601	3017.51
740.786	3097.38
740.972	3046.18
741.157	3091.24
741.342	2984.74
741.528	3052.33
741.713	2960.17
741.898	3050.28
742.084	3105.57
742.269	3140.39
742.454	2990.89
742.639	2951.98
742.824	2935.59
743.01	2992.94
743.195	2915.11
743.38	2943.78
743.565	2970.41
743.75	2894.63
743.935	2841.39
744.12	2894.63
744.305	2898.73
744.49	2941.74
744.675	2816.81
744.86	2818.86
745.045	2837.29
745.23	2798.38
745.415	2755.37
745.6	2898.73
745.785	2935.59
745.97	2718.51
746.155	2743.08
746.34	2816.81
746.525	2626.35
746.71	2773.8
746.895	2599.73
747.079	2753.32
747.264	2644.78
747.449	2618.16
747.634	2626.35
747.819	2548.53
748.003	2644.78
748.188	2585.39
748.373	2482.99
748.557	2456.37
748.742	2462.51
748.927	2552.62
749.111	2376.5
749.296	2534.19
749.481	2370.35
749.665	2392.88
749.85	2460.46
750.034	2325.3
750.219	2259.76
750.404	2380.59
750.588	2386.74
750.773	2284.34
750.957	2276.15
751.141	2253.62
751.326	2278.19
751.51	2183.99
751.695	2149.17
751.879	2149.17
752.064	2308.91
752.248	2253.62
752.432	2128.69
752.617	2079.54
752.801	2171.7
752.985	2118.45
753.17	2093.88
753.354	2081.59
753.538	1995.57
753.722	2120.5
753.907	2022.2
754.091	2061.11
754.275	1997.62
754.459	2040.63
754.643	1971
754.828	1907.51
755.012	1887.03
755.196	1858.36
755.38	1989.43
755.564	1956.66
755.748	1899.32
755.932	1905.46
756.116	1825.59
756.3	1854.27
756.484	1846.07
756.668	1811.26
756.852	1778.49
757.036	1739.58
757.22	1778.49
757.404	1749.82
757.588	1815.35
757.772	1762.11
757.956	1801.02
758.14	1796.92
758.323	1717.05
758.507	1602.36
758.691	1682.24
758.875	1755.96
759.059	1706.81
759.242	1645.37
759.426	1620.8
759.61	1643.32
759.794	1563.45
759.977	1571.65
760.161	1680.19
760.345	1633.08
760.528	1524.54
760.712	1608.51
760.895	1547.07
761.079	1516.35
761.263	1559.36
761.446	1542.97
761.63	1479.49
761.813	1487.68
761.997	1379.14
762.18	1495.87
762.364	1436.48
762.547	1473.34
762.731	1534.78
762.914	1465.15
763.098	1352.51
763.281	1518.4
763.464	1409.86
763.648	1413.95
763.831	1463.1
764.015	1444.67
764.198	1372.99
764.381	1506.11
764.564	1432.38
764.748	1393.47
764.931	1461.06
765.114	1413.95
765.297	1366.85
765.481	1364.8
765.664	1416
765.847	1325.89
766.03	1270.59
766.213	1360.7
766.397	1397.57
766.58	1241.92
766.763	1309.51
766.946	1246.02
767.129	1254.21
767.312	1329.99
767.495	1264.45
767.678	1276.74
767.861	1340.22
768.044	1284.93
768.227	1346.37
768.41	1291.07
768.593	1264.45
768.776	1233.73
768.959	1184.58
769.142	1284.93
769.324	1160
769.507	1141.57
769.69	1184.58
769.873	1188.68
770.056	1295.17
770.239	1133.38
770.421	1182.53
770.604	1203.01
770.787	1127.24
770.97	1127.24
771.152	1196.87
771.335	1141.57
771.518	1055.56
771.7	1145.67
771.883	1057.61
772.066	1192.77
772.248	1149.76
772.431	1153.86
772.613	1014.6
772.796	1151.81
772.978	1129.28
773.161	1016.65
773.343	1100.61
773.526	1047.37
773.708	963.4
773.891	1014.6
774.073	1035.08
774.256	1022.79
774.438	1078.08
774.621	1053.51
774.803	957.25
774.985	1014.6
775.168	955.21
775.35	1076.04
775.532	1012.55
775.715	965.45
775.897	1012.55
776.079	889.67
776.261	981.83
776.444	953.16
776.626	867.14
776.808	916.3
776.99	928.58
777.173	981.83
777.355	805.71
777.537	891.72
777.719	981.83
777.901	854.86
778.083	799.56
778.265	836.42
778.447	924.49
778.629	822.09
778.811	807.75
778.993	836.42
779.175	777.03
779.357	779.08
779.539	799.56
779.721	826.18
779.903	793.42
780.085	772.94
780.267	684.87
780.449	754.51
780.631	756.55
780.812	768.84
780.994	734.03
781.176	711.5
781.358	811.85
781.54	727.88
781.721	840.52
781.903	772.94
782.085	709.45
782.267	713.55
782.448	666.44
782.63	645.96
782.812	723.79
782.993	731.98
783.175	686.92
783.357	641.87
783.538	658.25
783.72	627.53
783.901	697.16
784.083	592.72
784.264	623.44
784.446	650.06
784.627	637.77
784.809	672.59
784.99	531.28
785.172	658.25
785.353	662.35
785.535	623.44
785.716	600.91
785.897	547.66
786.079	543.57
786.26	602.96
786.441	555.85
786.623	555.85
786.804	562
786.985	516.94
787.167	590.67
787.348	557.9
787.529	635.72
787.71	580.43
787.891	510.8
788.073	475.98
788.254	457.55
788.435	566.09
788.616	508.75
788.797	543.57
788.978	478.03
789.159	471.89
789.34	564.04
789.522	502.61
789.703	525.13
789.884	531.28
790.065	506.7
790.246	553.8
790.427	430.93
790.607	531.28
790.788	494.41
790.969	418.64
791.15	396.11
791.331	445.26
791.512	461.65
791.693	394.06
791.874	465.74
792.054	457.55
792.235	453.45
792.416	441.17
792.597	430.93
792.778	480.08
792.958	496.46
793.139	473.93
793.32	467.79
793.5	373.58
793.681	416.59
793.862	404.3
794.042	381.78
794.223	404.3
794.404	441.17
794.584	375.63
794.765	451.41
794.945	408.4
795.126	400.21
795.306	404.3
795.487	392.02
795.667	351.06
795.848	342.86
796.028	402.26
796.209	424.78
796.389	394.06
796.57	351.06
796.75	283.47
796.93	392.02
797.111	389.97
797.291	369.49
797.471	363.34
797.652	342.86
797.832	373.58
798.012	422.73
798.192	338.77
798.373	375.63
798.553	363.34
798.733	369.49
798.913	297.81
799.093	355.15
799.274	328.53
799.454	334.67
799.634	385.87
799.814	439.12
799.994	371.54
800.174	338.77
800.354	342.86
800.534	387.92
800.714	365.39
800.894	455.5
801.074	316.24
801.254	402.26
801.434	314.19
801.614	334.67
801.794	293.71
801.974	846.66
802.154	361.3
802.334	381.78
802.514	303.95
802.693	252.75
802.873	349.01
803.053	336.72
803.233	310.1
803.413	344.91
803.592	340.82
803.772	340.82
803.952	273.23
804.131	262.99
804.311	277.33
804.491	330.58
804.67	238.42
804.85	271.19
805.03	297.81
805.209	344.91
805.389	269.14
805.568	267.09
805.748	187.22
805.928	228.18
806.107	346.96
806.287	320.34
806.466	349.01
806.646	287.57
806.825	291.66
807.004	228.18
807.184	269.14
807.363	287.57
807.543	277.33
807.722	277.33
807.901	273.23
808.081	281.43
808.26	205.65
808.439	326.48
808.619	289.62
808.798	209.75
808.977	250.71
809.156	318.29
809.336	283.47
809.515	283.47
809.694	236.37
809.873	293.71
810.052	199.51
810.231	287.57
810.411	234.32
810.59	289.62
810.769	211.79
810.948	234.32
811.127	234.32
811.306	240.47
811.485	256.85
811.664	246.61
811.843	226.13
812.022	183.12
812.201	228.18
812.38	258.9
812.559	213.84
812.737	228.18
812.916	281.43
813.095	248.66
813.274	297.81
813.453	240.47
813.632	224.08
813.811	242.51
813.989	234.32
814.168	258.9
814.347	160.59
814.526	146.26
814.704	277.33
814.883	222.03
815.062	256.85
815.24	228.18
815.419	179.03
815.598	203.6
815.776	197.46
815.955	236.37
816.133	228.18
816.312	236.37
816.49	207.7
816.669	310.1
816.847	226.13
817.026	310.1
817.204	191.31
817.383	203.6
817.561	162.64
817.74	226.13
817.918	230.23
818.097	183.12
818.275	158.55
818.453	166.74
818.632	113.49
818.81	197.46
818.988	115.54
819.167	248.66
819.345	179.03
819.523	138.07
819.701	121.68
819.879	195.41
820.058	187.22
820.236	195.41
820.414	232.27
820.592	138.07
820.77	187.22
820.948	133.97
821.127	146.26
821.305	195.41
821.483	144.21
821.661	236.37
821.839	131.92
822.017	113.49
822.195	217.94
822.373	119.64
822.551	156.5
822.729	101.2
822.907	166.74
823.085	121.68
823.262	195.41
823.44	162.64
823.618	150.36
823.796	164.69
823.974	162.64
824.152	162.64
824.329	121.68
824.507	217.94
824.685	144.21
824.863	160.59
825.04	170.83
825.218	193.36
825.396	166.74
825.574	199.51
825.751	158.55
825.929	215.89
826.107	144.21
826.284	146.26
826.462	193.36
826.639	138.07
826.817	172.88
826.994	119.64
827.172	99.16
827.349	203.6
827.527	236.37
827.704	113.49
827.882	101.2
828.059	195.41
828.237	172.88
828.414	156.5
828.591	109.4
828.769	156.5
828.946	117.59
829.124	197.46
829.301	154.45
829.478	170.83
829.655	105.3
829.833	185.17
830.01	103.25
830.187	176.98
830.364	54.1
830.542	80.72
830.719	211.79
830.896	162.64
831.073	176.98
831.25	166.74
831.427	127.83
831.604	181.07
831.782	119.64
831.959	236.37
832.136	78.68
832.313	119.64
832.49	158.55
832.667	211.79
832.844	47.96
833.021	152.4
833.198	138.07
833.374	101.2
833.551	109.4
833.728	68.44
833.905	105.3
834.082	105.3
834.259	117.59
834.436	113.49
834.612	129.88
834.789	109.4
834.966	101.2
835.143	70.48
835.319	7
835.496	125.78
835.673	162.64
835.85	138.07
836.026	117.59
836.203	113.49
836.38	86.87
836.556	150.36
836.733	80.72
836.909	107.35
837.086	146.26
837.262	123.73
837.439	86.87
837.616	166.74
837.792	117.59
837.968	70.48
838.145	72.53
838.321	160.59
838.498	95.06
838.674	154.45
838.851	50
839.027	25.43
839.203	70.48
839.38	56.15
839.556	60.24
839.732	72.53
839.909	72.53
840.085	133.97
840.261	31.57
840.437	84.82
840.614	105.3
840.79	154.45
840.966	68.44
841.142	146.26
841.318	39.76
841.494	54.1
841.671	109.4
841.847	47.96
842.023	158.55
842.199	93.01
842.375	148.31
842.551	115.54
842.727	101.2
842.903	150.36
843.079	31.57
843.255	84.82
843.431	74.58
843.607	90.96
843.783	23.38
843.959	103.25
844.134	70.48
844.31	80.72
844.486	119.64
844.662	60.24
844.838	150.36
845.013	95.06
845.189	152.4
845.365	133.97
845.541	56.15
845.716	140.12
845.892	127.83
846.068	60.24
846.244	27.48
846.419	97.11
846.595	-38.06
846.77	64.34
846.946	142.16
847.122	74.58
847.297	47.96
847.473	119.64
847.648	142.16
847.824	72.53
847.999	31.57
848.175	129.88
848.35	95.06
848.526	146.26
848.701	47.96
848.876	56.15
849.052	131.92
849.227	131.92
849.403	78.68
849.578	54.1
849.753	56.15
849.929	101.2
850.104	68.44
850.279	54.1
850.454	68.44
850.63	156.5
850.805	15.19
850.98	33.62
851.155	58.2
851.33	45.91
851.505	52.05
851.681	109.4
851.856	88.92
852.031	78.68
852.206	9.05
852.381	93.01
852.556	121.68
852.731	45.91
852.906	97.11
853.081	62.29
853.256	64.34
853.431	105.3
853.606	43.86
853.781	47.96
853.956	11.09
854.131	121.68
854.305	84.82
854.48	58.2
854.655	19.29
854.83	13.14
855.005	39.76
855.18	47.96
855.354	64.34
855.529	31.57
855.704	9.05
855.879	17.24
856.053	68.44
856.228	60.24
856.403	-9.39
856.577	82.77
856.752	52.05
856.926	101.2
857.101	47.96
857.276	11.09
857.45	25.43
857.625	86.87
857.799	54.1
857.974	56.15
858.148	11.09
858.323	52.05
858.497	72.53
858.672	117.59
858.846	43.86
859.02	72.53
859.195	43.86
859.369	74.58
859.543	95.06
859.718	93.01
859.892	117.59
860.066	31.57
860.241	74.58
860.415	72.53
860.589	19.29
860.763	-25.77
860.938	45.91
861.112	72.53
861.286	-5.29
861.46	60.24
861.634	21.33
861.808	56.15
861.982	4.95
862.157	58.2
862.331	2.9
862.505	54.1
862.679	-13.48
862.853	19.29
863.027	82.77
863.201	179.03
863.375	15.19
863.549	17.24
863.722	29.52
863.896	35.67
864.07	52.05
864.244	29.52
864.418	74.58
864.592	72.53
864.766	31.57
864.939	19.29
865.113	-7.34
865.287	97.11
865.461	76.63
865.634	-7.34
865.808	-9.39
865.982	23.38
866.156	-19.63
866.329	39.76
866.503	21.33
866.676	64.34
866.85	-17.58
867.024	37.72
867.197	95.06
867.371	4.95
867.544	13.14
867.718	15.19
867.891	66.39
868.065	68.44
868.238	111.44
868.412	117.59
868.585	-29.87
868.759	27.48
868.932	43.86
869.105	23.38
869.279	39.76
869.452	66.39
869.625	-21.67
869.799	62.29
869.972	-19.63
870.145	64.34
870.319	7
870.492	4.95
870.665	-9.39
870.838	78.68
871.011	84.82
871.185	31.57
871.358	-42.15
871.531	56.15
871.704	-15.53
871.877	86.87
872.05	78.68
872.223	74.58
872.396	95.06
872.569	84.82
872.742	29.52
872.915	39.76
873.088	-42.15
873.261	56.15
873.434	-13.48
873.607	88.92
873.78	-50.35
873.953	0.85
874.126	9.05
874.299	123.73
874.471	50
874.644	21.33
874.817	66.39
874.99	13.14
875.163	25.43
875.335	-1.19
875.508	93.01
875.681	60.24
875.853	-11.43
876.026	11.09
876.199	29.52
876.371	80.72
876.544	50
876.717	15.19
876.889	39.76
877.062	64.34
877.234	4.95
877.407	29.52
877.579	13.14
877.752	41.81
877.924	33.62
878.097	101.2
878.269	-11.43
878.442	80.72
878.614	31.57
878.786	58.2
878.959	19.29
879.131	45.91
879.303	-3.24
879.476	31.57
879.648	109.4
879.82	82.77
879.993	82.77
880.165	2.9
880.337	35.67
880.509	-1.19
880.681	-42.15
880.854	27.48
881.026	-1.19
881.198	117.59
881.37	-27.82
881.542	54.1
881.714	27.48
881.886	15.19
882.058	15.19
882.23	23.38
882.402	39.76
882.574	-19.63
882.746	13.14
882.918	66.39
883.09	72.53
883.262	93.01
883.434	31.57
883.606	-15.53
883.778	31.57
883.95	150.36
884.122	-1.19
884.293	88.92
884.465	45.91
884.637	37.72
884.809	15.19
884.98	-36.01
885.152	97.11
885.324	62.29
885.496	88.92
885.667	45.91
885.839	-21.67
886.011	39.76
886.182	54.1
886.354	52.05
886.525	35.67
886.697	47.96
886.869	88.92
887.04	-9.39
887.212	41.81
887.383	27.48
887.555	60.24
887.726	-5.29
887.897	72.53
888.069	88.92
888.24	62.29
888.412	70.48
888.583	4.95
888.754	15.19
888.926	-1.19
889.097	-79.02
889.268	31.57
889.44	47.96
889.611	45.91
889.782	88.92
889.953	-17.58
890.125	56.15
890.296	-21.67
890.467	-25.77
890.638	56.15
890.809	56.15
890.98	7
891.151	23.38
891.323	97.11
891.494	-21.67
891.665	23.38
891.836	35.67
892.007	37.72
892.178	129.88
892.349	68.44
892.52	99.16
892.691	13.14
892.862	19.29
893.032	-5.29
893.203	45.91
893.374	45.91
893.545	29.52
893.716	52.05
893.887	138.07
894.057	39.76
894.228	66.39
894.399	33.62
894.57	41.81
894.74	-1.19
894.911	25.43
895.082	-1.19
895.253	39.76
895.423	4.95
895.594	78.68
895.764	-21.67
895.935	-13.48
896.106	25.43
896.276	-15.53
896.447	80.72
896.617	-13.48
896.788	2.9
896.958	-9.39
897.129	47.96
897.299	103.25
897.47	31.57
897.64	37.72
897.81	41.81
897.981	19.29
898.151	-3.24
898.322	58.2
898.492	13.14
898.662	33.62
898.832	64.34
899.003	23.38
899.173	-38.06
899.343	21.33
899.513	52.05
