Data from USB4F104151__144__10-26-28-196.txt Node

Date: Wed Mar 12 10:26:28 EDT 2025
User: louis
Spectrometer: USB4F10415
Trigger mode: 4
Integration Time (sec): 3.000000E-2
Scans to average: 1
Electric dark correction enabled: true
Nonlinearity correction enabled: false
Boxcar width: 0
XAxis mode: Wavelengths
Number of Pixels in Spectrum: 3648
>>>>>Begin Spectral Data<<<<<
178.204	-167.42
178.424	-167.42
178.644	-167.42
178.864	-120.32
179.084	-146.94
179.304	-26.11
179.524	-36.35
179.744	-42.5
179.964	25.09
180.184	-26.11
180.404	6.66
180.624	2.56
180.844	80.38
181.064	6.66
181.283	12.8
181.503	-69.12
181.723	66.05
181.943	-58.88
182.163	14.85
182.383	-40.45
182.602	20.99
182.822	-38.4
183.042	-22.02
183.262	-22.02
183.482	0.51
183.701	33.28
183.921	41.47
184.141	-22.02
184.361	43.52
184.58	25.09
184.8	86.53
185.02	-67.07
185.239	14.85
185.459	0.51
185.679	27.14
185.898	-19.97
186.118	86.53
186.338	47.62
186.557	66.05
186.777	20.99
186.997	64
187.216	55.81
187.436	70.14
187.655	33.28
187.875	102.91
188.095	55.81
188.314	47.62
188.534	37.38
188.753	-34.3
188.973	33.28
189.192	102.91
189.412	-13.82
189.631	-42.5
189.851	55.81
190.07	90.62
190.29	51.71
190.509	-32.26
190.729	29.18
190.948	25.09
191.168	135.68
191.387	-28.16
191.607	2.56
191.826	66.05
192.045	-52.74
192.265	6.66
192.484	35.33
192.704	51.71
192.923	55.81
193.142	94.72
193.362	-15.87
193.581	31.23
193.8	76.29
194.02	-1.54
194.239	16.9
194.458	45.57
194.678	-24.06
194.897	25.09
195.116	76.29
195.335	-56.83
195.555	72.19
195.774	43.52
195.993	-34.3
196.212	8.7
196.432	14.85
196.651	-30.21
196.87	43.52
197.089	47.62
197.308	102.91
197.528	37.38
197.747	4.61
197.966	20.99
198.185	31.23
198.404	55.81
198.623	57.86
198.842	107.01
199.062	43.52
199.281	45.57
199.5	35.33
199.719	53.76
199.938	37.38
200.157	74.24
200.376	18.94
200.595	-15.87
200.814	74.24
201.033	35.33
201.252	158.21
201.471	-11.78
201.69	12.8
201.909	49.66
202.128	12.8
202.347	76.29
202.566	45.57
202.785	0.51
203.004	-46.59
203.223	113.15
203.442	49.66
203.661	2.56
203.879	31.23
204.098	-32.26
204.317	-17.92
204.536	90.62
204.755	8.7
204.974	-30.21
205.193	4.61
205.411	43.52
205.63	31.23
205.849	47.62
206.068	-3.58
206.287	104.96
206.505	41.47
206.724	18.94
206.943	-30.21
207.162	-44.54
207.381	-11.78
207.599	0.51
207.818	-3.58
208.037	41.47
208.255	18.94
208.474	4.61
208.693	57.86
208.911	55.81
209.13	57.86
209.349	59.9
209.567	61.95
209.786	76.29
210.005	16.9
210.223	51.71
210.442	-15.87
210.661	-71.17
210.879	-15.87
211.098	98.81
211.316	31.23
211.535	92.67
211.753	23.04
211.972	14.85
212.191	18.94
212.409	-22.02
212.628	33.28
212.846	6.66
213.065	35.33
213.283	123.39
213.502	57.86
213.72	-3.58
213.938	20.99
214.157	25.09
214.375	8.7
214.594	18.94
214.812	107.01
215.031	29.18
215.249	-19.97
215.467	37.38
215.686	68.09
215.904	-7.68
216.122	-42.5
216.341	72.19
216.559	8.7
216.778	-1.54
216.996	49.66
217.214	23.04
217.432	6.66
217.651	-17.92
217.869	49.66
218.087	-26.11
218.306	33.28
218.524	61.95
218.742	-28.16
218.96	27.14
219.179	23.04
219.397	16.9
219.615	90.62
219.833	31.23
220.051	41.47
220.27	49.66
220.488	41.47
220.706	27.14
220.924	-5.63
221.142	-11.78
221.36	-17.92
221.578	-11.78
221.796	88.57
222.015	123.39
222.233	31.23
222.451	55.81
222.669	-9.73
222.887	18.94
223.105	18.94
223.323	29.18
223.541	27.14
223.759	18.94
223.977	20.99
224.195	84.48
224.413	39.42
224.631	80.38
224.849	29.18
225.067	49.66
225.285	4.61
225.503	80.38
225.721	-5.63
225.939	37.38
226.157	20.99
226.375	135.68
226.592	8.7
226.81	18.94
227.028	80.38
227.246	61.95
227.464	41.47
227.682	51.71
227.9	53.76
228.117	6.66
228.335	33.28
228.553	-7.68
228.771	66.05
228.989	49.66
229.206	4.61
229.424	-3.58
229.642	49.66
229.86	-40.45
230.077	8.7
230.295	8.7
230.513	49.66
230.731	8.7
230.948	0.51
231.166	160.25
231.384	-32.26
231.601	43.52
231.819	82.43
232.037	96.77
232.254	14.85
232.472	10.75
232.689	-22.02
232.907	66.05
233.125	-3.58
233.342	16.9
233.56	-58.88
233.777	47.62
233.995	-11.78
234.213	88.57
234.43	47.62
234.648	23.04
234.865	16.9
235.083	-42.5
235.3	-5.63
235.518	143.87
235.735	74.24
235.953	41.47
236.17	29.18
236.388	90.62
236.605	25.09
236.822	49.66
237.04	37.38
237.257	53.76
237.475	37.38
237.692	94.72
237.909	33.28
238.127	-7.68
238.344	39.42
238.562	-9.73
238.779	8.7
238.996	27.14
239.214	37.38
239.431	45.57
239.648	4.61
239.865	20.99
240.083	104.96
240.3	-15.87
240.517	41.47
240.735	2.56
240.952	57.86
241.169	57.86
241.386	68.09
241.603	29.18
241.821	-24.06
242.038	82.43
242.255	0.51
242.472	47.62
242.689	51.71
242.907	61.95
243.124	12.8
243.341	27.14
243.558	45.57
243.775	68.09
243.992	25.09
244.209	92.67
244.426	43.52
244.643	92.67
244.86	61.95
245.078	-13.82
245.295	88.57
245.512	-48.64
245.729	-15.87
245.946	6.66
246.163	18.94
246.38	47.62
246.597	115.2
246.814	-24.06
247.031	25.09
247.248	45.57
247.464	57.86
247.681	8.7
247.898	-7.68
248.115	2.56
248.332	2.56
248.549	-17.92
248.766	104.96
248.983	68.09
249.2	27.14
249.417	49.66
249.633	23.04
249.85	86.53
250.067	41.47
250.284	98.81
250.501	37.38
250.717	31.23
250.934	37.38
251.151	-36.35
251.368	8.7
251.585	31.23
251.801	-34.3
252.018	-5.63
252.235	25.09
252.451	4.61
252.668	8.7
252.885	55.81
253.102	84.48
253.318	61.95
253.535	-15.87
253.752	35.33
253.968	33.28
254.185	-7.68
254.401	12.8
254.618	76.29
254.835	-15.87
255.051	74.24
255.268	23.04
255.484	53.76
255.701	14.85
255.917	57.86
256.134	31.23
256.351	12.8
256.567	-15.87
256.784	33.28
257	-15.87
257.217	70.14
257.433	37.38
257.65	16.9
257.866	47.62
258.082	-44.54
258.299	-30.21
258.515	45.57
258.732	-30.21
258.948	47.62
259.165	-32.26
259.381	12.8
259.597	-44.54
259.814	4.61
260.03	-1.54
260.246	25.09
260.463	94.72
260.679	14.85
260.895	29.18
261.112	35.33
261.328	53.76
261.544	37.38
261.761	92.67
261.977	4.61
262.193	-93.69
262.409	41.47
262.626	12.8
262.842	41.47
263.058	66.05
263.274	49.66
263.49	39.42
263.707	20.99
263.923	109.05
264.139	25.09
264.355	47.62
264.571	59.9
264.787	12.8
265.004	27.14
265.22	90.62
265.436	57.86
265.652	45.57
265.868	121.34
266.084	45.57
266.3	123.39
266.516	25.09
266.732	-44.54
266.948	57.86
267.164	14.85
267.38	-7.68
267.596	8.7
267.812	43.52
268.028	-1.54
268.244	41.47
268.46	41.47
268.676	-7.68
268.892	27.14
269.108	-1.54
269.324	16.9
269.54	10.75
269.756	80.38
269.972	-11.78
270.188	-32.26
270.403	10.75
270.619	76.29
270.835	64
271.051	20.99
271.267	-48.64
271.483	37.38
271.698	59.9
271.914	10.75
272.13	-3.58
272.346	90.62
272.562	12.8
272.777	39.42
272.993	92.67
273.209	-3.58
273.425	49.66
273.64	8.7
273.856	-28.16
274.072	2.56
274.287	41.47
274.503	55.81
274.719	20.99
274.934	16.9
275.15	20.99
275.366	82.43
275.581	14.85
275.797	33.28
276.012	25.09
276.228	-15.87
276.444	66.05
276.659	88.57
276.875	-24.06
277.09	78.33
277.306	86.53
277.521	-19.97
277.737	-24.06
277.952	23.04
278.168	64
278.383	33.28
278.599	23.04
278.814	-1.54
279.03	45.57
279.245	117.25
279.461	-22.02
279.676	31.23
279.892	-32.26
280.107	8.7
280.322	55.81
280.538	47.62
280.753	49.66
280.969	41.47
281.184	37.38
281.399	27.14
281.615	29.18
281.83	23.04
282.045	57.86
282.26	-17.92
282.476	-24.06
282.691	66.05
282.906	47.62
283.122	10.75
283.337	61.95
283.552	68.09
283.767	-60.93
283.983	49.66
284.198	20.99
284.413	76.29
284.628	45.57
284.843	10.75
285.058	31.23
285.274	29.18
285.489	41.47
285.704	20.99
285.919	0.51
286.134	-36.35
286.349	10.75
286.564	49.66
286.779	80.38
286.995	-7.68
287.21	31.23
287.425	27.14
287.64	20.99
287.855	33.28
288.07	96.77
288.285	86.53
288.5	94.72
288.715	47.62
288.93	68.09
289.145	98.81
289.36	76.29
289.575	94.72
289.79	127.49
290.004	39.42
290.219	33.28
290.434	6.66
290.649	20.99
290.864	31.23
291.079	-11.78
291.294	-50.69
291.509	64
291.724	27.14
291.938	14.85
292.153	84.48
292.368	-19.97
292.583	31.23
292.798	49.66
293.012	8.7
293.227	-5.63
293.442	0.51
293.657	41.47
293.871	86.53
294.086	37.38
294.301	135.68
294.516	82.43
294.73	51.71
294.945	64
295.16	-11.78
295.374	-7.68
295.589	27.14
295.804	16.9
296.018	78.33
296.233	23.04
296.447	45.57
296.662	-40.45
296.877	80.38
297.091	-1.54
297.306	-3.58
297.52	23.04
297.735	20.99
297.949	80.38
298.164	88.57
298.378	8.7
298.593	12.8
298.807	16.9
299.022	-3.58
299.236	82.43
299.451	18.94
299.665	37.38
299.88	72.19
300.094	31.23
300.309	43.52
300.523	6.66
300.737	117.25
300.952	107.01
301.166	102.91
301.381	-44.54
301.595	47.62
301.809	70.14
302.024	72.19
302.238	-11.78
302.452	82.43
302.667	14.85
302.881	115.2
303.095	35.33
303.309	102.91
303.524	-7.68
303.738	4.61
303.952	51.71
304.166	164.35
304.381	-7.68
304.595	84.48
304.809	51.71
305.023	78.33
305.237	0.51
305.452	25.09
305.666	64
305.88	53.76
306.094	111.1
306.308	78.33
306.522	-24.06
306.736	18.94
306.95	25.09
307.164	37.38
307.379	-3.58
307.593	70.14
307.807	-11.78
308.021	53.76
308.235	33.28
308.449	-7.68
308.663	45.57
308.877	92.67
309.091	41.47
309.305	37.38
309.519	-34.3
309.733	49.66
309.947	-19.97
310.161	57.86
310.374	82.43
310.588	82.43
310.802	84.48
311.016	31.23
311.23	12.8
311.444	39.42
311.658	84.48
311.872	55.81
312.085	64
312.299	20.99
312.513	41.47
312.727	45.57
312.941	16.9
313.154	27.14
313.368	0.51
313.582	16.9
313.796	70.14
314.009	51.71
314.223	23.04
314.437	100.86
314.651	135.68
314.864	-17.92
315.078	-48.64
315.292	53.76
315.505	-22.02
315.719	-7.68
315.933	68.09
316.146	49.66
316.36	14.85
316.573	49.66
316.787	78.33
317.001	49.66
317.214	39.42
317.428	109.05
317.641	12.8
317.855	20.99
318.068	49.66
318.282	117.25
318.495	145.92
318.709	84.48
318.922	37.38
319.136	90.62
319.349	78.33
319.563	49.66
319.776	70.14
319.99	8.7
320.203	64
320.417	-7.68
320.63	125.44
320.843	115.2
321.057	-9.73
321.27	66.05
321.483	53.76
321.697	115.2
321.91	20.99
322.124	107.01
322.337	82.43
322.55	96.77
322.763	2.56
322.977	66.05
323.19	-22.02
323.403	33.28
323.617	96.77
323.83	37.38
324.043	-7.68
324.256	57.86
324.469	72.19
324.683	76.29
324.896	66.05
325.109	68.09
325.322	-9.73
325.535	16.9
325.748	98.81
325.962	78.33
326.175	76.29
326.388	70.14
326.601	100.86
326.814	139.77
327.027	-13.82
327.24	125.44
327.453	25.09
327.666	41.47
327.879	43.52
328.092	55.81
328.305	53.76
328.518	59.9
328.731	10.75
328.944	-11.78
329.157	49.66
329.37	55.81
329.583	94.72
329.796	72.19
330.009	-40.45
330.222	76.29
330.435	41.47
330.648	104.96
330.861	-15.87
331.073	78.33
331.286	82.43
331.499	74.24
331.712	-3.58
331.925	6.66
332.138	14.85
332.35	141.82
332.563	47.62
332.776	113.15
332.989	41.47
333.202	6.66
333.414	0.51
333.627	25.09
333.84	96.77
334.053	86.53
334.265	4.61
334.478	84.48
334.691	31.23
334.903	107.01
335.116	57.86
335.329	-48.64
335.541	76.29
335.754	53.76
335.966	16.9
336.179	100.86
336.392	25.09
336.604	96.77
336.817	113.15
337.029	39.42
337.242	80.38
337.454	-15.87
337.667	76.29
337.88	25.09
338.092	74.24
338.305	31.23
338.517	0.51
338.729	80.38
338.942	57.86
339.154	70.14
339.367	10.75
339.579	113.15
339.792	33.28
340.004	39.42
340.217	59.9
340.429	0.51
340.641	33.28
340.854	41.47
341.066	25.09
341.278	55.81
341.491	86.53
341.703	70.14
341.915	61.95
342.128	45.57
342.34	92.67
342.552	37.38
342.764	20.99
342.977	-1.54
343.189	96.77
343.401	-7.68
343.613	-5.63
343.826	25.09
344.038	70.14
344.25	53.76
344.462	59.9
344.674	64
344.886	31.23
345.099	16.9
345.311	113.15
345.523	16.9
345.735	29.18
345.947	115.2
346.159	86.53
346.371	2.56
346.583	12.8
346.795	53.76
347.007	-11.78
347.219	12.8
347.431	-36.35
347.643	35.33
347.855	-36.35
348.067	41.47
348.279	64
348.491	20.99
348.703	68.09
348.915	49.66
349.127	-1.54
349.339	139.77
349.551	113.15
349.763	61.95
349.975	-3.58
350.187	29.18
350.399	76.29
350.61	88.57
350.822	0.51
351.034	4.61
351.246	66.05
351.458	-28.16
351.669	82.43
351.881	-54.78
352.093	20.99
352.305	150.01
352.517	88.57
352.728	162.3
352.94	23.04
353.152	74.24
353.363	49.66
353.575	70.14
353.787	41.47
353.999	49.66
354.21	31.23
354.422	72.19
354.633	-1.54
354.845	141.82
355.057	86.53
355.268	51.71
355.48	41.47
355.692	35.33
355.903	-42.5
356.115	49.66
356.326	64
356.538	104.96
356.749	156.16
356.961	76.29
357.172	70.14
357.384	45.57
357.595	172.54
357.807	31.23
358.018	18.94
358.23	55.81
358.441	102.91
358.653	16.9
358.864	123.39
359.075	53.76
359.287	47.62
359.498	47.62
359.709	12.8
359.921	-17.92
360.132	10.75
360.344	55.81
360.555	12.8
360.766	104.96
360.977	127.49
361.189	49.66
361.4	-3.58
361.611	102.91
361.823	125.44
362.034	43.52
362.245	25.09
362.456	45.57
362.667	47.62
362.879	33.28
363.09	55.81
363.301	37.38
363.512	39.42
363.723	139.77
363.935	18.94
364.146	47.62
364.357	20.99
364.568	45.57
364.779	-11.78
364.99	94.72
365.201	-11.78
365.412	57.86
365.623	-1.54
365.834	84.48
366.045	74.24
366.256	90.62
366.467	2.56
366.678	-5.63
366.889	14.85
367.1	12.8
367.311	90.62
367.522	39.42
367.733	82.43
367.944	92.67
368.155	59.9
368.366	49.66
368.577	68.09
368.788	47.62
368.999	-32.26
369.209	18.94
369.42	86.53
369.631	129.53
369.842	55.81
370.053	39.42
370.264	55.81
370.474	31.23
370.685	131.58
370.896	74.24
371.107	84.48
371.317	82.43
371.528	96.77
371.739	76.29
371.95	14.85
372.16	45.57
372.371	-44.54
372.582	16.9
372.792	51.71
373.003	10.75
373.214	102.91
373.424	96.77
373.635	-36.35
373.846	100.86
374.056	76.29
374.267	-22.02
374.477	49.66
374.688	-5.63
374.898	23.04
375.109	80.38
375.319	145.92
375.53	80.38
375.74	74.24
375.951	55.81
376.161	66.05
376.372	72.19
376.582	-1.54
376.793	143.87
377.003	39.42
377.214	8.7
377.424	27.14
377.635	16.9
377.845	59.9
378.055	90.62
378.266	-9.73
378.476	49.66
378.686	-1.54
378.897	107.01
379.107	107.01
379.317	98.81
379.528	-1.54
379.738	92.67
379.948	25.09
380.158	119.29
380.369	20.99
380.579	117.25
380.789	49.66
380.999	125.44
381.21	10.75
381.42	82.43
381.63	25.09
381.84	84.48
382.05	23.04
382.261	150.01
382.471	51.71
382.681	-40.45
382.891	64
383.101	98.81
383.311	-17.92
383.521	37.38
383.731	86.53
383.941	31.23
384.151	70.14
384.361	-60.93
384.571	84.48
384.781	156.16
384.991	82.43
385.201	96.77
385.411	147.97
385.621	111.1
385.831	25.09
386.041	113.15
386.251	98.81
386.461	90.62
386.671	96.77
386.881	20.99
387.091	109.05
387.301	35.33
387.511	39.42
387.72	51.71
387.93	35.33
388.14	35.33
388.35	64
388.56	76.29
388.769	123.39
388.979	64
389.189	-22.02
389.399	76.29
389.609	45.57
389.818	70.14
390.028	96.77
390.238	92.67
390.447	45.57
390.657	68.09
390.867	96.77
391.076	123.39
391.286	49.66
391.496	96.77
391.705	-3.58
391.915	86.53
392.125	51.71
392.334	127.49
392.544	115.2
392.753	102.91
392.963	90.62
393.172	113.15
393.382	-3.58
393.591	131.58
393.801	27.14
394.01	66.05
394.22	84.48
394.429	80.38
394.639	80.38
394.848	64
395.058	72.19
395.267	168.45
395.477	113.15
395.686	156.16
395.895	139.77
396.105	129.53
396.314	78.33
396.524	66.05
396.733	68.09
396.942	123.39
397.152	55.81
397.361	123.39
397.57	113.15
397.78	104.96
397.989	137.73
398.198	217.6
398.407	84.48
398.617	29.18
398.826	31.23
399.035	160.25
399.244	131.58
399.453	143.87
399.663	109.05
399.872	164.35
400.081	94.72
400.29	147.97
400.499	125.44
400.708	158.21
400.917	72.19
401.127	160.25
401.336	150.01
401.545	115.2
401.754	125.44
401.963	168.45
402.172	115.2
402.381	121.34
402.59	147.97
402.799	70.14
403.008	197.12
403.217	111.1
403.426	147.97
403.635	115.2
403.844	119.29
404.053	119.29
404.262	127.49
404.471	147.97
404.68	168.45
404.888	184.83
405.097	225.79
405.306	184.83
405.515	168.45
405.724	104.96
405.933	158.21
406.142	238.08
406.35	188.93
406.559	180.73
406.768	207.36
406.977	195.07
407.185	307.71
407.394	295.42
407.603	186.88
407.812	221.69
408.02	252.41
408.229	281.08
408.438	295.42
408.646	260.6
408.855	293.37
409.064	272.89
409.272	295.42
409.481	320
409.69	320
409.898	303.61
410.107	365.05
410.315	340.47
410.524	408.06
410.733	492.02
410.941	367.1
411.15	444.92
411.358	344.57
411.567	426.49
411.775	436.73
411.984	526.84
412.192	504.31
412.401	436.73
412.609	602.61
412.818	641.53
413.026	528.89
413.234	627.19
413.443	692.73
413.651	606.71
413.86	514.55
414.068	721.4
414.276	686.58
414.485	717.3
414.693	819.7
414.901	774.64
415.11	836.08
415.318	748.02
415.526	940.53
415.734	778.74
415.943	915.95
416.151	973.3
416.359	926.19
416.567	995.82
416.776	1006.06
416.984	1094.13
417.192	1182.19
417.4	1139.18
417.608	1083.89
417.817	1130.99
418.025	1343.98
418.233	1362.41
418.441	1288.68
418.649	1356.27
418.857	1432.04
419.065	1556.97
419.273	1528.3
419.481	1528.3
419.689	1612.26
419.897	1612.26
420.105	1808.87
420.313	1864.16
420.521	1755.62
420.729	1843.68
420.937	1966.56
421.145	2032.1
421.353	2122.21
421.561	2224.61
421.769	2253.28
421.977	2388.44
422.185	2384.35
422.393	2539.99
422.601	2650.58
422.809	2724.31
423.017	2701.78
423.224	2822.61
423.432	2896.34
423.64	2888.15
423.848	3013.07
424.056	3013.07
424.263	3299.79
424.471	3242.45
424.679	3512.78
424.887	3451.34
425.094	3498.44
425.302	3701.19
425.51	3801.54
425.718	3838.41
425.925	4016.58
426.133	4131.26
426.341	4399.55
426.548	4604.35
426.756	4485.56
426.964	4471.23
427.171	5028.28
427.379	5067.19
427.586	4907.45
427.794	5208.5
428.001	5337.52
428.209	5648.81
428.417	5546.41
428.624	5923.24
428.832	5972.39
429.039	6031.78
429.247	5812.65
429.454	6564.25
429.662	7043.48
429.869	6441.37
430.076	6789.53
430.284	6683.03
430.491	7129.49
430.699	7551.37
430.906	7471.5
431.114	7575.95
431.321	7752.07
431.528	7815.56
431.736	8485.25
431.943	8917.37
432.15	8446.34
432.358	8759.67
432.565	9273.71
432.772	9142.64
432.979	9746.8
433.187	9564.53
433.394	9851.24
433.601	10193.25
433.808	10424.67
434.016	10391.91
434.223	10924.38
434.43	11716.94
434.637	11344.21
434.844	11876.68
435.052	12075.34
435.259	11956.55
435.466	12386.63
435.673	12067.14
435.88	13134.14
436.087	13445.43
436.294	13605.17
436.501	13277.49
436.708	13510.96
436.915	14119.21
437.122	14696.74
437.329	14518.56
437.537	14903.58
437.743	15386.9
437.95	15304.98
438.157	15991.05
438.364	16480.52
438.571	16455.94
438.778	16539.91
438.985	17983.73
439.192	17320.18
439.399	17975.53
439.606	17428.73
439.813	18512.1
440.02	19570.9
440.227	19157.21
440.433	19042.53
440.64	19968.21
440.847	19751.12
441.054	20216.01
441.261	21262.52
441.467	21133.5
441.674	21203.13
441.881	22030.51
442.088	21901.49
442.294	22069.42
442.501	22839.46
442.708	23138.46
442.914	24017.04
443.121	24955.01
443.328	24066.19
443.534	26206.32
443.741	25211.01
443.948	25010.31
444.154	27164.77
444.361	27031.65
444.568	26841.19
444.774	26824.81
444.981	27132
445.187	27631.71
445.394	29003.85
445.6	28586.06
445.807	31567.9
446.013	30083.12
446.22	30920.74
446.426	31875.1
446.633	31768.6
446.839	32868.36
447.046	31572
447.252	33359.87
447.459	33411.07
447.665	33499.14
447.871	35305.45
448.078	35973.08
448.284	34312.18
448.491	35479.52
448.697	36915.15
448.903	37119.95
449.11	37441.48
449.316	36528.08
449.522	37523.4
449.728	38393.78
449.935	38623.15
450.141	38772.66
450.347	39372.71
450.553	38320.06
450.76	38913.97
450.966	39907.23
451.172	39479.21
451.378	40079.26
451.584	39643.04
451.791	40169.37
451.997	40232.86
452.203	40937.36
452.409	41021.33
452.615	40511.38
452.821	39221.16
453.027	38959.02
453.233	40603.54
453.44	39030.7
453.646	39387.05
453.852	39684
454.058	40363.93
454.264	38879.15
454.47	39774.11
454.676	38918.06
454.882	39888.8
455.088	36356.05
455.294	36939.72
455.5	37439.43
455.705	38107.07
455.911	36902.86
456.117	35616.74
456.323	35153.9
456.529	33343.49
456.735	34998.25
456.941	33941.5
457.147	33382.4
457.352	32286.74
457.558	32219.16
457.764	32032.79
457.97	31344.67
458.176	30582.83
458.381	30404.66
458.587	29294.66
458.793	28944.45
458.999	27586.65
459.204	29820.98
459.41	29038.66
459.616	27109.47
459.821	26968.16
460.027	26810.47
460.233	26079.35
460.438	25014.4
460.644	25274.49
460.85	24246.41
461.055	23664.79
461.261	23634.07
461.466	22120.62
461.672	21442.74
461.878	22970.53
462.083	21506.23
462.289	21080.25
462.494	20992.19
462.7	19921.1
462.905	19271.9
463.111	20248.78
463.316	20287.69
463.522	19642.58
463.727	19568.85
463.932	19796.18
464.138	19445.98
464.343	19488.98
464.549	19056.86
464.754	19568.85
464.959	19218.65
465.165	19378.39
465.37	18821.34
465.575	17881.33
465.781	18723.04
465.986	18839.78
466.191	18077.93
466.397	17887.47
466.602	16947.45
466.807	17555.7
467.012	17549.56
467.218	17359.1
467.423	17180.92
467.628	17387.77
467.833	18028.78
468.038	17508.6
468.244	16904.45
468.449	17606.9
468.654	16861.44
468.859	17027.32
469.064	17010.94
469.269	16369.93
469.474	16331.01
469.679	16668.93
469.885	16216.33
470.09	16269.58
470.295	16314.63
470.5	15976.72
470.705	15677.71
470.91	15528.21
471.115	15380.76
471.32	15853.84
471.525	15745.3
471.73	15178.01
471.935	14985.5
472.139	14321.96
472.344	14762.27
472.549	14684.45
472.754	14532.9
472.959	14158.12
473.164	13869.36
473.369	13799.73
473.574	14145.83
473.778	14258.47
473.983	13723.95
474.188	13785.39
474.393	13433.14
474.598	13527.35
474.802	13076.79
475.007	13056.31
475.212	13340.98
475.417	12593.47
475.621	12704.06
475.826	12589.38
476.031	12454.21
476.235	12327.24
476.44	12263.75
476.645	12235.08
476.849	12304.71
477.054	12017.99
477.259	12024.14
477.463	12044.62
477.668	11671.89
477.872	11721.04
478.077	11510.1
478.282	11211.09
478.486	11094.36
478.691	11110.74
478.895	11288.92
479.1	11116.89
479.304	11039.06
479.509	10748.25
479.713	11090.26
479.918	10686.81
480.122	10346.85
480.326	10819.93
480.531	10907.99
480.735	10604.89
480.94	10617.18
481.144	10899.8
481.348	10434.91
481.553	10490.21
481.757	10375.52
481.961	10492.26
482.166	10654.05
482.37	10379.62
482.574	10262.88
482.778	10258.79
482.983	10518.88
483.187	10486.11
483.391	10416.48
483.595	10150.25
483.8	10203.49
484.004	10277.22
484.208	10551.65
484.412	10402.15
484.616	10252.64
484.821	10453.34
485.025	10307.94
485.229	10242.4
485.433	10217.83
485.637	10434.91
485.841	10191.2
486.045	10297.7
486.249	10494.3
486.453	10459.49
486.657	10451.3
486.861	10414.43
487.065	10090.85
487.269	10221.92
487.473	10283.36
487.677	10406.24
487.881	10516.83
488.085	10152.29
488.289	10324.32
488.493	10273.12
488.697	10369.38
488.901	10510.69
489.105	10340.71
489.309	10254.69
489.512	10383.71
489.716	10537.31
489.92	10453.34
490.124	10408.29
490.328	10631.52
490.531	10674.53
490.735	10627.42
490.939	10658.14
491.143	10729.82
491.346	10660.19
491.55	10936.67
491.754	10662.24
491.958	10930.52
492.161	10914.14
492.365	11002.2
492.569	10903.9
492.772	10821.98
492.976	11063.64
493.18	11250
493.383	11139.41
493.587	11262.29
493.79	11278.68
493.994	11456.85
494.197	11333.97
494.401	11546.96
494.605	11553.1
494.808	11768.14
495.012	11712.85
495.215	12030.28
495.419	11958.6
495.622	11819.34
495.825	12163.4
496.029	12085.58
496.232	12245.32
496.436	12366.15
496.639	12611.9
496.843	12282.18
497.046	13013.31
497.249	13160.76
497.453	13093.18
497.656	13162.81
497.859	13302.07
498.063	13295.93
498.266	13766.96
498.469	13541.68
498.673	13746.48
498.876	14018.86
499.079	14119.21
499.282	14082.35
499.485	14657.82
499.689	14442.79
499.892	14530.85
500.095	14854.43
500.298	14989.6
500.501	15335.7
500.705	15261.98
500.908	15558.93
501.111	15806.73
501.314	15735.06
501.517	16245
501.72	16361.73
501.923	16152.84
502.126	16535.81
502.329	16918.78
502.532	16922.88
502.735	17027.32
502.938	17355
503.141	17410.29
503.344	17742.07
503.547	17656.05
503.75	18006.25
503.953	18397.42
504.156	18372.84
504.359	18585.83
504.562	18755.81
504.765	19343.58
504.968	19464.41
505.17	19628.24
505.373	19620.05
505.576	20189.39
505.779	19960.02
505.982	20144.33
506.185	20846.79
506.387	20920.51
506.59	20840.64
506.793	21319.87
506.996	21143.74
507.198	21676.21
507.401	21713.08
507.604	22010.03
507.807	22466.73
508.009	22509.74
508.212	22788.26
508.415	23224.48
508.617	23167.13
508.82	23746.71
509.022	23304.35
509.225	24178.83
509.428	24068.24
509.63	24371.34
509.833	24639.62
510.035	25012.35
510.238	24889.48
510.44	25462.91
510.643	25473.15
510.845	26196.08
511.048	25649.27
511.25	26421.36
511.453	26687.59
511.655	27246.69
511.858	27058.28
512.06	27353.18
512.262	27756.63
512.465	27732.06
512.667	28059.73
512.87	28256.34
513.072	28368.98
513.274	29124.68
513.477	29134.92
513.679	29507.65
513.881	30017.59
514.084	30179.38
514.286	30062.65
514.488	30492.72
514.69	31223.84
514.893	31399.97
515.095	31346.72
515.297	31899.67
515.499	32198.68
515.701	32591.89
515.904	32722.96
516.106	32835.59
516.308	33249.28
516.51	33687.55
516.712	33796.09
516.914	34039.8
517.116	34775.02
517.318	34959.34
517.52	34662.38
517.722	35213.29
517.925	35626.98
518.127	35928.03
518.329	36126.68
518.531	36104.15
518.733	36964.3
518.935	36913.1
519.136	37189.58
519.338	37574.59
519.54	37892.03
519.742	37861.31
519.944	38330.3
520.146	39077.8
520.348	39026.6
520.55	39315.37
520.752	39466.92
520.954	40220.57
521.155	39856.03
521.357	40478.61
521.559	40660.88
521.761	41465.74
521.963	41129.87
522.164	41725.83
522.366	41584.52
522.568	42243.96
522.77	42323.83
522.971	43157.36
523.173	42456.95
523.375	43034.48
523.576	43116.4
523.778	43128.69
523.98	43779.94
524.181	44285.79
524.383	44097.38
524.584	44564.31
524.786	44611.42
524.988	44146.53
525.189	45358.92
525.391	45848.39
525.592	45764.42
525.794	45987.65
525.995	45705.03
526.197	45885.25
526.398	46237.5
526.6	45999.94
526.801	46917.43
527.003	46935.86
527.204	46393.15
527.406	47374.13
527.607	47324.97
527.808	47730.47
528.01	46858.04
528.211	47638.31
528.412	48404.25
528.614	47906.6
528.815	48230.18
529.016	48467.74
529.218	48015.14
529.419	48359.2
529.62	48461.6
529.822	48342.81
530.023	48793.37
530.224	48926.49
530.425	48711.45
530.626	48566.04
530.828	48584.47
531.029	49571.6
531.23	48836.37
531.431	49325.84
531.632	48940.82
531.833	49444.62
532.035	49346.32
532.236	49594.12
532.437	49856.26
532.638	49260.3
532.839	50136.83
533.04	49925.89
533.241	49065.75
533.442	50431.74
533.643	49956.61
533.844	49925.89
534.045	49843.98
534.246	49596.17
534.447	50491.13
534.648	49669.9
534.849	49825.54
535.05	49702.67
535.251	50071.3
535.451	49520.4
535.652	50345.73
535.853	50171.65
536.054	50441.98
536.255	50355.97
536.456	50181.89
536.657	50525.95
536.857	49692.43
537.058	49979.14
537.259	50820.86
537.46	50423.55
537.66	49907.46
537.861	50568.96
538.062	50118.4
538.263	50134.79
538.463	50026.24
538.664	50179.84
538.865	50419.45
539.065	50657.02
539.266	49469.2
539.466	50360.06
539.667	49747.72
539.868	50378.5
540.068	50392.83
540.269	50263.81
540.469	50587.39
540.67	49948.42
540.87	50308.86
541.071	49960.71
541.271	50398.97
541.472	50317.06
541.672	49528.59
541.873	49768.2
542.073	49162
542.274	51039.99
542.474	50331.39
542.675	49841.93
542.875	50360.06
543.075	50048.77
543.276	49686.28
543.476	50579.2
543.676	49897.22
543.877	50450.17
544.077	50222.85
544.277	49690.38
544.478	49751.82
544.678	50149.12
544.878	49786.63
545.078	49825.54
545.279	49874.69
545.479	49923.85
545.679	50077.44
545.879	50079.49
546.079	50124.55
546.28	49514.25
546.48	49202.96
546.68	50099.97
546.88	50251.52
547.08	49753.86
547.28	49673.99
547.48	49381.13
547.68	49866.5
547.88	49276.69
548.081	50255.62
548.281	50304.77
548.481	50026.24
548.681	50173.7
548.881	50169.6
549.081	49690.38
549.28	49698.57
549.48	50056.96
549.68	49573.64
549.88	50263.81
550.08	49481.48
550.28	50251.52
550.48	49139.47
550.68	49680.14
550.88	49391.37
551.08	49581.84
551.279	49772.3
551.479	49229.58
551.679	49880.84
551.879	49577.74
552.079	50056.96
552.278	49268.5
552.478	49641.23
552.678	49569.55
552.878	49653.51
553.077	49604.36
553.277	49202.96
553.477	50091.78
553.676	48940.82
553.876	49248.02
554.076	49139.47
554.275	49487.63
554.475	48473.88
554.674	49211.15
554.874	48975.64
555.074	48840.47
555.273	49139.47
555.473	49268.5
555.672	48750.36
555.872	48523.04
556.071	49276.69
556.271	49299.22
556.47	49082.13
556.67	48314.14
556.869	48981.78
557.068	49338.13
557.268	48535.32
557.467	48582.43
557.667	48424.73
557.866	48998.16
558.065	48477.98
558.265	48160.55
558.464	48172.83
558.663	49030.93
558.863	47529.77
559.062	48756.5
559.261	48162.59
559.461	48826.13
559.66	48152.35
559.859	48267.04
560.058	47558.44
560.258	48254.75
560.457	47339.31
560.656	47898.41
560.855	47933.22
561.054	48002.85
561.253	47533.87
561.453	47925.03
561.652	47707.94
561.851	47949.6
562.05	47433.52
562.249	47048.5
562.448	47705.9
562.647	46876.47
562.846	47040.31
563.045	47005.49
563.244	46845.75
563.443	47183.66
563.642	46862.13
563.841	46612.28
564.04	46757.69
564.239	47195.95
564.438	46487.35
564.637	46665.53
564.836	46688.06
565.035	46112.58
565.234	46567.23
565.432	46184.26
565.631	45846.34
565.83	45893.44
566.029	45778.76
566.228	45958.98
566.427	45815.62
566.625	45385.55
566.824	45002.58
567.023	45829.96
567.222	44394.33
567.42	45573.96
567.619	45713.22
567.818	45225.81
568.016	45274.96
568.215	45352.78
568.414	45070.16
568.612	45184.85
568.811	44955.47
569.01	44562.26
569.208	44396.38
569.407	44431.19
569.605	43994.98
569.804	44681.05
570.002	43970.4
570.201	44285.79
570.4	44154.72
570.598	43466.6
570.797	43648.87
570.995	43847.52
571.193	43362.15
571.392	43788.13
571.59	43392.87
571.789	43702.12
571.987	43718.5
572.186	43009.9
572.384	42997.62
572.582	43317.1
572.781	43122.54
572.979	42772.34
573.177	42903.41
573.376	42837.87
573.574	42841.97
573.772	42657.65
573.971	42176.38
574.169	42346.36
574.367	41609.09
574.565	42522.49
574.763	42084.22
574.962	42135.42
575.16	41338.76
575.358	41555.85
575.556	41162.64
575.754	42149.76
575.952	41183.12
576.151	41445.26
576.349	41258.89
576.547	41000.85
576.745	41373.58
576.943	40929.17
577.141	40894.35
577.339	41260.94
577.537	40587.16
577.735	40761.23
577.933	40339.35
578.131	40695.7
578.329	40195.99
578.527	40224.67
578.725	40120.22
578.923	40257.43
579.121	39804.83
579.319	39999.39
579.516	40245.15
579.714	39645.09
579.912	39577.51
580.11	39597.99
580.308	39423.91
580.506	39489.45
580.704	38582.2
580.901	39167.91
581.099	39006.12
581.297	38885.29
581.495	38660.02
581.692	39159.72
581.89	38733.74
582.088	39053.23
582.285	38113.21
582.483	38778.8
582.681	38430.65
582.878	38080.44
583.076	37832.64
583.274	38487.99
583.471	37521.35
583.669	37765.06
583.866	37560.26
584.064	37973.95
584.262	37187.53
584.459	37466.05
584.657	37195.72
584.854	37590.98
585.052	36825.04
585.249	37099.47
585.447	37054.41
585.644	36605.91
585.841	36790.22
586.039	37103.56
586.236	36403.16
586.434	36411.35
586.631	36284.37
586.828	36554.71
587.026	36302.81
587.223	36235.22
587.42	36022.23
587.618	36075.48
587.815	35506.15
588.012	35657.7
588.21	35622.88
588.407	35768.29
588.604	35203.05
588.801	35301.35
588.999	35293.16
589.196	35145.7
589.393	34899.95
589.59	35061.74
589.787	34566.13
589.984	34725.87
590.182	34553.84
590.379	34639.86
590.576	34623.47
590.773	34668.53
590.97	34394.1
591.167	34539.5
591.364	33705.98
591.561	34172.92
591.758	34072.57
591.955	33693.69
592.152	33873.92
592.349	33552.38
592.546	33654.78
592.743	33492.99
592.94	33052.68
593.137	33239.04
593.334	33243.14
593.531	33081.35
593.727	33384.45
593.924	32759.82
594.121	32385.04
594.318	32964.62
594.515	32380.95
594.712	32528.4
594.908	32243.73
595.105	32653.33
595.302	31959.06
595.499	32299.03
595.696	32141.33
595.892	32233.49
596.089	32139.29
596.286	31868.95
596.482	31744.03
596.679	31698.97
596.876	31520.8
597.072	31608.86
597.269	31600.67
597.466	31133.73
597.662	31047.72
597.859	31246.37
598.055	31242.28
598.252	30900.26
598.448	30851.11
598.645	30550.06
598.841	30595.12
599.038	30603.31
599.234	30650.41
599.431	30650.41
599.627	30513.2
599.824	30650.41
600.02	30191.67
600.217	30214.19
600.413	29685.82
600.609	29659.2
600.806	29796.41
601.002	30005.3
601.198	29775.93
601.395	29583.42
601.591	29669.44
601.787	29530.17
601.984	29364.29
602.18	29384.77
602.376	28821.58
602.572	28889.16
602.769	29282.37
602.965	28782.66
603.161	28971.08
603.357	28584.01
603.553	28407.89
603.75	28698.7
603.946	28432.46
604.142	28475.47
604.338	27863.13
604.534	28461.13
604.73	27727.96
604.926	28102.74
605.122	27973.72
605.318	27437.15
605.514	28020.82
605.71	27523.16
605.906	27730.01
606.102	27531.36
606.298	27338.85
606.494	27605.08
606.69	27242.59
606.886	27265.12
607.082	26968.16
607.278	27123.81
607.474	26634.35
607.67	26894.44
607.866	26976.36
608.062	27088.99
608.257	26583.15
608.453	26697.83
608.649	26974.31
608.845	26640.49
609.041	26413.16
609.236	26720.36
609.432	26361.97
609.628	26617.96
609.824	26382.45
610.019	26134.64
610.215	26007.67
610.411	26708.07
610.606	26142.83
610.802	26224.75
610.998	25923.7
611.193	26103.92
611.389	26181.74
611.584	25987.19
611.78	25766.01
611.976	25624.7
612.171	25770.1
612.367	25653.37
612.562	25546.87
612.758	25350.27
612.953	25389.18
613.149	25489.53
613.344	25292.93
613.539	25663.61
613.735	25200.77
613.93	25424
614.126	25176.19
614.321	25337.98
614.517	25235.58
614.712	24893.57
614.907	25010.31
615.103	25192.58
615.298	24807.56
615.493	25116.8
615.688	24608.9
615.884	25161.86
616.079	24692.87
616.274	24692.87
616.47	24799.37
616.665	24848.52
616.86	24440.97
617.055	24506.51
617.25	24254.61
617.445	24393.87
617.641	24031.38
617.836	24631.43
618.031	24225.93
618.226	24436.88
618.421	23775.38
618.616	24254.61
618.811	23658.65
619.006	23912.6
619.201	23654.55
619.396	23904.4
619.591	23433.37
619.786	23627.93
619.981	23060.64
620.176	23515.29
620.371	23017.63
620.566	23179.42
620.761	23001.25
620.956	23228.57
621.151	22767.78
621.346	23226.53
621.541	22405.29
621.735	22716.58
621.93	22143.15
622.125	22493.35
622.32	22032.56
622.515	21964.98
622.709	22040.75
622.904	22034.61
623.099	21973.17
623.294	21989.55
623.488	21430.46
623.683	21764.28
623.878	21463.22
624.072	21319.87
624.267	21412.03
624.462	20906.18
624.656	20766.92
624.851	20846.79
625.046	20508.87
625.24	20654.28
625.435	20453.58
625.629	20811.97
625.824	20310.22
626.018	20232.4
626.213	19669.2
626.407	20168.91
626.602	19671.25
626.796	19804.37
626.991	19800.27
627.185	19800.27
627.38	19568.85
627.574	19122.4
627.768	19196.12
627.963	19075.29
628.157	19030.24
628.352	19030.24
628.546	18759.91
628.74	18856.16
628.935	18890.98
629.129	18655.46
629.323	18311.4
629.517	18526.44
629.712	18432.23
629.906	18372.84
630.1	17891.57
630.294	18243.82
630.489	17838.32
630.683	18348.26
630.877	17604.85
631.071	17733.87
631.265	17623.28
631.459	17561.84
631.653	17457.4
631.848	17301.75
632.042	17248.5
632.236	17139.96
632.43	17158.39
632.624	17043.71
632.818	16988.41
633.012	16679.17
633.206	16673.03
633.4	16761.09
633.594	16445.7
633.788	16470.28
633.982	16490.76
634.176	16464.13
634.369	16324.87
634.563	16042.25
634.757	16339.21
634.951	15814.93
635.145	16054.54
635.339	15728.91
635.533	15638.8
635.726	15784.21
635.92	15550.74
636.114	15386.9
636.308	15614.23
636.501	15382.81
636.695	15370.52
636.889	15333.65
637.083	15012.12
637.276	15130.91
637.47	14856.48
637.664	14768.41
637.857	14674.21
638.051	14719.26
638.244	14891.29
638.438	14487.84
638.632	14389.54
638.825	14448.93
639.019	14389.54
639.212	14113.06
639.406	14166.31
639.599	14188.84
639.793	14385.44
639.986	13871.4
640.18	13963.56
640.373	13986.09
640.567	13881.64
640.76	13721.9
640.954	13613.36
641.147	13607.22
641.34	13345.08
641.534	13410.61
641.727	13158.71
641.92	13121.85
642.114	13238.58
642.307	13361.46
642.5	13074.74
642.694	12896.57
642.887	12939.58
643.08	12798.27
643.273	12917.05
643.467	12624.19
643.66	12515.65
643.853	12620.1
644.046	12515.65
644.239	12241.22
644.432	12470.59
644.626	12224.84
644.819	12230.98
645.012	12421.44
645.205	12147.01
645.398	12212.55
645.591	11835.72
645.784	11870.54
645.977	11950.41
646.17	11897.16
646.363	11753.8
646.556	11700.56
646.749	11743.56
646.942	11895.11
647.135	11315.54
647.328	11524.43
647.521	11340.11
647.714	11325.78
647.907	11393.36
648.099	11202.9
648.292	11114.84
648.485	11061.59
648.678	11014.49
648.871	10977.62
649.064	10840.41
649.256	10928.47
649.449	10885.47
649.642	10686.81
649.835	10578.27
650.027	10602.85
650.22	10652
650.413	10701.15
650.605	10363.23
650.798	10371.43
650.991	10342.75
651.183	10398.05
651.376	10156.39
651.568	10340.71
651.761	10146.15
651.954	10103.14
652.146	10027.37
652.339	9914.73
652.531	9957.74
652.724	10090.85
652.916	9759.08
653.109	9816.43
653.301	9777.51
653.494	9748.84
653.686	9591.15
653.879	9857.39
654.071	9793.9
654.263	9537.9
654.456	9503.09
654.648	9437.55
654.84	9138.55
655.033	9148.79
655.225	9204.08
655.417	9304.43
655.61	9019.77
655.802	9238.9
655.994	9025.91
656.186	9099.64
656.379	8817.02
656.571	8855.93
656.763	8749.43
656.955	8903.03
657.148	8960.38
657.34	8905.08
657.532	8675.71
657.724	8417.66
657.916	8667.52
658.108	8583.55
658.3	8407.42
658.492	8495.49
658.684	8481.15
658.876	8487.29
659.068	8481.15
659.26	8278.4
659.452	8335.74
659.644	8200.58
659.836	8169.86
660.028	8186.24
660.22	8016.26
660.412	8018.31
660.604	8083.84
660.796	7862.66
660.988	7922.06
661.18	7963.01
661.372	7678.35
661.563	7858.57
661.755	7674.25
661.947	7836.04
662.139	7723.4
662.331	7688.59
662.522	7453.07
662.714	7567.76
662.906	7520.65
663.097	7520.65
663.289	7375.25
663.481	7446.93
663.673	7442.83
663.864	7356.82
664.056	7328.14
664.247	7141.78
664.439	7090.58
664.631	7133.59
664.822	7117.2
665.014	7074.2
665.205	7047.57
665.397	7119.25
665.588	7039.38
665.78	6928.79
665.971	6928.79
666.163	6918.55
666.354	6893.97
666.546	6902.17
666.737	6730.14
666.929	6787.48
667.12	6840.73
667.311	6658.46
667.503	6687.13
667.694	6760.86
667.885	6513.05
668.077	6468
668.268	6541.72
668.459	6594.97
668.651	6447.52
668.842	6427.04
669.033	6443.42
669.224	6445.47
669.416	6373.79
669.607	6312.35
669.798	6420.89
669.989	6406.56
670.18	6293.92
670.371	6375.84
670.563	6132.13
670.754	6152.61
670.945	6281.63
671.136	6191.52
671.327	6050.21
671.518	6207.91
671.709	6109.6
671.9	5917.09
672.091	6123.94
672.282	5992.87
672.473	5980.58
672.664	6021.54
672.855	6146.47
673.046	6005.16
673.237	5898.66
673.428	5894.57
673.619	5919.14
673.809	5843.37
674	5812.65
674.191	5718.44
674.382	5765.54
674.573	5736.87
674.764	5775.78
674.954	5863.85
675.145	5456.3
675.336	5734.82
675.527	5560.75
675.717	5722.54
675.908	5603.75
676.099	5611.95
676.289	5632.43
676.48	5558.7
676.671	5538.22
676.861	5566.89
677.052	5429.68
677.243	5335.47
677.433	5546.41
677.624	5499.31
677.814	5644.71
678.005	5444.01
678.195	5392.81
678.386	5429.68
678.576	5384.62
678.767	5314.99
678.957	5294.51
679.148	5265.84
679.338	5304.75
679.529	5210.54
679.719	5200.3
679.909	5374.38
680.1	5079.47
680.29	5149.11
680.481	5138.87
680.671	5239.22
680.861	5171.63
681.052	5243.31
681.242	5175.73
681.432	5292.46
681.622	5149.11
681.813	5206.45
682.003	5224.88
682.193	5083.57
682.383	5108.15
682.573	5095.86
682.764	5073.33
682.954	5083.57
683.144	4968.88
683.334	5079.47
683.524	4981.17
683.714	4987.32
683.904	4977.08
684.094	5022.13
684.284	4954.55
684.474	4841.91
684.664	5013.94
684.854	4846.01
685.044	4956.6
685.234	4835.77
685.424	4874.68
685.614	4815.29
685.804	4790.71
685.994	4694.46
686.184	4833.72
686.374	4827.57
686.564	4694.46
686.753	4768.18
686.943	4651.45
687.133	4665.78
687.323	4643.26
687.513	4749.75
687.702	4702.65
687.892	4649.4
688.082	4524.47
688.272	4585.91
688.461	4583.87
688.651	4684.22
688.841	4604.35
689.03	4411.84
689.22	4422.08
689.41	4506.04
689.599	4424.12
689.789	4366.78
689.979	4387.26
690.168	4485.56
690.358	4540.86
690.547	4309.44
690.737	4334.01
690.926	4184.51
691.116	4137.41
691.305	4225.47
691.495	4250.05
691.684	4209.09
691.874	4192.7
692.063	4338.11
692.252	4051.39
692.442	4233.66
692.631	4078.02
692.82	4110.79
693.01	4084.16
693.199	4049.35
693.388	4164.03
693.578	4153.79
693.767	4223.42
693.956	4024.77
694.146	3975.62
694.335	3996.1
694.524	3867.08
694.713	4028.87
694.902	4067.78
695.092	3887.56
695.281	3936.71
695.47	3989.96
695.659	3934.66
695.848	3865.03
696.037	3994.05
696.226	3914.18
696.415	3920.32
696.604	3969.48
696.793	3934.66
696.982	3772.87
697.171	3858.89
697.36	3791.3
697.549	3834.31
697.738	3776.97
697.927	3779.01
698.116	3883.46
698.305	3676.62
698.494	3740.1
698.683	3838.41
698.872	3742.15
699.061	3754.44
699.25	3852.74
699.438	3633.61
699.627	3590.6
699.816	3793.35
700.005	3633.61
700.193	3668.42
700.382	3629.51
700.571	3604.94
700.76	3727.82
700.948	3705.29
701.137	3545.55
701.326	3631.56
701.514	3680.71
701.703	3609.03
701.892	3559.88
702.08	3656.14
702.269	3559.88
702.457	3582.41
702.646	3563.98
702.834	3498.44
703.023	3572.17
703.212	3387.85
703.4	3537.35
703.589	3627.46
703.777	3469.77
703.965	3482.06
704.154	3457.48
704.342	3523.02
704.531	3430.86
704.719	3492.3
704.907	3484.11
705.096	3535.31
705.284	3443.15
705.472	3482.06
705.661	3465.68
705.849	3498.44
706.037	3447.24
706.226	3353.04
706.414	3461.58
706.602	3291.6
706.79	3350.99
706.979	3400.14
707.167	3383.76
707.355	3418.57
707.543	3381.71
707.731	3451.34
707.919	3494.35
708.107	3396.04
708.296	3301.84
708.484	3361.23
708.672	3164.62
708.86	3398.09
709.048	3422.67
709.236	3361.23
709.424	3371.47
709.612	3324.37
709.8	3240.4
709.988	3275.21
710.176	3414.48
710.364	3363.28
710.551	3246.54
710.739	3158.48
710.927	3236.3
711.115	3271.12
711.303	3105.23
711.491	3142.1
711.679	3160.53
711.866	3275.21
712.054	3240.4
712.242	3187.15
712.43	3242.45
712.617	3205.58
712.805	3340.75
712.993	3150.29
713.181	3015.12
713.368	3197.39
713.556	3135.95
713.744	3138
713.931	3203.54
714.119	3185.1
714.306	3250.64
714.494	3074.51
714.682	3072.47
714.869	3013.07
715.057	3142.1
715.244	3029.46
715.432	3109.33
715.619	3191.25
715.807	3037.65
715.994	3135.95
716.182	3088.85
716.369	3021.27
716.556	3086.8
716.744	3111.38
716.931	3017.17
717.119	3119.57
717.306	3035.6
717.493	3166.67
717.681	3031.51
717.868	2933.2
718.055	3074.51
718.242	2953.68
718.43	3043.79
718.617	3140.05
718.804	2873.81
718.991	3097.04
719.179	2933.2
719.366	3000.79
719.553	3058.13
719.74	2986.45
719.927	3062.23
720.114	2929.11
720.301	2908.63
720.488	2935.25
720.676	2941.4
720.863	2957.78
721.05	2961.87
721.237	2900.44
721.424	2867.67
721.611	2867.67
721.798	2795.99
721.985	2814.42
722.172	2968.02
722.358	2963.92
722.545	2937.3
722.732	2824.66
722.919	2808.28
723.106	2740.69
723.293	2890.2
723.48	2798.04
723.667	2748.89
723.853	2820.56
724.04	2785.75
724.227	2793.94
724.414	2873.81
724.6	2822.61
724.787	2873.81
724.974	2740.69
725.161	2752.98
725.347	2814.42
725.534	2720.21
725.72	2795.99
725.907	2687.45
726.094	2828.76
726.28	2660.82
726.467	2740.69
726.653	2687.45
726.84	2681.3
727.027	2748.89
727.213	2736.6
727.4	2646.49
727.586	2701.78
727.773	2574.81
727.959	2757.08
728.145	2533.85
728.332	2716.12
728.518	2527.71
728.705	2576.86
728.891	2742.74
729.077	2634.2
729.264	2589.14
729.45	2669.02
729.636	2656.73
729.823	2564.57
730.009	2664.92
730.195	2650.58
730.382	2572.76
730.568	2607.58
730.754	2587.1
730.94	2537.95
731.126	2630.1
731.313	2693.59
731.499	2580.95
731.685	2599.38
731.871	2408.92
732.057	2496.99
732.243	2615.77
732.429	2511.32
732.615	2546.14
732.801	2501.08
732.987	2433.5
733.173	2494.94
733.359	2447.83
733.545	2578.9
733.731	2433.5
733.917	2601.43
734.103	2464.22
734.289	2597.34
734.475	2421.21
734.661	2628.06
734.847	2451.93
735.033	2384.35
735.219	2466.27
735.404	2539.99
735.59	2376.16
735.776	2464.22
735.962	2408.92
736.148	2480.6
736.333	2417.12
736.519	2351.58
736.705	2392.54
736.89	2402.78
737.076	2427.35
737.262	2259.42
737.447	2292.19
737.633	2363.87
737.819	2308.57
738.004	2310.62
738.19	2251.23
738.375	2279.9
738.561	2351.58
738.747	2253.28
738.932	2228.7
739.118	2275.81
739.303	2314.72
739.489	2206.17
739.674	2247.13
739.859	2224.61
740.045	2167.26
740.23	2191.84
740.416	2271.71
740.601	2214.37
740.786	2130.4
740.972	2247.13
741.157	2095.58
741.342	2154.98
741.528	2230.75
741.713	2200.03
741.898	2179.55
742.084	2228.7
742.269	2060.77
742.454	2085.34
742.639	2089.44
742.824	2101.73
743.01	2122.21
743.195	2165.21
743.38	1984.99
743.565	2085.34
743.75	2054.62
743.935	2064.86
744.12	2128.35
744.305	1941.99
744.49	2073.06
744.675	2118.11
744.86	1935.84
745.045	1974.75
745.23	1980.9
745.415	1946.08
745.6	2005.47
745.785	1962.47
745.97	1909.22
746.155	2034.14
746.34	1847.78
746.525	1845.73
746.71	1974.75
746.895	1905.12
747.079	1864.16
747.264	1749.48
747.449	1802.72
747.634	1788.39
747.819	1792.48
748.003	1819.11
748.188	1745.38
748.373	1733.09
748.557	1780.2
748.742	1737.19
748.927	1747.43
749.111	1632.74
749.296	1710.57
749.481	1743.33
749.665	1753.57
749.85	1653.22
750.034	1765.86
750.219	1655.27
750.404	1593.83
750.588	1720.81
750.773	1614.31
750.957	1606.12
751.141	1487.34
751.326	1556.97
751.51	1520.1
751.695	1573.35
751.879	1559.02
752.064	1567.21
752.248	1534.44
752.432	1528.3
752.617	1579.5
752.801	1511.91
752.985	1503.72
753.17	1483.24
753.354	1550.82
753.538	1487.34
753.722	1454.57
753.907	1356.27
754.091	1470.95
754.275	1409.51
754.459	1429.99
754.643	1372.65
754.828	1307.12
755.012	1411.56
755.196	1444.33
755.38	1374.7
755.564	1380.84
755.748	1237.49
755.932	1358.32
756.116	1384.94
756.3	1360.36
756.484	1401.32
756.668	1298.92
756.852	1329.64
757.036	1241.58
757.22	1196.53
757.404	1292.78
757.588	1237.49
757.772	1251.82
757.956	1251.82
758.14	1300.97
758.323	1196.53
758.507	1266.16
758.691	1167.85
758.875	1114.61
759.059	1198.57
759.242	1180.14
759.426	1214.96
759.61	1178.09
759.794	1098.22
759.977	1184.24
760.161	1217.01
760.345	1155.57
760.528	1049.07
760.712	1221.1
760.895	1231.34
761.079	1114.61
761.263	1061.36
761.446	1098.22
761.63	1030.64
761.813	1057.26
761.997	1106.42
762.18	1071.6
762.364	1028.59
762.547	1065.46
762.731	999.92
762.914	1077.74
763.098	1067.5
763.281	997.87
763.464	973.3
763.648	1051.12
763.831	1098.22
764.015	1001.97
764.198	969.2
764.381	991.73
764.564	1042.93
764.748	983.54
764.931	958.96
765.114	1004.02
765.297	1051.12
765.481	975.35
765.664	1026.54
765.847	934.39
766.03	1022.45
766.213	983.54
766.397	948.72
766.58	954.87
766.763	971.25
766.946	934.39
767.129	922.1
767.312	834.04
767.495	958.96
767.678	909.81
767.861	954.87
768.044	973.3
768.227	868.85
768.41	934.39
768.593	889.33
768.776	883.19
768.959	938.48
769.142	834.04
769.324	868.85
769.507	881.14
769.69	885.23
769.873	825.84
770.056	879.09
770.239	899.57
770.421	887.28
770.604	938.48
770.787	860.66
770.97	893.43
771.152	821.75
771.335	844.28
771.518	793.08
771.7	889.33
771.883	829.94
772.066	807.41
772.248	823.8
772.431	834.04
772.613	829.94
772.796	782.84
772.978	795.12
773.161	881.14
773.343	811.51
773.526	784.88
773.708	745.97
773.891	696.82
774.073	768.5
774.256	739.83
774.438	793.08
774.621	774.64
774.803	766.45
774.985	780.79
775.168	801.27
775.35	664.05
775.532	705.01
775.715	702.97
775.897	698.87
776.079	752.12
776.261	713.21
776.444	762.36
776.626	729.59
776.808	725.49
776.99	688.63
777.173	676.34
777.355	770.55
777.537	768.5
777.719	694.77
777.901	608.76
778.083	623.09
778.265	582.14
778.447	633.33
778.629	639.48
778.811	700.92
778.993	637.43
779.175	561.66
779.357	690.68
779.539	604.66
779.721	608.76
779.903	592.37
780.085	633.33
780.267	532.98
780.449	594.42
780.631	594.42
780.812	637.43
780.994	680.44
781.176	520.7
781.358	633.33
781.54	444.92
781.721	625.14
781.903	467.45
782.085	516.6
782.267	535.03
782.448	524.79
782.63	543.22
782.812	625.14
782.993	553.46
783.175	524.79
783.357	389.63
783.538	459.26
783.72	528.89
783.901	473.59
784.083	449.02
784.264	492.02
784.446	522.74
784.627	434.68
784.809	426.49
784.99	418.3
785.172	455.16
785.353	469.5
785.535	440.83
785.716	496.12
785.897	449.02
786.079	426.49
786.26	514.55
786.441	408.06
786.623	426.49
786.804	442.87
786.985	395.77
787.167	477.69
787.348	422.39
787.529	401.91
787.71	473.59
787.891	457.21
788.073	426.49
788.254	399.87
788.435	385.53
788.616	451.07
788.797	457.21
788.978	334.33
789.159	358.91
789.34	434.68
789.522	375.29
789.703	365.05
789.884	336.38
790.065	414.2
790.246	403.96
790.427	389.63
790.607	377.34
790.788	377.34
790.969	299.52
791.15	377.34
791.331	340.47
791.512	262.65
791.693	338.43
791.874	307.71
792.054	453.11
792.235	377.34
792.416	356.86
792.597	320
792.778	320
792.958	293.37
793.139	344.57
793.32	326.14
793.5	303.61
793.681	311.8
793.862	358.91
794.042	326.14
794.223	305.66
794.404	287.23
794.584	293.37
794.765	352.76
794.945	326.14
795.126	315.9
795.306	385.53
795.487	270.84
795.667	276.99
795.848	274.94
796.028	295.42
796.209	305.66
796.389	340.47
796.57	311.8
796.75	254.46
796.93	231.93
797.111	258.56
797.291	252.41
797.471	287.23
797.652	250.36
797.832	313.85
798.012	340.47
798.192	254.46
798.373	233.98
798.553	301.56
798.733	231.93
798.913	219.64
799.093	229.88
799.274	287.23
799.454	328.19
799.634	240.12
799.814	254.46
799.994	295.42
800.174	238.08
800.354	244.22
800.534	201.21
800.714	252.41
800.894	283.13
801.074	293.37
801.254	268.8
801.434	184.83
801.614	258.56
801.794	164.35
801.974	664.05
802.154	221.69
802.334	248.32
802.514	233.98
802.693	195.07
802.873	305.66
803.053	250.36
803.233	242.17
803.413	219.64
803.592	258.56
803.772	266.75
803.952	231.93
804.131	195.07
804.311	166.4
804.491	244.22
804.67	180.73
804.85	250.36
805.03	279.04
805.209	260.6
805.389	270.84
805.568	193.02
805.748	211.45
805.928	201.21
806.107	217.6
806.287	252.41
806.466	242.17
806.646	180.73
806.825	123.39
807.004	178.69
807.184	211.45
807.363	248.32
807.543	170.49
807.722	143.87
807.901	188.93
808.081	199.16
808.26	123.39
808.439	143.87
808.619	156.16
808.798	172.54
808.977	184.83
809.156	139.77
809.336	119.29
809.515	152.06
809.694	164.35
809.873	180.73
810.052	164.35
810.231	231.93
810.411	186.88
810.59	199.16
810.769	225.79
810.948	233.98
811.127	162.3
811.306	176.64
811.485	225.79
811.664	176.64
811.843	152.06
812.022	209.4
812.201	115.2
812.38	121.34
812.559	113.15
812.737	225.79
812.916	197.12
813.095	190.97
813.274	96.77
813.453	221.69
813.632	111.1
813.811	160.25
813.989	100.86
814.168	176.64
814.347	180.73
814.526	176.64
814.704	98.81
814.883	147.97
815.062	129.53
815.24	260.6
815.419	109.05
815.598	264.7
815.776	135.68
815.955	129.53
816.133	129.53
816.312	121.34
816.49	68.09
816.669	121.34
816.847	82.43
817.026	188.93
817.204	166.4
817.383	154.11
817.561	127.49
817.74	131.58
817.918	123.39
818.097	127.49
818.275	162.3
818.453	78.33
818.632	162.3
818.81	39.42
818.988	174.59
819.167	33.28
819.345	121.34
819.523	180.73
819.701	96.77
819.879	178.69
820.058	127.49
820.236	207.36
820.414	156.16
820.592	186.88
820.77	74.24
820.948	156.16
821.127	152.06
821.305	145.92
821.483	76.29
821.661	131.58
821.839	104.96
822.017	39.42
822.195	119.29
822.373	115.2
822.551	66.05
822.729	152.06
822.907	141.82
823.085	82.43
823.262	123.39
823.44	98.81
823.618	119.29
823.796	141.82
823.974	66.05
824.152	94.72
824.329	57.86
824.507	147.97
824.685	145.92
824.863	131.58
825.04	90.62
825.218	80.38
825.396	104.96
825.574	64
825.751	141.82
825.929	86.53
826.107	27.14
826.284	88.57
826.462	74.24
826.639	-19.97
826.817	41.47
826.994	74.24
827.172	31.23
827.349	98.81
827.527	121.34
827.704	68.09
827.882	176.64
828.059	109.05
828.237	76.29
828.414	66.05
828.591	123.39
828.769	150.01
828.946	41.47
829.124	135.68
829.301	131.58
829.478	59.9
829.655	84.48
829.833	104.96
830.01	29.18
830.187	90.62
830.364	145.92
830.542	145.92
830.719	74.24
830.896	90.62
831.073	88.57
831.25	80.38
831.427	84.48
831.604	98.81
831.782	125.44
831.959	37.38
832.136	68.09
832.313	98.81
832.49	70.14
832.667	0.51
832.844	119.29
833.021	82.43
833.198	66.05
833.374	150.01
833.551	66.05
833.728	-15.87
833.905	100.86
834.082	64
834.259	104.96
834.436	147.97
834.612	14.85
834.789	107.01
834.966	43.52
835.143	4.61
835.319	51.71
835.496	57.86
835.673	78.33
835.85	70.14
836.026	115.2
836.203	74.24
836.38	27.14
836.556	109.05
836.733	27.14
836.909	147.97
837.086	-17.92
837.262	111.1
837.439	84.48
837.616	-3.58
837.792	119.29
837.968	94.72
838.145	98.81
838.321	70.14
838.498	-11.78
838.674	84.48
838.851	49.66
839.027	8.7
839.203	57.86
839.38	94.72
839.556	90.62
839.732	59.9
839.909	25.09
840.085	41.47
840.261	92.67
840.437	35.33
840.614	4.61
840.79	121.34
840.966	25.09
841.142	94.72
841.318	-48.64
841.494	129.53
841.671	49.66
841.847	66.05
842.023	31.23
842.199	70.14
842.375	86.53
842.551	104.96
842.727	88.57
842.903	74.24
843.079	2.56
843.255	90.62
843.431	53.76
843.607	70.14
843.783	0.51
843.959	64
844.134	-7.68
844.31	70.14
844.486	90.62
844.662	20.99
844.838	66.05
845.013	61.95
845.189	64
845.365	90.62
845.541	41.47
845.716	96.77
845.892	129.53
846.068	147.97
846.244	64
846.419	82.43
846.595	20.99
846.77	64
846.946	86.53
847.122	55.81
847.297	6.66
847.473	45.57
847.648	14.85
847.824	49.66
847.999	-3.58
848.175	96.77
848.35	76.29
848.526	82.43
848.701	31.23
848.876	43.52
849.052	-48.64
849.227	49.66
849.403	64
849.578	-56.83
849.753	37.38
849.929	59.9
850.104	0.51
850.279	59.9
850.454	29.18
850.63	-15.87
850.805	74.24
850.98	-13.82
851.155	8.7
851.33	41.47
851.505	57.86
851.681	20.99
851.856	-42.5
852.031	-17.92
852.206	-38.4
852.381	-3.58
852.556	90.62
852.731	-30.21
852.906	53.76
853.081	-42.5
853.256	57.86
853.431	70.14
853.606	39.42
853.781	102.91
853.956	-22.02
854.131	74.24
854.305	-40.45
854.48	72.19
854.655	78.33
854.83	-7.68
855.005	82.43
855.18	-11.78
855.354	86.53
855.529	66.05
855.704	20.99
855.879	45.57
856.053	-30.21
856.228	-7.68
856.403	49.66
856.577	37.38
856.752	-36.35
856.926	-15.87
857.101	-26.11
857.276	29.18
857.45	-7.68
857.625	66.05
857.799	-50.69
857.974	-32.26
858.148	23.04
858.323	57.86
858.497	16.9
858.672	8.7
858.846	14.85
859.02	57.86
859.195	29.18
859.369	0.51
859.543	20.99
859.718	20.99
859.892	4.61
860.066	4.61
860.241	61.95
860.415	33.28
860.589	78.33
860.763	94.72
860.938	64
861.112	-28.16
861.286	-3.58
861.46	-22.02
861.634	55.81
861.808	119.29
861.982	82.43
862.157	78.33
862.331	33.28
862.505	-36.35
862.679	-15.87
862.853	51.71
863.027	-19.97
863.201	37.38
863.375	39.42
863.549	-1.54
863.722	2.56
863.896	49.66
864.07	-7.68
864.244	6.66
864.418	23.04
864.592	25.09
864.766	8.7
864.939	-7.68
865.113	-5.63
865.287	88.57
865.461	4.61
865.634	53.76
865.808	-24.06
865.982	98.81
866.156	41.47
866.329	-1.54
866.503	4.61
866.676	8.7
866.85	82.43
867.024	57.86
867.197	25.09
867.371	45.57
867.544	-15.87
867.718	2.56
867.891	-60.93
868.065	-17.92
868.238	-38.4
868.412	49.66
868.585	57.86
868.759	-32.26
868.932	25.09
869.105	-15.87
869.279	-15.87
869.452	-26.11
869.625	115.2
869.799	-1.54
869.972	-19.97
870.145	33.28
870.319	-9.73
870.492	-44.54
870.665	68.09
870.838	-9.73
871.011	-28.16
871.185	33.28
871.358	16.9
871.531	45.57
871.704	10.75
871.877	27.14
872.05	8.7
872.223	25.09
872.396	16.9
872.569	14.85
872.742	-11.78
872.915	33.28
873.088	-7.68
873.261	-22.02
873.434	45.57
873.607	70.14
873.78	25.09
873.953	-28.16
874.126	-30.21
874.299	27.14
874.471	43.52
874.644	53.76
874.817	102.91
874.99	-36.35
875.163	-48.64
875.335	-1.54
875.508	66.05
875.681	64
875.853	29.18
876.026	-28.16
876.199	14.85
876.371	12.8
876.544	-1.54
876.717	-3.58
876.889	-7.68
877.062	16.9
877.234	-48.64
877.407	-56.83
877.579	-24.06
877.752	20.99
877.924	107.01
878.097	84.48
878.269	-1.54
878.442	-30.21
878.614	37.38
878.786	37.38
878.959	-44.54
879.131	2.56
879.303	14.85
879.476	20.99
879.648	-58.88
879.82	80.38
879.993	-40.45
880.165	10.75
880.337	-71.17
880.509	-22.02
880.681	-40.45
880.854	12.8
881.026	-81.41
881.198	66.05
881.37	27.14
881.542	12.8
881.714	0.51
881.886	-1.54
882.058	41.47
882.23	-11.78
882.402	-69.12
882.574	20.99
882.746	35.33
882.918	82.43
883.09	39.42
883.262	-15.87
883.434	8.7
883.606	-40.45
883.778	-24.06
883.95	53.76
884.122	-1.54
884.293	18.94
884.465	-19.97
884.637	61.95
884.809	-11.78
884.98	8.7
885.152	39.42
885.324	88.57
885.496	-52.74
885.667	-26.11
885.839	-15.87
886.011	-15.87
886.182	-13.82
886.354	57.86
886.525	16.9
886.697	41.47
886.869	-46.59
887.04	0.51
887.212	47.62
887.383	23.04
887.555	-11.78
887.726	-81.41
887.897	-44.54
888.069	25.09
888.24	-3.58
888.412	-11.78
888.583	53.76
888.754	20.99
888.926	0.51
889.097	-9.73
889.268	-38.4
889.44	4.61
889.611	-1.54
889.782	-9.73
889.953	-52.74
890.125	-7.68
890.296	-17.92
890.467	-42.5
890.638	-69.12
890.809	12.8
890.98	-28.16
891.151	-36.35
891.323	78.33
891.494	55.81
891.665	6.66
891.836	49.66
892.007	-11.78
892.178	74.24
892.349	-28.16
892.52	35.33
892.691	18.94
892.862	-34.3
893.032	-7.68
893.203	-22.02
893.374	45.57
893.545	12.8
893.716	-17.92
893.887	43.52
894.057	20.99
894.228	41.47
894.399	8.7
894.57	100.86
894.74	-17.92
894.911	18.94
895.082	8.7
895.253	31.23
895.423	-91.65
895.594	-7.68
895.764	-1.54
895.935	33.28
896.106	111.1
896.276	59.9
896.447	-30.21
896.617	-7.68
896.788	33.28
896.958	0.51
897.129	-5.63
897.299	-7.68
897.47	16.9
897.64	43.52
897.81	-75.26
897.981	-30.21
898.151	12.8
898.322	18.94
898.492	-3.58
898.662	-38.4
898.832	-60.93
899.003	49.66
899.173	12.8
899.343	-5.63
899.513	47.62
