Data from USB4F104151__219__10-30-09-182.txt Node

Date: Wed Mar 12 10:30:09 EDT 2025
User: louis
Spectrometer: USB4F10415
Trigger mode: 4
Integration Time (sec): 3.000000E-2
Scans to average: 1
Electric dark correction enabled: true
Nonlinearity correction enabled: false
Boxcar width: 0
XAxis mode: Wavelengths
Number of Pixels in Spectrum: 3648
>>>>>Begin Spectral Data<<<<<
178.204	-127.32
178.424	-127.32
178.644	-127.32
178.864	-90.45
179.084	-166.23
179.304	-29.01
179.524	11.95
179.744	-22.87
179.964	-18.77
180.184	-6.49
180.404	54.95
180.624	-57.68
180.844	46.76
181.064	-26.96
181.283	18.09
181.503	42.67
181.723	-12.63
181.943	-12.63
182.163	7.85
182.383	-24.92
182.602	77.48
182.822	44.71
183.042	93.87
183.262	-16.73
183.482	24.23
183.701	-4.44
183.921	22.19
184.141	-24.92
184.361	65.19
184.58	54.95
184.8	75.43
185.02	13.99
185.239	-8.53
185.459	42.67
185.679	36.52
185.898	48.81
186.118	-4.44
186.338	-16.73
186.557	28.33
186.777	-33.11
186.997	97.96
187.216	-12.63
187.436	7.85
187.655	52.91
187.875	69.29
188.095	-14.68
188.314	44.71
188.534	34.47
188.753	65.19
188.973	22.19
189.192	67.24
189.412	24.23
189.631	9.9
189.851	20.14
190.07	9.9
190.29	-22.87
190.509	3.75
190.729	5.8
190.948	38.57
191.168	93.87
191.387	61.1
191.607	-0.34
191.826	63.15
192.045	-43.35
192.265	-0.34
192.484	28.33
192.704	-24.92
192.923	-12.63
193.142	46.76
193.362	1.71
193.581	44.71
193.8	3.75
194.02	-35.16
194.239	-45.4
194.458	52.91
194.678	48.81
194.897	-8.53
195.116	-45.4
195.335	-6.49
195.555	77.48
195.774	42.67
195.993	40.62
196.212	28.33
196.432	-55.64
196.651	42.67
196.87	-18.77
197.089	87.72
197.308	24.23
197.528	48.81
197.747	-63.83
197.966	18.09
198.185	67.24
198.404	36.52
198.623	16.04
198.842	-6.49
199.062	63.15
199.281	-10.58
199.5	46.76
199.719	13.99
199.938	22.19
200.157	13.99
200.376	16.04
200.595	44.71
200.814	79.53
201.033	24.23
201.252	30.38
201.471	-31.06
201.69	22.19
201.909	71.34
202.128	-4.44
202.347	54.95
202.566	7.85
202.785	-31.06
203.004	-37.2
203.223	42.67
203.442	20.14
203.661	-51.54
203.879	-29.01
204.098	-0.34
204.317	-26.96
204.536	73.39
204.755	28.33
204.974	13.99
205.193	24.23
205.411	34.47
205.63	11.95
205.849	38.57
206.068	-8.53
206.287	-10.58
206.505	5.8
206.724	-57.68
206.943	-35.16
207.162	46.76
207.381	-6.49
207.599	26.28
207.818	24.23
208.037	-20.82
208.255	-4.44
208.474	-51.54
208.693	36.52
208.911	-20.82
209.13	-35.16
209.349	7.85
209.567	-0.34
209.786	67.24
210.005	48.81
210.223	5.8
210.442	-2.39
210.661	32.43
210.879	57
211.098	7.85
211.316	-0.34
211.535	48.81
211.753	-41.3
211.972	54.95
212.191	-41.3
212.409	-6.49
212.628	-80.21
212.846	-29.01
213.065	34.47
213.283	59.05
213.502	18.09
213.72	3.75
213.938	57
214.157	-12.63
214.375	1.71
214.594	-53.59
214.812	7.85
215.031	46.76
215.249	36.52
215.467	-2.39
215.686	20.14
215.904	44.71
216.122	-18.77
216.341	81.58
216.559	-22.87
216.778	20.14
216.996	-2.39
217.214	-33.11
217.432	9.9
217.651	-0.34
217.869	32.43
218.087	-10.58
218.306	-24.92
218.524	22.19
218.742	-29.01
218.96	20.14
219.179	-2.39
219.397	-12.63
219.615	44.71
219.833	130.73
220.051	-10.58
220.27	83.63
220.488	11.95
220.706	-8.53
220.924	26.28
221.142	24.23
221.36	16.04
221.578	-6.49
221.796	26.28
222.015	-35.16
222.233	-72.02
222.451	71.34
222.669	-10.58
222.887	36.52
223.105	-41.3
223.323	38.57
223.541	-10.58
223.759	9.9
223.977	16.04
224.195	42.67
224.413	9.9
224.631	24.23
224.849	36.52
225.067	46.76
225.285	-61.78
225.503	52.91
225.721	-10.58
225.939	-6.49
226.157	30.38
226.375	143.02
226.592	28.33
226.81	28.33
227.028	-18.77
227.246	116.39
227.464	-10.58
227.682	20.14
227.9	-8.53
228.117	-4.44
228.335	-39.25
228.553	-2.39
228.771	-45.4
228.989	-2.39
229.206	7.85
229.424	5.8
229.642	13.99
229.86	-6.49
230.077	67.24
230.295	-18.77
230.513	18.09
230.731	97.96
230.948	24.23
231.166	-10.58
231.384	-33.11
231.601	16.04
231.819	-12.63
232.037	-14.68
232.254	-74.07
232.472	-24.92
232.689	-22.87
232.907	-35.16
233.125	67.24
233.342	16.04
233.56	-10.58
233.777	13.99
233.995	-16.73
234.213	1.71
234.43	46.76
234.648	9.9
234.865	-61.78
235.083	24.23
235.3	69.29
235.518	44.71
235.735	13.99
235.953	57
236.17	-14.68
236.388	-8.53
236.605	-31.06
236.822	54.95
237.04	11.95
237.257	-24.92
237.475	-41.3
237.692	26.28
237.909	3.75
238.127	-82.26
238.344	26.28
238.562	24.23
238.779	22.19
238.996	20.14
239.214	-31.06
239.431	20.14
239.648	54.95
239.865	26.28
240.083	-10.58
240.3	-8.53
240.517	22.19
240.735	28.33
240.952	-2.39
241.169	48.81
241.386	38.57
241.603	38.57
241.821	-22.87
242.038	20.14
242.255	-16.73
242.472	-26.96
242.689	-29.01
242.907	1.71
243.124	24.23
243.341	36.52
243.558	32.43
243.775	-24.92
243.992	-6.49
244.209	24.23
244.426	57
244.643	7.85
244.86	-24.92
245.078	28.33
245.295	83.63
245.512	46.76
245.729	61.1
245.946	13.99
246.163	32.43
246.38	-57.68
246.597	5.8
246.814	81.58
247.031	-41.3
247.248	26.28
247.464	16.04
247.681	36.52
247.898	46.76
248.115	30.38
248.332	-84.31
248.549	30.38
248.766	-33.11
248.983	-8.53
249.2	-12.63
249.417	-0.34
249.633	-12.63
249.85	26.28
250.067	-49.49
250.284	-35.16
250.501	59.05
250.717	116.39
250.934	-31.06
251.151	11.95
251.368	52.91
251.585	63.15
251.801	44.71
252.018	3.75
252.235	46.76
252.451	-2.39
252.668	7.85
252.885	52.91
253.102	32.43
253.318	44.71
253.535	-26.96
253.752	-26.96
253.968	-16.73
254.185	-10.58
254.401	18.09
254.618	16.04
254.835	-2.39
255.051	-10.58
255.268	7.85
255.484	136.87
255.701	52.91
255.917	13.99
256.134	-47.44
256.351	116.39
256.567	52.91
256.784	-20.82
257	-33.11
257.217	-8.53
257.433	38.57
257.65	24.23
257.866	57
258.082	48.81
258.299	7.85
258.515	-16.73
258.732	-0.34
258.948	85.67
259.165	61.1
259.381	65.19
259.597	3.75
259.814	11.95
260.03	-24.92
260.246	-8.53
260.463	7.85
260.679	73.39
260.895	-2.39
261.112	81.58
261.328	-12.63
261.544	-10.58
261.761	18.09
261.977	-12.63
262.193	18.09
262.409	61.1
262.626	-16.73
262.842	18.09
263.058	36.52
263.274	95.91
263.49	54.95
263.707	-12.63
263.923	7.85
264.139	-12.63
264.355	42.67
264.571	77.48
264.787	-39.25
265.004	46.76
265.22	-0.34
265.436	34.47
265.652	-0.34
265.868	67.24
266.084	30.38
266.3	85.67
266.516	54.95
266.732	-8.53
266.948	36.52
267.164	65.19
267.38	114.34
267.596	-6.49
267.812	77.48
268.028	85.67
268.244	-35.16
268.46	-18.77
268.676	30.38
268.892	61.1
269.108	7.85
269.324	-6.49
269.54	-29.01
269.756	95.91
269.972	-12.63
270.188	28.33
270.403	-26.96
270.619	36.52
270.835	-43.35
271.051	-53.59
271.267	-16.73
271.483	13.99
271.698	73.39
271.914	26.28
272.13	26.28
272.346	7.85
272.562	30.38
272.777	-0.34
272.993	-2.39
273.209	46.76
273.425	13.99
273.64	-0.34
273.856	1.71
274.072	-8.53
274.287	-14.68
274.503	24.23
274.719	52.91
274.934	5.8
275.15	71.34
275.366	-35.16
275.581	30.38
275.797	-45.4
276.012	24.23
276.228	-22.87
276.444	-12.63
276.659	151.21
276.875	-2.39
277.09	1.71
277.306	-43.35
277.521	75.43
277.737	93.87
277.952	11.95
278.168	24.23
278.383	52.91
278.599	40.62
278.814	-0.34
279.03	-18.77
279.245	-6.49
279.461	40.62
279.676	69.29
279.892	32.43
280.107	-69.97
280.322	-10.58
280.538	61.1
280.753	57
280.969	-6.49
281.184	83.63
281.399	32.43
281.615	30.38
281.83	-24.92
282.045	-26.96
282.26	-20.82
282.476	-55.64
282.691	52.91
282.906	44.71
283.122	3.75
283.337	-0.34
283.552	28.33
283.767	34.47
283.983	38.57
284.198	-0.34
284.413	3.75
284.628	-57.68
284.843	102.06
285.058	11.95
285.274	16.04
285.489	32.43
285.704	81.58
285.919	40.62
286.134	22.19
286.349	48.81
286.564	52.91
286.779	24.23
286.995	44.71
287.21	-18.77
287.425	-18.77
287.64	28.33
287.855	11.95
288.07	-49.49
288.285	5.8
288.5	44.71
288.715	7.85
288.93	16.04
289.145	32.43
289.36	40.62
289.575	-16.73
289.79	50.86
290.004	44.71
290.219	-29.01
290.434	5.8
290.649	-41.3
290.864	93.87
291.079	59.05
291.294	106.15
291.509	-0.34
291.724	-16.73
291.938	22.19
292.153	11.95
292.368	40.62
292.583	65.19
292.798	50.86
293.012	-24.92
293.227	24.23
293.442	-8.53
293.657	-0.34
293.871	102.06
294.086	-4.44
294.301	114.34
294.516	87.72
294.73	46.76
294.945	-2.39
295.16	-49.49
295.374	136.87
295.589	50.86
295.804	-10.58
296.018	-24.92
296.233	30.38
296.447	106.15
296.662	-8.53
296.877	1.71
297.091	18.09
297.306	85.67
297.52	-0.34
297.735	-4.44
297.949	30.38
298.164	65.19
298.378	-14.68
298.593	-10.58
298.807	-16.73
299.022	11.95
299.236	114.34
299.451	-24.92
299.665	95.91
299.88	-20.82
300.094	79.53
300.309	79.53
300.523	9.9
300.737	59.05
300.952	-90.45
301.166	77.48
301.381	3.75
301.595	-33.11
301.809	46.76
302.024	-12.63
302.238	-35.16
302.452	40.62
302.667	36.52
302.881	42.67
303.095	20.14
303.309	-2.39
303.524	-55.64
303.738	44.71
303.952	-16.73
304.166	40.62
304.381	-37.2
304.595	-35.16
304.809	57
305.023	16.04
305.237	-14.68
305.452	40.62
305.666	118.44
305.88	16.04
306.094	5.8
306.308	63.15
306.522	5.8
306.736	-14.68
306.95	57
307.164	79.53
307.379	40.62
307.593	106.15
307.807	16.04
308.021	5.8
308.235	11.95
308.449	-18.77
308.663	-22.87
308.877	69.29
309.091	36.52
309.305	9.9
309.519	-6.49
309.733	26.28
309.947	-0.34
310.161	-2.39
310.374	20.14
310.588	85.67
310.802	-6.49
311.016	-0.34
311.23	7.85
311.444	36.52
311.658	38.57
311.872	75.43
312.085	-2.39
312.299	79.53
312.513	11.95
312.727	44.71
312.941	-43.35
313.154	-18.77
313.368	77.48
313.582	81.58
313.796	13.99
314.009	20.14
314.223	69.29
314.437	-53.59
314.651	38.57
314.864	-8.53
315.078	54.95
315.292	-47.44
315.505	34.47
315.719	61.1
315.933	11.95
316.146	-82.26
316.36	46.76
316.573	71.34
316.787	16.04
317.001	-0.34
317.214	9.9
317.428	44.71
317.641	-41.3
317.855	40.62
318.068	-14.68
318.282	-14.68
318.495	38.57
318.709	46.76
318.922	13.99
319.136	81.58
319.349	11.95
319.563	-20.82
319.776	38.57
319.99	50.86
320.203	44.71
320.417	-2.39
320.63	65.19
320.843	44.71
321.057	24.23
321.27	22.19
321.483	-18.77
321.697	34.47
321.91	48.81
322.124	-29.01
322.337	-24.92
322.55	-18.77
322.763	-8.53
322.977	28.33
323.19	13.99
323.403	28.33
323.617	-4.44
323.83	-0.34
324.043	16.04
324.256	30.38
324.469	16.04
324.683	-35.16
324.896	30.38
325.109	-6.49
325.322	-41.3
325.535	102.06
325.748	32.43
325.962	32.43
326.175	93.87
326.388	77.48
326.601	85.67
326.814	3.75
327.027	-22.87
327.24	63.15
327.453	-39.25
327.666	3.75
327.879	73.39
328.092	13.99
328.305	-22.87
328.518	16.04
328.731	7.85
328.944	28.33
329.157	20.14
329.37	20.14
329.583	-20.82
329.796	126.63
330.009	112.3
330.222	46.76
330.435	54.95
330.648	-20.82
330.861	40.62
331.073	61.1
331.286	11.95
331.499	75.43
331.712	48.81
331.925	24.23
332.138	32.43
332.35	34.47
332.563	32.43
332.776	32.43
332.989	36.52
333.202	36.52
333.414	-12.63
333.627	73.39
333.84	11.95
334.053	30.38
334.265	71.34
334.478	13.99
334.691	13.99
334.903	40.62
335.116	85.67
335.329	48.81
335.541	3.75
335.754	3.75
335.966	11.95
336.179	26.28
336.392	-29.01
336.604	-41.3
336.817	30.38
337.029	24.23
337.242	59.05
337.454	40.62
337.667	7.85
337.88	59.05
338.092	85.67
338.305	40.62
338.517	32.43
338.729	-0.34
338.942	106.15
339.154	9.9
339.367	32.43
339.579	26.28
339.792	9.9
340.004	63.15
340.217	-0.34
340.429	30.38
340.641	-20.82
340.854	34.47
341.066	-8.53
341.278	13.99
341.491	1.71
341.703	34.47
341.915	24.23
342.128	42.67
342.34	16.04
342.552	-14.68
342.764	-24.92
342.977	52.91
343.189	-20.82
343.401	32.43
343.613	-22.87
343.826	61.1
344.038	-47.44
344.25	-10.58
344.462	18.09
344.674	30.38
344.886	42.67
345.099	48.81
345.311	85.67
345.523	44.71
345.735	-4.44
345.947	16.04
346.159	16.04
346.371	59.05
346.583	52.91
346.795	67.24
347.007	-12.63
347.219	97.96
347.431	-12.63
347.643	32.43
347.855	-0.34
348.067	89.77
348.279	30.38
348.491	-2.39
348.703	5.8
348.915	-12.63
349.127	13.99
349.339	-2.39
349.551	-16.73
349.763	83.63
349.975	30.38
350.187	79.53
350.399	65.19
350.61	71.34
350.822	85.67
351.034	42.67
351.246	22.19
351.458	-4.44
351.669	26.28
351.881	3.75
352.093	11.95
352.305	-2.39
352.517	-26.96
352.728	118.44
352.94	22.19
353.152	116.39
353.363	59.05
353.575	97.96
353.787	-51.54
353.999	22.19
354.21	61.1
354.422	24.23
354.633	79.53
354.845	-45.4
355.057	-10.58
355.268	3.75
355.48	54.95
355.692	7.85
355.903	44.71
356.115	5.8
356.326	-8.53
356.538	89.77
356.749	16.04
356.961	-0.34
357.172	38.57
357.384	40.62
357.595	52.91
357.807	24.23
358.018	-41.3
358.23	42.67
358.441	179.88
358.653	30.38
358.864	18.09
359.075	28.33
359.287	100.01
359.498	30.38
359.709	48.81
359.921	3.75
360.132	57
360.344	89.77
360.555	34.47
360.766	-14.68
360.977	32.43
361.189	-24.92
361.4	32.43
361.611	40.62
361.823	-49.49
362.034	11.95
362.245	-51.54
362.456	52.91
362.667	48.81
362.879	40.62
363.09	32.43
363.301	79.53
363.512	81.58
363.723	9.9
363.935	34.47
364.146	126.63
364.357	65.19
364.568	48.81
364.779	-57.68
364.99	-0.34
365.201	54.95
365.412	36.52
365.623	79.53
365.834	65.19
366.045	52.91
366.256	85.67
366.467	-31.06
366.678	36.52
366.889	5.8
367.1	20.14
367.311	134.82
367.522	-39.25
367.733	38.57
367.944	97.96
368.155	50.86
368.366	63.15
368.577	112.3
368.788	69.29
368.999	24.23
369.209	44.71
369.42	106.15
369.631	63.15
369.842	40.62
370.053	44.71
370.264	61.1
370.474	24.23
370.685	48.81
370.896	22.19
371.107	16.04
371.317	81.58
371.528	-0.34
371.739	36.52
371.95	69.29
372.16	83.63
372.371	24.23
372.582	46.76
372.792	-4.44
373.003	114.34
373.214	32.43
373.424	30.38
373.635	32.43
373.846	73.39
374.056	48.81
374.267	100.01
374.477	112.3
374.688	-45.4
374.898	18.09
375.109	75.43
375.319	42.67
375.53	40.62
375.74	63.15
375.951	11.95
376.161	11.95
376.372	128.68
376.582	36.52
376.793	36.52
377.003	-37.2
377.214	48.81
377.424	30.38
377.635	59.05
377.845	20.14
378.055	104.11
378.266	24.23
378.476	34.47
378.686	30.38
378.897	32.43
379.107	81.58
379.317	50.86
379.528	13.99
379.738	48.81
379.948	40.62
380.158	116.39
380.369	-45.4
380.579	54.95
380.789	32.43
380.999	16.04
381.21	22.19
381.42	128.68
381.63	75.43
381.84	75.43
382.05	69.29
382.261	85.67
382.471	67.24
382.681	24.23
382.891	57
383.101	73.39
383.311	57
383.521	71.34
383.731	73.39
383.941	93.87
384.151	-0.34
384.361	38.57
384.571	28.33
384.781	26.28
384.991	54.95
385.201	46.76
385.411	40.62
385.621	75.43
385.831	46.76
386.041	34.47
386.251	122.54
386.461	65.19
386.671	26.28
386.881	73.39
387.091	93.87
387.301	46.76
387.511	57
387.72	-8.53
387.93	102.06
388.14	46.76
388.35	130.73
388.56	112.3
388.769	106.15
388.979	11.95
389.189	20.14
389.399	-10.58
389.609	38.57
389.818	71.34
390.028	24.23
390.238	26.28
390.447	83.63
390.657	40.62
390.867	79.53
391.076	40.62
391.286	65.19
391.496	48.81
391.705	30.38
391.915	159.4
392.125	77.48
392.334	73.39
392.544	106.15
392.753	97.96
392.963	95.91
393.172	130.73
393.382	102.06
393.591	140.97
393.801	73.39
394.01	34.47
394.22	38.57
394.429	30.38
394.639	11.95
394.848	73.39
395.058	61.1
395.267	-20.82
395.477	20.14
395.686	30.38
395.895	132.78
396.105	100.01
396.314	138.92
396.524	50.86
396.733	61.1
396.942	114.34
397.152	102.06
397.361	48.81
397.57	73.39
397.78	69.29
397.989	151.21
398.198	75.43
398.407	155.3
398.617	120.49
398.826	120.49
399.035	42.67
399.244	102.06
399.453	73.39
399.663	100.01
399.872	134.82
400.081	54.95
400.29	89.77
400.499	44.71
400.708	143.02
400.917	79.53
401.127	155.3
401.336	91.82
401.545	179.88
401.754	116.39
401.963	143.02
402.172	134.82
402.381	81.58
402.59	102.06
402.799	28.33
403.008	104.11
403.217	149.16
403.426	200.36
403.635	83.63
403.844	106.15
404.053	124.58
404.262	28.33
404.471	206.5
404.68	130.73
404.888	114.34
405.097	89.77
405.306	167.59
405.515	206.5
405.724	122.54
405.933	161.45
406.142	124.58
406.35	138.92
406.559	159.4
406.768	226.98
406.977	167.59
407.185	229.03
407.394	255.65
407.603	204.46
407.812	212.65
408.02	194.22
408.229	235.18
408.438	212.65
408.646	249.51
408.855	255.65
409.064	251.56
409.272	278.18
409.481	296.61
409.69	278.18
409.898	267.94
410.107	290.47
410.315	358.05
410.524	290.47
410.733	409.25
410.941	390.82
411.15	370.34
411.358	335.53
411.567	456.36
411.775	394.92
411.984	360.1
412.192	446.12
412.401	464.55
412.609	499.36
412.818	489.12
413.026	538.27
413.234	511.65
413.443	538.27
413.651	530.08
413.86	589.47
414.068	597.67
414.276	622.24
414.485	679.58
414.693	683.68
414.901	675.49
415.11	685.73
415.318	745.12
415.526	790.17
415.734	827.04
415.943	833.18
416.151	837.28
416.359	892.57
416.567	933.53
416.776	980.64
416.984	1005.21
417.192	1007.26
417.4	1019.55
417.608	1015.45
417.817	1107.61
418.025	1181.34
418.233	1248.92
418.441	1187.48
418.649	1253.02
418.857	1347.22
419.065	1334.93
419.273	1373.85
419.481	1351.32
419.689	1425.04
419.897	1564.31
420.105	1621.65
420.313	1603.22
420.521	1709.71
420.729	1740.43
420.937	1889.93
421.145	1838.73
421.353	2025.1
421.561	1951.37
421.769	2104.97
421.977	2121.35
422.185	2170.51
422.393	2254.47
422.601	2440.84
422.809	2403.97
423.017	2518.66
423.224	2551.43
423.432	2674.31
423.64	2623.11
423.848	2883.2
424.056	2834.05
424.263	3022.46
424.471	3133.05
424.679	3067.52
424.887	3294.84
425.094	3358.33
425.302	3501.69
425.51	3423.86
425.718	3579.51
425.925	3751.54
426.133	3720.82
426.341	3962.48
426.548	4181.61
426.756	4054.64
426.964	4243.05
427.171	4544.1
427.379	4439.65
427.586	4626.02
427.794	4767.33
428.001	4929.12
428.209	5115.48
428.417	5043.81
428.624	5531.22
428.832	5621.33
429.039	5523.03
429.247	5484.12
429.454	5987.92
429.662	6286.92
429.869	6045.26
430.076	6368.84
430.284	6284.87
430.491	6491.72
430.699	6907.46
430.906	6835.78
431.114	6999.62
431.321	7069.25
431.528	7265.85
431.736	7667.25
431.943	8148.53
432.15	7884.34
432.358	8037.94
432.565	8343.08
432.772	8472.11
432.979	8863.27
433.187	8877.6
433.394	9014.82
433.601	9557.53
433.808	9664.02
434.016	9530.91
434.223	10073.62
434.43	10761.73
434.637	10470.92
434.844	10964.48
435.052	11245.06
435.259	11038.21
435.466	11025.92
435.673	11105.79
435.88	11931.12
436.087	12563.95
436.294	12602.86
436.501	12201.46
436.708	12328.43
436.915	12977.64
437.122	13524.44
437.329	13442.53
437.537	13686.23
437.743	14040.53
437.95	13721.05
438.157	14536.14
438.364	15211.97
438.571	15234.5
438.778	15324.61
438.985	16764.33
439.192	15869.37
439.399	16543.15
439.606	15967.67
439.813	17157.54
440.02	17943.96
440.227	17673.63
440.433	17276.32
440.64	18425.23
440.847	18257.3
441.054	18619.79
441.261	19750.27
441.467	19506.56
441.674	19678.59
441.881	20288.89
442.088	20350.32
442.294	20223.35
442.501	20753.77
442.708	21089.64
442.914	21831.01
443.121	22857.04
443.328	21964.12
443.534	23733.57
443.741	23440.71
443.948	23061.83
444.154	24538.42
444.361	24257.85
444.568	24753.46
444.774	24337.72
444.981	24823.09
445.187	25353.51
445.394	26600.72
445.6	26217.75
445.807	28572.92
446.013	27954.43
446.22	27874.56
446.426	29080.81
446.633	29738.21
446.839	30096.61
447.046	29027.57
447.252	30428.38
447.459	30799.06
447.665	30196.96
447.871	31556.81
448.078	33012.91
448.284	31507.66
448.491	32265.41
448.697	34026.66
448.903	34428.06
449.11	34452.64
449.316	33797.29
449.522	34176.16
449.728	35247.25
449.935	35300.5
450.141	35331.22
450.347	36385.92
450.553	35185.81
450.76	35347.6
450.966	36414.59
451.172	36146.31
451.378	36881.53
451.584	36762.75
451.791	36979.83
451.997	37061.75
452.203	37575.79
452.409	37454.96
452.615	36959.35
452.821	35929.22
453.027	35658.89
453.233	37395.57
453.44	35873.93
453.646	36375.68
453.852	36367.49
454.058	36707.45
454.264	35677.32
454.47	36543.61
454.676	35812.49
454.882	36824.18
455.088	33957.03
455.294	34256.03
455.5	34503.84
455.705	34964.63
455.911	33780.9
456.117	33014.96
456.323	32455.87
456.529	30584.02
456.735	32083.14
456.941	30993.62
457.147	30702.81
457.352	29803.75
457.558	29273.32
457.764	29623.53
457.97	28683.51
458.176	28194.04
458.381	28024.06
458.587	26785.04
458.793	26737.94
458.999	25500.97
459.204	27129.1
459.41	26588.44
459.616	24933.68
459.821	24737.07
460.027	24919.34
460.233	23842.11
460.438	22912.33
460.644	23192.9
460.85	22097.24
461.055	22093.15
461.261	21943.64
461.466	20319.6
461.672	19654.01
461.878	20872.56
462.083	19768.7
462.289	19092.87
462.494	19060.1
462.7	18386.32
462.905	17409.44
463.111	18292.12
463.316	18126.23
463.522	18111.89
463.727	18007.45
463.932	17964.44
464.138	17784.22
464.343	17968.54
464.549	17399.2
464.754	18081.17
464.959	17778.08
465.165	17636.77
465.37	16946.6
465.575	16604.59
465.781	17038.76
465.986	17474.98
466.191	16537.01
466.397	16373.17
466.602	15474.11
466.807	16045.49
467.012	16266.67
467.218	15959.48
467.423	15934.9
467.628	15891.9
467.833	16706.99
468.038	15922.62
468.244	15510.97
468.449	16166.32
468.654	15766.97
468.859	15508.93
469.064	15402.43
469.269	14859.72
469.474	14790.09
469.679	15171.01
469.885	14476.75
470.09	14964.17
470.295	14644.68
470.5	14552.52
470.705	14599.63
470.91	14255.57
471.115	13929.94
471.32	14224.85
471.525	14216.66
471.73	13766.1
471.935	13952.47
472.139	13534.68
472.344	13221.34
472.549	13532.64
472.754	13274.59
472.959	13170.15
473.164	12951.01
473.369	12742.12
473.574	13110.75
473.778	12787.18
473.983	12615.15
474.188	12711.4
474.393	12217.84
474.598	12002.8
474.802	12058.1
475.007	12209.65
475.212	12123.63
475.417	11523.58
475.621	11496.96
475.826	11746.81
476.031	11513.34
476.235	11197.95
476.44	11402.75
476.645	11050.5
476.849	11120.13
477.054	10995.2
477.259	10925.57
477.463	10845.7
477.668	10350.09
477.872	10638.86
478.077	10540.55
478.282	10487.31
478.486	10116.62
478.691	10057.23
478.895	10356.24
479.1	9891.35
479.304	10065.43
479.509	9680.41
479.713	10018.32
479.918	9879.06
480.122	9713.17
480.326	9713.17
480.531	9709.08
480.735	9793.05
480.94	9612.82
481.144	9811.48
481.348	9448.99
481.553	9610.78
481.757	9203.23
481.961	9516.57
482.166	9491.99
482.37	9557.53
482.574	9137.7
482.778	9434.65
482.983	9551.38
483.187	9356.83
483.391	9690.65
483.595	9293.34
483.8	9301.53
484.004	9268.77
484.208	9588.25
484.412	9397.79
484.616	9428.51
484.821	9211.42
485.025	9162.27
485.229	9506.33
485.433	9453.08
485.637	9322.01
485.841	9240.09
486.045	9164.32
486.249	9266.72
486.453	9285.15
486.657	9436.7
486.861	9358.88
487.065	9197.09
487.269	9465.37
487.473	9049.63
487.677	9457.18
487.881	9514.52
488.085	9291.29
488.289	9588.25
488.493	9297.44
488.697	9573.91
488.901	9303.58
489.105	9512.47
489.309	9348.64
489.512	9438.75
489.716	9303.58
489.92	9524.76
490.124	9573.91
490.328	9778.71
490.531	9381.4
490.735	9770.52
490.939	9629.21
491.143	9502.23
491.346	9535
491.55	9750.04
491.754	9813.52
491.958	9838.1
492.161	9770.52
492.365	9854.48
492.569	9690.65
492.772	10073.62
492.976	10049.04
493.18	9874.96
493.383	10253.84
493.587	10165.78
493.79	10423.82
493.994	10225.17
494.197	10186.26
494.401	10593.8
494.605	10472.97
494.808	10448.4
495.012	10546.7
495.215	10620.42
495.419	10851.85
495.622	10765.83
495.825	10837.51
496.029	10864.13
496.232	11154.94
496.436	11173.38
496.639	11326.97
496.843	11343.36
497.046	11724.28
497.249	11775.48
497.453	11802.1
497.656	11927.03
497.859	11808.25
498.063	12115.44
498.266	12391.92
498.469	12215.79
498.673	12445.16
498.876	12494.32
499.079	12844.52
499.282	12652.01
499.485	13092.32
499.689	13028.84
499.892	13168.1
500.095	13327.84
500.298	13764.06
500.501	13678.04
500.705	13866.46
500.908	14171.6
501.111	14187.99
501.314	14411.21
501.517	14466.51
501.72	14505.42
501.923	14704.07
502.126	15123.91
502.329	15115.72
502.532	15168.96
502.735	15228.35
502.938	16006.58
503.141	15900.09
503.344	15750.59
503.547	15910.33
503.75	16217.52
503.953	16442.8
504.156	16541.1
504.359	16858.54
504.562	16823.72
504.765	17059.24
504.968	17223.08
505.17	17751.45
505.373	17692.06
505.576	18052.5
505.779	17923.48
505.982	18066.84
506.185	18679.18
506.387	18548.11
506.59	18810.25
506.793	19133.83
506.996	19029.38
507.198	19746.17
507.401	19496.32
507.604	19670.4
507.807	20364.66
508.009	20327.8
508.212	20446.58
508.415	20751.73
508.617	21001.58
508.82	20925.8
509.022	21032.3
509.225	21607.78
509.428	21736.8
509.63	22099.29
509.833	21933.4
510.035	22635.86
510.238	22449.49
510.44	22918.48
510.643	23199.05
510.845	23176.52
511.048	23317.83
511.25	23790.91
511.453	24053.05
511.655	24735.03
511.858	24261.94
512.06	24741.17
512.262	24954.16
512.465	24976.69
512.667	25490.73
512.87	25603.36
513.072	25793.83
513.274	26483.99
513.477	26414.36
513.679	26512.66
513.881	26750.23
514.084	27034.89
514.286	27565.32
514.488	27464.97
514.69	28065.02
514.893	28321.02
515.095	28364.03
515.297	28509.43
515.499	28908.79
515.701	29150.45
515.904	29459.69
516.106	29803.75
516.308	30307.55
516.51	30362.84
516.712	30125.28
516.914	30641.37
517.116	31427.79
517.318	31343.82
517.52	31962.31
517.722	31780.04
517.925	32152.77
518.127	32656.57
518.329	32842.93
518.531	32666.81
518.733	33111.22
518.935	33922.21
519.136	33617.07
519.338	34264.22
519.54	34004.13
519.742	34708.63
519.944	35097.75
520.146	35194
520.348	35603.6
520.55	35910.79
520.752	36066.44
520.954	36693.11
521.155	36437.12
521.357	36992.12
521.559	37387.38
521.761	37979.24
521.963	37166.2
522.164	38100.07
522.366	38126.69
522.568	38528.09
522.77	38880.35
522.971	39322.71
523.173	39232.6
523.375	39670.86
523.576	39586.89
523.778	39844.94
523.98	40369.22
524.181	40346.69
524.383	40610.88
524.584	40870.97
524.786	41141.3
524.988	40963.13
525.189	41116.73
525.391	41681.97
525.592	42200.1
525.794	42361.89
525.995	42099.75
526.197	42452
526.398	42578.98
526.6	42710.05
526.801	43265.05
527.003	43707.41
527.204	43070.49
527.406	43721.74
527.607	43609.11
527.808	44112.91
528.01	43215.9
528.211	43631.63
528.412	44862.46
528.614	44622.85
528.815	44805.12
529.016	45140.99
529.218	44487.68
529.419	45063.16
529.62	44825.6
529.822	45083.64
530.023	44962.81
530.224	45360.12
530.425	45427.7
530.626	44983.29
530.828	45071.35
531.029	46121.96
531.23	45671.41
531.431	45499.38
531.632	46334.95
531.833	45994.99
532.035	45786.1
532.236	46076.91
532.437	46359.53
532.638	45704.18
532.839	46476.26
533.04	46603.24
533.241	45892.59
533.442	46924.77
533.643	46453.73
533.844	46517.22
534.045	46486.5
534.246	46042.09
534.447	47002.59
534.648	46644.19
534.849	46877.66
535.05	46253.03
535.251	46793.7
535.451	46711.78
535.652	47029.21
535.853	46965.73
536.054	46820.32
536.255	47207.39
536.456	46611.43
536.657	47621.08
536.857	46914.53
537.058	46648.29
537.259	47162.33
537.46	47047.64
537.66	47025.12
537.861	46861.28
538.062	47092.7
538.263	46855.14
538.463	46984.16
538.664	47068.12
538.865	47033.31
539.065	47143.9
539.266	46568.42
539.466	47393.75
539.667	46713.83
539.868	47315.93
540.068	46892
540.269	46599.14
540.469	46965.73
540.67	46783.46
540.87	46971.87
541.071	47160.28
541.271	47018.97
541.472	46848.99
541.672	46498.79
541.873	46986.21
542.073	46531.56
542.274	46953.44
542.474	47188.95
542.675	46429.16
542.875	47459.29
543.075	46883.81
543.276	46351.34
543.476	46908.38
543.676	47139.8
543.877	47125.47
544.077	46654.43
544.277	46699.49
544.478	46636
544.678	47248.35
544.878	46566.37
545.078	47137.76
545.279	46377.96
545.479	46382.05
545.679	46920.67
545.879	47000.54
546.079	46916.57
546.28	46343.14
546.48	45665.27
546.68	46619.62
546.88	46881.76
547.08	46506.98
547.28	46918.62
547.48	46470.12
547.68	46568.42
547.88	46224.36
548.081	46638.05
548.281	46662.63
548.481	46390.25
548.681	46988.25
548.881	46498.79
549.081	46167.02
549.28	46052.33
549.48	46902.24
549.68	46347.24
549.88	47301.59
550.08	46191.59
550.28	46699.49
550.48	46056.43
550.68	47008.73
550.88	46060.52
551.08	46314.47
551.279	46330.86
551.479	46207.98
551.679	46318.57
551.879	46457.83
552.079	46359.53
552.278	46287.85
552.478	46423.01
552.678	46195.69
552.878	46654.43
553.077	45939.69
553.277	46224.36
553.477	46818.27
553.676	45884.4
553.876	46044.14
554.076	45650.93
554.275	46093.29
554.475	45155.32
554.674	45796.34
554.874	45923.31
555.074	46074.86
555.273	45685.75
555.473	45960.17
555.672	45464.56
555.872	45450.23
556.071	45702.13
556.271	45730.8
556.47	45335.54
556.67	45059.07
556.869	45218.81
557.068	45722.61
557.268	44868.61
557.467	45263.86
557.667	45530.1
557.866	45057.02
558.065	45112.31
558.265	44874.75
558.464	44545.03
558.663	44704.77
558.863	44227.59
559.062	45319.16
559.261	44631.04
559.461	44930.05
559.66	44303.37
559.859	44663.81
560.058	44160.01
560.258	44416
560.457	44235.78
560.656	44352.52
560.855	44082.19
561.054	44182.54
561.253	43461.65
561.453	44147.72
561.652	44057.61
561.851	44221.45
562.05	43568.15
562.249	43688.98
562.448	43688.98
562.647	43416.6
562.846	43379.73
563.045	43131.93
563.244	42970.14
563.443	43414.55
563.642	42476.58
563.841	43111.45
564.04	42765.34
564.239	42990.62
564.438	42667.04
564.637	43215.9
564.836	42755.1
565.035	42048.55
565.234	42650.66
565.432	42335.27
565.631	42071.08
565.83	42513.44
566.029	42259.49
566.228	41616.43
566.427	41770.03
566.625	41368.63
566.824	40936.51
567.023	41708.59
567.222	41077.82
567.42	41813.04
567.619	40913.98
567.818	40825.92
568.016	40614.97
568.215	41165.88
568.414	40477.76
568.612	40956.99
568.811	40404.03
569.01	40662.08
569.208	39892.04
569.407	40363.07
569.605	39724.11
569.804	40189
570.002	39877.71
570.201	39779.4
570.4	39670.86
570.598	39634
570.797	39134.29
570.995	39605.33
571.193	39330.9
571.392	39513.17
571.59	38986.84
571.789	38904.92
571.987	39060.57
572.186	38804.57
572.384	38347.87
572.582	38970.46
572.781	38691.93
572.979	38036.58
573.177	38603.87
573.376	38052.97
573.574	37930.09
573.772	38071.4
573.971	37618.8
574.169	38014.05
574.367	37708.91
574.565	37872.74
574.763	37311.6
574.962	37391.47
575.16	37284.98
575.358	37082.23
575.556	36856.95
575.754	37385.33
575.952	36764.79
576.151	36869.24
576.349	36473.98
576.547	36897.91
576.745	36230.27
576.943	36260.99
577.141	36222.08
577.339	36129.92
577.537	36121.73
577.735	35832.97
577.933	35740.81
578.131	35818.63
578.329	35564.68
578.527	35282.06
578.725	35308.69
578.923	35728.52
579.121	35210.39
579.319	35042.45
579.516	35263.63
579.714	35038.36
579.912	34829.46
580.11	34946.2
580.308	34833.56
580.506	34815.13
580.704	34161.83
580.901	34292.9
581.099	34679.96
581.297	34096.29
581.495	33797.29
581.692	34159.78
581.89	34000.04
582.088	34249.89
582.285	33535.15
582.483	34165.92
582.681	33780.9
582.878	33658.03
583.076	33477.8
583.274	33440.94
583.471	32838.84
583.669	33217.71
583.866	33121.46
584.064	33180.85
584.262	32765.11
584.459	32965.81
584.657	32597.18
584.854	32761.01
585.052	32437.44
585.249	32701.62
585.447	32892.08
585.644	32015.55
585.841	32023.75
586.039	32101.57
586.236	31884.48
586.434	31681.74
586.631	31532.23
586.828	31775.94
587.026	31593.67
587.223	31163.6
587.42	31358.16
587.618	31306.96
587.815	31345.87
588.012	31157.46
588.21	30735.57
588.407	31128.78
588.604	30680.28
588.801	30940.37
588.999	30708.95
589.196	30330.08
589.393	30784.72
589.59	30436.57
589.787	30418.14
589.984	30160.09
590.182	30045.41
590.379	30022.88
590.576	29875.43
590.773	30024.93
590.97	29531.37
591.167	29938.91
591.364	29711.59
591.561	29537.51
591.758	29058.29
591.955	29455.59
592.152	29437.16
592.349	29312.24
592.546	29254.89
592.743	29254.89
592.94	28656.89
593.137	29082.86
593.334	29021.42
593.531	28187.9
593.727	28749.04
593.924	28744.95
594.121	28259.58
594.318	28491
594.515	28112.13
594.712	28542.2
594.908	27774.21
595.105	28183.8
595.302	27755.78
595.499	28118.27
595.696	27741.44
595.892	27485.45
596.089	27854.08
596.286	27458.82
596.482	27450.63
596.679	27444.49
596.876	27311.37
597.072	27096.33
597.269	27274.51
597.466	27000.08
597.662	27030.8
597.859	27010.32
598.055	26897.68
598.252	26651.92
598.448	26666.26
598.645	26459.41
598.841	26373.4
599.038	26121.5
599.234	26395.93
599.431	26477.85
599.627	26025.25
599.824	26111.26
600.02	26164.51
600.217	26180.89
600.413	25937.18
600.609	25808.16
600.806	25414.95
601.002	25787.68
601.198	25593.12
601.395	25320.74
601.591	25398.57
601.787	25361.7
601.984	24933.68
602.18	25171.24
602.376	25175.34
602.572	24954.16
602.769	25134.38
602.965	24608.05
603.161	24972.59
603.357	24659.25
603.553	24517.94
603.75	24571.19
603.946	24225.08
604.142	24835.38
604.338	24307
604.534	24075.58
604.73	24225.08
604.926	23987.52
605.122	24046.91
605.318	23778.62
605.514	24087.87
605.71	23475.52
605.906	23940.41
606.102	23766.34
606.298	23700.8
606.494	23637.31
606.69	23665.99
606.886	23942.46
607.082	23280.97
607.278	23584.07
607.474	23178.57
607.67	23207.24
607.866	22990.16
608.062	23366.98
608.257	22936.91
608.453	23194.95
608.649	23153.99
608.845	22703.44
609.041	22752.59
609.236	22789.45
609.432	22488.4
609.628	22701.39
609.824	22633.81
610.019	22584.66
610.215	22525.27
610.411	22658.38
610.606	22363.48
610.802	22623.57
610.998	22205.78
611.193	22265.17
611.389	22152.54
611.584	22007.13
611.78	21847.39
611.976	21757.28
612.171	21910.88
612.367	21742.94
612.562	22062.43
612.758	21499.23
612.953	21540.19
613.149	21808.48
613.344	21450.08
613.539	22029.66
613.735	21460.32
613.93	21632.35
614.126	21405.03
614.321	21714.27
614.517	21394.79
614.712	21421.41
614.907	21306.73
615.103	21280.1
615.298	20856.17
615.493	21374.31
615.688	21032.3
615.884	21437.8
616.079	21065.07
616.274	21093.74
616.47	20890.99
616.665	21124.46
616.86	20888.94
617.055	20618.61
617.25	20704.62
617.445	20835.69
617.641	20354.42
617.836	20655.47
618.031	20399.48
618.226	20821.36
618.421	20237.69
618.616	20454.77
618.811	20235.64
619.006	20553.07
619.201	19848.57
619.396	20211.06
619.591	19819.9
619.786	19899.77
619.981	19504.51
620.176	19971.45
620.371	19635.58
620.566	19758.46
620.761	19516.8
620.956	19568
621.151	19254.66
621.346	19219.85
621.541	19080.58
621.735	19271.04
621.93	18718.09
622.125	18824.59
622.32	18412.95
622.515	18718.09
622.709	18771.34
622.904	18410.9
623.099	18331.03
623.294	18400.66
623.488	18191.77
623.683	18077.08
623.878	17761.69
624.072	18097.56
624.267	17927.58
624.462	17835.42
624.656	17558.94
624.851	17808.79
625.046	17415.58
625.24	17479.07
625.435	17423.78
625.629	17317.28
625.824	17157.54
626.018	17116.58
626.213	16604.59
626.407	16975.27
626.602	16639.4
626.796	16805.29
626.991	16778.67
627.185	16432.56
627.38	16600.49
627.574	16465.33
627.768	16217.52
627.963	16250.29
628.157	15771.07
628.352	16289.2
628.546	15625.66
628.74	15924.66
628.935	15975.86
629.129	15590.84
629.323	15596.99
629.517	15478.21
629.712	15379.9
629.906	15617.47
630.1	15273.41
630.294	15216.07
630.489	15060.42
630.683	15052.23
630.877	14702.03
631.071	14775.75
631.265	14820.81
631.459	14757.32
631.653	14425.55
631.848	14454.22
632.042	14443.98
632.236	14734.79
632.43	14190.03
632.624	14394.83
632.818	14269.9
633.012	14210.51
633.206	14167.51
633.4	14128.6
633.594	13725.15
633.788	13788.63
633.982	13921.75
634.176	13641.18
634.369	13841.88
634.563	13598.17
634.757	13536.73
634.951	13344.22
635.145	13360.61
635.339	13534.68
635.533	13229.54
635.726	13227.49
635.92	13018.6
636.114	12991.97
636.308	12660.2
636.501	12895.72
636.695	12987.88
636.889	12697.06
637.083	12731.88
637.276	12701.16
637.47	12447.21
637.664	12664.3
637.857	12531.18
638.051	12508.65
638.244	12275.18
638.438	11877.88
638.632	12062.19
638.825	12103.15
639.019	11965.94
639.212	12111.35
639.406	12013.04
639.599	11984.37
639.793	11914.74
639.986	11750.9
640.18	11611.64
640.373	11580.92
640.567	11394.56
640.76	11539.96
640.954	11222.53
641.147	11318.78
641.34	11163.14
641.534	11431.42
641.727	11200
641.92	10935.81
642.114	10901
642.307	11073.03
642.5	11107.84
642.694	10790.41
642.887	10698.25
643.08	11042.31
643.273	10556.94
643.467	10692.1
643.66	10536.46
643.853	10700.3
644.046	10229.26
644.239	10245.65
644.432	10358.28
644.626	10323.47
644.819	10167.82
645.012	10343.95
645.205	10237.45
645.398	10108.43
645.591	9862.68
645.784	10073.62
645.977	9967.12
646.17	9897.49
646.363	9977.36
646.556	9713.17
646.749	9678.36
646.942	9877.01
647.135	9588.25
647.328	9408.03
647.521	9569.82
647.714	9285.15
647.907	9403.93
648.099	9229.85
648.292	9313.82
648.485	9369.12
648.678	9215.52
648.871	9281.05
649.064	9135.65
649.256	9045.54
649.449	8924.71
649.642	8971.81
649.835	8893.99
650.027	8764.96
650.22	8654.37
650.413	8783.4
650.605	8605.22
650.798	8693.29
650.991	8465.96
651.183	8543.78
651.376	8449.58
651.568	8431.15
651.761	8470.06
651.954	8175.15
652.146	8416.81
652.339	8312.36
652.531	8345.13
652.724	8216.11
652.916	8117.81
653.109	7927.35
653.301	8121.9
653.494	8078.9
653.686	7925.3
653.879	8117.81
654.071	7935.54
654.263	8103.47
654.456	7886.39
654.648	7818.8
654.84	7581.24
655.033	7700.02
655.225	7921.2
655.417	7591.48
655.61	7595.57
655.802	7568.95
655.994	7587.38
656.186	7585.33
656.379	7503.42
656.571	7433.79
656.763	7345.72
656.955	7372.35
657.148	7444.03
657.34	7300.67
657.532	7157.31
657.724	7315
657.916	7224.89
658.108	7132.73
658.3	7114.3
658.492	7128.64
658.684	7038.53
658.876	6891.07
659.068	6966.85
659.26	7001.66
659.452	7013.95
659.644	6831.68
659.836	6813.25
660.028	6776.39
660.22	6667.84
660.412	6794.82
660.604	6583.88
660.796	6700.61
660.988	6643.27
661.18	6692.42
661.372	6630.98
661.563	6673.99
661.755	6399.56
661.947	6397.51
662.139	6409.8
662.331	6422.09
662.522	6223.44
662.714	6309.45
662.906	6188.62
663.097	6205
663.289	6110.8
663.481	6288.97
663.673	6270.54
663.864	5959.25
664.056	6059.6
664.247	6258.25
664.439	5906
664.631	6151.76
664.822	6082.13
665.014	5959.25
665.205	5969.49
665.397	5729.88
665.588	5865.04
665.78	5838.42
665.971	5783.12
666.163	5766.74
666.354	5949.01
666.546	5779.03
666.737	5811.79
666.929	5832.27
667.12	5760.59
667.311	5731.92
667.503	5623.38
667.694	5627.48
667.885	5539.41
668.077	5625.43
668.268	5449.3
668.459	5353.05
668.651	5596.76
668.842	5486.17
669.033	5486.17
669.224	5570.13
669.416	5480.02
669.607	5461.59
669.798	5480.02
669.989	5398.1
670.18	5363.29
670.371	5430.87
670.563	5414.49
670.754	5133.92
670.945	5131.87
671.136	5328.47
671.327	5246.55
671.518	5064.29
671.709	5080.67
671.9	5164.64
672.091	5279.32
672.282	5140.06
672.473	5322.33
672.664	5158.49
672.855	5103.2
673.046	5109.34
673.237	5002.85
673.428	5197.4
673.619	4890.21
673.809	4978.27
674	4908.64
674.191	5080.67
674.382	5043.81
674.573	5047.9
674.764	4959.84
674.954	4951.65
675.145	4988.51
675.336	5084.77
675.527	5000.8
675.717	4810.34
675.908	4839.01
676.099	4750.95
676.289	4890.21
676.48	5021.28
676.671	4963.93
676.861	4898.4
677.052	4748.9
677.243	4740.71
677.433	4734.56
677.624	4851.3
677.814	4845.15
678.005	4761.19
678.195	4877.92
678.386	4796
678.576	4697.7
678.767	4593.25
678.957	4740.71
679.148	4755.04
679.338	4679.27
679.529	4705.89
679.719	4783.71
679.909	4736.61
680.1	4730.47
680.29	4849.25
680.481	4683.36
680.671	4812.39
680.861	4587.11
681.052	4673.12
681.242	4630.12
681.432	4806.24
681.622	4650.6
681.813	4677.22
682.003	4732.51
682.193	4669.03
682.383	4679.27
682.573	4783.71
682.764	4593.25
682.954	4562.53
683.144	4605.54
683.334	4619.88
683.524	4570.72
683.714	4552.29
683.904	4523.62
684.094	4550.25
684.284	4636.26
684.474	4632.16
684.664	4542.05
684.854	4445.8
685.044	4429.42
685.234	4587.11
685.424	4654.69
685.614	4519.53
685.804	4521.57
685.994	4388.46
686.184	4601.44
686.374	4564.58
686.564	4402.79
686.753	4322.92
686.943	4218.47
687.133	4288.11
687.323	4343.4
687.513	4431.46
687.702	4316.78
687.892	4306.54
688.082	4267.63
688.272	4413.03
688.461	4320.87
688.651	4372.07
688.841	4251.24
689.03	4185.71
689.22	4195.95
689.41	4251.24
689.599	4193.9
689.789	4071.02
689.979	4152.94
690.168	4042.35
690.358	4138.6
690.547	4025.97
690.737	3948.14
690.926	4034.16
691.116	3989.1
691.305	4044.4
691.495	4040.3
691.684	3855.98
691.874	4042.35
692.063	3886.7
692.252	3937.9
692.442	3882.61
692.631	3858.03
692.82	3870.32
693.01	3810.93
693.199	3868.27
693.388	3939.95
693.578	3755.63
693.767	3829.36
693.956	3882.61
694.146	3796.59
694.335	3837.55
694.524	3735.15
694.713	3810.93
694.902	3665.52
695.092	3860.08
695.281	3604.08
695.47	3686
695.659	3624.56
695.848	3786.35
696.037	3661.43
696.226	3694.19
696.415	3726.96
696.604	3694.19
696.793	3628.66
696.982	3841.65
697.171	3729.01
697.36	3726.96
697.549	3729.01
697.738	3604.08
697.927	3694.19
698.116	3755.63
698.305	3593.84
698.494	3591.8
698.683	3720.82
698.872	3530.36
699.061	3587.7
699.25	3686
699.438	3583.6
699.627	3536.5
699.816	3745.39
700.005	3718.77
700.193	3593.84
700.382	3608.18
700.571	3546.74
700.76	3503.73
700.948	3638.9
701.137	3534.45
701.326	3542.64
701.514	3448.44
701.703	3540.6
701.892	3595.89
702.08	3606.13
702.269	3561.08
702.457	3526.26
702.646	3653.23
702.834	3581.56
703.023	3683.95
703.212	3567.22
703.4	3571.32
703.589	3595.89
703.777	3571.32
703.965	3587.7
704.154	3479.16
704.342	3548.79
704.531	3497.59
704.719	3415.67
704.907	3538.55
705.096	3450.49
705.284	3499.64
705.472	3438.2
705.661	3503.73
705.849	3616.37
706.037	3542.64
706.226	3593.84
706.414	3487.35
706.602	3464.82
706.79	3554.93
706.979	3473.01
707.167	3579.51
707.355	3475.06
707.543	3612.28
707.731	3430.01
707.919	3513.97
708.107	3497.59
708.296	3579.51
708.484	3522.16
708.672	3430.01
708.86	3587.7
709.048	3509.88
709.236	3540.6
709.424	3520.12
709.612	3499.64
709.8	3593.84
709.988	3556.98
710.176	3376.76
710.364	3509.88
710.551	3606.13
710.739	3446.39
710.927	3427.96
711.115	3528.31
711.303	3495.54
711.491	3534.45
711.679	3528.31
711.866	3505.78
712.054	3505.78
712.242	3346.04
712.43	3563.12
712.617	3542.64
712.805	3440.25
712.993	3487.35
713.181	3489.4
713.368	3585.65
713.556	3604.08
713.744	3389.05
713.931	3606.13
714.119	3485.3
714.306	3706.48
714.494	3477.11
714.682	3614.32
714.869	3470.97
715.057	3632.76
715.244	3391.09
715.432	3612.28
715.619	3556.98
715.807	3477.11
715.994	3493.49
716.182	3520.12
716.369	3593.84
716.556	3591.8
716.744	3440.25
716.931	3626.61
717.119	3540.6
717.306	3604.08
717.493	3532.4
717.681	3591.8
717.868	3501.69
718.055	3479.16
718.242	3616.37
718.43	3552.88
718.617	3389.05
718.804	3573.36
718.991	3528.31
719.179	3511.93
719.366	3378.81
719.553	3473.01
719.74	3477.11
719.927	3548.79
720.114	3530.36
720.301	3501.69
720.488	3485.3
720.676	3677.81
720.863	3567.22
721.05	3608.18
721.237	3599.99
721.424	3571.32
721.611	3458.68
721.798	3497.59
721.985	3485.3
722.172	3634.8
722.358	3473.01
722.545	3628.66
722.732	3479.16
722.919	3530.36
723.106	3466.87
723.293	3532.4
723.48	3438.2
723.667	3485.3
723.853	3407.48
724.04	3425.91
724.227	3407.48
724.414	3454.58
724.6	3565.17
724.787	3343.99
724.974	3536.5
725.161	3466.87
725.347	3430.01
725.534	3522.16
725.72	3462.77
725.907	3442.29
726.094	3403.38
726.28	3411.57
726.467	3366.52
726.653	3468.92
726.84	3495.54
727.027	3559.03
727.213	3356.28
727.4	3460.73
727.586	3309.18
727.773	3477.11
727.959	3329.66
728.145	3419.77
728.332	3337.85
728.518	3366.52
728.705	3391.09
728.891	3305.08
729.077	3251.83
729.264	3358.33
729.45	3395.19
729.636	3470.97
729.823	3442.29
730.009	3364.47
730.195	3382.9
730.382	3427.96
730.568	3409.53
730.754	3399.29
730.94	3341.94
731.126	3403.38
731.313	3354.23
731.499	3384.95
731.685	3290.74
731.871	3309.18
732.057	3427.96
732.243	3282.55
732.429	3274.36
732.615	3485.3
732.801	3413.62
732.987	3350.14
733.173	3317.37
733.359	3284.6
733.545	3407.48
733.731	3231.35
733.917	3391.09
734.103	3350.14
734.289	3358.33
734.475	3303.03
734.661	3284.6
734.847	3264.12
735.033	3270.26
735.219	3253.88
735.404	3374.71
735.59	3319.42
735.776	3143.29
735.962	3264.12
736.148	3198.59
736.333	3313.27
736.519	3182.2
736.705	3282.55
736.89	3145.34
737.076	3241.59
737.262	3206.78
737.447	3165.82
737.633	3165.82
737.819	3235.45
738.004	3214.97
738.19	3231.35
738.375	3223.16
738.561	3176.06
738.747	3094.14
738.932	3083.9
739.118	3153.53
739.303	3163.77
739.489	3081.85
739.674	3194.49
739.859	3034.75
740.045	3198.59
740.23	3085.95
740.416	3079.8
740.601	3028.6
740.786	3131
740.972	2889.34
741.157	2965.12
741.342	2967.17
741.528	2928.25
741.713	3108.48
741.898	2889.34
742.084	2965.12
742.269	3018.36
742.454	2997.88
742.639	3030.65
742.824	2938.49
743.01	2985.6
743.195	2958.97
743.38	2848.38
743.565	2700.93
743.75	2895.49
743.935	2834.05
744.12	2887.29
744.305	2817.66
744.49	2786.94
744.675	2686.59
744.86	2799.23
745.045	2721.41
745.23	2758.27
745.415	2770.56
745.6	2674.31
745.785	2676.35
745.97	2631.3
746.155	2782.85
746.34	2762.37
746.525	2608.77
746.71	2719.36
746.895	2713.22
747.079	2625.15
747.264	2616.96
747.449	2569.86
747.634	2551.43
747.819	2514.56
748.003	2543.24
748.188	2500.23
748.373	2467.46
748.557	2549.38
748.742	2467.46
748.927	2510.47
749.111	2246.28
749.296	2399.88
749.481	2358.92
749.665	2389.64
749.85	2186.89
750.034	2481.8
750.219	2399.88
750.404	2338.44
750.588	2330.25
750.773	2227.85
750.957	2227.85
751.141	2307.72
751.326	2170.51
751.51	2201.23
751.695	2221.7
751.879	2201.23
752.064	2176.65
752.248	2186.89
752.432	2141.83
752.617	2109.07
752.801	2107.02
752.985	2088.59
753.17	2018.96
753.354	1961.61
753.538	2021
753.722	2010.76
753.907	2117.26
754.091	1924.75
754.275	1986.19
754.459	1973.9
754.643	1801.87
754.828	1830.54
755.012	1953.42
755.196	1867.41
755.38	1928.85
755.564	1906.32
755.748	1877.65
755.932	1918.61
756.116	1826.45
756.3	1795.73
756.484	1771.15
756.668	1785.49
756.852	1701.52
757.036	1676.95
757.22	1789.58
757.404	1687.18
757.588	1752.72
757.772	1646.23
757.956	1744.53
758.14	1666.71
758.323	1717.9
758.507	1678.99
758.691	1605.27
758.875	1627.79
759.059	1646.23
759.242	1537.68
759.426	1580.69
759.61	1578.64
759.794	1607.31
759.977	1552.02
760.161	1570.45
760.345	1597.07
760.528	1500.82
760.712	1664.66
760.895	1429.14
761.079	1531.54
761.263	1468.05
761.446	1433.24
761.63	1498.77
761.813	1461.91
761.997	1463.96
762.18	1580.69
762.364	1439.38
762.547	1429.14
762.731	1433.24
762.914	1506.96
763.098	1435.28
763.281	1541.78
763.464	1365.65
763.648	1416.85
763.831	1312.41
764.015	1369.75
764.198	1365.65
764.381	1351.32
764.564	1420.95
764.748	1392.28
764.931	1375.89
765.114	1386.13
765.297	1488.53
765.481	1341.08
765.664	1410.71
765.847	1291.93
766.03	1365.65
766.213	1253.02
766.397	1281.69
766.58	1332.89
766.763	1255.06
766.946	1218.2
767.129	1371.8
767.312	1179.29
767.495	1253.02
767.678	1265.3
767.861	1212.06
768.044	1185.43
768.227	1308.31
768.41	1177.24
768.593	1148.57
768.776	1203.86
768.959	1240.73
769.142	1203.86
769.324	1224.34
769.507	1175.19
769.69	1160.86
769.873	1265.3
770.056	1230.49
770.239	1130.14
770.421	1269.4
770.604	1167
770.787	1181.34
770.97	1228.44
771.152	1113.75
771.335	1128.09
771.518	1126.04
771.7	1167
771.883	1111.71
772.066	1095.32
772.248	1093.27
772.431	1072.79
772.613	1054.36
772.796	1068.7
772.978	1070.75
773.161	1078.94
773.343	1095.32
773.526	999.07
773.708	1001.12
773.891	984.73
774.073	990.88
774.256	933.53
774.438	1093.27
774.621	1031.83
774.803	1040.03
774.985	978.59
775.168	964.25
775.35	982.68
775.532	929.44
775.715	882.33
775.897	992.92
776.079	947.87
776.261	954.01
776.444	884.38
776.626	814.75
776.808	851.61
776.99	904.86
777.173	892.57
777.355	804.51
777.537	898.72
777.719	863.9
777.901	835.23
778.083	851.61
778.265	802.46
778.447	857.76
778.629	786.08
778.811	736.93
778.993	890.53
779.175	802.46
779.357	771.74
779.539	761.5
779.721	843.42
779.903	872.09
780.085	769.69
780.267	747.17
780.449	734.88
780.631	781.98
780.812	732.83
780.994	714.4
781.176	833.18
781.358	720.54
781.54	704.16
781.721	722.59
781.903	698.02
782.085	607.91
782.267	749.22
782.448	636.58
782.63	573.09
782.812	683.68
782.993	732.83
783.175	675.49
783.357	679.58
783.538	661.15
783.72	628.39
783.901	546.47
784.083	591.52
784.264	640.67
784.446	550.56
784.627	581.28
784.809	595.62
784.99	585.38
785.172	593.57
785.353	587.43
785.535	560.8
785.716	552.61
785.897	573.09
786.079	603.81
786.26	585.38
786.441	542.37
786.623	571.04
786.804	519.84
786.985	538.27
787.167	515.75
787.348	413.35
787.529	548.51
787.71	544.42
787.891	478.88
788.073	495.27
788.254	491.17
788.435	564.9
788.616	476.84
788.797	417.44
788.978	448.16
789.159	485.03
789.34	474.79
789.522	458.4
789.703	460.45
789.884	517.79
790.065	562.85
790.246	528.03
790.427	458.4
790.607	462.5
790.788	444.07
790.969	411.3
791.15	505.51
791.331	376.48
791.512	470.69
791.693	411.3
791.874	493.22
792.054	439.97
792.235	425.64
792.416	487.08
792.597	407.2
792.778	493.22
792.958	401.06
793.139	388.77
793.32	399.01
793.5	366.25
793.681	497.32
793.862	480.93
794.042	292.52
794.223	345.77
794.404	396.96
794.584	345.77
794.765	362.15
794.945	372.39
795.126	308.9
795.306	423.59
795.487	347.81
795.667	401.06
795.848	405.16
796.028	329.38
796.209	376.48
796.389	409.25
796.57	407.2
796.75	319.14
796.93	337.57
797.111	292.52
797.291	286.37
797.471	349.86
797.652	315.05
797.832	286.37
798.012	356.01
798.192	319.14
798.373	376.48
798.553	317.09
798.733	372.39
798.913	327.33
799.093	341.67
799.274	288.42
799.454	392.87
799.634	337.57
799.814	296.61
799.994	329.38
800.174	319.14
800.354	255.65
800.534	274.09
800.714	327.33
800.894	261.8
801.074	276.13
801.254	280.23
801.434	358.05
801.614	356.01
801.794	245.41
801.974	769.69
802.154	331.43
802.334	237.22
802.514	253.61
802.693	294.57
802.873	241.32
803.053	319.14
803.233	274.09
803.413	265.89
803.592	190.12
803.772	251.56
803.952	290.47
804.131	251.56
804.311	265.89
804.491	253.61
804.67	233.13
804.85	302.76
805.03	327.33
805.209	229.03
805.389	233.13
805.568	183.98
805.748	171.69
805.928	333.48
806.107	239.27
806.287	216.74
806.466	304.81
806.646	267.94
806.825	188.07
807.004	267.94
807.184	204.46
807.363	288.42
807.543	288.42
807.722	183.98
807.901	161.45
808.081	282.28
808.26	126.63
808.439	208.55
808.619	163.5
808.798	220.84
808.977	233.13
809.156	212.65
809.336	153.26
809.515	269.99
809.694	169.64
809.873	171.69
810.052	229.03
810.231	239.27
810.411	235.18
810.59	196.26
810.769	143.02
810.948	272.04
811.127	249.51
811.306	212.65
811.485	237.22
811.664	284.33
811.843	239.27
812.022	192.17
812.201	186.02
812.38	208.55
812.559	155.3
812.737	249.51
812.916	114.34
813.095	155.3
813.274	143.02
813.453	194.22
813.632	210.6
813.811	229.03
813.989	224.94
814.168	179.88
814.347	208.55
814.526	206.5
814.704	177.83
814.883	186.02
815.062	120.49
815.24	188.07
815.419	177.83
815.598	126.63
815.776	91.82
815.955	202.41
816.133	83.63
816.312	259.75
816.49	226.98
816.669	161.45
816.847	97.96
817.026	138.92
817.204	167.59
817.383	128.68
817.561	122.54
817.74	214.7
817.918	147.11
818.097	175.78
818.275	167.59
818.453	212.65
818.632	177.83
818.81	130.73
818.988	161.45
819.167	155.3
819.345	153.26
819.523	87.72
819.701	159.4
819.879	134.82
820.058	118.44
820.236	155.3
820.414	79.53
820.592	145.06
820.77	106.15
820.948	151.21
821.127	216.74
821.305	106.15
821.483	169.64
821.661	186.02
821.839	145.06
822.017	157.35
822.195	106.15
822.373	186.02
822.551	138.92
822.729	120.49
822.907	136.87
823.085	128.68
823.262	136.87
823.44	130.73
823.618	136.87
823.796	138.92
823.974	138.92
824.152	108.2
824.329	116.39
824.507	204.46
824.685	159.4
824.863	79.53
825.04	143.02
825.218	222.89
825.396	104.11
825.574	126.63
825.751	132.78
825.929	151.21
826.107	67.24
826.284	151.21
826.462	151.21
826.639	177.83
826.817	52.91
826.994	143.02
827.172	81.58
827.349	167.59
827.527	161.45
827.704	114.34
827.882	140.97
828.059	130.73
828.237	67.24
828.414	59.05
828.591	42.67
828.769	91.82
828.946	118.44
829.124	190.12
829.301	120.49
829.478	100.01
829.655	77.48
829.833	87.72
830.01	38.57
830.187	208.55
830.364	138.92
830.542	100.01
830.719	102.06
830.896	175.78
831.073	24.23
831.25	108.2
831.427	114.34
831.604	75.43
831.782	67.24
831.959	91.82
832.136	69.29
832.313	85.67
832.49	16.04
832.667	67.24
832.844	59.05
833.021	75.43
833.198	87.72
833.374	46.76
833.551	75.43
833.728	77.48
833.905	132.78
834.082	-12.63
834.259	134.82
834.436	11.95
834.612	87.72
834.789	93.87
834.966	81.58
835.143	102.06
835.319	143.02
835.496	124.58
835.673	52.91
835.85	79.53
836.026	95.91
836.203	100.01
836.38	79.53
836.556	97.96
836.733	57
836.909	69.29
837.086	61.1
837.262	26.28
837.439	73.39
837.616	11.95
837.792	102.06
837.968	57
838.145	69.29
838.321	52.91
838.498	34.47
838.674	38.57
838.851	3.75
839.027	16.04
839.203	140.97
839.38	57
839.556	134.82
839.732	177.83
839.909	83.63
840.085	73.39
840.261	75.43
840.437	73.39
840.614	32.43
840.79	36.52
840.966	89.77
841.142	73.39
841.318	3.75
841.494	54.95
841.671	7.85
841.847	97.96
842.023	48.81
842.199	32.43
842.375	132.78
842.551	22.19
842.727	57
842.903	93.87
843.079	46.76
843.255	69.29
843.431	110.25
843.607	155.3
843.783	-31.06
843.959	128.68
844.134	54.95
844.31	118.44
844.486	65.19
844.662	18.09
844.838	79.53
845.013	61.1
845.189	13.99
845.365	18.09
845.541	5.8
845.716	46.76
845.892	24.23
846.068	-2.39
846.244	28.33
846.419	24.23
846.595	24.23
846.77	73.39
846.946	40.62
847.122	69.29
847.297	22.19
847.473	50.86
847.648	3.75
847.824	-20.82
847.999	-45.4
848.175	93.87
848.35	5.8
848.526	87.72
848.701	65.19
848.876	65.19
849.052	61.1
849.227	-26.96
849.403	57
849.578	44.71
849.753	85.67
849.929	97.96
850.104	65.19
850.279	65.19
850.454	81.58
850.63	61.1
850.805	11.95
850.98	85.67
851.155	32.43
851.33	16.04
851.505	85.67
851.681	61.1
851.856	34.47
852.031	46.76
852.206	79.53
852.381	-39.25
852.556	9.9
852.731	85.67
852.906	61.1
853.081	93.87
853.256	20.14
853.431	42.67
853.606	16.04
853.781	73.39
853.956	-18.77
854.131	44.71
854.305	9.9
854.48	-12.63
854.655	32.43
854.83	40.62
855.005	-6.49
855.18	9.9
855.354	-0.34
855.529	-10.58
855.704	5.8
855.879	20.14
856.053	36.52
856.228	65.19
856.403	-65.88
856.577	48.81
856.752	-16.73
856.926	42.67
857.101	40.62
857.276	-0.34
857.45	-37.2
857.625	69.29
857.799	26.28
857.974	-24.92
858.148	-8.53
858.323	52.91
858.497	-22.87
858.672	-8.53
858.846	-26.96
859.02	40.62
859.195	32.43
859.369	-24.92
859.543	-43.35
859.718	38.57
859.892	-10.58
860.066	30.38
860.241	36.52
860.415	38.57
860.589	48.81
860.763	28.33
860.938	85.67
861.112	54.95
861.286	28.33
861.46	-29.01
861.634	40.62
861.808	48.81
861.982	-55.64
862.157	16.04
862.331	46.76
862.505	46.76
862.679	-41.3
862.853	48.81
863.027	32.43
863.201	7.85
863.375	-41.3
863.549	16.04
863.722	-33.11
863.896	77.48
864.07	9.9
864.244	38.57
864.418	34.47
864.592	46.76
864.766	38.57
864.939	18.09
865.113	3.75
865.287	13.99
865.461	-8.53
865.634	-47.44
865.808	-33.11
865.982	-0.34
866.156	52.91
866.329	-0.34
866.503	-31.06
866.676	87.72
866.85	-33.11
867.024	26.28
867.197	-12.63
867.371	36.52
867.544	-14.68
867.718	38.57
867.891	59.05
868.065	-57.68
868.238	-12.63
868.412	-4.44
868.585	52.91
868.759	44.71
868.932	16.04
869.105	30.38
869.279	57
869.452	28.33
869.625	5.8
869.799	-39.25
869.972	30.38
870.145	-57.68
870.319	30.38
870.492	-67.92
870.665	20.14
870.838	-22.87
871.011	44.71
871.185	-18.77
871.358	-31.06
871.531	20.14
871.704	28.33
871.877	-20.82
872.05	1.71
872.223	-16.73
872.396	-47.44
872.569	5.8
872.742	-8.53
872.915	50.86
873.088	26.28
873.261	-14.68
873.434	69.29
873.607	32.43
873.78	52.91
873.953	-72.02
874.126	-18.77
874.299	-41.3
874.471	-2.39
874.644	-14.68
874.817	18.09
874.99	30.38
875.163	28.33
875.335	-49.49
875.508	-20.82
875.681	77.48
875.853	-16.73
876.026	7.85
876.199	-37.2
876.371	83.63
876.544	-12.63
876.717	-6.49
876.889	-45.4
877.062	20.14
877.234	-51.54
877.407	-43.35
877.579	20.14
877.752	-65.88
877.924	-33.11
878.097	18.09
878.269	-22.87
878.442	11.95
878.614	57
878.786	-86.36
878.959	26.28
879.131	32.43
879.303	-45.4
879.476	40.62
879.648	-14.68
879.82	75.43
879.993	1.71
880.165	-16.73
880.337	-53.59
880.509	1.71
880.681	-39.25
880.854	-14.68
881.026	46.76
881.198	-26.96
881.37	-10.58
881.542	-57.68
881.714	-37.2
881.886	-0.34
882.058	-57.68
882.23	63.15
882.402	3.75
882.574	-12.63
882.746	-123.22
882.918	-22.87
883.09	-0.34
883.262	-12.63
883.434	1.71
883.606	-26.96
883.778	-39.25
883.95	46.76
884.122	65.19
884.293	-0.34
884.465	-6.49
884.637	-41.3
884.809	-39.25
884.98	22.19
885.152	44.71
885.324	34.47
885.496	-18.77
885.667	-4.44
885.839	38.57
886.011	-29.01
886.182	7.85
886.354	46.76
886.525	-4.44
886.697	20.14
886.869	-29.01
887.04	-14.68
887.212	104.11
887.383	1.71
887.555	-35.16
887.726	34.47
887.897	40.62
888.069	-53.59
888.24	-51.54
888.412	-26.96
888.583	-16.73
888.754	-16.73
888.926	3.75
889.097	-69.97
889.268	36.52
889.44	-65.88
889.611	3.75
889.782	-6.49
889.953	-106.84
890.125	11.95
890.296	-82.26
890.467	73.39
890.638	-76.12
890.809	34.47
890.98	-8.53
891.151	-47.44
891.323	11.95
891.494	3.75
891.665	-41.3
891.836	-43.35
892.007	-29.01
892.178	38.57
892.349	-12.63
892.52	-53.59
892.691	3.75
892.862	-6.49
893.032	-41.3
893.203	20.14
893.374	-20.82
893.545	44.71
893.716	-29.01
893.887	-16.73
894.057	-35.16
894.228	-43.35
894.399	16.04
894.57	85.67
894.74	16.04
894.911	-14.68
895.082	3.75
895.253	-26.96
895.423	-0.34
895.594	20.14
895.764	-22.87
895.935	-69.97
896.106	-29.01
896.276	52.91
896.447	-8.53
896.617	7.85
896.788	-16.73
896.958	20.14
897.129	38.57
897.299	-47.44
897.47	87.72
897.64	-92.5
897.81	-10.58
897.981	-12.63
898.151	-43.35
898.322	61.1
898.492	-45.4
898.662	-35.16
898.832	-8.53
899.003	-53.59
899.173	-24.92
899.343	22.19
899.513	-8.53
