Data from USB4F104151__43__10-23-05-268.txt Node

Date: Wed Mar 12 10:23:05 EDT 2025
User: louis
Spectrometer: USB4F10415
Trigger mode: 4
Integration Time (sec): 3.000000E-2
Scans to average: 1
Electric dark correction enabled: true
Nonlinearity correction enabled: false
Boxcar width: 0
XAxis mode: Wavelengths
Number of Pixels in Spectrum: 3648
>>>>>Begin Spectral Data<<<<<
178.204	-133.97
178.424	-133.97
178.644	-133.97
178.864	-90.96
179.084	-66.39
179.304	-37.72
179.524	48.3
179.744	-50
179.964	46.25
180.184	79.02
180.404	-37.72
180.624	5.29
180.844	11.43
181.064	-93.01
181.283	-9.05
181.503	-27.48
181.723	64.68
181.943	-68.44
182.163	33.96
182.383	-39.76
182.602	-2.9
182.822	-19.29
183.042	97.45
183.262	-47.96
183.482	-25.43
183.701	44.2
183.921	-4.95
184.141	-11.09
184.361	95.4
184.58	-29.52
184.8	-0.85
185.02	-21.33
185.239	68.78
185.459	27.82
185.679	42.15
185.898	-50
186.118	-19.29
186.338	-43.86
186.557	48.3
186.777	52.39
186.997	-56.15
187.216	-35.67
187.436	70.83
187.655	-15.19
187.875	54.44
188.095	48.3
188.314	52.39
188.534	56.49
188.753	-27.48
188.973	93.35
189.192	60.59
189.412	7.34
189.631	31.91
189.851	64.68
190.07	74.92
190.29	-37.72
190.509	38.06
190.729	27.82
190.948	54.44
191.168	36.01
191.387	11.43
191.607	-50
191.826	56.49
192.045	-4.95
192.265	23.72
192.484	-13.14
192.704	25.77
192.923	56.49
193.142	91.31
193.362	7.34
193.581	15.53
193.8	54.44
194.02	128.17
194.239	38.06
194.458	46.25
194.678	23.72
194.897	-17.24
195.116	60.59
195.335	134.31
195.555	11.43
195.774	64.68
195.993	27.82
196.212	-11.09
196.432	60.59
196.651	-50
196.87	-11.09
197.089	81.07
197.308	-15.19
197.528	25.77
197.747	-35.67
197.966	60.59
198.185	64.68
198.404	48.3
198.623	64.68
198.842	1.19
199.062	68.78
199.281	83.11
199.5	31.91
199.719	-9.05
199.938	5.29
200.157	79.02
200.376	97.45
200.595	23.72
200.814	36.01
201.033	13.48
201.252	21.67
201.471	33.96
201.69	-17.24
201.909	97.45
202.128	-21.33
202.347	122.02
202.566	38.06
202.785	5.29
203.004	-4.95
203.223	68.78
203.442	-4.95
203.661	36.01
203.879	-33.62
204.098	50.35
204.317	-21.33
204.536	36.01
204.755	38.06
204.974	66.73
205.193	15.53
205.411	46.25
205.63	13.48
205.849	66.73
206.068	31.91
206.287	7.34
206.505	64.68
206.724	13.48
206.943	-19.29
207.162	7.34
207.381	-9.05
207.599	38.06
207.818	29.87
208.037	81.07
208.255	15.53
208.474	46.25
208.693	79.02
208.911	-15.19
209.13	-11.09
209.349	27.82
209.567	11.43
209.786	87.21
210.005	21.67
210.223	-17.24
210.442	-25.43
210.661	76.97
210.879	72.87
211.098	-7
211.316	-29.52
211.535	36.01
211.753	68.78
211.972	3.24
212.191	15.53
212.409	54.44
212.628	5.29
212.846	42.15
213.065	40.11
213.283	48.3
213.502	21.67
213.72	13.48
213.938	17.58
214.157	42.15
214.375	38.06
214.594	70.83
214.812	76.97
215.031	56.49
215.249	25.77
215.467	-54.1
215.686	31.91
215.904	42.15
216.122	31.91
216.341	-82.77
216.559	5.29
216.778	19.63
216.996	5.29
217.214	64.68
217.432	-95.06
217.651	27.82
217.869	83.11
218.087	-17.24
218.306	74.92
218.524	68.78
218.742	-19.29
218.96	23.72
219.179	38.06
219.397	58.54
219.615	13.48
219.833	5.29
220.051	48.3
220.27	81.07
220.488	-17.24
220.706	58.54
220.924	29.87
221.142	-33.62
221.36	-9.05
221.578	11.43
221.796	-0.85
222.015	54.44
222.233	31.91
222.451	19.63
222.669	5.29
222.887	103.59
223.105	-58.2
223.323	66.73
223.541	-29.52
223.759	23.72
223.977	5.29
224.195	42.15
224.413	64.68
224.631	62.63
224.849	-2.9
225.067	23.72
225.285	-72.53
225.503	36.01
225.721	1.19
225.939	31.91
226.157	21.67
226.375	48.3
226.592	25.77
226.81	99.5
227.028	21.67
227.246	115.88
227.464	-9.05
227.682	109.74
227.9	62.63
228.117	-72.53
228.335	21.67
228.553	-62.29
228.771	42.15
228.989	25.77
229.206	-17.24
229.424	-9.05
229.642	64.68
229.86	83.11
230.077	130.22
230.295	-4.95
230.513	-13.14
230.731	21.67
230.948	29.87
231.166	160.94
231.384	7.34
231.601	40.11
231.819	9.39
232.037	136.36
232.254	-4.95
232.472	40.11
232.689	25.77
232.907	46.25
233.125	5.29
233.342	152.74
233.56	40.11
233.777	70.83
233.995	42.15
234.213	66.73
234.43	97.45
234.648	-52.05
234.865	7.34
235.083	87.21
235.3	70.83
235.518	40.11
235.735	56.49
235.953	87.21
236.17	46.25
236.388	-11.09
236.605	46.25
236.822	68.78
237.04	68.78
237.257	44.2
237.475	5.29
237.692	44.2
237.909	54.44
238.127	23.72
238.344	97.45
238.562	15.53
238.779	-50
238.996	-33.62
239.214	19.63
239.431	105.64
239.648	79.02
239.865	64.68
240.083	48.3
240.3	23.72
240.517	-43.86
240.735	154.79
240.952	-35.67
241.169	48.3
241.386	40.11
241.603	13.48
241.821	29.87
242.038	54.44
242.255	31.91
242.472	21.67
242.689	7.34
242.907	89.26
243.124	36.01
243.341	58.54
243.558	1.19
243.775	-15.19
243.992	72.87
244.209	11.43
244.426	54.44
244.643	58.54
244.86	3.24
245.078	15.53
245.295	38.06
245.512	25.77
245.729	70.83
245.946	3.24
246.163	81.07
246.38	48.3
246.597	-54.1
246.814	15.53
247.031	15.53
247.248	89.26
247.464	54.44
247.681	25.77
247.898	72.87
248.115	91.31
248.332	-21.33
248.549	44.2
248.766	-2.9
248.983	-0.85
249.2	27.82
249.417	48.3
249.633	-19.29
249.85	70.83
250.067	-43.86
250.284	5.29
250.501	85.16
250.717	54.44
250.934	9.39
251.151	-2.9
251.368	21.67
251.585	23.72
251.801	-2.9
252.018	58.54
252.235	79.02
252.451	3.24
252.668	-2.9
252.885	68.78
253.102	17.58
253.318	76.97
253.535	-4.95
253.752	99.5
253.968	-23.38
254.185	-0.85
254.401	5.29
254.618	64.68
254.835	31.91
255.051	70.83
255.268	-23.38
255.484	79.02
255.701	15.53
255.917	124.07
256.134	-29.52
256.351	15.53
256.567	7.34
256.784	-101.2
257	-0.85
257.217	38.06
257.433	62.63
257.65	62.63
257.866	36.01
258.082	23.72
258.299	31.91
258.515	-23.38
258.732	56.49
258.948	62.63
259.165	60.59
259.381	56.49
259.597	29.87
259.814	54.44
260.03	95.4
260.246	113.83
260.463	97.45
260.679	27.82
260.895	79.02
261.112	44.2
261.328	7.34
261.544	23.72
261.761	115.88
261.977	27.82
262.193	-64.34
262.409	-0.85
262.626	62.63
262.842	33.96
263.058	19.63
263.274	103.59
263.49	103.59
263.707	-0.85
263.923	23.72
264.139	-54.1
264.355	97.45
264.571	-25.43
264.787	27.82
265.004	72.87
265.22	40.11
265.436	15.53
265.652	7.34
265.868	13.48
266.084	13.48
266.3	11.43
266.516	-0.85
266.732	-43.86
266.948	19.63
267.164	-4.95
267.38	50.35
267.596	66.73
267.812	27.82
268.028	-0.85
268.244	-21.33
268.46	119.98
268.676	68.78
268.892	44.2
269.108	13.48
269.324	19.63
269.54	1.19
269.756	111.78
269.972	27.82
270.188	111.78
270.403	3.24
270.619	79.02
270.835	15.53
271.051	72.87
271.267	27.82
271.483	-4.95
271.698	76.97
271.914	107.69
272.13	70.83
272.346	81.07
272.562	5.29
272.777	79.02
272.993	36.01
273.209	27.82
273.425	72.87
273.64	15.53
273.856	7.34
274.072	38.06
274.287	-21.33
274.503	44.2
274.719	3.24
274.934	23.72
275.15	-39.76
275.366	113.83
275.581	40.11
275.797	64.68
276.012	-4.95
276.228	-11.09
276.444	89.26
276.659	70.83
276.875	-90.96
277.09	66.73
277.306	44.2
277.521	31.91
277.737	-27.48
277.952	29.87
278.168	50.35
278.383	50.35
278.599	36.01
278.814	33.96
279.03	40.11
279.245	122.02
279.461	-70.48
279.676	23.72
279.892	-23.38
280.107	36.01
280.322	-76.63
280.538	23.72
280.753	-43.86
280.969	-41.81
281.184	19.63
281.399	-13.14
281.615	-17.24
281.83	81.07
282.045	-9.05
282.26	50.35
282.476	-35.67
282.691	17.58
282.906	40.11
283.122	68.78
283.337	-9.05
283.552	56.49
283.767	5.29
283.983	64.68
284.198	9.39
284.413	27.82
284.628	-33.62
284.843	72.87
285.058	-2.9
285.274	44.2
285.489	-0.85
285.704	79.02
285.919	60.59
286.134	-2.9
286.349	46.25
286.564	15.53
286.779	72.87
286.995	23.72
287.21	-74.58
287.425	81.07
287.64	48.3
287.855	48.3
288.07	-88.92
288.285	89.26
288.5	-4.95
288.715	74.92
288.93	38.06
289.145	23.72
289.36	89.26
289.575	13.48
289.79	89.26
290.004	60.59
290.219	27.82
290.434	54.44
290.649	23.72
290.864	46.25
291.079	76.97
291.294	56.49
291.509	19.63
291.724	64.68
291.938	79.02
292.153	124.07
292.368	-25.43
292.583	23.72
292.798	-54.1
293.012	5.29
293.227	42.15
293.442	5.29
293.657	19.63
293.871	62.63
294.086	56.49
294.301	42.15
294.516	42.15
294.73	40.11
294.945	-93.01
295.16	1.19
295.374	52.39
295.589	89.26
295.804	-2.9
296.018	-0.85
296.233	105.64
296.447	54.44
296.662	64.68
296.877	144.55
297.091	-4.95
297.306	62.63
297.52	38.06
297.735	40.11
297.949	9.39
298.164	-17.24
298.378	-11.09
298.593	-9.05
298.807	-25.43
299.022	3.24
299.236	44.2
299.451	-39.76
299.665	27.82
299.88	44.2
300.094	70.83
300.309	25.77
300.523	13.48
300.737	56.49
300.952	36.01
301.166	7.34
301.381	-11.09
301.595	1.19
301.809	-9.05
302.024	13.48
302.238	-9.05
302.452	89.26
302.667	38.06
302.881	85.16
303.095	17.58
303.309	33.96
303.524	33.96
303.738	48.3
303.952	27.82
304.166	68.78
304.381	15.53
304.595	38.06
304.809	7.34
305.023	25.77
305.237	27.82
305.452	-0.85
305.666	76.97
305.88	52.39
306.094	89.26
306.308	83.11
306.522	48.3
306.736	89.26
306.95	95.4
307.164	76.97
307.379	36.01
307.593	76.97
307.807	134.31
308.021	56.49
308.235	85.16
308.449	1.19
308.663	-13.14
308.877	79.02
309.091	-13.14
309.305	38.06
309.519	40.11
309.733	7.34
309.947	15.53
310.161	3.24
310.374	7.34
310.588	11.43
310.802	1.19
311.016	142.5
311.23	5.29
311.444	15.53
311.658	79.02
311.872	-47.96
312.085	40.11
312.299	68.78
312.513	105.64
312.727	17.58
312.941	-0.85
313.154	68.78
313.368	54.44
313.582	66.73
313.796	101.55
314.009	-21.33
314.223	27.82
314.437	40.11
314.651	23.72
314.864	23.72
315.078	11.43
315.292	85.16
315.505	-4.95
315.719	-0.85
315.933	142.5
316.146	50.35
316.36	7.34
316.573	72.87
316.787	119.98
317.001	76.97
317.214	-0.85
317.428	-4.95
317.641	17.58
317.855	-35.67
318.068	87.21
318.282	87.21
318.495	60.59
318.709	97.45
318.922	-11.09
319.136	89.26
319.349	38.06
319.563	89.26
319.776	23.72
319.99	11.43
320.203	48.3
320.417	5.29
320.63	58.54
320.843	62.63
321.057	23.72
321.27	60.59
321.483	81.07
321.697	15.53
321.91	9.39
322.124	58.54
322.337	52.39
322.55	83.11
322.763	126.12
322.977	46.25
323.19	62.63
323.403	-31.57
323.617	-29.52
323.83	29.87
324.043	-35.67
324.256	-0.85
324.469	-0.85
324.683	101.55
324.896	11.43
325.109	42.15
325.322	-15.19
325.535	7.34
325.748	27.82
325.962	-0.85
326.175	-17.24
326.388	97.45
326.601	23.72
326.814	-4.95
327.027	72.87
327.24	70.83
327.453	-9.05
327.666	31.91
327.879	-9.05
328.092	72.87
328.305	113.83
328.518	21.67
328.731	3.24
328.944	52.39
329.157	50.35
329.37	54.44
329.583	54.44
329.796	89.26
330.009	33.96
330.222	40.11
330.435	38.06
330.648	5.29
330.861	95.4
331.073	52.39
331.286	50.35
331.499	38.06
331.712	68.78
331.925	33.96
332.138	46.25
332.35	109.74
332.563	-11.09
332.776	99.5
332.989	7.34
333.202	21.67
333.414	31.91
333.627	15.53
333.84	31.91
334.053	74.92
334.265	31.91
334.478	89.26
334.691	70.83
334.903	15.53
335.116	3.24
335.329	42.15
335.541	7.34
335.754	15.53
335.966	-60.24
336.179	-0.85
336.392	19.63
336.604	9.39
336.817	40.11
337.029	62.63
337.242	48.3
337.454	85.16
337.667	56.49
337.88	62.63
338.092	33.96
338.305	58.54
338.517	52.39
338.729	42.15
338.942	23.72
339.154	42.15
339.367	54.44
339.579	13.48
339.792	23.72
340.004	44.2
340.217	-9.05
340.429	56.49
340.641	83.11
340.854	13.48
341.066	52.39
341.278	31.91
341.491	7.34
341.703	85.16
341.915	72.87
342.128	64.68
342.34	-29.52
342.552	-9.05
342.764	3.24
342.977	5.29
343.189	48.3
343.401	68.78
343.613	-19.29
343.826	56.49
344.038	27.82
344.25	21.67
344.462	7.34
344.674	48.3
344.886	56.49
345.099	19.63
345.311	85.16
345.523	70.83
345.735	9.39
345.947	72.87
346.159	44.2
346.371	27.82
346.583	101.55
346.795	40.11
347.007	79.02
347.219	36.01
347.431	31.91
347.643	64.68
347.855	15.53
348.067	99.5
348.279	7.34
348.491	44.2
348.703	44.2
348.915	68.78
349.127	-4.95
349.339	-31.57
349.551	23.72
349.763	13.48
349.975	-0.85
350.187	113.83
350.399	134.31
350.61	60.59
350.822	97.45
351.034	5.29
351.246	126.12
351.458	19.63
351.669	60.59
351.881	-47.96
352.093	130.22
352.305	36.01
352.517	56.49
352.728	46.25
352.94	56.49
353.152	-60.24
353.363	15.53
353.575	21.67
353.787	11.43
353.999	62.63
354.21	68.78
354.422	52.39
354.633	56.49
354.845	-0.85
355.057	27.82
355.268	87.21
355.48	-9.05
355.692	40.11
355.903	27.82
356.115	19.63
356.326	-17.24
356.538	48.3
356.749	66.73
356.961	38.06
357.172	74.92
357.384	31.91
357.595	64.68
357.807	36.01
358.018	21.67
358.23	56.49
358.441	72.87
358.653	7.34
358.864	97.45
359.075	62.63
359.287	107.69
359.498	89.26
359.709	46.25
359.921	46.25
360.132	72.87
360.344	42.15
360.555	38.06
360.766	64.68
360.977	115.88
361.189	107.69
361.4	58.54
361.611	62.63
361.823	19.63
362.034	101.55
362.245	36.01
362.456	101.55
362.667	119.98
362.879	-43.86
363.09	5.29
363.301	48.3
363.512	-2.9
363.723	23.72
363.935	44.2
364.146	19.63
364.357	-4.95
364.568	60.59
364.779	62.63
364.99	7.34
365.201	74.92
365.412	44.2
365.623	-58.2
365.834	89.26
366.045	44.2
366.256	113.83
366.467	38.06
366.678	-19.29
366.889	52.39
367.1	85.16
367.311	31.91
367.522	-41.81
367.733	74.92
367.944	97.45
368.155	46.25
368.366	72.87
368.577	66.73
368.788	60.59
368.999	-21.33
369.209	58.54
369.42	76.97
369.631	113.83
369.842	64.68
370.053	40.11
370.264	97.45
370.474	93.35
370.685	19.63
370.896	95.4
371.107	31.91
371.317	91.31
371.528	48.3
371.739	33.96
371.95	31.91
372.16	52.39
372.371	62.63
372.582	17.58
372.792	21.67
373.003	58.54
373.214	70.83
373.424	91.31
373.635	60.59
373.846	185.51
374.056	13.48
374.267	66.73
374.477	5.29
374.688	89.26
374.898	68.78
375.109	48.3
375.319	44.2
375.53	27.82
375.74	66.73
375.951	64.68
376.161	33.96
376.372	5.29
376.582	74.92
376.793	52.39
377.003	101.55
377.214	42.15
377.424	38.06
377.635	128.17
377.845	40.11
378.055	105.64
378.266	68.78
378.476	48.3
378.686	-9.05
378.897	48.3
379.107	33.96
379.317	154.79
379.528	58.54
379.738	156.84
379.948	-7
380.158	60.59
380.369	11.43
380.579	33.96
380.789	46.25
380.999	27.82
381.21	76.97
381.42	48.3
381.63	62.63
381.84	79.02
382.05	15.53
382.261	93.35
382.471	27.82
382.681	87.21
382.891	109.74
383.101	93.35
383.311	79.02
383.521	31.91
383.731	60.59
383.941	79.02
384.151	103.59
384.361	-9.05
384.571	85.16
384.781	66.73
384.991	29.87
385.201	52.39
385.411	126.12
385.621	93.35
385.831	79.02
386.041	66.73
386.251	36.01
386.461	40.11
386.671	89.26
386.881	89.26
387.091	-25.43
387.301	91.31
387.511	58.54
387.72	103.59
387.93	7.34
388.14	33.96
388.35	79.02
388.56	64.68
388.769	105.64
388.979	38.06
389.189	19.63
389.399	107.69
389.609	64.68
389.818	81.07
390.028	27.82
390.238	89.26
390.447	40.11
390.657	46.25
390.867	60.59
391.076	-56.15
391.286	74.92
391.496	29.87
391.705	31.91
391.915	83.11
392.125	122.02
392.334	89.26
392.544	76.97
392.753	56.49
392.963	48.3
393.172	15.53
393.382	89.26
393.591	160.94
393.801	115.88
394.01	158.89
394.22	154.79
394.429	27.82
394.639	68.78
394.848	91.31
395.058	-0.85
395.267	7.34
395.477	66.73
395.686	95.4
395.895	171.18
396.105	130.22
396.314	89.26
396.524	156.84
396.733	85.16
396.942	79.02
397.152	66.73
397.361	132.26
397.57	105.64
397.78	79.02
397.989	70.83
398.198	177.32
398.407	74.92
398.617	113.83
398.826	97.45
399.035	81.07
399.244	130.22
399.453	62.63
399.663	109.74
399.872	146.6
400.081	70.83
400.29	160.94
400.499	105.64
400.708	140.46
400.917	64.68
401.127	62.63
401.336	156.84
401.545	146.6
401.754	222.38
401.963	132.26
402.172	91.31
402.381	189.61
402.59	85.16
402.799	160.94
403.008	165.03
403.217	150.7
403.426	119.98
403.635	113.83
403.844	160.94
404.053	113.83
404.262	150.7
404.471	183.46
404.68	134.31
404.888	199.85
405.097	220.33
405.306	130.22
405.515	122.02
405.724	107.69
405.933	234.66
406.142	289.96
406.35	277.67
406.559	273.57
406.768	169.13
406.977	236.71
407.185	222.38
407.394	232.62
407.603	142.5
407.812	232.62
408.02	347.3
408.229	218.28
408.438	341.16
408.646	208.04
408.855	308.39
409.064	294.05
409.272	253.09
409.481	281.77
409.69	224.42
409.898	259.24
410.107	386.21
410.315	335.01
410.524	306.34
410.733	281.77
410.941	300.2
411.15	382.12
411.358	408.74
411.567	412.84
411.775	449.7
411.984	466.08
412.192	548
412.401	474.28
412.609	486.56
412.818	613.54
413.026	550.05
413.234	584.87
413.443	595.11
413.651	605.35
413.86	605.35
414.068	666.78
414.276	722.08
414.485	668.83
414.693	674.98
414.901	847.01
415.11	789.66
415.318	746.66
415.526	720.03
415.734	816.29
415.943	890.01
416.151	849.05
416.359	908.44
416.567	935.07
416.776	1068.19
416.984	978.08
417.192	1164.44
417.4	1035.42
417.608	1117.34
417.817	1133.72
418.025	1162.39
418.233	1309.85
418.441	1246.36
418.649	1338.52
418.857	1449.11
419.065	1473.68
419.273	1399.96
419.481	1528.98
419.689	1625.23
419.897	1621.14
420.105	1676.43
420.313	1789.07
420.521	1780.88
420.729	1893.52
420.937	1850.51
421.145	1924.24
421.353	1926.29
421.561	2116.75
421.769	2057.36
421.977	2223.24
422.185	2274.44
422.393	2348.17
422.601	2608.26
422.809	2403.46
423.017	2479.24
423.224	2712.71
423.432	2669.7
423.64	2722.95
423.848	2921.6
424.056	2950.27
424.263	3173.5
424.471	3044.48
424.679	3069.05
424.887	3361.91
425.094	3452.02
425.302	3429.49
425.51	3632.24
425.718	3796.08
425.925	3767.41
426.133	3828.85
426.341	4056.17
426.548	4215.91
426.756	4297.83
426.964	4310.12
427.171	4639.84
427.379	4660.32
427.586	4893.79
427.794	4873.31
428.001	5162.08
428.209	5456.98
428.417	5196.89
428.624	5602.39
428.832	5586.01
429.039	5606.49
429.247	5743.7
429.454	6149.2
429.662	6552.65
429.869	6200.4
430.076	6503.5
430.284	6317.13
430.491	6648.9
430.699	7126.08
430.906	7257.15
431.114	7218.24
431.321	7294.01
431.528	7513.14
431.736	7867.44
431.943	8338.48
432.15	8010.8
432.358	8178.73
432.565	8784.93
432.772	8559.66
432.979	9126.94
433.187	9294.88
433.394	9247.77
433.601	9909.27
433.808	9843.73
434.016	9958.42
434.223	10241.04
434.43	10908.68
434.637	10824.71
434.844	11252.73
435.052	11561.98
435.259	11475.96
435.466	11590.65
435.673	11449.34
435.88	12164.08
436.087	12784.62
436.294	12913.64
436.501	12418.03
436.708	12891.11
436.915	13063.14
437.122	13765.59
437.329	13675.48
437.537	14140.37
437.743	14445.52
437.95	14365.65
438.157	14900.17
438.364	15373.25
438.571	15375.3
438.778	15633.34
438.985	17073.06
439.192	16647.08
439.399	16931.75
439.606	16425.9
439.813	17331.11
440.02	18492.3
440.227	18041.75
440.433	17947.54
440.64	18469.78
440.847	18539.41
441.054	18822.03
441.261	20296.56
441.467	19729.28
441.674	20466.55
441.881	20935.53
442.088	21027.69
442.294	20781.93
442.501	21406.56
442.708	21803.87
442.914	22367.06
443.121	23663.43
443.328	22930.25
443.534	24353.59
443.741	23870.27
443.948	23376.71
444.154	25260.84
444.361	24881.97
444.568	24961.84
444.774	25078.57
444.981	25594.66
445.187	26245.91
445.394	27392.78
445.6	26723.09
445.807	29113.07
446.013	28467.96
446.22	28613.37
446.426	29481.7
446.633	29969.12
446.839	30741.21
447.046	29514.47
447.252	31535.82
447.459	31064.78
447.665	30991.06
447.871	32490.17
448.078	33954.47
448.284	32268.99
448.491	32930.48
448.697	34171.55
448.903	34898.58
449.11	34783.9
449.316	34337.44
449.522	34980.5
449.728	36037.25
449.935	36252.29
450.141	36096.64
450.347	37331.57
450.553	35521.16
450.76	36180.61
450.966	37130.87
451.172	37235.31
451.378	37864.04
451.584	36838.01
451.791	37552.75
451.997	37225.07
452.203	38056.55
452.409	37915.24
452.615	37966.44
452.821	36393.6
453.027	36080.26
453.233	37888.62
453.44	36242.05
453.646	36553.34
453.852	36940.41
454.058	37739.11
454.264	36123.27
454.47	36774.52
454.676	36225.67
454.882	37522.03
455.088	34073.25
455.294	34878.1
455.5	34675.35
455.705	35578.51
455.911	33872.55
456.117	33069.75
456.323	32484.03
456.529	30782.16
456.735	32318.14
456.941	31410.89
457.147	30778.07
457.352	30067.42
457.558	29457.13
457.764	29696.74
457.97	29070.06
458.176	28560.12
458.381	28568.31
458.587	27032.33
458.793	27122.44
458.999	25643.81
459.204	27505.41
459.41	26878.74
459.616	24920.88
459.821	24947.5
460.027	24963.89
460.233	24714.03
460.438	23192.39
460.644	23716.67
460.85	22455.12
461.055	21980
461.261	22158.17
461.466	20294.52
461.672	20231.03
461.878	21128.04
462.083	19819.39
462.289	19753.85
462.494	19200.9
462.7	18416.53
462.905	17929.11
463.111	18588.56
463.316	18801.55
463.522	18178.97
463.727	18160.53
463.932	18123.67
464.138	18115.48
464.343	18113.43
464.549	17488.8
464.754	18113.43
464.959	17879.96
465.165	18058.14
465.37	17408.93
465.575	16772.01
465.781	17511.33
465.986	17501.09
466.191	16815.02
466.397	16511.92
466.602	15895.48
466.807	16452.53
467.012	16155.57
467.218	16182.2
467.423	15981.49
467.628	16112.56
467.833	16823.21
468.038	16061.37
468.244	15637.44
468.449	16157.62
468.654	15514.56
468.859	15717.31
469.064	15799.23
469.269	14846.92
469.474	15211.46
469.679	15387.58
469.885	14812.1
470.09	15274.95
470.295	15137.73
470.5	14433.23
470.705	14910.41
470.91	14494.67
471.115	14533.58
471.32	14590.92
471.525	14154.71
471.73	14132.18
471.935	13966.29
472.139	13587.42
472.344	13628.38
472.549	13655
472.754	13399.01
472.959	13149.15
473.164	12717.03
473.369	12757.99
473.574	13292.51
473.778	13183.97
473.983	12884.97
474.188	12841.96
474.393	12354.54
474.598	12536.81
474.802	12141.55
475.007	12041.2
475.212	12155.89
475.417	11828.21
475.621	11695.1
475.826	11836.41
476.031	11633.66
476.235	11293.69
476.44	11377.66
476.645	11074.56
476.849	11269.12
477.054	11150.34
477.259	11062.27
477.463	11029.51
477.668	10699.78
477.872	11117.57
478.077	10490.89
478.282	10617.86
478.486	10478.6
478.691	10433.55
478.895	10472.46
479.1	10087.44
479.304	10292.24
479.509	9853.97
479.713	10083.34
479.918	9966.61
480.122	9679.89
480.326	9968.66
480.531	10001.43
480.735	9806.87
480.94	9622.55
481.144	9993.23
481.348	9554.97
481.553	9780.25
481.757	9432.09
481.961	9657.37
482.166	9800.73
482.37	9550.87
482.574	9509.91
482.778	9548.82
482.983	9632.79
483.187	9413.66
483.391	9696.28
483.595	9415.71
483.8	9366.56
484.004	9419.8
484.208	9589.78
484.412	9491.48
484.616	9731.09
484.821	9409.56
485.025	9253.92
485.229	9440.28
485.433	9483.29
485.637	9362.46
485.841	9413.66
486.045	9436.19
486.249	9514.01
486.453	9501.72
486.657	9346.08
486.861	9606.17
487.065	9081.89
487.269	9497.63
487.473	9372.7
487.677	9518.11
487.881	9706.52
488.085	9620.5
488.289	9479.19
488.493	9364.51
488.697	9608.22
488.901	9612.31
489.105	9604.12
489.309	9727
489.512	9538.59
489.716	9464.86
489.92	9655.32
490.124	9643.03
490.328	9776.15
490.531	9612.31
490.735	9874.45
490.939	9722.9
491.143	9688.09
491.346	9645.08
491.55	9964.56
491.754	9982.99
491.958	10015.76
492.161	10048.53
492.365	10017.81
492.569	10046.48
492.772	10075.15
492.976	10265.61
493.18	10214.41
493.383	10402.83
493.587	10589.19
493.79	10560.52
493.994	10331.15
494.197	10482.7
494.401	10646.54
494.605	10650.63
494.808	10750.98
495.012	10673.16
495.215	10806.28
495.419	10863.62
495.622	11009.03
495.825	11105.28
496.029	11115.52
496.232	11469.82
496.436	11422.72
496.639	11564.03
496.843	11518.97
497.046	11662.33
497.249	12053.49
497.453	11867.13
497.656	11830.26
497.859	11824.12
498.063	12213.23
498.266	12225.52
498.469	12151.79
498.673	12420.08
498.876	12725.22
499.079	12864.49
499.282	12874.73
499.485	13192.16
499.689	13073.38
499.892	13396.96
500.095	13358.05
500.298	13824.98
500.501	13589.47
500.705	14091.22
500.908	14189.52
501.111	14289.87
501.314	14435.28
501.517	14638.03
501.72	14814.15
501.923	14834.63
502.126	15018.95
502.329	15109.06
502.532	15121.35
502.735	15455.17
502.938	15856.57
503.141	15729.59
503.344	15907.77
503.547	16085.94
503.75	16317.36
503.953	16735.15
504.156	16745.39
504.359	17044.39
504.562	16819.11
504.765	17361.83
504.968	17310.63
505.17	17388.45
505.373	17806.23
505.576	18031.51
505.779	18305.94
505.982	18305.94
506.185	18713.49
506.387	18711.44
506.59	18656.14
506.793	19026.82
506.996	19049.35
507.198	19778.43
507.401	19657.6
507.604	20034.42
507.807	20435.83
508.009	20562.8
508.212	20464.5
508.415	21003.11
508.617	21212.01
508.82	20886.38
509.022	21132.14
509.225	21623.65
509.428	22041.43
509.63	22012.76
509.833	21994.33
510.035	22594.39
510.238	22399.83
510.44	22651.73
510.643	22942.54
510.845	23487.3
511.048	23186.25
511.25	23774.02
511.453	24159.03
511.655	24632.11
511.858	24384.31
512.06	24716.08
512.262	24707.89
512.465	24994.61
512.667	25393.96
512.87	25551.65
513.072	25828.13
513.274	26100.51
513.477	26278.68
513.679	26497.81
513.881	26931.98
514.084	27179.79
514.286	26995.47
514.488	27380.49
514.69	27632.39
514.893	28183.29
515.095	28111.61
515.297	28584.69
515.499	28635.89
515.701	28906.23
515.904	29510.38
516.106	29467.37
516.308	29825.76
516.51	30642.9
516.712	30261.98
516.914	30530.26
517.116	31324.88
517.318	30978.77
517.52	31541.96
517.722	31486.67
517.925	32244.41
518.127	32547.51
518.329	32719.54
518.531	32244.41
518.733	33086.13
518.935	33493.68
519.136	33612.46
519.338	33823.4
519.54	34009.76
519.742	34286.24
519.944	34665.11
520.146	34726.55
520.348	35177.11
520.55	35152.53
520.752	35406.48
520.954	36055.68
521.155	35959.43
521.357	36340.35
521.559	36520.57
521.761	37288.56
521.963	37608.04
522.164	37663.34
522.366	37618.28
522.568	37747.31
522.77	38322.79
522.971	38769.24
523.173	38871.64
523.375	38791.77
523.576	39082.58
523.778	38836.83
523.98	39742.03
524.181	40018.5
524.383	39735.88
524.584	40208.97
524.786	40489.54
524.988	40489.54
525.189	40677.95
525.391	40858.17
525.592	41632.3
525.794	41593.39
525.995	41724.46
526.197	41599.54
526.398	41865.77
526.6	42263.08
526.801	42025.51
527.003	42496.55
527.204	42887.71
527.406	43180.57
527.607	43250.2
527.808	43190.81
528.01	42830.37
528.211	42943
528.412	44134.92
528.614	43825.68
528.815	43565.59
529.016	44349.96
529.218	43950.6
529.419	44124.68
529.62	44376.58
529.822	44046.86
530.023	44343.81
530.224	44220.94
530.425	44333.57
530.626	44403.21
530.828	44083.72
531.029	45081.08
531.23	44612.1
531.431	44802.56
531.632	44935.68
531.833	45072.89
532.035	44974.59
532.236	44954.11
532.437	45566.45
532.638	44919.29
532.839	45283.83
533.04	45711.86
533.241	45119.99
533.442	46109.16
533.643	45539.83
533.844	45523.44
534.045	45732.34
534.246	45548.02
534.447	45943.28
534.648	45586.93
534.849	46055.92
535.05	45515.25
535.251	45629.94
535.451	45570.55
535.652	45937.13
535.853	45625.84
536.054	46008.81
536.255	45834.74
536.456	45074.94
536.657	47034.84
536.857	45570.55
537.058	45347.32
537.259	46096.88
537.46	46014.96
537.66	45670.9
537.861	45867.5
538.062	45695.47
538.263	46055.92
538.463	45961.71
538.664	45959.66
538.865	45660.66
539.065	46318.06
539.266	45826.54
539.466	46320.1
539.667	45640.18
539.868	46182.89
540.068	46141.93
540.269	45799.92
540.469	45867.5
540.67	46100.97
540.87	46365.16
541.071	46053.87
541.271	46426.6
541.472	45658.61
541.672	45699.57
541.873	46092.78
542.073	45601.27
542.274	46432.74
542.474	45804.02
542.675	45629.94
542.875	46195.18
543.075	45842.93
543.276	45650.42
543.476	46246.38
543.676	45869.55
543.877	45834.74
544.077	46121.45
544.277	45740.53
544.478	46229.99
544.678	46051.82
544.878	46172.65
545.078	45672.95
545.279	45089.27
545.479	45930.99
545.679	45924.85
545.879	45847.02
546.079	46031.34
546.28	45531.64
546.48	45464.05
546.68	45634.03
546.88	45582.84
547.08	45900.27
547.28	45902.32
547.48	45302.26
547.68	45621.75
547.88	45294.07
548.081	45863.41
548.281	46066.16
548.481	45523.44
548.681	46184.94
548.881	45642.23
549.081	45281.78
549.28	45634.03
549.48	45986.28
549.68	45607.41
549.88	45693.43
550.08	45531.64
550.28	45867.5
550.48	45928.94
550.68	46053.87
550.88	45152.76
551.08	45631.99
551.279	45810.16
551.479	45285.88
551.679	45627.89
551.879	45834.74
552.079	45912.56
552.278	45789.68
552.478	45468.15
552.678	45232.63
552.878	45842.93
553.077	45758.96
553.277	45054.46
553.477	45804.02
553.676	45177.34
553.876	45539.83
554.076	45216.25
554.275	45085.18
554.475	44851.71
554.674	45531.64
554.874	45718
555.074	45271.54
555.273	45253.11
555.473	45408.76
555.672	44800.51
555.872	45187.58
556.071	45048.32
556.271	45468.15
556.47	44890.62
556.67	44655.11
556.869	44634.63
557.068	45191.67
557.268	44460.55
557.467	44872.19
557.667	44847.61
557.866	44642.82
558.065	44376.58
558.265	44544.51
558.464	44249.61
558.663	45208.06
558.863	44220.94
559.062	44880.38
559.261	43872.78
559.461	44196.36
559.66	43852.3
559.859	44200.46
560.058	43930.12
560.258	43700.75
560.457	43860.49
560.656	44141.07
560.855	43624.98
561.054	43985.42
561.253	43469.33
561.453	43651.6
561.652	43581.97
561.851	43745.81
562.05	43461.14
562.249	43190.81
562.448	43797.01
562.647	43680.27
562.846	43297.3
563.045	43137.56
563.244	43164.18
563.443	43319.83
563.642	42807.84
563.841	42838.56
564.04	42576.42
564.239	43211.29
564.438	42254.89
564.637	42664.48
564.836	42140.2
565.035	42054.18
565.234	42246.69
565.432	42275.37
565.631	41742.89
565.83	41562.67
566.029	42113.58
566.228	41800.24
566.427	41806.38
566.625	41613.87
566.824	41075.26
567.023	41919.02
567.222	40895.03
567.42	41615.92
567.619	41290.29
567.818	41067.06
568.016	40903.23
568.215	41527.86
568.414	41165.37
568.612	41067.06
568.811	40510.02
569.01	40522.3
569.208	40239.68
569.407	40608.32
569.605	39737.93
569.804	40669.76
570.002	39830.09
570.201	40188.49
570.4	39803.47
570.598	39305.81
570.797	39416.4
570.995	40067.66
571.193	39436.88
571.392	39610.96
571.59	39051.86
571.789	39248.47
571.987	39139.93
572.186	38752.86
572.384	38902.36
572.582	39019.1
572.781	38648.41
572.979	38480.48
573.177	38660.7
573.376	38576.73
573.574	38089.32
573.772	38185.57
573.971	38222.44
574.169	38044.26
574.367	37958.25
574.565	38310.5
574.763	37749.35
574.962	37892.71
575.16	37382.77
575.358	37972.58
575.556	36987.51
575.754	37839.47
575.952	36938.36
576.151	37757.55
576.349	37294.71
576.547	36926.07
576.745	37122.68
576.943	37147.25
577.141	36668.03
577.339	36786.81
577.537	36827.77
577.735	36553.34
577.933	36508.29
578.131	36725.37
578.329	36240
578.527	36194.95
578.725	36379.26
578.923	36209.28
579.121	35881.61
579.319	35758.73
579.516	36270.72
579.714	35893.89
579.912	35725.96
580.11	35361.42
580.308	35291.79
580.506	35443.34
580.704	34865.81
580.901	35275.41
581.099	34998.93
581.297	34722.46
581.495	34822.81
581.692	35031.7
581.89	34562.72
582.088	34908.82
582.285	34261.66
582.483	34761.37
582.681	34445.98
582.878	34124.45
583.076	33798.82
583.274	33972.9
583.471	34257.57
583.669	33927.84
583.866	33624.75
584.064	34038.44
584.262	33266.35
584.459	33503.92
584.657	33305.26
584.854	33669.8
585.052	33282.73
585.249	33256.11
585.447	33053.36
585.644	33129.14
585.841	32494.27
586.039	33200.82
586.236	32527.03
586.434	32639.67
586.631	32572.09
586.828	32457.4
587.026	32352.96
587.223	32316.09
587.42	31980.23
587.618	32176.83
587.815	31845.06
588.012	31546.06
588.21	31640.26
588.407	31789.77
588.604	31693.51
588.801	31668.94
588.999	31593.16
589.196	31408.84
589.393	31511.24
589.59	31441.61
589.787	31087.31
589.984	30976.72
590.182	30606.04
590.379	31238.86
590.576	30812.88
590.773	30567.13
590.97	30520.02
591.167	30599.9
591.364	30304.99
591.561	29985.51
591.758	30200.54
591.955	30364.38
592.152	30079.71
592.349	30139.1
592.546	30034.66
592.743	30040.8
592.94	29346.54
593.137	29899.49
593.334	30065.38
593.531	29303.53
593.727	29344.49
593.924	29391.59
594.121	29123.31
594.318	29559.53
594.515	28971.76
594.712	29321.96
594.908	28740.34
595.105	28912.37
595.302	28662.52
595.499	28996.34
595.696	28676.85
595.892	28287.74
596.089	28803.83
596.286	28420.86
596.482	28238.59
596.679	28300.03
596.876	28207.87
597.072	27798.27
597.269	27921.15
597.466	27773.7
597.662	27581.19
597.859	27667.2
598.055	27564.81
598.252	27484.94
598.448	27534.09
598.645	27562.76
598.841	27521.8
599.038	27400.97
599.234	27321.1
599.431	26696.47
599.627	26792.72
599.824	27187.98
600.02	26645.27
600.217	26530.58
600.413	26929.94
600.609	26532.63
600.806	26557.21
601.002	26614.55
601.198	26381.08
601.395	26137.37
601.591	26317.59
601.787	25889.57
601.984	26032.93
602.18	26133.28
602.376	25383.72
602.572	25668.39
602.769	25877.28
602.965	25465.64
603.161	25697.06
603.357	25406.25
603.553	25402.15
603.75	25324.33
603.946	25131.82
604.142	25250.6
604.338	25103.15
604.534	25309.99
604.73	24662.83
604.926	24826.67
605.122	24912.69
605.318	24877.87
605.514	24664.88
605.71	24417.08
605.906	24425.27
606.102	24425.27
606.298	24789.81
606.494	24339.26
606.69	24202.04
606.886	24226.62
607.082	23806.78
607.278	24439.61
607.474	23862.08
607.67	23890.75
607.866	23714.62
608.062	24226.62
608.257	23601.99
608.453	23540.55
608.649	23786.3
608.845	23530.31
609.041	23692.1
609.236	23585.6
609.432	23497.54
609.628	23382.85
609.824	23389
610.019	23227.21
610.215	23286.6
610.411	23133
610.606	22846.29
610.802	23024.46
610.998	23003.98
611.193	23081.8
611.389	22569.81
611.584	22696.78
611.78	22426.45
611.976	22590.29
612.171	22905.68
612.367	22434.64
612.562	22440.79
612.758	22293.33
612.953	22340.44
613.149	22668.11
613.344	22551.38
613.539	22580.05
613.735	22543.19
613.93	22602.58
614.126	22328.15
614.321	22649.68
614.517	22365.01
614.712	22045.53
614.907	21875.55
615.103	22119.26
615.298	21738.33
615.493	22174.55
615.688	21566.31
615.884	22283.09
616.079	21584.74
616.274	21980
616.47	21879.64
616.665	21824.35
616.86	21474.15
617.055	21537.63
617.25	21691.23
617.445	21463.91
617.641	21046.12
617.836	21412.71
618.031	21150.57
618.226	21183.34
618.421	20659.06
618.616	21381.99
618.811	21062.51
619.006	21357.41
619.201	20484.98
619.396	20886.38
619.591	20519.79
619.786	20636.53
619.981	20261.75
620.176	20597.62
620.371	20237.17
620.566	20513.65
620.761	20341.62
620.956	20149.11
621.151	19721.09
621.346	20042.62
621.541	19489.67
621.735	20089.72
621.93	19573.63
622.125	19501.95
622.32	19323.78
622.515	19385.22
622.709	19221.38
622.904	19200.9
623.099	19108.74
623.294	19078.02
623.488	18938.76
623.683	18774.92
623.878	18615.18
624.072	18602.89
624.267	18473.87
624.462	18490.26
624.656	18146.2
624.851	18236.31
625.046	17834.91
625.24	17908.63
625.435	17853.34
625.629	17812.38
625.824	17435.55
626.018	17671.07
626.213	17247.14
626.407	17554.33
626.602	17220.52
626.796	17091.49
626.991	17085.35
627.185	16954.28
627.38	16798.63
627.574	16909.22
627.768	16806.83
627.963	16620.46
628.157	16602.03
628.352	16475.06
628.546	16221.11
628.74	16661.42
628.935	16210.87
629.129	16128.95
629.323	16036.79
629.517	16059.32
629.712	15918.01
629.906	16016.31
630.1	15528.89
630.294	15776.7
630.489	15586.24
630.683	15625.15
630.877	15377.34
631.071	14912.46
631.265	15451.07
631.459	14957.51
631.653	14982.09
631.848	14781.39
632.042	14814.15
632.236	15039.43
632.43	14506.96
632.624	14549.96
632.818	14461.9
633.012	14539.72
633.206	14253.01
633.4	14257.11
633.594	14031.83
633.788	14154.71
633.982	14388.18
634.176	14027.73
634.369	13822.94
634.563	13839.32
634.757	13851.61
634.951	13743.06
635.145	13720.54
635.339	13530.08
635.533	13417.44
635.726	13585.37
635.92	13341.66
636.114	13161.44
636.308	13243.36
636.501	13384.67
636.695	13335.52
636.889	12887.01
637.083	12798.95
637.276	12819.43
637.47	12930.02
637.664	12657.64
637.857	12514.28
638.051	12737.51
638.244	12307.44
638.438	12381.17
638.632	12334.06
638.825	12055.54
639.019	12123.12
639.212	12293.1
639.406	12102.64
639.599	11799.54
639.793	12186.61
639.986	11838.45
640.18	11811.83
640.373	11664.38
640.567	11559.93
640.76	11717.62
640.954	11660.28
641.147	11535.35
641.34	11658.23
641.534	11142.14
641.727	11236.35
641.92	11611.13
642.114	11166.72
642.307	11088.9
642.5	11191.3
642.694	10900.48
642.887	10886.15
643.08	10998.79
643.273	10830.85
643.467	10992.64
643.66	10478.6
643.853	10603.53
644.046	10609.67
644.239	10615.82
644.432	10294.29
644.626	10294.29
644.819	10449.93
645.012	10523.66
645.205	10343.44
645.398	10177.55
645.591	10171.41
645.784	9985.04
645.977	10015.76
646.17	9968.66
646.363	9823.25
646.556	9710.61
646.749	9745.43
646.942	9638.94
647.135	9800.73
647.328	9581.59
647.521	9466.91
647.714	9419.8
647.907	9577.5
648.099	9458.71
648.292	9507.87
648.485	9305.12
648.678	9301.02
648.871	9221.15
649.064	9200.67
649.256	8997.92
649.449	9247.77
649.642	9075.74
649.835	8852.52
650.027	8928.29
650.22	9083.94
650.413	8858.66
650.605	8985.63
650.798	8715.3
650.991	8655.91
651.183	8573.99
651.376	8688.68
651.568	8584.23
651.761	8660.01
651.954	8557.61
652.146	8514.6
652.339	8481.83
652.531	8469.55
652.724	8254.51
652.916	8068.14
653.109	8268.84
653.301	8274.99
653.494	8168.49
653.686	8059.95
653.879	8123.44
654.071	8016.94
654.263	8014.9
654.456	8094.77
654.648	8033.33
654.84	7785.52
655.033	7793.72
655.225	7705.65
655.417	7748.66
655.61	7570.49
655.802	7859.25
655.994	7593.01
656.186	7683.13
656.379	7609.4
656.571	7388.22
656.763	7218.24
656.955	7486.52
657.148	7418.94
657.34	7359.55
657.532	7232.57
657.724	7418.94
657.916	7208
658.108	7150.65
658.3	7101.5
658.492	7101.5
658.684	6992.96
658.876	7003.2
659.068	7138.37
659.26	6861.89
659.452	6949.95
659.644	7015.49
659.836	6915.14
660.028	6974.53
660.22	6716.48
660.412	6790.21
660.604	6696
660.796	6753.35
660.988	6724.68
661.18	6724.68
661.372	6534.21
661.563	6712.39
661.755	6489.16
661.947	6399.05
662.139	6523.98
662.331	6360.14
662.522	6339.66
662.714	6425.67
662.906	6487.11
663.097	6360.14
663.289	6347.85
663.481	6319.18
663.673	6265.93
663.864	6138.96
664.056	6153.29
664.247	6188.11
664.439	6032.46
664.631	6190.16
664.822	6052.94
665.014	6102.09
665.205	6042.7
665.397	5905.49
665.588	6077.52
665.78	5905.49
665.971	5934.16
666.163	5897.3
666.354	5852.24
666.546	5815.38
666.737	5606.49
666.929	5624.92
667.12	5690.45
667.311	5753.94
667.503	5594.2
667.694	5747.79
667.885	5674.07
668.077	5659.73
668.268	5583.96
668.459	5534.81
668.651	5553.24
668.842	5479.51
669.033	5477.46
669.224	5536.85
669.416	5497.94
669.607	5467.22
669.798	5471.32
669.989	5479.51
670.18	5268.57
670.371	5436.5
670.563	5229.66
670.754	5362.78
670.945	5299.29
671.136	5311.58
671.327	5248.09
671.518	5178.46
671.709	5082.21
671.9	5151.84
672.091	5153.88
672.282	5157.98
672.473	5078.11
672.664	5164.12
672.855	4996.19
673.046	5110.88
673.237	5084.25
673.428	5033.05
673.619	5002.33
673.809	4799.59
674	4963.42
674.191	5074.01
674.382	4893.79
674.573	4930.66
674.764	4975.71
674.954	4865.12
675.145	4727.91
675.336	4924.51
675.527	4865.12
675.717	4908.13
675.908	4785.25
676.099	4742.24
676.289	4736.1
676.48	4850.78
676.671	4799.59
676.861	4746.34
677.052	4740.19
677.243	4754.53
677.433	4842.59
677.624	4658.28
677.814	4562.02
678.005	4627.56
678.195	4693.09
678.386	4562.02
678.576	4707.43
678.767	4686.95
678.957	4680.8
679.148	4723.81
679.338	4719.71
679.529	4566.12
679.719	4480.1
679.909	4674.66
680.1	4707.43
680.29	4584.55
680.481	4572.26
680.671	4508.77
680.861	4562.02
681.052	4576.36
681.242	4396.14
681.432	4607.08
681.622	4512.87
681.813	4588.64
682.003	4533.35
682.193	4473.96
682.383	4664.42
682.573	4666.47
682.764	4412.52
682.954	4414.57
683.144	4478.05
683.334	4418.66
683.524	4529.25
683.714	4414.57
683.904	4349.03
684.094	4328.55
684.284	4453.48
684.474	4467.81
684.664	4467.81
684.854	4500.58
685.044	4308.07
685.234	4205.67
685.424	4340.84
685.614	4406.38
685.804	4275.31
685.994	4289.64
686.184	4174.95
686.374	4193.39
686.564	4271.21
686.753	4320.36
686.943	4154.48
687.133	4170.86
687.323	4177
687.513	4299.88
687.702	4230.25
687.892	4136.04
688.082	4136.04
688.272	4134
688.461	4033.65
688.651	4131.95
688.841	4097.13
689.03	4041.84
689.22	4035.69
689.41	4119.66
689.599	3994.73
689.789	4043.88
689.979	3961.97
690.168	3998.83
690.358	3945.58
690.547	4004.97
690.737	4039.79
690.926	3910.77
691.116	3843.18
691.305	3949.68
691.495	3808.37
691.684	3759.22
691.874	3849.33
692.063	3890.29
692.252	3812.46
692.442	3787.89
692.631	3650.67
692.82	3767.41
693.01	3644.53
693.199	3761.27
693.388	3613.81
693.578	3693.68
693.767	3806.32
693.956	3761.27
694.146	3644.53
694.335	3628.15
694.524	3630.2
694.713	3658.87
694.902	3601.52
695.092	3624.05
695.281	3671.15
695.47	3617.91
695.659	3593.33
695.848	3562.61
696.037	3740.79
696.226	3568.76
696.415	3636.34
696.604	3439.73
696.793	3566.71
696.982	3320.95
697.171	3519.6
697.36	3449.97
697.549	3603.57
697.738	3599.48
697.927	3484.79
698.116	3492.98
698.305	3476.6
698.494	3542.13
698.683	3617.91
698.872	3499.13
699.061	3431.54
699.25	3488.89
699.438	3501.17
699.627	3505.27
699.816	3556.47
700.005	3431.54
700.193	3548.28
700.382	3665.01
700.571	3560.56
700.76	3447.93
700.948	3382.39
701.137	3294.33
701.326	3486.84
701.514	3386.49
701.703	3386.49
701.892	3576.95
702.08	3593.33
702.269	3425.4
702.457	3363.96
702.646	3556.47
702.834	3267.7
703.023	3454.07
703.212	3433.59
703.4	3419.25
703.589	3458.17
703.777	3476.6
703.965	3452.02
704.154	3415.16
704.342	3437.69
704.531	3386.49
704.719	3288.18
704.907	3464.31
705.096	3474.55
705.284	3556.47
705.472	3492.98
705.661	3517.56
705.849	3452.02
706.037	3535.99
706.226	3378.3
706.414	3363.96
706.602	3374.2
706.79	3394.68
706.979	3443.83
707.167	3435.64
707.355	3298.42
707.543	3447.93
707.731	3454.07
707.919	3404.92
708.107	3312.76
708.296	3413.11
708.484	3347.58
708.672	3419.25
708.86	3359.86
709.048	3427.45
709.236	3523.7
709.424	3359.86
709.612	3347.58
709.8	3404.92
709.988	3421.3
710.176	3347.58
710.364	3456.12
710.551	3409.01
710.739	3279.99
710.927	3374.2
711.115	3431.54
711.303	3314.81
711.491	3361.91
711.679	3454.07
711.866	3357.82
712.054	3470.45
712.242	3376.25
712.43	3486.84
712.617	3390.58
712.805	3308.66
712.993	3351.67
713.181	3366.01
713.368	3271.8
713.556	3523.7
713.744	3298.42
713.931	3425.4
714.119	3400.82
714.306	3398.77
714.494	3415.16
714.682	3271.8
714.869	3267.7
715.057	3470.45
715.244	3329.14
715.432	3449.97
715.619	3503.22
715.807	3429.49
715.994	3331.19
716.182	3423.35
716.369	3484.79
716.556	3335.29
716.744	3398.77
716.931	3243.13
717.119	3517.56
717.306	3394.68
717.493	3437.69
717.681	3468.41
717.868	3378.3
718.055	3298.42
718.242	3380.34
718.43	3353.72
718.617	3382.39
718.804	3357.82
718.991	3423.35
719.179	3325.05
719.366	3316.86
719.553	3323
719.74	3423.35
719.927	3486.84
720.114	3275.9
720.301	3302.52
720.488	3378.3
720.676	3294.33
720.863	3443.83
721.05	3419.25
721.237	3267.7
721.424	3413.11
721.611	3320.95
721.798	3234.94
721.985	3366.01
722.172	3355.77
722.358	3204.22
722.545	3447.93
722.732	3210.36
722.919	3527.8
723.106	3323
723.293	3306.62
723.48	3290.23
723.667	3316.86
723.853	3406.97
724.04	3271.8
724.227	3304.57
724.414	3337.34
724.6	3404.92
724.787	3251.32
724.974	3349.62
725.161	3378.3
725.347	3183.74
725.534	3347.58
725.72	3288.18
725.907	3474.55
726.094	3288.18
726.28	3310.71
726.467	3185.79
726.653	3386.49
726.84	3216.51
727.027	3435.64
727.213	3210.36
727.4	3327.1
727.586	3087.48
727.773	3212.41
727.959	3316.86
728.145	3415.16
728.332	3277.94
728.518	3179.64
728.705	3212.41
728.891	3210.36
729.077	3148.92
729.264	3275.9
729.45	3153.02
729.636	3169.4
729.823	3173.5
730.009	3062.91
730.195	3234.94
730.382	3290.23
730.568	3165.31
730.754	3153.02
730.94	3103.87
731.126	3323
731.313	3267.7
731.499	3284.09
731.685	3177.59
731.871	3234.94
732.057	3216.51
732.243	3220.6
732.429	3091.58
732.615	3261.56
732.801	3083.39
732.987	3103.87
733.173	3122.3
733.359	3150.97
733.545	3099.77
733.731	3177.59
733.917	3136.63
734.103	3153.02
734.289	3196.03
734.475	3001.47
734.661	3218.55
734.847	3105.92
735.033	3087.48
735.219	3157.11
735.404	3054.72
735.59	3032.19
735.776	3081.34
735.962	3097.72
736.148	3101.82
736.333	2997.37
736.519	3148.92
736.705	3159.16
736.89	2989.18
737.076	3083.39
737.262	2956.41
737.447	3052.67
737.633	3069.05
737.819	2976.89
738.004	3089.53
738.19	2860.16
738.375	2968.7
738.561	3034.24
738.747	2942.08
738.932	2858.11
739.118	3058.81
739.303	2911.36
739.489	2909.31
739.674	2991.23
739.859	2813.06
740.045	2989.18
740.23	2796.67
740.416	2899.07
740.601	2837.63
740.786	2860.16
740.972	2813.06
741.157	2815.1
741.342	2815.1
741.528	2933.89
741.713	2739.33
741.898	2724.99
742.084	2727.04
742.269	2780.29
742.454	2727.04
742.639	2712.71
742.824	2710.66
743.01	2753.66
743.195	2724.99
743.38	2733.18
743.565	2618.5
743.75	2675.84
743.935	2598.02
744.12	2657.41
744.305	2624.64
744.49	2626.69
744.675	2528.39
744.86	2628.74
745.045	2655.36
745.23	2567.3
745.415	2614.4
745.6	2563.2
745.785	2563.2
745.97	2571.4
746.155	2493.57
746.34	2471.04
746.525	2405.51
746.71	2473.09
746.895	2450.57
747.079	2505.86
747.264	2432.13
747.449	2387.08
747.634	2462.85
747.819	2378.89
748.003	2262.15
748.188	2309.26
748.373	2415.75
748.557	2366.6
748.742	2364.55
748.927	2268.3
749.111	2227.34
749.296	2360.45
749.481	2190.47
749.665	2350.21
749.85	2108.55
750.034	2227.34
750.219	2098.31
750.404	2106.51
750.588	2083.98
750.773	2133.13
750.957	2174.09
751.141	2133.13
751.326	2088.07
751.51	2079.88
751.695	2112.65
751.879	2057.36
752.064	2008.2
752.248	2053.26
752.432	2047.12
752.617	2036.88
752.801	1930.38
752.985	1895.57
753.17	1987.72
753.354	1987.72
753.538	1877.13
753.722	1875.09
753.907	1764.5
754.091	1821.84
754.275	1889.42
754.459	1899.66
754.643	1801.36
754.828	1875.09
755.012	1793.17
755.196	1799.31
755.38	1739.92
755.564	1739.92
755.748	1727.63
755.932	1787.02
756.116	1627.28
756.3	1690.77
756.484	1782.93
756.668	1694.86
756.852	1635.47
757.036	1614.99
757.22	1649.81
757.404	1621.14
757.588	1801.36
757.772	1617.04
757.956	1621.14
758.14	1619.09
758.323	1596.56
758.507	1629.33
758.691	1520.79
758.875	1578.13
759.059	1617.04
759.242	1604.75
759.426	1598.61
759.61	1524.88
759.794	1451.16
759.977	1518.74
760.161	1490.07
760.345	1514.64
760.528	1547.41
760.712	1520.79
760.895	1502.36
761.079	1590.42
761.263	1371.29
761.446	1375.38
761.63	1369.24
761.813	1457.3
761.997	1397.91
762.18	1285.27
762.364	1512.6
762.547	1342.61
762.731	1371.29
762.914	1277.08
763.098	1322.13
763.281	1410.2
763.464	1293.46
763.648	1332.37
763.831	1301.65
764.015	1309.85
764.198	1389.72
764.381	1244.31
764.564	1260.7
764.748	1367.19
764.931	1342.61
765.114	1326.23
765.297	1338.52
765.481	1242.26
765.664	1272.98
765.847	1148.06
766.03	1246.36
766.213	1227.93
766.397	1242.26
766.58	1236.12
766.763	1172.63
766.946	1252.5
767.129	1133.72
767.312	1133.72
767.495	1197.21
767.678	1170.58
767.861	1086.62
768.044	1307.8
768.227	1221.78
768.41	1234.07
768.593	1318.04
768.776	1100.95
768.959	1225.88
769.142	1279.13
769.324	1092.76
769.507	1117.34
769.69	1127.58
769.873	1158.3
770.056	1133.72
770.239	1082.52
770.421	1178.78
770.604	1135.77
770.787	1117.34
770.97	1006.75
771.152	1062.04
771.335	1143.96
771.518	1043.61
771.7	1103
771.883	1068.19
772.066	1012.89
772.248	1041.56
772.431	1078.43
772.613	1064.09
772.796	1070.23
772.978	1023.13
773.161	996.51
773.343	965.79
773.526	982.17
773.708	980.12
773.891	912.54
774.073	1057.95
774.256	976.03
774.438	1002.65
774.621	877.73
774.803	883.87
774.985	920.73
775.168	906.4
775.35	879.77
775.532	863.39
775.715	935.07
775.897	937.12
776.079	834.72
776.261	881.82
776.444	877.73
776.626	849.05
776.808	914.59
776.99	906.4
777.173	900.25
777.355	922.78
777.537	799.9
777.719	881.82
777.901	826.53
778.083	935.07
778.265	810.14
778.447	787.61
778.629	775.33
778.811	789.66
778.993	765.09
779.175	777.37
779.357	789.66
779.539	771.23
779.721	822.43
779.903	799.9
780.085	771.23
780.267	658.59
780.449	818.33
780.631	818.33
780.812	830.62
780.994	697.5
781.176	687.26
781.358	683.17
781.54	685.22
781.721	701.6
781.903	689.31
782.085	711.84
782.267	707.74
782.448	638.11
782.63	588.96
782.812	713.89
782.993	705.7
783.175	636.06
783.357	603.3
783.538	605.35
783.72	699.55
783.901	607.39
784.083	550.05
784.264	660.64
784.446	572.58
784.627	613.54
784.809	677.02
784.99	601.25
785.172	658.59
785.353	513.19
785.535	662.69
785.716	617.63
785.897	588.96
786.079	617.63
786.26	560.29
786.441	545.95
786.623	521.38
786.804	564.39
786.985	533.67
787.167	517.28
787.348	480.42
787.529	621.73
787.71	523.43
787.891	531.62
788.073	564.39
788.254	509.09
788.435	527.52
788.616	525.47
788.797	455.84
788.978	513.19
789.159	513.19
789.34	545.95
789.522	490.66
789.703	433.32
789.884	453.8
790.065	593.06
790.246	515.23
790.427	455.84
790.607	468.13
790.788	416.93
790.969	490.66
791.15	486.56
791.331	496.8
791.512	464.04
791.693	439.46
791.874	445.6
792.054	504.99
792.235	404.64
792.416	418.98
792.597	400.55
792.778	488.61
792.958	427.17
793.139	406.69
793.32	461.99
793.5	429.22
793.681	476.32
793.862	461.99
794.042	388.26
794.223	396.45
794.404	363.69
794.584	351.4
794.765	355.49
794.945	365.73
795.126	478.37
795.306	392.36
795.487	421.03
795.667	322.73
795.848	418.98
796.028	361.64
796.209	367.78
796.389	285.86
796.57	273.57
796.75	369.83
796.93	326.82
797.111	410.79
797.291	335.01
797.471	384.16
797.652	318.63
797.832	427.17
798.012	375.97
798.192	359.59
798.373	380.07
798.553	375.97
798.733	363.69
798.913	236.71
799.093	326.82
799.274	375.97
799.454	341.16
799.634	275.62
799.814	378.02
799.994	320.68
800.174	369.83
800.354	361.64
800.534	285.86
800.714	386.21
800.894	267.43
801.074	324.77
801.254	292.01
801.434	339.11
801.614	298.15
801.794	359.59
801.974	674.98
802.154	289.96
802.334	318.63
802.514	328.87
802.693	363.69
802.873	244.9
803.053	332.97
803.233	279.72
803.413	326.82
803.592	244.9
803.772	318.63
803.952	236.71
804.131	255.14
804.311	357.54
804.491	238.76
804.67	214.18
804.85	205.99
805.03	300.2
805.209	285.86
805.389	285.86
805.568	265.38
805.748	253.09
805.928	224.42
806.107	257.19
806.287	302.25
806.466	214.18
806.646	298.15
806.825	277.67
807.004	232.62
807.184	228.52
807.363	292.01
807.543	208.04
807.722	244.9
807.901	226.47
808.081	249
808.26	158.89
808.439	234.66
808.619	210.09
808.798	189.61
808.977	332.97
809.156	259.24
809.336	261.29
809.515	226.47
809.694	246.95
809.873	191.66
810.052	201.9
810.231	259.24
810.411	152.74
810.59	197.8
810.769	283.81
810.948	244.9
811.127	187.56
811.306	208.04
811.485	165.03
811.664	226.47
811.843	187.56
812.022	189.61
812.201	113.83
812.38	183.46
812.559	171.18
812.737	244.9
812.916	134.31
813.095	160.94
813.274	187.56
813.453	191.66
813.632	199.85
813.811	244.9
813.989	154.79
814.168	169.13
814.347	212.14
814.526	214.18
814.704	216.23
814.883	304.29
815.062	201.9
815.24	267.43
815.419	183.46
815.598	218.28
815.776	171.18
815.955	203.94
816.133	109.74
816.312	189.61
816.49	169.13
816.669	173.22
816.847	179.37
817.026	177.32
817.204	197.8
817.383	261.29
817.561	185.51
817.74	152.74
817.918	173.22
818.097	191.66
818.275	169.13
818.453	203.94
818.632	167.08
818.81	162.98
818.988	160.94
819.167	111.78
819.345	134.31
819.523	105.64
819.701	208.04
819.879	214.18
820.058	122.02
820.236	130.22
820.414	146.6
820.592	87.21
820.77	138.41
820.948	185.51
821.127	146.6
821.305	185.51
821.483	48.3
821.661	240.81
821.839	122.02
822.017	119.98
822.195	113.83
822.373	154.79
822.551	122.02
822.729	177.32
822.907	119.98
823.085	134.31
823.262	89.26
823.44	87.21
823.618	142.5
823.796	169.13
823.974	62.63
824.152	99.5
824.329	142.5
824.507	165.03
824.685	191.66
824.863	150.7
825.04	154.79
825.218	224.42
825.396	136.36
825.574	134.31
825.751	146.6
825.929	160.94
826.107	46.25
826.284	54.44
826.462	162.98
826.639	105.64
826.817	105.64
826.994	205.99
827.172	89.26
827.349	177.32
827.527	81.07
827.704	115.88
827.882	109.74
828.059	146.6
828.237	58.54
828.414	124.07
828.591	107.69
828.769	79.02
828.946	105.64
829.124	175.27
829.301	162.98
829.478	117.93
829.655	138.41
829.833	48.3
830.01	42.15
830.187	140.46
830.364	105.64
830.542	179.37
830.719	117.93
830.896	109.74
831.073	103.59
831.25	62.63
831.427	72.87
831.604	89.26
831.782	54.44
831.959	126.12
832.136	60.59
832.313	124.07
832.49	99.5
832.667	122.02
832.844	42.15
833.021	103.59
833.198	54.44
833.374	81.07
833.551	109.74
833.728	150.7
833.905	154.79
834.082	95.4
834.259	50.35
834.436	38.06
834.612	-9.05
834.789	187.56
834.966	93.35
835.143	89.26
835.319	109.74
835.496	54.44
835.673	89.26
835.85	122.02
836.026	83.11
836.203	177.32
836.38	76.97
836.556	97.45
836.733	158.89
836.909	132.26
837.086	72.87
837.262	60.59
837.439	152.74
837.616	140.46
837.792	56.49
837.968	68.78
838.145	38.06
838.321	74.92
838.498	103.59
838.674	85.16
838.851	81.07
839.027	40.11
839.203	48.3
839.38	156.84
839.556	-21.33
839.732	83.11
839.909	44.2
840.085	19.63
840.261	-35.67
840.437	91.31
840.614	109.74
840.79	130.22
840.966	48.3
841.142	52.39
841.318	54.44
841.494	83.11
841.671	83.11
841.847	38.06
842.023	36.01
842.199	56.49
842.375	89.26
842.551	13.48
842.727	5.29
842.903	64.68
843.079	97.45
843.255	93.35
843.431	62.63
843.607	81.07
843.783	72.87
843.959	62.63
844.134	13.48
844.31	191.66
844.486	85.16
844.662	23.72
844.838	5.29
845.013	29.87
845.189	119.98
845.365	58.54
845.541	46.25
845.716	68.78
845.892	13.48
846.068	109.74
846.244	38.06
846.419	72.87
846.595	7.34
846.77	5.29
846.946	97.45
847.122	56.49
847.297	7.34
847.473	68.78
847.648	-15.19
847.824	42.15
847.999	9.39
848.175	25.77
848.35	11.43
848.526	54.44
848.701	50.35
848.876	85.16
849.052	27.82
849.227	109.74
849.403	29.87
849.578	64.68
849.753	56.49
849.929	128.17
850.104	58.54
850.279	97.45
850.454	23.72
850.63	21.67
850.805	138.41
850.98	68.78
851.155	64.68
851.33	60.59
851.505	13.48
851.681	60.59
851.856	79.02
852.031	31.91
852.206	91.31
852.381	21.67
852.556	85.16
852.731	81.07
852.906	70.83
853.081	-39.76
853.256	48.3
853.431	-43.86
853.606	31.91
853.781	42.15
853.956	48.3
854.131	21.67
854.305	15.53
854.48	83.11
854.655	3.24
854.83	-4.95
855.005	48.3
855.18	72.87
855.354	-45.91
855.529	40.11
855.704	-37.72
855.879	64.68
856.053	-25.43
856.228	85.16
856.403	21.67
856.577	50.35
856.752	-97.11
856.926	19.63
857.101	11.43
857.276	-7
857.45	-37.72
857.625	23.72
857.799	87.21
857.974	95.4
858.148	5.29
858.323	-2.9
858.497	29.87
858.672	7.34
858.846	58.54
859.02	83.11
859.195	9.39
859.369	36.01
859.543	13.48
859.718	74.92
859.892	64.68
860.066	19.63
860.241	19.63
860.415	64.68
860.589	111.78
860.763	19.63
860.938	15.53
861.112	87.21
861.286	-4.95
861.46	40.11
861.634	7.34
861.808	62.63
861.982	7.34
862.157	15.53
862.331	17.58
862.505	-37.72
862.679	23.72
862.853	40.11
863.027	-19.29
863.201	64.68
863.375	31.91
863.549	-17.24
863.722	40.11
863.896	-15.19
864.07	31.91
864.244	27.82
864.418	103.59
864.592	115.88
864.766	1.19
864.939	31.91
865.113	27.82
865.287	52.39
865.461	33.96
865.634	-9.05
865.808	33.96
865.982	33.96
866.156	23.72
866.329	-45.91
866.503	40.11
866.676	58.54
866.85	25.77
867.024	-54.1
867.197	36.01
867.371	83.11
867.544	19.63
867.718	-9.05
867.891	64.68
868.065	-52.05
868.238	-9.05
868.412	44.2
868.585	38.06
868.759	27.82
868.932	31.91
869.105	23.72
869.279	40.11
869.452	56.49
869.625	27.82
869.799	-35.67
869.972	-66.39
870.145	-19.29
870.319	23.72
870.492	-33.62
870.665	21.67
870.838	-2.9
871.011	40.11
871.185	-21.33
871.358	-7
871.531	5.29
871.704	25.77
871.877	46.25
872.05	68.78
872.223	-45.91
872.396	29.87
872.569	5.29
872.742	7.34
872.915	72.87
873.088	31.91
873.261	5.29
873.434	-43.86
873.607	15.53
873.78	40.11
873.953	27.82
874.126	95.4
874.299	44.2
874.471	36.01
874.644	-15.19
874.817	48.3
874.99	103.59
875.163	81.07
875.335	70.83
875.508	23.72
875.681	-21.33
875.853	7.34
876.026	33.96
876.199	-4.95
876.371	38.06
876.544	38.06
876.717	7.34
876.889	11.43
877.062	-43.86
877.234	-90.96
877.407	89.26
877.579	21.67
877.752	9.39
877.924	29.87
878.097	-13.14
878.269	36.01
878.442	72.87
878.614	76.97
878.786	50.35
878.959	19.63
879.131	138.41
879.303	-68.44
879.476	-23.38
879.648	72.87
879.82	7.34
879.993	-60.24
880.165	76.97
880.337	11.43
880.509	-27.48
880.681	40.11
880.854	17.58
881.026	3.24
881.198	-0.85
881.37	7.34
881.542	-19.29
881.714	-9.05
881.886	7.34
882.058	7.34
882.23	52.39
882.402	7.34
882.574	25.77
882.746	87.21
882.918	56.49
883.09	21.67
883.262	1.19
883.434	-0.85
883.606	-11.09
883.778	36.01
883.95	101.55
884.122	11.43
884.293	-0.85
884.465	-41.81
884.637	50.35
884.809	48.3
884.98	17.58
885.152	5.29
885.324	-0.85
885.496	-13.14
885.667	-4.95
885.839	36.01
886.011	-29.52
886.182	19.63
886.354	-11.09
886.525	56.49
886.697	-9.05
886.869	38.06
887.04	31.91
887.212	56.49
887.383	1.19
887.555	29.87
887.726	15.53
887.897	17.58
888.069	52.39
888.24	46.25
888.412	50.35
888.583	-21.33
888.754	-62.29
888.926	-33.62
889.097	21.67
889.268	5.29
889.44	11.43
889.611	-62.29
889.782	-47.96
889.953	-74.58
890.125	48.3
890.296	-17.24
890.467	-43.86
890.638	-11.09
890.809	48.3
890.98	-21.33
891.151	42.15
891.323	62.63
891.494	27.82
891.665	-9.05
891.836	50.35
892.007	68.78
892.178	1.19
892.349	-9.05
892.52	-90.96
892.691	7.34
892.862	1.19
893.032	13.48
893.203	5.29
893.374	7.34
893.545	-0.85
893.716	42.15
893.887	-2.9
894.057	-0.85
894.228	36.01
894.399	40.11
894.57	70.83
894.74	1.19
894.911	-0.85
895.082	-0.85
895.253	-66.39
895.423	7.34
895.594	-0.85
895.764	-21.33
895.935	1.19
896.106	-45.91
896.276	7.34
896.447	9.39
896.617	46.25
896.788	-103.25
896.958	9.39
897.129	-103.25
897.299	23.72
897.47	46.25
897.64	-33.62
897.81	-35.67
897.981	23.72
898.151	44.2
898.322	-50
898.492	-2.9
898.662	-68.44
898.832	-13.14
899.003	38.06
899.173	21.67
899.343	-0.85
899.513	-25.43
