Data from USB4F104151__73__10-24-07-961.txt Node

Date: Wed Mar 12 10:24:07 EDT 2025
User: louis
Spectrometer: USB4F10415
Trigger mode: 4
Integration Time (sec): 3.000000E-2
Scans to average: 1
Electric dark correction enabled: true
Nonlinearity correction enabled: false
Boxcar width: 0
XAxis mode: Wavelengths
Number of Pixels in Spectrum: 3648
>>>>>Begin Spectral Data<<<<<
178.204	-36.01
178.424	-36.01
178.644	-36.01
178.864	-23.72
179.084	-29.87
179.304	-66.73
179.524	-17.58
179.744	41.81
179.964	-21.67
180.184	-15.53
180.404	-5.29
180.624	-11.43
180.844	33.62
181.064	-15.53
181.283	-13.48
181.503	15.19
181.723	76.63
181.943	-50.35
182.163	43.86
182.383	33.62
182.602	43.86
182.822	166.74
183.042	33.62
183.262	47.96
183.482	50
183.701	2.9
183.921	54.1
184.141	47.96
184.361	78.68
184.58	88.92
184.8	50
185.02	43.86
185.239	62.29
185.459	31.57
185.679	27.48
185.898	4.95
186.118	19.29
186.338	58.2
186.557	-13.48
186.777	-52.39
186.997	29.52
187.216	23.38
187.436	47.96
187.655	115.54
187.875	90.96
188.095	-38.06
188.314	86.87
188.534	74.58
188.753	15.19
188.973	-23.72
189.192	58.2
189.412	19.29
189.631	35.67
189.851	19.29
190.07	109.4
190.29	-3.24
190.509	-1.19
190.729	74.58
190.948	13.14
191.168	119.64
191.387	76.63
191.607	27.48
191.826	45.91
192.045	-25.77
192.265	-44.2
192.484	88.92
192.704	-27.82
192.923	45.91
193.142	56.15
193.362	82.77
193.581	33.62
193.8	164.69
194.02	-7.34
194.239	72.53
194.458	66.39
194.678	11.09
194.897	80.72
195.116	66.39
195.335	29.52
195.555	66.39
195.774	56.15
195.993	80.72
196.212	62.29
196.432	29.52
196.651	54.1
196.87	-7.34
197.089	43.86
197.308	68.44
197.528	52.05
197.747	-11.43
197.966	78.68
198.185	19.29
198.404	21.33
198.623	7
198.842	52.05
199.062	105.3
199.281	52.05
199.5	52.05
199.719	125.78
199.938	117.59
200.157	123.73
200.376	19.29
200.595	29.52
200.814	133.97
201.033	-23.72
201.252	66.39
201.471	136.02
201.69	54.1
201.909	9.05
202.128	19.29
202.347	74.58
202.566	76.63
202.785	-1.19
203.004	-31.91
203.223	103.25
203.442	62.29
203.661	31.57
203.879	76.63
204.098	76.63
204.317	4.95
204.536	17.24
204.755	43.86
204.974	33.62
205.193	29.52
205.411	66.39
205.63	0.85
205.849	2.9
206.068	64.34
206.287	41.81
206.505	90.96
206.724	45.91
206.943	33.62
207.162	-3.24
207.381	21.33
207.599	29.52
207.818	17.24
208.037	15.19
208.255	29.52
208.474	90.96
208.693	62.29
208.911	-36.01
209.13	19.29
209.349	45.91
209.567	72.53
209.786	138.07
210.005	140.12
210.223	45.91
210.442	45.91
210.661	62.29
210.879	33.62
211.098	-19.63
211.316	45.91
211.535	62.29
211.753	41.81
211.972	11.09
212.191	31.57
212.409	50
212.628	74.58
212.846	-3.24
213.065	86.87
213.283	54.1
213.502	101.2
213.72	29.52
213.938	33.62
214.157	97.11
214.375	39.76
214.594	93.01
214.812	70.48
215.031	109.4
215.249	39.76
215.467	56.15
215.686	84.82
215.904	62.29
216.122	33.62
216.341	66.39
216.559	-1.19
216.778	21.33
216.996	66.39
217.214	17.24
217.432	17.24
217.651	97.11
217.869	35.67
218.087	27.48
218.306	13.14
218.524	35.67
218.742	70.48
218.96	111.44
219.179	84.82
219.397	66.39
219.615	103.25
219.833	45.91
220.051	109.4
220.27	78.68
220.488	74.58
220.706	52.05
220.924	9.05
221.142	7
221.36	84.82
221.578	103.25
221.796	90.96
222.015	107.35
222.233	54.1
222.451	11.09
222.669	76.63
222.887	56.15
223.105	11.09
223.323	29.52
223.541	13.14
223.759	17.24
223.977	-7.34
224.195	99.16
224.413	33.62
224.631	72.53
224.849	119.64
225.067	76.63
225.285	56.15
225.503	37.72
225.721	0.85
225.939	93.01
226.157	47.96
226.375	95.06
226.592	4.95
226.81	43.86
227.028	86.87
227.246	95.06
227.464	0.85
227.682	93.01
227.9	66.39
228.117	23.38
228.335	0.85
228.553	119.64
228.771	74.58
228.989	107.35
229.206	-11.43
229.424	31.57
229.642	41.81
229.86	7
230.077	17.24
230.295	133.97
230.513	95.06
230.731	74.58
230.948	84.82
231.166	68.44
231.384	25.43
231.601	37.72
231.819	115.54
232.037	54.1
232.254	43.86
232.472	72.53
232.689	111.44
232.907	25.43
233.125	58.2
233.342	43.86
233.56	50
233.777	27.48
233.995	111.44
234.213	33.62
234.43	9.05
234.648	86.87
234.865	45.91
235.083	-5.29
235.3	-13.48
235.518	50
235.735	133.97
235.953	109.4
236.17	103.25
236.388	68.44
236.605	72.53
236.822	127.83
237.04	156.5
237.257	45.91
237.475	21.33
237.692	45.91
237.909	37.72
238.127	17.24
238.344	50
238.562	58.2
238.779	25.43
238.996	105.3
239.214	62.29
239.431	45.91
239.648	13.14
239.865	21.33
240.083	4.95
240.3	136.02
240.517	80.72
240.735	35.67
240.952	86.87
241.169	160.59
241.386	82.77
241.603	13.14
241.821	27.48
242.038	80.72
242.255	99.16
242.472	-5.29
242.689	93.01
242.907	107.35
243.124	45.91
243.341	-17.58
243.558	9.05
243.775	21.33
243.992	99.16
244.209	97.11
244.426	15.19
244.643	27.48
244.86	19.29
245.078	23.38
245.295	68.44
245.512	74.58
245.729	25.43
245.946	45.91
246.163	0.85
246.38	80.72
246.597	43.86
246.814	45.91
247.031	101.2
247.248	21.33
247.464	45.91
247.681	50
247.898	111.44
248.115	39.76
248.332	35.67
248.549	74.58
248.766	78.68
248.983	19.29
249.2	86.87
249.417	33.62
249.633	54.1
249.85	52.05
250.067	60.24
250.284	25.43
250.501	70.48
250.717	66.39
250.934	101.2
251.151	72.53
251.368	9.05
251.585	93.01
251.801	27.48
252.018	35.67
252.235	15.19
252.451	-5.29
252.668	37.72
252.885	41.81
253.102	4.95
253.318	11.09
253.535	4.95
253.752	82.77
253.968	99.16
254.185	29.52
254.401	70.48
254.618	27.48
254.835	23.38
255.051	125.78
255.268	33.62
255.484	27.48
255.701	29.52
255.917	-1.19
256.134	62.29
256.351	25.43
256.567	111.44
256.784	25.43
257	35.67
257.217	66.39
257.433	70.48
257.65	43.86
257.866	45.91
258.082	27.48
258.299	13.14
258.515	33.62
258.732	-33.96
258.948	93.01
259.165	17.24
259.381	15.19
259.597	103.25
259.814	50
260.03	33.62
260.246	107.35
260.463	88.92
260.679	138.07
260.895	58.2
261.112	43.86
261.328	88.92
261.544	62.29
261.761	127.83
261.977	11.09
262.193	29.52
262.409	45.91
262.626	29.52
262.842	66.39
263.058	-9.39
263.274	56.15
263.49	154.45
263.707	113.49
263.923	39.76
264.139	9.05
264.355	50
264.571	41.81
264.787	74.58
265.004	62.29
265.22	101.2
265.436	144.21
265.652	52.05
265.868	56.15
266.084	50
266.3	90.96
266.516	-13.48
266.732	84.82
266.948	109.4
267.164	95.06
267.38	103.25
267.596	127.83
267.812	113.49
268.028	97.11
268.244	62.29
268.46	93.01
268.676	62.29
268.892	43.86
269.108	-21.67
269.324	39.76
269.54	9.05
269.756	109.4
269.972	7
270.188	33.62
270.403	35.67
270.619	72.53
270.835	131.92
271.051	62.29
271.267	109.4
271.483	121.68
271.698	45.91
271.914	58.2
272.13	78.68
272.346	99.16
272.562	29.52
272.777	37.72
272.993	-46.25
273.209	-3.24
273.425	74.58
273.64	4.95
273.856	45.91
274.072	105.3
274.287	133.97
274.503	13.14
274.719	54.1
274.934	60.24
275.15	13.14
275.366	-36.01
275.581	13.14
275.797	52.05
276.012	90.96
276.228	62.29
276.444	43.86
276.659	62.29
276.875	33.62
277.09	84.82
277.306	52.05
277.521	60.24
277.737	64.34
277.952	52.05
278.168	45.91
278.383	0.85
278.599	-7.34
278.814	125.78
279.03	9.05
279.245	62.29
279.461	60.24
279.676	105.3
279.892	45.91
280.107	119.64
280.322	4.95
280.538	15.19
280.753	-3.24
280.969	72.53
281.184	15.19
281.399	103.25
281.615	70.48
281.83	76.63
282.045	62.29
282.26	66.39
282.476	105.3
282.691	78.68
282.906	29.52
283.122	68.44
283.337	45.91
283.552	17.24
283.767	-27.82
283.983	78.68
284.198	72.53
284.413	68.44
284.628	-25.77
284.843	23.38
285.058	62.29
285.274	76.63
285.489	13.14
285.704	113.49
285.919	93.01
286.134	54.1
286.349	-27.82
286.564	4.95
286.779	123.73
286.995	70.48
287.21	72.53
287.425	101.2
287.64	105.3
287.855	78.68
288.07	95.06
288.285	95.06
288.5	82.77
288.715	45.91
288.93	-40.11
289.145	31.57
289.36	70.48
289.575	62.29
289.79	56.15
290.004	82.77
290.219	64.34
290.434	33.62
290.649	72.53
290.864	-3.24
291.079	-7.34
291.294	58.2
291.509	90.96
291.724	17.24
291.938	103.25
292.153	80.72
292.368	66.39
292.583	131.92
292.798	80.72
293.012	86.87
293.227	88.92
293.442	70.48
293.657	39.76
293.871	86.87
294.086	37.72
294.301	29.52
294.516	64.34
294.73	109.4
294.945	105.3
295.16	41.81
295.374	86.87
295.589	80.72
295.804	72.53
296.018	93.01
296.233	82.77
296.447	23.38
296.662	25.43
296.877	183.12
297.091	62.29
297.306	68.44
297.52	74.58
297.735	115.54
297.949	-7.34
298.164	80.72
298.378	62.29
298.593	54.1
298.807	62.29
299.022	101.2
299.236	95.06
299.451	33.62
299.665	43.86
299.88	11.09
300.094	41.81
300.309	33.62
300.523	-19.63
300.737	35.67
300.952	33.62
301.166	103.25
301.381	70.48
301.595	66.39
301.809	50
302.024	105.3
302.238	54.1
302.452	39.76
302.667	50
302.881	25.43
303.095	64.34
303.309	39.76
303.524	0.85
303.738	27.48
303.952	45.91
304.166	45.91
304.381	17.24
304.595	117.59
304.809	-1.19
305.023	133.97
305.237	4.95
305.452	68.44
305.666	99.16
305.88	58.2
306.094	4.95
306.308	152.4
306.522	29.52
306.736	80.72
306.95	60.24
307.164	56.15
307.379	-1.19
307.593	39.76
307.807	35.67
308.021	72.53
308.235	78.68
308.449	-1.19
308.663	27.48
308.877	148.31
309.091	58.2
309.305	138.07
309.519	21.33
309.733	136.02
309.947	-58.54
310.161	90.96
310.374	125.78
310.588	43.86
310.802	58.2
311.016	105.3
311.23	41.81
311.444	52.05
311.658	47.96
311.872	70.48
312.085	39.76
312.299	125.78
312.513	54.1
312.727	50
312.941	29.52
313.154	93.01
313.368	62.29
313.582	84.82
313.796	90.96
314.009	33.62
314.223	70.48
314.437	72.53
314.651	107.35
314.864	78.68
315.078	31.57
315.292	50
315.505	-5.29
315.719	35.67
315.933	95.06
316.146	84.82
316.36	107.35
316.573	119.64
316.787	88.92
317.001	72.53
317.214	97.11
317.428	45.91
317.641	-23.72
317.855	97.11
318.068	41.81
318.282	68.44
318.495	70.48
318.709	4.95
318.922	21.33
319.136	107.35
319.349	54.1
319.563	99.16
319.776	37.72
319.99	66.39
320.203	66.39
320.417	45.91
320.63	80.72
320.843	90.96
321.057	142.16
321.27	86.87
321.483	84.82
321.697	109.4
321.91	129.88
322.124	86.87
322.337	60.24
322.55	43.86
322.763	9.05
322.977	66.39
323.19	54.1
323.403	54.1
323.617	95.06
323.83	82.77
324.043	70.48
324.256	25.43
324.469	-23.72
324.683	123.73
324.896	95.06
325.109	54.1
325.322	11.09
325.535	84.82
325.748	62.29
325.962	123.73
326.175	68.44
326.388	66.39
326.601	107.35
326.814	103.25
327.027	-9.39
327.24	82.77
327.453	25.43
327.666	11.09
327.879	152.4
328.092	35.67
328.305	47.96
328.518	129.88
328.731	99.16
328.944	60.24
329.157	45.91
329.37	74.58
329.583	150.36
329.796	88.92
330.009	50
330.222	103.25
330.435	84.82
330.648	70.48
330.861	152.4
331.073	66.39
331.286	-17.58
331.499	62.29
331.712	52.05
331.925	11.09
332.138	68.44
332.35	78.68
332.563	58.2
332.776	138.07
332.989	-5.29
333.202	115.54
333.414	86.87
333.627	-31.91
333.84	84.82
334.053	37.72
334.265	64.34
334.478	9.05
334.691	76.63
334.903	103.25
335.116	113.49
335.329	-15.53
335.541	127.83
335.754	103.25
335.966	66.39
336.179	93.01
336.392	88.92
336.604	11.09
336.817	58.2
337.029	119.64
337.242	80.72
337.454	56.15
337.667	82.77
337.88	103.25
338.092	33.62
338.305	93.01
338.517	37.72
338.729	115.54
338.942	78.68
339.154	39.76
339.367	93.01
339.579	78.68
339.792	66.39
340.004	45.91
340.217	4.95
340.429	78.68
340.641	21.33
340.854	74.58
341.066	64.34
341.278	11.09
341.491	90.96
341.703	93.01
341.915	78.68
342.128	35.67
342.34	90.96
342.552	43.86
342.764	52.05
342.977	70.48
343.189	50
343.401	115.54
343.613	-11.43
343.826	64.34
344.038	45.91
344.25	52.05
344.462	45.91
344.674	111.44
344.886	2.9
345.099	105.3
345.311	113.49
345.523	82.77
345.735	37.72
345.947	60.24
346.159	66.39
346.371	64.34
346.583	125.78
346.795	62.29
347.007	15.19
347.219	103.25
347.431	74.58
347.643	13.14
347.855	45.91
348.067	0.85
348.279	66.39
348.491	113.49
348.703	31.57
348.915	-17.58
349.127	-11.43
349.339	84.82
349.551	86.87
349.763	76.63
349.975	45.91
350.187	76.63
350.399	95.06
350.61	144.21
350.822	72.53
351.034	84.82
351.246	11.09
351.458	121.68
351.669	66.39
351.881	101.2
352.093	62.29
352.305	54.1
352.517	109.4
352.728	148.31
352.94	82.77
353.152	74.58
353.363	29.52
353.575	146.26
353.787	50
353.999	31.57
354.21	58.2
354.422	-11.43
354.633	29.52
354.845	111.44
355.057	41.81
355.268	82.77
355.48	109.4
355.692	50
355.903	97.11
356.115	39.76
356.326	35.67
356.538	70.48
356.749	62.29
356.961	31.57
357.172	68.44
357.384	15.19
357.595	97.11
357.807	70.48
358.018	-5.29
358.23	76.63
358.441	78.68
358.653	68.44
358.864	62.29
359.075	41.81
359.287	88.92
359.498	66.39
359.709	95.06
359.921	150.36
360.132	129.88
360.344	19.29
360.555	103.25
360.766	84.82
360.977	78.68
361.189	140.12
361.4	29.52
361.611	97.11
361.823	95.06
362.034	119.64
362.245	-46.25
362.456	19.29
362.667	99.16
362.879	35.67
363.09	113.49
363.301	68.44
363.512	86.87
363.723	64.34
363.935	93.01
364.146	27.48
364.357	107.35
364.568	72.53
364.779	29.52
364.99	95.06
365.201	4.95
365.412	78.68
365.623	152.4
365.834	95.06
366.045	62.29
366.256	39.76
366.467	37.72
366.678	66.39
366.889	45.91
367.1	19.29
367.311	183.12
367.522	-1.19
367.733	95.06
367.944	35.67
368.155	117.59
368.366	70.48
368.577	33.62
368.788	133.97
368.999	45.91
369.209	103.25
369.42	127.83
369.631	121.68
369.842	68.44
370.053	39.76
370.264	68.44
370.474	43.86
370.685	41.81
370.896	99.16
371.107	133.97
371.317	62.29
371.528	78.68
371.739	56.15
371.95	95.06
372.16	119.64
372.371	99.16
372.582	80.72
372.792	64.34
373.003	72.53
373.214	70.48
373.424	107.35
373.635	70.48
373.846	156.5
374.056	21.33
374.267	181.07
374.477	58.2
374.688	99.16
374.898	68.44
375.109	119.64
375.319	56.15
375.53	97.11
375.74	127.83
375.951	80.72
376.161	13.14
376.372	168.79
376.582	13.14
376.793	86.87
377.003	60.24
377.214	60.24
377.424	158.55
377.635	119.64
377.845	13.14
378.055	125.78
378.266	52.05
378.476	29.52
378.686	99.16
378.897	140.12
379.107	45.91
379.317	103.25
379.528	101.2
379.738	54.1
379.948	39.76
380.158	131.92
380.369	95.06
380.579	21.33
380.789	33.62
380.999	68.44
381.21	50
381.42	119.64
381.63	-29.87
381.84	111.44
382.05	84.82
382.261	123.73
382.471	101.2
382.681	64.34
382.891	115.54
383.101	95.06
383.311	27.48
383.521	99.16
383.731	109.4
383.941	109.4
384.151	74.58
384.361	99.16
384.571	168.79
384.781	101.2
384.991	123.73
385.201	109.4
385.411	58.2
385.621	68.44
385.831	127.83
386.041	105.3
386.251	117.59
386.461	50
386.671	76.63
386.881	4.95
387.091	121.68
387.301	105.3
387.511	58.2
387.72	144.21
387.93	70.48
388.14	119.64
388.35	152.4
388.56	90.96
388.769	70.48
388.979	54.1
389.189	52.05
389.399	111.44
389.609	39.76
389.818	136.02
390.028	25.43
390.238	66.39
390.447	33.62
390.657	82.77
390.867	70.48
391.076	62.29
391.286	131.92
391.496	17.24
391.705	86.87
391.915	140.12
392.125	115.54
392.334	107.35
392.544	123.73
392.753	52.05
392.963	107.35
393.172	111.44
393.382	50
393.591	187.22
393.801	68.44
394.01	142.16
394.22	54.1
394.429	121.68
394.639	111.44
394.848	115.54
395.058	101.2
395.267	152.4
395.477	158.55
395.686	95.06
395.895	176.98
396.105	197.46
396.314	99.16
396.524	148.31
396.733	74.58
396.942	138.07
397.152	103.25
397.361	226.13
397.57	82.77
397.78	115.54
397.989	127.83
398.198	156.5
398.407	93.01
398.617	74.58
398.826	95.06
399.035	58.2
399.244	191.31
399.453	203.6
399.663	58.2
399.872	78.68
400.081	60.24
400.29	213.84
400.499	150.36
400.708	70.48
400.917	107.35
401.127	50
401.336	125.78
401.545	195.41
401.754	146.26
401.963	170.83
402.172	111.44
402.381	127.83
402.59	72.53
402.799	152.4
403.008	136.02
403.217	152.4
403.426	197.46
403.635	76.63
403.844	172.88
404.053	209.75
404.262	174.93
404.471	148.31
404.68	256.85
404.888	140.12
405.097	183.12
405.306	201.55
405.515	176.98
405.724	181.07
405.933	217.94
406.142	109.4
406.35	232.27
406.559	262.99
406.768	176.98
406.977	213.84
407.185	224.08
407.394	230.23
407.603	238.42
407.812	258.9
408.02	238.42
408.229	211.79
408.438	228.18
408.646	256.85
408.855	217.94
409.064	275.28
409.272	285.52
409.481	324.43
409.69	277.33
409.898	336.72
410.107	346.96
410.315	381.78
410.524	328.53
410.733	324.43
410.941	420.69
411.15	463.69
411.358	373.58
411.567	529.23
411.775	449.36
411.984	455.5
412.192	494.41
412.401	441.17
412.609	525.13
412.818	512.85
413.026	566.09
413.234	543.57
413.443	500.56
413.651	559.95
413.86	494.41
414.068	652.11
414.276	666.44
414.485	684.87
414.693	701.26
414.901	746.31
415.11	701.26
415.318	731.98
415.526	693.07
415.734	807.75
415.943	811.85
416.151	885.58
416.359	779.08
416.567	901.96
416.776	881.48
416.984	891.72
417.192	1033.03
417.4	1000.26
417.608	1010.5
417.817	1096.52
418.025	1084.23
418.233	1209.15
418.441	1219.39
418.649	1227.59
418.857	1307.46
419.065	1346.37
419.273	1321.79
419.481	1424.19
419.689	1502.01
419.897	1391.42
420.105	1598.27
420.313	1592.13
420.521	1569.6
420.729	1569.6
420.937	1854.27
421.145	1897.27
421.353	1997.62
421.561	1940.28
421.769	2016.05
421.977	2149.17
422.185	2100.02
422.393	2282.29
422.601	2286.39
422.809	2210.61
423.017	2378.55
423.224	2507.57
423.432	2538.29
423.64	2669.36
423.848	2853.67
424.056	2681.64
424.263	2870.06
424.471	2921.26
424.679	3037.99
424.887	3156.77
425.094	3226.4
425.302	3353.38
425.51	3318.56
425.718	3541.79
425.925	3582.75
426.133	3717.92
426.341	3834.65
426.548	4018.97
426.756	4016.92
426.964	4080.41
427.171	4303.64
427.379	4363.03
427.586	4487.95
427.794	4643.6
428.001	4961.03
428.209	4852.49
428.417	4938.51
428.624	5329.67
428.832	5411.59
429.039	5280.52
429.247	5317.38
429.454	5788.41
429.662	5989.11
429.869	5741.31
430.076	6236.92
430.284	5866.24
430.491	6308.6
430.699	6648.56
430.906	6701.81
431.114	6773.49
431.321	6855.4
431.528	7152.36
431.736	7578.34
431.943	7688.93
432.15	7664.35
432.358	7641.82
432.565	8278.74
432.772	8123.1
432.979	8487.64
433.187	8708.82
433.394	8725.2
433.601	9214.66
433.808	9216.71
434.016	9284.3
434.223	9671.36
434.43	10300.09
434.637	10083
434.844	10746.55
435.052	10781.36
435.259	10699.44
435.466	11014.83
435.673	10597.04
435.88	11412.14
436.087	12114.59
436.294	12120.73
436.501	11727.52
436.708	11991.71
436.915	12268.19
437.122	12749.46
437.329	12819.09
437.537	13318.79
437.743	13488.78
437.95	13283.98
438.157	14193.28
438.364	14512.76
438.571	14426.75
438.778	14705.27
438.985	15827.56
439.192	15360.62
439.399	15794.79
439.606	15434.35
439.813	16560.73
440.02	17226.32
440.227	17060.43
440.433	16947.79
440.64	17439.31
440.847	17211.98
441.054	17701.45
441.261	18995.76
441.467	18528.83
441.674	19053.11
441.881	19368.49
442.088	19587.63
442.294	19438.12
442.501	20025.89
442.708	20234.78
442.914	21027.35
443.121	21877.26
443.328	21459.47
443.534	22929.91
443.741	22163.97
443.948	21899.78
444.154	23747.05
444.361	23443.95
444.568	23501.29
444.774	23591.41
444.981	23773.67
445.187	24654.3
445.394	25606.61
445.6	25082.33
445.807	27576.75
446.013	26376.64
446.22	26888.64
446.426	27728.3
446.633	28375.46
446.839	28823.97
447.046	28012.97
447.252	29438.36
447.459	29309.33
447.665	29270.42
447.871	30009.74
448.078	31629.68
448.284	30292.36
448.491	31097.21
448.697	32199.02
448.903	32794.98
449.11	32858.46
449.316	31951.21
449.522	32754.02
449.728	33630.55
449.935	34066.77
450.141	33771.86
450.347	34509.13
450.553	33409.37
450.76	33882.45
450.966	34797.89
451.172	34216.27
451.378	35242.3
451.584	34552.13
451.791	35608.89
451.997	35504.44
452.203	35977.52
452.409	35922.23
452.615	35520.82
452.821	34152.78
453.027	33993.04
453.233	35481.91
453.44	34277.71
453.646	34486.6
453.852	34382.15
454.058	35187
454.264	34136.4
454.47	35070.27
454.676	33896.78
454.882	35144
455.088	31844.72
455.294	32512.36
455.5	32692.58
455.705	33149.28
455.911	31781.23
456.117	31345.02
456.323	31074.68
456.529	28959.13
456.735	30265.74
456.941	29612.43
457.147	28848.54
457.352	28213.67
457.558	27869.61
457.764	27875.76
457.97	27738.54
458.176	26786.24
458.381	26749.37
458.587	25512.4
458.793	25700.81
458.999	24117.73
459.204	25856.46
459.41	25258.45
459.616	23493.1
459.821	23476.72
460.027	23452.14
460.233	23138.8
460.438	21946.89
460.644	21942.79
460.85	20998.68
461.055	20779.54
461.261	20726.3
461.466	19345.97
461.672	18707
461.878	19802.66
462.083	18700.86
462.289	18225.73
462.494	18315.84
462.7	17226.32
462.905	16998.99
463.111	17363.53
463.316	17547.85
463.522	17146.45
463.727	17222.22
463.932	17367.63
464.138	17070.67
464.343	16906.84
464.549	16558.68
464.754	17175.12
464.959	16919.12
465.165	16826.96
465.37	16116.32
465.575	15635.05
465.781	15979.11
465.986	16663.13
466.191	15848.04
466.397	15532.65
466.602	14735.99
466.807	15385.19
467.012	15241.84
467.218	15123.05
467.423	15088.24
467.628	15405.67
467.833	15743.59
468.038	15327.85
468.244	14991.98
468.449	15381.1
468.654	14903.92
468.859	14817.91
469.064	14951.03
469.269	14027.39
469.474	13869.7
469.679	14459.51
469.885	13861.51
470.09	14180.99
470.295	14183.04
470.5	13904.51
470.705	14015.1
470.91	13679.24
471.115	13552.26
471.32	13505.16
471.525	13632.13
471.73	13230.73
471.935	13292.17
472.139	12647.06
472.344	12898.96
472.549	12796.56
472.754	12669.59
472.959	12442.26
473.164	12135.07
473.369	12075.68
473.574	12466.84
473.778	12266.14
473.983	11893.41
474.188	12047.01
474.393	11700.9
474.598	11432.61
474.802	11535.01
475.007	11608.74
475.212	11276.97
475.417	11063.98
475.621	11190.95
475.826	10969.77
476.031	10822.32
476.235	10670.77
476.44	10887.86
476.645	10551.99
476.849	10668.72
477.054	10586.8
477.259	10244.79
477.463	10627.76
477.668	10097.34
477.872	10179.26
478.077	10132.15
478.282	9839.3
478.486	10040
478.691	9804.48
478.895	9675.46
479.1	9726.66
479.304	9392.84
479.509	9267.91
479.713	9597.63
479.918	9351.88
480.122	9142.99
480.326	9388.74
480.531	9368.26
480.735	9345.73
480.94	9362.12
481.144	9507.52
481.348	9011.92
481.553	9106.12
481.757	8803.02
481.961	9106.12
482.166	8932.05
482.37	9110.22
482.574	9059.02
482.778	8704.72
482.983	9059.02
483.187	8991.44
483.391	9097.93
483.595	8956.62
483.8	8901.33
484.004	8854.22
484.208	9030.35
484.412	8874.7
484.616	9020.11
484.821	8991.44
485.025	8579.79
485.229	9155.27
485.433	8886.99
485.637	8940.24
485.841	8944.33
486.045	8952.52
486.249	9081.55
486.453	8682.19
486.657	9016.01
486.861	8903.37
487.065	8663.76
487.269	8850.13
487.473	8807.12
487.677	8989.39
487.881	8975.05
488.085	8786.64
488.289	9001.68
488.493	9030.35
488.697	9206.47
488.901	9179.85
489.105	8884.94
489.309	9206.47
489.512	9302.73
489.716	8925.9
489.92	9145.03
490.124	9034.44
490.328	9237.19
490.531	9044.68
490.735	9335.49
490.939	9216.71
491.143	9194.19
491.346	9306.82
491.55	9272.01
491.754	9333.45
491.958	9509.57
492.161	9394.89
492.365	9427.65
492.569	9485
492.772	9614.02
492.976	9763.52
493.18	9697.99
493.383	9831.1
493.587	9720.51
493.79	10015.42
493.994	9646.79
494.197	9827.01
494.401	10076.86
494.605	10171.07
494.808	10146.49
495.012	10232.51
495.215	10310.33
495.419	10209.98
495.622	10416.82
495.825	10388.15
496.029	10508.98
496.232	10726.07
496.436	10656.43
496.639	10971.82
496.843	10797.74
497.046	11270.83
497.249	11162.28
497.453	10986.16
497.656	11221.67
497.859	11305.64
498.063	11690.66
498.266	11862.69
498.469	11690.66
498.673	11846.3
498.876	12145.31
499.079	12167.84
499.282	12108.44
499.485	12346.01
499.689	12518.04
499.892	12896.91
500.095	12890.77
500.298	12999.31
500.501	12814.99
500.705	13300.36
500.908	13630.09
501.111	13476.49
501.314	13759.11
501.517	13775.49
501.72	14107.26
501.923	13787.78
502.126	14414.46
502.329	14727.8
502.532	14506.62
502.735	14652.02
502.938	15225.45
503.141	14942.83
503.344	15141.49
503.547	15078
503.75	15635.05
503.953	15972.96
504.156	15794.79
504.359	15970.91
504.562	16138.85
504.765	16482.91
504.968	16609.88
505.17	16790.1
505.373	16966.23
505.576	17066.58
505.779	17375.82
505.982	17566.28
506.185	17719.88
506.387	17664.58
506.59	18129.47
506.793	18430.52
506.996	18199.1
507.198	18655.8
507.401	18840.12
507.604	19216.94
507.807	19280.43
508.009	19483.18
508.212	19675.69
508.415	19825.19
508.617	20179.49
508.82	20073
509.022	20214.3
509.225	20615.71
509.428	20734.49
509.63	20875.8
509.833	21006.87
510.035	21766.67
510.238	21525
510.44	22034.95
510.643	22260.23
510.845	21938.69
511.048	22266.37
511.25	22565.37
511.453	22860.28
511.655	23591.41
511.858	23497.2
512.06	23437.81
512.262	23773.67
512.465	23869.93
512.667	24205.8
512.87	24510.94
513.072	24250.85
513.274	25078.23
513.477	24994.26
513.679	25575.89
513.881	25508.3
514.084	26063.3
514.286	25924.04
514.488	26044.87
514.69	26907.07
514.893	27081.14
515.095	27027.9
515.297	27214.26
515.499	27812.27
515.701	27802.03
515.904	27990.44
516.106	28408.23
516.308	28653.98
516.51	29151.64
516.712	28942.75
516.914	29491.6
517.116	29563.28
517.318	29804.94
517.52	30245.26
517.722	30275.98
517.925	30454.15
518.127	31392.12
518.329	31259
518.531	31050.11
518.733	31934.83
518.935	32160.11
519.136	31715.7
519.338	32516.45
519.54	32571.75
519.742	32977.25
519.944	33091.93
520.146	33419.61
520.348	34036.05
520.55	33880.4
520.752	34492.74
520.954	34916.67
521.155	34652.48
521.357	34976.06
521.559	35084.61
521.761	35746.1
521.963	36141.36
522.164	36161.84
522.366	36518.18
522.568	36419.88
522.77	36415.79
522.971	37505.31
523.173	36874.53
523.375	37259.55
523.576	37955.86
523.778	37730.58
523.98	38240.53
524.181	38185.23
524.383	38340.88
524.584	38848.77
524.786	39076.1
524.988	38881.54
525.189	39422.2
525.391	39708.92
525.592	39940.34
525.794	40206.58
525.995	40739.05
526.197	39796.98
526.398	40157.42
526.6	40749.29
526.801	40599.79
527.003	41486.56
527.204	41257.18
527.406	41226.46
527.607	41580.76
527.808	41935.06
528.01	41416.93
528.211	41726.17
528.412	42875.08
528.614	42479.82
528.815	42250.45
529.016	42539.21
529.218	42268.88
529.419	42772.68
529.62	42678.47
529.822	42854.6
530.023	42735.82
530.224	42957
530.425	42776.78
530.626	43247.81
530.828	42512.59
531.029	43991.22
531.23	43342.02
531.431	43542.72
531.632	43540.67
531.833	43935.93
532.035	43667.64
532.236	43833.53
532.437	43927.74
532.638	43755.71
532.839	44058.81
533.04	44218.55
533.241	43456.7
533.442	44882.09
533.643	44193.97
533.844	44089.52
534.045	43985.08
534.246	43985.08
534.447	44110
534.648	44185.78
534.849	44349.62
535.05	44161.2
535.251	44355.76
535.451	44675.24
535.652	44429.49
535.853	44605.61
536.054	44021.94
536.255	44607.66
536.456	44177.59
536.657	44685.48
536.857	44669.1
537.058	44480.69
537.259	44857.51
537.46	44693.68
537.66	44312.75
537.861	44193.97
538.062	44107.96
538.263	44726.44
538.463	44322.99
538.664	44697.77
538.865	44427.44
539.065	44609.71
539.266	44353.71
539.466	44896.42
539.667	43972.79
539.868	44851.37
540.068	44877.99
540.269	44460.21
540.469	44994.73
540.67	44441.78
540.87	44474.54
541.071	44726.44
541.271	44521.65
541.472	44591.28
541.672	44318.9
541.873	44409.01
542.073	44067
542.274	44431.54
542.474	44222.64
542.675	43989.17
542.875	44769.45
543.075	44656.81
543.276	44005.56
543.476	44734.63
543.676	44474.54
543.877	44644.52
544.077	44681.39
544.277	44374.19
544.478	44298.42
544.678	44781.74
544.878	44339.38
545.078	44640.43
545.279	44288.18
545.479	44263.6
545.679	44384.43
545.879	44204.21
546.079	44312.75
546.28	44384.43
546.48	43708.6
546.68	44468.4
546.88	44116.15
547.08	44269.75
547.28	44390.58
547.48	43989.17
547.68	44314.8
547.88	43958.45
548.081	44540.08
548.281	44103.86
548.481	44161.2
548.681	44404.91
548.881	44468.4
549.081	44482.73
549.28	44208.31
549.48	44411.06
549.68	44087.48
549.88	44652.72
550.08	43921.59
550.28	44423.34
550.48	44026.04
550.68	44069.04
550.88	43632.83
551.08	44005.56
551.279	44153.01
551.479	43669.69
551.679	44071.09
551.879	43538.62
552.079	44146.87
552.278	43960.5
552.478	44116.15
552.678	43808.95
552.878	43759.8
553.077	43669.69
553.277	43614.4
553.477	44196.02
553.676	43524.29
553.876	43915.45
554.076	43520.19
554.275	43520.19
554.475	43067.59
554.674	43948.21
554.874	43555
555.074	43505.85
555.273	43925.69
555.473	43679.93
555.672	43286.72
555.872	43661.5
556.071	43690.17
556.271	43735.23
556.47	43362.5
556.67	43245.76
556.869	43079.88
557.068	43210.95
557.268	42875.08
557.467	43260.1
557.667	43276.48
557.866	43038.92
558.065	43131.08
558.265	42809.54
558.464	42535.12
558.663	42797.26
558.863	42227.92
559.062	43051.2
559.261	42203.35
559.461	42987.72
559.66	41900.25
559.859	42604.75
560.058	42146
560.258	42356.94
560.457	41885.91
560.656	42197.2
560.855	41681.11
561.054	42490.06
561.253	41677.02
561.453	42094.8
561.652	42201.3
561.851	41926.87
562.05	41658.59
562.249	41548
562.448	41660.63
562.647	41248.99
562.846	41502.94
563.045	41543.9
563.244	41152.74
563.443	41756.89
563.642	41091.3
563.841	40954.08
564.04	40872.17
564.239	41265.38
564.438	40691.94
564.637	41085.15
564.836	40812.77
565.035	40282.35
565.234	40698.09
565.432	40534.25
565.631	40337.65
565.83	40419.56
566.029	40114.42
566.228	40018.16
566.427	39928.05
566.625	40077.55
566.824	39713.02
567.023	40018.16
567.222	39223.55
567.42	40227.06
567.619	39479.55
567.818	39405.82
568.016	39024.9
568.215	39682.3
568.414	38758.66
568.612	39209.22
568.811	38703.37
569.01	39112.96
569.208	38465.8
569.407	39045.38
569.605	38582.54
569.804	38529.29
570.002	38041.87
570.201	38420.75
570.4	37988.63
570.598	38328.59
570.797	37820.69
570.995	38074.64
571.193	37714.2
571.392	37886.23
571.59	37210.4
571.789	37812.5
571.987	37574.94
572.186	37574.94
572.384	37028.13
572.582	36948.26
572.781	37194.01
572.979	36671.78
573.177	36634.92
573.376	36733.22
573.574	36651.3
573.772	37017.89
573.971	36522.28
574.169	36297
574.367	36567.34
574.565	36323.63
574.763	35889.46
574.962	36034.86
575.16	35817.78
575.358	35967.28
575.556	35166.52
575.754	35975.47
575.952	35242.3
576.151	35830.07
576.349	35389.75
576.547	35125.57
576.745	35113.28
576.943	35168.57
577.141	34857.28
577.339	35205.44
577.537	34849.09
577.735	34888
577.933	34206.03
578.131	34847.04
578.329	34357.58
578.527	34165.07
578.725	34292.04
578.923	34541.89
579.121	34038.09
579.319	34007.37
579.516	33866.06
579.714	34120.01
579.912	33716.56
580.11	33638.74
580.308	33720.66
580.506	33687.89
580.704	33114.46
580.901	33474.9
581.099	33392.98
581.297	33229.15
581.495	32778.59
581.692	33431.9
581.89	32708.96
582.088	33296.73
582.285	32811.36
582.483	32946.53
582.681	32557.41
582.878	32708.96
583.076	32031.08
583.274	33085.79
583.471	31857.01
583.669	32250.22
583.866	31756.66
584.064	32264.55
584.262	31967.6
584.459	32057.71
584.657	31787.38
584.854	31975.79
585.052	31445.37
585.249	31674.74
585.447	31762.8
585.644	31029.63
585.841	31291.77
586.039	31246.71
586.236	30990.72
586.434	31115.64
586.631	30800.26
586.828	30892.41
587.026	30777.73
587.223	30681.47
587.42	30499.2
587.618	30544.26
587.815	30314.89
588.012	30376.33
588.21	30159.24
588.407	30243.21
588.604	30042.51
588.801	29403.54
588.999	29581.71
589.196	29825.42
589.393	29610.39
589.59	29524.37
589.787	29680.02
589.984	29475.22
590.182	28879.26
590.379	29436.31
590.576	29165.98
590.773	29094.3
590.97	29159.83
591.167	29295
591.364	28576.16
591.561	29063.58
591.758	28615.07
591.955	28375.46
592.152	28748.19
592.349	28555.68
592.546	28778.91
592.743	28518.82
592.94	27933.1
593.137	28135.85
593.334	28129.7
593.531	28162.47
593.727	28197.29
593.924	28137.9
594.121	27494.83
594.318	27763.12
594.515	27414.96
594.712	27922.86
594.908	27376.05
595.105	27384.24
595.302	27105.72
595.499	27228.6
595.696	27068.86
595.892	26907.07
596.089	26941.88
596.286	27179.45
596.482	26509.76
596.679	26667.45
596.876	26765.76
597.072	26606.02
597.269	26589.63
597.466	26438.08
597.662	25930.19
597.859	26141.13
598.055	26116.55
598.252	25903.56
598.448	25977.29
598.645	25610.7
598.841	25592.27
599.038	25645.52
599.234	25666
599.431	25504.21
599.627	25385.43
599.824	25545.17
600.02	25405.91
600.217	25350.61
600.413	25422.29
600.609	25262.55
600.806	25211.35
601.002	25147.86
601.198	25106.9
601.395	24984.02
601.591	24885.72
601.787	24529.38
601.984	24582.62
602.18	25065.94
602.376	24586.72
602.572	24517.09
602.769	24211.94
602.965	24003.05
603.161	24164.84
603.357	23980.52
603.553	24046.05
603.75	24068.58
603.946	23734.76
604.142	23896.55
604.338	23411.18
604.534	23665.13
604.73	23714.28
604.926	23220.72
605.122	23452.14
605.318	23501.29
605.514	23486.96
605.71	23269.87
605.906	23247.35
606.102	23282.16
606.298	23085.56
606.494	22993.4
606.69	22960.63
606.886	22794.75
607.082	22641.15
607.278	22833.66
607.474	22510.08
607.67	23017.97
607.866	22362.62
608.062	22503.93
608.257	22514.17
608.453	22448.64
608.649	22407.68
608.845	22182.4
609.041	22186.5
609.236	22188.55
609.432	22108.68
609.628	22379.01
609.824	21930.5
610.019	21899.78
610.215	22071.81
610.411	22047.24
610.606	21576.2
610.802	21766.67
610.998	21746.19
611.193	21723.66
611.389	21414.41
611.584	21645.84
611.78	21420.56
611.976	21721.61
612.171	21375.5
612.367	21369.36
612.562	21271.06
612.758	21244.43
612.953	21056.02
613.149	21447.18
613.344	20795.93
613.539	21453.33
613.735	21094.93
613.93	21172.75
614.126	20957.72
614.321	21084.69
614.517	20992.53
614.712	20814.36
614.907	20781.59
615.103	20812.31
615.298	20828.7
615.493	20703.77
615.688	20240.93
615.884	21008.92
616.079	20292.13
616.274	20632.09
616.47	20388.38
616.665	20662.81
616.86	20363.81
617.055	20202.02
617.25	20103.71
617.445	20523.55
617.641	20148.77
617.836	20038.18
618.031	19669.55
618.226	20124.19
618.421	20097.57
618.616	20019.75
618.811	19624.49
619.006	19962.4
619.201	19651.11
619.396	19708.46
619.591	19411.5
619.786	19565.1
619.981	19126.83
620.176	19325.49
620.371	19249.71
620.566	19278.38
620.761	19044.91
620.956	18895.41
621.151	18776.63
621.346	18915.89
621.541	18635.32
621.735	18752.06
621.93	18432.57
622.125	18707
622.32	18186.82
622.515	18141.76
622.709	18248.25
622.904	18246.21
623.099	17971.78
623.294	18129.47
623.488	17697.35
623.683	17773.13
623.878	17437.26
624.072	17410.64
624.267	17644.1
624.462	17316.43
624.656	17283.66
624.851	17400.4
625.046	16906.84
625.24	16904.79
625.435	16890.45
625.629	16753.24
625.824	16583.26
626.018	16616.02
626.213	16202.33
626.407	16456.28
626.602	16159.33
626.796	16405.08
626.991	16188
627.185	16228.96
627.38	16151.13
627.574	16071.26
627.768	15647.33
627.963	15655.53
628.157	15653.48
628.352	15633
628.546	15235.69
628.74	15295.08
628.935	15250.03
629.129	15129.2
629.323	14889.59
629.517	15088.24
629.712	14920.31
629.906	14885.49
630.1	14807.67
630.294	14905.97
630.489	14656.12
630.683	14715.51
630.877	14383.74
631.071	14275.2
631.265	14508.66
631.459	14232.19
631.653	14154.37
631.848	14035.58
632.042	14092.93
632.236	14041.73
632.43	13759.11
632.624	14051.97
632.818	13859.46
633.012	13505.16
633.206	13628.04
633.4	13697.67
633.594	13288.07
633.788	13507.21
633.982	13333.13
634.176	13292.17
634.369	13277.83
634.563	13161.1
634.757	13200.01
634.951	13036.17
635.145	13038.22
635.339	13050.51
635.533	12780.18
635.726	12962.45
635.92	12597.91
636.114	12671.64
636.308	12511.89
636.501	12575.38
636.695	12243.61
636.889	12219.03
637.083	12235.42
637.276	12200.6
637.47	12083.87
637.664	11983.52
637.857	12139.16
638.051	11993.76
638.244	11805.35
638.438	11748
638.632	11690.66
638.825	11700.9
639.019	11569.83
639.212	11438.76
639.406	11473.57
639.599	11520.68
639.793	11356.84
639.986	11121.32
640.18	11287.21
640.373	11276.97
640.567	11123.37
640.76	11090.6
640.954	10922.67
641.147	10855.09
641.34	10695.35
641.534	10697.39
641.727	10934.96
641.92	10658.48
642.114	10738.35
642.307	10568.37
642.5	10470.07
642.694	10142.39
642.887	10367.67
643.08	10365.62
643.273	10248.89
643.467	10236.6
643.66	10293.94
643.853	10181.31
644.046	10031.8
644.239	10013.37
644.432	9796.29
644.626	9818.82
644.819	9628.35
645.012	9761.47
645.205	9683.65
645.398	9669.31
645.591	9530.05
645.784	9474.76
645.977	9421.51
646.17	9478.85
646.363	9267.91
646.556	9190.09
646.749	9296.58
646.942	9130.7
647.135	9257.67
647.328	9075.4
647.521	8915.66
647.714	9050.83
647.907	9056.97
648.099	8909.52
648.292	9132.75
648.485	8882.89
648.678	8764.11
648.871	8606.42
649.064	8633.04
649.256	8688.34
649.449	8483.54
649.642	8667.86
649.835	8385.24
650.027	8329.94
650.22	8475.35
650.413	8413.91
650.605	8217.3
650.798	8192.73
650.991	8088.28
651.183	8215.26
651.376	7971.55
651.568	8155.86
651.761	8293.08
651.954	7889.63
652.146	8008.41
652.339	7897.82
652.531	7865.05
652.724	7885.53
652.916	7781.09
653.109	7799.52
653.301	7785.18
653.494	7824.09
653.686	7574.24
653.879	7500.51
654.071	7607.01
654.263	7328.49
654.456	7402.21
654.648	7582.43
654.84	7314.15
655.033	7316.2
655.225	7308.01
655.417	7185.13
655.61	7142.12
655.802	7320.29
655.994	7142.12
656.186	7129.83
656.379	7193.32
656.571	7232.23
656.763	7074.54
656.955	6904.56
657.148	7033.58
657.34	6949.61
657.532	6955.76
657.724	6933.23
657.916	6898.41
658.108	6959.85
658.3	6871.79
658.492	6746.86
658.684	6681.33
658.876	6681.33
659.068	6566.64
659.26	6529.78
659.452	6685.42
659.644	6525.68
659.836	6363.89
660.028	6437.62
660.22	6365.94
660.412	6255.35
660.604	6370.04
660.796	6415.09
660.988	6335.22
661.18	6296.31
661.372	6181.62
661.563	6288.12
661.755	6271.73
661.947	6136.57
662.139	6128.38
662.331	6150.9
662.522	5956.35
662.714	5745.41
662.906	5939.96
663.097	5960.44
663.289	5780.22
663.481	5853.95
663.673	5878.52
663.864	5780.22
664.056	5874.43
664.247	5792.51
664.439	5575.42
664.631	5663.49
664.822	5806.84
665.014	5643.01
665.205	5739.26
665.397	5565.18
665.588	5665.53
665.78	5487.36
665.971	5595.9
666.163	5620.48
666.354	5513.99
666.546	5427.97
666.737	5423.87
666.929	5313.28
667.12	5294.85
667.311	5319.43
667.503	5124.87
667.694	5423.87
667.885	5374.72
668.077	5417.73
668.268	5266.18
668.459	5315.33
668.651	5186.31
668.842	5190.41
669.033	5051.14
669.224	5147.4
669.416	5157.64
669.607	5288.71
669.798	5077.77
669.989	5180.17
670.18	5047.05
670.371	5145.35
670.563	5012.23
670.754	5024.52
670.945	4934.41
671.136	4993.8
671.327	4963.08
671.518	5047.05
671.709	4805.39
671.9	4868.88
672.091	5024.52
672.282	4895.5
672.473	4746
672.664	4963.08
672.855	4897.55
673.046	4815.63
673.237	4813.58
673.428	4778.76
673.619	4756.24
673.809	4731.66
674	4852.49
674.191	4608.78
674.382	4676.37
674.573	4725.52
674.764	4627.21
674.954	4702.99
675.145	4731.66
675.336	4633.36
675.527	4676.37
675.717	4483.86
675.908	4557.58
676.099	4772.62
676.289	4535.06
676.48	4592.4
676.671	4508.43
676.861	4639.5
677.052	4535.06
677.243	4434.71
677.433	4490
677.624	4598.54
677.814	4533.01
678.005	4616.97
678.195	4610.83
678.386	4545.3
678.576	4326.16
678.767	4371.22
678.957	4553.49
679.148	4578.06
679.338	4741.9
679.529	4610.83
679.719	4469.52
679.909	4524.82
680.1	4293.4
680.29	4461.33
680.481	4483.86
680.671	4629.26
680.861	4506.38
681.052	4496.14
681.242	4403.99
681.432	4494.1
681.622	4207.38
681.813	4322.07
682.003	4453.14
682.193	4207.38
682.383	4461.33
682.573	4336.4
682.764	4244.24
682.954	4377.36
683.144	4346.64
683.334	4320.02
683.524	4311.83
683.714	4297.49
683.904	4223.76
684.094	4387.6
684.284	4465.43
684.474	4442.9
684.664	4254.48
684.854	4328.21
685.044	4326.16
685.234	4221.72
685.424	4317.97
685.614	4236.05
685.804	4338.45
685.994	4209.43
686.184	4297.49
686.374	4096.79
686.564	4090.65
686.753	4197.14
686.943	4033.3
687.133	4078.36
687.323	4076.31
687.513	4207.38
687.702	4086.55
687.892	4059.93
688.082	4074.26
688.272	4043.54
688.461	4008.73
688.651	4033.3
688.841	4121.37
689.03	4014.87
689.22	3965.72
689.41	3922.71
689.599	4002.58
689.789	3918.62
689.979	3910.43
690.168	3810.08
690.358	3812.12
690.547	3871.51
690.737	3928.86
690.926	3920.67
691.116	3791.64
691.305	3851.03
691.495	3820.32
691.684	3861.27
691.874	3736.35
692.063	3832.6
692.252	3732.25
692.442	3715.87
692.631	3748.64
692.82	3693.34
693.01	3777.31
693.199	3654.43
693.388	3826.46
693.578	3697.44
693.767	3613.47
693.956	3670.81
694.146	3705.63
694.335	3590.94
694.524	3574.56
694.713	3691.29
694.902	3646.24
695.092	3730.2
695.281	3570.46
695.47	3498.78
695.659	3463.97
695.848	3531.55
696.037	3441.44
696.226	3511.07
696.415	3613.47
696.604	3570.46
696.793	3646.24
696.982	3492.64
697.171	3543.84
697.36	3523.36
697.549	3466.02
697.738	3334.95
697.927	3603.23
698.116	3545.89
698.305	3392.29
698.494	3486.5
698.683	3375.91
698.872	3470.11
699.061	3523.36
699.25	3400.48
699.438	3474.21
699.627	3459.87
699.816	3539.74
700.005	3367.71
700.193	3339.04
700.382	3529.5
700.571	3431.2
700.76	3377.95
700.948	3451.68
701.137	3322.66
701.326	3547.94
701.514	3427.11
701.703	3468.06
701.892	3369.76
702.08	3361.57
702.269	3390.24
702.457	3392.29
702.646	3447.58
702.834	3296.04
703.023	3285.8
703.212	3398.43
703.4	3236.64
703.589	3324.71
703.777	3427.11
703.965	3222.31
704.154	3355.43
704.342	3382.05
704.531	3359.52
704.719	3332.9
704.907	3367.71
705.096	3271.46
705.284	3267.36
705.472	3445.54
705.661	3298.08
705.849	3392.29
706.037	3298.08
706.226	3492.64
706.414	3398.43
706.602	3318.56
706.79	3250.98
706.979	3343.14
707.167	3265.32
707.355	3287.84
707.543	3363.62
707.731	3388.19
707.919	3336.99
708.107	3326.75
708.296	3265.32
708.484	3324.71
708.672	3271.46
708.86	3210.02
709.048	3402.53
709.236	3330.85
709.424	3339.04
709.612	3265.32
709.8	3300.13
709.988	3277.6
710.176	3420.96
710.364	3373.86
710.551	3304.23
710.739	3351.33
710.927	3261.22
711.115	3314.47
711.303	3226.4
711.491	3343.14
711.679	3191.59
711.866	3365.67
712.054	3285.8
712.242	3289.89
712.43	3357.47
712.617	3353.38
712.805	3302.18
712.993	3330.85
713.181	3207.97
713.368	3445.54
713.556	3293.99
713.744	3259.17
713.931	3304.23
714.119	3396.39
714.306	3320.61
714.494	3283.75
714.682	3371.81
714.869	3173.16
715.057	3291.94
715.244	3318.56
715.432	3304.23
715.619	3271.46
715.807	3384.1
715.994	3355.43
716.182	3201.83
716.369	3185.44
716.556	3359.52
716.744	3289.89
716.931	3355.43
717.119	3326.75
717.306	3380
717.493	3255.08
717.681	3224.36
717.868	3347.23
718.055	3156.77
718.242	3316.51
718.43	3318.56
718.617	3224.36
718.804	3310.37
718.991	3402.53
719.179	3296.04
719.366	3214.12
719.553	3310.37
719.74	3326.75
719.927	3318.56
720.114	3269.41
720.301	3246.88
720.488	3173.16
720.676	3269.41
720.863	3345.19
721.05	3197.73
721.237	3207.97
721.424	3291.94
721.611	3203.88
721.798	3220.26
721.985	3187.49
722.172	3330.85
722.358	3310.37
722.545	3554.08
722.732	3212.07
722.919	3345.19
723.106	3167.01
723.293	3253.03
723.48	3261.22
723.667	3226.4
723.853	3242.79
724.04	3244.84
724.227	3156.77
724.414	3273.51
724.6	3162.92
724.787	3224.36
724.974	3216.16
725.161	3175.2
725.347	3220.26
725.534	3328.8
725.72	3300.13
725.907	3250.98
726.094	3091.24
726.28	3132.2
726.467	3158.82
726.653	3154.73
726.84	3293.99
727.027	3232.55
727.213	3171.11
727.4	3265.32
727.586	3173.16
727.773	3109.67
727.959	3224.36
728.145	3113.77
728.332	3199.78
728.518	3148.58
728.705	3076.9
728.891	3281.7
729.077	3205.92
729.264	3167.01
729.45	3128.1
729.636	3119.91
729.823	3134.25
730.009	3093.29
730.195	3093.29
730.382	3158.82
730.568	3140.39
730.754	3076.9
730.94	3162.92
731.126	3019.56
731.313	3246.88
731.499	3261.22
731.685	3142.44
731.871	3138.34
732.057	3093.29
732.243	3021.61
732.429	3070.76
732.615	3146.53
732.801	3050.28
732.987	3099.43
733.173	3115.81
733.359	3126.05
733.545	3023.66
733.731	3099.43
733.917	2976.55
734.103	3046.18
734.289	3037.99
734.475	3017.51
734.661	3062.57
734.847	3072.81
735.033	3064.61
735.219	3050.28
735.404	3033.9
735.59	2958.12
735.776	2970.41
735.962	3105.57
736.148	3076.9
736.333	2974.5
736.519	3101.48
736.705	2868.01
736.89	2939.69
737.076	2980.65
737.262	2919.21
737.447	2956.07
737.633	2777.9
737.819	2870.06
738.004	2999.08
738.19	2931.5
738.375	2954.02
738.561	2880.3
738.747	2874.15
738.932	2804.52
739.118	2808.62
739.303	2847.53
739.489	2814.76
739.674	2802.47
739.859	2829.1
740.045	2831.15
740.23	2825
740.416	2761.52
740.601	2913.06
740.786	2870.06
740.972	2743.08
741.157	2831.15
741.342	2642.73
741.528	2593.58
741.713	2745.13
741.898	2804.52
742.084	2593.58
742.269	2788.14
742.454	2681.64
742.639	2857.77
742.824	2681.64
743.01	2655.02
743.195	2767.66
743.38	2796.33
743.565	2632.49
743.75	2544.43
743.935	2669.36
744.12	2618.16
744.305	2710.32
744.49	2601.77
744.675	2501.42
744.86	2485.04
745.045	2581.29
745.23	2544.43
745.415	2505.52
745.6	2507.57
745.785	2454.32
745.97	2482.99
746.155	2468.66
746.34	2452.27
746.525	2403.12
746.71	2536.24
746.895	2409.26
747.079	2413.36
747.264	2323.25
747.449	2417.46
747.634	2329.39
747.819	2444.08
748.003	2376.5
748.188	2270
748.373	2194.23
748.557	2339.63
748.742	2282.29
748.927	2257.71
749.111	2214.71
749.296	2270
749.481	2276.15
749.665	2196.28
749.85	2143.03
750.034	2132.79
750.219	2118.45
750.404	2118.45
750.588	2134.84
750.773	2050.87
750.957	2100.02
751.141	2114.36
751.326	2177.84
751.51	1995.57
751.695	1983.29
751.879	2063.16
752.064	2071.35
752.248	1983.29
752.432	2034.49
752.617	1934.14
752.801	1960.76
752.985	1966.9
753.17	1948.47
753.354	1909.56
753.538	1911.61
753.722	1866.55
753.907	1850.17
754.091	1913.66
754.275	1878.84
754.459	1700.67
754.643	1833.79
754.828	1729.34
755.012	1659.71
755.196	1692.48
755.38	1643.32
755.564	1735.48
755.748	1753.91
755.932	1717.05
756.116	1669.95
756.3	1747.77
756.484	1612.6
756.668	1735.48
756.852	1602.36
757.036	1651.52
757.22	1614.65
757.404	1686.33
757.588	1534.78
757.772	1559.36
757.956	1674.04
758.14	1628.99
758.323	1575.74
758.507	1579.84
758.691	1551.17
758.875	1532.73
759.059	1553.21
759.242	1481.53
759.426	1545.02
759.61	1485.63
759.794	1446.72
759.977	1518.4
760.161	1499.97
760.345	1540.93
760.528	1368.9
760.712	1536.83
760.895	1440.58
761.079	1325.89
761.263	1393.47
761.446	1317.7
761.63	1377.09
761.813	1311.55
761.997	1317.7
762.18	1454.91
762.364	1309.51
762.547	1286.98
762.731	1246.02
762.914	1383.23
763.098	1266.5
763.281	1360.7
763.464	1332.03
763.648	1291.07
763.831	1260.35
764.015	1354.56
764.198	1309.51
764.381	1190.72
764.564	1336.13
764.748	1233.73
764.931	1340.22
765.114	1313.6
765.297	1329.99
765.481	1248.07
765.664	1301.31
765.847	1256.26
766.03	1297.22
766.213	1262.4
766.397	1110.85
766.58	1239.87
766.763	1192.77
766.946	1190.72
767.129	1131.33
767.312	1231.68
767.495	1153.86
767.678	1213.25
767.861	1141.57
768.044	1166.15
768.227	1168.2
768.41	1217.35
768.593	1194.82
768.776	1119.04
768.959	1078.08
769.142	1106.76
769.324	1205.06
769.507	1143.62
769.69	1088.32
769.873	1043.27
770.056	1151.81
770.239	1106.76
770.421	1082.18
770.604	1141.57
770.787	1069.89
770.97	1051.46
771.152	1061.7
771.335	1145.67
771.518	1037.13
771.7	1086.28
771.883	998.21
772.066	1061.7
772.248	998.21
772.431	1016.65
772.613	990.02
772.796	1033.03
772.978	1069.89
773.161	977.73
773.343	959.3
773.526	1037.13
773.708	994.12
773.891	891.72
774.073	871.24
774.256	887.62
774.438	934.73
774.621	957.25
774.803	981.83
774.985	926.54
775.168	942.92
775.35	887.62
775.532	889.67
775.715	883.53
775.897	918.34
776.079	971.59
776.261	1030.98
776.444	918.34
776.626	863.05
776.808	789.32
776.99	826.18
777.173	809.8
777.355	924.49
777.537	830.28
777.719	844.62
777.901	760.65
778.083	764.75
778.265	858.95
778.447	795.47
778.629	688.97
778.811	643.92
778.993	795.47
779.175	799.56
779.357	756.55
779.539	674.64
779.721	721.74
779.903	719.69
780.085	748.36
780.267	699.21
780.449	723.79
780.631	682.83
780.812	799.56
780.994	695.11
781.176	738.12
781.358	672.59
781.54	713.55
781.721	717.64
781.903	707.4
782.085	668.49
782.267	668.49
782.448	619.34
782.63	783.18
782.812	680.78
782.993	672.59
783.175	701.26
783.357	672.59
783.538	674.64
783.72	609.1
783.901	713.55
784.083	576.33
784.264	654.16
784.446	633.68
784.627	564.04
784.809	652.11
784.99	627.53
785.172	594.76
785.353	580.43
785.535	586.57
785.716	506.7
785.897	557.9
786.079	627.53
786.26	541.52
786.441	551.76
786.623	549.71
786.804	480.08
786.985	506.7
787.167	539.47
787.348	455.5
787.529	496.46
787.71	562
787.891	537.42
788.073	428.88
788.254	459.6
788.435	578.38
788.616	486.22
788.797	443.21
788.978	523.09
789.159	516.94
789.34	449.36
789.522	435.02
789.703	535.37
789.884	435.02
790.065	432.97
790.246	527.18
790.427	439.12
790.607	525.13
790.788	449.36
790.969	459.6
791.15	447.31
791.331	506.7
791.512	439.12
791.693	414.54
791.874	484.17
792.054	447.31
792.235	457.55
792.416	420.69
792.597	445.26
792.778	412.5
792.958	381.78
793.139	441.17
793.32	381.78
793.5	394.06
793.681	498.51
793.862	402.26
794.042	389.97
794.223	379.73
794.404	449.36
794.584	314.19
794.765	349.01
794.945	414.54
795.126	443.21
795.306	414.54
795.487	414.54
795.667	389.97
795.848	355.15
796.028	400.21
796.209	412.5
796.389	379.73
796.57	406.35
796.75	312.14
796.93	310.1
797.111	340.82
797.291	330.58
797.471	412.5
797.652	338.77
797.832	349.01
798.012	455.5
798.192	316.24
798.373	306
798.553	289.62
798.733	353.1
798.913	283.47
799.093	379.73
799.274	324.43
799.454	283.47
799.634	340.82
799.814	314.19
799.994	340.82
800.174	306
800.354	355.15
800.534	322.38
800.714	338.77
800.894	324.43
801.074	297.81
801.254	308.05
801.434	281.43
801.614	340.82
801.794	234.32
801.974	842.57
802.154	242.51
802.334	312.14
802.514	332.62
802.693	293.71
802.873	281.43
803.053	301.9
803.233	279.38
803.413	273.23
803.592	262.99
803.772	242.51
803.952	256.85
804.131	287.57
804.311	351.06
804.491	340.82
804.67	226.13
804.85	252.75
805.03	283.47
805.209	293.71
805.389	316.24
805.568	199.51
805.748	265.04
805.928	256.85
806.107	273.23
806.287	224.08
806.466	267.09
806.646	330.58
806.825	234.32
807.004	224.08
807.184	219.99
807.363	267.09
807.543	301.9
807.722	238.42
807.901	349.01
808.081	267.09
808.26	158.55
808.439	246.61
808.619	232.27
808.798	222.03
808.977	248.66
809.156	262.99
809.336	260.95
809.515	219.99
809.694	203.6
809.873	232.27
810.052	265.04
810.231	215.89
810.411	207.7
810.59	222.03
810.769	215.89
810.948	349.01
811.127	156.5
811.306	181.07
811.485	117.59
811.664	281.43
811.843	238.42
812.022	303.95
812.201	234.32
812.38	185.17
812.559	187.22
812.737	232.27
812.916	181.07
813.095	250.71
813.274	160.59
813.453	246.61
813.632	209.75
813.811	197.46
813.989	170.83
814.168	246.61
814.347	176.98
814.526	222.03
814.704	166.74
814.883	191.31
815.062	183.12
815.24	203.6
815.419	160.59
815.598	273.23
815.776	174.93
815.955	215.89
816.133	131.92
816.312	136.02
816.49	156.5
816.669	144.21
816.847	103.25
817.026	217.94
817.204	168.79
817.383	211.79
817.561	158.55
817.74	199.51
817.918	185.17
818.097	185.17
818.275	193.36
818.453	164.69
818.632	129.88
818.81	209.75
818.988	166.74
819.167	154.45
819.345	148.31
819.523	162.64
819.701	228.18
819.879	240.47
820.058	127.83
820.236	127.83
820.414	230.23
820.592	197.46
820.77	117.59
820.948	179.03
821.127	205.65
821.305	203.6
821.483	181.07
821.661	142.16
821.839	217.94
822.017	119.64
822.195	226.13
822.373	226.13
822.551	148.31
822.729	195.41
822.907	148.31
823.085	209.75
823.262	189.27
823.44	90.96
823.618	213.84
823.796	234.32
823.974	154.45
824.152	142.16
824.329	119.64
824.507	170.83
824.685	105.3
824.863	207.7
825.04	109.4
825.218	138.07
825.396	84.82
825.574	101.2
825.751	131.92
825.929	201.55
826.107	205.65
826.284	99.16
826.462	138.07
826.639	78.68
826.817	84.82
826.994	162.64
827.172	191.31
827.349	176.98
827.527	156.5
827.704	123.73
827.882	109.4
828.059	50
828.237	121.68
828.414	140.12
828.591	84.82
828.769	144.21
828.946	144.21
829.124	191.31
829.301	148.31
829.478	148.31
829.655	140.12
829.833	119.64
830.01	99.16
830.187	187.22
830.364	97.11
830.542	127.83
830.719	115.54
830.896	144.21
831.073	121.68
831.25	172.88
831.427	54.1
831.604	133.97
831.782	133.97
831.959	95.06
832.136	166.74
832.313	95.06
832.49	78.68
832.667	121.68
832.844	103.25
833.021	160.59
833.198	133.97
833.374	86.87
833.551	140.12
833.728	142.16
833.905	119.64
834.082	131.92
834.259	119.64
834.436	140.12
834.612	80.72
834.789	148.31
834.966	97.11
835.143	179.03
835.319	62.29
835.496	133.97
835.673	115.54
835.85	119.64
836.026	127.83
836.203	70.48
836.38	113.49
836.556	86.87
836.733	45.91
836.909	78.68
837.086	45.91
837.262	68.44
837.439	68.44
837.616	19.29
837.792	78.68
837.968	107.35
838.145	33.62
838.321	78.68
838.498	68.44
838.674	148.31
838.851	93.01
839.027	119.64
839.203	146.26
839.38	99.16
839.556	86.87
839.732	164.69
839.909	187.22
840.085	99.16
840.261	103.25
840.437	140.12
840.614	43.86
840.79	93.01
840.966	70.48
841.142	148.31
841.318	54.1
841.494	74.58
841.671	84.82
841.847	70.48
842.023	66.39
842.199	33.62
842.375	150.36
842.551	70.48
842.727	25.43
842.903	107.35
843.079	43.86
843.255	158.55
843.431	136.02
843.607	131.92
843.783	21.33
843.959	56.15
844.134	103.25
844.31	152.4
844.486	64.34
844.662	37.72
844.838	111.44
845.013	105.3
845.189	138.07
845.365	45.91
845.541	-3.24
845.716	68.44
845.892	50
846.068	50
846.244	76.63
846.419	113.49
846.595	78.68
846.77	50
846.946	111.44
847.122	66.39
847.297	127.83
847.473	86.87
847.648	99.16
847.824	76.63
847.999	93.01
848.175	45.91
848.35	37.72
848.526	37.72
848.701	86.87
848.876	109.4
849.052	62.29
849.227	74.58
849.403	82.77
849.578	21.33
849.753	125.78
849.929	76.63
850.104	74.58
850.279	101.2
850.454	127.83
850.63	45.91
850.805	47.96
850.98	123.73
851.155	136.02
851.33	52.05
851.505	-25.77
851.681	158.55
851.856	-5.29
852.031	82.77
852.206	-11.43
852.381	62.29
852.556	54.1
852.731	-31.91
852.906	74.58
853.081	95.06
853.256	95.06
853.431	72.53
853.606	66.39
853.781	-48.3
853.956	43.86
854.131	60.24
854.305	90.96
854.48	39.76
854.655	50
854.83	41.81
855.005	45.91
855.18	107.35
855.354	97.11
855.529	47.96
855.704	29.52
855.879	58.2
856.053	95.06
856.228	60.24
856.403	60.24
856.577	88.92
856.752	60.24
856.926	45.91
857.101	93.01
857.276	29.52
857.45	117.59
857.625	72.53
857.799	107.35
857.974	19.29
858.148	29.52
858.323	99.16
858.497	115.54
858.672	60.24
858.846	58.2
859.02	88.92
859.195	-11.43
859.369	80.72
859.543	93.01
859.718	60.24
859.892	82.77
860.066	82.77
860.241	37.72
860.415	45.91
860.589	54.1
860.763	27.48
860.938	35.67
861.112	74.58
861.286	-13.48
861.46	74.58
861.634	70.48
861.808	172.88
861.982	-7.34
862.157	76.63
862.331	-19.63
862.505	109.4
862.679	-7.34
862.853	-40.11
863.027	0.85
863.201	138.07
863.375	50
863.549	23.38
863.722	45.91
863.896	117.59
864.07	27.48
864.244	64.34
864.418	101.2
864.592	-13.48
864.766	121.68
864.939	-19.63
865.113	35.67
865.287	62.29
865.461	64.34
865.634	25.43
865.808	58.2
865.982	-11.43
866.156	-54.44
866.329	-42.15
866.503	2.9
866.676	82.77
866.85	43.86
867.024	17.24
867.197	93.01
867.371	58.2
867.544	25.43
867.718	43.86
867.891	111.44
868.065	31.57
868.238	-38.06
868.412	146.26
868.585	86.87
868.759	-31.91
868.932	17.24
869.105	37.72
869.279	68.44
869.452	39.76
869.625	68.44
869.799	99.16
869.972	4.95
870.145	56.15
870.319	66.39
870.492	56.15
870.665	27.48
870.838	19.29
871.011	70.48
871.185	2.9
871.358	64.34
871.531	78.68
871.704	33.62
871.877	50
872.05	11.09
872.223	13.14
872.396	60.24
872.569	88.92
872.742	-11.43
872.915	115.54
873.088	2.9
873.261	-23.72
873.434	25.43
873.607	56.15
873.78	13.14
873.953	33.62
874.126	7
874.299	-27.82
874.471	29.52
874.644	125.78
874.817	37.72
874.99	138.07
875.163	52.05
875.335	13.14
875.508	50
875.681	50
875.853	29.52
876.026	68.44
876.199	58.2
876.371	50
876.544	101.2
876.717	62.29
876.889	-7.34
877.062	25.43
877.234	47.96
877.407	21.33
877.579	-13.48
877.752	74.58
877.924	4.95
878.097	-19.63
878.269	64.34
878.442	54.1
878.614	76.63
878.786	33.62
878.959	27.48
879.131	88.92
879.303	-7.34
879.476	121.68
879.648	62.29
879.82	74.58
879.993	37.72
880.165	11.09
880.337	-99.5
880.509	99.16
880.681	9.05
880.854	62.29
881.026	70.48
881.198	80.72
881.37	117.59
881.542	70.48
881.714	-23.72
881.886	37.72
882.058	27.48
882.23	37.72
882.402	39.76
882.574	50
882.746	45.91
882.918	78.68
883.09	52.05
883.262	29.52
883.434	41.81
883.606	31.57
883.778	21.33
883.95	97.11
884.122	39.76
884.293	78.68
884.465	-21.67
884.637	4.95
884.809	35.67
884.98	54.1
885.152	0.85
885.324	125.78
885.496	35.67
885.667	-21.67
885.839	39.76
886.011	23.38
886.182	27.48
886.354	78.68
886.525	-36.01
886.697	72.53
886.869	-29.87
887.04	27.48
887.212	37.72
887.383	111.44
887.555	50
887.726	-11.43
887.897	-19.63
888.069	-3.24
888.24	68.44
888.412	29.52
888.583	19.29
888.754	52.05
888.926	-7.34
889.097	37.72
889.268	-40.11
889.44	60.24
889.611	84.82
889.782	2.9
889.953	21.33
890.125	29.52
890.296	25.43
890.467	-7.34
890.638	-3.24
890.809	31.57
890.98	-52.39
891.151	66.39
891.323	47.96
891.494	9.05
891.665	29.52
891.836	17.24
892.007	54.1
892.178	41.81
892.349	41.81
892.52	80.72
892.691	62.29
892.862	33.62
893.032	-11.43
893.203	93.01
893.374	54.1
893.545	33.62
893.716	21.33
893.887	86.87
894.057	27.48
894.228	-38.06
894.399	21.33
894.57	90.96
894.74	99.16
894.911	60.24
895.082	-58.54
895.253	25.43
895.423	-29.87
895.594	27.48
895.764	35.67
895.935	-1.19
896.106	121.68
896.276	84.82
896.447	86.87
896.617	45.91
896.788	-29.87
896.958	-15.53
897.129	-21.67
897.299	7
897.47	37.72
897.64	93.01
897.81	-40.11
897.981	23.38
898.151	23.38
898.322	93.01
898.492	41.81
898.662	11.09
898.832	17.24
899.003	-7.34
899.173	35.67
899.343	19.29
899.513	68.44
