Data from USB4F104151__19__10-21-16-710.txt Node

Date: Wed Mar 12 10:21:16 EDT 2025
User: louis
Spectrometer: USB4F10415
Trigger mode: 4
Integration Time (sec): 3.000000E-2
Scans to average: 1
Electric dark correction enabled: true
Nonlinearity correction enabled: false
Boxcar width: 0
XAxis mode: Wavelengths
Number of Pixels in Spectrum: 3648
>>>>>Begin Spectral Data<<<<<
178.204	-133.29
178.424	-133.29
178.644	-133.29
178.864	-135.34
179.084	-151.72
179.304	-12.46
179.524	-41.13
179.744	5.97
179.964	71.51
180.184	-0.17
180.404	32.6
180.624	-43.18
180.844	-41.13
181.064	24.4
181.283	8.02
181.503	-61.61
181.723	57.17
181.943	-20.65
182.163	40.79
182.383	-26.79
182.602	-22.7
182.822	38.74
183.042	3.93
183.262	67.41
183.482	57.17
183.701	48.98
183.921	-49.32
184.141	-47.27
184.361	5.97
184.58	3.93
184.8	48.98
185.02	24.4
185.239	53.08
185.459	-69.8
185.679	42.84
185.898	-32.94
186.118	-16.55
186.338	-12.46
186.557	-0.17
186.777	77.65
186.997	48.98
187.216	10.07
187.436	44.88
187.655	85.84
187.875	69.46
188.095	48.98
188.314	30.55
188.534	57.17
188.753	-0.17
188.973	32.6
189.192	65.36
189.412	46.93
189.631	-4.27
189.851	73.56
190.07	91.99
190.29	-43.18
190.509	10.07
190.729	20.31
190.948	40.79
191.168	159.57
191.387	-28.84
191.607	-37.03
191.826	77.65
192.045	57.17
192.265	73.56
192.484	8.02
192.704	10.07
192.923	16.21
193.142	116.56
193.362	-10.41
193.581	48.98
193.8	12.12
194.02	59.22
194.239	32.6
194.458	53.08
194.678	65.36
194.897	40.79
195.116	-30.89
195.335	3.93
195.555	24.4
195.774	22.36
195.993	1.88
196.212	83.8
196.432	10.07
196.651	55.12
196.87	-45.23
197.089	65.36
197.308	16.21
197.528	106.32
197.747	-24.75
197.966	51.03
198.185	91.99
198.404	36.69
198.623	85.84
198.842	65.36
199.062	30.55
199.281	-12.46
199.5	48.98
199.719	14.17
199.938	30.55
200.157	28.5
200.376	36.69
200.595	83.8
200.814	-51.37
201.033	53.08
201.252	10.07
201.471	16.21
201.69	20.31
201.909	26.45
202.128	1.88
202.347	77.65
202.566	65.36
202.785	30.55
203.004	28.5
203.223	42.84
203.442	22.36
203.661	12.12
203.879	-20.65
204.098	14.17
204.317	1.88
204.536	77.65
204.755	28.5
204.974	67.41
205.193	22.36
205.411	165.71
205.63	3.93
205.849	75.6
206.068	-12.46
206.287	20.31
206.505	-8.36
206.724	3.93
206.943	51.03
207.162	32.6
207.381	42.84
207.599	-16.55
207.818	28.5
208.037	46.93
208.255	106.32
208.474	-24.75
208.693	67.41
208.911	8.02
209.13	30.55
209.349	-45.23
209.567	12.12
209.786	55.12
210.005	73.56
210.223	96.08
210.442	-28.84
210.661	3.93
210.879	-2.22
211.098	63.32
211.316	77.65
211.535	30.55
211.753	1.88
211.972	91.99
212.191	-0.17
212.409	91.99
212.628	36.69
212.846	48.98
213.065	63.32
213.283	135
213.502	61.27
213.72	10.07
213.938	30.55
214.157	81.75
214.375	55.12
214.594	-0.17
214.812	61.27
215.031	3.93
215.249	53.08
215.467	3.93
215.686	-24.75
215.904	79.7
216.122	-12.46
216.341	100.18
216.559	32.6
216.778	106.32
216.996	14.17
217.214	-6.31
217.432	34.64
217.651	28.5
217.869	81.75
218.087	108.37
218.306	-37.03
218.524	75.6
218.742	40.79
218.96	75.6
219.179	20.31
219.397	3.93
219.615	94.04
219.833	135
220.051	10.07
220.27	20.31
220.488	61.27
220.706	30.55
220.924	-4.27
221.142	46.93
221.36	77.65
221.578	-2.22
221.796	61.27
222.015	12.12
222.233	53.08
222.451	65.36
222.669	44.88
222.887	14.17
223.105	-20.65
223.323	51.03
223.541	100.18
223.759	91.99
223.977	-22.7
224.195	14.17
224.413	44.88
224.631	5.97
224.849	-61.61
225.067	53.08
225.285	30.55
225.503	26.45
225.721	-28.84
225.939	57.17
226.157	69.46
226.375	178
226.592	32.6
226.81	40.79
227.028	83.8
227.246	55.12
227.464	-8.36
227.682	59.22
227.9	46.93
228.117	8.02
228.335	-45.23
228.553	-24.75
228.771	-4.27
228.989	42.84
229.206	36.69
229.424	-37.03
229.642	-4.27
229.86	36.69
230.077	38.74
230.295	46.93
230.513	89.94
230.731	-24.75
230.948	44.88
231.166	20.31
231.384	3.93
231.601	-12.46
231.819	61.27
232.037	-53.42
232.254	8.02
232.472	28.5
232.689	-2.22
232.907	-16.55
233.125	-22.7
233.342	91.99
233.56	-10.41
233.777	-30.89
233.995	-12.46
234.213	20.31
234.43	28.5
234.648	38.74
234.865	3.93
235.083	24.4
235.3	42.84
235.518	73.56
235.735	28.5
235.953	14.17
236.17	135
236.388	67.41
236.605	71.51
236.822	59.22
237.04	38.74
237.257	14.17
237.475	-4.27
237.692	34.64
237.909	38.74
238.127	-4.27
238.344	94.04
238.562	-2.22
238.779	69.46
238.996	-0.17
239.214	20.31
239.431	100.18
239.648	28.5
239.865	20.31
240.083	42.84
240.3	57.17
240.517	-12.46
240.735	26.45
240.952	51.03
241.169	63.32
241.386	-73.9
241.603	102.23
241.821	-30.89
242.038	73.56
242.255	1.88
242.472	18.26
242.689	73.56
242.907	110.42
243.124	34.64
243.341	108.37
243.558	10.07
243.775	51.03
243.992	-47.27
244.209	10.07
244.426	16.21
244.643	75.6
244.86	61.27
245.078	53.08
245.295	67.41
245.512	-22.7
245.729	-6.31
245.946	26.45
246.163	63.32
246.38	69.46
246.597	-28.84
246.814	28.5
247.031	53.08
247.248	24.4
247.464	53.08
247.681	20.31
247.898	26.45
248.115	-6.31
248.332	-34.99
248.549	79.7
248.766	-10.41
248.983	-49.32
249.2	112.47
249.417	81.75
249.633	-2.22
249.85	98.13
250.067	110.42
250.284	34.64
250.501	63.32
250.717	94.04
250.934	-28.84
251.151	-49.32
251.368	67.41
251.585	34.64
251.801	-22.7
252.018	-0.17
252.235	48.98
252.451	10.07
252.668	85.84
252.885	-6.31
253.102	73.56
253.318	-32.94
253.535	12.12
253.752	-14.51
253.968	-12.46
254.185	94.04
254.401	44.88
254.618	44.88
254.835	67.41
255.051	94.04
255.268	46.93
255.484	-0.17
255.701	44.88
255.917	40.79
256.134	51.03
256.351	30.55
256.567	69.46
256.784	48.98
257	-39.08
257.217	91.99
257.433	44.88
257.65	26.45
257.866	114.52
258.082	30.55
258.299	46.93
258.515	8.02
258.732	-39.08
258.948	-45.23
259.165	40.79
259.381	40.79
259.597	36.69
259.814	5.97
260.03	53.08
260.246	34.64
260.463	18.26
260.679	104.28
260.895	40.79
261.112	83.8
261.328	-37.03
261.544	-26.79
261.761	32.6
261.977	71.51
262.193	-12.46
262.409	65.36
262.626	114.52
262.842	87.89
263.058	28.5
263.274	61.27
263.49	-20.65
263.707	32.6
263.923	59.22
264.139	22.36
264.355	-14.51
264.571	77.65
264.787	48.98
265.004	28.5
265.22	36.69
265.436	55.12
265.652	20.31
265.868	16.21
266.084	61.27
266.3	28.5
266.516	24.4
266.732	10.07
266.948	34.64
267.164	91.99
267.38	75.6
267.596	38.74
267.812	61.27
268.028	71.51
268.244	44.88
268.46	32.6
268.676	12.12
268.892	12.12
269.108	16.21
269.324	16.21
269.54	20.31
269.756	30.55
269.972	24.4
270.188	53.08
270.403	38.74
270.619	71.51
270.835	22.36
271.051	3.93
271.267	-12.46
271.483	22.36
271.698	81.75
271.914	83.8
272.13	42.84
272.346	20.31
272.562	75.6
272.777	-20.65
272.993	51.03
273.209	28.5
273.425	46.93
273.64	10.07
273.856	128.85
274.072	-6.31
274.287	32.6
274.503	40.79
274.719	44.88
274.934	3.93
275.15	-10.41
275.366	53.08
275.581	5.97
275.797	67.41
276.012	-6.31
276.228	1.88
276.444	67.41
276.659	130.9
276.875	8.02
277.09	-4.27
277.306	112.47
277.521	-20.65
277.737	32.6
277.952	46.93
278.168	69.46
278.383	30.55
278.599	94.04
278.814	8.02
279.03	-4.27
279.245	24.4
279.461	40.79
279.676	22.36
279.892	10.07
280.107	-37.03
280.322	16.21
280.538	30.55
280.753	53.08
280.969	34.64
281.184	3.93
281.399	96.08
281.615	-22.7
281.83	63.32
282.045	46.93
282.26	28.5
282.476	63.32
282.691	130.9
282.906	36.69
283.122	42.84
283.337	69.46
283.552	57.17
283.767	-16.55
283.983	147.28
284.198	32.6
284.413	48.98
284.628	53.08
284.843	69.46
285.058	51.03
285.274	63.32
285.489	38.74
285.704	67.41
285.919	-18.6
286.134	-10.41
286.349	-28.84
286.564	77.65
286.779	53.08
286.995	12.12
287.21	40.79
287.425	-18.6
287.64	-37.03
287.855	53.08
288.07	51.03
288.285	44.88
288.5	18.26
288.715	69.46
288.93	5.97
289.145	42.84
289.36	32.6
289.575	42.84
289.79	26.45
290.004	53.08
290.219	116.56
290.434	20.31
290.649	-20.65
290.864	26.45
291.079	30.55
291.294	75.6
291.509	91.99
291.724	28.5
291.938	28.5
292.153	44.88
292.368	5.97
292.583	1.88
292.798	71.51
293.012	-8.36
293.227	36.69
293.442	-24.75
293.657	20.31
293.871	20.31
294.086	12.12
294.301	59.22
294.516	14.17
294.73	53.08
294.945	94.04
295.16	59.22
295.374	8.02
295.589	-4.27
295.804	32.6
296.018	65.36
296.233	30.55
296.447	71.51
296.662	38.74
296.877	30.55
297.091	48.98
297.306	12.12
297.52	3.93
297.735	44.88
297.949	57.17
298.164	48.98
298.378	28.5
298.593	42.84
298.807	16.21
299.022	-34.99
299.236	38.74
299.451	67.41
299.665	48.98
299.88	42.84
300.094	87.89
300.309	28.5
300.523	67.41
300.737	18.26
300.952	20.31
301.166	38.74
301.381	112.47
301.595	69.46
301.809	36.69
302.024	28.5
302.238	20.31
302.452	3.93
302.667	71.51
302.881	116.56
303.095	44.88
303.309	1.88
303.524	55.12
303.738	1.88
303.952	3.93
304.166	34.64
304.381	38.74
304.595	18.26
304.809	98.13
305.023	98.13
305.237	40.79
305.452	26.45
305.666	10.07
305.88	48.98
306.094	26.45
306.308	110.42
306.522	96.08
306.736	34.64
306.95	71.51
307.164	5.97
307.379	44.88
307.593	96.08
307.807	114.52
308.021	1.88
308.235	53.08
308.449	-0.17
308.663	63.32
308.877	42.84
309.091	48.98
309.305	38.74
309.519	38.74
309.733	67.41
309.947	42.84
310.161	38.74
310.374	104.28
310.588	114.52
310.802	24.4
311.016	38.74
311.23	104.28
311.444	40.79
311.658	55.12
311.872	77.65
312.085	-45.23
312.299	141.14
312.513	65.36
312.727	10.07
312.941	14.17
313.154	53.08
313.368	102.23
313.582	67.41
313.796	32.6
314.009	51.03
314.223	98.13
314.437	59.22
314.651	18.26
314.864	40.79
315.078	-20.65
315.292	16.21
315.505	96.08
315.719	44.88
315.933	69.46
316.146	57.17
316.36	24.4
316.573	55.12
316.787	34.64
317.001	182.1
317.214	44.88
317.428	42.84
317.641	26.45
317.855	-16.55
318.068	24.4
318.282	40.79
318.495	73.56
318.709	40.79
318.922	40.79
319.136	112.47
319.349	116.56
319.563	30.55
319.776	71.51
319.99	57.17
320.203	-20.65
320.417	81.75
320.63	8.02
320.843	71.51
321.057	1.88
321.27	51.03
321.483	46.93
321.697	81.75
321.91	77.65
322.124	24.4
322.337	59.22
322.55	69.46
322.763	48.98
322.977	44.88
323.19	5.97
323.403	59.22
323.617	94.04
323.83	63.32
324.043	18.26
324.256	42.84
324.469	3.93
324.683	48.98
324.896	34.64
325.109	69.46
325.322	-49.32
325.535	81.75
325.748	34.64
325.962	122.71
326.175	51.03
326.388	-6.31
326.601	83.8
326.814	48.98
327.027	81.75
327.24	87.89
327.453	20.31
327.666	38.74
327.879	1.88
328.092	77.65
328.305	10.07
328.518	32.6
328.731	30.55
328.944	10.07
329.157	44.88
329.37	-16.55
329.583	85.84
329.796	83.8
330.009	-16.55
330.222	22.36
330.435	57.17
330.648	1.88
330.861	51.03
331.073	32.6
331.286	100.18
331.499	-37.03
331.712	22.36
331.925	87.89
332.138	12.12
332.35	36.69
332.563	-47.27
332.776	94.04
332.989	3.93
333.202	46.93
333.414	53.08
333.627	12.12
333.84	-16.55
334.053	20.31
334.265	42.84
334.478	75.6
334.691	91.99
334.903	100.18
335.116	53.08
335.329	69.46
335.541	77.65
335.754	77.65
335.966	69.46
336.179	8.02
336.392	36.69
336.604	65.36
336.817	143.19
337.029	42.84
337.242	44.88
337.454	79.7
337.667	108.37
337.88	28.5
338.092	46.93
338.305	91.99
338.517	-24.75
338.729	53.08
338.942	114.52
339.154	22.36
339.367	26.45
339.579	59.22
339.792	-12.46
340.004	65.36
340.217	44.88
340.429	44.88
340.641	30.55
340.854	34.64
341.066	34.64
341.278	67.41
341.491	59.22
341.703	28.5
341.915	-47.27
342.128	28.5
342.34	65.36
342.552	34.64
342.764	44.88
342.977	89.94
343.189	-4.27
343.401	8.02
343.613	77.65
343.826	20.31
344.038	44.88
344.25	30.55
344.462	42.84
344.674	83.8
344.886	-20.65
345.099	-16.55
345.311	3.93
345.523	-61.61
345.735	14.17
345.947	18.26
346.159	42.84
346.371	-24.75
346.583	57.17
346.795	55.12
347.007	-39.08
347.219	63.32
347.431	53.08
347.643	20.31
347.855	-32.94
348.067	106.32
348.279	-47.27
348.491	114.52
348.703	71.51
348.915	65.36
349.127	28.5
349.339	-10.41
349.551	44.88
349.763	53.08
349.975	-26.79
350.187	75.6
350.399	53.08
350.61	67.41
350.822	98.13
351.034	46.93
351.246	112.47
351.458	124.76
351.669	36.69
351.881	51.03
352.093	135
352.305	83.8
352.517	65.36
352.728	98.13
352.94	89.94
353.152	28.5
353.363	57.17
353.575	28.5
353.787	155.47
353.999	36.69
354.21	149.33
354.422	12.12
354.633	12.12
354.845	53.08
355.057	38.74
355.268	34.64
355.48	30.55
355.692	-6.31
355.903	91.99
356.115	26.45
356.326	36.69
356.538	132.95
356.749	-14.51
356.961	73.56
357.172	36.69
357.384	-39.08
357.595	118.61
357.807	53.08
358.018	16.21
358.23	30.55
358.441	71.51
358.653	79.7
358.864	77.65
359.075	20.31
359.287	20.31
359.498	171.86
359.709	110.42
359.921	-12.46
360.132	-32.94
360.344	79.7
360.555	32.6
360.766	71.51
360.977	-20.65
361.189	85.84
361.4	22.36
361.611	94.04
361.823	126.8
362.034	32.6
362.245	40.79
362.456	16.21
362.667	94.04
362.879	12.12
363.09	5.97
363.301	53.08
363.512	75.6
363.723	71.51
363.935	-0.17
364.146	94.04
364.357	71.51
364.568	12.12
364.779	36.69
364.99	32.6
365.201	53.08
365.412	48.98
365.623	-6.31
365.834	46.93
366.045	42.84
366.256	-43.18
366.467	36.69
366.678	14.17
366.889	-16.55
367.1	57.17
367.311	18.26
367.522	36.69
367.733	26.45
367.944	18.26
368.155	104.28
368.366	67.41
368.577	20.31
368.788	65.36
368.999	-24.75
369.209	106.32
369.42	137.04
369.631	81.75
369.842	-0.17
370.053	108.37
370.264	124.76
370.474	53.08
370.685	34.64
370.896	42.84
371.107	91.99
371.317	169.81
371.528	102.23
371.739	102.23
371.95	110.42
372.16	122.71
372.371	-53.42
372.582	26.45
372.792	53.08
373.003	77.65
373.214	69.46
373.424	48.98
373.635	63.32
373.846	77.65
374.056	91.99
374.267	46.93
374.477	-22.7
374.688	59.22
374.898	73.56
375.109	75.6
375.319	-8.36
375.53	130.9
375.74	24.4
375.951	67.41
376.161	18.26
376.372	71.51
376.582	26.45
376.793	147.28
377.003	63.32
377.214	26.45
377.424	81.75
377.635	26.45
377.845	100.18
378.055	118.61
378.266	16.21
378.476	42.84
378.686	96.08
378.897	42.84
379.107	36.69
379.317	110.42
379.528	36.69
379.738	114.52
379.948	14.17
380.158	59.22
380.369	69.46
380.579	51.03
380.789	40.79
380.999	26.45
381.21	73.56
381.42	122.71
381.63	94.04
381.84	94.04
382.05	3.93
382.261	63.32
382.471	75.6
382.681	24.4
382.891	110.42
383.101	-39.08
383.311	69.46
383.521	71.51
383.731	118.61
383.941	40.79
384.151	75.6
384.361	22.36
384.571	44.88
384.781	55.12
384.991	126.8
385.201	69.46
385.411	71.51
385.621	108.37
385.831	81.75
386.041	36.69
386.251	100.18
386.461	106.32
386.671	-69.8
386.881	104.28
387.091	3.93
387.301	132.95
387.511	106.32
387.72	36.69
387.93	65.36
388.14	16.21
388.35	61.27
388.56	79.7
388.769	149.33
388.979	44.88
389.189	-8.36
389.399	94.04
389.609	69.46
389.818	16.21
390.028	65.36
390.238	63.32
390.447	83.8
390.657	77.65
390.867	91.99
391.076	55.12
391.286	100.18
391.496	51.03
391.705	89.94
391.915	118.61
392.125	102.23
392.334	22.36
392.544	65.36
392.753	94.04
392.963	73.56
393.172	91.99
393.382	89.94
393.591	104.28
393.801	28.5
394.01	114.52
394.22	96.08
394.429	67.41
394.639	151.38
394.848	112.47
395.058	118.61
395.267	94.04
395.477	79.7
395.686	48.98
395.895	157.52
396.105	116.56
396.314	122.71
396.524	73.56
396.733	61.27
396.942	100.18
397.152	139.09
397.361	106.32
397.57	46.93
397.78	77.65
397.989	147.28
398.198	157.52
398.407	141.14
398.617	61.27
398.826	100.18
399.035	81.75
399.244	94.04
399.453	135
399.663	40.79
399.872	20.31
400.081	53.08
400.29	108.37
400.499	81.75
400.708	167.76
400.917	108.37
401.127	186.19
401.336	110.42
401.545	200.53
401.754	135
401.963	157.52
402.172	12.12
402.381	194.39
402.59	130.9
402.799	55.12
403.008	116.56
403.217	241.49
403.426	65.36
403.635	143.19
403.844	132.95
404.053	159.57
404.262	122.71
404.471	218.96
404.68	208.72
404.888	192.34
405.097	169.81
405.306	110.42
405.515	237.39
405.724	221.01
405.933	272.21
406.142	223.06
406.35	218.96
406.559	196.43
406.768	188.24
406.977	274.26
407.185	249.68
407.394	200.53
407.603	261.97
407.812	261.97
408.02	270.16
408.229	272.21
408.438	313.17
408.646	270.16
408.855	257.87
409.064	329.55
409.272	286.54
409.481	362.32
409.69	290.64
409.898	321.36
410.107	403.28
410.315	429.9
410.524	399.18
410.733	360.27
410.941	395.09
411.15	386.9
411.358	474.96
411.567	446.29
411.775	479.05
411.984	438.09
412.192	438.09
412.401	431.95
412.609	454.48
412.818	552.78
413.026	601.93
413.234	511.82
413.443	534.35
413.651	612.17
413.86	556.88
414.068	610.12
414.276	651.08
414.485	646.99
414.693	728.91
414.901	800.59
415.11	776.01
415.318	780.11
415.526	814.92
415.734	902.98
415.943	847.69
416.151	851.78
416.359	913.22
416.567	970.57
416.776	978.76
416.984	1038.15
417.192	1181.51
417.4	1034.05
417.608	1113.92
417.817	1169.22
418.025	1292.1
418.233	1267.52
418.441	1255.23
418.649	1343.3
418.857	1386.3
419.065	1490.75
419.273	1382.21
419.481	1478.46
419.689	1550.14
419.897	1589.05
420.105	1630.01
420.313	1744.7
420.521	1843
420.729	1738.55
420.937	1767.23
421.145	1896.25
421.353	2041.65
421.561	2125.62
421.769	2174.77
421.977	2291.51
422.185	2148.15
422.393	2365.23
422.601	2518.83
422.809	2541.36
423.017	2559.79
423.224	2582.32
423.432	2744.11
423.64	2713.39
423.848	2957.1
424.056	2924.33
424.263	3143.46
424.471	3284.77
424.679	3221.28
424.887	3440.42
425.094	3493.66
425.302	3522.34
425.51	3653.41
425.718	3774.24
425.925	3712.8
426.133	3880.73
426.341	4149.01
426.548	4372.24
426.756	4439.83
426.964	4302.61
427.171	4620.05
427.379	4747.02
427.586	4939.53
427.794	5029.64
428.001	5166.85
428.209	5404.42
428.417	5496.58
428.624	5826.3
428.832	5787.39
429.039	5801.72
429.247	5635.84
429.454	6342.39
429.662	6749.93
429.869	6373.11
430.076	6639.34
430.284	6477.55
430.491	6868.72
430.699	7239.4
430.906	7085.8
431.114	7413.48
431.321	7454.44
431.528	7577.31
431.736	8273.62
431.943	8580.82
432.15	8048.35
432.358	8396.5
432.565	8875.73
432.772	8752.85
432.979	9154.25
433.187	9465.54
433.394	9457.35
433.601	10190.52
433.808	10165.95
434.016	9971.39
434.223	10385.08
434.43	11202.22
434.637	10976.94
434.844	11456.17
435.052	11695.78
435.259	11560.61
435.466	11685.54
435.673	11648.68
435.88	12414.62
436.087	13055.63
436.294	13096.59
436.501	12607.12
436.708	13016.72
436.915	13551.24
437.122	14005.89
437.329	14040.7
437.537	14392.95
437.743	14806.64
437.95	14673.53
438.157	15351.4
438.364	15785.57
438.571	15943.27
438.778	15908.45
438.985	17512.01
439.192	16973.39
439.399	17094.22
439.606	16889.43
439.813	17747.53
440.02	18921.01
440.227	18593.34
440.433	18251.33
440.64	18996.79
440.847	18697.78
441.054	19248.69
441.261	20796.95
441.467	20289.06
441.674	20815.38
441.881	21642.76
442.088	21388.81
442.294	21403.15
442.501	21593.61
442.708	22242.82
442.914	23494.13
443.121	24024.55
443.328	23285.23
443.534	25036.25
443.741	24561.12
443.948	24169.96
444.154	25875.91
444.361	25556.43
444.568	25746.89
444.774	25572.82
444.981	26056.14
445.187	26758.59
445.394	28044.71
445.6	27473.33
445.807	30381.45
446.013	28581.28
446.22	29199.77
446.426	30631.3
446.633	30649.73
446.839	31620.47
447.046	30127.5
447.252	32032.11
447.459	32044.4
447.665	31982.96
447.871	33074.52
448.078	34645.32
448.284	33140.06
448.491	33629.52
448.697	35224.89
448.903	36113.71
449.11	35480.89
449.316	34972.99
449.522	35775.8
449.728	36762.92
449.935	37233.95
450.141	36664.61
450.347	37747.99
450.553	36244.78
450.76	36717.86
450.966	37926.16
451.172	37633.3
451.378	38698.25
451.584	37895.44
451.791	38694.15
451.997	38501.64
452.203	38978.82
452.409	39204.1
452.615	39103.74
452.821	37184.8
453.027	36990.24
453.233	38829.32
453.44	37115.17
453.646	37741.85
453.852	37664.02
454.058	38407.44
454.264	36922.66
454.47	37965.07
454.676	36640.04
454.882	38102.29
455.088	34747.72
455.294	35116.35
455.5	35556.66
455.705	36093.23
455.911	34506.05
456.117	33703.25
456.323	33412.44
456.529	31970.67
456.735	33154.4
456.941	32197.99
457.147	31978.86
457.352	30686.59
457.558	30045.58
457.764	30334.34
457.97	29648.27
458.176	29037.98
458.381	29146.52
458.587	27846.06
458.793	27671.98
458.999	26082.76
459.204	27698.61
459.41	27379.12
459.616	25785.8
459.821	25804.24
460.027	25327.06
460.233	25093.59
460.438	23786.99
460.644	23842.28
460.85	22959.61
461.055	22496.77
461.261	22373.89
461.466	20895.25
461.672	20207.14
461.878	21605.9
462.083	20155.94
462.289	19721.77
462.494	19602.99
462.7	19002.93
462.905	18277.95
463.111	18767.41
463.316	19131.95
463.522	19002.93
463.727	18599.48
463.932	18484.8
464.138	18525.75
464.343	18288.19
464.549	17774.15
464.754	18650.68
464.959	18570.81
465.165	18339.39
465.37	17612.36
465.575	16768.6
465.781	17641.03
465.986	17823.3
466.191	16858.71
466.397	16959.06
466.602	16023.14
466.807	16524.89
467.012	16528.99
467.218	16471.64
467.423	16412.25
467.628	16490.07
467.833	17204.81
468.038	16414.3
468.244	16082.53
468.449	16647.77
468.654	16121.44
468.859	15945.31
469.064	16119.39
469.269	15244.91
469.474	15308.4
469.679	15648.36
469.885	15421.03
470.09	15361.64
470.295	15414.89
470.5	14808.69
470.705	15099.5
470.91	14769.78
471.115	14515.83
471.32	14855.79
471.525	14728.82
471.73	14200.44
471.935	14499.45
472.139	13928.06
472.344	13975.17
472.549	13776.52
472.754	13782.66
472.959	13420.17
473.164	13047.44
473.369	13002.38
473.574	13352.59
473.778	13239.95
473.983	13334.15
474.188	13047.44
474.393	12492.44
474.598	12742.29
474.802	12570.26
475.007	12406.42
475.212	12281.5
475.417	11998.88
475.621	12005.02
475.826	12084.89
476.031	11794.08
476.235	11572.9
476.44	11820.7
476.645	11517.61
476.849	11632.29
477.054	11380.39
477.259	11378.34
477.463	11247.27
477.668	11212.46
477.872	11161.26
478.077	10802.86
478.282	10596.02
478.486	10610.36
478.691	10655.41
478.895	10440.37
479.1	10477.24
479.304	10602.16
479.509	10225.34
479.713	10391.22
479.918	10305.21
480.122	10086.08
480.326	10137.27
480.531	10096.32
480.735	10034.88
480.94	9891.52
481.144	10100.41
481.348	9803.46
481.553	9981.63
481.757	9772.74
481.961	10008.25
482.166	9918.14
482.37	9979.58
482.574	9473.73
482.778	9778.88
482.983	9930.43
483.187	9916.09
483.391	9842.37
483.595	9742.02
483.8	9559.75
484.004	9666.24
484.208	9850.56
484.412	9643.71
484.616	9631.43
484.821	9828.03
485.025	9586.37
485.229	9830.08
485.433	9797.31
485.637	9666.24
485.841	9658.05
486.045	9907.9
486.249	9854.65
486.453	9699.01
486.657	9838.27
486.861	9635.52
487.065	9664.19
487.269	9701.06
487.473	9510.6
487.677	9825.98
487.881	9711.3
488.085	9678.53
488.289	9879.23
488.493	9762.5
488.697	9860.8
488.901	9553.6
489.105	9912
489.309	9928.38
489.512	9883.33
489.716	9793.22
489.92	9879.23
490.124	9813.7
490.328	10104.51
490.531	9805.5
490.735	9950.91
490.939	9987.77
491.143	10002.11
491.346	10067.64
491.55	10221.24
491.754	10397.37
491.958	10206.91
492.161	10352.31
492.365	10380.98
492.569	10325.69
492.772	10505.91
492.976	10555.06
493.18	10380.98
493.383	10675.89
493.587	10446.52
493.79	10751.67
493.994	10593.97
494.197	10995.37
494.401	10794.67
494.605	10876.59
494.808	11026.09
495.012	11030.19
495.215	11284.14
495.419	11400.87
495.622	11183.79
495.825	11353.77
496.029	11554.47
496.232	11736.74
496.436	11665.06
496.639	12068.51
496.843	11716.26
497.046	11962.01
497.249	12332.7
497.453	12230.3
497.656	12291.74
497.859	12449.43
498.063	12707.48
498.266	12897.94
498.469	12904.08
498.673	12986
498.876	13358.73
499.079	13192.84
499.282	13364.87
499.485	13766.28
499.689	13627.01
499.892	13844.1
500.095	13981.31
500.298	14214.78
500.501	14048.89
500.705	14435.96
500.908	14542.46
501.111	14900.85
501.314	15025.78
501.517	15316.59
501.72	15079.02
501.923	15228.52
502.126	15609.45
502.329	16029.28
502.532	15930.98
502.735	16062.05
502.938	16316
503.141	16463.45
503.344	16567.9
503.547	16803.41
503.75	16823.89
503.953	17268.3
504.156	17372.75
504.359	17651.27
504.562	17430.09
504.765	17958.47
504.968	18028.1
505.17	18062.91
505.373	18366.01
505.576	18691.64
505.779	18816.57
505.982	18998.84
506.185	19250.74
506.387	19736.1
506.59	19613.23
506.793	19736.1
506.996	20108.83
507.198	20563.48
507.401	20297.25
507.604	20680.22
507.807	21161.49
508.009	21208.59
508.212	21476.88
508.415	21382.67
508.617	21939.72
508.82	22068.74
509.022	22330.88
509.225	22484.48
509.428	22535.68
509.63	22844.92
509.833	23102.96
510.035	23590.38
510.238	23350.77
510.44	23834.09
510.643	23979.5
510.845	24245.73
511.048	24102.37
511.25	24800.73
511.453	24774.11
511.655	25691.6
511.858	25310.68
512.06	25400.79
512.262	25732.56
512.465	26158.53
512.667	26293.7
512.87	26480.07
513.072	26715.58
513.274	27127.22
513.477	27397.56
513.679	27319.73
513.881	27864.49
514.084	28124.58
514.286	27917.74
514.488	28573.09
514.69	28863.9
514.893	29224.34
515.095	29347.22
515.297	29423
515.499	29533.59
515.701	30139.79
515.904	30639.49
516.106	30711.17
516.308	30793.09
516.51	31399.29
516.712	31571.32
516.914	31499.64
517.116	32314.73
517.318	32245.1
517.52	32232.81
517.722	32462.18
517.925	33068.38
518.127	33092.96
518.329	33451.35
518.531	33672.53
518.733	34157.9
518.935	34540.87
519.136	34608.45
519.338	35355.96
519.54	34929.98
519.742	35620.15
519.944	35822.9
520.146	36435.24
520.348	36369.71
520.55	36535.59
520.752	36566.31
520.954	37192.99
521.155	37086.5
521.357	37680.41
521.559	38006.03
521.761	38419.72
521.963	38225.17
522.164	38817.03
522.366	38808.84
522.568	39441.66
522.77	39335.17
522.971	39877.88
523.173	39601.4
523.375	40250.61
523.576	39980.28
523.778	40211.7
523.98	40795.37
524.181	41217.25
524.383	41262.3
524.584	41917.65
524.786	41512.16
524.988	41604.31
525.189	42368.21
525.391	42230.99
525.592	42562.76
525.794	42777.8
525.995	42769.61
526.197	43246.79
526.398	42992.84
526.6	43375.81
526.801	43185.35
527.003	43830.46
527.204	43650.24
527.406	44219.57
527.607	44111.03
527.808	44498.09
528.01	43889.85
528.211	44604.59
528.412	45204.64
528.614	44860.58
528.815	45026.47
529.016	45286.56
529.218	45122.72
529.419	45466.78
529.62	45358.24
529.822	45337.76
530.023	45296.8
530.224	45458.59
530.425	45839.51
530.626	45540.51
530.828	45409.44
531.029	46605.45
531.23	46083.22
531.431	45606.05
531.632	46152.85
531.833	46679.18
532.035	46236.82
532.236	46324.88
532.437	46781.58
532.638	46294.16
532.839	46777.48
533.04	46703.76
533.241	46269.59
533.442	47072.39
533.643	46791.82
533.844	46453.9
534.045	46824.59
534.246	46589.07
534.447	46677.13
534.648	47371.39
534.849	46879.88
535.05	46806.16
535.251	47049.86
535.451	46746.76
535.652	47262.85
535.853	47119.49
536.054	46683.28
536.255	47084.68
536.456	46900.36
536.657	47703.17
536.857	46881.93
537.058	46820.49
537.259	46939.27
537.46	47068.3
537.66	46910.6
537.861	46943.37
538.062	47010.95
538.263	46939.27
538.463	46875.79
538.664	46994.57
538.865	47017.1
539.065	47365.25
539.266	47144.07
539.466	47807.61
539.667	46224.53
539.868	47486.08
540.068	47094.92
540.269	47125.64
540.469	47223.94
540.67	46969.99
540.87	46994.57
541.071	46851.21
541.271	47187.08
541.472	47264.9
541.672	46509.2
541.873	46867.59
542.073	46232.72
542.274	47707.26
542.474	47062.15
542.675	46492.82
542.875	47494.27
543.075	46984.33
543.276	46578.83
543.476	47199.37
543.676	46675.09
543.877	47127.69
544.077	47164.55
544.277	46707.85
544.478	46765.2
544.678	47004.81
544.878	47125.64
545.078	46904.46
545.279	47031.43
545.479	46771.34
545.679	46908.55
545.879	46535.82
546.079	46761.1
546.28	46865.55
546.48	46414.99
546.68	46757
546.88	46711.95
547.08	46652.56
547.28	46757
547.48	46126.23
547.68	46969.99
547.88	45989.02
548.081	46564.49
548.281	46949.51
548.481	46355.6
548.681	46595.21
548.881	46531.73
549.081	46582.93
549.28	46470.29
549.48	46478.48
549.68	46251.16
549.88	47082.63
550.08	46136.47
550.28	46484.62
550.48	46404.75
550.68	46830.73
550.88	46523.54
551.08	46245.01
551.279	46593.17
551.479	46120.09
551.679	46302.35
551.879	46322.83
552.079	46627.98
552.278	46167.19
552.478	46218.39
552.678	46369.94
552.878	46642.32
553.077	46277.78
553.277	45892.76
553.477	46722.19
553.676	46259.35
553.876	46314.64
554.076	46134.42
554.275	45657.24
554.475	46060.69
554.674	46107.8
554.874	46144.66
555.074	46001.3
555.273	45798.55
555.473	45986.97
555.672	45669.53
555.872	45651.1
556.071	45800.6
556.271	46294.16
556.47	45776.03
556.67	45456.54
556.869	45581.47
557.068	45501.6
557.268	45474.98
557.467	45237.41
557.667	45511.84
557.866	45565.09
558.065	45239.46
558.265	44831.91
558.464	45085.86
558.663	45651.1
558.863	44872.87
559.062	45759.64
559.261	44629.16
559.461	45018.28
559.66	44725.42
559.859	45118.63
560.058	44459.18
560.258	45069.48
560.457	44549.29
560.656	44680.36
560.855	44344.5
561.054	44741.8
561.253	44170.42
561.453	44418.22
561.652	44407.98
561.851	44319.92
562.05	44086.45
562.249	43992.25
562.448	44526.77
562.647	44078.26
562.846	43594.94
563.045	44008.63
563.244	43574.46
563.443	44215.47
563.642	43685.05
563.841	43611.32
564.04	43357.38
564.239	43490.49
564.438	43564.22
564.637	43703.48
564.836	43185.35
565.035	42794.18
565.234	42990.79
565.432	42687.69
565.631	42607.82
565.83	42704.07
566.029	42724.55
566.228	42398.93
566.427	42087.64
566.625	42073.3
566.824	42325.2
567.023	41923.8
567.222	41805.02
567.42	42204.37
567.619	41723.1
567.818	41860.31
568.016	41788.63
568.215	42040.53
568.414	41446.62
568.612	41589.98
568.811	41274.59
569.01	41489.63
569.208	40819.94
569.407	41508.06
569.605	40604.91
569.804	41211.1
570.002	40453.36
570.201	40955.11
570.4	40301.81
570.598	40133.87
570.797	40385.77
570.995	39910.64
571.193	39941.36
571.392	40559.85
571.59	39720.18
571.789	39974.13
571.987	39560.44
572.186	39920.88
572.384	39580.92
572.582	39841.01
572.781	39433.47
572.979	39181.57
573.177	39478.52
573.376	39517.43
573.574	39306.49
573.772	39410.94
573.971	38892.8
574.169	38743.3
574.367	38675.72
574.565	38821.12
574.763	38733.06
574.962	38528.27
575.16	38262.03
575.358	38610.18
575.556	38061.33
575.754	38417.68
575.952	37999.89
576.151	38311.18
576.349	37885.2
576.547	37920.02
576.745	37844.24
576.943	38003.99
577.141	37401.88
577.339	37776.66
577.537	37354.78
577.735	37424.41
577.933	37041.44
578.131	37369.12
578.329	37276.96
578.527	37000.48
578.725	36771.11
578.923	37063.97
579.121	36341.03
579.319	36283.69
579.516	36664.61
579.714	36508.97
579.912	36087.09
580.11	36232.49
580.308	35898.67
580.506	36199.72
580.704	35435.83
580.901	35982.64
581.099	36121.9
581.297	35636.53
581.495	35923.25
581.692	35677.49
581.89	35480.89
582.088	35527.99
582.285	35155.26
582.483	35468.6
582.681	35478.84
582.878	35099.97
583.076	34557.25
583.274	35007.81
583.471	34528.58
583.669	34796.87
583.866	34436.42
584.064	34374.98
584.262	33787.22
584.459	34694.47
584.657	34461
584.854	34458.95
585.052	33795.41
585.249	33834.32
585.447	34065.74
585.644	33801.55
585.841	33994.06
586.039	33801.55
586.236	33437.02
586.434	33244.51
586.631	33314.14
586.828	33551.7
587.026	33326.42
587.223	33527.13
587.42	33029.47
587.618	33219.93
587.815	32904.54
588.012	32521.57
588.21	32292.2
588.407	32986.46
588.604	32269.67
588.801	32374.12
588.999	32292.2
589.196	32204.14
589.393	32251.24
589.59	31964.53
589.787	32142.7
589.984	31823.22
590.182	31855.98
590.379	31753.58
590.576	31317.37
590.773	31565.17
590.97	31491.44
591.167	31575.41
591.364	31366.52
591.561	31350.13
591.758	31038.84
591.955	31174.01
592.152	30979.45
592.349	30651.78
592.546	30924.16
592.743	30537.09
592.94	30326.15
593.137	30496.13
593.334	30485.89
593.531	30238.09
593.727	30264.71
593.924	30494.08
594.121	29930.89
594.318	30307.72
594.515	29889.93
594.712	29947.28
594.908	29640.08
595.105	29582.74
595.302	29275.54
595.499	29701.52
595.696	29341.08
595.892	29476.24
596.089	29619.6
596.286	29293.97
596.482	28990.87
596.679	29468.05
596.876	29179.29
597.072	28706.21
597.269	29126.04
597.466	28743.07
597.662	28583.33
597.859	28681.63
598.055	28646.82
598.252	28372.39
598.448	28257.7
598.645	28067.24
598.841	27784.62
599.038	28231.08
599.234	28216.74
599.431	27717.04
599.627	27784.62
599.824	27809.2
600.02	27266.49
600.217	27776.43
600.413	27387.32
600.609	27686.32
600.806	27358.64
601.002	27688.37
601.198	27045.3
601.395	26944.95
601.591	26766.78
601.787	27082.17
601.984	27043.26
602.18	27399.6
602.376	26777.02
602.572	26252.74
602.769	26768.83
602.965	26396.1
603.161	26594.75
603.357	26111.43
603.553	26367.43
603.75	26174.92
603.946	26148.29
604.142	26097.1
604.338	26289.6
604.534	25798.09
604.73	25482.7
604.926	25925.07
605.122	25611.73
605.318	25759.18
605.514	25484.75
605.71	25216.47
605.906	25114.07
606.102	25593.29
606.298	25372.11
606.494	25136.6
606.69	25046.49
606.886	25314.77
607.082	24862.17
607.278	25148.89
607.474	24747.48
607.67	24870.36
607.866	24362.47
608.062	24729.05
608.257	24712.67
608.453	24591.84
608.649	24542.69
608.845	24587.74
609.041	24446.43
609.236	24493.54
609.432	24460.77
609.628	24514.02
609.824	24165.86
610.019	23823.85
610.215	24270.31
610.411	24176.1
610.606	23807.47
610.802	23987.69
610.998	23696.88
611.193	23829.99
611.389	23559.66
611.584	23739.88
611.78	23647.72
611.976	23727.6
612.171	23592.43
612.367	23657.96
612.562	23502.32
612.758	23199.22
612.953	23191.03
613.149	23504.37
613.344	23092.72
613.539	23537.13
613.735	23240.18
613.93	22994.42
614.126	23068.15
614.321	23377.39
614.517	22955.51
614.712	22838.78
614.907	22652.41
615.103	23154.16
615.298	22654.46
615.493	23289.33
615.688	22595.07
615.884	22965.75
616.079	22445.57
616.274	22423.04
616.47	22267.39
616.665	22765.05
616.86	22410.75
617.055	22437.37
617.25	22361.6
617.445	22447.61
617.641	22093.32
617.836	22205.95
618.031	21755.4
618.226	22136.32
618.421	21700.11
618.616	21900.81
618.811	21597.71
619.006	22160.9
619.201	21603.85
619.396	21669.39
619.591	21104.15
619.786	21517.84
619.981	20917.78
620.176	21163.54
620.371	20866.58
620.566	21362.19
620.761	20895.25
620.956	21011.99
621.151	20823.58
621.346	20835.86
621.541	20327.97
621.735	20571.68
621.93	20342.3
622.125	20229.66
622.32	20190.75
622.515	20350.49
622.709	20024.87
622.904	19893.8
623.099	19824.17
623.294	19779.11
623.488	19746.34
623.683	19643.95
623.878	19344.94
624.072	19353.13
624.267	19381.81
624.462	19232.3
624.656	19062.32
624.851	19080.75
625.046	18939.44
625.24	18626.11
625.435	18824.76
625.629	18335.29
625.824	18435.64
626.018	18374.2
626.213	17974.85
626.407	18161.22
626.602	17905.22
626.796	17960.52
626.991	17917.51
627.185	17679.94
627.38	17768.01
627.574	17663.56
627.768	17307.21
627.963	17348.17
628.157	16895.57
628.352	17477.19
628.546	16926.29
628.74	17460.81
628.935	16830.04
629.129	16877.14
629.323	16741.97
629.517	16649.82
629.712	16647.77
629.906	16520.79
630.1	16563.8
630.294	16215.65
630.489	15867.49
630.683	16336.48
630.877	16250.46
631.071	15982.18
631.265	16092.77
631.459	16029.28
631.653	15742.57
631.848	15613.54
632.042	15488.62
632.236	15672.93
632.43	15404.65
632.624	15398.51
632.818	15158.89
633.012	15062.64
633.206	15162.99
633.4	15038.06
633.594	14794.36
633.788	14906.99
633.982	15048.3
634.176	14874.23
634.369	14521.98
634.563	14517.88
634.757	14544.5
634.951	14448.25
635.145	14335.61
635.339	14538.36
635.533	14188.16
635.726	14022.27
635.92	14014.08
636.114	13975.17
636.308	13815.43
636.501	13975.17
636.695	13827.71
636.889	13586.05
637.083	13553.29
637.276	13633.16
637.47	13452.94
637.664	13373.07
637.857	13262.47
638.051	13375.11
638.244	13043.34
638.438	13368.97
638.632	13008.53
638.825	12973.71
639.019	13137.55
639.212	12879.5
639.406	12721.81
639.599	12541.59
639.793	12783.25
639.986	12545.69
640.18	12408.47
640.373	12416.66
640.567	12170.91
640.76	12420.76
640.954	12205.72
641.147	11923.1
641.34	12011.17
641.534	12054.17
641.727	11892.38
641.92	11808.42
642.114	11667.11
642.307	11570.85
642.5	11746.98
642.694	11511.46
642.887	11570.85
643.08	11435.69
643.273	11339.43
643.467	11359.91
643.66	11370.15
643.853	11323.05
644.046	11144.88
644.239	11075.24
644.432	10919.6
644.626	10829.49
644.819	10817.2
645.012	10913.45
645.205	10854.06
645.398	10825.39
645.591	10665.65
645.784	10596.02
645.977	10442.42
646.17	10518.2
646.363	10411.7
646.556	10100.41
646.749	10376.89
646.942	10305.21
647.135	10167.99
647.328	10153.66
647.521	10000.06
647.714	9950.91
647.907	10067.64
648.099	10067.64
648.292	10012.35
648.485	9885.37
648.678	9866.94
648.871	9752.26
649.064	9711.3
649.256	9617.09
649.449	9529.03
649.642	9594.56
649.835	9303.75
650.027	9408.2
650.22	9408.2
650.413	9211.59
650.605	9236.17
650.798	9187.02
650.991	9109.19
651.183	9144.01
651.376	8883.92
651.568	9066.19
651.761	9039.56
651.954	9058
652.146	8705.74
652.339	8896.21
652.531	8765.14
652.724	8541.91
652.916	8558.29
653.109	8595.15
653.301	8691.41
653.494	8689.36
653.686	8249.05
653.879	8627.92
654.071	8494.8
654.263	8421.08
654.456	8494.8
654.648	8335.06
654.84	8163.03
655.033	8124.12
655.225	8300.25
655.417	8146.65
655.61	8120.03
655.802	8236.76
655.994	7859.93
656.186	8007.39
656.379	7900.89
656.571	7853.79
656.763	7913.18
656.955	7788.25
657.148	7868.13
657.34	7818.97
657.532	7655.14
657.724	7626.46
657.916	7536.35
658.108	7436
658.3	7501.54
658.492	7489.25
658.684	7472.87
658.876	7446.24
659.068	7311.08
659.26	7218.92
659.452	7397.09
659.644	7296.74
659.836	7243.49
660.028	7120.62
660.22	7059.18
660.412	7206.63
660.604	7108.33
660.796	7016.17
660.988	7007.98
661.18	6964.97
661.372	6932.2
661.563	6631.15
661.755	6770.41
661.947	6782.7
662.139	6653.68
662.331	6684.4
662.522	6721.26
662.714	6573.81
662.906	6461.17
663.097	6694.64
663.289	6547.19
663.481	6412.02
663.673	6577.9
663.864	6524.66
664.056	6258.42
664.247	6373.11
664.439	6305.53
664.631	6303.48
664.822	6285.05
665.014	6389.49
665.205	6428.4
665.397	6278.9
665.588	6029.05
665.78	6123.26
665.971	6088.44
666.163	6080.25
666.354	5951.23
666.546	5836.54
666.737	6014.71
666.929	6074.1
667.12	6061.82
667.311	5793.53
667.503	5914.36
667.694	5732.09
667.885	5674.75
668.077	5834.49
668.268	5830.4
668.459	5662.46
668.651	5717.76
668.842	5676.8
669.033	5664.51
669.224	5705.47
669.416	5553.92
669.607	5607.17
669.798	5660.41
669.989	5492.48
670.18	5566.21
670.371	5410.56
670.563	5537.54
670.754	5353.22
670.945	5324.55
671.136	5472
671.327	5562.11
671.518	5564.16
671.709	5412.61
671.9	5500.67
672.091	5390.08
672.282	5400.32
672.473	5238.53
672.664	5263.11
672.855	5142.28
673.046	5207.81
673.237	5291.78
673.428	5310.21
673.619	5234.44
673.809	5121.8
674	5156.61
674.191	5062.41
674.382	5033.74
674.573	5187.33
674.764	5140.23
674.954	5025.54
675.145	4865.8
675.336	5009.16
675.527	4953.87
675.717	5048.07
675.908	5019.4
676.099	4894.47
676.289	4929.29
676.48	4880.14
676.671	4804.36
676.861	4927.24
677.052	4837.13
677.243	4843.28
677.433	4945.67
677.624	4806.41
677.814	4734.73
678.005	4800.27
678.195	4917
678.386	4693.77
678.576	4747.02
678.767	4742.92
678.957	4734.73
679.148	4812.56
679.338	4769.55
679.529	4896.52
679.719	4757.26
679.909	4734.73
680.1	4693.77
680.29	4626.19
680.481	4726.54
680.671	4626.19
680.861	4701.97
681.052	4644.62
681.242	4554.51
681.432	4820.75
681.622	4562.7
681.813	4693.77
682.003	4581.14
682.193	4456.21
682.383	4749.07
682.573	4521.74
682.764	4618
682.954	4521.74
683.144	4421.39
683.334	4529.94
683.524	4488.98
683.714	4581.14
683.904	4456.21
684.094	4384.53
684.284	4505.36
684.474	4398.87
684.664	4478.74
684.854	4411.15
685.044	4300.56
685.234	4394.77
685.424	4333.33
685.614	4366.1
685.804	4337.43
685.994	4288.28
686.184	4255.51
686.374	4251.41
686.564	4263.7
686.753	4198.17
686.943	4218.64
687.133	4220.69
687.323	4259.6
687.513	4146.97
687.702	4132.63
687.892	4273.94
688.082	4126.49
688.272	4132.63
688.461	4124.44
688.651	4087.57
688.841	4153.11
689.03	4101.91
689.22	4038.42
689.41	4009.75
689.599	4065.05
689.789	4042.52
689.979	3944.22
690.168	4067.1
690.358	3843.87
690.547	3974.94
690.737	3962.65
690.926	3919.64
691.116	3778.33
691.305	4026.14
691.495	4028.18
691.684	3919.64
691.874	3960.6
692.063	3837.72
692.252	3723.04
692.442	3714.84
692.631	3747.61
692.82	3807
693.01	3743.52
693.199	3686.17
693.388	3778.33
693.578	3759.9
693.767	3737.37
693.956	3591.97
694.146	3634.97
694.335	3559.2
694.524	3651.36
694.713	3555.1
694.902	3688.22
695.092	3602.21
695.281	3671.84
695.47	3643.17
695.659	3524.38
695.848	3553.06
696.037	3647.26
696.226	3436.32
696.415	3440.42
696.604	3698.46
696.793	3487.52
696.982	3487.52
697.171	3620.64
697.36	3501.86
697.549	3393.31
697.738	3491.62
697.927	3460.9
698.116	3421.99
698.305	3440.42
698.494	3477.28
698.683	3360.55
698.872	3499.81
699.061	3473.18
699.25	3436.32
699.438	3413.79
699.627	3534.62
699.816	3372.83
700.005	3434.27
700.193	3518.24
700.382	3532.58
700.571	3397.41
700.76	3290.92
700.948	3510.05
701.137	3424.03
701.326	3467.04
701.514	3338.02
701.703	3532.58
701.892	3364.64
702.08	3424.03
702.269	3426.08
702.457	3419.94
702.646	3350.31
702.834	3354.4
703.023	3518.24
703.212	3358.5
703.4	3481.38
703.589	3215.14
703.777	3399.46
703.965	3368.74
704.154	3460.9
704.342	3366.69
704.531	3403.55
704.719	3327.78
704.907	3458.85
705.096	3342.11
705.284	3335.97
705.472	3395.36
705.661	3366.69
705.849	3481.38
706.037	3346.21
706.226	3280.68
706.414	3295.01
706.602	3272.48
706.79	3303.2
706.979	3354.4
707.167	3346.21
707.355	3381.03
707.543	3338.02
707.731	3444.51
707.919	3395.36
708.107	3387.17
708.296	3342.11
708.484	3389.22
708.672	3295.01
708.86	3270.44
709.048	3411.75
709.236	3245.86
709.424	3333.92
709.612	3188.52
709.8	3450.66
709.988	3252
710.176	3272.48
710.364	3295.01
710.551	3350.31
710.739	3219.24
710.927	3393.31
711.115	3389.22
711.303	3290.92
711.491	3340.07
711.679	3237.67
711.866	3471.14
712.054	3342.11
712.242	3346.21
712.43	3374.88
712.617	3383.07
712.805	3211.04
712.993	3266.34
713.181	3211.04
713.368	3421.99
713.556	3333.92
713.744	3258.15
713.931	3319.59
714.119	3258.15
714.306	3262.24
714.494	3233.57
714.682	3256.1
714.869	3256.1
715.057	3209
715.244	3063.59
715.432	3235.62
715.619	3370.79
715.807	3313.44
715.994	3256.1
716.182	3282.72
716.369	3376.93
716.556	3309.35
716.744	3378.98
716.931	3264.29
717.119	3434.27
717.306	3270.44
717.493	3211.04
717.681	3292.96
717.868	3241.76
718.055	3313.44
718.242	3313.44
718.43	3182.37
718.617	3249.96
718.804	3235.62
718.991	3243.81
719.179	3264.29
719.366	3200.8
719.553	3247.91
719.74	3292.96
719.927	3321.63
720.114	3231.52
720.301	3245.86
720.488	3241.76
720.676	3206.95
720.863	3288.87
721.05	3292.96
721.237	3206.95
721.424	3139.37
721.611	3202.85
721.798	3098.41
721.985	3237.67
722.172	3204.9
722.358	3082.02
722.545	3243.81
722.732	3196.71
722.919	3153.7
723.106	3217.19
723.293	3182.37
723.48	3266.34
723.667	3155.75
723.853	3260.2
724.04	3211.04
724.227	3170.08
724.414	3180.32
724.6	3055.4
724.787	3276.58
724.974	3374.88
725.161	3221.28
725.347	3133.22
725.534	3211.04
725.72	3133.22
725.907	3178.28
726.094	3180.32
726.28	3032.87
726.467	3118.89
726.653	3125.03
726.84	3221.28
727.027	3198.76
727.213	3016.49
727.4	3159.85
727.586	3131.17
727.773	3176.23
727.959	3159.85
728.145	3213.09
728.332	3196.71
728.518	3137.32
728.705	3233.57
728.891	2993.96
729.077	3127.08
729.264	3053.35
729.45	3186.47
729.636	3127.08
729.823	3219.24
730.009	3120.93
730.195	3002.15
730.382	3149.61
730.568	3147.56
730.754	3051.3
730.94	3010.34
731.126	3147.56
731.313	3094.31
731.499	3141.41
731.685	3114.79
731.871	3147.56
732.057	3049.25
732.243	3170.08
732.429	3047.21
732.615	3067.69
732.801	3086.12
732.987	2928.42
733.173	3067.69
733.359	2963.24
733.545	3190.56
733.731	3055.4
733.917	2963.24
734.103	2993.96
734.289	3053.35
734.475	2864.94
734.661	2975.53
734.847	3022.63
735.033	2924.33
735.219	3071.78
735.404	2963.24
735.59	2944.81
735.776	2916.14
735.962	2953
736.148	3067.69
736.333	2881.32
736.519	2832.17
736.705	2920.23
736.89	2895.66
737.076	2957.1
737.262	2823.98
737.447	2828.07
737.633	2846.51
737.819	2961.19
738.004	2838.31
738.19	2883.37
738.375	2850.6
738.561	2871.08
738.747	2746.16
738.932	2817.83
739.118	2850.6
739.303	2844.46
739.489	2852.65
739.674	2729.77
739.859	2699.05
740.045	2791.21
740.23	2789.16
740.416	2809.64
740.601	2774.83
740.786	2783.02
740.972	2705.2
741.157	2699.05
741.342	2721.58
741.528	2682.67
741.713	2697
741.898	2731.82
742.084	2635.57
742.269	2697
742.454	2770.73
742.639	2692.91
742.824	2668.33
743.01	2651.95
743.195	2615.09
743.38	2518.83
743.565	2719.53
743.75	2494.26
743.935	2469.68
744.12	2604.85
744.305	2418.48
744.49	2529.07
744.675	2504.5
744.86	2475.82
745.045	2443.06
745.23	2512.69
745.415	2434.86
745.6	2459.44
745.785	2410.29
745.97	2424.62
746.155	2461.49
746.34	2459.44
746.525	2473.78
746.71	2449.2
746.895	2445.1
747.079	2322.23
747.264	2234.16
747.449	2262.83
747.634	2346.8
747.819	2266.93
748.003	2246.45
748.188	2219.83
748.373	2264.88
748.557	2244.4
748.742	2262.83
748.927	2240.31
749.111	2273.07
749.296	2234.16
749.481	2232.12
749.665	2252.59
749.85	2238.26
750.034	2111.29
750.219	2139.96
750.404	2058.04
750.588	2045.75
750.773	2055.99
750.957	2154.29
751.141	2076.47
751.326	2090.81
751.51	1879.86
751.695	2051.89
751.879	2002.74
752.064	1951.54
752.248	2051.89
752.432	2010.93
752.617	1929.02
752.801	1949.5
752.985	1838.91
753.17	1965.88
753.354	1935.16
753.538	1865.53
753.722	1806.14
753.907	1777.47
754.091	1806.14
754.275	1869.62
754.459	1775.42
754.643	1797.95
754.828	1759.03
755.012	1822.52
755.196	1765.18
755.38	1632.06
755.564	1625.92
755.748	1627.96
755.932	1812.28
756.116	1566.53
756.3	1683.26
756.484	1556.29
756.668	1664.83
756.852	1691.45
757.036	1656.64
757.22	1630.01
757.404	1511.23
757.588	1492.8
757.772	1634.11
757.956	1472.32
758.14	1498.94
758.323	1548.09
758.507	1494.85
758.691	1478.46
758.875	1523.52
759.059	1457.98
759.242	1519.42
759.426	1503.04
759.61	1470.27
759.794	1378.11
759.977	1486.65
760.161	1492.8
760.345	1378.11
760.528	1478.46
760.712	1470.27
760.895	1406.78
761.079	1343.3
761.263	1417.02
761.446	1427.26
761.63	1414.98
761.813	1421.12
761.997	1302.34
762.18	1331.01
762.364	1347.39
762.547	1341.25
762.731	1310.53
762.914	1337.15
763.098	1339.2
763.281	1322.82
763.464	1322.82
763.648	1314.63
763.831	1314.63
764.015	1359.68
764.198	1376.06
764.381	1324.87
764.564	1288
764.748	1275.71
764.931	1318.72
765.114	1212.23
765.297	1244.99
765.481	1224.51
765.664	1255.23
765.847	1163.08
766.03	1261.38
766.213	1173.32
766.397	1070.92
766.58	1220.42
766.763	1187.65
766.946	1240.9
767.129	1208.13
767.312	1167.17
767.495	1158.98
767.678	1167.17
767.861	1136.45
768.044	1126.21
768.227	1191.75
768.41	1070.92
768.593	1181.51
768.776	1109.83
768.959	1126.21
769.142	1169.22
769.324	1105.73
769.507	1126.21
769.69	1099.59
769.873	1204.03
770.056	1161.03
770.239	1025.86
770.421	1183.56
770.604	1130.31
770.787	1066.82
770.97	1011.53
771.152	1027.91
771.335	1077.06
771.518	900.94
771.7	1027.91
771.883	1052.49
772.066	978.76
772.248	1120.07
772.431	1042.25
772.613	1040.2
772.796	964.42
772.978	960.33
773.161	900.94
773.343	956.23
773.526	1011.53
773.708	870.22
773.891	960.33
774.073	997.19
774.256	917.32
774.438	1009.48
774.621	913.22
774.803	978.76
774.985	966.47
775.168	905.03
775.35	896.84
775.532	911.18
775.715	864.07
775.897	939.85
776.079	876.36
776.261	999.24
776.444	849.74
776.626	880.46
776.808	823.11
776.99	864.07
777.173	819.02
777.355	839.5
777.537	831.3
777.719	769.87
777.901	833.35
778.083	733
778.265	827.21
778.447	933.7
778.629	733
778.811	819.02
778.993	788.3
779.175	757.58
779.357	804.68
779.539	812.87
779.721	829.26
779.903	735.05
780.085	706.38
780.267	786.25
780.449	741.19
780.631	689.99
780.812	712.52
780.994	667.47
781.176	747.34
781.358	585.55
781.54	710.47
781.721	696.14
781.903	782.15
782.085	642.89
782.267	790.35
782.448	577.36
782.63	649.04
782.812	624.46
782.993	636.75
783.175	642.89
783.357	653.13
783.538	567.12
783.72	608.08
783.901	569.16
784.083	601.93
784.264	626.51
784.446	593.74
784.627	536.4
784.809	536.4
784.99	601.93
785.172	685.9
785.353	606.03
785.535	528.21
785.716	491.34
785.897	546.64
786.079	540.49
786.26	569.16
786.441	614.22
786.623	571.21
786.804	515.92
786.985	526.16
787.167	528.21
787.348	505.68
787.529	458.57
787.71	499.53
787.891	446.29
788.073	534.35
788.254	487.25
788.435	507.73
788.616	497.49
788.797	452.43
788.978	509.77
789.159	462.67
789.34	520.01
789.522	411.47
789.703	499.53
789.884	470.86
790.065	493.39
790.246	456.53
790.427	407.38
790.607	474.96
790.788	448.33
790.969	481.1
791.15	456.53
791.331	372.56
791.512	411.47
791.693	450.38
791.874	431.95
792.054	493.39
792.235	477.01
792.416	372.56
792.597	493.39
792.778	405.33
792.958	423.76
793.139	440.14
793.32	386.9
793.5	419.66
793.681	395.09
793.862	425.81
794.042	413.52
794.223	350.03
794.404	358.22
794.584	384.85
794.765	350.03
794.945	374.61
795.126	399.18
795.306	384.85
795.487	388.94
795.667	347.98
795.848	378.7
796.028	354.13
796.209	388.94
796.389	384.85
796.57	356.18
796.75	304.98
796.93	331.6
797.111	319.31
797.291	370.51
797.471	307.02
797.652	356.18
797.832	317.26
798.012	319.31
798.192	329.55
798.373	329.55
798.553	343.89
798.733	321.36
798.913	345.94
799.093	339.79
799.274	315.22
799.454	333.65
799.634	352.08
799.814	294.74
799.994	337.74
800.174	278.35
800.354	325.46
800.534	329.55
800.714	360.27
800.894	270.16
801.074	274.26
801.254	257.87
801.434	280.4
801.614	200.53
801.794	292.69
801.974	741.19
802.154	274.26
802.334	311.12
802.514	266.07
802.693	294.74
802.873	294.74
803.053	315.22
803.233	296.78
803.413	257.87
803.592	214.87
803.772	247.63
803.952	278.35
804.131	286.54
804.311	216.91
804.491	325.46
804.67	278.35
804.85	223.06
805.03	272.21
805.209	225.11
805.389	331.6
805.568	200.53
805.748	280.4
805.928	243.54
806.107	218.96
806.287	225.11
806.466	290.64
806.646	202.58
806.825	257.87
807.004	261.97
807.184	194.39
807.363	241.49
807.543	218.96
807.722	243.54
807.901	257.87
808.081	221.01
808.26	175.95
808.439	266.07
808.619	278.35
808.798	241.49
808.977	249.68
809.156	198.48
809.336	237.39
809.515	251.73
809.694	163.67
809.873	225.11
810.052	165.71
810.231	272.21
810.411	202.58
810.59	257.87
810.769	247.63
810.948	255.83
811.127	178
811.306	227.15
811.485	192.34
811.664	245.59
811.843	175.95
812.022	204.63
812.201	216.91
812.38	188.24
812.559	167.76
812.737	210.77
812.916	276.31
813.095	186.19
813.274	208.72
813.453	153.43
813.632	235.35
813.811	212.82
813.989	206.67
814.168	231.25
814.347	167.76
814.526	184.15
814.704	184.15
814.883	218.96
815.062	173.91
815.24	253.78
815.419	161.62
815.598	245.59
815.776	100.18
815.955	167.76
816.133	165.71
816.312	163.67
816.49	149.33
816.669	173.91
816.847	212.82
817.026	155.47
817.204	143.19
817.383	202.58
817.561	175.95
817.74	184.15
817.918	110.42
818.097	143.19
818.275	196.43
818.453	171.86
818.632	214.87
818.81	128.85
818.988	225.11
819.167	102.23
819.345	130.9
819.523	249.68
819.701	151.38
819.879	147.28
820.058	206.67
820.236	171.86
820.414	161.62
820.592	104.28
820.77	116.56
820.948	94.04
821.127	139.09
821.305	94.04
821.483	145.24
821.661	149.33
821.839	112.47
822.017	110.42
822.195	122.71
822.373	186.19
822.551	147.28
822.729	159.57
822.907	79.7
823.085	118.61
823.262	110.42
823.44	79.7
823.618	186.19
823.796	120.66
823.974	67.41
824.152	186.19
824.329	157.52
824.507	208.72
824.685	102.23
824.863	153.43
825.04	77.65
825.218	147.28
825.396	69.46
825.574	161.62
825.751	75.6
825.929	124.76
826.107	89.94
826.284	137.04
826.462	122.71
826.639	116.56
826.817	71.51
826.994	104.28
827.172	130.9
827.349	110.42
827.527	124.76
827.704	184.15
827.882	149.33
828.059	200.53
828.237	137.04
828.414	173.91
828.591	67.41
828.769	112.47
828.946	77.65
829.124	94.04
829.301	147.28
829.478	163.67
829.655	69.46
829.833	102.23
830.01	44.88
830.187	46.93
830.364	16.21
830.542	132.95
830.719	120.66
830.896	171.86
831.073	53.08
831.25	34.64
831.427	145.24
831.604	89.94
831.782	120.66
831.959	75.6
832.136	71.51
832.313	157.52
832.49	94.04
832.667	61.27
832.844	67.41
833.021	81.75
833.198	143.19
833.374	83.8
833.551	65.36
833.728	163.67
833.905	116.56
834.082	77.65
834.259	173.91
834.436	126.8
834.612	36.69
834.789	135
834.966	104.28
835.143	102.23
835.319	85.84
835.496	77.65
835.673	81.75
835.85	139.09
836.026	34.64
836.203	108.37
836.38	59.22
836.556	12.12
836.733	55.12
836.909	161.62
837.086	-22.7
837.262	135
837.439	42.84
837.616	91.99
837.792	53.08
837.968	145.24
838.145	-0.17
838.321	30.55
838.498	40.79
838.674	44.88
838.851	55.12
839.027	143.19
839.203	120.66
839.38	85.84
839.556	114.52
839.732	100.18
839.909	83.8
840.085	124.76
840.261	30.55
840.437	-6.31
840.614	81.75
840.79	85.84
840.966	55.12
841.142	42.84
841.318	20.31
841.494	122.71
841.671	94.04
841.847	36.69
842.023	112.47
842.199	161.62
842.375	124.76
842.551	24.4
842.727	83.8
842.903	91.99
843.079	46.93
843.255	69.46
843.431	18.26
843.607	48.98
843.783	12.12
843.959	126.8
844.134	57.17
844.31	114.52
844.486	114.52
844.662	-39.08
844.838	36.69
845.013	143.19
845.189	104.28
845.365	110.42
845.541	40.79
845.716	114.52
845.892	169.81
846.068	55.12
846.244	-22.7
846.419	59.22
846.595	20.31
846.77	75.6
846.946	61.27
847.122	44.88
847.297	20.31
847.473	94.04
847.648	12.12
847.824	59.22
847.999	42.84
848.175	65.36
848.35	100.18
848.526	53.08
848.701	116.56
848.876	114.52
849.052	69.46
849.227	124.76
849.403	26.45
849.578	-8.36
849.753	75.6
849.929	30.55
850.104	18.26
850.279	77.65
850.454	12.12
850.63	124.76
850.805	34.64
850.98	42.84
851.155	94.04
851.33	20.31
851.505	12.12
851.681	94.04
851.856	65.36
852.031	73.56
852.206	112.47
852.381	-12.46
852.556	-22.7
852.731	57.17
852.906	10.07
853.081	59.22
853.256	59.22
853.431	55.12
853.606	-2.22
853.781	44.88
853.956	65.36
854.131	98.13
854.305	34.64
854.48	42.84
854.655	65.36
854.83	3.93
855.005	48.98
855.18	61.27
855.354	22.36
855.529	12.12
855.704	30.55
855.879	3.93
856.053	16.21
856.228	44.88
856.403	75.6
856.577	46.93
856.752	36.69
856.926	48.98
857.101	53.08
857.276	8.02
857.45	61.27
857.625	67.41
857.799	65.36
857.974	130.9
858.148	102.23
858.323	57.17
858.497	87.89
858.672	59.22
858.846	-14.51
859.02	73.56
859.195	10.07
859.369	5.97
859.543	30.55
859.718	1.88
859.892	-10.41
860.066	20.31
860.241	94.04
860.415	-8.36
860.589	36.69
860.763	12.12
860.938	22.36
861.112	44.88
861.286	3.93
861.46	42.84
861.634	-12.46
861.808	14.17
861.982	-61.61
862.157	53.08
862.331	-6.31
862.505	16.21
862.679	-53.42
862.853	-4.27
863.027	22.36
863.201	128.85
863.375	-30.89
863.549	-10.41
863.722	69.46
863.896	110.42
864.07	-4.27
864.244	-10.41
864.418	-71.85
864.592	30.55
864.766	46.93
864.939	61.27
865.113	-16.55
865.287	48.98
865.461	83.8
865.634	-43.18
865.808	-14.51
865.982	-45.23
866.156	44.88
866.329	38.74
866.503	-45.23
866.676	32.6
866.85	42.84
867.024	-0.17
867.197	-12.46
867.371	81.75
867.544	24.4
867.718	20.31
867.891	-20.65
868.065	-12.46
868.238	-32.94
868.412	16.21
868.585	75.6
868.759	20.31
868.932	-24.75
869.105	-14.51
869.279	46.93
869.452	-57.51
869.625	16.21
869.799	16.21
869.972	-41.13
870.145	55.12
870.319	28.5
870.492	34.64
870.665	-14.51
870.838	59.22
871.011	-12.46
871.185	51.03
871.358	36.69
871.531	-18.6
871.704	-45.23
871.877	38.74
872.05	-28.84
872.223	-2.22
872.396	83.8
872.569	59.22
872.742	26.45
872.915	-0.17
873.088	-65.71
873.261	-4.27
873.434	-30.89
873.607	12.12
873.78	-28.84
873.953	-32.94
874.126	112.47
874.299	79.7
874.471	40.79
874.644	32.6
874.817	40.79
874.99	26.45
875.163	44.88
875.335	77.65
875.508	51.03
875.681	75.6
875.853	-10.41
876.026	26.45
876.199	44.88
876.371	34.64
876.544	-0.17
876.717	-2.22
876.889	16.21
877.062	30.55
877.234	12.12
877.407	51.03
877.579	-16.55
877.752	28.5
877.924	34.64
878.097	61.27
878.269	-2.22
878.442	42.84
878.614	40.79
878.786	94.04
878.959	1.88
879.131	-8.36
879.303	-28.84
879.476	8.02
879.648	67.41
879.82	32.6
879.993	55.12
880.165	42.84
880.337	-28.84
880.509	12.12
880.681	3.93
880.854	-32.94
881.026	-67.75
881.198	1.88
881.37	-26.79
881.542	32.6
881.714	102.23
881.886	12.12
882.058	-8.36
882.23	28.5
882.402	-37.03
882.574	3.93
882.746	14.17
882.918	-6.31
883.09	-10.41
883.262	38.74
883.434	-12.46
883.606	-30.89
883.778	20.31
883.95	63.32
884.122	42.84
884.293	42.84
884.465	36.69
884.637	65.36
884.809	-12.46
884.98	32.6
885.152	-30.89
885.324	81.75
885.496	91.99
885.667	-39.08
885.839	-43.18
886.011	42.84
886.182	83.8
886.354	1.88
886.525	-16.55
886.697	44.88
886.869	-37.03
887.04	12.12
887.212	28.5
887.383	79.7
887.555	10.07
887.726	-32.94
887.897	28.5
888.069	32.6
888.24	28.5
888.412	89.94
888.583	5.97
888.754	63.32
888.926	-4.27
889.097	53.08
889.268	-6.31
889.44	36.69
889.611	-14.51
889.782	12.12
889.953	14.17
890.125	83.8
890.296	-32.94
890.467	-0.17
890.638	-28.84
890.809	-24.75
890.98	12.12
891.151	-4.27
891.323	-16.55
891.494	104.28
891.665	40.79
891.836	75.6
892.007	-32.94
892.178	-32.94
892.349	-0.17
892.52	-0.17
892.691	28.5
892.862	44.88
893.032	26.45
893.203	-37.03
893.374	73.56
893.545	44.88
893.716	10.07
893.887	22.36
894.057	28.5
894.228	-41.13
894.399	28.5
894.57	48.98
894.74	10.07
894.911	48.98
895.082	-49.32
895.253	16.21
895.423	-6.31
895.594	-37.03
895.764	-16.55
895.935	12.12
896.106	-10.41
896.276	-22.7
896.447	63.32
896.617	57.17
896.788	-16.55
896.958	-6.31
897.129	12.12
897.299	18.26
897.47	-16.55
897.64	14.17
897.81	-20.65
897.981	75.6
898.151	-16.55
898.322	16.21
898.492	-8.36
898.662	-14.51
898.832	28.5
899.003	3.93
899.173	-34.99
899.343	3.93
899.513	57.17
