Data from USB4F104151__229__10-30-17-071.txt Node

Date: Wed Mar 12 10:30:17 EDT 2025
User: louis
Spectrometer: USB4F10415
Trigger mode: 4
Integration Time (sec): 3.000000E-2
Scans to average: 1
Electric dark correction enabled: true
Nonlinearity correction enabled: false
Boxcar width: 0
XAxis mode: Wavelengths
Number of Pixels in Spectrum: 3648
>>>>>Begin Spectral Data<<<<<
178.204	-133.29
178.424	-133.29
178.644	-133.29
178.864	-80.04
179.084	-125.1
179.304	-2.22
179.524	26.45
179.744	-41.13
179.964	5.97
180.184	-16.55
180.404	28.5
180.624	46.93
180.844	-8.36
181.064	-63.66
181.283	18.26
181.503	42.84
181.723	-37.03
181.943	-57.51
182.163	5.97
182.383	57.17
182.602	18.26
182.822	3.93
183.042	26.45
183.262	14.17
183.482	61.27
183.701	75.6
183.921	55.12
184.141	8.02
184.361	65.36
184.58	36.69
184.8	24.4
185.02	-12.46
185.239	98.13
185.459	16.21
185.679	20.31
185.898	96.08
186.118	36.69
186.338	81.75
186.557	61.27
186.777	30.55
186.997	75.6
187.216	1.88
187.436	20.31
187.655	94.04
187.875	34.64
188.095	36.69
188.314	-14.51
188.534	55.12
188.753	114.52
188.973	36.69
189.192	24.4
189.412	-6.31
189.631	-6.31
189.851	87.89
190.07	104.28
190.29	10.07
190.509	96.08
190.729	-67.75
190.948	79.7
191.168	135
191.387	89.94
191.607	5.97
191.826	5.97
192.045	94.04
192.265	94.04
192.484	46.93
192.704	22.36
192.923	36.69
193.142	118.61
193.362	69.46
193.581	32.6
193.8	5.97
194.02	42.84
194.239	12.12
194.458	96.08
194.678	63.32
194.897	44.88
195.116	46.93
195.335	24.4
195.555	-10.41
195.774	48.98
195.993	81.75
196.212	85.84
196.432	34.64
196.651	87.89
196.87	5.97
197.089	96.08
197.308	48.98
197.528	96.08
197.747	-16.55
197.966	24.4
198.185	83.8
198.404	63.32
198.623	94.04
198.842	81.75
199.062	53.08
199.281	73.56
199.5	46.93
199.719	83.8
199.938	-2.22
200.157	40.79
200.376	26.45
200.595	42.84
200.814	98.13
201.033	16.21
201.252	137.04
201.471	77.65
201.69	63.32
201.909	-4.27
202.128	-22.7
202.347	53.08
202.566	8.02
202.785	14.17
203.004	81.75
203.223	182.1
203.442	42.84
203.661	12.12
203.879	122.71
204.098	77.65
204.317	32.6
204.536	34.64
204.755	5.97
204.974	-8.36
205.193	55.12
205.411	81.75
205.63	77.65
205.849	73.56
206.068	14.17
206.287	36.69
206.505	63.32
206.724	73.56
206.943	-45.23
207.162	38.74
207.381	42.84
207.599	71.51
207.818	18.26
208.037	53.08
208.255	46.93
208.474	75.6
208.693	46.93
208.911	53.08
209.13	3.93
209.349	32.6
209.567	12.12
209.786	12.12
210.005	16.21
210.223	28.5
210.442	59.22
210.661	40.79
210.879	16.21
211.098	-53.42
211.316	16.21
211.535	44.88
211.753	-4.27
211.972	77.65
212.191	44.88
212.409	71.51
212.628	104.28
212.846	16.21
213.065	94.04
213.283	34.64
213.502	-0.17
213.72	71.51
213.938	40.79
214.157	24.4
214.375	18.26
214.594	69.46
214.812	65.36
215.031	-8.36
215.249	16.21
215.467	124.76
215.686	24.4
215.904	77.65
216.122	3.93
216.341	61.27
216.559	18.26
216.778	42.84
216.996	77.65
217.214	16.21
217.432	-4.27
217.651	46.93
217.869	26.45
218.087	102.23
218.306	-51.37
218.524	18.26
218.742	55.12
218.96	73.56
219.179	-18.6
219.397	89.94
219.615	81.75
219.833	87.89
220.051	-8.36
220.27	42.84
220.488	46.93
220.706	-8.36
220.924	-37.03
221.142	44.88
221.36	40.79
221.578	73.56
221.796	71.51
222.015	63.32
222.233	69.46
222.451	71.51
222.669	36.69
222.887	65.36
223.105	46.93
223.323	-43.18
223.541	10.07
223.759	42.84
223.977	5.97
224.195	-57.51
224.413	20.31
224.631	55.12
224.849	102.23
225.067	57.17
225.285	53.08
225.503	79.7
225.721	53.08
225.939	30.55
226.157	48.98
226.375	63.32
226.592	-59.56
226.81	46.93
227.028	63.32
227.246	143.19
227.464	8.02
227.682	83.8
227.9	48.98
228.117	10.07
228.335	130.9
228.553	5.97
228.771	36.69
228.989	59.22
229.206	48.98
229.424	65.36
229.642	65.36
229.86	14.17
230.077	40.79
230.295	106.32
230.513	40.79
230.731	53.08
230.948	53.08
231.166	102.23
231.384	44.88
231.601	-37.03
231.819	114.52
232.037	-8.36
232.254	40.79
232.472	87.89
232.689	59.22
232.907	14.17
233.125	77.65
233.342	16.21
233.56	-51.37
233.777	-10.41
233.995	137.04
234.213	83.8
234.43	73.56
234.648	30.55
234.865	63.32
235.083	65.36
235.3	61.27
235.518	81.75
235.735	61.27
235.953	71.51
236.17	14.17
236.388	89.94
236.605	22.36
236.822	83.8
237.04	28.5
237.257	-51.37
237.475	71.51
237.692	42.84
237.909	24.4
238.127	-22.7
238.344	61.27
238.562	61.27
238.779	48.98
238.996	77.65
239.214	40.79
239.431	16.21
239.648	55.12
239.865	30.55
240.083	89.94
240.3	91.99
240.517	48.98
240.735	42.84
240.952	46.93
241.169	139.09
241.386	30.55
241.603	48.98
241.821	-41.13
242.038	65.36
242.255	32.6
242.472	-30.89
242.689	75.6
242.907	114.52
243.124	-28.84
243.341	57.17
243.558	55.12
243.775	32.6
243.992	-26.79
244.209	-10.41
244.426	130.9
244.643	53.08
244.86	16.21
245.078	106.32
245.295	-4.27
245.512	44.88
245.729	10.07
245.946	8.02
246.163	118.61
246.38	10.07
246.597	14.17
246.814	-61.61
247.031	85.84
247.248	63.32
247.464	32.6
247.681	53.08
247.898	59.22
248.115	46.93
248.332	36.69
248.549	38.74
248.766	159.57
248.983	69.46
249.2	40.79
249.417	96.08
249.633	20.31
249.85	44.88
250.067	104.28
250.284	12.12
250.501	40.79
250.717	32.6
250.934	18.26
251.151	67.41
251.368	34.64
251.585	89.94
251.801	44.88
252.018	12.12
252.235	42.84
252.451	69.46
252.668	83.8
252.885	118.61
253.102	-8.36
253.318	112.47
253.535	46.93
253.752	57.17
253.968	44.88
254.185	-39.08
254.401	55.12
254.618	8.02
254.835	100.18
255.051	139.09
255.268	53.08
255.484	75.6
255.701	8.02
255.917	69.46
256.134	42.84
256.351	135
256.567	-75.95
256.784	44.88
257	69.46
257.217	-26.79
257.433	20.31
257.65	63.32
257.866	-0.17
258.082	32.6
258.299	10.07
258.515	10.07
258.732	3.93
258.948	63.32
259.165	26.45
259.381	57.17
259.597	-24.75
259.814	67.41
260.03	14.17
260.246	89.94
260.463	120.66
260.679	24.4
260.895	59.22
261.112	32.6
261.328	16.21
261.544	18.26
261.761	137.04
261.977	38.74
262.193	14.17
262.409	85.84
262.626	91.99
262.842	18.26
263.058	57.17
263.274	139.09
263.49	22.36
263.707	53.08
263.923	-6.31
264.139	22.36
264.355	57.17
264.571	96.08
264.787	40.79
265.004	85.84
265.22	22.36
265.436	55.12
265.652	24.4
265.868	85.84
266.084	65.36
266.3	61.27
266.516	75.6
266.732	-32.94
266.948	55.12
267.164	24.4
267.38	57.17
267.596	22.36
267.812	112.47
268.028	38.74
268.244	73.56
268.46	53.08
268.676	67.41
268.892	1.88
269.108	-2.22
269.324	40.79
269.54	5.97
269.756	73.56
269.972	46.93
270.188	53.08
270.403	-28.84
270.619	69.46
270.835	63.32
271.051	96.08
271.267	20.31
271.483	-6.31
271.698	48.98
271.914	98.13
272.13	59.22
272.346	48.98
272.562	-20.65
272.777	110.42
272.993	-30.89
273.209	5.97
273.425	-41.13
273.64	-24.75
273.856	32.6
274.072	87.89
274.287	96.08
274.503	-6.31
274.719	30.55
274.934	26.45
275.15	5.97
275.366	44.88
275.581	5.97
275.797	69.46
276.012	73.56
276.228	22.36
276.444	16.21
276.659	53.08
276.875	44.88
277.09	-16.55
277.306	-4.27
277.521	32.6
277.737	-0.17
277.952	3.93
278.168	71.51
278.383	89.94
278.599	3.93
278.814	106.32
279.03	-22.7
279.245	143.19
279.461	-37.03
279.676	102.23
279.892	-20.65
280.107	3.93
280.322	36.69
280.538	16.21
280.753	5.97
280.969	132.95
281.184	16.21
281.399	89.94
281.615	-2.22
281.83	36.69
282.045	55.12
282.26	51.03
282.476	79.7
282.691	63.32
282.906	67.41
283.122	48.98
283.337	30.55
283.552	22.36
283.767	24.4
283.983	1.88
284.198	26.45
284.413	130.9
284.628	-43.18
284.843	8.02
285.058	8.02
285.274	18.26
285.489	-6.31
285.704	89.94
285.919	34.64
286.134	59.22
286.349	71.51
286.564	57.17
286.779	69.46
286.995	26.45
287.21	42.84
287.425	42.84
287.64	-0.17
287.855	61.27
288.07	38.74
288.285	120.66
288.5	94.04
288.715	126.8
288.93	100.18
289.145	-39.08
289.36	48.98
289.575	3.93
289.79	32.6
290.004	57.17
290.219	57.17
290.434	-12.46
290.649	53.08
290.864	-92.33
291.079	57.17
291.294	-8.36
291.509	73.56
291.724	89.94
291.938	75.6
292.153	42.84
292.368	-49.32
292.583	87.89
292.798	8.02
293.012	79.7
293.227	57.17
293.442	34.64
293.657	44.88
293.871	102.23
294.086	28.5
294.301	10.07
294.516	16.21
294.73	12.12
294.945	67.41
295.16	-32.94
295.374	98.13
295.589	145.24
295.804	65.36
296.018	-4.27
296.233	44.88
296.447	36.69
296.662	28.5
296.877	71.51
297.091	65.36
297.306	10.07
297.52	-41.13
297.735	63.32
297.949	57.17
298.164	96.08
298.378	42.84
298.593	73.56
298.807	-26.79
299.022	118.61
299.236	44.88
299.451	20.31
299.665	65.36
299.88	26.45
300.094	57.17
300.309	57.17
300.523	40.79
300.737	85.84
300.952	16.21
301.166	100.18
301.381	12.12
301.595	-8.36
301.809	20.31
302.024	1.88
302.238	24.4
302.452	73.56
302.667	73.56
302.881	38.74
303.095	100.18
303.309	-12.46
303.524	14.17
303.738	36.69
303.952	28.5
304.166	-8.36
304.381	48.98
304.595	32.6
304.809	-16.55
305.023	48.98
305.237	-4.27
305.452	61.27
305.666	85.84
305.88	137.04
306.094	26.45
306.308	-32.94
306.522	57.17
306.736	48.98
306.95	20.31
307.164	40.79
307.379	-34.99
307.593	69.46
307.807	139.09
308.021	65.36
308.235	28.5
308.449	-14.51
308.663	130.9
308.877	83.8
309.091	51.03
309.305	110.42
309.519	75.6
309.733	55.12
309.947	24.4
310.161	94.04
310.374	-6.31
310.588	51.03
310.802	16.21
311.016	67.41
311.23	38.74
311.444	8.02
311.658	94.04
311.872	77.65
312.085	79.7
312.299	69.46
312.513	26.45
312.727	96.08
312.941	63.32
313.154	38.74
313.368	-43.18
313.582	71.51
313.796	106.32
314.009	3.93
314.223	38.74
314.437	114.52
314.651	65.36
314.864	3.93
315.078	79.7
315.292	-4.27
315.505	102.23
315.719	44.88
315.933	116.56
316.146	40.79
316.36	3.93
316.573	110.42
316.787	65.36
317.001	79.7
317.214	81.75
317.428	22.36
317.641	-0.17
317.855	81.75
318.068	94.04
318.282	26.45
318.495	141.14
318.709	87.89
318.922	98.13
319.136	100.18
319.349	126.8
319.563	38.74
319.776	85.84
319.99	-4.27
320.203	63.32
320.417	42.84
320.63	83.8
320.843	79.7
321.057	14.17
321.27	71.51
321.483	63.32
321.697	28.5
321.91	57.17
322.124	46.93
322.337	42.84
322.55	38.74
322.763	24.4
322.977	77.65
323.19	-22.7
323.403	-8.36
323.617	-4.27
323.83	61.27
324.043	-37.03
324.256	71.51
324.469	8.02
324.683	81.75
324.896	85.84
325.109	10.07
325.322	-8.36
325.535	91.99
325.748	18.26
325.962	57.17
326.175	48.98
326.388	135
326.601	69.46
326.814	102.23
327.027	104.28
327.24	69.46
327.453	24.4
327.666	55.12
327.879	53.08
328.092	42.84
328.305	77.65
328.518	59.22
328.731	57.17
328.944	120.66
329.157	55.12
329.37	34.64
329.583	98.13
329.796	71.51
330.009	20.31
330.222	73.56
330.435	46.93
330.648	40.79
330.861	87.89
331.073	-2.22
331.286	73.56
331.499	91.99
331.712	55.12
331.925	10.07
332.138	59.22
332.35	71.51
332.563	73.56
332.776	104.28
332.989	36.69
333.202	-0.17
333.414	46.93
333.627	81.75
333.84	-8.36
334.053	149.33
334.265	10.07
334.478	32.6
334.691	-16.55
334.903	46.93
335.116	22.36
335.329	30.55
335.541	65.36
335.754	81.75
335.966	24.4
336.179	73.56
336.392	81.75
336.604	75.6
336.817	77.65
337.029	73.56
337.242	36.69
337.454	69.46
337.667	26.45
337.88	77.65
338.092	8.02
338.305	40.79
338.517	12.12
338.729	124.76
338.942	110.42
339.154	20.31
339.367	67.41
339.579	36.69
339.792	71.51
340.004	96.08
340.217	89.94
340.429	44.88
340.641	36.69
340.854	34.64
341.066	57.17
341.278	81.75
341.491	120.66
341.703	20.31
341.915	12.12
342.128	42.84
342.34	46.93
342.552	44.88
342.764	-26.79
342.977	42.84
343.189	87.89
343.401	57.17
343.613	3.93
343.826	65.36
344.038	26.45
344.25	38.74
344.462	44.88
344.674	85.84
344.886	-0.17
345.099	145.24
345.311	77.65
345.523	18.26
345.735	-0.17
345.947	118.61
346.159	108.37
346.371	46.93
346.583	42.84
346.795	139.09
347.007	-8.36
347.219	40.79
347.431	48.98
347.643	110.42
347.855	-18.6
348.067	48.98
348.279	-80.04
348.491	85.84
348.703	16.21
348.915	69.46
349.127	34.64
349.339	24.4
349.551	38.74
349.763	98.13
349.975	36.69
350.187	51.03
350.399	81.75
350.61	69.46
350.822	-20.65
351.034	102.23
351.246	-10.41
351.458	12.12
351.669	20.31
351.881	85.84
352.093	77.65
352.305	143.19
352.517	46.93
352.728	63.32
352.94	73.56
353.152	24.4
353.363	71.51
353.575	65.36
353.787	75.6
353.999	145.24
354.21	63.32
354.422	-8.36
354.633	-4.27
354.845	104.28
355.057	77.65
355.268	104.28
355.48	120.66
355.692	22.36
355.903	59.22
356.115	10.07
356.326	53.08
356.538	94.04
356.749	46.93
356.961	75.6
357.172	81.75
357.384	5.97
357.595	114.52
357.807	100.18
358.018	73.56
358.23	122.71
358.441	149.33
358.653	128.85
358.864	-0.17
359.075	48.98
359.287	20.31
359.498	91.99
359.709	63.32
359.921	34.64
360.132	94.04
360.344	18.26
360.555	96.08
360.766	18.26
360.977	40.79
361.189	159.57
361.4	98.13
361.611	104.28
361.823	73.56
362.034	96.08
362.245	46.93
362.456	-34.99
362.667	32.6
362.879	124.76
363.09	57.17
363.301	34.64
363.512	55.12
363.723	163.67
363.935	73.56
364.146	98.13
364.357	34.64
364.568	94.04
364.779	83.8
364.99	63.32
365.201	40.79
365.412	106.32
365.623	46.93
365.834	57.17
366.045	44.88
366.256	55.12
366.467	67.41
366.678	46.93
366.889	10.07
367.1	36.69
367.311	77.65
367.522	135
367.733	48.98
367.944	94.04
368.155	53.08
368.366	14.17
368.577	28.5
368.788	77.65
368.999	53.08
369.209	16.21
369.42	130.9
369.631	161.62
369.842	48.98
370.053	57.17
370.264	126.8
370.474	65.36
370.685	38.74
370.896	55.12
371.107	89.94
371.317	48.98
371.528	55.12
371.739	57.17
371.95	153.43
372.16	85.84
372.371	73.56
372.582	106.32
372.792	53.08
373.003	71.51
373.214	69.46
373.424	81.75
373.635	71.51
373.846	89.94
374.056	38.74
374.267	26.45
374.477	110.42
374.688	110.42
374.898	51.03
375.109	110.42
375.319	36.69
375.53	102.23
375.74	149.33
375.951	69.46
376.161	-6.31
376.372	59.22
376.582	40.79
376.793	81.75
377.003	71.51
377.214	51.03
377.424	40.79
377.635	59.22
377.845	114.52
378.055	145.24
378.266	69.46
378.476	110.42
378.686	71.51
378.897	46.93
379.107	57.17
379.317	61.27
379.528	57.17
379.738	100.18
379.948	8.02
380.158	59.22
380.369	-8.36
380.579	83.8
380.789	112.47
380.999	73.56
381.21	73.56
381.42	85.84
381.63	69.46
381.84	157.52
382.05	167.76
382.261	100.18
382.471	48.98
382.681	83.8
382.891	135
383.101	102.23
383.311	-0.17
383.521	96.08
383.731	40.79
383.941	85.84
384.151	40.79
384.361	81.75
384.571	112.47
384.781	104.28
384.991	116.56
385.201	110.42
385.411	79.7
385.621	137.04
385.831	57.17
386.041	94.04
386.251	75.6
386.461	69.46
386.671	89.94
386.881	57.17
387.091	32.6
387.301	87.89
387.511	87.89
387.72	75.6
387.93	91.99
388.14	36.69
388.35	57.17
388.56	81.75
388.769	126.8
388.979	137.04
389.189	34.64
389.399	14.17
389.609	112.47
389.818	38.74
390.028	106.32
390.238	73.56
390.447	147.28
390.657	137.04
390.867	34.64
391.076	61.27
391.286	40.79
391.496	44.88
391.705	48.98
391.915	48.98
392.125	79.7
392.334	102.23
392.544	135
392.753	89.94
392.963	89.94
393.172	126.8
393.382	94.04
393.591	161.62
393.801	-18.6
394.01	118.61
394.22	128.85
394.429	110.42
394.639	89.94
394.848	106.32
395.058	112.47
395.267	61.27
395.477	173.91
395.686	143.19
395.895	110.42
396.105	87.89
396.314	151.38
396.524	87.89
396.733	81.75
396.942	153.43
397.152	94.04
397.361	106.32
397.57	112.47
397.78	147.28
397.989	65.36
398.198	141.14
398.407	147.28
398.617	73.56
398.826	171.86
399.035	128.85
399.244	112.47
399.453	130.9
399.663	151.38
399.872	149.33
400.081	128.85
400.29	178
400.499	139.09
400.708	194.39
400.917	108.37
401.127	94.04
401.336	153.43
401.545	171.86
401.754	151.38
401.963	159.57
402.172	102.23
402.381	59.22
402.59	180.05
402.799	178
403.008	223.06
403.217	94.04
403.426	218.96
403.635	155.47
403.844	259.92
404.053	167.76
404.262	171.86
404.471	188.24
404.68	225.11
404.888	178
405.097	184.15
405.306	208.72
405.515	216.91
405.724	153.43
405.933	180.05
406.142	202.58
406.35	196.43
406.559	245.59
406.768	261.97
406.977	341.84
407.185	253.78
407.394	186.19
407.603	210.77
407.812	329.55
408.02	284.5
408.229	268.11
408.438	282.45
408.646	251.73
408.855	292.69
409.064	399.18
409.272	352.08
409.481	380.75
409.69	292.69
409.898	350.03
410.107	384.85
410.315	376.66
410.524	386.9
410.733	431.95
410.941	339.79
411.15	456.53
411.358	460.62
411.567	446.29
411.775	532.3
411.984	479.05
412.192	483.15
412.401	444.24
412.609	589.64
412.818	565.07
413.026	601.93
413.234	554.83
413.443	573.26
413.651	638.8
413.86	698.19
414.068	667.47
414.276	692.04
414.485	749.39
414.693	780.11
414.901	776.01
415.11	765.77
415.318	862.02
415.526	945.99
415.734	909.13
415.943	937.8
416.151	1066.82
416.359	962.37
416.567	1079.11
416.776	1103.68
416.984	1150.79
417.192	1171.27
417.4	1171.27
417.608	1095.49
417.817	1134.4
418.025	1249.09
418.233	1361.73
418.441	1365.82
418.649	1414.98
418.857	1462.08
419.065	1521.47
419.273	1582.91
419.481	1701.69
419.689	1693.5
419.897	1744.7
420.105	1797.95
420.313	1761.08
420.521	1982.26
420.729	1972.02
420.937	2049.85
421.145	2066.23
421.353	2211.64
421.561	2223.92
421.769	2303.79
421.977	2449.2
422.185	2369.33
422.393	2592.56
422.601	2711.34
422.809	2744.11
423.017	2602.8
423.224	2866.99
423.432	2903.85
423.64	2938.66
423.848	3184.42
424.056	2973.48
424.263	3313.44
424.471	3399.46
424.679	3405.6
424.887	3649.31
425.094	3712.8
425.302	3667.74
425.51	3823.39
425.718	3917.59
425.925	4028.18
426.133	4325.14
426.341	4359.95
426.548	4542.22
426.756	4654.86
426.964	4538.13
427.171	4964.11
427.379	5048.07
427.586	5121.8
427.794	5330.69
428.001	5543.68
428.209	5797.63
428.417	5715.71
428.624	6186.74
428.832	6045.43
429.039	6129.4
429.247	6006.52
429.454	6649.58
429.662	6975.21
429.869	6645.49
430.076	6954.73
430.284	6852.33
430.491	7106.28
430.699	7804.64
430.906	7536.35
431.114	7681.76
431.321	7999.2
431.528	8158.94
431.736	8681.17
431.943	9105.1
432.15	8675.02
432.358	9103.05
432.565	9490.12
432.772	9479.88
432.979	9742.02
433.187	9912
433.394	9948.86
433.601	10665.65
433.808	10739.38
434.016	10653.36
434.223	10970.8
434.43	11648.68
434.637	11622.05
434.844	12095.13
435.052	12594.84
435.259	12465.82
435.466	12402.33
435.673	12265.11
435.88	13084.3
436.087	13739.65
436.294	13850.24
436.501	13526.66
436.708	13700.74
436.915	14083.71
437.122	14999.15
437.329	14696.05
437.537	15367.79
437.743	15498.86
437.95	15447.66
438.157	16295.52
438.364	16887.38
438.571	16840.28
438.778	16832.08
438.985	18380.35
439.192	17841.73
439.399	18406.97
439.606	17735.24
439.813	18878.01
440.02	19748.39
440.227	19654.19
440.433	19387.95
440.64	20248.1
440.847	20008.48
441.054	20665.88
441.261	21990.92
441.467	21474.83
441.674	21827.08
441.881	22906.36
442.088	22808.06
442.294	22423.04
442.501	23170.55
442.708	23385.58
442.914	24438.24
443.121	25525.71
443.328	24866.27
443.534	26396.1
443.741	25849.29
443.948	25316.82
444.154	27159.99
444.361	26963.39
444.568	27061.69
444.774	27307.44
444.981	27655.6
445.187	27979.18
445.394	29468.05
445.6	29224.34
445.807	32001.39
446.013	30694.78
446.22	31135.1
446.426	32247.15
446.633	32253.29
446.839	33629.52
447.046	32263.53
447.252	34028.88
447.459	34094.41
447.665	33768.79
447.871	35546.42
448.078	36932.9
448.284	35106.11
448.491	35783.99
448.697	37295.39
448.903	37944.59
449.11	37885.2
449.316	37315.87
449.522	37782.8
449.728	38776.07
449.935	39451.9
450.141	39306.49
450.347	40453.36
450.553	38593.8
450.76	39208.19
450.966	40174.83
451.172	40039.67
451.378	40635.63
451.584	40248.56
451.791	41454.81
451.997	40985.83
452.203	41538.78
452.409	41477.34
452.615	41526.49
452.821	39464.19
453.027	39120.13
453.233	41333.98
453.44	39322.88
453.646	39816.44
453.852	39769.33
454.058	40994.02
454.264	39683.32
454.47	40197.36
454.676	39445.76
454.882	40852.71
455.088	37233.95
455.294	37653.78
455.5	38339.85
455.705	38616.33
455.911	37229.85
456.117	36545.83
456.323	35949.87
456.529	33793.36
456.735	35689.78
456.941	34383.18
457.147	33916.24
457.352	32888.16
457.558	31993.2
457.764	32871.78
457.97	31937.9
458.176	31319.42
458.381	31161.72
458.587	29898.13
458.793	29482.39
458.999	28427.68
459.204	30127.5
459.41	29468.05
459.616	27395.51
459.821	27389.36
460.027	27559.34
460.233	26754.49
460.438	25533.9
460.644	25738.7
460.85	24677.85
461.055	24090.09
461.261	24286.69
461.466	22502.91
461.672	21843.46
461.878	23291.38
462.083	21841.42
462.289	21601.8
462.494	21173.78
462.7	20280.86
462.905	19775.02
463.111	20586.01
463.316	20530.72
463.522	20117.03
463.727	20241.95
463.932	19885.61
464.138	19861.03
464.343	20078.11
464.549	19183.15
464.754	20233.76
464.959	19627.56
465.165	19897.89
465.37	18935.35
465.575	18423.36
465.781	18953.78
465.986	19047.99
466.191	18531.9
466.397	18343.49
466.602	17245.77
466.807	17991.23
467.012	18042.43
467.218	17923.65
467.423	17999.43
467.628	17796.68
467.833	18562.62
468.038	17602.12
468.244	17364.56
468.449	17987.14
468.654	17315.41
468.859	17239.63
469.064	17047.12
469.269	16629.34
469.474	16705.11
469.679	17114.7
469.885	16320.09
470.09	16516.7
470.295	16467.55
470.5	16320.09
470.705	16168.54
470.91	15834.72
471.115	15588.97
471.32	15945.31
471.525	15814.24
471.73	15445.61
471.935	15359.59
472.139	14962.29
472.344	14960.24
472.549	15089.26
472.754	14958.19
472.959	14548.6
473.164	14120.57
473.369	14108.29
473.574	14657.14
473.778	14376.57
473.983	14333.56
474.188	14390.91
474.393	13434.5
474.598	13502.09
474.802	13565.57
475.007	13287.05
475.212	13446.79
475.417	12899.98
475.621	12975.76
475.826	12730
476.031	12605.08
476.235	12334.75
476.44	12674.71
476.645	12699.28
476.849	12361.37
477.054	12232.35
477.259	12261.02
477.463	12203.68
477.668	11867.81
477.872	11896.48
478.077	11675.3
478.282	11417.26
478.486	11665.06
478.691	11396.78
478.895	11277.99
479.1	11398.82
479.304	11050.67
479.509	10753.71
479.713	11103.92
479.918	11245.23
480.122	10985.13
480.326	10895.02
480.531	10755.76
480.735	10561.2
480.94	10620.6
481.144	10981.04
481.348	10464.95
481.553	10569.4
481.757	10458.81
481.961	10606.26
482.166	10778.29
482.37	10606.26
482.574	10358.46
482.778	10360.5
482.983	10704.56
483.187	10518.2
483.391	10553.01
483.595	10493.62
483.8	10284.73
484.004	10720.95
484.208	10671.79
484.412	10374.84
484.616	10532.53
484.821	10571.44
485.025	10395.32
485.229	10426.04
485.433	10340.02
485.637	10374.84
485.841	10297.02
486.045	10317.5
486.249	10483.38
486.453	10403.51
486.657	10475.19
486.861	10403.51
487.065	10303.16
487.269	10436.28
487.473	10165.95
487.677	10364.6
487.881	10510
488.085	10434.23
488.289	10518.2
488.493	10442.42
488.697	10655.41
488.901	10507.96
489.105	10489.53
489.309	10802.86
489.512	10444.47
489.716	10673.84
489.92	10768.05
490.124	10647.22
490.328	10819.25
490.531	10569.4
490.735	10905.26
490.939	10907.31
491.143	10759.86
491.346	10665.65
491.55	11095.72
491.754	10860.21
491.958	10962.61
492.161	10884.78
492.365	10841.78
492.569	10892.98
492.772	10960.56
492.976	11138.73
493.18	11177.64
493.383	11542.18
493.587	11562.66
493.79	11744.93
493.994	11370.15
494.197	11695.78
494.401	11695.78
494.605	11755.17
494.808	12023.45
495.012	11933.34
495.215	11974.3
495.419	12146.33
495.622	11949.73
495.825	12293.79
496.029	12267.16
496.232	12525.21
496.436	12562.07
496.639	12957.33
496.843	12736.15
497.046	13012.62
497.249	13084.3
497.453	13135.5
497.656	13172.36
497.859	13223.56
498.063	13565.57
498.266	13985.41
498.469	13723.27
498.673	13663.88
498.876	14169.73
499.079	14077.57
499.282	14063.23
499.485	14761.59
499.689	14765.68
499.892	15062.64
500.095	14837.36
500.298	15251.05
500.501	15218.29
500.705	15476.33
500.908	15771.24
501.111	15494.76
501.314	15922.79
501.517	16184.93
501.72	16457.31
501.923	16475.74
502.126	16645.72
502.329	17036.88
502.532	17002.07
502.735	16997.97
502.938	17505.87
503.141	17673.8
503.344	17888.84
503.547	17897.03
503.75	18019.91
503.953	18427.45
504.156	18302.53
504.359	18914.87
504.562	18755.13
504.765	19154.48
504.968	19586.6
505.17	19625.51
505.373	19314.22
505.576	20096.55
505.779	20076.07
505.982	20362.78
506.185	20581.92
506.387	20854.3
506.59	21130.77
506.793	21397.01
506.996	21390.86
507.198	21906.95
507.401	21810.7
507.604	22210.05
507.807	22322.69
508.009	22429.18
508.212	22892.02
508.415	22996.47
508.617	23066.1
508.82	23643.63
509.022	23404.02
509.225	24145.38
509.428	24276.45
509.63	24346.08
509.833	24688.09
510.035	25206.23
510.238	24980.95
510.44	25548.24
510.643	25671.12
510.845	26115.53
511.048	26035.66
511.25	26385.86
511.453	26199.49
511.655	27479.47
511.858	27129.27
512.06	27280.82
512.262	27702.7
512.465	27674.03
512.667	28347.81
512.87	28374.44
513.072	28366.24
513.274	29076.89
513.477	29367.7
513.679	29539.73
513.881	29951.37
514.084	30252.42
514.286	30203.27
514.488	30446.98
514.69	31260.02
514.893	31237.5
515.095	31477.11
515.297	31595.89
515.499	31604.08
515.701	32195.95
515.904	32787.81
516.106	32734.56
516.308	33023.33
516.51	33473.88
516.712	33506.65
516.914	33705.3
517.116	34313.55
517.318	34702.66
517.52	34864.45
517.722	34712.9
517.925	35308.86
518.127	35353.91
518.329	36126
518.531	35697.97
518.733	36320.56
518.935	36861.22
519.136	36713.77
519.338	37258.52
519.54	38126.86
519.742	38014.23
519.944	38116.62
520.146	38759.69
520.348	39167.23
520.55	39011.59
520.752	39046.4
520.954	40197.36
521.155	39562.49
521.357	40731.88
521.559	40869.09
521.761	41153.76
521.963	41207.01
522.164	41592.03
522.366	41749.72
522.568	41934.04
522.77	42243.28
522.971	42595.53
523.173	42534.09
523.375	43394.24
523.576	42724.55
523.778	42962.12
523.98	44094.64
524.181	44303.54
524.383	43889.85
524.584	44182.71
524.786	44805.29
524.988	44471.47
525.189	45126.82
525.391	45468.83
525.592	45333.67
525.794	45681.82
525.995	45720.73
526.197	45532.32
526.398	45950.1
526.6	46128.28
526.801	46326.93
527.003	46523.54
527.204	46969.99
527.406	47109.25
527.607	47441.03
527.808	47428.74
528.01	47019.14
528.211	47664.25
528.412	48944.23
528.614	47873.15
528.815	48303.22
529.016	48817.26
529.218	48301.17
529.419	48608.37
529.62	48690.29
529.822	48518.26
530.023	48600.18
530.224	49233
530.425	48827.5
530.626	48503.92
530.828	48798.83
531.029	49980.51
531.23	49048.68
531.431	48807.02
531.632	49382.5
531.833	49613.92
532.035	49208.42
532.236	49697.89
532.437	50316.37
532.638	49665.12
532.839	50164.82
533.04	50111.58
533.241	49554.53
533.442	50392.15
533.643	50185.3
533.844	49966.17
534.045	50234.45
534.246	50003.03
534.447	50390.1
534.648	50355.28
534.849	50306.13
535.05	50041.95
535.251	50504.79
535.451	50545.75
535.652	50375.76
535.853	50066.52
536.054	50277.46
536.255	50836.56
536.456	50181.21
536.657	50570.32
536.857	50537.55
537.058	50226.26
537.259	50197.59
537.46	50621.52
537.66	49910.88
537.861	50375.76
538.062	50254.93
538.263	50390.1
538.463	50431.06
538.664	50107.48
538.865	50246.74
539.065	50672.72
539.266	50123.86
539.466	50762.83
539.667	49824.86
539.868	50502.74
540.068	50674.77
540.269	50412.63
540.469	50478.16
540.67	50730.06
540.87	50271.32
541.071	50672.72
541.271	50525.27
541.472	50562.13
541.672	50240.6
541.873	50345.05
542.073	49855.58
542.274	50701.39
542.474	50078.81
542.675	50275.41
542.875	50779.21
543.075	50525.27
543.276	50013.27
543.476	51321.93
543.676	50136.15
543.877	50345.05
544.077	50541.65
544.277	50295.89
544.478	50672.72
544.678	50607.19
544.878	49874.01
545.078	50639.95
545.279	50242.65
545.479	50306.13
545.679	50316.37
545.879	50066.52
546.079	50240.6
546.28	50240.6
546.48	49792.09
546.68	50480.21
546.88	50334.81
547.08	50216.02
547.28	49892.44
547.48	50017.37
547.68	50394.2
547.88	49888.35
548.081	50177.11
548.281	50330.71
548.481	49464.42
548.681	50529.36
548.881	50136.15
549.081	49955.93
549.28	49726.56
549.48	50127.96
549.68	49681.5
549.88	50398.29
550.08	49609.82
550.28	50224.21
550.48	49833.05
550.68	50431.06
550.88	49542.24
551.08	49759.33
551.279	50054.23
551.479	49689.7
551.679	49849.44
551.879	49652.83
552.079	50056.28
552.278	49871.96
552.478	49665.12
552.678	49644.64
552.878	49951.84
553.077	49728.61
553.277	49292.39
553.477	50039.9
553.676	49775.71
553.876	49607.78
554.076	49701.98
554.275	49243.24
554.475	49185.89
554.674	49894.49
554.874	49585.25
555.074	49587.3
555.273	49562.72
555.473	49022.06
555.672	49165.42
555.872	49218.66
556.071	49112.17
556.271	49357.92
556.47	48665.71
556.67	48800.88
556.869	49136.74
557.068	49130.6
557.268	48882.8
557.467	49265.77
557.667	48923.75
557.866	49009.77
558.065	48653.42
558.265	48403.57
558.464	48364.66
558.663	48966.76
558.863	48180.34
559.062	48770.16
559.261	48106.62
559.461	48706.67
559.66	47373.44
559.859	48258.16
560.058	47877.24
560.258	48120.95
560.457	47723.65
560.656	47705.21
560.855	47670.4
561.054	48227.45
561.253	47690.88
561.453	47697.02
561.652	47262.85
561.851	47860.86
562.05	47670.4
562.249	47551.62
562.448	47451.27
562.647	47486.08
562.846	47025.29
563.045	46693.52
563.244	46490.77
563.443	47123.59
563.642	46228.63
563.841	46490.77
564.04	46498.96
564.239	46843.02
564.438	46339.22
564.637	46810.25
564.836	46546.06
565.035	46011.54
565.234	46218.39
565.432	45388.96
565.631	45706.4
565.83	45927.58
566.029	45900.95
566.228	45661.34
566.427	45536.41
566.625	45446.3
566.824	44919.98
567.023	45409.44
567.222	44014.77
567.42	45659.29
567.619	45081.77
567.818	44686.51
568.016	44494
568.215	45151.4
568.414	44387.5
568.612	44745.9
568.811	44215.47
569.01	44289.2
569.208	43562.17
569.407	44180.66
569.605	43603.13
569.804	44139.7
570.002	43732.15
570.201	43574.46
570.4	43525.31
570.598	43345.09
570.797	43558.08
570.995	43564.22
571.193	42677.45
571.392	43422.91
571.59	43001.03
571.789	42929.35
571.987	42695.88
572.186	42542.28
572.384	42255.57
572.582	42415.31
572.781	42681.55
572.979	42226.9
573.177	42226.9
573.376	42351.82
573.574	42251.47
573.772	42214.61
573.971	41907.41
574.169	41424.09
574.367	41481.44
574.565	41800.92
574.763	41233.63
574.962	41094.37
575.16	40953.06
575.358	41245.92
575.556	40525.03
575.754	41262.3
575.952	40639.72
576.151	40854.76
576.349	40496.36
576.547	40350.96
576.745	40619.24
576.943	40482.03
577.141	40404.2
577.339	40232.18
577.537	40105.2
577.735	40017.14
577.933	39777.53
578.131	39947.51
578.329	39722.23
578.527	39638.26
578.725	39507.19
578.923	39388.41
579.121	39460.09
579.319	39267.58
579.516	39204.1
579.714	39148.8
579.912	38624.52
580.11	38407.44
580.308	38696.2
580.506	38694.15
580.704	38176.01
580.901	38137.1
581.099	38546.7
581.297	38034.7
581.495	38237.45
581.692	38192.4
581.89	37692.69
582.088	38272.27
582.285	37530.9
582.483	37834
582.681	37561.62
582.878	37344.54
583.076	36971.81
583.274	37610.78
583.471	37211.42
583.669	36840.74
583.866	36691.24
584.064	37002.53
584.262	36556.07
584.459	37254.43
584.657	36414.76
584.854	37006.62
585.052	35966.26
585.249	36144.43
585.447	36287.79
585.644	36121.9
585.841	36191.53
586.039	36394.28
586.236	35382.59
586.434	35765.56
586.631	35458.36
586.828	35732.79
587.026	35261.76
587.223	35284.28
587.42	35185.98
587.618	35390.78
587.815	34874.69
588.012	34751.81
588.21	34780.48
588.407	34977.09
588.604	34395.46
588.801	34225.48
588.999	34215.24
589.196	34293.07
589.393	34338.12
589.59	34039.12
589.787	34075.98
589.984	34051.41
590.182	33871.18
590.379	33983.82
590.576	33430.87
590.773	33867.09
590.97	33371.48
591.167	33600.85
591.364	33084.76
591.561	33002.85
591.758	32851.3
591.955	33178.97
592.152	33291.61
592.349	32515.43
592.546	32896.35
592.743	33164.64
592.94	32746.85
593.137	32331.11
593.334	32714.08
593.531	32036.2
593.727	32228.71
593.924	32085.36
594.121	31888.75
594.318	31923.57
594.515	31622.51
594.712	32175.47
594.908	31430.01
595.105	31888.75
595.302	31454.58
595.499	31393.14
595.696	31059.32
595.892	31204.73
596.089	31391.09
596.286	30897.53
596.482	30786.94
596.679	30899.58
596.876	30649.73
597.072	30616.96
597.269	30569.86
597.466	30219.66
597.662	30309.77
597.859	30365.06
598.055	30455.17
598.252	30115.21
598.448	30158.22
598.645	29838.73
598.841	29478.29
599.038	29883.79
599.234	29949.32
599.431	29658.51
599.627	29443.48
599.824	29361.56
600.02	29291.93
600.217	29357.46
600.413	29310.36
600.609	29031.83
600.806	28876.19
601.002	28814.75
601.198	28851.61
601.395	28620.19
601.591	28726.69
601.787	28646.82
601.984	28423.59
602.18	28876.19
602.376	28308.9
602.572	28378.53
602.769	28022.19
602.965	27895.21
603.161	27798.96
603.357	27989.42
603.553	27702.7
603.75	27694.51
603.946	27350.45
604.142	27815.34
604.338	27008.44
604.534	27596.21
604.73	27063.74
604.926	27203
605.122	27485.62
605.318	26860.99
605.514	26975.67
605.71	26860.99
605.906	27006.39
606.102	26953.15
606.298	27141.56
606.494	26959.29
606.69	26467.78
606.886	26746.3
607.082	26365.38
607.278	26611.14
607.474	26217.93
607.67	26850.75
607.866	26148.29
608.062	26242.5
608.257	26308.04
608.453	26176.97
608.649	26105.29
608.845	25892.3
609.041	25746.89
609.236	25929.16
609.432	25863.63
609.628	25839.05
609.824	25650.64
610.019	25402.83
610.215	25789.9
610.411	25550.29
610.606	25163.22
610.802	25306.58
610.998	25159.13
611.193	25220.56
611.389	25066.97
611.584	25298.39
611.78	25093.59
611.976	24862.17
612.171	24985.05
612.367	25075.16
612.562	24890.84
612.758	24559.07
612.953	24407.52
613.149	24868.31
613.344	24473.06
613.539	24966.62
613.735	24675.8
613.93	24815.07
614.126	24378.85
614.321	24546.78
614.517	24311.27
614.712	24401.38
614.907	24206.82
615.103	24235.49
615.298	24378.85
615.493	24489.44
615.688	23932.39
615.884	24116.71
616.079	23662.06
616.274	24137.19
616.47	23621.1
616.665	23918.06
616.86	23737.84
617.055	23578.09
617.25	23526.89
617.445	24063.46
617.641	23352.82
617.836	23594.48
618.031	23057.91
618.226	23571.95
618.421	23258.61
618.616	23418.35
618.811	22926.84
619.006	23268.85
619.201	22846.97
619.396	23074.29
619.591	22513.15
619.786	22619.64
619.981	22044.16
620.176	22609.4
620.371	22191.62
620.566	22351.36
620.761	22212.1
620.956	21943.81
621.151	22384.13
621.346	22240.77
621.541	21902.86
621.735	21904.9
621.93	21536.27
622.125	21397.01
622.32	21503.5
622.515	21616.14
622.709	21480.97
622.904	21114.39
623.099	20672.03
623.294	21272.08
623.488	20813.34
623.683	20813.34
623.878	20665.88
624.072	20741.66
624.267	20854.3
624.462	20362.78
624.656	19945
624.851	20182.56
625.046	20108.83
625.24	19912.23
625.435	19689
625.629	19633.71
625.824	19668.52
626.018	19404.33
626.213	19152.43
626.407	19473.96
626.602	19029.55
626.796	19213.87
626.991	19209.78
627.185	18904.63
627.38	18755.13
627.574	18667.06
627.768	18535.99
627.963	18441.79
628.157	18071.11
628.352	18363.97
628.546	17962.56
628.74	18134.59
628.935	18118.21
629.129	17933.89
629.323	17948.23
629.517	17585.74
629.712	17702.47
629.906	17641.03
630.1	17094.22
630.294	17313.36
630.489	17352.27
630.683	17276.49
630.877	17055.31
631.071	16758.36
631.265	17227.34
631.459	16934.48
631.653	16721.49
631.848	16639.58
632.042	16402.01
632.236	16811.6
632.43	16350.81
632.624	16447.07
632.818	16344.67
633.012	16021.09
633.206	16113.25
633.4	15930.98
633.594	15695.46
633.788	15763.04
633.982	15849.06
634.176	15787.62
634.369	15623.78
634.563	15418.99
634.757	15357.55
634.951	15384.17
635.145	15099.5
635.339	15343.21
635.533	15058.54
635.726	15246.96
635.92	15033.97
636.114	15031.92
636.308	14708.34
636.501	15029.87
636.695	14663.29
636.889	14648.95
637.083	14421.63
637.276	14399.1
637.47	14579.32
637.664	14235.26
637.857	14202.49
638.051	14018.18
638.244	13878.91
638.438	13899.39
638.632	13934.21
638.825	13731.46
639.019	13866.63
639.212	13631.11
639.406	13575.81
639.599	13538.95
639.793	13315.72
639.986	13168.27
640.18	13414.02
640.373	13254.28
640.567	13108.88
640.76	13211.28
640.954	13072.01
641.147	13153.93
641.34	12703.38
641.534	12768.91
641.727	12750.48
641.92	12598.93
642.114	12662.42
642.307	12490.39
642.5	12439.19
642.694	12168.86
642.887	12250.78
643.08	12291.74
643.273	12226.2
643.467	12070.56
643.66	11800.23
643.853	12015.26
644.046	11781.79
644.239	11923.1
644.432	11691.68
644.626	11673.25
644.819	11753.12
645.012	11865.76
645.205	11411.11
645.398	11640.48
645.591	11194.03
645.784	11407.02
645.977	11359.91
646.17	11232.94
646.363	11095.72
646.556	10995.37
646.749	11085.48
646.942	11148.97
647.135	10837.68
647.328	10995.37
647.521	11093.68
647.714	10649.27
647.907	10772.14
648.099	10620.6
648.292	10596.02
648.485	10419.89
648.678	10464.95
648.871	10446.52
649.064	10251.96
649.256	10266.3
649.449	10397.37
649.642	10346.17
649.835	10014.4
650.027	10114.75
650.22	10118.84
650.413	10018.49
650.605	9967.29
650.798	9963.2
650.991	9815.74
651.183	9828.03
651.376	9776.83
651.568	9764.54
651.761	9604.8
651.954	9598.66
652.146	9506.5
652.339	9510.6
652.531	9543.36
652.724	9354.95
652.916	9297.61
653.109	9383.62
653.301	9207.5
653.494	9238.22
653.686	9053.9
653.879	9395.91
654.071	9199.3
654.263	8781.52
654.456	8703.7
654.648	9107.15
654.84	8931.02
655.033	9025.23
655.225	8808.14
655.417	8781.52
655.61	8795.86
655.802	8879.82
655.994	8683.22
656.186	8576.72
656.379	8554.19
656.571	8437.46
656.763	8300.25
656.955	8322.77
657.148	8359.64
657.34	8412.88
657.532	8414.93
657.724	8261.34
657.916	8167.13
658.108	8416.98
658.3	8132.31
658.492	8179.42
658.684	8208.09
658.876	8062.68
659.068	7937.76
659.26	7857.89
659.452	7763.68
659.644	7771.87
659.836	7640.8
660.028	7968.48
660.22	7579.36
660.412	7739.1
660.604	7616.23
660.796	7765.73
660.988	7665.38
661.18	7583.46
661.372	7624.42
661.563	7501.54
661.755	7470.82
661.947	7487.2
662.139	7376.61
662.331	7233.25
662.522	7165.67
662.714	7210.73
662.906	7300.84
663.097	7149.29
663.289	7093.99
663.481	7122.66
663.673	7048.94
663.864	6891.24
664.056	6964.97
664.247	6975.21
664.439	6807.28
664.631	6838
664.822	7098.09
665.014	6856.43
665.205	6938.35
665.397	6815.47
665.588	6668.02
665.78	6751.98
665.971	6715.12
666.163	6725.36
666.354	6696.69
666.546	6493.94
666.737	6424.31
666.929	6651.63
667.12	6491.89
667.311	6508.27
667.503	6340.34
667.694	6364.92
667.885	6196.98
668.077	6457.07
668.268	6364.92
668.459	6440.69
668.651	6160.12
668.842	6270.71
669.033	6258.42
669.224	6162.17
669.416	6291.19
669.607	5895.93
669.798	6201.08
669.989	6078.2
670.18	6014.71
670.371	6065.91
670.563	5949.18
670.754	6201.08
670.945	5975.8
671.136	5951.23
671.327	5889.79
671.518	5910.27
671.709	5938.94
671.9	6041.34
672.091	5971.71
672.282	5793.53
672.473	5721.85
672.664	5787.39
672.855	5930.75
673.046	5818.11
673.237	5639.94
673.428	5863.16
673.619	5869.31
673.809	5578.5
674	5656.32
674.191	5596.93
674.382	5674.75
674.573	5568.26
674.764	5543.68
674.954	5760.77
675.145	5406.47
675.336	5484.29
675.527	5494.53
675.717	5549.82
675.908	5570.3
676.099	5521.15
676.289	5365.51
676.48	5439.23
676.671	5381.89
676.861	5353.22
677.052	5381.89
677.243	5420.8
677.433	5451.52
677.624	5539.58
677.814	5304.07
678.005	5334.79
678.195	5336.84
678.386	5377.8
678.576	5373.7
678.767	5336.84
678.957	5461.76
679.148	5490.43
679.338	5371.65
679.529	5312.26
679.719	5252.87
679.909	5461.76
680.1	5375.75
680.29	5322.5
680.481	5392.13
680.671	5353.22
680.861	5240.58
681.052	5287.68
681.242	5144.33
681.432	5234.44
681.622	5189.38
681.813	5199.62
682.003	5234.44
682.193	5091.08
682.383	5203.72
682.573	5185.29
682.764	5293.83
682.954	5267.2
683.144	5189.38
683.334	5140.23
683.524	5107.46
683.714	5011.21
683.904	4894.47
684.094	4964.11
684.284	5185.29
684.474	5216.01
684.664	5021.45
684.854	5070.6
685.044	5005.06
685.234	5003.02
685.424	4994.83
685.614	4923.15
685.804	4960.01
685.994	4937.48
686.184	5091.08
686.374	5000.97
686.564	4919.05
686.753	5027.59
686.943	4904.71
687.133	4790.03
687.323	4790.03
687.513	4730.64
687.702	4996.87
687.892	4714.25
688.082	4701.97
688.272	4734.73
688.461	4583.18
688.651	4650.77
688.841	4622.09
689.03	4534.03
689.22	4593.42
689.41	4716.3
689.599	4683.53
689.789	4642.57
689.979	4591.38
690.168	4523.79
690.358	4511.5
690.547	4601.62
690.737	4394.77
690.926	4462.35
691.116	4265.75
691.305	4572.94
691.495	4407.06
691.684	4321.04
691.874	4392.72
692.063	4462.35
692.252	4392.72
692.442	4362
692.631	4259.6
692.82	4288.28
693.01	4282.13
693.199	4390.67
693.388	4243.22
693.578	4288.28
693.767	4206.36
693.956	4232.98
694.146	4173.59
694.335	4124.44
694.524	4173.59
694.713	4153.11
694.902	4198.17
695.092	4140.82
695.281	4149.01
695.47	4091.67
695.659	4044.57
695.848	4255.51
696.037	4136.73
696.226	4106.01
696.415	4022.04
696.604	4036.38
696.793	3925.79
696.982	3813.15
697.171	4079.38
697.36	4003.61
697.549	3976.98
697.738	4034.33
697.927	3884.83
698.116	3983.13
698.305	3893.02
698.494	3911.45
698.683	3936.03
698.872	4034.33
699.061	3829.53
699.25	3860.25
699.438	3925.79
699.627	4058.9
699.816	3876.63
700.005	3737.37
700.193	3835.67
700.382	3931.93
700.571	3809.05
700.76	3931.93
700.948	3852.06
701.137	3868.44
701.326	3741.47
701.514	3778.33
701.703	3829.53
701.892	3731.23
702.08	3933.98
702.269	3940.12
702.457	3743.52
702.646	3915.55
702.834	3862.3
703.023	3870.49
703.212	3870.49
703.4	3843.87
703.589	3794.72
703.777	3727.13
703.965	3737.37
704.154	3987.22
704.342	3708.7
704.531	3729.18
704.719	3747.61
704.907	3731.23
705.096	3749.66
705.284	3804.96
705.472	3786.52
705.661	3780.38
705.849	3761.95
706.037	3852.06
706.226	3796.76
706.414	3800.86
706.602	3843.87
706.79	3821.34
706.979	3780.38
707.167	3708.7
707.355	3786.52
707.543	3747.61
707.731	3901.21
707.919	3811.1
708.107	3745.56
708.296	3735.32
708.484	3665.69
708.672	3677.98
708.86	3700.51
709.048	3872.54
709.236	3725.08
709.424	3682.08
709.612	3720.99
709.8	3759.9
709.988	3637.02
710.176	3798.81
710.364	3735.32
710.551	3677.98
710.739	3682.08
710.927	3778.33
711.115	3741.47
711.303	3733.28
711.491	3800.86
711.679	3706.65
711.866	3708.7
712.054	3720.99
712.242	3741.47
712.43	3764
712.617	3661.6
712.805	3690.27
712.993	3657.5
713.181	3798.81
713.368	3684.13
713.556	3831.58
713.744	3702.56
713.931	3850.01
714.119	3727.13
714.306	3653.41
714.494	3747.61
714.682	3751.71
714.869	3690.27
715.057	3770.14
715.244	3723.04
715.432	3800.86
715.619	3565.34
715.807	3604.25
715.994	3735.32
716.182	3833.63
716.369	3821.34
716.556	3696.41
716.744	3677.98
716.931	3718.94
717.119	3571.49
717.306	3716.89
717.493	3682.08
717.681	3747.61
717.868	3626.78
718.055	3671.84
718.242	3768.09
718.43	3723.04
718.617	3718.94
718.804	3720.99
718.991	3696.41
719.179	3708.7
719.366	3776.28
719.553	3794.72
719.74	3753.76
719.927	3708.7
720.114	3710.75
720.301	3645.21
720.488	3727.13
720.676	3729.18
720.863	3749.66
721.05	3684.13
721.237	3706.65
721.424	3694.36
721.611	3585.82
721.798	3700.51
721.985	3753.76
722.172	3632.93
722.358	3632.93
722.545	3772.19
722.732	3761.95
722.919	3639.07
723.106	3692.32
723.293	3557.15
723.48	3661.6
723.667	3655.45
723.853	3645.21
724.04	3616.54
724.227	3518.24
724.414	3630.88
724.6	3651.36
724.787	3520.29
724.974	3575.58
725.161	3653.41
725.347	3499.81
725.534	3634.97
725.72	3675.93
725.907	3704.6
726.094	3655.45
726.28	3553.06
726.467	3630.88
726.653	3528.48
726.84	3522.34
727.027	3585.82
727.213	3557.15
727.4	3772.19
727.586	3651.36
727.773	3557.15
727.959	3581.73
728.145	3583.77
728.332	3587.87
728.518	3594.01
728.705	3514.14
728.891	3458.85
729.077	3551.01
729.264	3577.63
729.45	3555.1
729.636	3587.87
729.823	3477.28
730.009	3501.86
730.195	3659.55
730.382	3610.4
730.568	3479.33
730.754	3479.33
730.94	3489.57
731.126	3489.57
731.313	3481.38
731.499	3542.82
731.685	3438.37
731.871	3571.49
732.057	3485.47
732.243	3501.86
732.429	3542.82
732.615	3424.03
732.801	3323.68
732.987	3395.36
733.173	3352.35
733.359	3647.26
733.545	3397.41
733.731	3401.51
733.917	3440.42
734.103	3440.42
734.289	3546.91
734.475	3442.46
734.661	3520.29
734.847	3495.71
735.033	3596.06
735.219	3370.79
735.404	3307.3
735.59	3301.15
735.776	3368.74
735.962	3364.64
736.148	3405.6
736.333	3397.41
736.519	3329.83
736.705	3247.91
736.89	3407.65
737.076	3280.68
737.262	3313.44
737.447	3456.8
737.633	3260.2
737.819	3356.45
738.004	3350.31
738.19	3413.79
738.375	3368.74
738.561	3446.56
738.747	3301.15
738.932	3233.57
739.118	3350.31
739.303	3229.48
739.489	3249.96
739.674	3151.65
739.859	3243.81
740.045	3174.18
740.23	3282.72
740.416	3053.35
740.601	3161.89
740.786	3104.55
740.972	3096.36
741.157	3168.04
741.342	3137.32
741.528	3036.97
741.713	3045.16
741.898	3176.23
742.084	3069.73
742.269	3188.52
742.454	3079.97
742.639	3137.32
742.824	3024.68
743.01	3157.8
743.195	3012.39
743.38	3008.3
743.565	3036.97
743.75	3055.4
743.935	2920.23
744.12	3041.06
744.305	2957.1
744.49	2938.66
744.675	2832.17
744.86	2834.22
745.045	2985.77
745.23	2840.36
745.415	2823.98
745.6	2860.84
745.785	2668.33
745.97	2821.93
746.155	2707.24
746.34	2776.87
746.525	2694.96
746.71	2826.03
746.895	2821.93
747.079	2819.88
747.264	2697
747.449	2750.25
747.634	2686.76
747.819	2641.71
748.003	2660.14
748.188	2656.04
748.373	2596.65
748.557	2580.27
748.742	2522.93
748.927	2473.78
749.111	2465.58
749.296	2475.82
749.481	2531.12
749.665	2471.73
749.85	2391.86
750.034	2424.62
750.219	2492.21
750.404	2402.1
750.588	2398
750.773	2379.57
750.957	2377.52
751.141	2320.18
751.326	2254.64
751.51	2307.89
751.695	2303.79
751.879	2203.44
752.064	2336.56
752.248	2187.06
752.432	2314.03
752.617	2121.52
752.801	2133.81
752.985	2215.73
753.17	2182.96
753.354	2221.88
753.538	2195.25
753.722	2066.23
753.907	2129.72
754.091	2055.99
754.275	2070.33
754.459	2121.52
754.643	1996.6
754.828	1965.88
755.012	1967.93
755.196	1947.45
755.38	1929.02
755.564	1896.25
755.748	1955.64
755.932	1890.1
756.116	1941.3
756.3	2012.98
756.484	1890.1
756.668	1900.34
756.852	1892.15
757.036	1830.71
757.22	1793.85
757.404	1875.77
757.588	1886.01
757.772	1773.37
757.956	1802.04
758.14	1816.38
758.323	1795.9
758.507	1771.32
758.691	1709.88
758.875	1769.27
759.059	1697.6
759.242	1711.93
759.426	1707.84
759.61	1650.49
759.794	1566.53
759.977	1648.44
760.161	1654.59
760.345	1605.44
760.528	1644.35
760.712	1683.26
760.895	1587.01
761.079	1683.26
761.263	1537.85
761.446	1597.24
761.63	1670.97
761.813	1576.77
761.997	1496.89
762.18	1625.92
762.364	1531.71
762.547	1488.7
762.731	1478.46
762.914	1562.43
763.098	1404.74
763.281	1441.6
763.464	1427.26
763.648	1441.6
763.831	1500.99
764.015	1349.44
764.198	1494.85
764.381	1455.94
764.564	1421.12
764.748	1423.17
764.931	1380.16
765.114	1402.69
765.297	1392.45
765.481	1367.87
765.664	1318.72
765.847	1349.44
766.03	1457.98
766.213	1394.5
766.397	1316.67
766.58	1333.06
766.763	1331.01
766.946	1271.62
767.129	1335.1
767.312	1339.2
767.495	1371.97
767.678	1238.85
767.861	1359.68
768.044	1333.06
768.227	1341.25
768.41	1296.19
768.593	1316.67
768.776	1304.39
768.959	1310.53
769.142	1308.48
769.324	1167.17
769.507	1310.53
769.69	1187.65
769.873	1187.65
770.056	1314.63
770.239	1212.23
770.421	1371.97
770.604	1146.69
770.787	1206.08
770.97	1179.46
771.152	1208.13
771.335	1234.75
771.518	1187.65
771.7	1210.18
771.883	1206.08
772.066	1255.23
772.248	1077.06
772.431	1199.94
772.613	1038.15
772.796	1183.56
772.978	1140.55
773.161	1122.12
773.343	1075.01
773.526	1146.69
773.708	1113.92
773.891	1111.88
774.073	1099.59
774.256	1089.35
774.438	1083.2
774.621	1060.68
774.803	1107.78
774.985	1034.05
775.168	1056.58
775.35	1038.15
775.532	1124.16
775.715	1011.53
775.897	1075.01
776.079	980.81
776.261	923.46
776.444	958.28
776.626	939.85
776.808	851.78
776.99	917.32
777.173	966.47
777.355	933.7
777.537	982.85
777.719	902.98
777.901	927.56
778.083	864.07
778.265	847.69
778.447	954.18
778.629	876.36
778.811	964.42
778.993	913.22
779.175	911.18
779.357	917.32
779.539	880.46
779.721	798.54
779.903	835.4
780.085	866.12
780.267	872.26
780.449	755.53
780.631	851.78
780.812	831.3
780.994	763.72
781.176	741.19
781.358	765.77
781.54	708.43
781.721	782.15
781.903	724.81
782.085	743.24
782.267	741.19
782.448	769.87
782.63	622.41
782.812	835.4
782.993	802.63
783.175	782.15
783.357	675.66
783.538	624.46
783.72	646.99
783.901	694.09
784.083	626.51
784.264	687.95
784.446	665.42
784.627	681.8
784.809	687.95
784.99	716.62
785.172	704.33
785.353	679.75
785.535	677.71
785.716	626.51
785.897	589.64
786.079	618.32
786.26	675.66
786.441	595.79
786.623	579.4
786.804	569.16
786.985	661.32
787.167	517.97
787.348	563.02
787.529	593.74
787.71	610.12
787.891	608.08
788.073	540.49
788.254	556.88
788.435	636.75
788.616	593.74
788.797	585.55
788.978	544.59
789.159	497.49
789.34	536.4
789.522	530.25
789.703	520.01
789.884	558.92
790.065	513.87
790.246	470.86
790.427	556.88
790.607	548.68
790.788	569.16
790.969	456.53
791.15	511.82
791.331	542.54
791.512	485.2
791.693	464.72
791.874	434
792.054	462.67
792.235	440.14
792.416	411.47
792.597	474.96
792.778	503.63
792.958	413.52
793.139	440.14
793.32	429.9
793.5	456.53
793.681	401.23
793.862	481.1
794.042	481.1
794.223	440.14
794.404	448.33
794.584	405.33
794.765	380.75
794.945	503.63
795.126	468.81
795.306	434
795.487	403.28
795.667	401.23
795.848	450.38
796.028	356.18
796.209	415.57
796.389	429.9
796.57	374.61
796.75	323.41
796.93	499.53
797.111	442.19
797.291	438.09
797.471	401.23
797.652	331.6
797.832	352.08
798.012	368.46
798.192	358.22
798.373	325.46
798.553	345.94
798.733	372.56
798.913	360.27
799.093	356.18
799.274	405.33
799.454	403.28
799.634	352.08
799.814	397.14
799.994	339.79
800.174	362.32
800.354	390.99
800.534	347.98
800.714	331.6
800.894	261.97
801.074	302.93
801.254	341.84
801.434	380.75
801.614	339.79
801.794	325.46
801.974	745.29
802.154	339.79
802.334	327.5
802.514	286.54
802.693	280.4
802.873	364.37
803.053	360.27
803.233	302.93
803.413	333.65
803.592	288.59
803.772	413.52
803.952	319.31
804.131	333.65
804.311	257.87
804.491	364.37
804.67	247.63
804.85	204.63
805.03	239.44
805.209	372.56
805.389	329.55
805.568	274.26
805.748	257.87
805.928	352.08
806.107	309.07
806.287	231.25
806.466	272.21
806.646	282.45
806.825	253.78
807.004	280.4
807.184	282.45
807.363	341.84
807.543	210.77
807.722	286.54
807.901	296.78
808.081	278.35
808.26	333.65
808.439	253.78
808.619	261.97
808.798	274.26
808.977	286.54
809.156	212.82
809.336	307.02
809.515	319.31
809.694	253.78
809.873	307.02
810.052	307.02
810.231	300.88
810.411	323.41
810.59	292.69
810.769	206.67
810.948	231.25
811.127	214.87
811.306	196.43
811.485	180.05
811.664	284.5
811.843	245.59
812.022	237.39
812.201	218.96
812.38	231.25
812.559	186.19
812.737	257.87
812.916	171.86
813.095	206.67
813.274	229.2
813.453	229.2
813.632	235.35
813.811	210.77
813.989	116.56
814.168	272.21
814.347	182.1
814.526	190.29
814.704	233.3
814.883	198.48
815.062	200.53
815.24	196.43
815.419	163.67
815.598	237.39
815.776	98.13
815.955	124.76
816.133	186.19
816.312	239.44
816.49	225.11
816.669	143.19
816.847	132.95
817.026	237.39
817.204	235.35
817.383	175.95
817.561	175.95
817.74	239.44
817.918	233.3
818.097	223.06
818.275	206.67
818.453	229.2
818.632	200.53
818.81	163.67
818.988	122.71
819.167	165.71
819.345	184.15
819.523	159.57
819.701	157.52
819.879	188.24
820.058	247.63
820.236	268.11
820.414	200.53
820.592	135
820.77	178
820.948	135
821.127	104.28
821.305	184.15
821.483	192.34
821.661	173.91
821.839	229.2
822.017	204.63
822.195	225.11
822.373	270.16
822.551	180.05
822.729	114.52
822.907	135
823.085	210.77
823.262	143.19
823.44	175.95
823.618	147.28
823.796	145.24
823.974	69.46
824.152	151.38
824.329	223.06
824.507	194.39
824.685	130.9
824.863	147.28
825.04	165.71
825.218	157.52
825.396	243.54
825.574	135
825.751	104.28
825.929	180.05
826.107	145.24
826.284	135
826.462	139.09
826.639	120.66
826.817	147.28
826.994	104.28
827.172	126.8
827.349	208.72
827.527	106.32
827.704	221.01
827.882	126.8
828.059	227.15
828.237	169.81
828.414	204.63
828.591	71.51
828.769	147.28
828.946	116.56
829.124	126.8
829.301	165.71
829.478	106.32
829.655	126.8
829.833	145.24
830.01	51.03
830.187	114.52
830.364	122.71
830.542	118.61
830.719	67.41
830.896	180.05
831.073	81.75
831.25	87.89
831.427	89.94
831.604	120.66
831.782	83.8
831.959	126.8
832.136	69.46
832.313	135
832.49	143.19
832.667	135
832.844	116.56
833.021	141.14
833.198	94.04
833.374	188.24
833.551	104.28
833.728	128.85
833.905	102.23
834.082	73.56
834.259	169.81
834.436	77.65
834.612	57.17
834.789	163.67
834.966	124.76
835.143	71.51
835.319	65.36
835.496	77.65
835.673	89.94
835.85	204.63
836.026	135
836.203	108.37
836.38	104.28
836.556	61.27
836.733	135
836.909	132.95
837.086	96.08
837.262	75.6
837.439	36.69
837.616	63.32
837.792	85.84
837.968	102.23
838.145	73.56
838.321	85.84
838.498	122.71
838.674	104.28
838.851	94.04
839.027	79.7
839.203	46.93
839.38	94.04
839.556	79.7
839.732	44.88
839.909	40.79
840.085	48.98
840.261	116.56
840.437	69.46
840.614	63.32
840.79	135
840.966	65.36
841.142	108.37
841.318	71.51
841.494	77.65
841.671	94.04
841.847	147.28
842.023	98.13
842.199	120.66
842.375	147.28
842.551	118.61
842.727	59.22
842.903	114.52
843.079	96.08
843.255	145.24
843.431	161.62
843.607	112.47
843.783	77.65
843.959	155.47
844.134	116.56
844.31	75.6
844.486	132.95
844.662	20.31
844.838	32.6
845.013	124.76
845.189	67.41
845.365	155.47
845.541	104.28
845.716	128.85
845.892	110.42
846.068	79.7
846.244	96.08
846.419	81.75
846.595	48.98
846.77	16.21
846.946	44.88
847.122	48.98
847.297	3.93
847.473	75.6
847.648	57.17
847.824	102.23
847.999	75.6
848.175	16.21
848.35	79.7
848.526	20.31
848.701	51.03
848.876	141.14
849.052	34.64
849.227	69.46
849.403	55.12
849.578	42.84
849.753	81.75
849.929	36.69
850.104	32.6
850.279	57.17
850.454	91.99
850.63	83.8
850.805	53.08
850.98	30.55
851.155	122.71
851.33	71.51
851.505	81.75
851.681	75.6
851.856	61.27
852.031	44.88
852.206	28.5
852.381	-28.84
852.556	22.36
852.731	24.4
852.906	77.65
853.081	108.37
853.256	118.61
853.431	122.71
853.606	67.41
853.781	53.08
853.956	-34.99
854.131	124.76
854.305	-14.51
854.48	77.65
854.655	75.6
854.83	48.98
855.005	40.79
855.18	112.47
855.354	46.93
855.529	91.99
855.704	100.18
855.879	114.52
856.053	30.55
856.228	75.6
856.403	-49.32
856.577	55.12
856.752	81.75
856.926	-24.75
857.101	-32.94
857.276	77.65
857.45	77.65
857.625	-6.31
857.799	85.84
857.974	126.8
858.148	71.51
858.323	26.45
858.497	24.4
858.672	53.08
858.846	12.12
859.02	130.9
859.195	30.55
859.369	57.17
859.543	-10.41
859.718	81.75
859.892	151.38
860.066	73.56
860.241	-26.79
860.415	53.08
860.589	3.93
860.763	75.6
860.938	63.32
861.112	12.12
861.286	-8.36
861.46	36.69
861.634	-10.41
861.808	16.21
861.982	16.21
862.157	57.17
862.331	32.6
862.505	12.12
862.679	-24.75
862.853	44.88
863.027	24.4
863.201	85.84
863.375	-12.46
863.549	32.6
863.722	28.5
863.896	63.32
864.07	34.64
864.244	-28.84
864.418	20.31
864.592	-18.6
864.766	91.99
864.939	26.45
865.113	91.99
865.287	24.4
865.461	22.36
865.634	36.69
865.808	36.69
865.982	28.5
866.156	8.02
866.329	28.5
866.503	55.12
866.676	77.65
866.85	24.4
867.024	22.36
867.197	34.64
867.371	-6.31
867.544	26.45
867.718	30.55
867.891	51.03
868.065	30.55
868.238	20.31
868.412	40.79
868.585	53.08
868.759	10.07
868.932	77.65
869.105	44.88
869.279	20.31
869.452	46.93
869.625	63.32
869.799	69.46
869.972	-69.8
870.145	79.7
870.319	40.79
870.492	18.26
870.665	34.64
870.838	-37.03
871.011	34.64
871.185	40.79
871.358	40.79
871.531	-10.41
871.704	-0.17
871.877	-8.36
872.05	-28.84
872.223	22.36
872.396	46.93
872.569	46.93
872.742	36.69
872.915	18.26
873.088	-39.08
873.261	53.08
873.434	34.64
873.607	18.26
873.78	137.04
873.953	18.26
874.126	87.89
874.299	87.89
874.471	44.88
874.644	98.13
874.817	1.88
874.99	10.07
875.163	-30.89
875.335	16.21
875.508	124.76
875.681	12.12
875.853	139.09
876.026	85.84
876.199	3.93
876.371	53.08
876.544	34.64
876.717	28.5
876.889	18.26
877.062	122.71
877.234	44.88
877.407	-51.37
877.579	-63.66
877.752	-16.55
877.924	106.32
878.097	42.84
878.269	-49.32
878.442	-8.36
878.614	-69.8
878.786	67.41
878.959	59.22
879.131	71.51
879.303	-22.7
879.476	65.36
879.648	51.03
879.82	-41.13
879.993	24.4
880.165	-20.65
880.337	-41.13
880.509	-0.17
880.681	-10.41
880.854	24.4
881.026	44.88
881.198	96.08
881.37	-37.03
881.542	32.6
881.714	-24.75
881.886	44.88
882.058	40.79
882.23	20.31
882.402	-6.31
882.574	63.32
882.746	24.4
882.918	126.8
883.09	26.45
883.262	20.31
883.434	98.13
883.606	-24.75
883.778	34.64
883.95	38.74
884.122	-4.27
884.293	18.26
884.465	12.12
884.637	79.7
884.809	-14.51
884.98	81.75
885.152	53.08
885.324	-16.55
885.496	18.26
885.667	3.93
885.839	3.93
886.011	65.36
886.182	28.5
886.354	32.6
886.525	5.97
886.697	51.03
886.869	18.26
887.04	32.6
887.212	51.03
887.383	67.41
887.555	-6.31
887.726	-20.65
887.897	-26.79
888.069	26.45
888.24	-18.6
888.412	-4.27
888.583	40.79
888.754	3.93
888.926	-24.75
889.097	24.4
889.268	-14.51
889.44	-32.94
889.611	-2.22
889.782	32.6
889.953	1.88
890.125	57.17
890.296	-20.65
890.467	-67.75
890.638	24.4
890.809	24.4
890.98	65.36
891.151	98.13
891.323	-37.03
891.494	77.65
891.665	22.36
891.836	8.02
892.007	-53.42
892.178	55.12
892.349	34.64
892.52	-18.6
892.691	-22.7
892.862	22.36
893.032	-49.32
893.203	-16.55
893.374	-65.71
893.545	51.03
893.716	-4.27
893.887	22.36
894.057	-14.51
894.228	-12.46
894.399	-18.6
894.57	89.94
894.74	8.02
894.911	71.51
895.082	12.12
895.253	40.79
895.423	10.07
895.594	77.65
895.764	28.5
895.935	-10.41
896.106	89.94
896.276	91.99
896.447	-32.94
896.617	1.88
896.788	42.84
896.958	5.97
897.129	32.6
897.299	-41.13
897.47	1.88
897.64	44.88
897.81	-57.51
897.981	18.26
898.151	14.17
898.322	61.27
898.492	16.21
898.662	44.88
898.832	24.4
899.003	16.21
899.173	40.79
899.343	8.02
899.513	-18.6
