Data from USB4F104151__270__10-40-40-335.txt Node

Date: Wed Mar 12 10:40:40 EDT 2025
User: louis
Spectrometer: USB4F10415
Trigger mode: 4
Integration Time (sec): 3.000000E-2
Scans to average: 1
Electric dark correction enabled: true
Nonlinearity correction enabled: false
Boxcar width: 0
XAxis mode: Wavelengths
Number of Pixels in Spectrum: 3648
>>>>>Begin Spectral Data<<<<<
178.204	-172.54
178.424	-172.54
178.644	-172.54
178.864	-154.11
179.084	-115.2
179.304	-10.75
179.524	-61.95
179.744	24.06
179.964	77.31
180.184	-0.51
180.404	15.87
180.624	-12.8
180.844	38.4
181.064	-82.43
181.283	-45.57
181.503	-12.8
181.723	71.17
181.943	-23.04
182.163	114.17
182.383	22.02
182.602	69.12
182.822	71.17
183.042	15.87
183.262	-2.56
183.482	-41.47
183.701	65.02
183.921	44.54
184.141	-4.61
184.361	38.4
184.58	73.21
184.8	13.82
185.02	-20.99
185.239	181.76
185.459	34.3
185.679	112.13
185.898	-10.75
186.118	122.37
186.338	56.83
186.557	44.54
186.777	71.17
186.997	22.02
187.216	-8.7
187.436	108.03
187.655	15.87
187.875	26.11
188.095	62.98
188.314	71.17
188.534	89.6
188.753	67.07
188.973	71.17
189.192	5.63
189.412	11.78
189.631	93.69
189.851	56.83
190.07	118.27
190.29	-8.7
190.509	44.54
190.729	-66.05
190.948	85.5
191.168	105.98
191.387	5.63
191.607	11.78
191.826	26.11
192.045	-57.86
192.265	-4.61
192.484	54.78
192.704	11.78
192.923	-25.09
193.142	108.03
193.362	99.84
193.581	62.98
193.8	48.64
194.02	7.68
194.239	3.58
194.458	-20.99
194.678	-12.8
194.897	108.03
195.116	46.59
195.335	67.07
195.555	-0.51
195.774	58.88
195.993	15.87
196.212	24.06
196.432	67.07
196.651	56.83
196.87	1.54
197.089	60.93
197.308	-2.56
197.528	-0.51
197.747	28.16
197.966	34.3
198.185	124.41
198.404	9.73
198.623	75.26
198.842	1.54
199.062	38.4
199.281	48.64
199.5	32.26
199.719	48.64
199.938	32.26
200.157	118.27
200.376	-4.61
200.595	65.02
200.814	58.88
201.033	112.13
201.252	101.89
201.471	97.79
201.69	71.17
201.909	85.5
202.128	50.69
202.347	5.63
202.566	19.97
202.785	-4.61
203.004	81.41
203.223	44.54
203.442	56.83
203.661	32.26
203.879	75.26
204.098	7.68
204.317	62.98
204.536	132.61
204.755	7.68
204.974	77.31
205.193	56.83
205.411	65.02
205.63	56.83
205.849	42.5
206.068	44.54
206.287	19.97
206.505	93.69
206.724	-16.9
206.943	93.69
207.162	50.69
207.381	34.3
207.599	-2.56
207.818	-27.14
208.037	40.45
208.255	52.74
208.474	7.68
208.693	36.35
208.911	44.54
209.13	91.65
209.349	60.93
209.567	65.02
209.786	120.32
210.005	114.17
210.223	97.79
210.442	-6.66
210.661	73.21
210.879	36.35
211.098	52.74
211.316	48.64
211.535	52.74
211.753	46.59
211.972	11.78
212.191	87.55
212.409	-35.33
212.628	-16.9
212.846	52.74
213.065	15.87
213.283	56.83
213.502	65.02
213.72	81.41
213.938	46.59
214.157	40.45
214.375	95.74
214.594	-16.9
214.812	44.54
215.031	19.97
215.249	34.3
215.467	73.21
215.686	-29.18
215.904	81.41
216.122	1.54
216.341	138.75
216.559	44.54
216.778	48.64
216.996	69.12
217.214	79.36
217.432	44.54
217.651	69.12
217.869	-10.75
218.087	44.54
218.306	-4.61
218.524	56.83
218.742	15.87
218.96	101.89
219.179	46.59
219.397	56.83
219.615	50.69
219.833	67.07
220.051	73.21
220.27	24.06
220.488	-33.28
220.706	44.54
220.924	89.6
221.142	-0.51
221.36	44.54
221.578	83.45
221.796	34.3
222.015	44.54
222.233	-0.51
222.451	28.16
222.669	36.35
222.887	99.84
223.105	44.54
223.323	42.5
223.541	42.5
223.759	81.41
223.977	7.68
224.195	105.98
224.413	-0.51
224.631	138.75
224.849	65.02
225.067	112.13
225.285	17.92
225.503	11.78
225.721	-45.57
225.939	116.22
226.157	48.64
226.375	118.27
226.592	15.87
226.81	122.37
227.028	48.64
227.246	91.65
227.464	52.74
227.682	1.54
227.9	13.82
228.117	85.5
228.335	22.02
228.553	58.88
228.771	46.59
228.989	69.12
229.206	87.55
229.424	22.02
229.642	46.59
229.86	87.55
230.077	114.17
230.295	24.06
230.513	9.73
230.731	85.5
230.948	65.02
231.166	85.5
231.384	38.4
231.601	40.45
231.819	132.61
232.037	-14.85
232.254	67.07
232.472	56.83
232.689	-49.66
232.907	71.17
233.125	103.93
233.342	54.78
233.56	-8.7
233.777	44.54
233.995	30.21
234.213	17.92
234.43	44.54
234.648	3.58
234.865	24.06
235.083	95.74
235.3	24.06
235.518	103.93
235.735	93.69
235.953	87.55
236.17	48.64
236.388	-14.85
236.605	5.63
236.822	65.02
237.04	75.26
237.257	13.82
237.475	46.59
237.692	40.45
237.909	36.35
238.127	44.54
238.344	-18.94
238.562	108.03
238.779	-14.85
238.996	-18.94
239.214	-6.66
239.431	46.59
239.648	83.45
239.865	83.45
240.083	103.93
240.3	38.4
240.517	32.26
240.735	-10.75
240.952	91.65
241.169	40.45
241.386	-0.51
241.603	67.07
241.821	9.73
242.038	30.21
242.255	67.07
242.472	-12.8
242.689	81.41
242.907	126.46
243.124	46.59
243.341	60.93
243.558	44.54
243.775	81.41
243.992	-29.18
244.209	85.5
244.426	11.78
244.643	17.92
244.86	24.06
245.078	112.13
245.295	38.4
245.512	56.83
245.729	81.41
245.946	124.41
246.163	26.11
246.38	-25.09
246.597	58.88
246.814	50.69
247.031	81.41
247.248	101.89
247.464	42.5
247.681	81.41
247.898	-68.09
248.115	56.83
248.332	46.59
248.549	71.17
248.766	97.79
248.983	81.41
249.2	89.6
249.417	15.87
249.633	69.12
249.85	17.92
250.067	65.02
250.284	-27.14
250.501	17.92
250.717	17.92
250.934	40.45
251.151	46.59
251.368	77.31
251.585	13.82
251.801	-25.09
252.018	40.45
252.235	118.27
252.451	19.97
252.668	54.78
252.885	56.83
253.102	-12.8
253.318	3.58
253.535	89.6
253.752	9.73
253.968	85.5
254.185	-4.61
254.401	65.02
254.618	75.26
254.835	48.64
255.051	89.6
255.268	67.07
255.484	101.89
255.701	30.21
255.917	15.87
256.134	30.21
256.351	11.78
256.567	67.07
256.784	24.06
257	52.74
257.217	48.64
257.433	155.13
257.65	77.31
257.866	-68.09
258.082	22.02
258.299	26.11
258.515	62.98
258.732	54.78
258.948	50.69
259.165	116.22
259.381	65.02
259.597	36.35
259.814	85.5
260.03	32.26
260.246	87.55
260.463	85.5
260.679	79.36
260.895	13.82
261.112	38.4
261.328	50.69
261.544	77.31
261.761	40.45
261.977	91.65
262.193	-41.47
262.409	81.41
262.626	71.17
262.842	124.41
263.058	26.11
263.274	48.64
263.49	3.58
263.707	36.35
263.923	75.26
264.139	22.02
264.355	65.02
264.571	77.31
264.787	32.26
265.004	50.69
265.22	112.13
265.436	44.54
265.652	-23.04
265.868	15.87
266.084	48.64
266.3	11.78
266.516	48.64
266.732	65.02
266.948	95.74
267.164	58.88
267.38	42.5
267.596	161.28
267.812	83.45
268.028	44.54
268.244	103.93
268.46	24.06
268.676	-16.9
268.892	67.07
269.108	24.06
269.324	30.21
269.54	-61.95
269.756	32.26
269.972	93.69
270.188	75.26
270.403	71.17
270.619	34.3
270.835	91.65
271.051	65.02
271.267	-16.9
271.483	1.54
271.698	118.27
271.914	89.6
272.13	62.98
272.346	65.02
272.562	32.26
272.777	89.6
272.993	15.87
273.209	67.07
273.425	44.54
273.64	34.3
273.856	52.74
274.072	28.16
274.287	44.54
274.503	118.27
274.719	58.88
274.934	26.11
275.15	62.98
275.366	-6.66
275.581	9.73
275.797	-0.51
276.012	132.61
276.228	-45.57
276.444	-16.9
276.659	87.55
276.875	-6.66
277.09	36.35
277.306	83.45
277.521	77.31
277.737	62.98
277.952	128.51
278.168	56.83
278.383	62.98
278.599	69.12
278.814	9.73
279.03	15.87
279.245	91.65
279.461	54.78
279.676	44.54
279.892	15.87
280.107	24.06
280.322	5.63
280.538	46.59
280.753	65.02
280.969	26.11
281.184	85.5
281.399	89.6
281.615	34.3
281.83	93.69
282.045	67.07
282.26	128.51
282.476	56.83
282.691	79.36
282.906	81.41
283.122	73.21
283.337	-16.9
283.552	62.98
283.767	32.26
283.983	67.07
284.198	-2.56
284.413	69.12
284.628	-12.8
284.843	75.26
285.058	62.98
285.274	-14.85
285.489	103.93
285.704	87.55
285.919	19.97
286.134	-4.61
286.349	26.11
286.564	89.6
286.779	19.97
286.995	36.35
287.21	-12.8
287.425	114.17
287.64	-33.28
287.855	52.74
288.07	26.11
288.285	77.31
288.5	30.21
288.715	-25.09
288.93	1.54
289.145	11.78
289.36	42.5
289.575	99.84
289.79	52.74
290.004	32.26
290.219	62.98
290.434	15.87
290.649	13.82
290.864	-16.9
291.079	44.54
291.294	38.4
291.509	85.5
291.724	9.73
291.938	79.36
292.153	75.26
292.368	13.82
292.583	-10.75
292.798	36.35
293.012	-12.8
293.227	48.64
293.442	56.83
293.657	15.87
293.871	1.54
294.086	62.98
294.301	134.65
294.516	157.18
294.73	87.55
294.945	52.74
295.16	97.79
295.374	77.31
295.589	73.21
295.804	-16.9
296.018	56.83
296.233	114.17
296.447	126.46
296.662	-68.09
296.877	54.78
297.091	-16.9
297.306	73.21
297.52	118.27
297.735	65.02
297.949	26.11
298.164	-0.51
298.378	73.21
298.593	81.41
298.807	32.26
299.022	19.97
299.236	56.83
299.451	71.17
299.665	99.84
299.88	73.21
300.094	142.85
300.309	19.97
300.523	77.31
300.737	67.07
300.952	28.16
301.166	116.22
301.381	69.12
301.595	-4.61
301.809	42.5
302.024	9.73
302.238	-29.18
302.452	120.32
302.667	9.73
302.881	40.45
303.095	87.55
303.309	62.98
303.524	89.6
303.738	22.02
303.952	69.12
304.166	36.35
304.381	-8.7
304.595	103.93
304.809	48.64
305.023	67.07
305.237	67.07
305.452	19.97
305.666	65.02
305.88	30.21
306.094	144.89
306.308	97.79
306.522	95.74
306.736	-14.85
306.95	24.06
307.164	3.58
307.379	-6.66
307.593	67.07
307.807	58.88
308.021	58.88
308.235	89.6
308.449	42.5
308.663	65.02
308.877	97.79
309.091	-0.51
309.305	11.78
309.519	22.02
309.733	112.13
309.947	67.07
310.161	44.54
310.374	32.26
310.588	87.55
310.802	-8.7
311.016	22.02
311.23	48.64
311.444	11.78
311.658	58.88
311.872	60.93
312.085	105.98
312.299	103.93
312.513	103.93
312.727	-33.28
312.941	-8.7
313.154	110.08
313.368	54.78
313.582	128.51
313.796	65.02
314.009	-37.38
314.223	85.5
314.437	-8.7
314.651	56.83
314.864	128.51
315.078	52.74
315.292	28.16
315.505	-35.33
315.719	124.41
315.933	40.45
316.146	-8.7
316.36	26.11
316.573	126.46
316.787	110.08
317.001	93.69
317.214	-25.09
317.428	93.69
317.641	15.87
317.855	89.6
318.068	52.74
318.282	79.36
318.495	89.6
318.709	83.45
318.922	40.45
319.136	140.8
319.349	65.02
319.563	62.98
319.776	81.41
319.99	28.16
320.203	30.21
320.417	93.69
320.63	67.07
320.843	19.97
321.057	52.74
321.27	105.98
321.483	101.89
321.697	85.5
321.91	79.36
322.124	58.88
322.337	67.07
322.55	89.6
322.763	-8.7
322.977	73.21
323.19	89.6
323.403	34.3
323.617	38.4
323.83	9.73
324.043	52.74
324.256	26.11
324.469	56.83
324.683	5.63
324.896	22.02
325.109	26.11
325.322	15.87
325.535	79.36
325.748	128.51
325.962	30.21
326.175	56.83
326.388	48.64
326.601	71.17
326.814	54.78
327.027	50.69
327.24	81.41
327.453	13.82
327.666	97.79
327.879	42.5
328.092	58.88
328.305	62.98
328.518	44.54
328.731	-14.85
328.944	77.31
329.157	114.17
329.37	62.98
329.583	85.5
329.796	110.08
330.009	-16.9
330.222	118.27
330.435	89.6
330.648	36.35
330.861	91.65
331.073	79.36
331.286	87.55
331.499	77.31
331.712	-20.99
331.925	3.58
332.138	48.64
332.35	97.79
332.563	73.21
332.776	13.82
332.989	42.5
333.202	-14.85
333.414	48.64
333.627	118.27
333.84	103.93
334.053	-14.85
334.265	24.06
334.478	85.5
334.691	36.35
334.903	60.93
335.116	3.58
335.329	81.41
335.541	19.97
335.754	85.5
335.966	95.74
336.179	48.64
336.392	28.16
336.604	-12.8
336.817	62.98
337.029	54.78
337.242	97.79
337.454	24.06
337.667	73.21
337.88	97.79
338.092	19.97
338.305	95.74
338.517	36.35
338.729	-12.8
338.942	52.74
339.154	-8.7
339.367	-2.56
339.579	46.59
339.792	48.64
340.004	120.32
340.217	19.97
340.429	32.26
340.641	-4.61
340.854	11.78
341.066	89.6
341.278	93.69
341.491	85.5
341.703	62.98
341.915	46.59
342.128	42.5
342.34	60.93
342.552	28.16
342.764	30.21
342.977	114.17
343.189	54.78
343.401	83.45
343.613	7.68
343.826	-25.09
344.038	38.4
344.25	24.06
344.462	56.83
344.674	108.03
344.886	97.79
345.099	122.37
345.311	3.58
345.523	22.02
345.735	-18.94
345.947	122.37
346.159	40.45
346.371	85.5
346.583	36.35
346.795	136.7
347.007	44.54
347.219	42.5
347.431	34.3
347.643	95.74
347.855	13.82
348.067	-0.51
348.279	97.79
348.491	13.82
348.703	97.79
348.915	-16.9
349.127	-57.86
349.339	13.82
349.551	34.3
349.763	177.66
349.975	-2.56
350.187	112.13
350.399	32.26
350.61	95.74
350.822	108.03
351.034	26.11
351.246	56.83
351.458	99.84
351.669	19.97
351.881	15.87
352.093	9.73
352.305	69.12
352.517	75.26
352.728	122.37
352.94	40.45
353.152	62.98
353.363	89.6
353.575	101.89
353.787	22.02
353.999	75.26
354.21	73.21
354.422	30.21
354.633	118.27
354.845	7.68
355.057	60.93
355.268	15.87
355.48	89.6
355.692	-39.42
355.903	7.68
356.115	56.83
356.326	19.97
356.538	112.13
356.749	108.03
356.961	67.07
357.172	30.21
357.384	97.79
357.595	87.55
357.807	50.69
358.018	36.35
358.23	7.68
358.441	48.64
358.653	114.17
358.864	28.16
359.075	44.54
359.287	46.59
359.498	108.03
359.709	46.59
359.921	71.17
360.132	-27.14
360.344	95.74
360.555	36.35
360.766	65.02
360.977	71.17
361.189	65.02
361.4	73.21
361.611	48.64
361.823	1.54
362.034	65.02
362.245	62.98
362.456	69.12
362.667	56.83
362.879	71.17
363.09	81.41
363.301	110.08
363.512	40.45
363.723	-2.56
363.935	73.21
364.146	19.97
364.357	83.45
364.568	77.31
364.779	52.74
364.99	192
365.201	54.78
365.412	75.26
365.623	22.02
365.834	79.36
366.045	71.17
366.256	91.65
366.467	93.69
366.678	54.78
366.889	73.21
367.1	83.45
367.311	120.32
367.522	99.84
367.733	101.89
367.944	112.13
368.155	79.36
368.366	95.74
368.577	97.79
368.788	77.31
368.999	3.58
369.209	48.64
369.42	52.74
369.631	138.75
369.842	50.69
370.053	-2.56
370.264	75.26
370.474	101.89
370.685	46.59
370.896	91.65
371.107	179.71
371.317	-2.56
371.528	-6.66
371.739	24.06
371.95	38.4
372.16	77.31
372.371	11.78
372.582	62.98
372.792	132.61
373.003	22.02
373.214	73.21
373.424	136.7
373.635	54.78
373.846	105.98
374.056	79.36
374.267	69.12
374.477	124.41
374.688	56.83
374.898	159.23
375.109	112.13
375.319	91.65
375.53	155.13
375.74	118.27
375.951	28.16
376.161	54.78
376.372	48.64
376.582	81.41
376.793	65.02
377.003	32.26
377.214	5.63
377.424	85.5
377.635	38.4
377.845	79.36
378.055	124.41
378.266	36.35
378.476	89.6
378.686	52.74
378.897	128.51
379.107	65.02
379.317	146.94
379.528	42.5
379.738	101.89
379.948	85.5
380.158	32.26
380.369	56.83
380.579	140.8
380.789	83.45
380.999	34.3
381.21	38.4
381.42	101.89
381.63	101.89
381.84	71.17
382.05	65.02
382.261	95.74
382.471	91.65
382.681	34.3
382.891	126.46
383.101	17.92
383.311	91.65
383.521	126.46
383.731	105.98
383.941	52.74
384.151	93.69
384.361	56.83
384.571	87.55
384.781	52.74
384.991	48.64
385.201	114.17
385.411	56.83
385.621	93.69
385.831	97.79
386.041	69.12
386.251	81.41
386.461	93.69
386.671	93.69
386.881	101.89
387.091	73.21
387.301	128.51
387.511	24.06
387.72	69.12
387.93	138.75
388.14	40.45
388.35	60.93
388.56	122.37
388.769	65.02
388.979	81.41
389.189	26.11
389.399	73.21
389.609	103.93
389.818	157.18
390.028	81.41
390.238	40.45
390.447	-35.33
390.657	140.8
390.867	87.55
391.076	73.21
391.286	163.33
391.496	73.21
391.705	103.93
391.915	124.41
392.125	114.17
392.334	58.88
392.544	103.93
392.753	85.5
392.963	93.69
393.172	159.23
393.382	65.02
393.591	140.8
393.801	56.83
394.01	122.37
394.22	179.71
394.429	87.55
394.639	134.65
394.848	122.37
395.058	169.47
395.267	83.45
395.477	163.33
395.686	85.5
395.895	116.22
396.105	183.81
396.314	208.38
396.524	62.98
396.733	196.09
396.942	136.7
397.152	130.56
397.361	140.8
397.57	91.65
397.78	89.6
397.989	155.13
398.198	146.94
398.407	95.74
398.617	187.9
398.826	171.52
399.035	146.94
399.244	163.33
399.453	153.09
399.663	130.56
399.872	171.52
400.081	110.08
400.29	58.88
400.499	148.99
400.708	177.66
400.917	163.33
401.127	198.14
401.336	216.57
401.545	155.13
401.754	214.52
401.963	196.09
402.172	155.13
402.381	89.6
402.59	142.85
402.799	142.85
403.008	144.89
403.217	192
403.426	185.85
403.635	116.22
403.844	153.09
404.053	196.09
404.262	105.98
404.471	179.71
404.68	202.24
404.888	169.47
405.097	161.28
405.306	169.47
405.515	247.29
405.724	179.71
405.933	247.29
406.142	251.39
406.35	269.82
406.559	237.05
406.768	265.72
406.977	237.05
407.185	212.48
407.394	208.38
407.603	232.96
407.812	286.2
408.02	294.4
408.229	257.53
408.438	261.63
408.646	214.52
408.855	325.12
409.064	345.59
409.272	286.2
409.481	310.78
409.69	349.69
409.898	357.88
410.107	366.07
410.315	368.12
410.524	376.31
410.733	278.01
410.941	437.75
411.15	482.81
411.358	433.66
411.567	491
411.775	437.75
411.984	437.75
412.192	454.14
412.401	482.81
412.609	501.24
412.818	564.73
413.026	589.3
413.234	589.3
413.443	652.79
413.651	669.17
413.86	656.89
414.068	753.14
414.276	777.72
414.485	665.08
414.693	790
414.901	740.85
415.11	820.72
415.318	812.53
415.526	892.4
415.734	835.06
415.943	990.7
416.151	953.84
416.359	908.79
416.567	1011.18
416.776	1080.82
416.984	1107.44
417.192	1089.01
417.4	1162.73
417.608	1134.06
417.817	1168.88
418.025	1209.84
418.233	1428.97
418.441	1439.21
418.649	1392.11
418.857	1435.11
419.065	1568.23
419.273	1461.74
419.481	1543.66
419.689	1637.86
419.897	1775.08
420.105	1789.41
420.313	1779.17
420.521	1916.39
420.729	1945.06
420.937	2043.36
421.145	2067.94
421.353	2063.84
421.561	2256.35
421.769	2338.27
421.977	2434.52
422.185	2414.04
422.393	2506.2
422.601	2698.71
422.809	2573.78
423.017	2610.65
423.224	2784.73
423.432	2956.75
423.64	2973.14
423.848	3282.38
424.056	3227.09
424.263	3313.1
424.471	3343.82
424.679	3427.79
424.887	3632.58
425.094	3659.21
425.302	3802.57
425.51	3812.81
425.718	3993.03
425.925	4009.41
426.133	4302.27
426.341	4410.81
426.548	4722.1
426.756	4728.25
426.964	4603.32
427.171	5019.06
427.379	5080.5
427.586	5082.55
427.794	5459.37
428.001	5686.7
428.209	5805.48
428.417	5764.52
428.624	6096.29
428.832	6057.38
429.039	6294.94
429.247	6137.25
429.454	6682.01
429.662	7232.91
429.869	6706.59
430.076	7191.95
430.284	6999.45
430.491	7267.73
430.699	7640.46
430.906	7673.23
431.114	7906.7
431.321	8166.79
431.528	8322.43
431.736	8531.33
431.943	9184.63
432.15	8846.71
432.358	9016.69
432.565	9624.94
432.772	9510.25
432.979	9950.57
433.187	10087.78
433.394	10220.9
433.601	10997.08
433.808	10775.9
434.016	10714.46
434.223	11291.99
434.43	12182.85
434.637	11869.51
434.844	12596.54
435.052	12733.76
435.259	12688.7
435.466	12670.27
435.673	12739.9
435.88	13516.08
436.087	13950.25
436.294	14107.94
436.501	13915.44
436.708	14208.3
436.915	14634.27
437.122	15164.7
437.329	15215.9
437.537	15844.62
437.743	16149.77
437.95	15928.59
438.157	16749.82
438.364	17124.6
438.571	17263.86
438.778	17237.24
438.985	18996.45
439.192	18011.37
439.399	18822.37
439.606	18502.89
439.813	19371.22
440.02	20780.23
440.227	20133.07
440.433	20024.53
440.64	20694.21
440.847	20587.72
441.054	21400.76
441.261	22178.99
441.467	22269.1
441.674	22961.31
441.881	23534.74
442.088	23458.97
442.294	23454.87
442.501	23839.89
442.708	24396.94
442.914	25377.92
443.121	25965.68
443.328	25652.34
443.534	27810.9
443.741	26584.17
443.948	26315.89
444.154	28392.53
444.361	27872.34
444.568	28476.49
444.774	28075.09
444.981	28326.99
445.187	29570.11
445.394	30475.31
445.6	30020.66
445.807	33041.42
446.013	32007.19
446.22	32486.42
446.426	33494.02
446.633	33907.71
446.839	34702.32
447.046	33348.61
447.252	35415.01
447.459	35603.42
447.665	34835.44
447.871	36574.16
448.078	38171.58
448.284	36361.17
448.491	37254.09
448.697	38605.75
448.903	39424.93
449.11	39420.84
449.316	38706.1
449.522	39576.48
449.728	40674.2
449.935	40643.48
450.141	40907.66
450.347	41546.63
450.553	40221.59
450.76	40725.39
450.966	41522.05
451.172	41255.82
451.378	42386.3
451.584	41249.67
451.791	42466.17
451.997	42054.53
452.203	43002.74
452.409	42828.66
452.615	42367.87
452.821	41216.91
453.027	40522.65
453.233	42380.15
453.44	40786.83
453.646	41169.8
453.852	41644.93
454.058	42115.97
454.264	40399.77
454.47	41452.42
454.676	40596.37
454.882	41851.78
455.088	37905.34
455.294	38628.27
455.5	38933.42
455.705	39363.5
455.911	37815.23
456.117	37012.43
456.323	36465.62
456.529	34675.69
456.735	36076.51
456.941	34937.83
457.147	34431.99
457.352	33672.19
457.558	33197.06
457.764	32875.53
457.97	32349.2
458.176	31392.8
458.381	31630.37
458.587	30204.98
458.793	29979.7
458.999	28771.4
459.204	30454.83
459.41	30022.71
459.616	27667.55
459.821	27688.03
460.027	27587.68
460.233	26999.91
460.438	25752.7
460.644	25943.16
460.85	24771.72
461.055	24642.7
461.261	24540.3
461.466	22549.67
461.672	21796.02
461.878	23354.52
462.083	22197.42
462.289	21583.03
462.494	21318.84
462.7	20798.66
462.905	19844.31
463.111	20653.25
463.316	20593.86
463.522	20454.6
463.727	20151.5
463.932	20227.28
464.138	20059.34
464.343	19922.13
464.549	19586.26
464.754	20221.13
464.959	20167.88
465.165	19932.37
465.37	19492.05
465.575	18803.94
465.781	19397.85
465.986	19610.84
466.191	18654.44
466.397	18531.56
466.602	17583.35
466.807	18396.39
467.012	18357.48
467.218	18173.16
467.423	17798.38
467.628	18124.01
467.833	18668.77
468.038	17945.84
468.244	17667.31
468.449	18216.17
468.654	17882.35
468.859	17321.21
469.064	17452.28
469.269	16770.3
469.474	16899.33
469.679	17435.89
469.885	16639.23
470.09	16923.9
470.295	16985.34
470.5	16389.38
470.705	16555.27
470.91	16268.55
471.115	16047.37
471.32	16237.83
471.525	16219.4
471.73	15787.28
471.935	15557.91
472.139	15211.8
472.344	15445.27
472.549	15133.98
472.754	14976.28
472.959	14888.22
473.164	14249.25
473.369	14130.47
473.574	14806.3
473.778	14437.67
473.983	14376.23
474.188	14497.06
474.393	14011.69
474.598	14097.7
474.802	13630.77
475.007	13692.21
475.212	13780.27
475.417	12850.49
475.621	13020.47
475.826	13233.46
476.031	13010.23
476.235	12815.68
476.44	12946.75
476.645	12328.26
476.849	12543.3
477.054	12684.61
477.259	12311.88
477.463	12387.65
477.668	12066.12
477.872	11978.06
478.077	12037.45
478.282	11609.42
478.486	11697.49
478.691	11531.6
478.895	11390.29
479.1	11517.26
479.304	11492.69
479.509	11044.18
479.713	11335
479.918	11126.1
480.122	11052.38
480.326	11052.38
480.531	10964.31
480.735	10935.64
480.94	10986.84
481.144	11181.4
481.348	10995.03
481.553	10753.37
481.757	10538.34
481.961	11021.66
482.166	10974.55
482.37	10753.37
482.574	10825.05
482.778	10693.98
482.983	11132.25
483.187	10638.69
483.391	10882.39
483.595	10718.56
483.8	10597.73
484.004	10857.82
484.208	10753.37
484.412	10765.66
484.616	10810.72
484.821	10728.8
485.025	10763.61
485.229	10913.11
485.433	10618.21
485.637	10751.32
485.841	10530.14
486.045	10548.58
486.249	10665.31
486.453	10657.12
486.657	10687.84
486.861	10751.32
487.065	10374.5
487.269	10739.04
487.473	10720.6
487.677	10896.73
487.881	10927.45
488.085	10734.94
488.289	10906.97
488.493	10837.34
488.697	10851.67
488.901	10849.63
489.105	10804.57
489.309	10917.21
489.512	11124.05
489.716	10861.91
489.92	10786.14
490.124	10861.91
490.328	11054.42
490.531	11046.23
490.735	11074.9
490.939	11236.69
491.143	11066.71
491.346	11191.64
491.55	11398.48
491.754	11318.61
491.958	11486.54
492.161	11189.59
492.365	11461.97
492.569	11304.28
492.772	11435.35
492.976	11500.88
493.18	11545.94
493.383	11822.41
493.587	11855.18
493.79	12115.27
493.994	11752.78
494.197	11801.93
494.401	12047.69
494.605	12143.94
494.808	12416.32
495.012	12475.71
495.215	12373.32
495.419	12481.86
495.622	12469.57
495.825	12602.69
496.029	12875.07
496.232	13012.28
496.436	13065.53
496.639	13399.35
496.843	13247.8
497.046	13579.57
497.249	13684.02
497.453	13548.85
497.656	13714.73
497.859	13770.03
498.063	13989.16
498.266	14224.68
498.469	14288.17
498.673	14640.42
498.876	14519.59
499.079	14734.62
499.282	14869.79
499.485	15060.25
499.689	15426.84
499.892	15256.86
500.095	15527.19
500.298	15809.81
500.501	15793.42
500.705	16080.14
500.908	16243.98
501.111	16485.64
501.314	16661.76
501.517	17091.84
501.72	17081.6
501.923	16989.44
502.126	17497.33
502.329	17601.78
502.532	17855.73
502.735	17896.69
502.938	18205.93
503.141	18267.37
503.344	18453.73
503.547	18603.24
503.75	19100.89
503.953	19272.92
504.156	19510.49
504.359	19461.34
504.562	19731.67
504.765	19930.32
504.968	20290.76
505.17	20503.75
505.373	20749.51
505.576	21058.75
505.779	21128.38
505.982	21335.23
506.185	21769.4
506.387	21775.54
506.59	22174.89
506.793	22279.34
506.996	22348.97
507.198	23166.11
507.401	22643.88
507.604	22983.84
507.807	23252.13
508.009	23590.04
508.212	23921.81
508.415	24364.17
508.617	24128.66
508.82	24431.76
509.022	24708.23
509.225	25035.91
509.428	25603.19
509.63	25580.67
509.833	25562.23
510.035	26238.06
510.238	26303.6
510.44	26506.35
510.643	26498.16
510.845	27337.82
511.048	26958.95
511.25	27434.08
511.453	27692.12
511.655	28521.55
511.858	28482.64
512.06	28501.07
512.262	28908.61
512.465	28544.08
512.667	29510.72
512.87	29629.5
513.072	29840.44
513.274	30331.95
513.477	30485.55
513.679	30958.63
513.881	31532.06
514.084	31200.29
514.286	31683.61
514.488	31759.39
514.69	32562.19
514.893	32570.38
515.095	32232.47
515.297	33102.85
515.499	32642.06
515.701	33666.05
515.904	33725.44
516.106	34417.65
516.308	34077.69
516.51	34696.17
516.712	34999.27
516.914	35036.14
517.116	35367.91
517.318	35804.13
517.52	36142.04
517.722	36260.82
517.925	36647.89
518.127	37008.33
518.329	37249.99
518.531	37516.23
518.733	37960.64
518.935	38183.87
519.136	38278.07
519.338	38998.96
519.54	39031.72
519.742	39334.82
519.944	39619.49
520.146	40485.78
520.348	40534.93
520.55	40635.28
520.752	40768.4
520.954	41098.12
521.155	41395.08
521.357	42083.2
521.559	42099.58
521.761	42855.28
521.963	42181.5
522.164	42668.92
522.366	42955.63
522.568	43342.7
522.77	43656.04
522.971	44424.03
523.173	44016.48
523.375	44397.4
523.576	44522.33
523.778	44594.01
523.98	45067.09
524.181	45462.35
524.383	45394.76
524.584	45853.51
524.786	45982.53
524.988	45830.98
525.189	46203.71
525.391	46619.45
525.592	47172.4
525.794	47483.69
525.995	47250.22
526.197	46709.56
526.398	47831.85
526.6	47909.67
526.801	48108.32
527.003	48263.97
527.204	48177.95
527.406	48696.09
527.607	48560.92
527.808	48911.13
528.01	48157.47
528.211	48859.93
528.412	49791.75
528.614	49490.7
528.815	49398.54
529.016	49668.87
529.218	49595.15
529.419	49513.23
529.62	49898.25
529.822	49562.38
530.023	49935.11
530.224	49883.91
530.425	50285.31
530.626	50144
530.828	49584.91
531.029	51151.6
531.23	50862.84
531.431	50512.64
531.632	50320.13
531.833	50836.22
532.035	50639.61
532.236	50981.62
532.437	51217.14
532.638	50549.5
532.839	50797.3
533.04	51440.37
533.241	50332.42
533.442	51790.57
533.643	51010.29
533.844	51235.57
534.045	51172.08
534.246	50717.43
534.447	51225.33
534.648	51073.78
534.849	51479.28
535.05	51110.64
535.251	51378.93
535.451	50959.09
535.652	51108.6
535.853	51518.19
536.054	51604.2
536.255	51708.65
536.456	51161.84
536.657	51929.83
536.857	51512.05
537.058	51094.26
537.259	51915.5
537.46	51344.11
537.66	51581.68
537.861	51260.15
538.062	51679.98
538.263	51360.5
538.463	51331.82
538.664	51393.26
538.865	51675.88
539.065	51677.93
539.266	50719.48
539.466	52108
539.667	51047.16
539.868	51596.01
540.068	51239.67
540.269	51460.85
540.469	51466.99
540.67	51151.6
540.87	51225.33
541.071	51223.28
541.271	51553.01
541.472	51069.68
541.672	50871.03
541.873	51573.49
542.073	50782.97
542.274	51514.09
542.474	51180.28
542.675	50897.66
542.875	51387.12
543.075	51030.77
543.276	50787.07
543.476	51434.22
543.676	50205.44
543.877	51446.51
544.077	50770.68
544.277	50721.53
544.478	50774.78
544.678	51180.28
544.878	51110.64
545.078	51102.45
545.279	50602.75
545.479	50617.08
545.679	51032.82
545.879	50719.48
546.079	50864.89
546.28	50977.53
546.48	50389.76
546.68	51004.15
546.88	50840.31
547.08	51012.34
547.28	50905.85
547.48	50279.17
547.68	50887.42
547.88	50504.45
548.081	50946.81
548.281	50608.89
548.481	50533.12
548.681	50805.5
548.881	50483.97
549.081	50717.43
549.28	50311.94
549.48	50916.09
549.68	50686.71
549.88	51493.61
550.08	50676.47
550.28	50225.92
550.48	50359.04
550.68	51299.06
550.88	50045.7
551.08	50791.16
551.279	50483.97
551.479	50123.52
551.679	50553.6
551.879	50129.67
552.079	50414.33
552.278	50496.25
552.478	50645.76
552.678	50488.06
552.878	50328.32
553.077	50064.13
553.277	49795.85
553.477	50389.76
553.676	50117.38
553.876	50045.7
554.076	49746.7
554.275	49986.31
554.475	49761.03
554.674	49804.04
554.874	49971.97
555.074	50000.65
555.273	50285.31
555.473	49990.41
555.672	49926.92
555.872	49457.93
556.071	50012.93
556.271	50209.54
556.47	49705.74
556.67	49441.55
556.869	49488.65
557.068	50193.15
557.268	49349.39
557.467	49087.25
557.667	49793.8
557.866	49447.69
558.065	48991
558.265	48986.9
558.464	48890.65
558.663	49169.17
558.863	48653.08
559.062	49378.06
559.261	48767.77
559.461	48991
559.66	48509.72
559.859	48671.51
560.058	48022.31
560.258	48657.18
560.457	48249.63
560.656	48966.42
560.855	48294.69
561.054	48630.55
561.253	48329.5
561.453	48136.99
561.652	48235.3
561.851	48327.45
562.05	47872.81
562.249	47874.85
562.448	48282.4
562.647	48042.79
562.846	47921.96
563.045	47776.55
563.244	47233.84
563.443	47760.17
563.642	46799.67
563.841	47131.44
564.04	47205.17
564.239	47328.05
564.438	46613.3
564.637	46934.84
564.836	47018.8
565.035	46568.25
565.234	46828.34
565.432	46601.02
565.631	46449.47
565.83	46461.76
566.029	46285.63
566.228	46035.78
566.427	45876.04
566.625	45744.97
566.824	45470.54
567.023	46048.07
567.222	44933.97
567.42	45898.56
567.619	45648.71
567.818	45458.25
568.016	45153.1
568.215	45765.45
568.414	45181.77
568.612	45585.22
568.811	45065.04
569.01	45009.75
569.208	44690.26
569.407	44979.03
569.605	44618.58
569.804	45132.62
570.002	44200.8
570.201	44770.13
570.4	44036.96
570.598	43922.27
570.797	43754.34
570.995	44442.46
571.193	43572.07
571.392	44131.17
571.59	43633.51
571.789	43631.46
571.987	43215.72
572.186	43264.88
572.384	43475.82
572.582	43443.05
572.781	43258.73
572.979	42494.84
573.177	43361.13
573.376	42881.91
573.574	42533.75
573.772	42785.65
573.971	42328.95
574.169	42134.4
574.367	42218.36
574.565	42640.25
574.763	42128.25
574.962	41894.78
575.16	41714.56
575.358	41978.75
575.556	41163.66
575.754	41925.5
575.952	41137.04
576.151	41657.22
576.349	41386.89
576.547	41372.55
576.745	41403.27
576.943	41180.04
577.141	41042.83
577.339	40862.61
577.537	40520.6
577.735	40725.39
577.933	40301.47
578.131	40240.03
578.329	40229.79
578.527	40450.97
578.725	39785.38
578.923	40074.14
579.121	39920.54
579.319	39963.55
579.516	39689.12
579.714	39889.82
579.912	39918.49
580.11	39508.9
580.308	39302.06
580.506	39562.15
580.704	38628.27
580.901	39564.2
581.099	39558.05
581.297	38984.62
581.495	39107.5
581.692	38994.86
581.89	38704.05
582.088	39054.25
582.285	38204.35
582.483	38867.89
582.681	38298.55
582.878	38022.08
583.076	38124.47
583.274	38536.12
583.471	37708.74
583.669	37753.79
583.866	37538.76
584.064	37864.38
584.262	37262.28
584.459	38048.7
584.657	37639.11
584.854	37372.87
585.052	36953.04
585.249	37364.68
585.447	37262.28
585.644	37034.95
585.841	37231.56
586.039	37268.42
586.236	36649.94
586.434	36953.04
586.631	36291.54
586.828	36344.79
587.026	36553.68
587.223	36318.17
587.42	35857.37
587.618	36119.51
587.815	35834.85
588.012	35730.4
588.21	35607.52
588.407	35900.38
588.604	35333.09
588.801	35245.03
588.999	35177.45
589.196	35228.65
589.393	34915.31
589.59	34681.84
589.787	35054.57
589.984	34692.08
590.182	34417.65
590.379	34909.16
590.576	34276.34
590.773	34225.14
590.97	34401.27
591.167	34278.39
591.364	33993.72
591.561	34245.62
591.758	33750.01
591.955	33907.71
592.152	33895.42
592.349	33711.1
592.546	33424.39
592.743	33528.83
592.94	33182.73
593.137	33262.6
593.334	33149.96
593.531	33061.9
593.727	33352.71
593.924	33336.32
594.121	32652.3
594.318	32918.54
594.515	32211.99
594.712	32687.12
594.908	32318.48
595.105	32412.69
595.302	32179.22
595.499	32271.38
595.696	31992.86
595.892	31929.37
596.089	31876.12
596.286	32068.63
596.482	31845.4
596.679	31763.48
596.876	32179.22
597.072	31728.67
597.269	31622.17
597.466	31263.78
597.662	31233.06
597.859	31474.72
598.055	31276.07
598.252	31087.65
598.448	30942.25
598.645	31112.23
598.841	30454.83
599.038	30626.86
599.234	30518.32
599.431	29991.99
599.627	30092.34
599.824	30704.68
600.02	30161.97
600.217	30268.47
600.413	30065.72
600.609	29871.16
600.806	29770.81
601.002	30168.12
601.198	29756.47
601.395	29492.29
601.591	29492.29
601.787	29475.9
601.984	29289.54
602.18	29637.69
602.376	29275.2
602.572	29066.31
602.769	28853.32
602.965	28791.88
603.161	28902.47
603.357	28750.92
603.553	28423.25
603.75	28337.23
603.946	28525.64
604.142	28701.77
604.338	28124.24
604.534	28310.61
604.73	28349.52
604.926	27964.5
605.122	27771.99
605.318	28263.5
605.514	27909.21
605.71	27673.69
605.906	27796.57
606.102	27710.55
606.298	27755.61
606.494	27614.3
606.69	27421.79
606.886	27651.16
607.082	27126.88
607.278	27411.55
607.474	26717.29
607.67	27114.59
607.866	26637.42
608.062	27210.85
608.257	26793.06
608.453	26895.46
608.649	26891.37
608.845	26467.44
609.041	26524.78
609.236	26561.64
609.432	26393.71
609.628	26461.29
609.824	26506.35
610.019	26213.49
610.215	26518.64
610.411	26463.34
610.606	26066.03
610.802	26236.02
610.998	26045.55
611.193	25810.04
611.389	25869.43
611.584	25478.27
611.78	25601.15
611.976	25662.58
612.171	26219.63
612.367	25556.09
612.562	25554.04
612.758	25083.01
612.953	25257.09
613.149	25660.54
613.344	25332.86
613.539	25683.06
613.735	25230.46
613.93	25414.78
614.126	25035.91
614.321	25220.22
614.517	25324.67
614.712	25140.35
614.907	24958.08
615.103	25025.67
615.298	24919.17
615.493	24984.71
615.688	24327.31
615.884	25164.93
616.079	24423.56
616.274	24755.33
616.47	24579.21
616.665	24562.83
616.86	24411.28
617.055	24464.52
617.25	24181.9
617.445	24460.43
617.641	24140.94
617.836	24171.66
618.031	23612.57
618.226	24065.17
618.421	23706.77
618.616	24218.77
618.811	23553.18
619.006	24022.16
619.201	23241.89
619.396	23872.66
619.591	23186.59
619.786	23370.91
619.981	22973.6
620.176	23243.93
620.371	23100.58
620.566	22908.07
620.761	22736.04
620.956	22912.16
621.151	22580.39
621.346	22852.77
621.541	22248.62
621.735	22439.08
621.93	21941.43
622.125	22097.07
622.32	21730.48
622.515	22086.83
622.709	21521.59
622.904	21722.29
623.099	21595.32
623.294	21589.17
623.488	21613.75
623.683	21578.93
623.878	21200.06
624.072	21308.6
624.267	20985.02
624.462	20819.14
624.656	20733.12
624.851	20759.75
625.046	20460.74
625.24	20294.86
625.435	19999.95
625.629	20354.25
625.824	20022.48
626.018	20141.26
626.213	19459.29
626.407	19905.74
626.602	19377.37
626.796	19748.05
626.991	19856.59
627.185	19612.88
627.38	19197.15
627.574	19039.45
627.768	18734.31
627.963	18930.91
628.157	18814.18
628.352	18744.55
628.546	18595.04
628.74	18937.06
628.935	18365.67
629.129	18255.08
629.323	18003.18
629.517	17841.39
629.712	18044.14
629.906	18011.37
630.1	17665.27
630.294	17784.05
630.489	17622.26
630.683	17483
630.877	17409.27
631.071	17329.4
631.265	17468.66
631.459	17241.34
631.653	17020.16
631.848	16858.37
632.042	16796.93
632.236	16741.63
632.43	16715.01
632.624	16780.54
632.818	16661.76
633.012	16241.93
633.206	16319.75
633.4	16665.86
633.594	16133.39
633.788	16016.65
633.982	16305.42
634.176	16100.62
634.369	15938.83
634.563	15955.21
634.757	15467.8
634.951	15818
635.145	15668.5
635.339	15496.47
635.533	15306.01
635.726	15531.28
635.92	14968.09
636.114	15156.5
636.308	14986.52
636.501	15170.84
636.695	15009.05
636.889	14808.35
637.083	14914.84
637.276	14570.79
637.47	14527.78
637.664	14368.04
637.857	14437.67
638.051	14574.88
638.244	14165.29
638.438	14208.3
638.632	14167.34
638.825	13954.35
639.019	13829.42
639.212	13655.34
639.406	13673.78
639.599	13899.05
639.793	13694.26
639.986	13382.96
640.18	13589.81
640.373	13417.78
640.567	13182.26
640.76	13348.15
640.954	13260.09
641.147	13098.3
641.34	13167.93
641.534	13212.98
641.727	12840.25
641.92	12840.25
642.114	12561.73
642.307	13036.86
642.5	12815.68
642.694	12557.63
642.887	12539.2
643.08	12490.05
643.273	12375.36
643.467	12150.09
643.66	12256.58
643.853	11973.96
644.046	11859.28
644.239	11877.71
644.432	12105.03
644.626	11949.39
644.819	11631.95
645.012	11869.51
645.205	11881.8
645.398	11752.78
645.591	11410.77
645.784	11672.91
645.977	11359.57
646.17	11459.92
646.363	11410.77
646.556	11134.29
646.749	11015.51
646.942	10960.22
647.135	10986.84
647.328	11277.65
647.521	11025.75
647.714	10843.48
647.907	10984.79
648.099	10810.72
648.292	10741.08
648.485	10579.29
648.678	10421.6
648.871	10622.3
649.064	10483.04
649.256	10474.85
649.449	10505.57
649.642	10231.14
649.835	10184.04
650.027	10155.37
650.22	10085.73
650.413	10075.49
650.605	10050.92
650.798	10102.12
650.991	9831.79
651.183	9973.1
651.376	9569.65
651.568	9713
651.761	9565.55
651.954	9665.9
652.146	9512.3
652.339	9594.22
652.531	9600.37
652.724	9422.19
652.916	9301.36
653.109	9280.88
653.301	9403.76
653.494	9387.38
653.686	9010.55
653.879	9162.1
654.071	9033.08
654.263	8959.35
654.456	8975.74
654.648	8934.78
654.84	8848.76
655.033	9012.6
655.225	8850.81
655.417	8807.8
655.61	8854.9
655.802	8699.26
655.994	8635.77
656.186	8598.91
656.379	8539.52
656.571	8633.72
656.763	8340.86
656.955	8265.09
657.148	8283.52
657.34	8344.96
657.532	8271.23
657.724	8158.6
657.916	8326.53
658.108	8306.05
658.3	8060.29
658.492	8166.79
658.684	7818.63
658.876	8078.72
659.068	7845.26
659.26	7937.41
659.452	7878.02
659.644	7695.75
659.836	7839.11
660.028	7687.56
660.22	7822.73
660.412	7681.42
660.604	7724.43
660.796	7398.8
660.988	7654.8
661.18	7464.33
661.372	7472.53
661.563	7507.34
661.755	7404.94
661.947	7454.09
662.139	7327.12
662.331	7232.91
662.522	7146.9
662.714	7136.66
662.906	7179.67
663.097	7107.99
663.289	6821.27
663.481	6954.39
663.673	7040.4
663.864	6901.14
664.056	6933.91
664.247	6845.85
664.439	6858.14
664.631	6737.31
664.822	6786.46
665.014	6706.59
665.205	6696.35
665.397	6661.53
665.588	6602.14
665.78	6516.12
665.971	6620.57
666.163	6522.27
666.354	6331.81
666.546	6452.64
666.737	6491.55
666.929	6438.3
667.12	6397.34
667.311	6417.82
667.503	6272.42
667.694	6385.05
667.885	6112.67
668.077	6337.95
668.268	6210.98
668.459	6110.63
668.651	6088.1
668.842	6090.15
669.033	6020.52
669.224	6020.52
669.416	5983.65
669.607	6153.63
669.798	6122.91
669.989	5975.46
670.18	5830.06
670.371	5969.32
670.563	5864.87
670.754	5766.57
670.945	5860.77
671.136	5698.99
671.327	5854.63
671.518	5729.7
671.709	5815.72
671.9	5715.37
672.091	5668.27
672.282	5703.08
672.473	5590.44
672.664	5641.64
672.855	5565.87
673.046	5463.47
673.237	5572.01
673.428	5557.68
673.619	5504.43
673.809	5399.98
674	5490.09
674.191	5486
674.382	5340.59
674.573	5291.44
674.764	5369.26
674.954	5469.61
675.145	5359.02
675.336	5295.54
675.527	5168.56
675.717	5225.9
675.908	5242.29
676.099	5180.85
676.289	5232.05
676.48	5266.86
676.671	5172.66
676.861	5397.93
677.052	5086.64
677.243	5033.4
677.433	5051.83
677.624	5115.31
677.814	5055.92
678.005	5152.18
678.195	4924.85
678.386	5103.03
678.576	4959.67
678.767	5049.78
678.957	5031.35
679.148	5123.51
679.338	5000.63
679.529	4994.48
679.719	4908.47
679.909	5057.97
680.1	4980.15
680.29	4998.58
680.481	4890.04
680.671	4928.95
680.861	4939.19
681.052	5010.87
681.242	4615.61
681.432	5060.02
681.622	4771.26
681.813	4873.65
682.003	4918.71
682.193	4830.65
682.383	4775.35
682.573	4967.86
682.764	5025.2
682.954	4810.17
683.144	4806.07
683.334	4763.06
683.524	4656.57
683.714	4715.96
683.904	4705.72
684.094	4726.2
684.284	4758.97
684.474	4672.95
684.664	4629.95
684.854	4750.78
685.044	4654.52
685.234	4545.98
685.424	4554.17
685.614	4505.02
685.804	4550.07
685.994	4552.12
686.184	4601.27
686.374	4529.59
686.564	4535.74
686.753	4646.33
686.943	4515.26
687.133	4586.94
687.323	4445.63
687.513	4402.62
687.702	4328.89
687.892	4488.64
688.082	4459.96
688.272	4380.09
688.461	4244.93
688.651	4398.52
688.841	4103.62
689.03	4257.22
689.22	4287.93
689.41	4251.07
689.599	4187.58
689.789	4171.2
689.979	4150.72
690.168	4087.23
690.358	3999.17
690.547	4054.47
690.737	4040.13
690.926	4062.66
691.116	4068.8
691.305	4083.14
691.495	4099.52
691.684	4117.95
691.874	4013.51
692.063	4064.71
692.252	4017.6
692.442	3950.02
692.631	3925.44
692.82	3982.79
693.01	3947.97
693.199	3882.44
693.388	3941.83
693.578	4105.67
693.767	3757.51
693.956	3878.34
694.146	3839.43
694.335	3843.53
694.524	3812.81
694.713	3767.75
694.902	3763.65
695.092	3792.33
695.281	3616.2
695.47	3745.22
695.659	3771.85
695.848	3919.3
696.037	3751.37
696.226	3657.16
696.415	3532.23
696.604	3653.06
696.793	3630.54
696.982	3691.98
697.171	3565
697.36	3657.16
697.549	3689.93
697.738	3669.45
697.927	3597.77
698.116	3603.91
698.305	3460.56
698.494	3669.45
698.683	3583.43
698.872	3718.6
699.061	3560.91
699.25	3626.44
699.438	3530.19
699.627	3593.67
699.816	3632.58
700.005	3583.43
700.193	3603.91
700.382	3585.48
700.571	3642.82
700.76	3499.47
700.948	3577.29
701.137	3534.28
701.326	3540.43
701.514	3499.47
701.703	3640.78
701.892	3440.08
702.08	3575.24
702.269	3440.08
702.457	3417.55
702.646	3599.82
702.834	3290.57
703.023	3485.13
703.212	3540.43
703.4	3542.47
703.589	3483.08
703.777	3552.71
703.965	3319.25
704.154	3470.8
704.342	3534.28
704.531	3517.9
704.719	3321.29
704.907	3448.27
705.096	3450.32
705.284	3493.32
705.472	3407.31
705.661	3343.82
705.849	3505.61
706.037	3507.66
706.226	3395.02
706.414	3491.27
706.602	3470.8
706.79	3397.07
706.979	3433.93
707.167	3335.63
707.355	3360.2
707.543	3294.67
707.731	3470.8
707.919	3415.5
708.107	3411.4
708.296	3376.59
708.484	3476.94
708.672	3532.23
708.86	3356.11
709.048	3401.16
709.236	3431.88
709.424	3462.6
709.612	3364.3
709.8	3212.75
709.988	3372.49
710.176	3419.6
710.364	3280.33
710.551	3421.64
710.739	3464.65
710.927	3419.6
711.115	3347.92
711.303	3483.08
711.491	3528.14
711.679	3251.66
711.866	3343.82
712.054	3419.6
712.242	3261.9
712.43	3366.35
712.617	3343.82
712.805	3433.93
712.993	3282.38
713.181	3368.4
713.368	3395.02
713.556	3345.87
713.744	3229.13
713.931	3519.95
714.119	3311.05
714.306	3380.68
714.494	3259.85
714.682	3433.93
714.869	3368.4
715.057	3337.68
715.244	3483.08
715.432	3454.41
715.619	3399.12
715.807	3311.05
715.994	3352.01
716.182	3337.68
716.369	3401.16
716.556	3364.3
716.744	3317.2
716.931	3431.88
717.119	3376.59
717.306	3405.26
717.493	3395.02
717.681	3349.96
717.868	3442.12
718.055	3333.58
718.242	3388.88
718.43	3478.99
718.617	3397.07
718.804	3382.73
718.991	3354.06
719.179	3429.84
719.366	3374.54
719.553	3358.16
719.74	3255.76
719.927	3294.67
720.114	3362.25
720.301	3292.62
720.488	3143.12
720.676	3347.92
720.863	3421.64
721.05	3356.11
721.237	3380.68
721.424	3423.69
721.611	3290.57
721.798	3343.82
721.985	3313.1
722.172	3411.4
722.358	3282.38
722.545	3352.01
722.732	3335.63
722.919	3186.13
723.106	3288.53
723.293	3343.82
723.48	3298.77
723.667	3313.1
723.853	3309.01
724.04	3294.67
724.227	3300.81
724.414	3143.12
724.6	3202.51
724.787	3298.77
724.974	3403.21
725.161	3288.53
725.347	3268.05
725.534	3294.67
725.72	3202.51
725.907	3188.18
726.094	3304.91
726.28	3309.01
726.467	3345.87
726.653	3317.2
726.84	3141.07
727.027	3188.18
727.213	3202.51
727.4	3321.29
727.586	3210.7
727.773	3235.28
727.959	3259.85
728.145	3222.99
728.332	3220.94
728.518	3108.3
728.705	3261.9
728.891	3251.66
729.077	3188.18
729.264	3175.89
729.45	3245.52
729.636	3159.5
729.823	3130.83
730.009	3192.27
730.195	3192.27
730.382	3153.36
730.568	3128.78
730.754	3087.82
730.94	3124.69
731.126	3169.74
731.313	3231.18
731.499	3202.51
731.685	3188.18
731.871	3112.4
732.057	3253.71
732.243	3120.59
732.429	3112.4
732.615	3143.12
732.801	3179.98
732.987	3116.5
733.173	3149.26
733.359	3155.41
733.545	3087.82
733.731	3128.78
733.917	3083.73
734.103	3126.74
734.289	3210.7
734.475	3063.25
734.661	3208.66
734.847	3055.06
735.033	3128.78
735.219	3194.32
735.404	3069.39
735.59	3132.88
735.776	3089.87
735.962	3231.18
736.148	3030.48
736.333	3182.03
736.519	2860.5
736.705	3114.45
736.89	3100.11
737.076	2983.38
737.262	2940.37
737.447	3057.11
737.633	3001.81
737.819	2842.07
738.004	3087.82
738.19	2948.56
738.375	2934.23
738.561	2909.65
738.747	3032.53
738.932	2903.51
739.118	3034.58
739.303	2932.18
739.489	2825.68
739.674	2827.73
739.859	3020.24
740.045	2958.8
740.23	2909.65
740.416	2825.68
740.601	2817.49
740.786	2852.31
740.972	2801.11
741.157	2848.21
741.342	2756.05
741.528	2801.11
741.713	2837.97
741.898	2790.87
742.084	2848.21
742.269	2921.94
742.454	2723.29
742.639	2833.88
742.824	2735.57
743.01	2770.39
743.195	2766.29
743.38	2522.59
743.565	2713.05
743.75	2647.51
743.935	2563.54
744.12	2747.86
744.305	2606.55
744.49	2651.61
744.675	2569.69
744.86	2577.88
745.045	2682.33
745.23	2723.29
745.415	2561.5
745.6	2645.46
745.785	2532.83
745.97	2612.7
746.155	2571.74
746.34	2604.5
746.525	2536.92
746.71	2432.47
746.895	2477.53
747.079	2432.47
747.264	2332.12
747.449	2422.24
747.634	2436.57
747.819	2371.04
748.003	2344.41
748.188	2448.86
748.373	2287.07
748.557	2356.7
748.742	2389.47
748.927	2297.31
749.111	2360.8
749.296	2215.39
749.481	2338.27
749.665	2274.78
749.85	2186.72
750.034	2227.68
750.219	2252.25
750.404	2141.66
750.588	2178.53
750.773	2129.38
750.957	2104.8
751.141	2139.62
751.326	2067.94
751.51	2184.67
751.695	2133.47
751.879	2203.1
752.064	2078.18
752.248	2094.56
752.432	1992.16
752.617	1959.39
752.801	2008.55
752.985	1957.35
753.17	1957.35
753.354	1914.34
753.538	2053.6
753.722	1949.15
753.907	1885.67
754.091	1836.52
754.275	1775.08
754.459	1875.43
754.643	1857
754.828	1893.86
755.012	1871.33
755.196	1732.07
755.38	1867.24
755.564	1674.73
755.748	1777.12
755.932	1744.36
756.116	1795.56
756.3	1703.4
756.484	1603.05
756.668	1707.49
756.852	1668.58
757.036	1666.53
757.22	1584.62
757.404	1582.57
757.588	1721.83
757.772	1668.58
757.956	1689.06
758.14	1545.7
758.323	1453.55
758.507	1619.43
758.691	1551.85
758.875	1605.1
759.059	1523.18
759.242	1555.94
759.426	1531.37
759.61	1537.51
759.794	1474.03
759.977	1510.89
760.161	1615.34
760.345	1498.6
760.528	1467.88
760.712	1519.08
760.895	1431.02
761.079	1461.74
761.263	1418.73
761.446	1449.45
761.63	1467.88
761.813	1474.03
761.997	1461.74
762.18	1390.06
762.364	1437.16
762.547	1324.52
762.731	1334.76
762.914	1392.11
763.098	1379.82
763.281	1410.54
763.464	1367.53
763.648	1359.34
763.831	1459.69
764.015	1306.09
764.198	1342.96
764.381	1365.48
764.564	1299.95
764.748	1392.11
764.931	1242.61
765.114	1334.76
765.297	1308.14
765.481	1394.15
765.664	1236.46
765.847	1267.18
766.03	1289.71
766.213	1269.23
766.397	1277.42
766.58	1308.14
766.763	1277.42
766.946	1215.98
767.129	1363.44
767.312	1191.41
767.495	1328.62
767.678	1183.21
767.861	1271.28
768.044	1240.56
768.227	1220.08
768.41	1226.22
768.593	1228.27
768.776	1252.84
768.959	1099.25
769.142	1244.65
769.324	1191.41
769.507	1195.5
769.69	1103.34
769.873	1187.31
770.056	1207.79
770.239	1154.54
770.421	1183.21
770.604	1060.34
770.787	1121.77
770.97	1113.58
771.152	1140.21
771.335	1183.21
771.518	1084.91
771.7	1082.86
771.883	1150.45
772.066	1160.69
772.248	1060.34
772.431	1125.87
772.613	1076.72
772.796	1027.57
772.978	1099.25
773.161	1039.86
773.343	1054.19
773.526	994.8
773.708	962.03
773.891	945.65
774.073	955.89
774.256	1023.47
774.438	1095.15
774.621	974.32
774.803	1007.09
774.985	935.41
775.168	1005.04
775.35	992.75
775.532	990.7
775.715	976.37
775.897	1013.23
776.079	910.83
776.261	964.08
776.444	927.22
776.626	871.92
776.808	935.41
776.99	822.77
777.173	1005.04
777.355	853.49
777.537	861.68
777.719	843.25
777.901	886.26
778.083	779.76
778.265	814.58
778.447	871.92
778.629	919.03
778.811	792.05
778.993	818.68
779.175	945.65
779.357	779.76
779.539	736.76
779.721	734.71
779.903	771.57
780.085	757.24
780.267	796.15
780.449	841.2
780.631	798.2
780.812	818.68
780.994	740.85
781.176	779.76
781.358	759.28
781.54	675.32
781.721	759.28
781.903	769.52
782.085	771.57
782.267	835.06
782.448	642.55
782.63	640.5
782.812	708.09
782.993	753.14
783.175	720.37
783.357	673.27
783.538	753.14
783.72	671.22
783.901	663.03
784.083	634.36
784.264	667.13
784.446	622.07
784.627	591.35
784.809	630.26
784.99	591.35
785.172	624.12
785.353	712.18
785.535	611.83
785.716	591.35
785.897	585.21
786.079	617.97
786.26	587.26
786.441	589.3
786.623	554.49
786.804	603.64
786.985	540.15
787.167	579.06
787.348	605.69
787.529	525.82
787.71	701.94
787.891	505.34
788.073	536.06
788.254	472.57
788.435	689.65
788.616	542.2
788.797	462.33
788.978	515.58
789.159	472.57
789.34	546.3
789.522	554.49
789.703	527.86
789.884	445.95
790.065	478.71
790.246	536.06
790.427	488.95
790.607	495.1
790.788	499.19
790.969	421.37
791.15	439.8
791.331	497.14
791.512	478.71
791.693	419.32
791.874	464.38
792.054	507.38
792.235	552.44
792.416	407.03
792.597	388.6
792.778	445.95
792.958	392.7
793.139	431.61
793.32	357.88
793.5	331.26
793.681	458.23
793.862	417.27
794.042	372.22
794.223	407.03
794.404	396.79
794.584	441.85
794.765	413.18
794.945	501.24
795.126	388.6
795.306	351.74
795.487	359.93
795.667	456.19
795.848	419.32
796.028	382.46
796.209	411.13
796.389	392.7
796.57	292.35
796.75	335.35
796.93	411.13
797.111	325.12
797.291	439.8
797.471	351.74
797.652	425.47
797.832	378.36
798.012	419.32
798.192	364.03
798.373	359.93
798.553	314.88
798.733	347.64
798.913	312.83
799.093	308.73
799.274	417.27
799.454	378.36
799.634	343.55
799.814	364.03
799.994	431.61
800.174	331.26
800.354	323.07
800.534	321.02
800.714	355.83
800.894	343.55
801.074	294.4
801.254	294.4
801.434	392.7
801.614	290.3
801.794	265.72
801.974	824.82
802.154	312.83
802.334	339.45
802.514	290.3
802.693	271.87
802.873	300.54
803.053	300.54
803.233	298.49
803.413	251.39
803.592	347.64
803.772	323.07
803.952	294.4
804.131	310.78
804.311	347.64
804.491	302.59
804.67	300.54
804.85	300.54
805.03	335.35
805.209	366.07
805.389	273.92
805.568	304.64
805.748	339.45
805.928	323.07
806.107	253.44
806.287	331.26
806.466	220.67
806.646	198.14
806.825	306.68
807.004	300.54
807.184	286.2
807.363	290.3
807.543	249.34
807.722	177.66
807.901	300.54
808.081	302.59
808.26	253.44
808.439	189.95
808.619	243.2
808.798	216.57
808.977	216.57
809.156	230.91
809.336	257.53
809.515	239.1
809.694	265.72
809.873	220.67
810.052	271.87
810.231	269.82
810.411	239.1
810.59	179.71
810.769	249.34
810.948	300.54
811.127	185.85
811.306	247.29
811.485	194.05
811.664	232.96
811.843	235
812.022	171.52
812.201	249.34
812.38	220.67
812.559	194.05
812.737	226.81
812.916	189.95
813.095	181.76
813.274	239.1
813.453	210.43
813.632	159.23
813.811	275.96
813.989	235
814.168	261.63
814.347	224.76
814.526	261.63
814.704	292.35
814.883	163.33
815.062	302.59
815.24	255.48
815.419	112.13
815.598	200.19
815.776	173.57
815.955	212.48
816.133	185.85
816.312	220.67
816.49	130.56
816.669	214.52
816.847	294.4
817.026	136.7
817.204	148.99
817.383	239.1
817.561	235
817.74	187.9
817.918	142.85
818.097	179.71
818.275	110.08
818.453	148.99
818.632	153.09
818.81	200.19
818.988	126.46
819.167	210.43
819.345	253.44
819.523	208.38
819.701	75.26
819.879	144.89
820.058	200.19
820.236	165.37
820.414	226.81
820.592	192
820.77	196.09
820.948	163.33
821.127	153.09
821.305	165.37
821.483	134.65
821.661	210.43
821.839	171.52
822.017	142.85
822.195	179.71
822.373	220.67
822.551	253.44
822.729	134.65
822.907	185.85
823.085	200.19
823.262	138.75
823.44	173.57
823.618	198.14
823.796	159.23
823.974	159.23
824.152	83.45
824.329	108.03
824.507	134.65
824.685	212.48
824.863	214.52
825.04	183.81
825.218	202.24
825.396	142.85
825.574	105.98
825.751	163.33
825.929	157.18
826.107	163.33
826.284	181.76
826.462	85.5
826.639	130.56
826.817	142.85
826.994	142.85
827.172	151.04
827.349	196.09
827.527	151.04
827.704	148.99
827.882	153.09
828.059	161.28
828.237	146.94
828.414	132.61
828.591	38.4
828.769	196.09
828.946	85.5
829.124	210.43
829.301	105.98
829.478	75.26
829.655	167.42
829.833	81.41
830.01	101.89
830.187	87.55
830.364	101.89
830.542	204.28
830.719	159.23
830.896	171.52
831.073	136.7
831.25	159.23
831.427	112.13
831.604	179.71
831.782	148.99
831.959	99.84
832.136	62.98
832.313	134.65
832.49	91.65
832.667	97.79
832.844	187.9
833.021	85.5
833.198	103.93
833.374	108.03
833.551	97.79
833.728	126.46
833.905	148.99
834.082	161.28
834.259	101.89
834.436	71.17
834.612	81.41
834.789	200.19
834.966	114.17
835.143	122.37
835.319	73.21
835.496	171.52
835.673	116.22
835.85	120.32
836.026	91.65
836.203	196.09
836.38	97.79
836.556	130.56
836.733	79.36
836.909	99.84
837.086	130.56
837.262	73.21
837.439	99.84
837.616	91.65
837.792	85.5
837.968	194.05
838.145	138.75
838.321	105.98
838.498	71.17
838.674	157.18
838.851	171.52
839.027	93.69
839.203	91.65
839.38	138.75
839.556	65.02
839.732	108.03
839.909	130.56
840.085	62.98
840.261	101.89
840.437	112.13
840.614	85.5
840.79	132.61
840.966	124.41
841.142	48.64
841.318	146.94
841.494	138.75
841.671	99.84
841.847	38.4
842.023	120.32
842.199	60.93
842.375	120.32
842.551	79.36
842.727	22.02
842.903	81.41
843.079	89.6
843.255	126.46
843.431	196.09
843.607	114.17
843.783	30.21
843.959	93.69
844.134	48.64
844.31	120.32
844.486	151.04
844.662	34.3
844.838	11.78
845.013	44.54
845.189	153.09
845.365	89.6
845.541	40.45
845.716	77.31
845.892	71.17
846.068	89.6
846.244	81.41
846.419	69.12
846.595	17.92
846.77	112.13
846.946	126.46
847.122	69.12
847.297	105.98
847.473	122.37
847.648	52.74
847.824	73.21
847.999	-8.7
848.175	67.07
848.35	142.85
848.526	69.12
848.701	50.69
848.876	52.74
849.052	19.97
849.227	32.26
849.403	73.21
849.578	54.78
849.753	65.02
849.929	32.26
850.104	75.26
850.279	93.69
850.454	-18.94
850.63	11.78
850.805	56.83
850.98	79.36
851.155	30.21
851.33	19.97
851.505	19.97
851.681	187.9
851.856	11.78
852.031	62.98
852.206	54.78
852.381	1.54
852.556	5.63
852.731	56.83
852.906	62.98
853.081	30.21
853.256	77.31
853.431	93.69
853.606	32.26
853.781	60.93
853.956	48.64
854.131	71.17
854.305	9.73
854.48	-33.28
854.655	87.55
854.83	40.45
855.005	36.35
855.18	124.41
855.354	36.35
855.529	60.93
855.704	17.92
855.879	46.59
856.053	71.17
856.228	28.16
856.403	-18.94
856.577	24.06
856.752	13.82
856.926	44.54
857.101	83.45
857.276	65.02
857.45	122.37
857.625	134.65
857.799	-2.56
857.974	65.02
858.148	22.02
858.323	110.08
858.497	5.63
858.672	17.92
858.846	22.02
859.02	157.18
859.195	3.58
859.369	75.26
859.543	7.68
859.718	81.41
859.892	38.4
860.066	19.97
860.241	34.3
860.415	7.68
860.589	42.5
860.763	62.98
860.938	56.83
861.112	24.06
861.286	-61.95
861.46	36.35
861.634	79.36
861.808	60.93
861.982	1.54
862.157	17.92
862.331	-33.28
862.505	-0.51
862.679	24.06
862.853	32.26
863.027	-0.51
863.201	142.85
863.375	-25.09
863.549	-0.51
863.722	75.26
863.896	65.02
864.07	62.98
864.244	24.06
864.418	42.5
864.592	11.78
864.766	93.69
864.939	110.08
865.113	19.97
865.287	101.89
865.461	73.21
865.634	93.69
865.808	3.58
865.982	22.02
866.156	30.21
866.329	73.21
866.503	40.45
866.676	62.98
866.85	56.83
867.024	5.63
867.197	89.6
867.371	40.45
867.544	46.59
867.718	22.02
867.891	52.74
868.065	30.21
868.238	62.98
868.412	34.3
868.585	56.83
868.759	118.27
868.932	32.26
869.105	81.41
869.279	42.5
869.452	42.5
869.625	65.02
869.799	-0.51
869.972	38.4
870.145	30.21
870.319	24.06
870.492	24.06
870.665	3.58
870.838	-2.56
871.011	-68.09
871.185	44.54
871.358	44.54
871.531	71.17
871.704	83.45
871.877	69.12
872.05	62.98
872.223	81.41
872.396	60.93
872.569	71.17
872.742	3.58
872.915	15.87
873.088	15.87
873.261	-16.9
873.434	36.35
873.607	52.74
873.78	36.35
873.953	46.59
874.126	-2.56
874.299	44.54
874.471	13.82
874.644	26.11
874.817	44.54
874.99	56.83
875.163	11.78
875.335	13.82
875.508	30.21
875.681	54.78
875.853	-14.85
876.026	56.83
876.199	48.64
876.371	11.78
876.544	11.78
876.717	3.58
876.889	-0.51
877.062	17.92
877.234	-51.71
877.407	30.21
877.579	3.58
877.752	-25.09
877.924	65.02
878.097	71.17
878.269	52.74
878.442	48.64
878.614	-6.66
878.786	28.16
878.959	-10.75
879.131	15.87
879.303	1.54
879.476	-2.56
879.648	15.87
879.82	5.63
879.993	22.02
880.165	-31.23
880.337	60.93
880.509	42.5
880.681	-33.28
880.854	17.92
881.026	83.45
881.198	11.78
881.37	60.93
881.542	30.21
881.714	1.54
881.886	19.97
882.058	54.78
882.23	-10.75
882.402	-16.9
882.574	28.16
882.746	30.21
882.918	103.93
883.09	19.97
883.262	36.35
883.434	60.93
883.606	-4.61
883.778	-27.14
883.95	22.02
884.122	65.02
884.293	30.21
884.465	-31.23
884.637	50.69
884.809	32.26
884.98	9.73
885.152	-39.42
885.324	42.5
885.496	30.21
885.667	-23.04
885.839	-4.61
886.011	36.35
886.182	65.02
886.354	50.69
886.525	13.82
886.697	-0.51
886.869	3.58
887.04	15.87
887.212	97.79
887.383	40.45
887.555	19.97
887.726	13.82
887.897	38.4
888.069	11.78
888.24	46.59
888.412	46.59
888.583	19.97
888.754	65.02
888.926	-57.86
889.097	62.98
889.268	19.97
889.44	62.98
889.611	42.5
889.782	13.82
889.953	3.58
890.125	52.74
890.296	-2.56
890.467	-10.75
890.638	-76.29
890.809	15.87
890.98	-74.24
891.151	-29.18
891.323	93.69
891.494	-33.28
891.665	5.63
891.836	-0.51
892.007	-0.51
892.178	15.87
892.349	28.16
892.52	56.83
892.691	-18.94
892.862	34.3
893.032	-20.99
893.203	-35.33
893.374	30.21
893.545	54.78
893.716	28.16
893.887	48.64
894.057	-47.62
894.228	65.02
894.399	-41.47
894.57	-18.94
894.74	9.73
894.911	48.64
895.082	-10.75
895.253	-29.18
895.423	28.16
895.594	93.69
895.764	60.93
895.935	28.16
896.106	73.21
896.276	19.97
896.447	28.16
896.617	-14.85
896.788	54.78
896.958	3.58
897.129	22.02
897.299	26.11
897.47	24.06
897.64	114.17
897.81	-4.61
897.981	101.89
898.151	9.73
898.322	-18.94
898.492	-37.38
898.662	48.64
898.832	54.78
899.003	-10.75
899.173	75.26
899.343	11.78
899.513	142.85
