Data from USB4F104151__90__10-24-24-249.txt Node

Date: Wed Mar 12 10:24:24 EDT 2025
User: louis
Spectrometer: USB4F10415
Trigger mode: 4
Integration Time (sec): 3.000000E-2
Scans to average: 1
Electric dark correction enabled: true
Nonlinearity correction enabled: false
Boxcar width: 0
XAxis mode: Wavelengths
Number of Pixels in Spectrum: 3648
>>>>>Begin Spectral Data<<<<<
178.204	-107.86
178.424	-107.86
178.644	-107.86
178.864	-83.28
179.084	-187.73
179.304	45.74
179.524	-25.94
179.744	-42.32
179.964	19.11
180.184	37.55
180.404	-21.85
180.624	4.78
180.844	12.97
181.064	-38.23
181.283	-40.28
181.503	27.31
181.723	21.16
181.943	-95.57
182.163	58.03
182.383	53.93
182.602	47.79
182.822	35.5
183.042	25.26
183.262	2.73
183.482	37.55
183.701	-15.7
183.921	88.75
184.141	-48.47
184.361	15.02
184.58	-21.85
184.8	68.27
185.02	-21.85
185.239	29.35
185.459	49.83
185.679	53.93
185.898	70.31
186.118	76.46
186.338	17.07
186.557	58.03
186.777	6.83
186.997	45.74
187.216	72.36
187.436	-7.51
187.655	66.22
187.875	62.12
188.095	-44.37
188.314	37.55
188.534	17.07
188.753	10.92
188.973	27.31
189.192	-13.65
189.412	4.78
189.631	43.69
189.851	-5.46
190.07	29.35
190.29	-15.7
190.509	60.07
190.729	-7.51
190.948	-48.47
191.168	117.42
191.387	68.27
191.607	12.97
191.826	51.88
192.045	-13.65
192.265	-9.56
192.484	35.5
192.704	29.35
192.923	-60.76
193.142	66.22
193.362	2.73
193.581	60.07
193.8	86.7
194.02	37.55
194.239	17.07
194.458	-44.37
194.678	29.35
194.897	37.55
195.116	33.45
195.335	33.45
195.555	-13.65
195.774	-13.65
195.993	64.17
196.212	-11.61
196.432	49.83
196.651	49.83
196.87	19.11
197.089	15.02
197.308	60.07
197.528	27.31
197.747	-44.37
197.966	8.87
198.185	111.27
198.404	-21.85
198.623	-5.46
198.842	0.68
199.062	49.83
199.281	88.75
199.5	39.59
199.719	0.68
199.938	-21.85
200.157	55.98
200.376	-13.65
200.595	25.26
200.814	31.4
201.033	17.07
201.252	31.4
201.471	31.4
201.69	78.51
201.909	25.26
202.128	8.87
202.347	55.98
202.566	29.35
202.785	66.22
203.004	-21.85
203.223	123.56
203.442	49.83
203.661	-25.94
203.879	0.68
204.098	72.36
204.317	-21.85
204.536	10.92
204.755	0.68
204.974	-21.85
205.193	-32.08
205.411	98.99
205.63	17.07
205.849	-15.7
206.068	31.4
206.287	0.68
206.505	29.35
206.724	23.21
206.943	-52.56
207.162	55.98
207.381	74.41
207.599	23.21
207.818	-36.18
208.037	-3.41
208.255	4.78
208.474	82.6
208.693	23.21
208.911	0.68
209.13	-52.56
209.349	-13.65
209.567	15.02
209.786	53.93
210.005	0.68
210.223	43.69
210.442	53.93
210.661	-7.51
210.879	76.46
211.098	0.68
211.316	-34.13
211.535	45.74
211.753	-15.7
211.972	29.35
212.191	6.83
212.409	27.31
212.628	17.07
212.846	8.87
213.065	92.84
213.283	76.46
213.502	35.5
213.72	49.83
213.938	47.79
214.157	-36.18
214.375	62.12
214.594	-40.28
214.812	98.99
215.031	4.78
215.249	-25.94
215.467	60.07
215.686	64.17
215.904	53.93
216.122	-3.41
216.341	74.41
216.559	60.07
216.778	98.99
216.996	115.37
217.214	4.78
217.432	-21.85
217.651	-13.65
217.869	82.6
218.087	29.35
218.306	-34.13
218.524	19.11
218.742	74.41
218.96	103.08
219.179	21.16
219.397	-3.41
219.615	51.88
219.833	53.93
220.051	-3.41
220.27	53.93
220.488	10.92
220.706	39.59
220.924	-3.41
221.142	-21.85
221.36	37.55
221.578	-68.95
221.796	-9.56
222.015	-32.08
222.233	8.87
222.451	37.55
222.669	-23.89
222.887	-15.7
223.105	29.35
223.323	-48.47
223.541	-7.51
223.759	49.83
223.977	-81.24
224.195	78.51
224.413	10.92
224.631	68.27
224.849	101.03
225.067	58.03
225.285	-1.37
225.503	-13.65
225.721	4.78
225.939	31.4
226.157	29.35
226.375	68.27
226.592	-11.61
226.81	-52.56
227.028	33.45
227.246	72.36
227.464	53.93
227.682	35.5
227.9	39.59
228.117	29.35
228.335	33.45
228.553	-25.94
228.771	43.69
228.989	0.68
229.206	-38.23
229.424	-25.94
229.642	23.21
229.86	-15.7
230.077	45.74
230.295	33.45
230.513	78.51
230.731	-23.89
230.948	39.59
231.166	39.59
231.384	-44.37
231.601	-9.56
231.819	41.64
232.037	45.74
232.254	-19.8
232.472	4.78
232.689	-17.75
232.907	139.94
233.125	17.07
233.342	43.69
233.56	-42.32
233.777	49.83
233.995	21.16
234.213	12.97
234.43	-3.41
234.648	-3.41
234.865	21.16
235.083	70.31
235.3	53.93
235.518	19.11
235.735	78.51
235.953	58.03
236.17	27.31
236.388	-19.8
236.605	41.64
236.822	8.87
237.04	60.07
237.257	68.27
237.475	-30.04
237.692	-1.37
237.909	-93.52
238.127	31.4
238.344	23.21
238.562	-21.85
238.779	-66.9
238.996	-11.61
239.214	4.78
239.431	55.98
239.648	-42.32
239.865	96.94
240.083	17.07
240.3	10.92
240.517	-15.7
240.735	-15.7
240.952	92.84
241.169	33.45
241.386	-36.18
241.603	12.97
241.821	33.45
242.038	-11.61
242.255	53.93
242.472	6.83
242.689	70.31
242.907	66.22
243.124	-116.05
243.341	84.65
243.558	39.59
243.775	19.11
243.992	-19.8
244.209	37.55
244.426	94.89
244.643	78.51
244.86	-1.37
245.078	101.03
245.295	-62.8
245.512	-21.85
245.729	-46.42
245.946	17.07
246.163	29.35
246.38	53.93
246.597	19.11
246.814	64.17
247.031	55.98
247.248	49.83
247.464	58.03
247.681	-42.32
247.898	0.68
248.115	43.69
248.332	-17.75
248.549	37.55
248.766	4.78
248.983	29.35
249.2	-19.8
249.417	96.94
249.633	-7.51
249.85	12.97
250.067	45.74
250.284	-1.37
250.501	-7.51
250.717	37.55
250.934	55.98
251.151	17.07
251.368	12.97
251.585	35.5
251.801	-19.8
252.018	-68.95
252.235	90.79
252.451	27.31
252.668	-17.75
252.885	51.88
253.102	-15.7
253.318	2.73
253.535	55.98
253.752	19.11
253.968	-13.65
254.185	47.79
254.401	8.87
254.618	37.55
254.835	33.45
255.051	43.69
255.268	21.16
255.484	78.51
255.701	10.92
255.917	17.07
256.134	76.46
256.351	-9.56
256.567	-44.37
256.784	23.21
257	-27.99
257.217	66.22
257.433	45.74
257.65	-23.89
257.866	25.26
258.082	-23.89
258.299	19.11
258.515	15.02
258.732	-13.65
258.948	8.87
259.165	78.51
259.381	4.78
259.597	-52.56
259.814	29.35
260.03	21.16
260.246	35.5
260.463	-9.56
260.679	21.16
260.895	70.31
261.112	-5.46
261.328	51.88
261.544	4.78
261.761	76.46
261.977	49.83
262.193	23.21
262.409	25.26
262.626	39.59
262.842	-7.51
263.058	2.73
263.274	-30.04
263.49	62.12
263.707	66.22
263.923	6.83
264.139	-15.7
264.355	53.93
264.571	78.51
264.787	-25.94
265.004	45.74
265.22	29.35
265.436	-15.7
265.652	-23.89
265.868	21.16
266.084	-7.51
266.3	29.35
266.516	-60.76
266.732	10.92
266.948	2.73
267.164	43.69
267.38	98.99
267.596	78.51
267.812	51.88
268.028	-13.65
268.244	0.68
268.46	41.64
268.676	70.31
268.892	70.31
269.108	0.68
269.324	23.21
269.54	33.45
269.756	78.51
269.972	21.16
270.188	-3.41
270.403	-32.08
270.619	2.73
270.835	49.83
271.051	-3.41
271.267	31.4
271.483	23.21
271.698	10.92
271.914	-7.51
272.13	-11.61
272.346	53.93
272.562	-19.8
272.777	60.07
272.993	41.64
273.209	-15.7
273.425	68.27
273.64	31.4
273.856	86.7
274.072	17.07
274.287	25.26
274.503	39.59
274.719	31.4
274.934	6.83
275.15	21.16
275.366	0.68
275.581	2.73
275.797	62.12
276.012	19.11
276.228	-30.04
276.444	90.79
276.659	49.83
276.875	-40.28
277.09	58.03
277.306	58.03
277.521	21.16
277.737	23.21
277.952	98.99
278.168	31.4
278.383	-40.28
278.599	29.35
278.814	58.03
279.03	90.79
279.245	27.31
279.461	-11.61
279.676	19.11
279.892	-11.61
280.107	-46.42
280.322	2.73
280.538	25.26
280.753	27.31
280.969	4.78
281.184	78.51
281.399	72.36
281.615	62.12
281.83	49.83
282.045	-11.61
282.26	0.68
282.476	6.83
282.691	35.5
282.906	-25.94
283.122	2.73
283.337	35.5
283.552	21.16
283.767	94.89
283.983	53.93
284.198	4.78
284.413	-3.41
284.628	17.07
284.843	55.98
285.058	19.11
285.274	-11.61
285.489	10.92
285.704	-5.46
285.919	23.21
286.134	-1.37
286.349	-44.37
286.564	-19.8
286.779	4.78
286.995	27.31
287.21	86.7
287.425	70.31
287.64	8.87
287.855	-1.37
288.07	8.87
288.285	76.46
288.5	111.27
288.715	51.88
288.93	-5.46
289.145	-19.8
289.36	82.6
289.575	-5.46
289.79	19.11
290.004	0.68
290.219	86.7
290.434	53.93
290.649	49.83
290.864	-13.65
291.079	23.21
291.294	58.03
291.509	-58.71
291.724	39.59
291.938	-48.47
292.153	94.89
292.368	35.5
292.583	-27.99
292.798	41.64
293.012	62.12
293.227	-23.89
293.442	58.03
293.657	-1.37
293.871	119.46
294.086	45.74
294.301	62.12
294.516	94.89
294.73	49.83
294.945	25.26
295.16	58.03
295.374	-11.61
295.589	31.4
295.804	-27.99
296.018	-3.41
296.233	60.07
296.447	-1.37
296.662	47.79
296.877	41.64
297.091	119.46
297.306	31.4
297.52	49.83
297.735	2.73
297.949	-11.61
298.164	-5.46
298.378	-11.61
298.593	-11.61
298.807	25.26
299.022	15.02
299.236	117.42
299.451	68.27
299.665	21.16
299.88	15.02
300.094	-19.8
300.309	-19.8
300.523	35.5
300.737	21.16
300.952	33.45
301.166	86.7
301.381	-25.94
301.595	-42.32
301.809	17.07
302.024	-48.47
302.238	-44.37
302.452	-11.61
302.667	21.16
302.881	27.31
303.095	8.87
303.309	113.32
303.524	45.74
303.738	33.45
303.952	27.31
304.166	90.79
304.381	-7.51
304.595	78.51
304.809	84.65
305.023	29.35
305.237	-52.56
305.452	-19.8
305.666	17.07
305.88	41.64
306.094	-7.51
306.308	33.45
306.522	60.07
306.736	78.51
306.95	84.65
307.164	10.92
307.379	33.45
307.593	74.41
307.807	78.51
308.021	2.73
308.235	62.12
308.449	-54.61
308.663	70.31
308.877	152.23
309.091	70.31
309.305	115.37
309.519	-23.89
309.733	19.11
309.947	-91.48
310.161	72.36
310.374	144.04
310.588	96.94
310.802	-25.94
311.016	84.65
311.23	37.55
311.444	70.31
311.658	53.93
311.872	51.88
312.085	66.22
312.299	86.7
312.513	60.07
312.727	80.55
312.941	-5.46
313.154	78.51
313.368	53.93
313.582	31.4
313.796	19.11
314.009	49.83
314.223	109.22
314.437	72.36
314.651	74.41
314.864	45.74
315.078	17.07
315.292	-27.99
315.505	-3.41
315.719	53.93
315.933	37.55
316.146	29.35
316.36	41.64
316.573	29.35
316.787	0.68
317.001	43.69
317.214	53.93
317.428	53.93
317.641	-50.52
317.855	-19.8
318.068	-36.18
318.282	21.16
318.495	125.61
318.709	27.31
318.922	21.16
319.136	101.03
319.349	62.12
319.563	33.45
319.776	103.08
319.99	-36.18
320.203	43.69
320.417	96.94
320.63	49.83
320.843	74.41
321.057	-19.8
321.27	29.35
321.483	35.5
321.697	8.87
321.91	31.4
322.124	82.6
322.337	29.35
322.55	-17.75
322.763	39.59
322.977	6.83
323.19	8.87
323.403	25.26
323.617	31.4
323.83	58.03
324.043	-64.85
324.256	37.55
324.469	17.07
324.683	35.5
324.896	25.26
325.109	47.79
325.322	-34.13
325.535	101.03
325.748	72.36
325.962	90.79
326.175	25.26
326.388	-11.61
326.601	70.31
326.814	6.83
327.027	6.83
327.24	133.8
327.453	-52.56
327.666	70.31
327.879	49.83
328.092	66.22
328.305	43.69
328.518	27.31
328.731	-36.18
328.944	0.68
329.157	6.83
329.37	2.73
329.583	70.31
329.796	68.27
330.009	62.12
330.222	123.56
330.435	-11.61
330.648	53.93
330.861	33.45
331.073	6.83
331.286	29.35
331.499	90.79
331.712	17.07
331.925	58.03
332.138	43.69
332.35	19.11
332.563	-19.8
332.776	78.51
332.989	21.16
333.202	33.45
333.414	41.64
333.627	6.83
333.84	37.55
334.053	101.03
334.265	45.74
334.478	27.31
334.691	68.27
334.903	29.35
335.116	-3.41
335.329	55.98
335.541	45.74
335.754	94.89
335.966	4.78
336.179	-25.94
336.392	45.74
336.604	31.4
336.817	-7.51
337.029	17.07
337.242	29.35
337.454	29.35
337.667	60.07
337.88	-19.8
338.092	39.59
338.305	-9.56
338.517	-25.94
338.729	51.88
338.942	-23.89
339.154	21.16
339.367	-9.56
339.579	84.65
339.792	33.45
340.004	15.02
340.217	10.92
340.429	33.45
340.641	-11.61
340.854	78.51
341.066	60.07
341.278	37.55
341.491	103.08
341.703	127.66
341.915	68.27
342.128	96.94
342.34	29.35
342.552	-3.41
342.764	107.18
342.977	-5.46
343.189	-77.14
343.401	115.37
343.613	21.16
343.826	78.51
344.038	45.74
344.25	4.78
344.462	27.31
344.674	60.07
344.886	47.79
345.099	-38.23
345.311	58.03
345.523	60.07
345.735	27.31
345.947	29.35
346.159	-3.41
346.371	33.45
346.583	12.97
346.795	109.22
347.007	-11.61
347.219	62.12
347.431	80.55
347.643	70.31
347.855	-36.18
348.067	80.55
348.279	-32.08
348.491	111.27
348.703	84.65
348.915	123.56
349.127	-27.99
349.339	-3.41
349.551	37.55
349.763	58.03
349.975	51.88
350.187	125.61
350.399	101.03
350.61	21.16
350.822	6.83
351.034	0.68
351.246	-27.99
351.458	78.51
351.669	33.45
351.881	8.87
352.093	125.61
352.305	31.4
352.517	29.35
352.728	51.88
352.94	33.45
353.152	8.87
353.363	35.5
353.575	27.31
353.787	-3.41
353.999	25.26
354.21	80.55
354.422	47.79
354.633	-19.8
354.845	72.36
355.057	80.55
355.268	29.35
355.48	29.35
355.692	-5.46
355.903	35.5
356.115	10.92
356.326	8.87
356.538	74.41
356.749	19.11
356.961	66.22
357.172	17.07
357.384	60.07
357.595	64.17
357.807	25.26
358.018	49.83
358.23	-60.76
358.441	35.5
358.653	53.93
358.864	-34.13
359.075	37.55
359.287	70.31
359.498	15.02
359.709	43.69
359.921	78.51
360.132	68.27
360.344	129.7
360.555	53.93
360.766	-40.28
360.977	33.45
361.189	53.93
361.4	60.07
361.611	47.79
361.823	45.74
362.034	39.59
362.245	-19.8
362.456	43.69
362.667	80.55
362.879	-9.56
363.09	47.79
363.301	74.41
363.512	82.6
363.723	45.74
363.935	-56.66
364.146	43.69
364.357	25.26
364.568	51.88
364.779	53.93
364.99	68.27
365.201	35.5
365.412	33.45
365.623	-7.51
365.834	12.97
366.045	33.45
366.256	27.31
366.467	94.89
366.678	29.35
366.889	21.16
367.1	78.51
367.311	78.51
367.522	82.6
367.733	29.35
367.944	4.78
368.155	70.31
368.366	96.94
368.577	-15.7
368.788	109.22
368.999	10.92
369.209	49.83
369.42	135.85
369.631	117.42
369.842	19.11
370.053	37.55
370.264	131.75
370.474	25.26
370.685	74.41
370.896	-34.13
371.107	64.17
371.317	62.12
371.528	43.69
371.739	117.42
371.95	6.83
372.16	74.41
372.371	-17.75
372.582	51.88
372.792	29.35
373.003	68.27
373.214	55.98
373.424	139.94
373.635	-7.51
373.846	94.89
374.056	0.68
374.267	60.07
374.477	55.98
374.688	82.6
374.898	76.46
375.109	12.97
375.319	80.55
375.53	78.51
375.74	135.85
375.951	33.45
376.161	33.45
376.372	58.03
376.582	12.97
376.793	111.27
377.003	86.7
377.214	94.89
377.424	70.31
377.635	121.51
377.845	111.27
378.055	125.61
378.266	10.92
378.476	70.31
378.686	64.17
378.897	80.55
379.107	109.22
379.317	-9.56
379.528	47.79
379.738	111.27
379.948	15.02
380.158	45.74
380.369	111.27
380.579	115.37
380.789	37.55
380.999	62.12
381.21	164.52
381.42	86.7
381.63	-11.61
381.84	58.03
382.05	70.31
382.261	115.37
382.471	84.65
382.681	-19.8
382.891	-21.85
383.101	58.03
383.311	84.65
383.521	12.97
383.731	53.93
383.941	119.46
384.151	43.69
384.361	35.5
384.571	58.03
384.781	98.99
384.991	76.46
385.201	37.55
385.411	-5.46
385.621	119.46
385.831	82.6
386.041	78.51
386.251	23.21
386.461	68.27
386.671	68.27
386.881	62.12
387.091	86.7
387.301	27.31
387.511	80.55
387.72	29.35
387.93	94.89
388.14	82.6
388.35	115.37
388.56	109.22
388.769	41.64
388.979	53.93
389.189	23.21
389.399	45.74
389.609	41.64
389.818	41.64
390.028	53.93
390.238	82.6
390.447	45.74
390.657	129.7
390.867	82.6
391.076	105.13
391.286	70.31
391.496	53.93
391.705	119.46
391.915	82.6
392.125	21.16
392.334	141.99
392.544	127.66
392.753	88.75
392.963	45.74
393.172	27.31
393.382	86.7
393.591	103.08
393.801	66.22
394.01	125.61
394.22	47.79
394.429	70.31
394.639	148.14
394.848	82.6
395.058	133.8
395.267	21.16
395.477	150.18
395.686	58.03
395.895	111.27
396.105	135.85
396.314	101.03
396.524	47.79
396.733	58.03
396.942	111.27
397.152	68.27
397.361	139.94
397.57	78.51
397.78	39.59
397.989	115.37
398.198	78.51
398.407	68.27
398.617	78.51
398.826	86.7
399.035	96.94
399.244	144.04
399.453	74.41
399.663	166.57
399.872	121.51
400.081	76.46
400.29	182.95
400.499	62.12
400.708	148.14
400.917	178.86
401.127	131.75
401.336	215.72
401.545	189.1
401.754	191.14
401.963	244.39
402.172	35.5
402.381	49.83
402.59	133.8
402.799	178.86
403.008	225.96
403.217	150.18
403.426	148.14
403.635	121.51
403.844	158.38
404.053	162.47
404.262	139.94
404.471	182.95
404.68	80.55
404.888	127.66
405.097	168.62
405.306	156.33
405.515	193.19
405.724	187.05
405.933	176.81
406.142	201.38
406.35	221.86
406.559	225.96
406.768	205.48
406.977	305.83
407.185	185
407.394	266.92
407.603	150.18
407.812	158.38
408.02	289.45
408.229	256.68
408.438	332.45
408.646	236.2
408.855	289.45
409.064	271.01
409.272	283.3
409.481	357.03
409.69	297.64
409.898	318.12
410.107	418.47
410.315	387.75
410.524	354.98
410.733	391.84
410.941	430.76
411.15	447.14
411.358	496.29
411.567	535.2
411.775	545.44
411.984	559.78
412.192	459.43
412.401	527.01
412.609	541.35
412.818	572.07
413.026	610.98
413.234	551.59
413.443	627.36
413.651	658.08
413.86	604.83
414.068	737.95
414.276	688.8
414.485	803.49
414.693	885.41
414.901	828.06
415.11	787.1
415.318	895.64
415.526	950.94
415.734	813.73
415.943	965.28
416.151	1057.43
416.359	1012.38
416.567	1030.81
416.776	1104.54
416.984	1100.44
417.192	1135.26
417.4	1129.11
417.608	1176.22
417.817	1245.85
418.025	1272.47
418.233	1512.08
418.441	1393.3
418.649	1454.74
418.857	1583.76
419.065	1477.27
419.273	1546.9
419.481	1714.83
419.689	1675.92
419.897	1737.36
420.105	1790.61
420.313	1862.29
420.521	1921.68
420.729	2042.51
420.937	2019.98
421.145	2128.52
421.353	2253.45
421.561	2361.99
421.769	2386.57
421.977	2425.48
422.185	2439.81
422.393	2660.99
422.601	2714.24
422.809	2804.35
423.017	2744.96
423.224	3000.96
423.432	2972.29
423.64	3099.26
423.848	3285.62
424.056	3119.74
424.263	3506.81
424.471	3467.89
424.679	3568.24
424.887	3623.54
425.094	3871.34
425.302	3848.82
425.51	4278.89
425.718	4072.04
425.925	4287.08
426.133	4430.44
426.341	4598.37
426.548	4889.18
426.756	4778.59
426.964	4782.69
427.171	5065.31
427.379	5425.75
427.586	5145.18
427.794	5556.82
428.001	5741.14
428.209	6019.66
428.417	5909.07
428.624	6322.76
428.832	6355.53
429.039	6341.19
429.247	6468.17
429.454	6898.24
429.662	7397.95
429.869	6918.72
430.076	7313.98
430.284	7234.11
430.491	7295.55
430.699	8065.58
430.906	7993.9
431.114	8024.62
431.321	8286.76
431.528	8442.41
431.736	8950.31
431.943	9243.17
432.15	9232.93
432.358	9239.07
432.565	9853.46
432.772	9761.3
432.979	10127.89
433.187	10322.45
433.394	10471.95
433.601	11174.4
433.808	11395.58
434.016	10983.94
434.223	11536.89
434.43	12212.72
434.637	11897.33
434.844	12816.87
435.052	12814.82
435.259	13050.34
435.466	12993
435.673	12980.71
435.88	13769.18
436.087	14332.37
436.294	14574.03
436.501	14234.07
436.708	14342.61
436.915	15024.58
437.122	15438.27
437.329	15477.18
437.537	16019.89
437.743	16476.59
437.95	16185.78
438.157	16882.09
438.364	17375.65
438.571	17432.99
438.778	17725.85
438.985	19265.92
439.192	18426.26
439.399	18985.35
439.606	18895.24
439.813	19970.43
440.02	20605.3
440.227	20318.58
440.433	20365.68
440.64	21041.51
440.847	20840.81
441.054	21344.61
441.261	22706.51
441.467	22106.46
441.674	22851.92
441.881	24049.98
442.088	23888.19
442.294	23564.61
442.501	24023.36
442.708	24346.94
442.914	25397.54
443.121	26644.76
443.328	26083.61
443.534	27504.9
443.741	26650.9
443.948	26296.6
444.154	28238.08
444.361	28184.83
444.568	28723.44
444.774	28272.89
444.981	28858.61
445.187	29380.84
445.394	30873.81
445.6	30324.96
445.807	32889.01
446.013	31850.69
446.22	32536.76
446.426	33751.21
446.633	34052.26
446.839	34822.3
447.046	33433.77
447.252	35362.96
447.459	35100.82
447.665	35127.44
447.871	36456.57
448.078	37961.83
448.284	36235.39
448.491	37486.7
448.697	38910.04
448.903	39508.05
449.11	39442.51
449.316	38439.01
449.522	39364.69
449.728	40636.48
449.935	40470.59
450.141	40818.75
450.347	41541.68
450.553	40079.43
450.76	40605.76
450.966	41726
451.172	41486.39
451.378	42475.55
451.584	41410.61
451.791	42481.7
451.997	42022.95
452.203	42731.55
452.409	43036.7
452.615	42862.62
452.821	41070.65
453.027	40644.67
453.233	43116.57
453.44	40761.4
453.646	41398.32
453.852	41867.31
454.058	41979.95
454.264	40228.93
454.47	41529.39
454.676	40478.78
454.882	42094.63
455.088	38434.91
455.294	38826.07
455.5	39198.8
455.705	39626.83
455.911	37996.65
456.117	37369.97
456.323	36823.16
456.529	34998.42
456.735	36724.86
456.941	35238.03
457.147	34971.8
457.352	33718.44
457.558	33136.82
457.764	33423.53
457.97	32809.14
458.176	32024.77
458.381	32004.29
458.587	30593.24
458.793	30593.24
458.999	28913.91
459.204	31115.47
459.41	30277.85
459.616	28137.73
459.821	28356.86
460.027	27945.22
460.233	27498.76
460.438	25852.19
460.644	26517.78
460.85	24998.19
461.055	24572.21
461.261	24742.19
461.466	22985.04
461.672	22380.89
461.878	23927.1
462.083	22301.01
462.289	22131.03
462.494	21627.23
462.7	20480.37
462.905	19894.65
463.111	20896.11
463.316	20877.68
463.522	20402.55
463.727	20633.97
463.932	20687.21
464.138	20361.59
464.343	20251
464.549	19632.51
464.754	20461.94
464.959	20011.39
465.165	20105.59
465.37	19362.18
465.575	18864.52
465.781	19728.77
465.986	19755.39
466.191	18686.35
466.397	18694.54
466.602	17699.23
466.807	18395.54
467.012	18465.17
467.218	18264.47
467.423	17883.55
467.628	18272.66
467.833	18856.33
468.038	18155.93
468.244	17783.2
468.449	18299.28
468.654	17576.35
468.859	17920.41
469.064	17519.01
469.269	16943.53
469.474	16949.67
469.679	17271.2
469.885	16923.05
470.09	16740.78
470.295	16798.12
470.5	16353.71
470.705	16613.81
470.91	16349.62
471.115	16128.44
471.32	16304.56
471.525	16089.53
471.73	15911.35
471.935	15874.49
472.139	15305.15
472.344	15206.85
472.549	15329.73
472.754	15061.44
472.959	14754.25
473.164	14455.25
473.369	14320.08
473.574	14844.36
473.778	14918.09
473.983	14348.75
474.188	14387.66
474.393	13545.95
474.598	14014.93
474.802	13562.33
475.007	13492.7
475.212	13455.84
475.417	13122.02
475.621	13048.29
475.826	13021.67
476.031	12833.25
476.235	12626.41
476.44	12874.21
476.645	12274.16
476.849	12667.37
477.054	12450.28
477.259	12337.65
477.463	12534.25
477.668	11749.88
477.872	12077.55
478.077	11866.61
478.282	11618.81
478.486	11604.47
478.691	11459.07
478.895	11655.67
479.1	11147.78
479.304	11444.73
479.509	11016.71
479.713	11239.94
479.918	11037.19
480.122	10932.74
480.326	11219.46
480.531	10967.56
480.735	10807.81
480.94	10693.13
481.144	11229.7
481.348	10615.3
481.553	10672.65
481.757	10562.06
481.961	10689.03
482.166	10666.5
482.37	10758.66
482.574	10637.83
482.778	10719.75
482.983	10838.53
483.187	10654.22
483.391	10955.27
483.595	10390.03
483.8	10494.47
484.004	10736.13
484.208	10654.22
484.412	10658.31
484.616	10584.59
484.821	10588.68
485.025	10310.16
485.229	10770.95
485.433	10523.15
485.637	10670.6
485.841	10586.63
486.045	10441.23
486.249	10553.87
486.453	10457.61
486.657	10457.61
486.861	10711.56
487.065	10435.08
487.269	10596.87
487.473	10375.69
487.677	10594.83
487.881	10738.18
488.085	10658.31
488.289	10678.79
488.493	10635.78
488.697	10699.27
488.901	10584.59
489.105	10609.16
489.309	10564.11
489.512	10699.27
489.716	10746.37
489.92	10560.01
490.124	10625.54
490.328	11035.14
490.531	10648.07
490.735	10979.84
490.939	10973.7
491.143	10789.38
491.346	10879.49
491.55	11260.41
491.754	11194.88
491.958	11145.73
492.161	11076.1
492.365	11266.56
492.569	11024.9
492.772	11112.96
492.976	11112.96
493.18	11319.81
493.383	11600.38
493.587	11653.62
493.79	11725.3
493.994	11381.25
494.197	11639.29
494.401	11827.7
494.605	11760.12
494.808	12042.74
495.012	12184.05
495.215	12020.21
495.419	12331.5
495.622	12169.71
495.825	12237.3
496.029	12282.35
496.232	12806.63
496.436	12347.89
496.639	12904.93
496.843	12929.51
497.046	13058.53
497.249	13283.81
497.453	13087.2
497.656	13277.66
497.859	13435.36
498.063	13806.04
498.266	13941.21
498.469	13857.24
498.673	14045.65
498.876	14057.94
499.079	14322.13
499.282	14123.48
499.485	14791.11
499.689	14784.97
499.892	14764.49
500.095	14873.03
500.298	15421.89
500.501	15301.06
500.705	15647.16
500.908	15925.69
501.111	15950.26
501.314	16056.76
501.517	16243.12
501.72	16445.87
501.923	16421.3
502.126	16632.24
502.329	16910.76
502.532	17172.9
502.735	17369.51
502.938	17387.94
503.141	17492.38
503.344	17961.37
503.547	17942.94
503.75	18332.05
503.953	18846.09
504.156	18833.8
504.359	18831.76
504.562	18690.45
504.765	19374.47
504.968	19526.02
505.17	19624.32
505.373	19923.32
505.576	20142.46
505.779	20529.52
505.982	20547.95
506.185	20810.09
506.387	20912.49
506.59	20971.88
506.793	21639.52
506.996	21422.44
507.198	22122.84
507.401	21848.41
507.604	22260.05
507.807	22690.13
508.009	22384.98
508.212	22735.18
508.415	23161.16
508.617	23617.86
508.82	23400.77
509.022	23802.18
509.225	24170.81
509.428	24607.03
509.63	24738.1
509.833	24564.02
510.035	25321.77
510.238	25286.95
510.44	25557.28
510.643	25942.3
510.845	26128.67
511.048	26044.7
511.25	26216.73
511.453	26640.66
511.655	27707.65
511.858	26978.57
512.06	27367.69
512.262	27967.74
512.465	27861.25
512.667	28244.22
512.87	28387.58
513.072	28666.1
513.274	29122.8
513.477	29487.34
513.679	29722.85
513.881	29663.46
514.084	30087.39
514.286	30257.37
514.488	30640.34
514.69	31455.43
514.893	31467.72
515.095	31428.81
515.297	31889.6
515.499	31801.54
515.701	32995.51
515.904	33007.79
516.106	33097.91
516.308	33145.01
516.51	33491.12
516.712	33673.38
516.914	33982.63
517.116	34764.95
517.318	34838.68
517.52	35154.07
517.722	35213.46
517.925	35672.2
518.127	36065.41
518.329	36534.4
518.531	35985.54
518.733	36829.3
518.935	37077.11
519.136	37185.65
519.338	37812.33
519.54	37910.63
519.742	38570.08
519.944	37972.07
520.146	39182.42
520.348	39567.44
520.55	39606.35
520.752	39669.84
520.954	40648.77
521.155	40159.3
521.357	40810.56
521.559	40902.71
521.761	41324.6
521.963	41097.27
522.164	41707.57
522.366	41842.73
522.568	42487.84
522.77	42520.61
522.971	42985.5
523.173	43003.93
523.375	43030.55
523.576	43558.93
523.778	43573.27
523.98	43991.05
524.181	44095.5
524.383	44441.6
524.584	45064.19
524.786	44830.72
524.988	44924.93
525.189	45381.62
525.391	45985.77
525.592	45944.81
525.794	46047.21
525.995	46082.03
526.197	46292.97
526.398	46260.2
526.6	46974.94
526.801	46999.52
527.003	47044.57
527.204	47101.92
527.406	47822.8
527.607	47880.14
527.808	48021.45
528.01	47099.87
528.211	47691.73
528.412	48551.88
528.614	48424.9
528.815	48502.73
529.016	49162.17
529.218	48250.83
529.419	48547.78
529.62	48750.53
529.822	49094.59
530.023	49100.73
530.224	48953.28
530.425	48785.35
530.626	48728
530.828	48764.87
531.029	49600.44
531.23	48887.74
531.431	49700.79
531.632	49735.6
531.833	49973.17
532.035	49383.35
532.236	49911.73
532.437	49934.26
532.638	49514.42
532.839	50216.88
533.04	49993.65
533.241	49592.25
533.442	50821.03
533.643	50538.41
533.844	49862.58
534.045	50659.24
534.246	50552.74
534.447	50829.22
534.648	50337.71
534.849	50214.83
535.05	50296.75
535.251	50794.4
535.451	50395.05
535.652	50526.12
535.853	50503.59
536.054	50472.87
536.255	50780.07
536.456	50288.56
536.657	51038.11
536.857	50786.21
537.058	50214.83
537.259	50984.86
537.46	50759.59
537.66	50288.56
537.861	50722.72
538.062	50710.44
538.263	50800.55
538.463	50513.83
538.664	50874.27
538.865	50616.23
539.065	50874.27
539.266	50464.68
539.466	51021.73
539.667	50325.42
539.868	51185.57
540.068	50763.68
540.269	50358.19
540.469	50839.46
540.67	50429.87
540.87	50952.1
541.071	50517.93
541.271	50884.51
541.472	50481.06
541.672	50403.24
541.873	50382.76
542.073	50010.03
542.274	50984.86
542.474	50403.24
542.675	50130.86
542.875	50784.16
543.075	50444.2
543.276	49618.87
543.476	50759.59
543.676	49928.11
543.877	50755.49
544.077	50352.04
544.277	50333.61
544.478	50143.15
544.678	50571.17
544.878	50272.17
545.078	50382.76
545.279	50067.37
545.479	50061.23
545.679	50263.98
545.879	50198.44
546.079	50341.8
546.28	49942.45
546.48	49756.08
546.68	50323.37
546.88	50298.8
547.08	50108.33
547.28	49971.12
547.48	49731.51
547.68	49977.26
547.88	49528.76
548.081	49942.45
548.281	50280.36
548.481	49794.99
548.681	50247.6
548.881	49852.34
549.081	50290.6
549.28	49815.47
549.48	50421.67
549.68	49629.11
549.88	50460.58
550.08	49829.81
550.28	49962.93
550.48	49706.93
550.68	50096.05
550.88	49444.79
551.08	49729.46
551.279	49768.37
551.479	49463.22
551.679	49833.91
551.879	49215.42
552.079	50362.28
552.278	49567.67
552.478	49436.6
552.678	49864.63
552.878	49758.13
553.077	49829.81
553.277	49715.12
553.477	49737.65
553.676	49237.95
553.876	49203.13
554.076	49465.27
554.275	49397.69
554.475	49231.8
554.674	49424.31
554.874	49272.76
555.074	49448.89
555.273	49125.31
555.473	49575.86
555.672	49166.27
555.872	49356.73
556.071	49227.71
556.271	49776.56
556.47	48719.81
556.67	48654.28
556.869	48076.75
557.068	48922.56
557.268	48467.91
557.467	48580.55
557.667	48623.56
557.866	48101.32
558.065	48285.64
558.265	47962.06
558.464	48537.54
558.663	48969.66
558.863	48033.74
559.062	48728
559.261	47929.3
559.461	48469.96
559.66	47642.58
559.859	47960.01
560.058	47466.45
560.258	47759.31
560.457	47708.11
560.656	47994.83
560.855	47527.89
561.054	47835.09
561.253	46915.55
561.453	47417.3
561.652	47505.37
561.851	47353.82
562.05	46983.13
562.249	46862.3
562.448	47159.26
562.647	47011.81
562.846	46956.51
563.045	46534.63
563.244	46137.32
563.443	46993.37
563.642	46282.73
563.841	47009.76
564.04	46555.11
564.239	46548.96
564.438	45922.29
564.637	46397.41
564.836	46335.98
565.035	45737.97
565.234	45787.12
565.432	45654
565.631	45524.98
565.83	45713.39
566.029	45500.4
566.228	45518.84
566.427	45365.24
566.625	44939.26
566.824	44433.41
567.023	45520.88
567.222	44226.57
567.42	45062.14
567.619	44515.33
567.818	44881.92
568.016	44494.85
568.215	44881.92
568.414	44054.54
568.612	44552.19
568.811	44105.74
569.01	44595.2
569.208	43589.65
569.407	44292.1
569.605	43419.67
569.804	43882.51
570.002	43341.85
570.201	43472.92
570.4	43126.81
570.598	42885.15
570.797	42698.78
570.995	43016.22
571.193	43055.13
571.392	43225.11
571.59	42752.03
571.789	42436.64
571.987	42596.38
572.186	42401.83
572.384	41809.96
572.582	42250.28
572.781	42489.89
572.979	41680.94
573.177	41984.04
573.376	42059.82
573.574	41232.44
573.772	41547.82
573.971	41656.37
574.169	40898.62
574.367	40435.78
574.565	41369.65
574.763	40888.38
574.962	40788.03
575.16	40458.31
575.358	40626.24
575.556	40499.26
575.754	40777.79
575.952	40177.73
576.151	40585.28
576.349	40138.82
576.547	39876.68
576.745	40173.64
576.943	40114.25
577.141	39762
577.339	39759.95
577.537	39716.94
577.735	39573.58
577.933	39491.66
578.131	39225.43
578.329	39233.62
578.527	39086.17
578.725	39043.16
578.923	39026.78
579.121	38451.3
579.319	38633.57
579.516	38850.65
579.714	38578.27
579.912	38604.89
580.11	38418.53
580.308	38500.45
580.506	38424.67
580.704	37718.12
580.901	38189.16
581.099	37927.02
581.297	37845.1
581.495	37331.06
581.692	37863.53
581.89	37490.8
582.088	37814.38
582.285	37208.18
582.483	37714.03
582.681	37126.26
582.878	36907.13
583.076	36667.52
583.274	37066.87
583.471	36444.29
583.669	36927.61
583.866	36454.53
584.064	36624.51
584.262	36022.4
584.459	36395.14
584.657	36034.69
584.854	36206.72
585.052	35547.28
585.249	35979.4
585.447	35772.55
585.644	35747.98
585.841	35625.1
586.039	35745.93
586.236	34881.69
586.434	35334.29
586.631	34687.13
586.828	35147.92
587.026	35414.16
587.223	34922.65
587.42	34906.26
587.618	34928.79
587.815	34427.04
588.012	34394.27
588.21	33888.42
588.407	34881.69
588.604	34201.76
588.801	34164.9
588.999	34130.08
589.196	34203.81
589.393	34222.24
589.59	33894.57
589.787	33835.17
589.984	33738.92
590.182	33171.63
590.379	33554.6
590.576	33245.36
590.773	33396.91
590.97	33089.71
591.167	33253.55
591.364	32796.85
591.561	32915.64
591.758	32577.72
591.955	32710.84
592.152	32839.86
592.349	32637.11
592.546	32293.05
592.743	32600.25
592.94	32057.54
593.137	32331.97
593.334	32127.17
593.531	31598.79
593.727	31901.89
593.924	31840.45
594.121	31774.92
594.318	31695.05
594.515	31367.37
594.712	31545.55
594.908	31000.79
595.105	31721.67
595.302	31232.21
595.499	31391.95
595.696	31090.9
595.892	30595.29
596.089	30789.84
596.286	31230.16
596.482	30408.92
596.679	30613.72
596.876	30568.66
597.072	30021.86
597.269	30480.6
597.466	29845.73
597.662	29694.18
597.859	30107.87
598.055	29898.98
598.252	29679.85
598.448	29851.88
598.645	29759.72
598.841	29223.15
599.038	29438.19
599.234	29581.54
599.431	29145.33
599.627	29176.05
599.824	29452.52
600.02	28813.55
600.217	29090.03
600.413	29077.74
600.609	28891.38
600.806	28455.16
601.002	28768.5
601.198	28401.91
601.395	28580.09
601.591	28326.14
601.787	28182.78
601.984	28164.35
602.18	28418.3
602.376	27971.84
602.572	27994.37
602.769	28098.81
602.965	27668.74
603.161	27977.98
603.357	27492.62
603.553	27463.94
603.75	27924.74
603.946	27414.79
604.142	27465.99
604.338	27033.87
604.534	27646.21
604.73	26960.14
604.926	27019.53
605.122	26896.66
605.318	26878.22
605.514	26513.69
605.71	26568.98
605.906	26712.34
606.102	26736.91
606.298	26497.3
606.494	26448.15
606.69	26743.06
606.886	26581.27
607.082	26286.36
607.278	26224.92
607.474	25800.99
607.67	26046.75
607.866	25577.76
608.062	26159.39
608.257	25770.27
608.453	25669.92
608.649	25936.16
608.845	25389.35
609.041	25483.56
609.236	25731.36
609.432	25676.07
609.628	25639.2
609.824	25430.31
610.019	25411.88
610.215	25428.26
610.411	25422.12
610.606	25432.36
610.802	25037.1
610.998	25262.38
611.193	25041.2
611.389	24961.33
611.584	24664.37
611.78	24783.15
611.976	24891.69
612.171	24846.64
612.367	24809.78
612.562	24299.83
612.758	24248.63
612.953	24443.19
613.149	24723.76
613.344	24281.4
613.539	24643.89
613.735	24289.59
613.93	24467.77
614.126	24297.78
614.321	24549.68
614.517	24279.35
614.712	24097.08
614.907	23847.23
615.103	24379.7
615.298	23961.92
615.493	24283.45
615.688	23554.37
615.884	24408.37
616.079	23576.9
616.274	23777.6
616.47	23683.39
616.665	23953.73
616.86	23695.68
617.055	23406.92
617.25	23546.18
617.445	23564.61
617.641	23101.77
617.836	23402.82
618.031	23271.75
618.226	23505.22
618.421	22964.56
618.616	23271.75
618.811	22813.01
619.006	23347.53
619.201	22704.46
619.396	22980.94
619.591	22294.87
619.786	22937.93
619.981	22026.59
620.176	22333.78
620.371	22133.08
620.566	22313.3
620.761	22114.65
620.956	22309.21
621.151	21875.04
621.346	22004.06
621.541	21735.77
621.735	21801.31
621.93	21594.47
622.125	21692.77
622.32	21014.89
622.515	21404
622.709	21287.27
622.904	20988.27
623.099	21006.7
623.294	20904.3
623.488	20912.49
623.683	20736.37
623.878	20255.09
624.072	20492.66
624.267	20517.23
624.462	20396.4
624.656	19874.17
624.851	19986.81
625.046	19806.59
625.24	19810.68
625.435	19702.14
625.629	19806.59
625.824	19769.72
626.018	19519.87
626.213	19241.35
626.407	19347.84
626.602	18911.63
626.796	19165.57
626.991	18899.34
627.185	18686.35
627.38	18491.79
627.574	18700.69
627.768	18411.92
627.963	18207.12
628.157	18299.28
628.352	18358.67
628.546	17998.23
628.74	18182.55
628.935	17914.27
629.129	17895.83
629.323	17598.88
629.517	17500.58
629.712	17502.62
629.906	17592.73
630.1	17174.95
630.294	17621.41
630.489	17344.93
630.683	17330.59
630.877	17052.07
631.071	17064.36
631.265	16875.95
631.459	16771.5
631.653	16761.26
631.848	16695.72
632.042	16619.95
632.236	16423.34
632.43	16316.85
632.624	16439.73
632.818	16214.45
633.012	16122.29
633.206	16177.59
633.4	16069.05
633.594	15692.22
633.788	15856.06
633.982	15591.87
634.176	15622.59
634.369	15645.12
634.563	15292.87
634.757	15296.96
634.951	15604.16
635.145	15241.67
635.339	15372.74
635.533	15102.4
635.726	14957
635.92	14666.19
636.114	14827.98
636.308	14893.51
636.501	14840.26
636.695	14629.32
636.889	14172.63
637.083	14455.25
637.276	14275.02
637.47	14438.86
637.664	14299.6
637.857	14381.52
638.051	14057.94
638.244	13873.62
638.438	14012.88
638.632	13787.61
638.825	13898.2
639.019	13773.27
639.212	13509.08
639.406	13740.5
639.599	13642.2
639.793	13699.55
639.986	13382.11
640.18	13396.45
640.373	13586.91
640.567	13050.34
640.76	13064.68
640.954	13109.73
641.147	12814.82
641.34	13083.11
641.534	12943.85
641.727	12679.66
641.92	12820.97
642.114	12792.3
642.307	12552.68
642.5	12372.46
642.694	12351.98
642.887	12345.84
643.08	12380.65
643.273	12302.83
643.467	12118.51
643.66	11997.68
643.853	12075.51
644.046	11749.88
644.239	11837.94
644.432	11747.83
644.626	11665.91
644.819	11428.35
645.012	11715.06
645.205	11620.86
645.398	11680.25
645.591	11436.54
645.784	11452.92
645.977	11436.54
646.17	11391.48
646.363	11053.57
646.556	11008.51
646.749	10914.31
646.942	11188.74
647.135	10912.26
647.328	10916.36
647.521	10824.2
647.714	10877.44
647.907	10498.57
648.099	10734.09
648.292	10641.93
648.485	10623.5
648.678	10387.98
648.871	10349.07
649.064	10306.06
649.256	10514.95
649.449	10328.59
649.642	10334.73
649.835	10234.38
650.027	10127.89
650.22	9773.59
650.413	9914.9
650.605	10093.07
650.798	9859.6
650.991	9998.87
651.183	9896.47
651.376	9826.84
651.568	9900.56
651.761	9523.74
651.954	9628.18
652.146	9513.5
652.339	9546.26
652.531	9433.63
652.724	9343.52
652.916	9413.15
653.109	9175.58
653.301	9189.92
653.494	9595.42
653.686	8991.27
653.879	9263.65
654.071	9165.34
654.263	9089.57
654.456	8911.39
654.648	9075.23
654.84	8837.67
655.033	8759.84
655.225	8792.61
655.417	8704.55
655.61	8794.66
655.802	8606.25
655.994	8553
656.186	8569.38
656.379	8495.66
656.571	8593.96
656.763	8532.52
656.955	8401.45
657.148	8352.3
657.34	8266.28
657.532	8301.1
657.724	8147.5
657.916	8286.76
658.108	8079.92
658.3	7993.9
658.492	8274.48
658.684	8204.85
658.876	7979.57
659.068	8098.35
659.26	7782.96
659.452	7842.35
659.644	7871.03
659.836	7803.44
660.028	7830.07
660.22	7633.46
660.412	7696.95
660.604	7547.45
660.796	7559.74
660.988	7576.12
661.18	7496.25
661.372	7426.62
661.563	7440.95
661.755	7395.9
661.947	7438.91
662.139	7295.55
662.331	7361.08
662.522	7318.07
662.714	7213.63
662.906	7182.91
663.097	7344.7
663.289	6947.39
663.481	7096.89
663.673	6879.81
663.864	6939.2
664.056	7082.56
664.247	6971.97
664.439	6765.12
664.631	6777.41
664.822	7000.64
665.014	6697.54
665.205	6699.59
665.397	6754.88
665.588	6636.1
665.78	6613.57
665.971	6715.97
666.163	6627.91
666.354	6787.65
666.546	6447.69
666.737	6494.79
666.929	6322.76
667.12	6451.78
667.311	6468.17
667.503	6343.24
667.694	6265.42
667.885	6333
668.077	6369.87
668.268	6238.8
668.459	6367.82
668.651	6273.61
668.842	6259.28
669.033	6021.71
669.224	6052.43
669.416	6130.25
669.607	6070.86
669.798	6013.52
669.989	6163.02
670.18	5947.98
670.371	5970.51
670.563	5997.14
670.754	6044.24
670.945	5872.21
671.136	5935.7
671.327	5902.93
671.518	5888.59
671.709	5886.54
671.9	5722.71
672.091	5796.43
672.282	5751.38
672.473	5608.02
672.664	5849.68
672.855	5804.63
673.046	5689.94
673.237	5694.04
673.428	5628.5
673.619	5626.45
673.809	5470.81
674	5608.02
674.191	5681.75
674.382	5519.96
674.573	5440.09
674.764	5579.35
674.954	5616.21
675.145	5542.49
675.336	5345.88
675.527	5544.53
675.717	5474.9
675.908	5454.42
676.099	5544.53
676.289	5233.24
676.48	5435.99
676.671	5370.46
676.861	5554.77
677.052	5382.74
677.243	5225.05
677.433	5280.35
677.624	5284.44
677.814	5358.17
678.005	5519.96
678.195	5382.74
678.386	5251.67
678.576	5141.08
678.767	5169.76
678.957	5284.44
679.148	5352.02
679.338	5161.56
679.529	5180
679.719	5157.47
679.909	5280.35
680.1	5104.22
680.29	5218.91
680.481	5190.24
680.671	5143.13
680.861	5272.15
681.052	5118.56
681.242	5059.17
681.432	5270.11
681.622	4948.58
681.813	5188.19
682.003	5034.59
682.193	4895.33
682.383	5073.5
682.573	5263.96
682.764	4997.73
682.954	5028.45
683.144	5093.98
683.334	5007.97
683.524	5059.17
683.714	4901.47
683.904	5003.87
684.094	5024.35
684.284	4919.9
684.474	5091.93
684.664	4948.58
684.854	4870.75
685.044	4872.8
685.234	4758.11
685.424	4889.18
685.614	4946.53
685.804	4735.59
685.994	4764.26
686.184	4909.66
686.374	4938.34
686.564	4608.61
686.753	4663.91
686.943	4657.76
687.133	4700.77
687.323	4698.72
687.513	4842.08
687.702	4571.75
687.892	4553.32
688.082	4545.13
688.272	4643.43
688.461	4567.65
688.651	4655.72
688.841	4676.2
689.03	4381.29
689.22	4573.8
689.41	4606.56
689.599	4518.5
689.789	4463.21
689.979	4397.67
690.168	4297.32
690.358	4330.09
690.547	4485.73
690.737	4358.76
690.926	4297.32
691.116	4205.16
691.305	4479.59
691.495	4219.5
691.684	4432.49
691.874	4237.93
692.063	4352.62
692.252	4219.5
692.442	4153.96
692.631	4088.43
692.82	4156.01
693.01	4125.29
693.199	4100.72
693.388	3986.03
693.578	4221.55
693.767	4149.87
693.956	4156.01
694.146	3846.77
694.335	3969.65
694.524	4086.38
694.713	4067.95
694.902	4035.18
695.092	4182.63
695.281	3803.76
695.47	3949.17
695.659	3904.11
695.848	4026.99
696.037	4006.51
696.226	3895.92
696.415	3926.64
696.604	3973.74
696.793	3897.97
696.982	3793.52
697.171	3826.29
697.36	3842.67
697.549	3869.3
697.738	3873.39
697.927	3668.59
698.116	3748.47
698.305	3881.58
698.494	3711.6
698.683	3760.75
698.872	3762.8
699.061	3736.18
699.25	3758.71
699.438	3687.03
699.627	3895.92
699.816	3736.18
700.005	3695.22
700.193	3742.32
700.382	3836.53
700.571	3756.66
700.76	3766.9
700.948	3879.54
701.137	3719.79
701.326	3744.37
701.514	3672.69
701.703	3670.64
701.892	3705.46
702.08	3623.54
702.269	3795.57
702.457	3691.12
702.646	3713.65
702.834	3789.42
703.023	3601.01
703.212	3760.75
703.4	3641.97
703.589	3672.69
703.777	3748.47
703.965	3803.76
704.154	3744.37
704.342	3623.54
704.531	3553.91
704.719	3650.16
704.907	3703.41
705.096	3648.11
705.284	3560.05
705.472	3590.77
705.661	3588.72
705.849	3666.55
706.037	3598.96
706.226	3574.39
706.414	3515
706.602	3533.43
706.79	3553.91
706.979	3555.96
707.167	3723.89
707.355	3721.84
707.543	3613.3
707.731	3648.11
707.919	3496.57
708.107	3545.72
708.296	3592.82
708.484	3564.15
708.672	3451.51
708.86	3578.48
709.048	3578.48
709.236	3740.27
709.424	3707.51
709.612	3586.68
709.8	3510.9
709.988	3525.24
710.176	3641.97
710.364	3533.43
710.551	3605.11
710.739	3463.8
710.927	3641.97
711.115	3570.29
711.303	3664.5
711.491	3539.57
711.679	3547.76
711.866	3576.44
712.054	3555.96
712.242	3506.81
712.43	3539.57
712.617	3396.21
712.805	3486.33
712.993	3388.02
713.181	3433.08
713.368	3512.95
713.556	3533.43
713.744	3394.17
713.931	3527.28
714.119	3467.89
714.306	3652.21
714.494	3531.38
714.682	3609.2
714.869	3494.52
715.057	3488.37
715.244	3488.37
715.432	3590.77
715.619	3449.46
715.807	3553.91
715.994	3474.04
716.182	3594.87
716.369	3480.18
716.556	3582.58
716.744	3445.37
716.931	3515
717.119	3605.11
717.306	3551.86
717.493	3496.57
717.681	3547.76
717.868	3459.7
718.055	3607.16
718.242	3461.75
718.43	3369.59
718.617	3482.23
718.804	3512.95
718.991	3441.27
719.179	3431.03
719.366	3422.84
719.553	3404.41
719.74	3418.74
719.927	3471.99
720.114	3439.22
720.301	3482.23
720.488	3414.65
720.676	3558
720.863	3496.57
721.05	3508.85
721.237	3433.08
721.424	3488.37
721.611	3371.64
721.798	3431.03
721.985	3377.78
722.172	3474.04
722.358	3394.17
722.545	3480.18
722.732	3369.59
722.919	3455.61
723.106	3369.59
723.293	3314.3
723.48	3424.89
723.667	3431.03
723.853	3291.77
724.04	3451.51
724.227	3412.6
724.414	3426.93
724.6	3328.63
724.787	3494.52
724.974	3449.46
725.161	3369.59
725.347	3359.35
725.534	3426.93
725.72	3377.78
725.907	3392.12
726.094	3332.73
726.28	3261.05
726.467	3281.53
726.653	3332.73
726.84	3353.21
727.027	3345.02
727.213	3222.14
727.4	3312.25
727.586	3334.78
727.773	3252.86
727.959	3250.81
728.145	3220.09
728.332	3383.93
728.518	3179.13
728.705	3316.34
728.891	3289.72
729.077	3295.86
729.264	3297.91
729.45	3299.96
729.636	3443.32
729.823	3183.23
730.009	3289.72
730.195	3168.89
730.382	3302.01
730.568	3295.86
730.754	3342.97
730.94	3394.17
731.126	3236.47
731.313	3259
731.499	3299.96
731.685	3369.59
731.871	3242.62
732.057	3195.51
732.243	3228.28
732.429	3115.64
732.615	3273.34
732.801	3215.99
732.987	3003
733.173	3320.44
733.359	3158.65
733.545	3160.7
733.731	3140.22
733.917	3207.8
734.103	3259
734.289	3203.71
734.475	3129.98
734.661	3224.19
734.847	3150.46
735.033	3215.99
735.219	3023.48
735.404	3113.6
735.59	3054.2
735.776	3105.4
735.962	3111.55
736.148	3181.18
736.333	3074.68
736.519	3029.63
736.705	3052.16
736.89	3041.92
737.076	3060.35
737.262	3068.54
737.447	3050.11
737.633	3103.36
737.819	3089.02
738.004	3074.68
738.19	2953.85
738.375	3003
738.561	3064.44
738.747	2982.53
738.932	3056.25
739.118	2945.66
739.303	3138.17
739.489	2933.37
739.674	2898.56
739.859	2906.75
740.045	2949.76
740.23	2845.31
740.416	2871.93
740.601	2892.41
740.786	2953.85
740.972	2808.45
741.157	2824.83
741.342	2931.33
741.528	2902.65
741.713	2863.74
741.898	2804.35
742.084	2869.89
742.269	2896.51
742.454	2798.21
742.639	2794.11
742.824	2732.67
743.01	2769.54
743.195	2773.63
743.38	2716.29
743.565	2652.8
743.75	2701.95
743.935	2738.82
744.12	2699.91
744.305	2734.72
744.49	2609.79
744.675	2605.7
744.86	2593.41
745.045	2632.32
745.23	2628.23
745.415	2640.51
745.6	2560.64
745.785	2491.01
745.97	2552.45
746.155	2658.95
746.34	2617.99
746.525	2503.3
746.71	2497.16
746.895	2427.53
747.079	2464.39
747.264	2429.57
747.449	2405
747.634	2458.25
747.819	2343.56
748.003	2425.48
748.188	2355.85
748.373	2368.13
748.557	2402.95
748.742	2351.75
748.927	2359.94
749.111	2329.22
749.296	2290.31
749.481	2239.11
749.665	2331.27
749.85	2249.35
750.034	2273.93
750.219	2196.11
750.404	2206.34
750.588	2206.34
750.773	2110.09
750.957	2181.77
751.141	2085.51
751.326	2151.05
751.51	2073.23
751.695	2054.8
751.879	2089.61
752.064	2118.28
752.248	2142.86
752.432	1993.36
752.617	1952.4
752.801	1987.21
752.985	1966.73
753.17	1925.77
753.354	2003.6
753.538	1927.82
753.722	1923.73
753.907	1905.29
754.091	1970.83
754.275	1870.48
754.459	1823.37
754.643	1749.65
754.828	1800.85
755.012	1806.99
755.196	1845.9
755.38	1743.5
755.564	1696.4
755.748	1743.5
755.932	1839.76
756.116	1766.03
756.3	1753.74
756.484	1745.55
756.668	1751.7
756.852	1688.21
757.036	1553.04
757.22	1655.44
757.404	1663.63
757.588	1663.63
757.772	1553.04
757.956	1544.85
758.14	1649.3
758.323	1626.77
758.507	1591.95
758.691	1548.95
758.875	1659.54
759.059	1604.24
759.242	1704.59
759.426	1432.21
759.61	1532.56
759.794	1512.08
759.977	1510.04
760.161	1532.56
760.345	1589.91
760.528	1458.84
760.712	1401.49
760.895	1442.45
761.079	1485.46
761.263	1411.73
761.446	1481.36
761.63	1364.63
761.813	1503.89
761.997	1325.72
762.18	1335.96
762.364	1352.34
762.547	1397.4
762.731	1297.05
762.914	1403.54
763.098	1385.11
763.281	1360.53
763.464	1430.16
763.648	1305.24
763.831	1299.09
764.015	1303.19
764.198	1274.52
764.381	1299.09
764.564	1315.48
764.748	1221.27
764.931	1368.73
765.114	1284.76
765.297	1245.85
765.481	1319.57
765.664	1268.38
765.847	1301.14
766.03	1299.09
766.213	1235.61
766.397	1249.94
766.58	1208.98
766.763	1239.7
766.946	1110.68
767.129	1280.66
767.312	1186.46
767.495	1194.65
767.678	1229.46
767.861	1239.7
768.044	1215.13
768.227	1151.64
768.41	1200.79
768.593	1084.06
768.776	1112.73
768.959	1186.46
769.142	1155.74
769.324	1206.94
769.507	1262.23
769.69	1231.51
769.873	1073.82
770.056	1225.37
770.239	1028.76
770.421	1094.3
770.604	1141.4
770.787	1061.53
770.97	1112.73
771.152	1014.43
771.335	1147.55
771.518	1065.63
771.7	1065.63
771.883	1200.79
772.066	1004.19
772.248	1034.91
772.431	1071.77
772.613	1004.19
772.796	1012.38
772.978	1051.29
773.161	1108.63
773.343	959.13
773.526	991.9
773.708	1020.57
773.891	922.27
774.073	932.51
774.256	871.07
774.438	991.9
774.621	895.64
774.803	940.7
774.985	928.41
775.168	973.47
775.35	926.36
775.532	912.03
775.715	862.88
775.897	946.84
776.079	905.88
776.261	787.1
776.444	877.21
776.626	895.64
776.808	846.49
776.99	848.54
777.173	891.55
777.355	909.98
777.537	846.49
777.719	852.64
777.901	801.44
778.083	846.49
778.265	783.01
778.447	828.06
778.629	795.29
778.811	877.21
778.993	815.77
779.175	754.34
779.357	842.4
779.539	783.01
779.721	750.24
779.903	723.62
780.085	649.89
780.267	770.72
780.449	699.04
780.631	596.64
780.812	725.66
780.994	731.81
781.176	758.43
781.358	766.62
781.54	688.8
781.721	766.62
781.903	780.96
782.085	666.27
782.267	701.09
782.448	758.43
782.63	623.27
782.812	721.57
782.993	688.8
783.175	643.74
783.357	604.83
783.538	629.41
783.72	635.55
783.901	608.93
784.083	594.59
784.264	586.4
784.446	498.34
784.627	578.21
784.809	627.36
784.99	547.49
785.172	588.45
785.353	627.36
785.535	619.17
785.716	543.39
785.897	590.5
786.079	586.4
786.26	639.65
786.441	598.69
786.623	508.58
786.804	619.17
786.985	613.03
787.167	559.78
787.348	506.53
787.529	543.39
787.71	602.79
787.891	543.39
788.073	447.14
788.254	461.48
788.435	451.24
788.616	553.63
788.797	469.67
788.978	412.32
789.159	475.81
789.34	570.02
789.522	475.81
789.703	518.82
789.884	422.56
790.065	430.76
790.246	457.38
790.427	522.91
790.607	481.96
790.788	549.54
790.969	422.56
791.15	484
791.331	445.09
791.512	420.52
791.693	357.03
791.874	363.17
792.054	393.89
792.235	438.95
792.416	385.7
792.597	455.33
792.778	494.24
792.958	455.33
793.139	445.09
793.32	484
793.5	410.28
793.681	424.61
793.862	357.03
794.042	305.83
794.223	324.26
794.404	402.08
794.584	377.51
794.765	385.7
794.945	373.41
795.126	451.24
795.306	406.18
795.487	387.75
795.667	340.65
795.848	320.17
796.028	387.75
796.209	354.98
796.389	381.6
796.57	375.46
796.75	361.13
796.93	316.07
797.111	359.08
797.291	314.02
797.471	316.07
797.652	336.55
797.832	336.55
798.012	389.8
798.192	291.49
798.373	375.46
798.553	307.88
798.733	344.74
798.913	262.82
799.093	371.36
799.274	379.56
799.454	316.07
799.634	309.93
799.814	293.54
799.994	264.87
800.174	283.3
800.354	262.82
800.534	287.4
800.714	334.5
800.894	309.93
801.074	336.55
801.254	275.11
801.434	328.36
801.614	305.83
801.794	264.87
801.974	713.38
802.154	211.62
802.334	295.59
802.514	176.81
802.693	299.69
802.873	246.44
803.053	357.03
803.233	287.4
803.413	207.53
803.592	287.4
803.772	228.01
803.952	158.38
804.131	279.21
804.311	277.16
804.491	309.93
804.67	262.82
804.85	225.96
805.03	230.06
805.209	318.12
805.389	201.38
805.568	311.97
805.748	295.59
805.928	299.69
806.107	258.73
806.287	301.73
806.466	266.92
806.646	205.48
806.825	271.01
807.004	185
807.184	215.72
807.363	258.73
807.543	254.63
807.722	213.67
807.901	273.06
808.081	234.15
808.26	254.63
808.439	271.01
808.619	275.11
808.798	217.77
808.977	189.1
809.156	311.97
809.336	205.48
809.515	291.49
809.694	234.15
809.873	205.48
810.052	246.44
810.231	266.92
810.411	209.58
810.59	225.96
810.769	168.62
810.948	246.44
811.127	217.77
811.306	205.48
811.485	240.29
811.664	244.39
811.843	160.42
812.022	172.71
812.201	150.18
812.38	193.19
812.559	176.81
812.737	303.78
812.916	189.1
813.095	225.96
813.274	123.56
813.453	178.86
813.632	148.14
813.811	180.9
813.989	209.58
814.168	215.72
814.347	166.57
814.526	185
814.704	158.38
814.883	248.49
815.062	180.9
815.24	170.66
815.419	176.81
815.598	127.66
815.776	174.76
815.955	254.63
816.133	125.61
816.312	164.52
816.49	156.33
816.669	135.85
816.847	156.33
817.026	172.71
817.204	225.96
817.383	139.94
817.561	201.38
817.74	193.19
817.918	156.33
818.097	146.09
818.275	88.75
818.453	148.14
818.632	127.66
818.81	129.7
818.988	166.57
819.167	117.42
819.345	166.57
819.523	152.23
819.701	182.95
819.879	166.57
820.058	125.61
820.236	109.22
820.414	144.04
820.592	96.94
820.77	103.08
820.948	197.29
821.127	141.99
821.305	135.85
821.483	135.85
821.661	103.08
821.839	180.9
822.017	107.18
822.195	103.08
822.373	176.81
822.551	135.85
822.729	160.42
822.907	158.38
823.085	150.18
823.262	133.8
823.44	211.62
823.618	127.66
823.796	131.75
823.974	111.27
824.152	111.27
824.329	94.89
824.507	82.6
824.685	176.81
824.863	117.42
825.04	182.95
825.218	168.62
825.396	109.22
825.574	144.04
825.751	223.91
825.929	109.22
826.107	148.14
826.284	98.99
826.462	160.42
826.639	164.52
826.817	115.37
826.994	139.94
827.172	86.7
827.349	197.29
827.527	133.8
827.704	135.85
827.882	98.99
828.059	103.08
828.237	51.88
828.414	109.22
828.591	107.18
828.769	123.56
828.946	78.51
829.124	189.1
829.301	117.42
829.478	135.85
829.655	96.94
829.833	131.75
830.01	82.6
830.187	150.18
830.364	72.36
830.542	78.51
830.719	113.32
830.896	103.08
831.073	43.69
831.25	115.37
831.427	119.46
831.604	135.85
831.782	86.7
831.959	150.18
832.136	19.11
832.313	109.22
832.49	98.99
832.667	98.99
832.844	127.66
833.021	39.59
833.198	152.23
833.374	92.84
833.551	94.89
833.728	146.09
833.905	166.57
834.082	8.87
834.259	43.69
834.436	115.37
834.612	72.36
834.789	228.01
834.966	62.12
835.143	84.65
835.319	141.99
835.496	125.61
835.673	62.12
835.85	31.4
836.026	109.22
836.203	125.61
836.38	68.27
836.556	45.74
836.733	45.74
836.909	144.04
837.086	129.7
837.262	-3.41
837.439	21.16
837.616	68.27
837.792	72.36
837.968	94.89
838.145	-23.89
838.321	86.7
838.498	64.17
838.674	109.22
838.851	119.46
839.027	84.65
839.203	25.26
839.38	64.17
839.556	37.55
839.732	66.22
839.909	101.03
840.085	74.41
840.261	78.51
840.437	86.7
840.614	86.7
840.79	78.51
840.966	51.88
841.142	25.26
841.318	41.64
841.494	41.64
841.671	115.37
841.847	51.88
842.023	76.46
842.199	119.46
842.375	82.6
842.551	70.31
842.727	68.27
842.903	74.41
843.079	21.16
843.255	103.08
843.431	64.17
843.607	53.93
843.783	-21.85
843.959	70.31
844.134	43.69
844.31	35.5
844.486	45.74
844.662	62.12
844.838	119.46
845.013	74.41
845.189	133.8
845.365	51.88
845.541	82.6
845.716	82.6
845.892	105.13
846.068	107.18
846.244	55.98
846.419	74.41
846.595	43.69
846.77	-3.41
846.946	111.27
847.122	86.7
847.297	43.69
847.473	49.83
847.648	74.41
847.824	127.66
847.999	12.97
848.175	58.03
848.35	115.37
848.526	37.55
848.701	70.31
848.876	64.17
849.052	49.83
849.227	41.64
849.403	58.03
849.578	45.74
849.753	58.03
849.929	84.65
850.104	12.97
850.279	35.5
850.454	94.89
850.63	31.4
850.805	62.12
850.98	10.92
851.155	43.69
851.33	-7.51
851.505	23.21
851.681	90.79
851.856	-9.56
852.031	80.55
852.206	92.84
852.381	12.97
852.556	-19.8
852.731	41.64
852.906	146.09
853.081	82.6
853.256	12.97
853.431	35.5
853.606	78.51
853.781	4.78
853.956	-109.91
854.131	-3.41
854.305	62.12
854.48	96.94
854.655	15.02
854.83	51.88
855.005	-19.8
855.18	45.74
855.354	-9.56
855.529	-3.41
855.704	-1.37
855.879	4.78
856.053	45.74
856.228	41.64
856.403	23.21
856.577	-5.46
856.752	-13.65
856.926	58.03
857.101	68.27
857.276	-23.89
857.45	35.5
857.625	49.83
857.799	37.55
857.974	154.28
858.148	-71
858.323	27.31
858.497	-48.47
858.672	17.07
858.846	12.97
859.02	33.45
859.195	41.64
859.369	10.92
859.543	51.88
859.718	66.22
859.892	58.03
860.066	12.97
860.241	-32.08
860.415	0.68
860.589	-13.65
860.763	-7.51
860.938	64.17
861.112	21.16
861.286	37.55
861.46	60.07
861.634	64.17
861.808	43.69
861.982	4.78
862.157	19.11
862.331	31.4
862.505	2.73
862.679	-23.89
862.853	23.21
863.027	55.98
863.201	10.92
863.375	8.87
863.549	60.07
863.722	25.26
863.896	43.69
864.07	-25.94
864.244	10.92
864.418	41.64
864.592	31.4
864.766	37.55
864.939	17.07
865.113	51.88
865.287	15.02
865.461	-34.13
865.634	10.92
865.808	2.73
865.982	-3.41
866.156	-46.42
866.329	-62.8
866.503	27.31
866.676	37.55
866.85	-11.61
867.024	-52.56
867.197	62.12
867.371	6.83
867.544	33.45
867.718	43.69
867.891	-21.85
868.065	-30.04
868.238	-15.7
868.412	103.08
868.585	23.21
868.759	-3.41
868.932	33.45
869.105	4.78
869.279	23.21
869.452	-54.61
869.625	12.97
869.799	6.83
869.972	-5.46
870.145	0.68
870.319	2.73
870.492	-3.41
870.665	45.74
870.838	-36.18
871.011	-40.28
871.185	19.11
871.358	-19.8
871.531	94.89
871.704	-1.37
871.877	29.35
872.05	-15.7
872.223	35.5
872.396	19.11
872.569	-7.51
872.742	17.07
872.915	29.35
873.088	-11.61
873.261	-52.56
873.434	41.64
873.607	-3.41
873.78	29.35
873.953	2.73
874.126	41.64
874.299	-38.23
874.471	-30.04
874.644	-73.04
874.817	-11.61
874.99	17.07
875.163	-11.61
875.335	15.02
875.508	53.93
875.681	37.55
875.853	-52.56
876.026	70.31
876.199	37.55
876.371	70.31
876.544	-11.61
876.717	0.68
876.889	70.31
877.062	94.89
877.234	-21.85
877.407	-68.95
877.579	-3.41
877.752	-62.8
877.924	31.4
878.097	21.16
878.269	21.16
878.442	49.83
878.614	17.07
878.786	-1.37
878.959	39.59
879.131	0.68
879.303	27.31
879.476	-48.47
879.648	70.31
879.82	-15.7
879.993	31.4
880.165	-11.61
880.337	-64.85
880.509	21.16
880.681	-32.08
880.854	-11.61
881.026	72.36
881.198	78.51
881.37	19.11
881.542	51.88
881.714	-66.9
881.886	-66.9
882.058	25.26
882.23	-42.32
882.402	72.36
882.574	2.73
882.746	-30.04
882.918	17.07
883.09	78.51
883.262	-27.99
883.434	-42.32
883.606	23.21
883.778	-21.85
883.95	17.07
884.122	-17.75
884.293	-7.51
884.465	-9.56
884.637	33.45
884.809	45.74
884.98	4.78
885.152	27.31
885.324	33.45
885.496	12.97
885.667	2.73
885.839	-36.18
886.011	66.22
886.182	-13.65
886.354	35.5
886.525	23.21
886.697	45.74
886.869	17.07
887.04	4.78
887.212	17.07
887.383	62.12
887.555	12.97
887.726	15.02
887.897	-3.41
888.069	-15.7
888.24	43.69
888.412	33.45
888.583	-44.37
888.754	49.83
888.926	-36.18
889.097	-19.8
889.268	8.87
889.44	27.31
889.611	-54.61
889.782	23.21
889.953	-30.04
890.125	78.51
890.296	6.83
890.467	-11.61
890.638	43.69
890.809	68.27
890.98	6.83
891.151	-11.61
891.323	-60.76
891.494	-7.51
891.665	-50.52
891.836	-32.08
892.007	-1.37
892.178	29.35
892.349	8.87
892.52	17.07
892.691	12.97
892.862	6.83
893.032	10.92
893.203	4.78
893.374	-42.32
893.545	70.31
893.716	0.68
893.887	31.4
894.057	10.92
894.228	-11.61
894.399	-36.18
894.57	74.41
894.74	10.92
894.911	25.26
895.082	-13.65
895.253	-73.04
895.423	15.02
895.594	-5.46
895.764	15.02
895.935	-32.08
896.106	0.68
896.276	-38.23
896.447	12.97
896.617	-87.38
896.788	-13.65
896.958	-50.52
897.129	-1.37
897.299	-25.94
897.47	37.55
897.64	-34.13
897.81	2.73
897.981	80.55
898.151	-81.24
898.322	15.02
898.492	-25.94
898.662	-62.8
898.832	-79.19
899.003	49.83
899.173	37.55
899.343	-38.23
899.513	21.16
