Data from USB4F104151__221__10-30-10-021.txt Node

Date: Wed Mar 12 10:30:10 EDT 2025
User: louis
Spectrometer: USB4F10415
Trigger mode: 4
Integration Time (sec): 3.000000E-2
Scans to average: 1
Electric dark correction enabled: true
Nonlinearity correction enabled: false
Boxcar width: 0
XAxis mode: Wavelengths
Number of Pixels in Spectrum: 3648
>>>>>Begin Spectral Data<<<<<
178.204	-50.86
178.424	-50.86
178.644	-50.86
178.864	-75.43
179.084	-87.72
179.304	4.44
179.524	-42.67
179.744	29.01
179.964	80.21
180.184	-34.47
180.404	-57
180.624	-32.43
180.844	29.01
181.064	47.44
181.283	0.34
181.503	-83.63
181.723	59.73
181.943	-16.04
182.163	69.97
182.383	82.26
182.602	-1.71
182.822	121.17
183.042	18.77
183.262	22.87
183.482	18.77
183.701	-34.47
183.921	76.12
184.141	26.96
184.361	18.77
184.58	88.4
184.8	76.12
185.02	43.35
185.239	78.16
185.459	39.25
185.679	133.46
185.898	0.34
186.118	72.02
186.338	31.06
186.557	90.45
186.777	-26.28
186.997	-69.29
187.216	18.77
187.436	18.77
187.655	26.96
187.875	92.5
188.095	10.58
188.314	123.22
188.534	65.88
188.753	-7.85
188.973	45.4
189.192	-1.71
189.412	41.3
189.631	53.59
189.851	69.97
190.07	51.54
190.29	-7.85
190.509	55.64
190.729	26.96
190.948	29.01
191.168	129.36
191.387	55.64
191.607	-5.8
191.826	29.01
192.045	67.92
192.265	39.25
192.484	74.07
192.704	51.54
192.923	8.53
193.142	115.03
193.362	90.45
193.581	55.64
193.8	-1.71
194.02	104.79
194.239	10.58
194.458	74.07
194.678	39.25
194.897	8.53
195.116	78.16
195.335	29.01
195.555	29.01
195.774	65.88
195.993	20.82
196.212	43.35
196.432	51.54
196.651	8.53
196.87	-16.04
197.089	55.64
197.308	102.74
197.528	67.92
197.747	-30.38
197.966	-3.75
198.185	43.35
198.404	24.92
198.623	96.6
198.842	108.88
199.062	-40.62
199.281	121.17
199.5	29.01
199.719	51.54
199.938	131.41
200.157	63.83
200.376	108.88
200.595	112.98
200.814	57.68
201.033	-3.75
201.252	80.21
201.471	-9.9
201.69	26.96
201.909	74.07
202.128	10.58
202.347	12.63
202.566	78.16
202.785	37.2
203.004	39.25
203.223	98.64
203.442	53.59
203.661	78.16
203.879	-34.47
204.098	110.93
204.317	47.44
204.536	55.64
204.755	86.36
204.974	84.31
205.193	63.83
205.411	96.6
205.63	47.44
205.849	-46.76
206.068	63.83
206.287	-1.71
206.505	98.64
206.724	22.87
206.943	31.06
207.162	55.64
207.381	33.11
207.599	45.4
207.818	12.63
208.037	55.64
208.255	0.34
208.474	33.11
208.693	65.88
208.911	47.44
209.13	63.83
209.349	31.06
209.567	26.96
209.786	110.93
210.005	61.78
210.223	18.77
210.442	-36.52
210.661	76.12
210.879	-18.09
211.098	35.16
211.316	35.16
211.535	112.98
211.753	2.39
211.972	24.92
212.191	43.35
212.409	121.17
212.628	24.92
212.846	78.16
213.065	45.4
213.283	-1.71
213.502	0.34
213.72	12.63
213.938	12.63
214.157	33.11
214.375	74.07
214.594	4.44
214.812	51.54
215.031	26.96
215.249	26.96
215.467	112.98
215.686	35.16
215.904	55.64
216.122	80.21
216.341	41.3
216.559	61.78
216.778	80.21
216.996	16.73
217.214	98.64
217.432	14.68
217.651	10.58
217.869	2.39
218.087	69.97
218.306	84.31
218.524	53.59
218.742	63.83
218.96	12.63
219.179	88.4
219.397	22.87
219.615	51.54
219.833	33.11
220.051	63.83
220.27	57.68
220.488	67.92
220.706	33.11
220.924	-57
221.142	-26.28
221.36	49.49
221.578	84.31
221.796	22.87
222.015	51.54
222.233	61.78
222.451	110.93
222.669	-34.47
222.887	31.06
223.105	-9.9
223.323	-22.19
223.541	-5.8
223.759	-16.04
223.977	65.88
224.195	141.65
224.413	131.41
224.631	59.73
224.849	31.06
225.067	86.36
225.285	51.54
225.503	53.59
225.721	18.77
225.939	67.92
226.157	51.54
226.375	90.45
226.592	-16.04
226.81	41.3
227.028	98.64
227.246	41.3
227.464	-26.28
227.682	49.49
227.9	80.21
228.117	0.34
228.335	84.31
228.553	96.6
228.771	4.44
228.989	100.69
229.206	47.44
229.424	84.31
229.642	18.77
229.86	-61.1
230.077	39.25
230.295	125.27
230.513	119.12
230.731	72.02
230.948	72.02
231.166	55.64
231.384	-48.81
231.601	84.31
231.819	84.31
232.037	6.49
232.254	2.39
232.472	84.31
232.689	-42.67
232.907	133.46
233.125	43.35
233.342	-1.71
233.56	10.58
233.777	102.74
233.995	45.4
234.213	127.32
234.43	57.68
234.648	-24.23
234.865	-48.81
235.083	80.21
235.3	51.54
235.518	86.36
235.735	80.21
235.953	108.88
236.17	22.87
236.388	26.96
236.605	6.49
236.822	80.21
237.04	-18.09
237.257	31.06
237.475	-1.71
237.692	43.35
237.909	16.73
238.127	0.34
238.344	-22.19
238.562	37.2
238.779	-77.48
238.996	-3.75
239.214	-7.85
239.431	110.93
239.648	16.73
239.865	74.07
240.083	41.3
240.3	24.92
240.517	14.68
240.735	55.64
240.952	51.54
241.169	80.21
241.386	92.5
241.603	92.5
241.821	26.96
242.038	61.78
242.255	78.16
242.472	43.35
242.689	53.59
242.907	80.21
243.124	18.77
243.341	49.49
243.558	-26.28
243.775	18.77
243.992	6.49
244.209	8.53
244.426	127.32
244.643	100.69
244.86	37.2
245.078	22.87
245.295	51.54
245.512	37.2
245.729	24.92
245.946	74.07
246.163	22.87
246.38	82.26
246.597	47.44
246.814	67.92
247.031	164.18
247.248	115.03
247.464	39.25
247.681	76.12
247.898	96.6
248.115	90.45
248.332	-7.85
248.549	76.12
248.766	178.51
248.983	65.88
249.2	31.06
249.417	80.21
249.633	0.34
249.85	16.73
250.067	100.69
250.284	41.3
250.501	67.92
250.717	65.88
250.934	8.53
251.151	65.88
251.368	76.12
251.585	76.12
251.801	67.92
252.018	20.82
252.235	47.44
252.451	16.73
252.668	41.3
252.885	61.78
253.102	65.88
253.318	78.16
253.535	12.63
253.752	14.68
253.968	51.54
254.185	35.16
254.401	43.35
254.618	78.16
254.835	47.44
255.051	86.36
255.268	96.6
255.484	35.16
255.701	10.58
255.917	82.26
256.134	0.34
256.351	49.49
256.567	-34.47
256.784	24.92
257	65.88
257.217	106.84
257.433	82.26
257.65	22.87
257.866	-3.75
258.082	-5.8
258.299	69.97
258.515	65.88
258.732	39.25
258.948	-32.43
259.165	80.21
259.381	43.35
259.597	49.49
259.814	110.93
260.03	12.63
260.246	84.31
260.463	100.69
260.679	61.78
260.895	63.83
261.112	18.77
261.328	65.88
261.544	-50.86
261.761	94.55
261.977	-46.76
262.193	-120.49
262.409	57.68
262.626	67.92
262.842	-57
263.058	61.78
263.274	72.02
263.49	49.49
263.707	96.6
263.923	-11.95
264.139	35.16
264.355	6.49
264.571	72.02
264.787	86.36
265.004	57.68
265.22	80.21
265.436	53.59
265.652	41.3
265.868	88.4
266.084	39.25
266.3	-18.09
266.516	35.16
266.732	72.02
266.948	63.83
267.164	-9.9
267.38	106.84
267.596	180.56
267.812	2.39
268.028	76.12
268.244	98.64
268.46	26.96
268.676	24.92
268.892	117.08
269.108	-3.75
269.324	39.25
269.54	-54.95
269.756	67.92
269.972	76.12
270.188	47.44
270.403	72.02
270.619	72.02
270.835	102.74
271.051	61.78
271.267	51.54
271.483	55.64
271.698	59.73
271.914	49.49
272.13	76.12
272.346	35.16
272.562	-3.75
272.777	90.45
272.993	22.87
273.209	72.02
273.425	88.4
273.64	47.44
273.856	133.46
274.072	45.4
274.287	100.69
274.503	53.59
274.719	10.58
274.934	69.97
275.15	35.16
275.366	14.68
275.581	-20.14
275.797	4.44
276.012	51.54
276.228	69.97
276.444	4.44
276.659	67.92
276.875	53.59
277.09	26.96
277.306	80.21
277.521	106.84
277.737	12.63
277.952	26.96
278.168	49.49
278.383	80.21
278.599	6.49
278.814	45.4
279.03	-13.99
279.245	155.99
279.461	-44.71
279.676	139.6
279.892	39.25
280.107	-24.23
280.322	53.59
280.538	16.73
280.753	63.83
280.969	-5.8
281.184	63.83
281.399	67.92
281.615	72.02
281.83	69.97
282.045	-16.04
282.26	14.68
282.476	12.63
282.691	80.21
282.906	49.49
283.122	33.11
283.337	57.68
283.552	65.88
283.767	10.58
283.983	57.68
284.198	55.64
284.413	104.79
284.628	26.96
284.843	-22.19
285.058	51.54
285.274	51.54
285.489	47.44
285.704	37.2
285.919	16.73
286.134	-40.62
286.349	74.07
286.564	80.21
286.779	67.92
286.995	6.49
287.21	-7.85
287.425	108.88
287.64	33.11
287.855	84.31
288.07	-16.04
288.285	125.27
288.5	88.4
288.715	41.3
288.93	72.02
289.145	55.64
289.36	49.49
289.575	31.06
289.79	41.3
290.004	-7.85
290.219	86.36
290.434	22.87
290.649	41.3
290.864	-16.04
291.079	51.54
291.294	22.87
291.509	18.77
291.724	84.31
291.938	45.4
292.153	94.55
292.368	35.16
292.583	18.77
292.798	29.01
293.012	16.73
293.227	55.64
293.442	43.35
293.657	63.83
293.871	72.02
294.086	102.74
294.301	143.7
294.516	84.31
294.73	29.01
294.945	51.54
295.16	2.39
295.374	22.87
295.589	59.73
295.804	-46.76
296.018	-26.28
296.233	129.36
296.447	20.82
296.662	33.11
296.877	59.73
297.091	80.21
297.306	26.96
297.52	63.83
297.735	45.4
297.949	51.54
298.164	80.21
298.378	43.35
298.593	20.82
298.807	65.88
299.022	141.65
299.236	18.77
299.451	45.4
299.665	18.77
299.88	6.49
300.094	74.07
300.309	55.64
300.523	10.58
300.737	12.63
300.952	-9.9
301.166	125.27
301.381	0.34
301.595	65.88
301.809	51.54
302.024	29.01
302.238	51.54
302.452	72.02
302.667	6.49
302.881	59.73
303.095	16.73
303.309	96.6
303.524	119.12
303.738	61.78
303.952	-20.14
304.166	67.92
304.381	-18.09
304.595	59.73
304.809	8.53
305.023	39.25
305.237	57.68
305.452	39.25
305.666	55.64
305.88	98.64
306.094	74.07
306.308	67.92
306.522	72.02
306.736	41.3
306.95	45.4
307.164	2.39
307.379	55.64
307.593	84.31
307.807	88.4
308.021	53.59
308.235	47.44
308.449	57.68
308.663	55.64
308.877	65.88
309.091	69.97
309.305	61.78
309.519	35.16
309.733	31.06
309.947	-50.86
310.161	63.83
310.374	80.21
310.588	78.16
310.802	-11.95
311.016	55.64
311.23	61.78
311.444	45.4
311.658	31.06
311.872	74.07
312.085	74.07
312.299	78.16
312.513	69.97
312.727	100.69
312.941	-5.8
313.154	35.16
313.368	102.74
313.582	72.02
313.796	59.73
314.009	26.96
314.223	22.87
314.437	14.68
314.651	94.55
314.864	59.73
315.078	-9.9
315.292	24.92
315.505	-32.43
315.719	-7.85
315.933	137.56
316.146	59.73
316.36	37.2
316.573	41.3
316.787	53.59
317.001	59.73
317.214	59.73
317.428	57.68
317.641	2.39
317.855	55.64
318.068	45.4
318.282	24.92
318.495	55.64
318.709	84.31
318.922	61.78
319.136	31.06
319.349	12.63
319.563	96.6
319.776	65.88
319.99	57.68
320.203	31.06
320.417	74.07
320.63	65.88
320.843	94.55
321.057	72.02
321.27	-20.14
321.483	96.6
321.697	88.4
321.91	55.64
322.124	43.35
322.337	112.98
322.55	-5.8
322.763	84.31
322.977	51.54
323.19	12.63
323.403	18.77
323.617	127.32
323.83	80.21
324.043	33.11
324.256	37.2
324.469	-9.9
324.683	90.45
324.896	84.31
325.109	35.16
325.322	-3.75
325.535	35.16
325.748	110.93
325.962	6.49
326.175	112.98
326.388	84.31
326.601	53.59
326.814	63.83
327.027	61.78
327.24	137.56
327.453	2.39
327.666	88.4
327.879	-3.75
328.092	100.69
328.305	90.45
328.518	41.3
328.731	18.77
328.944	94.55
329.157	29.01
329.37	100.69
329.583	78.16
329.796	86.36
330.009	-5.8
330.222	12.63
330.435	69.97
330.648	26.96
330.861	84.31
331.073	14.68
331.286	96.6
331.499	26.96
331.712	-9.9
331.925	127.32
332.138	47.44
332.35	94.55
332.563	39.25
332.776	33.11
332.989	41.3
333.202	51.54
333.414	37.2
333.627	117.08
333.84	47.44
334.053	80.21
334.265	12.63
334.478	78.16
334.691	47.44
334.903	-54.95
335.116	8.53
335.329	55.64
335.541	147.8
335.754	2.39
335.966	63.83
336.179	26.96
336.392	65.88
336.604	84.31
336.817	55.64
337.029	51.54
337.242	63.83
337.454	78.16
337.667	129.36
337.88	96.6
338.092	94.55
338.305	139.6
338.517	78.16
338.729	-3.75
338.942	104.79
339.154	112.98
339.367	31.06
339.579	94.55
339.792	84.31
340.004	129.36
340.217	59.73
340.429	24.92
340.641	-26.28
340.854	37.2
341.066	35.16
341.278	45.4
341.491	74.07
341.703	65.88
341.915	88.4
342.128	135.51
342.34	55.64
342.552	-40.62
342.764	86.36
342.977	84.31
343.189	53.59
343.401	88.4
343.613	-1.71
343.826	29.01
344.038	72.02
344.25	84.31
344.462	45.4
344.674	76.12
344.886	69.97
345.099	39.25
345.311	49.49
345.523	65.88
345.735	6.49
345.947	92.5
346.159	39.25
346.371	31.06
346.583	51.54
346.795	141.65
347.007	35.16
347.219	106.84
347.431	45.4
347.643	100.69
347.855	26.96
348.067	76.12
348.279	59.73
348.491	78.16
348.703	51.54
348.915	57.68
349.127	6.49
349.339	76.12
349.551	78.16
349.763	65.88
349.975	82.26
350.187	2.39
350.399	76.12
350.61	84.31
350.822	106.84
351.034	72.02
351.246	63.83
351.458	158.03
351.669	117.08
351.881	74.07
352.093	115.03
352.305	51.54
352.517	80.21
352.728	63.83
352.94	43.35
353.152	43.35
353.363	61.78
353.575	65.88
353.787	45.4
353.999	100.69
354.21	69.97
354.422	65.88
354.633	135.51
354.845	96.6
355.057	51.54
355.268	82.26
355.48	22.87
355.692	35.16
355.903	78.16
356.115	8.53
356.326	39.25
356.538	96.6
356.749	59.73
356.961	57.68
357.172	45.4
357.384	59.73
357.595	94.55
357.807	80.21
358.018	67.92
358.23	72.02
358.441	69.97
358.653	125.27
358.864	35.16
359.075	33.11
359.287	86.36
359.498	76.12
359.709	47.44
359.921	24.92
360.132	76.12
360.344	63.83
360.555	78.16
360.766	63.83
360.977	110.93
361.189	133.46
361.4	35.16
361.611	39.25
361.823	49.49
362.034	104.79
362.245	18.77
362.456	100.69
362.667	63.83
362.879	72.02
363.09	80.21
363.301	53.59
363.512	33.11
363.723	53.59
363.935	47.44
364.146	125.27
364.357	43.35
364.568	26.96
364.779	100.69
364.99	74.07
365.201	-1.71
365.412	24.92
365.623	18.77
365.834	88.4
366.045	53.59
366.256	82.26
366.467	94.55
366.678	123.22
366.889	39.25
367.1	-1.71
367.311	125.27
367.522	14.68
367.733	125.27
367.944	151.89
368.155	121.17
368.366	164.18
368.577	88.4
368.788	96.6
368.999	53.59
369.209	74.07
369.42	78.16
369.631	80.21
369.842	8.53
370.053	65.88
370.264	129.36
370.474	18.77
370.685	102.74
370.896	121.17
371.107	53.59
371.317	65.88
371.528	72.02
371.739	115.03
371.95	141.65
372.16	133.46
372.371	69.97
372.582	-9.9
372.792	20.82
373.003	78.16
373.214	151.89
373.424	67.92
373.635	29.01
373.846	137.56
374.056	39.25
374.267	-1.71
374.477	63.83
374.688	-1.71
374.898	53.59
375.109	57.68
375.319	31.06
375.53	123.22
375.74	100.69
375.951	135.51
376.161	55.64
376.372	63.83
376.582	35.16
376.793	143.7
377.003	108.88
377.214	12.63
377.424	-22.19
377.635	67.92
377.845	12.63
378.055	84.31
378.266	41.3
378.476	78.16
378.686	51.54
378.897	76.12
379.107	76.12
379.317	45.4
379.528	14.68
379.738	123.22
379.948	14.68
380.158	10.58
380.369	90.45
380.579	139.6
380.789	78.16
380.999	90.45
381.21	121.17
381.42	131.41
381.63	61.78
381.84	135.51
382.05	112.98
382.261	166.23
382.471	108.88
382.681	88.4
382.891	65.88
383.101	92.5
383.311	76.12
383.521	61.78
383.731	106.84
383.941	37.2
384.151	72.02
384.361	63.83
384.571	63.83
384.781	61.78
384.991	61.78
385.201	84.31
385.411	92.5
385.621	39.25
385.831	26.96
386.041	100.69
386.251	110.93
386.461	162.13
386.671	47.44
386.881	110.93
387.091	55.64
387.301	80.21
387.511	121.17
387.72	84.31
387.93	80.21
388.14	31.06
388.35	45.4
388.56	143.7
388.769	39.25
388.979	57.68
389.189	63.83
389.399	39.25
389.609	45.4
389.818	145.75
390.028	57.68
390.238	18.77
390.447	33.11
390.657	98.64
390.867	22.87
391.076	96.6
391.286	69.97
391.496	45.4
391.705	76.12
391.915	108.88
392.125	115.03
392.334	104.79
392.544	49.49
392.753	119.12
392.963	-30.38
393.172	90.45
393.382	92.5
393.591	100.69
393.801	80.21
394.01	110.93
394.22	59.73
394.429	133.46
394.639	102.74
394.848	49.49
395.058	76.12
395.267	98.64
395.477	108.88
395.686	80.21
395.895	162.13
396.105	170.32
396.314	43.35
396.524	133.46
396.733	76.12
396.942	98.64
397.152	201.04
397.361	135.51
397.57	117.08
397.78	49.49
397.989	78.16
398.198	194.9
398.407	102.74
398.617	127.32
398.826	119.12
399.035	147.8
399.244	57.68
399.453	145.75
399.663	158.03
399.872	115.03
400.081	131.41
400.29	242
400.499	112.98
400.708	108.88
400.917	104.79
401.127	149.84
401.336	125.27
401.545	121.17
401.754	137.56
401.963	160.08
402.172	72.02
402.381	174.42
402.59	149.84
402.799	102.74
403.008	186.71
403.217	106.84
403.426	194.9
403.635	78.16
403.844	162.13
404.053	192.85
404.262	162.13
404.471	190.8
404.68	194.9
404.888	178.51
405.097	211.28
405.306	203.09
405.515	223.57
405.724	180.56
405.933	108.88
406.142	293.2
406.35	227.67
406.559	201.04
406.768	194.9
406.977	289.1
407.185	198.99
407.394	137.56
407.603	205.14
407.812	215.38
408.02	276.82
408.229	252.24
408.438	301.39
408.646	268.63
408.855	264.53
409.064	287.06
409.272	332.11
409.481	299.34
409.69	276.82
409.898	289.1
410.107	285.01
410.315	352.59
410.524	387.41
410.733	342.35
410.941	387.41
411.15	489.81
411.358	465.23
411.567	407.89
411.775	493.9
411.984	434.51
412.192	491.85
412.401	526.67
412.609	596.3
412.818	563.53
413.026	573.77
413.234	477.52
413.443	522.57
413.651	604.49
413.86	694.6
414.068	647.5
414.276	684.36
414.485	639.31
414.693	649.55
414.901	702.79
415.11	825.67
415.318	674.12
415.526	792.91
415.734	874.82
415.943	883.02
416.151	926.02
416.359	928.07
416.567	915.78
416.776	842.06
416.984	1057.09
417.192	1079.62
417.4	1071.43
417.608	1159.49
417.817	1057.09
418.025	1194.31
418.233	1196.36
418.441	1194.31
418.649	1261.89
418.857	1362.24
419.065	1368.38
419.273	1286.47
419.481	1509.69
419.689	1587.52
419.897	1544.51
420.105	1587.52
420.313	1657.15
420.521	1669.44
420.729	1714.49
420.937	1923.38
421.145	1929.53
421.353	2025.78
421.561	2203.96
421.769	1990.97
421.977	2193.72
422.185	2177.33
422.393	2380.08
422.601	2480.43
422.809	2314.55
423.017	2412.85
423.224	2517.29
423.432	2623.79
423.64	2748.72
423.848	2875.69
424.056	2898.22
424.263	3084.58
424.471	3055.91
424.679	3035.43
424.887	3152.17
425.094	3363.11
425.302	3426.59
425.51	3508.51
425.718	3547.42
425.925	3658.01
426.133	3762.46
426.341	4055.32
426.548	4192.53
426.756	4184.34
426.964	4235.54
427.171	4438.29
427.379	4647.18
427.586	4630.8
427.794	4741.39
428.001	4864.27
428.209	5067.02
428.417	5153.03
428.624	5583.1
428.832	5433.6
429.039	5384.45
429.247	5478.66
429.454	6033.66
429.662	6404.34
429.869	5996.79
430.076	6494.45
430.284	6250.74
430.491	6430.96
430.699	6768.88
430.906	6861.04
431.114	7053.55
431.321	7207.14
431.528	7317.73
431.736	7766.24
431.943	8163.54
432.15	7866.59
432.358	7952.6
432.565	8345.81
432.772	8364.25
432.979	8859.85
433.187	8855.76
433.394	9078.99
433.601	9590.98
433.808	9720
434.016	9642.18
434.223	10066.11
434.43	10815.66
434.637	10414.26
434.844	10944.69
435.052	11264.17
435.259	11182.25
435.466	11124.91
435.673	11086
435.88	11806.88
436.087	12400.79
436.294	12531.86
436.501	12046.49
436.708	12566.68
436.915	12759.19
437.122	13605
437.329	13416.58
437.537	14037.12
437.743	14112.89
437.95	14131.33
438.157	14796.92
438.364	14991.47
438.571	15343.72
438.778	15231.08
438.985	16496.73
439.192	15976.55
439.399	16474.2
439.606	16080.99
439.813	17025.11
440.02	18020.42
440.227	17672.26
440.433	17344.59
440.64	18186.3
440.847	18028.61
441.054	18237.5
441.261	19753
441.467	19302.45
441.674	19451.95
441.881	20504.6
442.088	20224.03
442.294	20262.94
442.501	20869.14
442.708	21254.16
442.914	21993.48
443.121	22939.64
443.328	22292.48
443.534	23740.4
443.741	22919.16
443.948	22718.46
444.154	24668.12
444.361	24264.68
444.568	24664.03
444.774	24657.89
444.981	24764.38
445.187	25571.28
445.394	26494.91
445.6	26036.17
445.807	28782.49
446.013	27459.51
446.22	28217.25
446.426	28952.48
446.633	29398.93
446.839	30123.91
447.046	28946.33
447.252	30748.54
447.459	30687.11
447.665	30416.77
447.871	32061.29
448.078	33062.75
448.284	31563.64
448.491	32345.96
448.697	33752.91
448.903	33959.76
449.11	34383.69
449.316	33617.75
449.522	34295.63
449.728	35182.4
449.935	35467.06
450.141	35264.32
450.347	36183.85
450.553	35051.33
450.76	35188.54
450.966	36083.5
451.172	35888.95
451.378	36863.78
451.584	36216.62
451.791	36990.75
451.997	36671.27
452.203	37603.1
452.409	37437.21
452.615	37426.97
452.821	35831.6
453.027	35436.34
453.233	37183.26
453.44	35739.44
453.646	36323.12
453.852	36673.32
454.058	37037.86
454.264	35405.63
454.47	36695.85
454.676	35276.6
454.882	36874.02
455.088	33582.93
455.294	33748.82
455.5	34510.66
455.705	34887.49
455.911	33107.8
456.117	32481.13
456.323	32333.67
456.529	30355.33
456.735	31690.61
456.941	31184.76
457.147	30594.95
457.352	29427.6
457.558	29284.25
457.764	29263.77
457.97	28614.56
458.176	28020.65
458.381	28026.79
458.587	26836.92
458.793	26820.54
458.999	25569.23
459.204	27389.88
459.41	26214.34
459.616	24584.16
459.821	24750.04
460.027	24713.18
460.233	24000.49
460.438	22960.12
460.644	23093.24
460.85	22009.86
461.055	21755.91
461.261	21870.6
461.466	19957.8
461.672	19634.22
461.878	20901.91
462.083	19605.55
462.289	19234.86
462.494	18972.72
462.7	18333.76
462.905	17616.97
463.111	18327.61
463.316	18288.7
463.522	18217.02
463.727	17965.12
463.932	17926.21
464.138	17930.31
464.343	17801.29
464.549	17426.51
464.754	17813.57
464.959	17731.65
465.165	17623.11
465.37	16943.19
465.575	16461.91
465.781	17104.98
465.986	17045.59
466.191	16484.44
466.397	16218.21
466.602	15390.83
466.807	16169.05
467.012	16054.37
467.218	15994.98
467.423	15835.24
467.628	16117.86
467.833	16752.73
468.038	15906.91
468.244	15566.95
468.449	16216.16
468.654	15634.53
468.859	15450.22
469.064	15370.35
469.269	14686.33
469.474	14919.79
469.679	15210.61
469.885	14665.85
470.09	14768.24
470.295	14907.51
470.5	14534.78
470.705	14702.71
470.91	13881.47
471.115	14033.02
471.32	14389.37
471.525	14082.17
471.73	13691.01
471.935	13537.41
472.139	13365.39
472.344	13277.32
472.549	13314.19
472.754	13121.68
472.959	13068.43
473.164	12677.27
473.369	12525.72
473.574	12998.8
473.778	12765.33
473.983	12933.26
474.188	12601.49
474.393	11970.72
474.598	12183.71
474.802	12259.48
475.007	12109.98
475.212	12187.8
475.417	11387.05
475.621	11720.87
475.826	11583.65
476.031	11350.18
476.235	11147.44
476.44	11143.34
476.645	11219.11
476.849	11149.48
477.054	10967.21
477.259	10901.68
477.463	10782.9
477.668	10668.21
477.872	10852.53
478.077	10508.47
478.282	10328.25
478.486	10086.59
478.691	10166.46
478.895	10057.92
479.1	9982.14
479.304	10068.16
479.509	9715.91
479.713	10021.05
479.918	9801.92
480.122	9590.98
480.326	9640.13
480.531	9724.1
480.735	9474.24
480.94	9552.07
481.144	9789.63
481.348	9502.92
481.553	9476.29
481.757	9173.19
481.961	9279.69
482.166	9550.02
482.37	9443.53
482.574	9402.57
482.778	9507.01
482.983	9607.36
483.187	9402.57
483.391	9543.88
483.595	9400.52
483.8	9369.8
484.004	9676.99
484.208	9636.03
484.412	9224.39
484.616	9500.87
484.821	9461.96
485.025	9275.59
485.229	9205.96
485.433	9220.3
485.637	9361.61
485.841	9324.74
486.045	9208.01
486.249	9408.71
486.453	9326.79
486.657	9570.5
486.861	9402.57
487.065	9220.3
487.269	9509.06
487.473	9326.79
487.677	9455.81
487.881	9517.25
488.085	9373.89
488.289	9435.33
488.493	9285.83
488.697	9558.21
488.901	9287.88
489.105	9302.22
489.309	9400.52
489.512	9625.79
489.716	9705.67
489.92	9390.28
490.124	9377.99
490.328	9625.79
490.531	9406.66
490.735	9408.71
490.939	9550.02
491.143	9550.02
491.346	9679.04
491.55	9883.84
491.754	9773.25
491.958	9947.33
492.161	9801.92
492.365	9951.42
492.569	9779.39
492.772	9779.39
492.976	9810.11
493.18	9928.89
493.383	10270.9
493.587	10006.72
493.79	10367.16
493.994	10111.16
494.197	10268.86
494.401	10315.96
494.605	10518.71
494.808	10705.07
495.012	10463.41
495.215	10807.47
495.419	10877.1
495.622	10678.45
495.825	10870.96
496.029	10813.62
496.232	11100.33
496.436	11081.9
496.639	11395.24
496.843	11442.34
497.046	11694.24
497.249	11593.89
497.453	11733.15
497.656	11688.1
497.859	12050.59
498.063	12058.78
498.266	12296.35
498.469	12472.47
498.673	12394.65
498.876	12671.12
499.079	12642.45
499.282	12564.63
499.485	13045.9
499.689	13226.12
499.892	13316.23
500.095	13027.47
500.298	13729.92
500.501	13269.13
500.705	14022.78
500.908	14162.05
501.111	13926.53
501.314	14278.78
501.517	14276.73
501.72	14409.85
501.923	14358.65
502.126	14444.66
502.329	15089.78
502.532	15059.06
502.735	15409.26
502.938	15687.78
503.141	15519.85
503.344	15939.68
503.547	15966.31
503.75	16177.25
503.953	16277.6
504.156	16543.83
504.359	16840.79
504.562	16658.52
504.765	17035.35
504.968	17236.05
505.17	17303.63
505.373	17348.68
505.576	17846.34
505.779	18044.99
505.982	18071.62
506.185	18477.12
506.387	18513.98
506.59	18659.38
506.793	19365.93
506.996	18794.55
507.198	19556.39
507.401	19742.76
507.604	20111.39
507.807	20359.2
508.009	20148.26
508.212	20246.56
508.415	20836.38
508.617	20850.71
508.82	20973.59
509.022	20975.64
509.225	21569.55
509.428	21624.84
509.63	21846.02
509.833	22116.36
510.035	22700.03
510.238	22382.59
510.44	22575.1
510.643	23203.83
510.845	23298.03
511.048	23390.19
511.25	23920.62
511.453	23576.56
511.655	24641.5
511.858	24227.81
512.06	24432.61
512.262	24633.31
512.465	24911.83
512.667	25427.92
512.87	25401.3
513.072	25812.94
513.274	26277.83
513.477	26552.26
513.679	26621.89
513.881	26777.53
514.084	27023.29
514.286	27105.21
514.488	27269.05
514.69	28229.54
514.893	28143.53
515.095	28290.98
515.297	28712.86
515.499	28901.28
515.701	29052.83
515.904	29607.83
516.106	29804.43
516.308	29974.41
516.51	30412.68
516.712	30486.4
516.914	30476.16
517.116	30963.58
517.318	31041.4
517.52	31541.11
517.722	31410.04
517.925	32200.55
518.127	32481.13
518.329	32687.97
518.531	32505.7
518.733	33447.77
518.935	33724.24
519.136	33486.68
519.338	34113.36
519.54	34180.94
519.742	34893.63
519.944	34803.52
520.146	35432.25
520.348	35348.28
520.55	35800.88
520.752	35505.98
520.954	36826.92
521.155	36364.07
521.357	37029.66
521.559	37527.32
521.761	37494.55
521.963	37525.27
522.164	37824.28
522.366	37887.76
522.568	38209.29
522.77	38743.81
522.971	39266.05
523.173	38815.49
523.375	39419.64
523.576	39104.26
523.778	39390.97
523.98	39931.64
524.181	40386.29
524.383	40462.06
524.584	40795.88
524.786	40781.54
524.988	40785.64
525.189	41168.61
525.391	41879.25
525.592	41805.53
525.794	41918.17
525.995	42292.94
526.197	42077.91
526.398	42401.49
526.6	42725.07
526.801	42671.82
527.003	42798.79
527.204	43245.25
527.406	43394.75
527.607	43591.36
527.808	44095.16
528.01	43372.22
528.211	43734.71
528.412	44420.78
528.614	44426.93
528.815	44531.37
529.016	44670.64
529.218	44506.8
529.419	45049.51
529.62	45338.27
529.822	44662.44
530.023	44805.8
530.224	45037.22
530.425	45076.13
530.626	45029.03
530.828	44818.09
531.029	46016.15
531.23	45368.99
531.431	45719.2
531.632	45465.25
531.833	46087.83
532.035	45948.57
532.236	46366.35
532.437	46237.33
532.638	46061.21
532.839	46304.91
533.04	46610.06
533.241	46104.21
533.442	46870.15
533.643	46384.79
533.844	46546.58
534.045	46491.28
534.246	46352.02
534.447	46194.32
534.648	46169.75
534.849	46911.11
535.05	46313.11
535.251	46726.8
535.451	46440.08
535.652	46839.43
535.853	46526.1
536.054	46673.55
536.255	46818.95
536.456	46603.92
536.657	47304.32
536.857	46362.26
537.058	46642.83
537.259	47400.58
537.46	47292.04
537.66	46562.96
537.861	46902.92
538.062	46980.74
538.263	46972.55
538.463	46923.4
538.664	46931.59
538.865	47089.29
539.065	47230.6
539.266	46440.08
539.466	47531.65
539.667	46577.29
539.868	47406.72
540.068	46941.83
540.269	46599.82
540.469	47414.91
540.67	46648.97
540.87	46567.05
541.071	47351.43
541.271	47066.76
541.472	47269.51
541.672	47017.61
541.873	46710.41
542.073	45842.07
542.274	47060.62
542.474	47226.5
542.675	46638.73
542.875	47177.35
543.075	46790.28
543.276	46356.11
543.476	46886.54
543.676	46567.05
543.877	46888.59
544.077	46878.35
544.277	46732.94
544.478	46827.15
544.678	46634.64
544.878	46538.38
545.078	46747.28
545.279	46399.12
545.479	46362.26
545.679	46818.95
545.879	46685.84
546.079	46399.12
546.28	46294.67
546.48	46145.17
546.68	46575.25
546.88	46352.02
547.08	46778
547.28	46546.58
547.48	46149.27
547.68	46493.33
547.88	46061.21
548.081	46544.53
548.281	45950.62
548.481	46376.59
548.681	46896.78
548.881	46438.03
549.081	46358.16
549.28	45911.7
549.48	46456.46
549.68	46200.47
549.88	46767.76
550.08	46030.49
550.28	46210.71
550.48	45964.95
550.68	46683.79
550.88	46261.91
551.08	46425.74
551.279	46214.8
551.479	46005.91
551.679	46218.9
551.879	46112.41
552.079	46358.16
552.278	46038.68
552.478	46235.28
552.678	46110.36
552.878	46247.57
553.077	46141.08
553.277	45897.37
553.477	46472.85
553.676	45606.56
553.876	45991.58
554.076	45901.46
554.275	45446.82
554.475	45680.28
554.674	45923.99
554.874	45823.64
555.074	45715.1
555.273	45807.26
555.473	45948.57
555.672	45610.65
555.872	45631.13
556.071	45969.05
556.271	45874.84
556.47	45141.67
556.67	45047.46
556.869	44922.54
557.068	45495.97
557.268	44930.73
557.467	45117.09
557.667	45186.72
557.866	45113
558.065	45448.86
558.265	44922.54
558.464	44498.61
558.663	45303.46
558.863	44046.01
559.062	45016.74
559.261	44238.51
559.461	44889.77
559.66	44336.82
559.859	44441.26
560.058	43861.69
560.258	44461.74
560.457	44105.4
560.656	44420.78
560.855	44236.47
561.054	43947.7
561.253	43421.37
561.453	43830.97
561.652	44072.63
561.851	44039.86
562.05	43505.34
562.249	43376.32
562.448	43847.35
562.647	43474.62
562.846	43513.53
563.045	43097.8
563.244	42778.31
563.443	43445.95
563.642	42626.76
563.841	42860.23
564.04	42950.34
564.239	43015.88
564.438	42530.51
564.637	42630.86
564.836	42876.62
565.035	42143.44
565.234	42270.42
565.432	41787.1
565.631	42143.44
565.83	42344.14
566.029	41684.7
566.228	41502.43
566.427	41727.7
566.625	41451.23
566.824	41453.28
567.023	41623.26
567.222	40568.55
567.42	41416.41
567.619	41023.2
567.818	40910.57
568.016	40521.45
568.215	41082.59
568.414	40554.22
568.612	41088.74
568.811	40451.82
569.01	40681.19
569.208	40218.35
569.407	40255.22
569.605	39724.79
569.804	40224.5
570.002	39661.3
570.201	40390.38
570.4	39362.3
570.598	39214.85
570.797	39329.53
570.995	39517.95
571.193	38866.69
571.392	39319.29
571.59	38938.37
571.789	38952.71
571.987	38924.04
572.186	38747.91
572.384	38410
572.582	38426.38
572.781	38477.58
572.979	37893.91
573.177	38106.9
573.376	38340.36
573.574	38045.46
573.772	38110.99
573.971	37748.5
574.169	37576.47
574.367	37418.78
574.565	37472.03
574.763	37332.76
574.962	37654.29
575.16	36874.02
575.358	36880.16
575.556	36962.08
575.754	37361.44
575.952	36462.38
576.151	37003.04
576.349	36044.59
576.547	36400.94
576.745	36445.99
576.943	36347.69
577.141	36054.83
577.339	36331.31
577.537	35958.58
577.735	36017.97
577.933	35727.16
578.131	35473.21
578.329	35616.57
578.527	35063.61
578.725	35620.66
578.923	35721.01
579.121	35065.66
579.319	35172.16
579.516	35315.51
579.714	35118.91
579.912	35114.81
580.11	34594.63
580.308	34940.74
580.506	34346.83
580.704	34146.12
580.901	34680.64
581.099	34500.42
581.297	34021.2
581.495	34226
581.692	33933.14
581.89	33849.17
582.088	33961.81
582.285	33353.56
582.483	33855.31
582.681	33785.68
582.878	33896.27
583.076	32989.02
583.274	33685.33
583.471	32997.21
583.669	33269.59
583.866	32778.08
584.064	32999.26
584.262	32241.51
584.459	32851.81
584.657	32868.19
584.854	32190.31
585.052	32014.19
585.249	32718.69
585.447	32399.21
585.644	31971.18
585.841	31958.89
586.039	32274.28
586.236	31563.64
586.434	32071.53
586.631	31770.48
586.828	31670.13
587.026	31690.61
587.223	31553.4
587.42	30889.85
587.618	31524.72
587.815	30881.66
588.012	31031.16
588.21	31252.34
588.407	31244.15
588.604	30791.55
588.801	30695.3
588.999	30656.39
589.196	30605.19
589.393	30588.8
589.59	30431.11
589.787	30250.89
589.984	30158.73
590.182	29992.84
590.379	30046.09
590.576	29636.5
590.773	29826.96
590.97	29439.89
591.167	29786
591.364	29222.81
591.561	29587.35
591.758	29198.23
591.955	29132.7
592.152	29683.6
592.349	28845.98
592.546	29063.07
592.743	29032.35
592.94	28559.27
593.137	28686.24
593.334	28848.03
593.531	28260.26
593.727	28319.65
593.924	28540.83
594.121	28194.73
594.318	28456.87
594.515	28063.66
594.712	27989.93
594.908	28024.75
595.105	27946.92
595.302	27559.86
595.499	27774.89
595.696	27744.17
595.892	27248.57
596.089	27707.31
596.286	27492.27
596.482	27250.61
596.679	27203.51
596.876	27006.91
597.072	27291.57
597.269	27070.39
597.466	26558.4
597.662	26646.46
597.859	26773.44
598.055	26499.01
598.252	26558.4
598.448	26636.22
598.645	26408.9
598.841	26226.63
599.038	26427.33
599.234	26185.67
599.431	26034.12
599.627	26054.6
599.824	26187.72
600.02	25868.23
600.217	26075.08
600.413	25870.28
600.609	25790.41
600.806	25597.9
601.002	25728.97
601.198	25583.57
601.395	25554.9
601.591	25079.77
601.787	25251.8
601.984	25296.85
602.18	25231.32
602.376	25053.14
602.572	24842.2
602.769	24895.45
602.965	24463.33
603.161	24799.19
603.357	24532.96
603.553	24416.22
603.75	24711.13
603.946	24369.12
604.142	24678.36
604.338	23818.22
604.534	24109.03
604.73	24154.08
604.926	24008.68
605.122	24463.33
605.318	23697.39
605.514	23535.6
605.71	23474.16
605.906	23724.01
606.102	23947.24
606.298	23365.62
606.494	23521.26
606.69	23478.26
606.886	23359.47
607.082	23203.83
607.278	23465.97
607.474	23039.99
607.67	23295.99
607.866	22607.87
608.062	23402.48
608.257	22702.07
608.453	22947.83
608.649	22910.97
608.845	22515.71
609.041	22370.3
609.236	22806.52
609.432	22413.31
609.628	22568.96
609.824	22749.18
610.019	22325.25
610.215	22104.07
610.411	22575.1
610.606	22415.36
610.802	22392.83
610.998	22102.02
611.193	21950.47
611.389	22212.61
611.584	21706.76
611.78	21782.54
611.976	22099.97
612.171	22067.2
612.367	21673.99
612.562	21940.23
612.758	21514.25
612.953	21413.9
613.149	21923.85
613.344	21252.11
613.539	21684.23
613.735	21342.22
613.93	21532.68
614.126	21368.85
614.321	21829.64
614.517	21366.8
614.712	21469.2
614.907	21133.33
615.103	21524.49
615.298	20932.63
615.493	21139.47
615.688	21055.51
615.884	21630.99
616.079	20809.75
616.274	21102.61
616.47	20973.59
616.665	20908.05
616.86	20762.65
617.055	20893.72
617.25	20715.55
617.445	20520.99
617.641	20324.38
617.836	20645.91
618.031	20471.84
618.226	20406.3
618.421	19982.37
618.616	20418.59
618.811	19951.65
619.006	20428.83
619.201	19851.3
619.396	19988.52
619.591	19892.26
619.786	20027.43
619.981	19310.64
620.176	19687.46
620.371	19488.81
620.566	19486.76
620.761	19286.06
620.956	19535.92
621.151	19144.75
621.346	19218.48
621.541	19171.38
621.735	19257.39
621.93	18798.65
622.125	19089.46
622.32	18300.99
622.515	18530.36
622.709	18565.18
622.904	18561.08
623.099	18487.36
623.294	18243.65
623.488	18278.46
623.683	17938.5
623.878	17645.64
624.072	18032.71
624.267	17764.42
624.462	17662.02
624.656	17514.57
624.851	17535.05
625.046	17449.04
625.24	17561.67
625.435	17307.73
625.629	16994.39
625.824	17293.39
626.018	17281.1
626.213	16582.74
626.407	16871.51
626.602	16902.23
626.796	16793.69
626.991	16846.93
627.185	16468.06
627.38	16261.21
627.574	16060.51
627.768	16146.53
627.963	16412.76
628.157	15818.85
628.352	16224.35
628.546	15792.23
628.74	15734.89
628.935	15736.93
629.129	16019.55
629.323	15419.5
629.517	15550.57
629.712	15429.74
629.906	15263.85
630.1	15276.14
630.294	15011.95
630.489	14874.74
630.683	15147.12
630.877	14973.04
631.071	14823.54
631.265	14696.57
631.459	14813.3
631.653	14327.93
631.848	14645.37
632.042	14381.18
632.236	14401.66
632.43	14338.17
632.624	14432.38
632.818	14139.52
633.012	14149.76
633.206	14145.66
633.4	14067.84
633.594	14121.09
633.788	13940.86
633.982	13635.72
634.176	13869.19
634.369	13488.26
634.563	13496.46
634.757	13420.68
634.951	13461.64
635.145	13344.91
635.339	13359.24
635.533	13234.32
635.726	13387.91
635.92	13076.62
636.114	12734.61
636.308	13054.09
636.501	12898.45
636.695	12906.64
636.889	12734.61
637.083	12814.48
637.276	12392.6
637.47	12658.84
637.664	12531.86
637.857	12544.15
638.051	12353.69
638.244	12183.71
638.438	12335.26
638.632	12265.63
638.825	12259.48
639.019	11804.83
639.212	12044.45
639.406	11896.99
639.599	11647.14
639.793	11972.77
639.986	11532.45
640.18	11630.76
640.373	11530.41
640.567	11370.66
640.76	11378.86
640.954	11219.11
641.147	11382.95
641.34	11202.73
641.534	11352.23
641.727	11192.49
641.92	11178.15
642.114	11090.09
642.307	11278.51
642.5	10754.23
642.694	10543.28
642.887	10727.6
643.08	10879.15
643.273	10784.94
643.467	10582.2
643.66	10465.46
643.853	10322.1
644.046	10115.26
644.239	10356.92
644.432	10268.86
644.626	10096.83
644.819	10076.35
645.012	10107.07
645.205	10135.74
645.398	10074.3
645.591	9857.21
645.784	10102.97
645.977	9738.43
646.17	9705.67
646.363	9670.85
646.556	9590.98
646.749	9701.57
646.942	9920.7
647.135	9541.83
647.328	9529.54
647.521	9461.96
647.714	9445.57
647.907	9320.65
648.099	9294.02
648.292	9283.78
648.485	9281.74
648.678	9040.08
648.871	9236.68
649.064	9119.95
649.256	9097.42
649.449	8921.29
649.642	8843.47
649.835	8878.29
650.027	8671.44
650.22	8720.59
650.413	8751.31
650.605	8798.42
650.798	8734.93
650.991	8378.58
651.183	8743.12
651.376	8417.49
651.568	8495.32
651.761	8425.68
651.954	8380.63
652.146	8390.87
652.339	8452.31
652.531	8399.06
652.724	8298.71
652.916	8001.76
653.109	8138.97
653.301	8198.36
653.494	8057.05
653.686	8034.52
653.879	8149.21
654.071	7694.56
654.263	8095.96
654.456	7946.46
654.648	7758.05
654.84	7532.77
655.033	7774.43
655.225	7712.99
655.417	7555.3
655.61	7712.99
655.802	7588.07
655.994	7500
656.186	7411.94
656.379	7577.83
656.571	7305.45
656.763	7411.94
656.955	7319.78
657.148	7426.28
657.34	7401.7
657.532	7270.63
657.724	7244.01
657.916	7332.07
658.108	7438.56
658.3	6979.82
658.492	7135.46
658.684	7033.07
658.876	6904.04
659.068	6912.24
659.26	6881.52
659.452	6887.66
659.644	7016.68
659.836	6807.79
660.028	6916.33
660.22	6748.4
660.412	6734.06
660.604	6637.81
660.796	6584.56
660.988	6562.03
661.18	6648.05
661.372	6459.63
661.563	6641.9
661.755	6408.44
661.947	6482.16
662.139	6461.68
662.331	6263.03
662.522	6248.69
662.714	6238.45
662.906	6428.92
663.097	6136.06
663.289	6052.09
663.481	6166.78
663.673	6129.91
663.864	6185.21
664.056	6117.62
664.247	6238.45
664.439	5937.4
664.631	6138.1
664.822	6009.08
665.014	5994.75
665.205	5935.35
665.397	5867.77
665.588	5968.12
665.78	5892.35
665.971	5814.52
666.163	5726.46
666.354	5992.7
666.546	5591.3
666.737	5730.56
666.929	5785.85
667.12	5693.69
667.311	5646.59
667.503	5691.65
667.694	5648.64
667.885	5488.9
668.077	5576.96
668.268	5441.79
668.459	5611.78
668.651	5411.07
668.842	5689.6
669.033	5447.94
669.224	5411.07
669.416	5466.37
669.607	5437.7
669.798	5449.99
669.989	5456.13
670.18	5282.05
670.371	5183.75
670.563	5329.16
670.754	5368.07
670.945	5382.4
671.136	5353.73
671.327	5069.06
671.518	5257.48
671.709	5302.53
671.9	5251.33
672.091	5372.16
672.282	5071.11
672.473	5118.22
672.664	5245.19
672.855	5077.26
673.046	5083.4
673.237	5204.23
673.428	5181.7
673.619	4968.71
673.809	5024.01
674	4993.29
674.191	5075.21
674.382	5052.68
674.573	4911.37
674.764	5003.53
674.954	4880.65
675.145	4835.6
675.336	4950.28
675.527	5017.86
675.717	4839.69
675.908	4909.32
676.099	4970.76
676.289	4860.17
676.48	4677.9
676.671	4835.6
676.861	4882.7
677.052	4892.94
677.243	4829.45
677.433	4741.39
677.624	4792.59
677.814	4835.6
678.005	4770.06
678.195	4663.57
678.386	4684.05
678.576	4858.12
678.767	4733.2
678.957	4716.81
679.148	4892.94
679.338	4835.6
679.529	4870.41
679.719	4585.74
679.909	4753.68
680.1	4733.2
680.29	4612.37
680.481	4739.34
680.671	4542.74
680.861	4663.57
681.052	4811.02
681.242	4747.53
681.432	4765.96
681.622	4708.62
681.813	4739.34
682.003	4712.72
682.193	4552.98
682.383	4655.37
682.573	4604.18
682.764	4514.06
682.954	4686.09
683.144	4649.23
683.334	4542.74
683.524	4593.94
683.714	4657.42
683.904	4577.55
684.094	4720.91
684.284	4454.67
684.474	4600.08
684.664	4552.98
684.854	4634.89
685.044	4469.01
685.234	4630.8
685.424	4567.31
685.614	4563.22
685.804	4509.97
685.994	4481.3
686.184	4487.44
686.374	4350.23
686.564	4364.56
686.753	4378.9
686.943	4186.39
687.133	4479.25
687.323	4327.7
687.513	4362.51
687.702	4268.31
687.892	4358.42
688.082	4292.88
688.272	4217.11
688.461	4204.82
688.651	4430.1
688.841	4225.3
689.03	4276.5
689.22	4215.06
689.41	4167.96
689.599	4174.1
689.789	4083.99
689.979	4219.16
690.168	4094.23
690.358	4098.33
690.547	4217.11
690.737	4049.18
690.926	3989.78
691.116	4047.13
691.305	3969.3
691.495	4038.94
691.684	3997.98
691.874	4127
692.063	3963.16
692.252	3979.54
692.442	4043.03
692.631	3893.53
692.82	3885.34
693.01	3920.15
693.199	3782.94
693.388	3848.47
693.578	3762.46
693.767	3719.45
693.956	3901.72
694.146	3729.69
694.335	3688.73
694.524	3764.51
694.713	3866.91
694.902	3795.23
695.092	3832.09
695.281	3817.76
695.47	3770.65
695.659	3705.12
695.848	3701.02
696.037	3631.39
696.226	3703.07
696.415	3684.64
696.604	3760.41
696.793	3772.7
696.982	3694.88
697.171	3670.3
697.36	3709.21
697.549	3875.1
697.738	3551.52
697.927	3649.82
698.116	3623.2
698.305	3666.21
698.494	3645.73
698.683	3760.41
698.872	3641.63
699.061	3551.52
699.25	3658.01
699.438	3578.14
699.627	3690.78
699.816	3633.44
700.005	3590.43
700.193	3572
700.382	3641.63
700.571	3600.67
700.76	3578.14
700.948	3701.02
701.137	3578.14
701.326	3567.9
701.514	3584.29
701.703	3696.92
701.892	3543.33
702.08	3707.16
702.269	3506.46
702.457	3578.14
702.646	3643.68
702.834	3567.9
703.023	3608.86
703.212	3725.6
703.4	3561.76
703.589	3713.31
703.777	3739.93
703.965	3490.08
704.154	3502.37
704.342	3625.25
704.531	3641.63
704.719	3512.61
704.907	3735.84
705.096	3625.25
705.284	3565.85
705.472	3455.26
705.661	3520.8
705.849	3516.7
706.037	3655.97
706.226	3508.51
706.414	3518.75
706.602	3526.94
706.79	3586.33
706.979	3455.26
707.167	3543.33
707.355	3510.56
707.543	3537.18
707.731	3629.34
707.919	3569.95
708.107	3414.31
708.296	3488.03
708.484	3473.7
708.672	3524.9
708.86	3574.05
709.048	3485.98
709.236	3453.22
709.424	3563.81
709.612	3408.16
709.8	3449.12
709.988	3617.05
710.176	3481.89
710.364	3424.55
710.551	3508.51
710.739	3541.28
710.927	3496.22
711.115	3488.03
711.303	3500.32
711.491	3481.89
711.679	3539.23
711.866	3606.81
712.054	3645.73
712.242	3578.14
712.43	3469.6
712.617	3684.64
712.805	3520.8
712.993	3692.83
713.181	3496.22
713.368	3504.42
713.556	3553.57
713.744	3569.95
713.931	3553.57
714.119	3623.2
714.306	3514.66
714.494	3574.05
714.682	3561.76
714.869	3414.31
715.057	3584.29
715.244	3412.26
715.432	3569.95
715.619	3645.73
715.807	3447.07
715.994	3680.54
716.182	3492.13
716.369	3512.61
716.556	3572
716.744	3475.74
716.931	3643.68
717.119	3590.43
717.306	3506.46
717.493	3500.32
717.681	3664.16
717.868	3621.15
718.055	3367.2
718.242	3578.14
718.43	3567.9
718.617	3565.85
718.804	3520.8
718.991	3436.83
719.179	3512.61
719.366	3578.14
719.553	3541.28
719.74	3475.74
719.927	3485.98
720.114	3371.3
720.301	3543.33
720.488	3645.73
720.676	3539.23
720.863	3580.19
721.05	3627.29
721.237	3512.61
721.424	3512.61
721.611	3545.38
721.798	3518.75
721.985	3377.44
722.172	3473.7
722.358	3510.56
722.545	3580.19
722.732	3518.75
722.919	3574.05
723.106	3463.46
723.293	3477.79
723.48	3479.84
723.667	3404.07
723.853	3594.53
724.04	3449.12
724.227	3449.12
724.414	3488.03
724.6	3377.44
724.787	3426.59
724.974	3514.66
725.161	3434.78
725.347	3447.07
725.534	3608.86
725.72	3428.64
725.907	3391.78
726.094	3422.5
726.28	3385.63
726.467	3504.42
726.653	3393.83
726.84	3442.98
727.027	3512.61
727.213	3381.54
727.4	3449.12
727.586	3442.98
727.773	3293.48
727.959	3342.63
728.145	3563.81
728.332	3471.65
728.518	3295.52
728.705	3445.02
728.891	3399.97
729.077	3410.21
729.264	3361.06
729.45	3359.01
729.636	3402.02
729.823	3379.49
730.009	3545.38
730.195	3432.74
730.382	3391.78
730.568	3406.11
730.754	3318.05
730.94	3389.73
731.126	3352.87
731.313	3455.26
731.499	3303.71
731.685	3365.15
731.871	3422.5
732.057	3465.5
732.243	3514.66
732.429	3322.15
732.615	3367.2
732.801	3379.49
732.987	3485.98
733.173	3289.38
733.359	3260.71
733.545	3246.37
733.731	3203.36
733.917	3387.68
734.103	3285.28
734.289	3485.98
734.475	3340.58
734.661	3316
734.847	3266.85
735.033	3344.67
735.219	3447.07
735.404	3354.91
735.59	3266.85
735.776	3168.55
735.962	3266.85
736.148	3227.94
736.333	3246.37
736.519	3242.28
736.705	3168.55
736.89	3303.71
737.076	3307.81
737.262	3305.76
737.447	3281.19
737.633	3254.56
737.819	3295.52
738.004	3207.46
738.19	3111.21
738.375	3166.5
738.561	3201.32
738.747	3098.92
738.932	3160.36
739.118	3256.61
739.303	3117.35
739.489	3201.32
739.674	3133.73
739.859	3135.78
740.045	3051.81
740.23	3062.05
740.416	2930.98
740.601	2978.09
740.786	3088.68
740.972	3023.14
741.157	3127.59
741.342	3019.05
741.528	3156.26
741.713	3045.67
741.898	3019.05
742.084	3037.48
742.269	2982.18
742.454	2898.22
742.639	3068.2
742.824	3066.15
743.01	2879.79
743.195	2930.98
743.38	2906.41
743.565	2908.46
743.75	2879.79
743.935	2773.29
744.12	3021.1
744.305	2844.97
744.49	2982.18
744.675	2771.24
744.86	2818.35
745.045	2812.2
745.23	2732.33
745.415	2720.04
745.6	2720.04
745.785	2722.09
745.97	2795.82
746.155	2619.69
746.34	2754.86
746.525	2640.17
746.71	2603.31
746.895	2537.77
747.079	2683.18
747.264	2709.8
747.449	2640.17
747.634	2570.54
747.819	2570.54
748.003	2466.1
748.188	2502.96
748.373	2531.63
748.557	2505.01
748.742	2490.67
748.927	2480.43
749.111	2398.51
749.296	2455.86
749.481	2468.14
749.665	2390.32
749.85	2402.61
750.034	2404.66
750.219	2408.75
750.404	2287.92
750.588	2308.4
750.773	2148.66
750.957	2318.64
751.141	2292.02
751.326	2273.59
751.51	2294.07
751.695	2181.43
751.879	2144.56
752.064	2152.76
752.248	2193.72
752.432	2210.1
752.617	2214.2
752.801	2130.23
752.985	2136.37
753.17	2119.99
753.354	1982.78
753.538	2029.88
753.722	2019.64
753.907	2048.31
754.091	1964.34
754.275	2011.45
754.459	1851.71
754.643	1786.17
754.828	2025.78
755.012	1937.72
755.196	1921.34
755.38	1902.9
755.564	1845.56
755.748	1861.94
755.932	1947.96
756.116	1794.36
756.3	1784.12
756.484	1818.94
756.668	1765.69
756.852	1694.01
757.036	1800.51
757.22	1757.5
757.404	1673.53
757.588	1677.63
757.772	1767.74
757.956	1732.92
758.14	1702.2
758.323	1601.85
758.507	1673.53
758.691	1724.73
758.875	1775.93
759.059	1630.52
759.242	1724.73
759.426	1618.24
759.61	1587.52
759.794	1587.52
759.977	1665.34
760.161	1763.64
760.345	1593.66
760.528	1624.38
760.712	1540.41
760.895	1587.52
761.079	1495.36
761.263	1558.85
761.446	1558.85
761.63	1476.93
761.813	1544.51
761.997	1552.7
762.18	1528.13
762.364	1411.39
762.547	1438.02
762.731	1515.84
762.914	1489.21
763.098	1513.79
763.281	1382.72
763.464	1458.5
763.648	1517.89
763.831	1458.5
764.015	1409.34
764.198	1460.54
764.381	1405.25
764.564	1286.47
764.748	1429.82
764.931	1399.1
765.114	1425.73
765.297	1397.06
765.481	1468.73
765.664	1255.75
765.847	1382.72
766.03	1321.28
766.213	1374.53
766.397	1339.71
766.58	1343.81
766.763	1294.66
766.946	1280.32
767.129	1225.03
767.312	1323.33
767.495	1341.76
767.678	1325.38
767.861	1323.33
768.044	1173.83
768.227	1296.71
768.41	1329.47
768.593	1235.27
768.776	1261.89
768.959	1190.21
769.142	1196.36
769.324	1218.88
769.507	1286.47
769.69	1112.39
769.873	1098.05
770.056	1216.83
770.239	1169.73
770.421	1165.64
770.604	1186.12
770.787	1233.22
770.97	1139.01
771.152	1192.26
771.335	1216.83
771.518	1120.58
771.7	1163.59
771.883	1202.5
772.066	1104.2
772.248	1151.3
772.431	1065.29
772.613	1014.09
772.796	1100.1
772.978	1136.96
773.161	1028.42
773.343	1063.24
773.526	1071.43
773.708	1128.77
773.891	1018.18
774.073	1073.48
774.256	991.56
774.438	1063.24
774.621	991.56
774.803	1050.95
774.985	1071.43
775.168	942.41
775.35	962.89
775.532	1087.81
775.715	899.4
775.897	1005.89
776.079	923.98
776.261	944.45
776.444	833.86
776.626	960.84
776.808	915.78
776.99	905.54
777.173	926.02
777.355	880.97
777.537	940.36
777.719	917.83
777.901	842.06
778.083	870.73
778.265	899.4
778.447	891.21
778.629	817.48
778.811	809.29
778.993	821.58
779.175	876.87
779.357	848.2
779.539	805.19
779.721	792.91
779.903	801.1
780.085	809.29
780.267	786.76
780.449	735.56
780.631	737.61
780.812	823.62
780.994	760.14
781.176	815.43
781.358	829.77
781.54	774.47
781.721	737.61
781.903	782.67
782.085	667.98
782.267	717.13
782.448	637.26
782.63	719.18
782.812	770.38
782.993	690.51
783.175	698.7
783.357	667.98
783.538	725.32
783.72	690.51
783.901	604.49
784.083	645.45
784.264	667.98
784.446	543.05
784.627	678.22
784.809	608.59
784.99	600.4
785.172	610.64
785.353	569.68
785.535	661.84
785.716	575.82
785.897	590.16
786.079	629.07
786.26	555.34
786.441	674.12
786.623	680.27
786.804	561.48
786.985	551.24
787.167	498
787.348	579.92
787.529	557.39
787.71	584.01
787.891	579.92
788.073	569.68
788.254	573.77
788.435	551.24
788.616	594.25
788.797	440.65
788.978	528.72
789.159	569.68
789.34	551.24
789.522	522.57
789.703	547.15
789.884	514.38
790.065	530.77
790.246	479.57
790.427	504.14
790.607	584.01
790.788	516.43
790.969	532.81
791.15	459.09
791.331	504.14
791.512	446.8
791.693	489.81
791.874	561.48
792.054	555.34
792.235	444.75
792.416	518.48
792.597	375.12
792.778	473.42
792.958	432.46
793.139	450.89
793.32	448.85
793.5	422.22
793.681	442.7
793.862	500.05
794.042	422.22
794.223	383.31
794.404	428.37
794.584	399.7
794.765	438.61
794.945	346.45
795.126	399.7
795.306	442.7
795.487	418.13
795.667	403.79
795.848	414.03
796.028	334.16
796.209	358.74
796.389	317.78
796.57	405.84
796.75	350.54
796.93	391.5
797.111	371.02
797.291	424.27
797.471	411.98
797.652	403.79
797.832	377.17
798.012	454.99
798.192	373.07
798.373	352.59
798.553	399.7
798.733	362.83
798.913	407.89
799.093	346.45
799.274	334.16
799.454	295.25
799.634	362.83
799.814	401.74
799.994	428.37
800.174	395.6
800.354	323.92
800.534	346.45
800.714	330.06
800.894	334.16
801.074	309.58
801.254	278.87
801.434	338.26
801.614	403.79
801.794	268.63
801.974	756.04
802.154	293.2
802.334	338.26
802.514	321.87
802.693	350.54
802.873	266.58
803.053	389.46
803.233	297.3
803.413	278.87
803.592	323.92
803.772	295.25
803.952	233.81
804.131	321.87
804.311	285.01
804.491	317.78
804.67	297.3
804.85	309.58
805.03	258.39
805.209	309.58
805.389	260.43
805.568	235.86
805.748	311.63
805.928	221.52
806.107	272.72
806.287	268.63
806.466	258.39
806.646	309.58
806.825	295.25
807.004	217.43
807.184	311.63
807.363	237.91
807.543	301.39
807.722	256.34
807.901	325.97
808.081	254.29
808.26	203.09
808.439	285.01
808.619	244.05
808.798	270.67
808.977	268.63
809.156	268.63
809.336	280.91
809.515	342.35
809.694	258.39
809.873	235.86
810.052	201.04
810.231	252.24
810.411	264.53
810.59	207.19
810.769	246.1
810.948	252.24
811.127	229.71
811.306	182.61
811.485	194.9
811.664	276.82
811.843	250.19
812.022	256.34
812.201	211.28
812.38	186.71
812.559	217.43
812.737	198.99
812.916	190.8
813.095	207.19
813.274	225.62
813.453	205.14
813.632	198.99
813.811	285.01
813.989	242
814.168	252.24
814.347	258.39
814.526	237.91
814.704	217.43
814.883	219.47
815.062	149.84
815.24	229.71
815.419	211.28
815.598	178.51
815.776	137.56
815.955	227.67
816.133	115.03
816.312	164.18
816.49	102.74
816.669	168.27
816.847	196.95
817.026	192.85
817.204	192.85
817.383	280.91
817.561	178.51
817.74	180.56
817.918	184.66
818.097	258.39
818.275	143.7
818.453	123.22
818.632	196.95
818.81	147.8
818.988	217.43
819.167	153.94
819.345	110.93
819.523	149.84
819.701	203.09
819.879	129.36
820.058	235.86
820.236	160.08
820.414	229.71
820.592	209.23
820.77	117.08
820.948	229.71
821.127	155.99
821.305	215.38
821.483	92.5
821.661	178.51
821.839	221.52
822.017	162.13
822.195	178.51
822.373	207.19
822.551	104.79
822.729	98.64
822.907	158.03
823.085	248.15
823.262	231.76
823.44	158.03
823.618	135.51
823.796	84.31
823.974	219.47
824.152	121.17
824.329	198.99
824.507	119.12
824.685	194.9
824.863	127.32
825.04	186.71
825.218	196.95
825.396	110.93
825.574	166.23
825.751	162.13
825.929	194.9
826.107	129.36
826.284	194.9
826.462	178.51
826.639	123.22
826.817	102.74
826.994	110.93
827.172	133.46
827.349	198.99
827.527	178.51
827.704	137.56
827.882	84.31
828.059	145.75
828.237	139.6
828.414	180.56
828.591	127.32
828.769	119.12
828.946	127.32
829.124	182.61
829.301	153.94
829.478	53.59
829.655	96.6
829.833	100.69
830.01	29.01
830.187	174.42
830.364	186.71
830.542	149.84
830.719	147.8
830.896	141.65
831.073	153.94
831.25	63.83
831.427	201.04
831.604	125.27
831.782	104.79
831.959	174.42
832.136	108.88
832.313	129.36
832.49	182.61
832.667	69.97
832.844	121.17
833.021	180.56
833.198	104.79
833.374	131.41
833.551	102.74
833.728	102.74
833.905	88.4
834.082	131.41
834.259	125.27
834.436	137.56
834.612	135.51
834.789	176.47
834.966	110.93
835.143	219.47
835.319	90.45
835.496	125.27
835.673	155.99
835.85	162.13
836.026	96.6
836.203	106.84
836.38	112.98
836.556	76.12
836.733	63.83
836.909	112.98
837.086	84.31
837.262	61.78
837.439	96.6
837.616	106.84
837.792	84.31
837.968	143.7
838.145	49.49
838.321	98.64
838.498	69.97
838.674	94.55
838.851	41.3
839.027	65.88
839.203	110.93
839.38	147.8
839.556	110.93
839.732	115.03
839.909	57.68
840.085	106.84
840.261	86.36
840.437	121.17
840.614	96.6
840.79	133.46
840.966	131.41
841.142	100.69
841.318	98.64
841.494	137.56
841.671	88.4
841.847	-40.62
842.023	61.78
842.199	217.43
842.375	153.94
842.551	84.31
842.727	51.54
842.903	121.17
843.079	29.01
843.255	67.92
843.431	76.12
843.607	90.45
843.783	4.44
843.959	96.6
844.134	47.44
844.31	164.18
844.486	78.16
844.662	65.88
844.838	188.75
845.013	47.44
845.189	127.32
845.365	180.56
845.541	47.44
845.716	86.36
845.892	100.69
846.068	90.45
846.244	35.16
846.419	90.45
846.595	74.07
846.77	96.6
846.946	88.4
847.122	82.26
847.297	78.16
847.473	104.79
847.648	-9.9
847.824	47.44
847.999	8.53
848.175	33.11
848.35	94.55
848.526	125.27
848.701	39.25
848.876	78.16
849.052	80.21
849.227	100.69
849.403	100.69
849.578	-1.71
849.753	43.35
849.929	80.21
850.104	29.01
850.279	84.31
850.454	31.06
850.63	76.12
850.805	37.2
850.98	104.79
851.155	33.11
851.33	80.21
851.505	76.12
851.681	135.51
851.856	61.78
852.031	131.41
852.206	72.02
852.381	59.73
852.556	26.96
852.731	84.31
852.906	53.59
853.081	39.25
853.256	133.46
853.431	72.02
853.606	55.64
853.781	-7.85
853.956	8.53
854.131	80.21
854.305	39.25
854.48	55.64
854.655	-11.95
854.83	12.63
855.005	63.83
855.18	47.44
855.354	31.06
855.529	121.17
855.704	80.21
855.879	63.83
856.053	45.4
856.228	72.02
856.403	6.49
856.577	82.26
856.752	22.87
856.926	49.49
857.101	-7.85
857.276	43.35
857.45	59.73
857.625	2.39
857.799	55.64
857.974	104.79
858.148	24.92
858.323	69.97
858.497	26.96
858.672	22.87
858.846	12.63
859.02	76.12
859.195	-7.85
859.369	117.08
859.543	84.31
859.718	0.34
859.892	51.54
860.066	39.25
860.241	-42.67
860.415	47.44
860.589	37.2
860.763	67.92
860.938	14.68
861.112	153.94
861.286	121.17
861.46	49.49
861.634	67.92
861.808	63.83
861.982	55.64
862.157	6.49
862.331	49.49
862.505	6.49
862.679	8.53
862.853	59.73
863.027	53.59
863.201	26.96
863.375	-16.04
863.549	-42.67
863.722	172.37
863.896	98.64
864.07	88.4
864.244	72.02
864.418	65.88
864.592	51.54
864.766	39.25
864.939	74.07
865.113	92.5
865.287	88.4
865.461	78.16
865.634	84.31
865.808	53.59
865.982	59.73
866.156	14.68
866.329	84.31
866.503	72.02
866.676	92.5
866.85	80.21
867.024	22.87
867.197	45.4
867.371	41.3
867.544	-20.14
867.718	-22.19
867.891	35.16
868.065	59.73
868.238	41.3
868.412	61.78
868.585	29.01
868.759	-42.67
868.932	80.21
869.105	82.26
869.279	35.16
869.452	26.96
869.625	72.02
869.799	31.06
869.972	-3.75
870.145	88.4
870.319	14.68
870.492	78.16
870.665	22.87
870.838	-1.71
871.011	-67.24
871.185	72.02
871.358	-18.09
871.531	29.01
871.704	-20.14
871.877	53.59
872.05	67.92
872.223	33.11
872.396	-1.71
872.569	49.49
872.742	-5.8
872.915	55.64
873.088	57.68
873.261	24.92
873.434	72.02
873.607	76.12
873.78	117.08
873.953	-3.75
874.126	-9.9
874.299	96.6
874.471	51.54
874.644	-11.95
874.817	39.25
874.99	47.44
875.163	-1.71
875.335	69.97
875.508	78.16
875.681	82.26
875.853	6.49
876.026	141.65
876.199	-3.75
876.371	102.74
876.544	37.2
876.717	47.44
876.889	26.96
877.062	6.49
877.234	-9.9
877.407	-5.8
877.579	10.58
877.752	39.25
877.924	14.68
878.097	47.44
878.269	18.77
878.442	92.5
878.614	96.6
878.786	8.53
878.959	20.82
879.131	59.73
879.303	41.3
879.476	49.49
879.648	39.25
879.82	53.59
879.993	63.83
880.165	67.92
880.337	10.58
880.509	0.34
880.681	12.63
880.854	4.44
881.026	12.63
881.198	-28.33
881.37	16.73
881.542	-22.19
881.714	10.58
881.886	-9.9
882.058	39.25
882.23	18.77
882.402	22.87
882.574	-26.28
882.746	41.3
882.918	63.83
883.09	39.25
883.262	63.83
883.434	51.54
883.606	-11.95
883.778	12.63
883.95	45.4
884.122	-46.76
884.293	4.44
884.465	14.68
884.637	82.26
884.809	-44.71
884.98	37.2
885.152	-5.8
885.324	84.31
885.496	67.92
885.667	2.39
885.839	14.68
886.011	39.25
886.182	14.68
886.354	-3.75
886.525	14.68
886.697	10.58
886.869	-18.09
887.04	14.68
887.212	80.21
887.383	67.92
887.555	18.77
887.726	-54.95
887.897	24.92
888.069	63.83
888.24	-22.19
888.412	2.39
888.583	55.64
888.754	22.87
888.926	14.68
889.097	80.21
889.268	16.73
889.44	35.16
889.611	-36.52
889.782	-34.47
889.953	-1.71
890.125	0.34
890.296	90.45
890.467	8.53
890.638	4.44
890.809	8.53
890.98	-18.09
891.151	2.39
891.323	43.35
891.494	12.63
891.665	26.96
891.836	-26.28
892.007	24.92
892.178	18.77
892.349	39.25
892.52	37.2
892.691	39.25
892.862	57.68
893.032	-1.71
893.203	20.82
893.374	-1.71
893.545	59.73
893.716	43.35
893.887	106.84
894.057	33.11
894.228	-34.47
894.399	-1.71
894.57	104.79
894.74	-57
894.911	22.87
895.082	6.49
895.253	29.01
895.423	14.68
895.594	-13.99
895.764	26.96
895.935	33.11
896.106	2.39
896.276	8.53
896.447	-7.85
896.617	-38.57
896.788	6.49
896.958	-18.09
897.129	-52.91
897.299	16.73
897.47	47.44
897.64	26.96
897.81	112.98
897.981	65.88
898.151	59.73
898.322	55.64
898.492	49.49
898.662	41.3
898.832	6.49
899.003	10.58
899.173	37.2
899.343	35.16
899.513	47.44
