Data from USB4F104151__106__10-24-49-627.txt Node

Date: Wed Mar 12 10:24:49 EDT 2025
User: louis
Spectrometer: USB4F10415
Trigger mode: 4
Integration Time (sec): 3.000000E-2
Scans to average: 1
Electric dark correction enabled: true
Nonlinearity correction enabled: false
Boxcar width: 0
XAxis mode: Wavelengths
Number of Pixels in Spectrum: 3648
>>>>>Begin Spectral Data<<<<<
178.204	-163.84
178.424	-163.84
178.644	-163.84
178.864	-92.16
179.084	-61.44
179.304	-4.1
179.524	-26.62
179.744	-2.05
179.964	55.3
180.184	53.25
180.404	-45.06
180.624	-51.2
180.844	-6.14
181.064	-32.77
181.283	20.48
181.503	51.2
181.723	-12.29
181.943	-45.06
182.163	102.4
182.383	-8.19
182.602	26.62
182.822	30.72
183.042	40.96
183.262	-57.34
183.482	38.91
183.701	22.53
183.921	28.67
184.141	16.38
184.361	30.72
184.58	75.77
184.8	86.01
185.02	-20.48
185.239	0
185.459	28.67
185.679	51.2
185.898	81.92
186.118	145.41
186.338	34.82
186.557	12.29
186.777	-45.06
186.997	57.34
187.216	-4.1
187.436	36.86
187.655	67.58
187.875	36.86
188.095	53.25
188.314	73.73
188.534	65.54
188.753	0
188.973	18.43
189.192	49.15
189.412	53.25
189.631	16.38
189.851	-26.62
190.07	14.34
190.29	18.43
190.509	-73.73
190.729	67.58
190.948	49.15
191.168	120.83
191.387	73.73
191.607	67.58
191.826	55.3
192.045	14.34
192.265	20.48
192.484	10.24
192.704	12.29
192.923	-10.24
193.142	106.49
193.362	57.34
193.581	28.67
193.8	14.34
194.02	92.16
194.239	24.58
194.458	10.24
194.678	73.73
194.897	14.34
195.116	61.44
195.335	20.48
195.555	110.59
195.774	57.34
195.993	20.48
196.212	-43.01
196.432	24.58
196.651	40.96
196.87	12.29
197.089	59.39
197.308	8.19
197.528	114.69
197.747	16.38
197.966	16.38
198.185	71.68
198.404	12.29
198.623	16.38
198.842	49.15
199.062	38.91
199.281	102.4
199.5	14.34
199.719	110.59
199.938	-40.96
200.157	24.58
200.376	79.87
200.595	79.87
200.814	2.05
201.033	40.96
201.252	75.77
201.471	32.77
201.69	45.06
201.909	8.19
202.128	10.24
202.347	59.39
202.566	79.87
202.785	4.1
203.004	6.14
203.223	94.21
203.442	-26.62
203.661	12.29
203.879	-43.01
204.098	135.17
204.317	6.14
204.536	81.92
204.755	57.34
204.974	-14.34
205.193	-49.15
205.411	45.06
205.63	12.29
205.849	2.05
206.068	8.19
206.287	88.06
206.505	108.54
206.724	8.19
206.943	20.48
207.162	0
207.381	81.92
207.599	135.17
207.818	-24.58
208.037	53.25
208.255	28.67
208.474	81.92
208.693	49.15
208.911	-2.05
209.13	45.06
209.349	24.58
209.567	12.29
209.786	16.38
210.005	49.15
210.223	83.97
210.442	8.19
210.661	71.68
210.879	51.2
211.098	-20.48
211.316	18.43
211.535	24.58
211.753	-24.58
211.972	59.39
212.191	8.19
212.409	77.82
212.628	22.53
212.846	24.58
213.065	67.58
213.283	-16.38
213.502	34.82
213.72	-16.38
213.938	8.19
214.157	-8.19
214.375	26.62
214.594	65.54
214.812	69.63
215.031	8.19
215.249	30.72
215.467	20.48
215.686	69.63
215.904	28.67
216.122	45.06
216.341	22.53
216.559	26.62
216.778	71.68
216.996	28.67
217.214	36.86
217.432	10.24
217.651	12.29
217.869	65.54
218.087	-22.53
218.306	45.06
218.524	98.3
218.742	32.77
218.96	16.38
219.179	90.11
219.397	8.19
219.615	98.3
219.833	22.53
220.051	-10.24
220.27	77.82
220.488	22.53
220.706	-10.24
220.924	-4.1
221.142	59.39
221.36	18.43
221.578	28.67
221.796	51.2
222.015	18.43
222.233	12.29
222.451	98.3
222.669	12.29
222.887	8.19
223.105	4.1
223.323	57.34
223.541	20.48
223.759	16.38
223.977	63.49
224.195	14.34
224.413	65.54
224.631	61.44
224.849	-20.48
225.067	129.02
225.285	-26.62
225.503	16.38
225.721	28.67
225.939	-12.29
226.157	98.3
226.375	120.83
226.592	-4.1
226.81	57.34
227.028	49.15
227.246	126.97
227.464	30.72
227.682	77.82
227.9	-24.58
228.117	20.48
228.335	4.1
228.553	0
228.771	90.11
228.989	16.38
229.206	67.58
229.424	-57.34
229.642	-8.19
229.86	-14.34
230.077	73.73
230.295	47.1
230.513	14.34
230.731	49.15
230.948	38.91
231.166	24.58
231.384	20.48
231.601	10.24
231.819	114.69
232.037	0
232.254	-55.3
232.472	61.44
232.689	-4.1
232.907	86.01
233.125	40.96
233.342	8.19
233.56	55.3
233.777	77.82
233.995	61.44
234.213	65.54
234.43	86.01
234.648	88.06
234.865	61.44
235.083	24.58
235.3	0
235.518	75.77
235.735	49.15
235.953	36.86
236.17	38.91
236.388	12.29
236.605	28.67
236.822	129.02
237.04	67.58
237.257	43.01
237.475	32.77
237.692	34.82
237.909	16.38
238.127	38.91
238.344	69.63
238.562	30.72
238.779	40.96
238.996	28.67
239.214	28.67
239.431	81.92
239.648	-26.62
239.865	59.39
240.083	90.11
240.3	55.3
240.517	-32.77
240.735	34.82
240.952	63.49
241.169	86.01
241.386	61.44
241.603	100.35
241.821	-8.19
242.038	30.72
242.255	4.1
242.472	26.62
242.689	112.64
242.907	36.86
243.124	49.15
243.341	83.97
243.558	20.48
243.775	2.05
243.992	4.1
244.209	131.07
244.426	112.64
244.643	118.78
244.86	2.05
245.078	47.1
245.295	24.58
245.512	90.11
245.729	79.87
245.946	22.53
246.163	43.01
246.38	-10.24
246.597	77.82
246.814	28.67
247.031	69.63
247.248	47.1
247.464	47.1
247.681	24.58
247.898	63.49
248.115	43.01
248.332	-10.24
248.549	59.39
248.766	88.06
248.983	40.96
249.2	83.97
249.417	22.53
249.633	34.82
249.85	20.48
250.067	63.49
250.284	-2.05
250.501	61.44
250.717	102.4
250.934	32.77
251.151	47.1
251.368	24.58
251.585	90.11
251.801	57.34
252.018	12.29
252.235	2.05
252.451	16.38
252.668	-14.34
252.885	49.15
253.102	4.1
253.318	2.05
253.535	43.01
253.752	12.29
253.968	49.15
254.185	57.34
254.401	88.06
254.618	86.01
254.835	8.19
255.051	124.93
255.268	30.72
255.484	30.72
255.701	40.96
255.917	55.3
256.134	49.15
256.351	36.86
256.567	63.49
256.784	0
257	26.62
257.217	47.1
257.433	71.68
257.65	67.58
257.866	55.3
258.082	14.34
258.299	-49.15
258.515	57.34
258.732	30.72
258.948	43.01
259.165	4.1
259.381	102.4
259.597	36.86
259.814	65.54
260.03	106.49
260.246	47.1
260.463	26.62
260.679	43.01
260.895	12.29
261.112	98.3
261.328	22.53
261.544	12.29
261.761	145.41
261.977	53.25
262.193	-8.19
262.409	26.62
262.626	61.44
262.842	-32.77
263.058	159.74
263.274	6.14
263.49	86.01
263.707	133.12
263.923	102.4
264.139	-4.1
264.355	32.77
264.571	49.15
264.787	49.15
265.004	102.4
265.22	73.73
265.436	-24.58
265.652	43.01
265.868	53.25
266.084	34.82
266.3	43.01
266.516	30.72
266.732	28.67
266.948	51.2
267.164	65.54
267.38	40.96
267.596	73.73
267.812	104.45
268.028	57.34
268.244	2.05
268.46	16.38
268.676	-10.24
268.892	34.82
269.108	10.24
269.324	-6.14
269.54	-65.53
269.756	-26.62
269.972	-18.43
270.188	47.1
270.403	-10.24
270.619	32.77
270.835	47.1
271.051	0
271.267	30.72
271.483	8.19
271.698	51.2
271.914	40.96
272.13	18.43
272.346	83.97
272.562	26.62
272.777	20.48
272.993	8.19
273.209	63.49
273.425	28.67
273.64	-8.19
273.856	67.58
274.072	51.2
274.287	14.34
274.503	40.96
274.719	32.77
274.934	63.49
275.15	14.34
275.366	104.45
275.581	40.96
275.797	0
276.012	49.15
276.228	63.49
276.444	69.63
276.659	32.77
276.875	-8.19
277.09	69.63
277.306	59.39
277.521	100.35
277.737	57.34
277.952	53.25
278.168	-10.24
278.383	18.43
278.599	22.53
278.814	114.69
279.03	22.53
279.245	55.3
279.461	73.73
279.676	67.58
279.892	22.53
280.107	45.06
280.322	32.77
280.538	49.15
280.753	-10.24
280.969	73.73
281.184	22.53
281.399	75.77
281.615	65.54
281.83	73.73
282.045	30.72
282.26	8.19
282.476	81.92
282.691	98.3
282.906	30.72
283.122	22.53
283.337	-16.38
283.552	-16.38
283.767	40.96
283.983	75.77
284.198	-8.19
284.413	73.73
284.628	4.1
284.843	51.2
285.058	73.73
285.274	-4.1
285.489	6.14
285.704	38.91
285.919	65.54
286.134	32.77
286.349	63.49
286.564	45.06
286.779	38.91
286.995	32.77
287.21	-71.68
287.425	104.45
287.64	65.54
287.855	73.73
288.07	45.06
288.285	49.15
288.5	-4.1
288.715	90.11
288.93	73.73
289.145	86.01
289.36	73.73
289.575	79.87
289.79	-16.38
290.004	-22.53
290.219	26.62
290.434	65.54
290.649	36.86
290.864	69.63
291.079	32.77
291.294	45.06
291.509	26.62
291.724	94.21
291.938	-6.14
292.153	81.92
292.368	18.43
292.583	49.15
292.798	86.01
293.012	57.34
293.227	-18.43
293.442	28.67
293.657	90.11
293.871	59.39
294.086	36.86
294.301	57.34
294.516	98.3
294.73	67.58
294.945	-10.24
295.16	30.72
295.374	131.07
295.589	75.77
295.804	49.15
296.018	0
296.233	45.06
296.447	8.19
296.662	38.91
296.877	47.1
297.091	75.77
297.306	30.72
297.52	43.01
297.735	10.24
297.949	47.1
298.164	83.97
298.378	0
298.593	-32.77
298.807	36.86
299.022	110.59
299.236	-8.19
299.451	12.29
299.665	22.53
299.88	16.38
300.094	53.25
300.309	69.63
300.523	65.54
300.737	59.39
300.952	49.15
301.166	53.25
301.381	0
301.595	36.86
301.809	40.96
302.024	28.67
302.238	8.19
302.452	-4.1
302.667	49.15
302.881	57.34
303.095	71.68
303.309	16.38
303.524	-12.29
303.738	-79.87
303.952	4.1
304.166	143.36
304.381	30.72
304.595	114.69
304.809	49.15
305.023	20.48
305.237	24.58
305.452	16.38
305.666	73.73
305.88	12.29
306.094	81.92
306.308	6.14
306.522	81.92
306.736	100.35
306.95	45.06
307.164	86.01
307.379	83.97
307.593	112.64
307.807	88.06
308.021	92.16
308.235	114.69
308.449	22.53
308.663	45.06
308.877	90.11
309.091	67.58
309.305	28.67
309.519	47.1
309.733	69.63
309.947	10.24
310.161	69.63
310.374	98.3
310.588	96.25
310.802	-16.38
311.016	53.25
311.23	22.53
311.444	53.25
311.658	14.34
311.872	77.82
312.085	61.44
312.299	57.34
312.513	63.49
312.727	-30.72
312.941	-8.19
313.154	55.3
313.368	129.02
313.582	28.67
313.796	106.49
314.009	-4.1
314.223	49.15
314.437	49.15
314.651	14.34
314.864	12.29
315.078	26.62
315.292	12.29
315.505	30.72
315.719	26.62
315.933	8.19
316.146	-45.06
316.36	10.24
316.573	55.3
316.787	45.06
317.001	12.29
317.214	22.53
317.428	12.29
317.641	32.77
317.855	69.63
318.068	-24.58
318.282	81.92
318.495	55.3
318.709	43.01
318.922	-18.43
319.136	71.68
319.349	40.96
319.563	90.11
319.776	53.25
319.99	0
320.203	69.63
320.417	77.82
320.63	30.72
320.843	163.84
321.057	28.67
321.27	71.68
321.483	20.48
321.697	16.38
321.91	28.67
322.124	43.01
322.337	38.91
322.55	0
322.763	65.54
322.977	16.38
323.19	-8.19
323.403	65.54
323.617	-16.38
323.83	92.16
324.043	-20.48
324.256	8.19
324.469	0
324.683	55.3
324.896	24.58
325.109	73.73
325.322	49.15
325.535	49.15
325.748	43.01
325.962	90.11
326.175	32.77
326.388	61.44
326.601	88.06
326.814	-18.43
327.027	45.06
327.24	2.05
327.453	-59.39
327.666	94.21
327.879	100.35
328.092	79.87
328.305	2.05
328.518	16.38
328.731	24.58
328.944	106.49
329.157	98.3
329.37	59.39
329.583	110.59
329.796	118.78
330.009	18.43
330.222	92.16
330.435	36.86
330.648	122.88
330.861	122.88
331.073	86.01
331.286	16.38
331.499	83.97
331.712	77.82
331.925	88.06
332.138	0
332.35	88.06
332.563	-8.19
332.776	43.01
332.989	6.14
333.202	112.64
333.414	4.1
333.627	98.3
333.84	28.67
334.053	73.73
334.265	63.49
334.478	90.11
334.691	16.38
334.903	24.58
335.116	20.48
335.329	57.34
335.541	55.3
335.754	116.73
335.966	65.54
336.179	118.78
336.392	16.38
336.604	51.2
336.817	53.25
337.029	92.16
337.242	59.39
337.454	75.77
337.667	-2.05
337.88	81.92
338.092	51.2
338.305	122.88
338.517	20.48
338.729	114.69
338.942	53.25
339.154	67.58
339.367	86.01
339.579	94.21
339.792	32.77
340.004	49.15
340.217	32.77
340.429	63.49
340.641	73.73
340.854	57.34
341.066	32.77
341.278	71.68
341.491	75.77
341.703	81.92
341.915	51.2
342.128	57.34
342.34	63.49
342.552	32.77
342.764	57.34
342.977	57.34
343.189	69.63
343.401	102.4
343.613	6.14
343.826	122.88
344.038	34.82
344.25	83.97
344.462	0
344.674	83.97
344.886	24.58
345.099	79.87
345.311	18.43
345.523	104.45
345.735	22.53
345.947	73.73
346.159	43.01
346.371	83.97
346.583	57.34
346.795	104.45
347.007	57.34
347.219	73.73
347.431	24.58
347.643	77.82
347.855	-6.14
348.067	98.3
348.279	63.49
348.491	104.45
348.703	86.01
348.915	45.06
349.127	43.01
349.339	32.77
349.551	12.29
349.763	86.01
349.975	24.58
350.187	90.11
350.399	30.72
350.61	110.59
350.822	26.62
351.034	43.01
351.246	65.54
351.458	118.78
351.669	40.96
351.881	112.64
352.093	114.69
352.305	90.11
352.517	30.72
352.728	40.96
352.94	61.44
353.152	61.44
353.363	90.11
353.575	86.01
353.787	81.92
353.999	79.87
354.21	122.88
354.422	57.34
354.633	24.58
354.845	116.73
355.057	73.73
355.268	18.43
355.48	69.63
355.692	34.82
355.903	28.67
356.115	51.2
356.326	53.25
356.538	147.45
356.749	92.16
356.961	96.25
357.172	71.68
357.384	36.86
357.595	36.86
357.807	86.01
358.018	28.67
358.23	100.35
358.441	90.11
358.653	92.16
358.864	22.53
359.075	22.53
359.287	63.49
359.498	67.58
359.709	14.34
359.921	59.39
360.132	28.67
360.344	57.34
360.555	14.34
360.766	53.25
360.977	65.54
361.189	63.49
361.4	36.86
361.611	14.34
361.823	22.53
362.034	114.69
362.245	18.43
362.456	65.54
362.667	53.25
362.879	0
363.09	59.39
363.301	79.87
363.512	153.6
363.723	71.68
363.935	73.73
364.146	61.44
364.357	49.15
364.568	104.45
364.779	59.39
364.99	112.64
365.201	53.25
365.412	81.92
365.623	28.67
365.834	81.92
366.045	61.44
366.256	67.58
366.467	110.59
366.678	40.96
366.889	2.05
367.1	71.68
367.311	55.3
367.522	30.72
367.733	57.34
367.944	53.25
368.155	40.96
368.366	45.06
368.577	67.58
368.788	16.38
368.999	137.21
369.209	53.25
369.42	129.02
369.631	63.49
369.842	22.53
370.053	14.34
370.264	53.25
370.474	0
370.685	49.15
370.896	43.01
371.107	120.83
371.317	40.96
371.528	112.64
371.739	77.82
371.95	47.1
372.16	83.97
372.371	45.06
372.582	69.63
372.792	88.06
373.003	45.06
373.214	83.97
373.424	92.16
373.635	53.25
373.846	153.6
374.056	14.34
374.267	30.72
374.477	73.73
374.688	55.3
374.898	59.39
375.109	65.54
375.319	34.82
375.53	94.21
375.74	36.86
375.951	36.86
376.161	75.77
376.372	118.78
376.582	28.67
376.793	55.3
377.003	110.59
377.214	45.06
377.424	169.98
377.635	73.73
377.845	126.97
378.055	40.96
378.266	-32.77
378.476	53.25
378.686	71.68
378.897	-4.1
379.107	131.07
379.317	49.15
379.528	45.06
379.738	-14.34
379.948	65.54
380.158	88.06
380.369	59.39
380.579	20.48
380.789	67.58
380.999	129.02
381.21	90.11
381.42	53.25
381.63	75.77
381.84	126.97
382.05	12.29
382.261	98.3
382.471	49.15
382.681	40.96
382.891	96.25
383.101	47.1
383.311	34.82
383.521	38.91
383.731	110.59
383.941	88.06
384.151	32.77
384.361	32.77
384.571	69.63
384.781	77.82
384.991	122.88
385.201	88.06
385.411	49.15
385.621	63.49
385.831	14.34
386.041	63.49
386.251	55.3
386.461	71.68
386.671	73.73
386.881	135.17
387.091	-2.05
387.301	106.49
387.511	47.1
387.72	75.77
387.93	24.58
388.14	-18.43
388.35	65.54
388.56	143.36
388.769	79.87
388.979	81.92
389.189	-12.29
389.399	92.16
389.609	98.3
389.818	114.69
390.028	28.67
390.238	86.01
390.447	131.07
390.657	69.63
390.867	-4.1
391.076	8.19
391.286	147.45
391.496	53.25
391.705	81.92
391.915	43.01
392.125	155.65
392.334	120.83
392.544	186.37
392.753	114.69
392.963	45.06
393.172	63.49
393.382	40.96
393.591	174.08
393.801	122.88
394.01	137.21
394.22	98.3
394.429	90.11
394.639	114.69
394.848	81.92
395.058	83.97
395.267	18.43
395.477	169.98
395.686	16.38
395.895	110.59
396.105	151.55
396.314	143.36
396.524	100.35
396.733	49.15
396.942	131.07
397.152	172.03
397.361	112.64
397.57	139.26
397.78	90.11
397.989	86.01
398.198	118.78
398.407	190.46
398.617	129.02
398.826	129.02
399.035	43.01
399.244	147.45
399.453	98.3
399.663	131.07
399.872	114.69
400.081	96.25
400.29	219.13
400.499	106.49
400.708	210.94
400.917	94.21
401.127	163.84
401.336	153.6
401.545	202.75
401.754	155.65
401.963	147.45
402.172	104.45
402.381	153.6
402.59	100.35
402.799	112.64
403.008	210.94
403.217	241.66
403.426	212.99
403.635	139.26
403.844	147.45
404.053	165.89
404.262	139.26
404.471	229.37
404.68	192.51
404.888	139.26
405.097	149.5
405.306	169.98
405.515	151.55
405.724	196.61
405.933	200.7
406.142	225.28
406.35	241.66
406.559	180.22
406.768	180.22
406.977	221.18
407.185	260.09
407.394	186.37
407.603	231.42
407.812	274.43
408.02	225.28
408.229	208.89
408.438	243.71
408.646	280.57
408.855	270.33
409.064	280.57
409.272	233.47
409.481	327.67
409.69	294.91
409.898	323.58
410.107	305.15
410.315	385.02
410.524	356.35
410.733	382.97
410.941	405.5
411.15	348.15
411.358	411.64
411.567	473.08
411.775	376.83
411.984	395.26
412.192	405.5
412.401	471.03
412.609	544.76
412.818	571.38
413.026	421.88
413.234	532.47
413.443	511.99
413.651	593.91
413.86	563.19
414.068	624.63
414.276	673.78
414.485	661.49
414.693	643.06
414.901	782.32
415.11	729.08
415.318	733.17
415.526	847.86
415.734	819.19
415.943	774.13
416.151	878.58
416.359	972.79
416.567	808.95
416.776	925.68
416.984	980.98
417.192	1116.14
417.4	954.35
417.608	1034.22
417.817	1208.3
418.025	1245.17
418.233	1259.5
418.441	1159.15
418.649	1167.34
418.857	1404.91
419.065	1308.65
419.273	1433.58
419.481	1310.7
419.689	1601.51
419.897	1523.69
420.105	1628.14
420.313	1658.85
420.521	1812.45
420.729	1689.57
420.937	1894.37
421.145	1779.68
421.353	1978.34
421.561	1920.99
421.769	2019.3
421.977	2189.28
422.185	2121.7
422.393	2322.4
422.601	2398.17
422.809	2432.99
423.017	2367.45
423.224	2465.75
423.432	2584.54
423.64	2682.84
423.848	2895.83
424.056	2754.52
424.263	3008.47
424.471	3059.67
424.679	3151.82
424.887	3162.06
425.094	3362.76
425.302	3325.9
425.51	3438.54
425.718	3444.68
425.925	3727.3
426.133	3729.35
426.341	3985.35
426.548	4257.73
426.756	4038.59
426.964	4163.52
427.171	4411.32
427.379	4485.05
427.586	4523.96
427.794	4808.63
428.001	4919.22
428.209	5023.67
428.417	5210.03
428.624	5463.98
428.832	5449.64
429.039	5484.46
429.247	5316.53
429.454	5994.4
429.662	6381.47
429.869	5978.02
430.076	6371.23
430.284	6244.26
430.491	6393.76
430.699	6862.74
430.906	6731.67
431.114	6799.26
431.321	7016.34
431.528	7290.77
431.736	7761.8
431.943	7948.17
432.15	7786.38
432.358	7841.67
432.565	8476.54
432.772	8277.89
432.979	8781.69
433.187	8824.7
433.394	9078.65
433.601	9463.66
433.808	9514.86
434.016	9377.65
434.223	9867.11
434.43	10334.05
434.637	10092.39
434.844	11036.5
435.052	11089.75
435.259	11243.35
435.466	11249.49
435.673	11071.32
435.88	11833.16
436.087	12205.89
436.294	12367.68
436.501	12140.36
436.708	12318.53
436.915	12728.13
437.122	13002.55
437.329	13295.41
437.537	13973.29
437.743	13868.84
437.95	13819.69
438.157	14522.15
438.364	14835.49
438.571	14862.11
438.778	15122.2
438.985	16414.47
439.192	15802.13
439.399	16090.89
439.606	15793.93
439.813	16967.42
440.02	18011.89
440.227	17802.99
440.433	17340.15
440.64	18140.91
440.847	17704.69
441.054	18394.86
441.261	19269.34
441.467	19328.73
441.674	19654.36
441.881	20475.59
442.088	20088.53
442.294	19955.41
442.501	20641.48
442.708	21049.02
442.914	22005.42
443.121	22531.75
443.328	22300.33
443.534	23701.14
443.741	22812.32
443.948	22789.8
444.154	24374.92
444.361	24391.31
444.568	24393.36
444.774	24374.92
444.981	24358.54
445.187	25417.34
445.394	26377.84
445.6	25869.94
445.807	28464.72
446.013	27403.87
446.22	27940.44
446.426	28821.06
446.633	29285.95
446.839	29705.79
447.046	28575.31
447.252	30402.1
447.459	30395.95
447.665	30187.06
447.871	31634.97
448.078	32996.87
448.284	31139.36
448.491	32019.99
448.697	33379.84
448.903	34330.1
449.11	33936.89
449.316	33306.12
449.522	33969.66
449.728	35147.24
449.935	34852.33
450.141	34817.52
450.347	35853.79
450.553	34784.75
450.76	34850.28
450.966	36402.64
451.172	35341.8
451.378	36806.09
451.584	35720.67
451.791	36752.85
451.997	36552.15
452.203	37057.99
452.409	37131.72
452.615	36990.41
452.821	35515.87
453.027	35122.66
453.233	36869.58
453.44	35530.21
453.646	35950.04
453.852	35669.47
454.058	36470.23
454.264	35345.89
454.47	35816.93
454.676	35147.24
454.882	36455.89
455.088	33164.81
455.294	33728
455.5	33967.61
455.705	34426.35
455.911	32781.84
456.117	32390.67
456.323	31401.5
456.529	30103.09
456.735	31491.62
456.941	30615.08
457.147	30207.54
457.352	29476.41
457.558	28679.75
457.764	28941.89
457.97	28524.11
458.176	27956.82
458.381	27876.95
458.587	26576.49
458.793	26371.69
458.999	25218.69
459.204	26771.05
459.41	26138.23
459.616	24227.47
459.821	24383.12
460.027	24374.92
460.233	23840.4
460.438	22369.96
460.644	22945.44
460.85	21978.8
461.055	21620.41
461.261	21571.25
461.466	20090.57
461.672	19398.36
461.878	20631.24
462.083	19347.16
462.289	19074.78
462.494	18554.6
462.7	17843.95
462.905	17366.77
463.111	18052.84
463.316	18276.07
463.522	17899.25
463.727	17759.98
463.932	17753.84
464.138	17716.98
464.343	17592.05
464.549	17129.21
464.754	18061.04
464.959	17405.69
465.165	17364.73
465.37	16797.44
465.575	16113.42
465.781	16961.28
465.986	16979.71
466.191	16336.65
466.397	15791.89
466.602	15593.23
466.807	15781.65
467.012	15927.05
467.218	15728.4
467.423	15490.84
467.628	15695.63
467.833	16264.97
468.038	15613.71
468.244	15036.19
468.449	15867.66
468.654	15365.91
468.859	15322.9
469.064	15204.12
469.269	14661.41
469.474	14714.66
469.679	14923.55
469.885	14589.73
470.09	14720.8
470.295	14907.16
470.5	14188.33
470.705	14288.68
470.91	14063.4
471.115	13909.8
471.32	14243.62
471.525	13862.7
471.73	13723.44
471.935	13473.59
472.139	13139.77
472.344	13293.37
472.549	13172.53
472.754	12916.54
472.959	12754.75
473.164	12474.18
473.369	12443.46
473.574	12771.13
473.778	12574.53
473.983	12291.91
474.188	12504.9
474.393	11945.8
474.598	12107.59
474.802	11800.4
475.007	11626.32
475.212	11829.07
475.417	11149.14
475.621	11405.14
475.826	11616.08
476.031	11147.09
476.235	11044.7
476.44	11272.02
476.645	10751.84
476.849	10958.68
477.054	10829.66
477.259	10575.71
477.463	10778.46
477.668	10413.92
477.872	10442.59
478.077	10305.38
478.282	10010.47
478.486	10248.04
478.691	10049.38
478.895	9942.89
479.1	9891.69
479.304	9801.58
479.509	9351.03
479.713	9959.27
479.918	9502.58
480.122	9371.51
480.326	9461.62
480.531	9559.92
480.735	9248.63
480.94	9369.46
481.144	9727.85
481.348	9250.67
481.553	9633.65
481.757	9195.38
481.961	9289.59
482.166	9410.42
482.37	9363.31
482.574	9197.43
482.778	9060.21
482.983	9320.31
483.187	9219.96
483.391	9164.66
483.595	9361.27
483.8	9068.41
484.004	9105.27
484.208	9258.87
484.412	9271.15
484.616	9070.45
484.821	9273.2
485.025	9035.64
485.229	9234.29
485.433	9113.46
485.637	8951.67
485.841	9060.21
486.045	9289.59
486.249	9088.89
486.453	9088.89
486.657	9176.95
486.861	9295.73
487.065	9146.23
487.269	9056.12
487.473	9039.73
487.677	9031.54
487.881	9283.44
488.085	9156.47
488.289	9176.95
488.493	9129.84
488.697	9254.77
488.901	9152.37
489.105	9123.7
489.309	9348.98
489.512	9322.35
489.716	9142.13
489.92	9344.88
490.124	9195.38
490.328	9363.31
490.531	9387.89
490.735	9269.11
490.939	9590.64
491.143	9662.32
491.346	9482.1
491.55	9559.92
491.754	9561.97
491.958	9604.97
492.161	9693.04
492.365	9762.67
492.569	9705.32
492.772	9658.22
492.976	9912.17
493.18	9946.98
493.383	9928.55
493.587	10133.35
493.79	10129.25
493.994	10149.73
494.197	10073.96
494.401	10192.74
494.605	10141.54
494.808	10327.91
495.012	10557.28
495.215	10344.29
495.419	10573.66
495.622	10624.86
495.825	10749.79
496.029	10497.89
496.232	10887
496.436	10983.26
496.639	11194.2
496.843	11069.27
497.046	11255.64
497.249	11294.55
497.453	11698
497.656	11450.19
497.859	11738.96
498.063	11812.68
498.266	11984.71
498.469	11937.61
498.673	12269.38
498.876	12300.1
499.079	12351.3
499.282	12427.07
499.485	12705.6
499.689	12848.96
499.892	12922.68
500.095	12894.01
500.298	13535.03
500.501	13131.58
500.705	13647.66
500.908	13551.41
501.111	14102.31
501.314	14059.31
501.517	14071.59
501.72	14190.38
501.923	14391.08
502.126	14468.9
502.329	14982.94
502.532	14905.12
502.735	14980.89
502.938	15247.13
503.141	15408.92
503.344	15580.95
503.547	15572.75
503.75	16242.44
503.953	16054.03
504.156	16310.02
504.359	16617.22
504.562	16615.17
504.765	16766.72
504.968	17192.7
505.17	17303.29
505.373	17192.7
505.576	17411.83
505.779	17655.54
505.982	17862.38
506.185	18382.57
506.387	18267.88
506.59	18583.27
506.793	18652.9
506.996	18816.74
507.198	19275.48
507.401	19101.4
507.604	19402.46
507.807	19711.7
508.009	19996.37
508.212	20176.59
508.415	20446.92
508.617	20481.74
508.82	20876.99
509.022	20766.4
509.225	21128.89
509.428	21198.52
509.63	21528.25
509.833	21544.63
510.035	22398.63
510.238	21913.27
510.44	22128.3
510.643	22781.6
510.845	22730.41
511.048	22630.05
511.25	22896.29
511.453	23013.02
511.655	24184.46
511.858	23936.66
512.06	24137.36
512.262	23994
512.465	24282.77
512.667	25052.8
512.87	24786.57
513.072	25106.05
513.274	25904.76
513.477	25933.43
513.679	25816.69
513.881	26433.13
514.084	26998.37
514.286	26728.04
514.488	27129.44
514.69	27727.45
514.893	27629.15
515.095	27698.78
515.297	28089.94
515.499	28237.39
515.701	28636.75
515.904	28919.37
516.106	29185.6
516.308	29173.31
516.51	29767.23
516.712	29914.68
516.914	30225.97
517.116	30354.99
517.318	30586.41
517.52	30744.11
517.722	31030.82
517.925	31456.8
518.127	31825.43
518.329	32212.5
518.531	32003.61
518.733	32675.34
518.935	32957.96
519.136	32892.43
519.338	33359.36
519.54	33433.09
519.742	33988.09
519.944	34092.54
520.146	34807.28
520.348	35167.72
520.55	34964.97
520.752	34903.53
520.954	35694.05
521.155	35702.24
521.357	36459.99
521.559	36320.73
521.761	37029.32
521.963	36824.53
522.164	37256.65
522.366	37471.68
522.568	37797.31
522.77	37762.5
522.971	38329.78
523.173	38090.17
523.375	38794.67
523.576	38712.75
523.778	38655.41
523.98	39478.69
524.181	39744.93
524.383	39798.18
524.584	40211.87
524.786	40580.5
524.988	39822.75
525.189	40840.59
525.391	41041.29
525.592	41137.55
525.794	41563.53
525.995	41479.56
526.197	41715.08
526.398	42016.13
526.6	42345.85
526.801	42085.76
527.003	42313.08
527.204	42263.93
527.406	43119.98
527.607	42636.66
527.808	43337.07
528.01	42276.22
528.211	43337.07
528.412	43767.14
528.614	43494.76
528.815	43552.1
529.016	44537.18
529.218	44174.69
529.419	44012.9
529.62	44035.42
529.822	44008.8
530.023	44291.42
530.224	44762.45
530.425	44266.84
530.626	44242.27
530.828	44348.76
531.029	45536.59
531.23	44799.32
531.431	45047.12
531.632	44672.34
531.833	44909.91
532.035	45481.29
532.236	45516.11
532.437	45438.28
532.638	45024.59
532.839	45577.54
533.04	45421.9
533.241	45161.81
533.442	46097.73
533.643	45968.71
533.844	45677.89
534.045	45311.31
534.246	45499.72
534.447	45579.59
534.648	45475.15
534.849	45876.55
535.05	45354.32
535.251	45823.3
535.451	45817.16
535.652	46134.59
535.853	45929.8
536.054	46083.39
536.255	46562.62
536.456	45501.77
536.657	46771.51
536.857	46048.58
537.058	45679.94
537.259	46316.86
537.46	46230.85
537.66	46363.96
537.861	46124.35
538.062	45661.51
538.263	46191.94
538.463	45743.43
538.664	46290.24
538.865	46116.16
539.065	46499.13
539.266	45964.61
539.466	46404.92
539.667	45466.95
539.868	46103.87
540.068	46005.57
540.269	45909.32
540.469	46261.57
540.67	46077.25
540.87	46083.39
541.071	45733.19
541.271	46107.97
541.472	45880.64
541.672	46290.24
541.873	45673.8
542.073	45235.53
542.274	46466.36
542.474	46323.01
542.675	45972.8
542.875	46671.16
543.075	45618.5
543.276	45567.3
543.476	46335.29
543.676	45542.73
543.877	46384.44
544.077	45696.33
544.277	45974.85
544.478	46206.27
544.678	45860.16
544.878	46161.22
545.078	45851.97
545.279	45557.06
545.479	45937.99
545.679	45800.77
545.879	46048.58
546.079	45983.04
546.28	45991.23
546.48	45854.02
546.68	45854.02
546.88	45890.88
547.08	45839.68
547.28	45634.89
547.48	45600.07
547.68	45837.64
547.88	45163.85
548.081	45622.6
548.281	45806.92
548.481	45436.23
548.681	46060.87
548.881	45925.7
549.081	45600.07
549.28	45677.89
549.48	45587.78
549.68	45579.59
549.88	46097.73
550.08	45415.75
550.28	45659.46
550.48	45753.67
550.68	46034.24
550.88	45552.97
551.08	45313.36
551.279	45372.75
551.479	45034.83
551.679	45229.39
551.879	45321.55
552.079	45702.47
552.278	45380.94
552.478	45405.52
552.678	45335.88
552.878	45585.74
553.077	45442.38
553.277	45385.04
553.477	45497.67
553.676	45118.8
553.876	44911.95
554.076	44983.63
554.275	45335.88
554.475	44676.44
554.674	45022.54
554.874	45071.7
555.074	44918.1
555.273	45208.91
555.473	44688.73
555.672	44803.41
555.872	44539.22
556.071	44766.55
556.271	44963.15
556.47	44361.05
556.67	44545.37
556.869	44404.06
557.068	44508.5
557.268	44254.56
557.467	44647.77
557.667	44279.13
557.866	43996.51
558.065	43847.01
558.265	43996.51
558.464	44010.85
558.663	44516.7
558.863	43328.87
559.062	44531.03
559.261	43879.78
559.461	44211.55
559.66	42804.59
559.859	43902.31
560.058	43261.29
560.258	43732.32
560.457	43261.29
560.656	43658.6
560.855	43115.89
561.054	43713.89
561.253	43206
561.453	43042.16
561.652	43322.73
561.851	43271.53
562.05	42444.15
562.249	42509.69
562.448	42935.66
562.647	42241.4
562.846	42651
563.045	42374.52
563.244	42302.84
563.443	42595.7
563.642	41721.22
563.841	42378.62
564.04	42114.43
564.239	42284.41
564.438	41893.25
564.637	41874.82
564.836	41747.84
565.035	41258.38
565.234	41940.35
565.432	41256.33
565.631	41221.51
565.83	41321.87
566.029	41381.26
566.228	41299.34
566.427	40887.7
566.625	41043.34
566.824	40355.22
567.023	40961.42
567.222	40205.72
567.42	40752.53
567.619	39884.19
567.818	40191.39
568.016	40093.08
568.215	40314.26
568.414	40101.28
568.612	40103.32
568.811	39812.51
569.01	39816.61
569.208	39185.83
569.407	39685.54
569.605	39450.02
569.804	39757.22
570.002	38935.98
570.201	39298.47
570.4	38677.94
570.598	38585.78
570.797	38700.47
570.995	38368.69
571.193	38055.36
571.392	38770.1
571.59	38028.73
571.789	37881.28
571.987	37897.66
572.186	38217.14
572.384	37572.03
572.582	37840.32
572.781	37768.64
572.979	37270.98
573.177	37328.33
573.376	37395.91
573.574	36937.16
573.772	37262.79
573.971	37074.38
574.169	36808.14
574.367	36523.47
574.565	36670.93
574.763	36763.09
574.962	36267.48
575.16	36402.64
575.358	36787.66
575.556	35952.09
575.754	36552.15
575.952	35882.46
576.151	36292.05
576.349	35524.07
576.547	35730.91
576.745	35745.25
576.943	35493.35
577.141	35454.43
577.339	35421.67
577.537	35112.42
577.735	35294.69
577.933	34854.38
578.131	35325.41
578.329	34680.3
578.527	34776.56
578.725	34680.3
578.923	34868.72
579.121	34573.81
579.319	34293.24
579.516	34498.03
579.714	34342.39
579.912	34401.78
580.11	33990.14
580.308	34211.32
580.506	34113.02
580.704	33361.41
580.901	33689.09
581.099	33676.8
581.297	33449.47
581.495	33310.21
581.692	33613.31
581.89	33140.23
582.088	33154.57
582.285	32894.47
582.483	33097.22
582.681	32925.19
582.878	32949.77
583.076	32468.5
583.274	32710.16
583.471	32251.41
583.669	32706.06
583.866	32495.12
584.064	32615.95
584.262	31903.26
584.459	32349.71
584.657	32046.61
584.854	32198.16
585.052	31335.97
585.249	31829.53
585.447	31966.74
585.644	31622.69
585.841	31757.85
586.039	31794.71
586.236	31014.44
586.434	31153.7
586.631	31082.02
586.828	31016.49
587.026	30975.53
587.223	31139.36
587.42	30983.72
587.618	30629.42
587.815	30209.59
588.012	30481.97
588.21	30299.7
588.407	30746.15
588.604	30275.12
588.801	30156.34
588.999	30025.27
589.196	29886.01
589.393	29918.78
589.59	30033.46
589.787	29789.75
589.984	29486.65
590.182	29214.27
590.379	29627.96
590.576	29392.45
590.773	29685.31
590.97	28788.3
591.167	29367.87
591.364	29013.57
591.561	29154.88
591.758	28673.61
591.955	28687.95
592.152	29025.86
592.349	28603.98
592.546	28683.85
592.743	28733
592.94	28112.47
593.137	28132.95
593.334	28096.08
593.531	28001.88
593.727	28280.4
593.924	27919.96
594.121	27768.41
594.318	27868.76
594.515	27598.43
594.712	27864.66
594.908	27426.4
595.105	27588.19
595.302	27289.18
595.499	27229.79
595.696	27231.84
595.892	27027.04
596.089	27350.62
596.286	27129.44
596.482	26879.59
596.679	26748.52
596.876	26568.3
597.072	26574.44
597.269	26801.77
597.466	26535.53
597.662	26418.8
597.859	26412.65
598.055	26322.54
598.252	26084.98
598.448	25986.68
598.645	25937.52
598.841	25785.97
599.038	25734.78
599.234	25736.82
599.431	25661.05
599.627	25474.68
599.824	25777.78
600.02	25654.9
600.217	25763.45
600.413	25159.3
600.609	25081.47
600.806	25265.79
601.002	25429.63
601.198	24798.85
601.395	24909.44
601.591	24848
601.787	24940.16
601.984	24618.63
602.18	24962.69
602.376	24598.15
602.572	24383.12
602.769	24434.32
602.965	24295.05
603.161	24368.78
603.357	24206.99
603.553	23953.04
603.75	24460.94
603.946	23801.49
604.142	24182.41
604.338	24008.34
604.534	23594.65
604.73	23494.3
604.926	23848.6
605.122	23707.29
605.318	23352.99
605.514	23008.93
605.71	23453.34
605.906	23144.09
606.102	23244.45
606.298	23160.48
606.494	23283.36
606.69	22980.26
606.886	23049.89
607.082	22693.54
607.278	23047.84
607.474	22572.71
607.67	23150.24
607.866	22470.31
608.062	22668.97
608.257	22601.38
608.453	22775.46
608.649	22736.55
608.845	22441.64
609.041	22238.89
609.236	22496.94
609.432	22060.72
609.628	22302.38
609.824	22003.38
610.019	22150.83
610.215	21776.05
610.411	22355.63
610.606	21587.64
610.802	22245.04
610.998	22013.62
611.193	22116.01
611.389	21579.45
611.584	21724.85
611.78	21489.34
611.976	22064.82
612.171	21649.08
612.367	21546.68
612.562	21348.03
612.758	21231.29
612.953	21049.02
613.149	21313.21
613.344	21247.68
613.539	21384.89
613.735	21298.87
613.93	21470.9
614.126	21122.75
614.321	21270.2
614.517	20932.29
614.712	20938.43
614.907	20840.13
615.103	21040.83
615.298	20764.36
615.493	21049.02
615.688	20549.32
615.884	20977.34
616.079	20762.31
616.274	20811.46
616.47	20741.83
616.665	20524.74
616.86	20768.45
617.055	20317.9
617.25	20440.78
617.445	20504.26
617.641	20188.88
617.836	20444.87
618.031	20135.63
618.226	20344.52
618.421	19967.7
618.616	20438.73
618.811	19644.12
619.006	20029.13
619.201	19551.96
619.396	19734.23
619.591	19680.98
619.786	19564.25
619.981	19437.27
620.176	19498.71
620.371	19042.01
620.566	19220.19
620.761	19232.47
620.956	19386.07
621.151	19076.83
621.346	19035.87
621.541	18700
621.735	19103.45
621.93	18341.61
622.125	18421.48
622.32	18712.29
622.515	18575.08
622.709	17948.4
622.904	18128.62
623.099	18208.49
623.294	18034.41
623.488	18255.59
623.683	18020.08
623.878	17551.09
624.072	17762.03
624.267	17811.18
624.462	17424.12
624.656	17694.45
624.851	17671.92
625.046	17139.45
625.24	17460.98
625.435	17096.44
625.629	17084.16
625.824	16764.67
626.018	17010.43
626.213	16547.59
626.407	16758.53
626.602	16383.75
626.796	16731.9
626.991	16682.75
627.185	16371.46
627.38	16125.71
627.574	15957.77
627.768	15959.82
627.963	16047.88
628.157	15888.14
628.352	16000.78
628.546	15494.93
628.74	15654.67
628.935	15202.07
629.129	15441.68
629.323	15142.68
629.517	15316.76
629.712	15107.87
629.906	15154.97
630.1	14962.46
630.294	15095.58
630.489	15007.52
630.683	14939.93
630.877	14530.34
631.071	14567.2
631.265	14675.74
631.459	14708.51
631.653	14386.98
631.848	14591.78
632.042	14305.06
632.236	14298.92
632.43	13903.66
632.624	13991.72
632.818	14051.11
633.012	13670.19
633.206	13852.46
633.4	13821.74
633.594	13709.1
633.788	13774.64
633.982	13717.29
634.176	13655.86
634.369	13408.05
634.563	13471.54
634.757	13166.39
634.951	13356.85
635.145	13295.41
635.339	13139.77
635.533	12922.68
635.726	13231.93
635.92	12773.18
636.114	12820.28
636.308	12885.82
636.501	12861.24
636.695	12728.13
636.889	12607.3
637.083	12656.45
637.276	12523.33
637.47	12351.3
637.664	12513.09
637.857	12138.31
638.051	12152.65
638.244	12160.84
638.438	12099.4
638.632	12230.47
638.825	11908.94
639.019	11736.91
639.212	11616.08
639.406	11732.81
639.599	11425.62
639.793	11394.9
639.986	11450.19
640.18	11374.42
640.373	11259.73
640.567	11263.83
640.76	11282.26
640.954	10977.11
641.147	11251.54
641.34	11046.74
641.534	11095.89
641.727	11069.27
641.92	10966.87
642.114	10878.81
642.307	10628.96
642.5	10782.56
642.694	10704.73
642.887	10575.71
643.08	10626.91
643.273	10473.31
643.467	10434.4
643.66	10368.87
643.853	10299.23
644.046	10266.47
644.239	10405.73
644.432	10030.95
644.626	9924.46
644.819	10000.23
645.012	10026.85
645.205	9957.22
645.398	9912.17
645.591	9799.53
645.784	9762.67
645.977	9703.28
646.17	9881.45
646.363	9494.38
646.556	9494.38
646.749	9310.07
646.942	9383.79
647.135	9369.46
647.328	9396.08
647.521	9265.01
647.714	9181.04
647.907	9195.38
648.099	9121.65
648.292	9029.49
648.485	9166.71
648.678	8953.72
648.871	8912.76
649.064	8994.68
649.256	9158.52
649.449	8787.83
649.642	8863.61
649.835	8611.71
650.027	8793.98
650.22	8634.24
650.413	8658.81
650.605	8599.42
650.798	8494.97
650.991	8212.35
651.183	8394.62
651.376	8525.69
651.568	8337.28
651.761	8089.48
651.954	8288.13
652.146	8271.75
652.339	8333.18
652.531	8044.42
652.724	7925.64
652.916	8071.04
653.109	7880.58
653.301	7980.93
653.494	8214.4
653.686	7886.73
653.879	8126.34
654.071	7927.69
654.263	7638.92
654.456	7657.36
654.648	7786.38
654.84	7477.13
655.033	7604.11
655.225	7585.68
655.417	7475.09
655.61	7356.3
655.802	7448.46
655.994	7247.76
656.186	7454.61
656.379	7419.79
656.571	7284.62
656.763	7206.8
656.955	7159.7
657.148	7171.99
657.34	7176.08
657.532	7106.45
657.724	7057.3
657.916	7022.48
658.108	7036.82
658.3	7036.82
658.492	7067.54
658.684	6938.52
658.876	6981.53
659.068	6770.58
659.26	6756.25
659.452	6918.04
659.644	6672.28
659.836	6686.62
660.028	6657.95
660.22	6621.08
660.412	6535.07
660.604	6516.64
660.796	6430.62
660.988	6563.74
661.18	6424.48
661.372	6346.66
661.563	6322.08
661.755	6479.77
661.947	6356.89
662.139	6285.22
662.331	6217.63
662.522	6410.14
662.714	6070.18
662.906	6229.92
663.097	6049.7
663.289	6125.47
663.481	6041.51
663.673	6262.69
663.864	6080.42
664.056	5920.68
664.247	5873.57
664.439	5941.16
664.631	5982.12
664.822	6039.46
665.014	5871.53
665.205	5873.57
665.397	5752.74
665.588	5900.2
665.78	5836.71
665.971	5795.75
666.163	5826.47
666.354	5681.07
666.546	5699.5
666.737	5777.32
666.929	5767.08
667.12	5664.68
667.311	5644.2
667.503	5627.82
667.694	5580.71
667.885	5414.83
668.077	5525.42
668.268	5382.06
668.459	5439.4
668.651	5330.86
668.842	5441.45
669.033	5324.72
669.224	5539.76
669.416	5396.4
669.607	5439.4
669.798	5339.05
669.989	5330.86
670.18	5197.74
670.371	5240.75
670.563	5191.6
670.754	5226.42
670.945	5238.7
671.136	5177.26
671.327	5140.4
671.518	5040.05
671.709	5083.06
671.9	5003.19
672.091	5146.55
672.282	5097.39
672.473	4999.09
672.664	5134.26
672.855	5074.87
673.046	4935.6
673.237	5142.45
673.428	5078.96
673.619	4868.02
673.809	4999.09
674	5136.31
674.191	4812.73
674.382	4872.12
674.573	4970.42
674.764	4880.31
674.954	4874.17
675.145	4884.41
675.336	4870.07
675.527	4825.01
675.717	4726.71
675.908	4870.07
676.099	4855.73
676.289	4933.56
676.48	4841.4
676.671	4747.19
676.861	4796.34
677.052	4843.45
677.243	4808.63
677.433	4736.95
677.624	4763.58
677.814	4755.38
678.005	4814.77
678.195	4773.82
678.386	4745.14
678.576	4771.77
678.767	4661.18
678.957	4677.56
679.148	4849.59
679.338	4796.34
679.529	4736.95
679.719	4800.44
679.909	4661.18
680.1	4829.11
680.29	4857.78
680.481	4667.32
680.671	4706.23
680.861	4802.49
681.052	4667.32
681.242	4599.74
681.432	4700.09
681.622	4714.42
681.813	4650.94
682.003	4601.79
682.193	4724.66
682.383	4837.3
682.573	4755.38
682.764	4743.1
682.954	4726.71
683.144	4634.55
683.334	4487.1
683.524	4831.16
683.714	4687.8
683.904	4609.98
684.094	4796.34
684.284	4523.96
684.474	4612.03
684.664	4693.94
684.854	4511.68
685.044	4546.49
685.234	4480.96
685.424	4415.42
685.614	4456.38
685.804	4569.02
685.994	4483
686.184	4550.59
686.374	4575.16
686.564	4388.8
686.753	4499.39
686.943	4282.3
687.133	4380.61
687.323	4452.28
687.513	4388.8
687.702	4409.28
687.892	4378.56
688.082	4378.56
688.272	4417.47
688.461	4440
688.651	4370.37
688.841	4440
689.03	4364.22
689.22	4310.97
689.41	4204.48
689.599	4378.56
689.789	4138.94
689.979	4235.2
690.168	4063.17
690.358	4321.21
690.547	4001.73
690.737	4198.34
690.926	4173.76
691.116	4073.41
691.305	4114.37
691.495	4046.79
691.684	4036.55
691.874	4149.18
692.063	4071.36
692.252	3999.68
692.442	4087.75
692.631	3880.9
692.82	3946.44
693.01	3942.34
693.199	4030.4
693.388	3919.81
693.578	4020.16
693.767	3934.15
693.956	3829.7
694.146	4022.21
694.335	3909.57
694.524	3774.41
694.713	3870.66
694.902	3895.24
695.092	3936.2
695.281	3698.63
695.47	3661.77
695.659	3741.64
695.848	3866.56
696.037	3919.81
696.226	3645.38
696.415	3823.56
696.604	3811.27
696.793	3887.04
696.982	3680.2
697.171	3698.63
697.36	3669.96
697.549	3659.72
697.738	3657.67
697.927	3684.3
698.116	3772.36
698.305	3624.9
698.494	3653.58
698.683	3651.53
698.872	3841.99
699.061	3653.58
699.25	3647.43
699.438	3604.42
699.627	3688.39
699.816	3702.73
700.005	3715.02
700.193	3538.89
700.382	3633.1
700.571	3678.15
700.76	3725.26
700.948	3766.21
701.137	3620.81
701.326	3610.57
701.514	3667.91
701.703	3706.82
701.892	3497.93
702.08	3669.96
702.269	3610.57
702.457	3524.55
702.646	3645.38
702.834	3669.96
703.023	3653.58
703.212	3622.86
703.4	3614.66
703.589	3727.3
703.777	3620.81
703.965	3557.32
704.154	3563.47
704.342	3758.02
704.531	3538.89
704.719	3504.07
704.907	3708.87
705.096	3608.52
705.284	3542.99
705.472	3585.99
705.661	3657.67
705.849	3459.02
706.037	3651.53
706.226	3698.63
706.414	3637.19
706.602	3579.85
706.79	3581.9
706.979	3569.61
707.167	3684.3
707.355	3479.5
707.543	3725.26
707.731	3528.65
707.919	3612.62
708.107	3669.96
708.296	3694.54
708.484	3579.85
708.672	3506.12
708.86	3581.9
709.048	3508.17
709.236	3635.14
709.424	3659.72
709.612	3678.15
709.8	3682.25
709.988	3485.64
710.176	3585.99
710.364	3536.84
710.551	3624.9
710.739	3598.28
710.927	3608.52
711.115	3616.71
711.303	3676.1
711.491	3667.91
711.679	3755.97
711.866	3684.3
712.054	3723.21
712.242	3573.71
712.43	3592.14
712.617	3547.08
712.805	3653.58
712.993	3669.96
713.181	3583.95
713.368	3637.19
713.556	3583.95
713.744	3579.85
713.931	3794.89
714.119	3598.28
714.306	3633.1
714.494	3694.54
714.682	3655.62
714.869	3649.48
715.057	3698.63
715.244	3635.14
715.432	3690.44
715.619	3649.48
715.807	3651.53
715.994	3731.4
716.182	3645.38
716.369	3792.84
716.556	3612.62
716.744	3653.58
716.931	3667.91
717.119	3735.49
717.306	3727.3
717.493	3674.06
717.681	3706.82
717.868	3647.43
718.055	3577.8
718.242	3579.85
718.43	3538.89
718.617	3798.98
718.804	3702.73
718.991	3753.93
719.179	3737.54
719.366	3592.14
719.553	3811.27
719.74	3649.48
719.927	3678.15
720.114	3590.09
720.301	3729.35
720.488	3690.44
720.676	3571.66
720.863	3782.6
721.05	3643.34
721.237	3680.2
721.424	3606.47
721.611	3649.48
721.798	3581.9
721.985	3622.86
722.172	3637.19
722.358	3583.95
722.545	3596.23
722.732	3678.15
722.919	3620.81
723.106	3555.27
723.293	3549.13
723.48	3545.03
723.667	3512.27
723.853	3678.15
724.04	3663.82
724.227	3643.34
724.414	3686.34
724.6	3776.45
724.787	3600.33
724.974	3747.78
725.161	3581.9
725.347	3575.75
725.534	3575.75
725.72	3569.61
725.907	3536.84
726.094	3680.2
726.28	3680.2
726.467	3608.52
726.653	3522.51
726.84	3559.37
727.027	3682.25
727.213	3592.14
727.4	3635.14
727.586	3524.55
727.773	3463.12
727.959	3528.65
728.145	3620.81
728.332	3669.96
728.518	3604.42
728.705	3563.47
728.891	3526.6
729.077	3559.37
729.264	3407.82
729.45	3497.93
729.636	3596.23
729.823	3493.83
730.009	3588.04
730.195	3534.79
730.382	3514.31
730.568	3659.72
730.754	3645.38
730.94	3532.75
731.126	3686.34
731.313	3559.37
731.499	3563.47
731.685	3448.78
731.871	3485.64
732.057	3624.9
732.243	3579.85
732.429	3518.41
732.615	3583.95
732.801	3448.78
732.987	3678.15
733.173	3504.07
733.359	3606.47
733.545	3538.89
733.731	3420.11
733.917	3508.17
734.103	3581.9
734.289	3452.88
734.475	3413.96
734.661	3528.65
734.847	3510.22
735.033	3379.15
735.219	3448.78
735.404	3381.2
735.59	3506.12
735.776	3270.61
735.962	3432.4
736.148	3491.79
736.333	3368.91
736.519	3401.68
736.705	3373
736.89	3307.47
737.076	3512.27
737.262	3342.28
737.447	3461.07
737.633	3301.33
737.819	3370.96
738.004	3432.4
738.19	3319.76
738.375	3293.13
738.561	3315.66
738.747	3313.61
738.932	3301.33
739.118	3235.79
739.303	3297.23
739.489	3293.13
739.674	3268.56
739.859	3162.06
740.045	3311.57
740.23	3334.09
740.416	3162.06
740.601	3243.98
740.786	3215.31
740.972	3117.01
741.157	3178.45
741.342	3082.19
741.528	3170.26
741.713	3108.82
741.898	3252.17
742.084	3033.04
742.269	3045.33
742.454	3223.5
742.639	3104.72
742.824	3088.34
743.01	3088.34
743.195	3094.48
743.38	3088.34
743.565	3112.91
743.75	3096.53
743.935	3024.85
744.12	3080.14
744.305	2957.27
744.49	2914.26
744.675	2873.3
744.86	2953.17
745.045	2811.86
745.23	2955.22
745.415	2926.55
745.6	3010.51
745.785	2852.82
745.97	2750.42
746.155	2820.05
746.34	2871.25
746.525	2822.1
746.71	2818.01
746.895	2811.86
747.079	2760.66
747.264	2662.36
747.449	2701.27
747.634	2744.28
747.819	2596.82
748.003	2699.22
748.188	2731.99
748.373	2512.86
748.557	2512.86
748.742	2584.54
748.927	2527.19
749.111	2668.5
749.296	2488.28
749.481	2619.35
749.665	2537.43
749.85	2465.75
750.034	2576.34
750.219	2516.95
750.404	2484.19
750.588	2342.88
750.773	2351.07
750.957	2437.08
751.141	2396.12
751.326	2334.68
751.51	2277.34
751.695	2285.53
751.879	2248.67
752.064	2371.55
752.248	2265.05
752.432	2287.58
752.617	2185.18
752.801	2303.96
752.985	2252.77
753.17	2166.75
753.354	2179.04
753.538	2244.57
753.722	2105.31
753.907	2162.65
754.091	2146.27
754.275	2168.8
754.459	2023.39
754.643	1937.38
754.828	2013.15
755.012	1914.85
755.196	1947.62
755.38	1966.05
755.564	2037.73
755.748	1990.63
755.932	1998.82
756.116	2029.54
756.3	1820.64
756.484	1984.48
756.668	1873.89
756.852	1826.79
757.036	1910.75
757.22	1841.12
757.404	1851.36
757.588	1724.39
757.772	1923.04
757.956	1816.55
758.14	1933.28
758.323	1697.77
758.507	1726.44
758.691	1742.82
758.875	1812.45
759.059	1697.77
759.242	1658.85
759.426	1732.58
759.61	1630.18
759.794	1634.28
759.977	1748.97
760.161	1716.2
760.345	1550.31
760.528	1660.9
760.712	1675.24
760.895	1609.7
761.079	1630.18
761.263	1505.26
761.446	1499.11
761.63	1619.94
761.813	1554.41
761.997	1593.32
762.18	1634.28
762.364	1533.93
762.547	1497.07
762.731	1533.93
762.914	1554.41
763.098	1478.63
763.281	1542.12
763.464	1533.93
763.648	1599.46
763.831	1478.63
764.015	1429.48
764.198	1413.1
764.381	1548.26
764.564	1497.07
764.748	1449.96
764.931	1513.45
765.114	1421.29
765.297	1396.71
765.481	1409
765.664	1486.83
765.847	1462.25
766.03	1495.02
766.213	1384.43
766.397	1376.23
766.58	1400.81
766.763	1376.23
766.946	1220.59
767.129	1314.8
767.312	1286.12
767.495	1265.64
767.678	1265.64
767.861	1357.8
768.044	1353.71
768.227	1304.56
768.41	1161.2
768.593	1263.6
768.776	1325.04
768.959	1263.6
769.142	1331.18
769.324	1322.99
769.507	1218.54
769.69	1216.49
769.873	1245.17
770.056	1325.04
770.239	1185.77
770.421	1279.98
770.604	1302.51
770.787	1257.45
770.97	1251.31
771.152	1183.73
771.335	1146.86
771.518	1052.66
771.7	1241.07
771.883	1257.45
772.066	1206.25
772.248	1249.26
772.431	1171.44
772.613	1179.63
772.796	1028.08
772.978	1153.01
773.161	1066.99
773.343	1132.53
773.526	1146.86
773.708	1058.8
773.891	1110
774.073	1036.27
774.256	1087.47
774.438	1087.47
774.621	1030.13
774.803	1007.6
774.985	919.54
775.168	1087.47
775.35	1011.7
775.532	978.93
775.715	1083.38
775.897	897.01
776.079	991.22
776.261	974.83
776.444	1005.55
776.626	980.98
776.808	962.55
776.99	847.86
777.173	991.22
777.355	909.3
777.537	905.2
777.719	976.88
777.901	993.26
778.083	882.67
778.265	862.19
778.447	946.16
778.629	835.57
778.811	894.96
778.993	839.67
779.175	878.58
779.357	899.06
779.539	835.57
779.721	843.76
779.903	856.05
780.085	798.71
780.267	808.95
780.449	872.43
780.631	800.76
780.812	839.67
780.994	770.04
781.176	833.52
781.358	784.37
781.54	751.6
781.721	741.36
781.903	790.52
782.085	794.61
782.267	716.79
782.448	712.69
782.63	755.7
782.812	776.18
782.993	706.55
783.175	765.94
783.357	684.02
783.538	714.74
783.72	649.21
783.901	694.26
784.083	696.31
784.264	704.5
784.446	661.49
784.627	589.82
784.809	684.02
784.99	688.12
785.172	671.73
785.353	604.15
785.535	675.83
785.716	681.97
785.897	614.39
786.079	604.15
786.26	573.43
786.441	690.17
786.623	587.77
786.804	573.43
786.985	581.62
787.167	626.68
787.348	509.94
787.529	499.7
787.71	643.06
787.891	552.95
788.073	475.13
788.254	514.04
788.435	630.77
788.616	544.76
788.797	511.99
788.978	540.66
789.159	442.36
789.34	606.2
789.522	491.51
789.703	487.42
789.884	546.81
790.065	559.1
790.246	557.05
790.427	489.46
790.607	561.14
790.788	475.13
790.969	485.37
791.15	534.52
791.331	462.84
791.512	452.6
791.693	450.55
791.874	538.62
792.054	503.8
792.235	495.61
792.416	442.36
792.597	528.38
792.778	491.51
792.958	485.37
793.139	458.75
793.32	532.47
793.5	409.59
793.681	495.61
793.862	438.27
794.042	458.75
794.223	352.25
794.404	376.83
794.584	405.5
794.765	399.35
794.945	327.67
795.126	419.83
795.306	430.07
795.487	364.54
795.667	358.39
795.848	462.84
796.028	409.59
796.209	434.17
796.389	477.18
796.57	436.22
796.75	364.54
796.93	387.07
797.111	378.87
797.291	370.68
797.471	356.35
797.652	323.58
797.832	360.44
798.012	364.54
798.192	382.97
798.373	311.29
798.553	364.54
798.733	346.11
798.913	301.05
799.093	358.39
799.274	413.69
799.454	337.91
799.634	360.44
799.814	382.97
799.994	344.06
800.174	368.63
800.354	399.35
800.534	309.24
800.714	309.24
800.894	323.58
801.074	319.48
801.254	366.59
801.434	352.25
801.614	366.59
801.794	313.34
801.974	823.28
802.154	329.72
802.334	374.78
802.514	417.79
802.693	360.44
802.873	321.53
803.053	339.96
803.233	321.53
803.413	354.3
803.592	262.14
803.772	296.96
803.952	309.24
804.131	290.81
804.311	272.38
804.491	391.16
804.67	274.43
804.85	202.75
805.03	212.99
805.209	401.4
805.389	317.44
805.568	364.54
805.748	368.63
805.928	301.05
806.107	380.92
806.287	268.28
806.466	294.91
806.646	262.14
806.825	286.72
807.004	317.44
807.184	327.67
807.363	274.43
807.543	303.1
807.722	235.52
807.901	208.89
808.081	366.59
808.26	237.56
808.439	319.48
808.619	309.24
808.798	280.57
808.977	280.57
809.156	266.24
809.336	210.94
809.515	268.28
809.694	268.28
809.873	282.62
810.052	299
810.231	266.24
810.411	245.76
810.59	352.25
810.769	233.47
810.948	278.52
811.127	229.37
811.306	290.81
811.485	212.99
811.664	247.8
811.843	192.51
812.022	311.29
812.201	227.32
812.38	280.57
812.559	169.98
812.737	268.28
812.916	182.27
813.095	294.91
813.274	237.56
813.453	296.96
813.632	276.48
813.811	233.47
813.989	208.89
814.168	274.43
814.347	221.18
814.526	178.17
814.704	227.32
814.883	243.71
815.062	227.32
815.24	237.56
815.419	194.56
815.598	274.43
815.776	159.74
815.955	229.37
816.133	221.18
816.312	342.01
816.49	178.17
816.669	198.65
816.847	190.46
817.026	186.37
817.204	239.61
817.383	202.75
817.561	139.26
817.74	249.85
817.918	245.76
818.097	237.56
818.275	237.56
818.453	131.07
818.632	172.03
818.81	196.61
818.988	184.32
819.167	169.98
819.345	145.41
819.523	155.65
819.701	161.79
819.879	188.41
820.058	145.41
820.236	182.27
820.414	180.22
820.592	139.26
820.77	264.19
820.948	167.93
821.127	155.65
821.305	194.56
821.483	94.21
821.661	210.94
821.839	159.74
822.017	116.73
822.195	143.36
822.373	180.22
822.551	212.99
822.729	167.93
822.907	182.27
823.085	204.8
823.262	139.26
823.44	149.5
823.618	153.6
823.796	151.55
823.974	157.69
824.152	94.21
824.329	180.22
824.507	151.55
824.685	174.08
824.863	122.88
825.04	159.74
825.218	131.07
825.396	161.79
825.574	174.08
825.751	81.92
825.929	176.13
826.107	137.21
826.284	131.07
826.462	147.45
826.639	212.99
826.817	118.78
826.994	94.21
827.172	122.88
827.349	217.08
827.527	81.92
827.704	212.99
827.882	102.4
828.059	133.12
828.237	88.06
828.414	221.18
828.591	79.87
828.769	151.55
828.946	126.97
829.124	151.55
829.301	163.84
829.478	131.07
829.655	163.84
829.833	161.79
830.01	139.26
830.187	167.93
830.364	155.65
830.542	139.26
830.719	116.73
830.896	204.8
831.073	163.84
831.25	159.74
831.427	90.11
831.604	165.89
831.782	63.49
831.959	63.49
832.136	141.31
832.313	81.92
832.49	110.59
832.667	184.32
832.844	81.92
833.021	83.97
833.198	145.41
833.374	96.25
833.551	153.6
833.728	159.74
833.905	110.59
834.082	86.01
834.259	73.73
834.436	124.93
834.612	114.69
834.789	188.41
834.966	131.07
835.143	151.55
835.319	77.82
835.496	147.45
835.673	118.78
835.85	120.83
836.026	100.35
836.203	159.74
836.38	90.11
836.556	141.31
836.733	67.58
836.909	163.84
837.086	73.73
837.262	135.17
837.439	94.21
837.616	20.48
837.792	104.45
837.968	106.49
838.145	73.73
838.321	73.73
838.498	24.58
838.674	167.93
838.851	94.21
839.027	100.35
839.203	40.96
839.38	73.73
839.556	131.07
839.732	126.97
839.909	40.96
840.085	102.4
840.261	69.63
840.437	40.96
840.614	98.3
840.79	100.35
840.966	131.07
841.142	139.26
841.318	6.14
841.494	104.45
841.671	71.68
841.847	32.77
842.023	10.24
842.199	73.73
842.375	153.6
842.551	47.1
842.727	14.34
842.903	169.98
843.079	114.69
843.255	169.98
843.431	94.21
843.607	79.87
843.783	94.21
843.959	124.93
844.134	61.44
844.31	114.69
844.486	47.1
844.662	86.01
844.838	159.74
845.013	98.3
845.189	102.4
845.365	-12.29
845.541	4.1
845.716	98.3
845.892	153.6
846.068	45.06
846.244	32.77
846.419	108.54
846.595	53.25
846.77	59.39
846.946	129.02
847.122	71.68
847.297	114.69
847.473	59.39
847.648	32.77
847.824	86.01
847.999	6.14
848.175	26.62
848.35	71.68
848.526	79.87
848.701	43.01
848.876	38.91
849.052	92.16
849.227	73.73
849.403	34.82
849.578	112.64
849.753	32.77
849.929	139.26
850.104	-32.77
850.279	124.93
850.454	51.2
850.63	86.01
850.805	45.06
850.98	124.93
851.155	98.3
851.33	98.3
851.505	-18.43
851.681	90.11
851.856	28.67
852.031	112.64
852.206	104.45
852.381	81.92
852.556	69.63
852.731	8.19
852.906	63.49
853.081	81.92
853.256	137.21
853.431	104.45
853.606	102.4
853.781	67.58
853.956	12.29
854.131	77.82
854.305	0
854.48	133.12
854.655	32.77
854.83	51.2
855.005	120.83
855.18	-10.24
855.354	79.87
855.529	63.49
855.704	22.53
855.879	112.64
856.053	24.58
856.228	118.78
856.403	47.1
856.577	98.3
856.752	30.72
856.926	63.49
857.101	49.15
857.276	47.1
857.45	43.01
857.625	114.69
857.799	51.2
857.974	-14.34
858.148	8.19
858.323	57.34
858.497	32.77
858.672	32.77
858.846	24.58
859.02	40.96
859.195	28.67
859.369	88.06
859.543	83.97
859.718	57.34
859.892	-53.25
860.066	55.3
860.241	63.49
860.415	28.67
860.589	24.58
860.763	8.19
860.938	118.78
861.112	69.63
861.286	6.14
861.46	53.25
861.634	67.58
861.808	55.3
861.982	81.92
862.157	20.48
862.331	22.53
862.505	79.87
862.679	73.73
862.853	83.97
863.027	32.77
863.201	30.72
863.375	20.48
863.549	92.16
863.722	-16.38
863.896	83.97
864.07	65.54
864.244	59.39
864.418	-4.1
864.592	112.64
864.766	-12.29
864.939	51.2
865.113	49.15
865.287	135.17
865.461	0
865.634	30.72
865.808	45.06
865.982	53.25
866.156	2.05
866.329	32.77
866.503	40.96
866.676	81.92
866.85	-26.62
867.024	38.91
867.197	55.3
867.371	28.67
867.544	32.77
867.718	-77.82
867.891	47.1
868.065	24.58
868.238	10.24
868.412	77.82
868.585	40.96
868.759	12.29
868.932	53.25
869.105	-4.1
869.279	51.2
869.452	79.87
869.625	8.19
869.799	63.49
869.972	-61.44
870.145	-10.24
870.319	49.15
870.492	47.1
870.665	55.3
870.838	18.43
871.011	20.48
871.185	-8.19
871.358	53.25
871.531	57.34
871.704	-8.19
871.877	61.44
872.05	57.34
872.223	47.1
872.396	110.59
872.569	77.82
872.742	40.96
872.915	28.67
873.088	122.88
873.261	24.58
873.434	110.59
873.607	-61.44
873.78	45.06
873.953	12.29
874.126	-10.24
874.299	106.49
874.471	36.86
874.644	-8.19
874.817	10.24
874.99	90.11
875.163	69.63
875.335	-30.72
875.508	-8.19
875.681	-2.05
875.853	0
876.026	4.1
876.199	47.1
876.371	22.53
876.544	30.72
876.717	-30.72
876.889	38.91
877.062	8.19
877.234	-8.19
877.407	26.62
877.579	24.58
877.752	12.29
877.924	96.25
878.097	59.39
878.269	-8.19
878.442	-51.2
878.614	38.91
878.786	-43.01
878.959	71.68
879.131	16.38
879.303	24.58
879.476	-16.38
879.648	79.87
879.82	61.44
879.993	40.96
880.165	-16.38
880.337	-6.14
880.509	49.15
880.681	59.39
880.854	-14.34
881.026	73.73
881.198	129.02
881.37	8.19
881.542	8.19
881.714	55.3
881.886	73.73
882.058	-47.1
882.23	67.58
882.402	-24.58
882.574	22.53
882.746	22.53
882.918	34.82
883.09	90.11
883.262	49.15
883.434	-47.1
883.606	77.82
883.778	118.78
883.95	59.39
884.122	40.96
884.293	114.69
884.465	16.38
884.637	40.96
884.809	-34.82
884.98	69.63
885.152	139.26
885.324	63.49
885.496	-57.34
885.667	-20.48
885.839	40.96
886.011	51.2
886.182	22.53
886.354	63.49
886.525	49.15
886.697	-6.14
886.869	51.2
887.04	65.54
887.212	126.97
887.383	116.73
887.555	75.77
887.726	-24.58
887.897	-36.86
888.069	-16.38
888.24	22.53
888.412	63.49
888.583	-18.43
888.754	-4.1
888.926	-32.77
889.097	-10.24
889.268	-34.82
889.44	47.1
889.611	16.38
889.782	-2.05
889.953	83.97
890.125	47.1
890.296	-36.86
890.467	10.24
890.638	40.96
890.809	32.77
890.98	22.53
891.151	0
891.323	51.2
891.494	-53.25
891.665	22.53
891.836	110.59
892.007	10.24
892.178	65.54
892.349	16.38
892.52	40.96
892.691	-106.49
892.862	16.38
893.032	22.53
893.203	36.86
893.374	10.24
893.545	88.06
893.716	-28.67
893.887	40.96
894.057	0
894.228	16.38
894.399	10.24
894.57	14.34
894.74	57.34
894.911	45.06
895.082	-8.19
895.253	20.48
895.423	55.3
895.594	59.39
895.764	18.43
895.935	-8.19
896.106	-10.24
896.276	-36.86
896.447	-2.05
896.617	8.19
896.788	-8.19
896.958	-32.77
897.129	-18.43
897.299	-14.34
897.47	36.86
897.64	69.63
897.81	8.19
897.981	-2.05
898.151	-4.1
898.322	24.58
898.492	-18.43
898.662	0
898.832	-34.82
899.003	-10.24
899.173	-24.58
899.343	20.48
899.513	-30.72
