Data from USB4F104151__30__10-21-52-166.txt Node

Date: Wed Mar 12 10:21:52 EDT 2025
User: louis
Spectrometer: USB4F10415
Trigger mode: 4
Integration Time (sec): 3.000000E-2
Scans to average: 1
Electric dark correction enabled: true
Nonlinearity correction enabled: false
Boxcar width: 0
XAxis mode: Wavelengths
Number of Pixels in Spectrum: 3648
>>>>>Begin Spectral Data<<<<<
178.204	-132.95
178.424	-132.95
178.644	-132.95
178.864	-112.47
179.084	-112.47
179.304	-8.02
179.524	-63.32
179.744	14.51
179.964	10.41
180.184	-20.31
180.404	-5.97
180.624	4.27
180.844	45.23
181.064	-57.17
181.283	8.36
181.503	4.27
181.723	67.75
181.943	-55.12
182.163	37.03
182.383	71.85
182.602	65.71
182.822	-22.36
183.042	-1.88
183.262	-79.7
183.482	-26.45
183.701	-40.79
183.921	2.22
184.141	6.31
184.361	22.7
184.58	-28.5
184.8	12.46
185.02	12.46
185.239	0.17
185.459	80.04
185.679	51.37
185.898	14.51
186.118	77.99
186.338	8.36
186.557	6.31
186.777	-26.45
186.997	-1.88
187.216	-38.74
187.436	114.86
187.655	41.13
187.875	94.38
188.095	22.7
188.314	67.75
188.534	-1.88
188.753	92.33
188.973	39.08
189.192	26.79
189.412	-32.6
189.631	57.51
189.851	-3.93
190.07	10.41
190.29	-12.12
190.509	16.55
190.729	22.7
190.948	-5.97
191.168	96.43
191.387	55.47
191.607	77.99
191.826	6.31
192.045	-16.21
192.265	51.37
192.484	-8.02
192.704	-14.17
192.923	18.6
193.142	10.41
193.362	2.22
193.581	22.7
193.8	65.71
194.02	67.75
194.239	-63.32
194.458	37.03
194.678	2.22
194.897	14.51
195.116	10.41
195.335	14.51
195.555	24.75
195.774	20.65
195.993	69.8
196.212	-3.93
196.432	-38.74
196.651	39.08
196.87	34.99
197.089	41.13
197.308	26.79
197.528	92.33
197.747	8.36
197.966	32.94
198.185	39.08
198.404	10.41
198.623	82.09
198.842	82.09
199.062	-5.97
199.281	20.65
199.5	16.55
199.719	112.81
199.938	67.75
200.157	8.36
200.376	59.56
200.595	55.47
200.814	55.47
201.033	-14.17
201.252	84.14
201.471	26.79
201.69	-22.36
201.909	41.13
202.128	-34.64
202.347	22.7
202.566	6.31
202.785	-30.55
203.004	2.22
203.223	96.43
203.442	41.13
203.661	-1.88
203.879	12.46
204.098	30.89
204.317	-46.93
204.536	133.29
204.755	18.6
204.974	22.7
205.193	22.7
205.411	71.85
205.63	-12.12
205.849	39.08
206.068	14.51
206.287	75.95
206.505	49.32
206.724	22.7
206.943	16.55
207.162	20.65
207.381	37.03
207.599	-44.88
207.818	8.36
208.037	49.32
208.255	30.89
208.474	22.7
208.693	61.61
208.911	37.03
209.13	20.65
209.349	45.23
209.567	10.41
209.786	57.51
210.005	90.28
210.223	108.71
210.442	-63.32
210.661	57.51
210.879	-18.26
211.098	32.94
211.316	16.55
211.535	59.56
211.753	77.99
211.972	-30.55
212.191	-34.64
212.409	43.18
212.628	55.47
212.846	51.37
213.065	-14.17
213.283	-5.97
213.502	43.18
213.72	12.46
213.938	73.9
214.157	53.42
214.375	51.37
214.594	80.04
214.812	0.17
215.031	2.22
215.249	10.41
215.467	-28.5
215.686	2.22
215.904	16.55
216.122	43.18
216.341	55.47
216.559	-10.07
216.778	92.33
216.996	75.95
217.214	84.14
217.432	-30.55
217.651	26.79
217.869	-55.12
218.087	43.18
218.306	-12.12
218.524	75.95
218.742	-65.36
218.96	75.95
219.179	-10.07
219.397	108.71
219.615	55.47
219.833	28.84
220.051	34.99
220.27	61.61
220.488	-8.02
220.706	-10.07
220.924	55.47
221.142	53.42
221.36	26.79
221.578	16.55
221.796	22.7
222.015	-18.26
222.233	75.95
222.451	98.47
222.669	22.7
222.887	106.67
223.105	32.94
223.323	8.36
223.541	24.75
223.759	108.71
223.977	43.18
224.195	73.9
224.413	-10.07
224.631	28.84
224.849	39.08
225.067	127.14
225.285	-3.93
225.503	-42.84
225.721	6.31
225.939	47.27
226.157	0.17
226.375	59.56
226.592	-53.08
226.81	6.31
227.028	26.79
227.246	41.13
227.464	-83.8
227.682	53.42
227.9	69.8
228.117	26.79
228.335	77.99
228.553	92.33
228.771	51.37
228.989	45.23
229.206	-22.36
229.424	-5.97
229.642	26.79
229.86	20.65
230.077	20.65
230.295	18.6
230.513	34.99
230.731	34.99
230.948	88.23
231.166	8.36
231.384	0.17
231.601	2.22
231.819	75.95
232.037	37.03
232.254	28.84
232.472	57.51
232.689	53.42
232.907	104.62
233.125	-34.64
233.342	0.17
233.56	14.51
233.777	-71.51
233.995	-26.45
234.213	61.61
234.43	67.75
234.648	69.8
234.865	-5.97
235.083	8.36
235.3	57.51
235.518	16.55
235.735	51.37
235.953	30.89
236.17	14.51
236.388	49.32
236.605	43.18
236.822	125.1
237.04	20.65
237.257	108.71
237.475	-34.64
237.692	51.37
237.909	55.47
238.127	77.99
238.344	80.04
238.562	121
238.779	-26.45
238.996	47.27
239.214	61.61
239.431	30.89
239.648	-10.07
239.865	14.51
240.083	20.65
240.3	-40.79
240.517	-10.07
240.735	49.32
240.952	73.9
241.169	67.75
241.386	67.75
241.603	65.71
241.821	24.75
242.038	18.6
242.255	8.36
242.472	18.6
242.689	92.33
242.907	-32.6
243.124	86.19
243.341	4.27
243.558	53.42
243.775	59.56
243.992	0.17
244.209	16.55
244.426	26.79
244.643	43.18
244.86	-24.4
245.078	47.27
245.295	106.67
245.512	20.65
245.729	-24.4
245.946	59.56
246.163	61.61
246.38	69.8
246.597	65.71
246.814	108.71
247.031	-32.6
247.248	-5.97
247.464	10.41
247.681	65.71
247.898	16.55
248.115	45.23
248.332	0.17
248.549	63.66
248.766	94.38
248.983	28.84
249.2	63.66
249.417	71.85
249.633	0.17
249.85	59.56
250.067	-1.88
250.284	-5.97
250.501	41.13
250.717	22.7
250.934	8.36
251.151	39.08
251.368	67.75
251.585	-18.26
251.801	-8.02
252.018	-24.4
252.235	-16.21
252.451	41.13
252.668	-30.55
252.885	22.7
253.102	8.36
253.318	75.95
253.535	2.22
253.752	-53.08
253.968	6.31
254.185	34.99
254.401	0.17
254.618	82.09
254.835	116.9
255.051	34.99
255.268	24.75
255.484	30.89
255.701	-10.07
255.917	37.03
256.134	12.46
256.351	14.51
256.567	73.9
256.784	39.08
257	61.61
257.217	-5.97
257.433	75.95
257.65	71.85
257.866	75.95
258.082	-36.69
258.299	-46.93
258.515	-1.88
258.732	2.22
258.948	-26.45
259.165	28.84
259.381	20.65
259.597	37.03
259.814	12.46
260.03	59.56
260.246	-1.88
260.463	-48.98
260.679	-3.93
260.895	-26.45
261.112	84.14
261.328	75.95
261.544	34.99
261.761	47.27
261.977	-14.17
262.193	49.32
262.409	121
262.626	39.08
262.842	4.27
263.058	-12.12
263.274	32.94
263.49	2.22
263.707	20.65
263.923	26.79
264.139	6.31
264.355	2.22
264.571	84.14
264.787	18.6
265.004	67.75
265.22	88.23
265.436	14.51
265.652	-3.93
265.868	12.46
266.084	-5.97
266.3	63.66
266.516	20.65
266.732	6.31
266.948	51.37
267.164	43.18
267.38	12.46
267.596	43.18
267.812	57.51
268.028	0.17
268.244	16.55
268.46	20.65
268.676	-38.74
268.892	8.36
269.108	26.79
269.324	26.79
269.54	-20.31
269.756	43.18
269.972	4.27
270.188	-14.17
270.403	-5.97
270.619	57.51
270.835	53.42
271.051	-12.12
271.267	22.7
271.483	30.89
271.698	67.75
271.914	57.51
272.13	47.27
272.346	34.99
272.562	47.27
272.777	77.99
272.993	63.66
273.209	30.89
273.425	75.95
273.64	18.6
273.856	96.43
274.072	0.17
274.287	-53.08
274.503	110.76
274.719	20.65
274.934	106.67
275.15	-32.6
275.366	92.33
275.581	-5.97
275.797	30.89
276.012	-14.17
276.228	16.55
276.444	47.27
276.659	135.34
276.875	41.13
277.09	14.51
277.306	-46.93
277.521	14.51
277.737	63.66
277.952	98.47
278.168	37.03
278.383	34.99
278.599	34.99
278.814	-16.21
279.03	41.13
279.245	69.8
279.461	-46.93
279.676	-16.21
279.892	-28.5
280.107	24.75
280.322	-69.46
280.538	30.89
280.753	-1.88
280.969	-1.88
281.184	-5.97
281.399	110.76
281.615	45.23
281.83	0.17
282.045	4.27
282.26	57.51
282.476	12.46
282.691	32.94
282.906	26.79
283.122	82.09
283.337	4.27
283.552	47.27
283.767	37.03
283.983	12.46
284.198	61.61
284.413	80.04
284.628	47.27
284.843	24.75
285.058	39.08
285.274	92.33
285.489	-67.41
285.704	116.9
285.919	55.47
286.134	14.51
286.349	-5.97
286.564	10.41
286.779	121
286.995	14.51
287.21	0.17
287.425	28.84
287.64	80.04
287.855	-16.21
288.07	41.13
288.285	18.6
288.5	39.08
288.715	55.47
288.93	67.75
289.145	-36.69
289.36	59.56
289.575	8.36
289.79	4.27
290.004	16.55
290.219	41.13
290.434	16.55
290.649	-48.98
290.864	65.71
291.079	-22.36
291.294	90.28
291.509	28.84
291.724	22.7
291.938	-12.12
292.153	-32.6
292.368	34.99
292.583	129.19
292.798	2.22
293.012	26.79
293.227	41.13
293.442	80.04
293.657	77.99
293.871	45.23
294.086	-32.6
294.301	102.57
294.516	98.47
294.73	-14.17
294.945	47.27
295.16	41.13
295.374	75.95
295.589	53.42
295.804	24.75
296.018	174.25
296.233	108.71
296.447	34.99
296.662	51.37
296.877	-5.97
297.091	88.23
297.306	53.42
297.52	-5.97
297.735	51.37
297.949	65.71
298.164	14.51
298.378	43.18
298.593	18.6
298.807	67.75
299.022	6.31
299.236	94.38
299.451	47.27
299.665	41.13
299.88	53.42
300.094	26.79
300.309	90.28
300.523	100.52
300.737	82.09
300.952	67.75
301.166	22.7
301.381	26.79
301.595	32.94
301.809	2.22
302.024	-10.07
302.238	18.6
302.452	139.43
302.667	47.27
302.881	59.56
303.095	51.37
303.309	59.56
303.524	6.31
303.738	20.65
303.952	-18.26
304.166	37.03
304.381	82.09
304.595	112.81
304.809	49.32
305.023	2.22
305.237	37.03
305.452	75.95
305.666	10.41
305.88	88.23
306.094	71.85
306.308	-71.51
306.522	43.18
306.736	20.65
306.95	116.9
307.164	86.19
307.379	30.89
307.593	57.51
307.807	14.51
308.021	82.09
308.235	37.03
308.449	-22.36
308.663	18.6
308.877	100.52
309.091	30.89
309.305	37.03
309.519	4.27
309.733	127.14
309.947	-14.17
310.161	37.03
310.374	102.57
310.588	49.32
310.802	59.56
311.016	20.65
311.23	20.65
311.444	43.18
311.658	98.47
311.872	80.04
312.085	41.13
312.299	55.47
312.513	141.48
312.727	133.29
312.941	-34.64
313.154	53.42
313.368	39.08
313.582	123.05
313.796	-42.84
314.009	18.6
314.223	47.27
314.437	88.23
314.651	-26.45
314.864	-22.36
315.078	-18.26
315.292	57.51
315.505	16.55
315.719	-8.02
315.933	77.99
316.146	26.79
316.36	88.23
316.573	121
316.787	-14.17
317.001	24.75
317.214	20.65
317.428	24.75
317.641	2.22
317.855	63.66
318.068	-24.4
318.282	43.18
318.495	-18.26
318.709	84.14
318.922	53.42
319.136	65.71
319.349	43.18
319.563	-55.12
319.776	125.1
319.99	49.32
320.203	125.1
320.417	-14.17
320.63	10.41
320.843	92.33
321.057	-5.97
321.27	43.18
321.483	-48.98
321.697	102.57
321.91	6.31
322.124	12.46
322.337	-3.93
322.55	2.22
322.763	41.13
322.977	80.04
323.19	-38.74
323.403	69.8
323.617	22.7
323.83	20.65
324.043	53.42
324.256	8.36
324.469	20.65
324.683	63.66
324.896	4.27
325.109	63.66
325.322	30.89
325.535	71.85
325.748	41.13
325.962	86.19
326.175	-10.07
326.388	18.6
326.601	100.52
326.814	67.75
327.027	-40.79
327.24	125.1
327.453	18.6
327.666	49.32
327.879	51.37
328.092	80.04
328.305	-73.56
328.518	6.31
328.731	51.37
328.944	34.99
329.157	71.85
329.37	4.27
329.583	67.75
329.796	61.61
330.009	65.71
330.222	26.79
330.435	-5.97
330.648	53.42
330.861	137.38
331.073	49.32
331.286	65.71
331.499	80.04
331.712	32.94
331.925	47.27
332.138	-1.88
332.35	32.94
332.563	-32.6
332.776	104.62
332.989	16.55
333.202	41.13
333.414	-5.97
333.627	94.38
333.84	75.95
334.053	-5.97
334.265	26.79
334.478	22.7
334.691	4.27
334.903	20.65
335.116	-30.55
335.329	55.47
335.541	10.41
335.754	53.42
335.966	-22.36
336.179	-22.36
336.392	34.99
336.604	92.33
336.817	65.71
337.029	18.6
337.242	-1.88
337.454	90.28
337.667	-14.17
337.88	86.19
338.092	43.18
338.305	71.85
338.517	96.43
338.729	73.9
338.942	98.47
339.154	14.51
339.367	67.75
339.579	-8.02
339.792	43.18
340.004	61.61
340.217	53.42
340.429	12.46
340.641	39.08
340.854	43.18
341.066	-5.97
341.278	14.51
341.491	43.18
341.703	88.23
341.915	14.51
342.128	84.14
342.34	24.75
342.552	39.08
342.764	30.89
342.977	59.56
343.189	94.38
343.401	94.38
343.613	43.18
343.826	-3.93
344.038	-16.21
344.25	55.47
344.462	18.6
344.674	28.84
344.886	47.27
345.099	84.14
345.311	53.42
345.523	39.08
345.735	8.36
345.947	-22.36
346.159	-18.26
346.371	-1.88
346.583	59.56
346.795	80.04
347.007	51.37
347.219	112.81
347.431	2.22
347.643	51.37
347.855	14.51
348.067	116.9
348.279	30.89
348.491	-20.31
348.703	53.42
348.915	22.7
349.127	22.7
349.339	80.04
349.551	90.28
349.763	10.41
349.975	16.55
350.187	100.52
350.399	47.27
350.61	53.42
350.822	2.22
351.034	14.51
351.246	22.7
351.458	55.47
351.669	-14.17
351.881	65.71
352.093	16.55
352.305	69.8
352.517	57.51
352.728	112.81
352.94	-14.17
353.152	26.79
353.363	51.37
353.575	-1.88
353.787	88.23
353.999	47.27
354.21	59.56
354.422	8.36
354.633	82.09
354.845	37.03
355.057	34.99
355.268	53.42
355.48	55.47
355.692	26.79
355.903	34.99
356.115	75.95
356.326	14.51
356.538	65.71
356.749	26.79
356.961	129.19
357.172	16.55
357.384	45.23
357.595	118.95
357.807	24.75
358.018	-12.12
358.23	-14.17
358.441	82.09
358.653	55.47
358.864	63.66
359.075	-46.93
359.287	84.14
359.498	61.61
359.709	30.89
359.921	59.56
360.132	59.56
360.344	59.56
360.555	-8.02
360.766	67.75
360.977	12.46
361.189	51.37
361.4	24.75
361.611	94.38
361.823	47.27
362.034	82.09
362.245	-8.02
362.456	88.23
362.667	61.61
362.879	20.65
363.09	69.8
363.301	34.99
363.512	75.95
363.723	16.55
363.935	32.94
364.146	80.04
364.357	-14.17
364.568	16.55
364.779	-12.12
364.99	43.18
365.201	51.37
365.412	37.03
365.623	-22.36
365.834	51.37
366.045	84.14
366.256	125.1
366.467	61.61
366.678	108.71
366.889	98.47
367.1	32.94
367.311	51.37
367.522	43.18
367.733	73.9
367.944	41.13
368.155	57.51
368.366	145.58
368.577	110.76
368.788	77.99
368.999	106.67
369.209	57.51
369.42	127.14
369.631	123.05
369.842	84.14
370.053	106.67
370.264	51.37
370.474	73.9
370.685	45.23
370.896	30.89
371.107	57.51
371.317	61.61
371.528	80.04
371.739	22.7
371.95	28.84
372.16	22.7
372.371	51.37
372.582	28.84
372.792	108.71
373.003	18.6
373.214	51.37
373.424	94.38
373.635	65.71
373.846	28.84
374.056	8.36
374.267	92.33
374.477	10.41
374.688	63.66
374.898	84.14
375.109	22.7
375.319	14.51
375.53	84.14
375.74	41.13
375.951	-18.26
376.161	59.56
376.372	71.85
376.582	12.46
376.793	71.85
377.003	45.23
377.214	63.66
377.424	32.94
377.635	88.23
377.845	20.65
378.055	104.62
378.266	-22.36
378.476	57.51
378.686	73.9
378.897	43.18
379.107	86.19
379.317	30.89
379.528	8.36
379.738	92.33
379.948	14.51
380.158	61.61
380.369	55.47
380.579	63.66
380.789	32.94
380.999	4.27
381.21	80.04
381.42	57.51
381.63	4.27
381.84	10.41
382.05	112.81
382.261	92.33
382.471	28.84
382.681	37.03
382.891	57.51
383.101	18.6
383.311	16.55
383.521	24.75
383.731	59.56
383.941	92.33
384.151	43.18
384.361	59.56
384.571	43.18
384.781	75.95
384.991	96.43
385.201	49.32
385.411	-14.17
385.621	32.94
385.831	77.99
386.041	90.28
386.251	-1.88
386.461	96.43
386.671	86.19
386.881	37.03
387.091	8.36
387.301	2.22
387.511	26.79
387.72	80.04
387.93	57.51
388.14	-5.97
388.35	96.43
388.56	59.56
388.769	80.04
388.979	10.41
389.189	26.79
389.399	20.65
389.609	47.27
389.818	110.76
390.028	100.52
390.238	57.51
390.447	88.23
390.657	75.95
390.867	96.43
391.076	18.6
391.286	92.33
391.496	53.42
391.705	108.71
391.915	49.32
392.125	100.52
392.334	80.04
392.544	51.37
392.753	55.47
392.963	-10.07
393.172	90.28
393.382	51.37
393.591	34.99
393.801	82.09
394.01	112.81
394.22	88.23
394.429	63.66
394.639	96.43
394.848	100.52
395.058	75.95
395.267	106.67
395.477	43.18
395.686	123.05
395.895	164.01
396.105	20.65
396.314	141.48
396.524	153.77
396.733	190.63
396.942	112.81
397.152	67.75
397.361	104.62
397.57	98.47
397.78	82.09
397.989	170.15
398.198	170.15
398.407	112.81
398.617	75.95
398.826	133.29
399.035	75.95
399.244	221.35
399.453	131.24
399.663	131.24
399.872	125.1
400.081	102.57
400.29	174.25
400.499	129.19
400.708	51.37
400.917	114.86
401.127	147.62
401.336	106.67
401.545	192.68
401.754	92.33
401.963	104.62
402.172	102.57
402.381	75.95
402.59	77.99
402.799	116.9
403.008	188.58
403.217	137.38
403.426	145.58
403.635	127.14
403.844	129.19
404.053	131.24
404.262	174.25
404.471	161.96
404.68	108.71
404.888	116.9
405.097	155.82
405.306	133.29
405.515	196.78
405.724	153.77
405.933	170.15
406.142	82.09
406.35	137.38
406.559	170.15
406.768	221.35
406.977	288.93
407.185	174.25
407.394	190.63
407.603	166.06
407.812	235.69
408.02	241.83
408.229	309.41
408.438	237.74
408.646	202.92
408.855	280.74
409.064	215.21
409.272	204.97
409.481	284.84
409.69	309.41
409.898	333.99
410.107	274.6
410.315	295.08
410.524	333.99
410.733	346.28
410.941	372.9
411.15	374.95
411.358	383.14
411.567	385.19
411.775	383.14
411.984	366.76
412.192	454.82
412.401	417.96
412.609	469.16
412.818	516.26
413.026	450.72
413.234	485.54
413.443	526.5
413.651	598.18
413.86	643.23
414.068	610.47
414.276	628.9
414.485	682.14
414.693	592.03
414.901	688.29
415.11	661.66
415.318	710.82
415.526	778.4
415.734	788.64
415.943	796.83
416.151	895.13
416.359	917.66
416.567	911.52
416.776	911.52
416.984	1026.2
417.192	1001.63
417.4	1054.87
417.608	1005.72
417.817	1030.3
418.025	1099.93
418.233	1179.8
418.441	1108.12
418.649	1173.66
418.857	1302.68
419.065	1263.77
419.273	1251.48
419.481	1466.52
419.689	1374.36
419.897	1450.13
420.105	1613.97
420.313	1652.88
420.521	1568.91
420.729	1583.25
420.937	1685.65
421.145	1771.66
421.353	2001.04
421.561	1908.88
421.769	2013.32
421.977	2123.91
422.185	2025.61
422.393	2214.02
422.601	2275.46
422.809	2398.34
423.017	2252.94
423.224	2429.06
423.432	2586.76
423.64	2574.47
423.848	2680.96
424.056	2588.8
424.263	2795.65
424.471	2828.42
424.679	2973.82
424.887	3119.23
425.094	3188.86
425.302	3176.57
425.51	3291.26
425.718	3352.7
425.925	3539.06
426.133	3653.75
426.341	3793.01
426.548	4098.16
426.756	3848.3
426.964	3827.82
427.171	4049
427.379	4352.1
427.586	4294.76
427.794	4448.36
428.001	4626.53
428.209	4982.88
428.417	4915.3
428.624	5247.07
428.832	5068.89
429.039	5314.65
429.247	5193.82
429.454	5621.84
429.662	6146.12
429.869	5544.02
430.076	6162.51
430.284	5793.87
430.491	6178.89
430.699	6518.86
430.906	6625.35
431.114	6510.66
431.321	6686.79
431.528	6957.12
431.736	7444.54
431.943	7723.06
432.15	7626.81
432.358	7626.81
432.565	8265.77
432.772	8103.98
432.979	8349.74
433.187	8587.3
433.394	8529.96
433.601	9123.87
433.808	9152.54
434.016	9152.54
434.223	9611.29
434.43	10012.69
434.637	9824.28
434.844	10444.81
435.052	10670.09
435.259	10719.24
435.466	10743.81
435.673	10596.36
435.88	11386.88
436.087	11954.16
436.294	11915.25
436.501	11667.45
436.708	12099.57
436.915	12505.07
437.122	12783.59
437.329	12720.1
437.537	13156.32
437.743	13490.14
437.95	13109.22
438.157	14206.93
438.364	14350.29
438.571	14317.52
438.778	14581.71
438.985	15781.82
439.192	15384.51
439.399	15826.87
439.606	15298.5
439.813	16121.78
440.02	17012.65
440.227	16959.4
440.433	16750.51
440.64	17391.52
440.847	17108.9
441.054	17430.43
441.261	18642.83
441.467	18636.69
441.674	18755.47
441.881	19322.76
442.088	19298.18
442.294	19206.02
442.501	19906.43
442.708	20287.35
442.914	21047.15
443.121	21811.04
443.328	21258.09
443.534	22677.33
443.741	21942.11
443.948	21395.3
444.154	23369.54
444.361	23070.54
444.568	23674.69
444.774	23660.35
444.981	23519.04
445.187	24403.77
445.394	25704.23
445.6	25024.3
445.807	27571.97
446.013	26367.77
446.22	26691.35
446.426	27989.76
446.633	27840.26
446.839	28815.09
447.046	27502.34
447.252	29368.04
447.459	29181.68
447.665	29069.04
447.871	30396.12
448.078	31692.49
448.284	30332.64
448.491	30961.36
448.697	32245.44
448.903	32440
449.11	32816.82
449.316	32190.14
449.522	32413.37
449.728	33668.78
449.935	33885.86
450.141	33463.98
450.347	34397.85
450.553	33392.3
450.76	33808.04
450.966	34901.65
451.172	34447.01
451.378	35143.31
451.584	34406.05
451.791	35495.57
451.997	35010.2
452.203	35544.72
452.409	35307.15
452.615	35776.14
452.821	33971.88
453.027	33935.01
453.233	35552.91
453.44	33861.29
453.646	34490.01
453.852	34709.15
454.058	34610.84
454.264	33873.57
454.47	34457.24
454.676	33902.25
454.882	34672.28
455.088	31837.89
455.294	32323.26
455.5	32749.24
455.705	32943.8
455.911	31864.52
456.117	31389.39
456.323	30406.36
456.529	29097.71
456.735	30336.73
456.941	29646.57
457.147	29085.42
457.352	27954.94
457.558	27866.88
457.764	27668.23
457.97	27391.75
458.176	26373.91
458.381	26738.45
458.587	25177.9
458.793	25456.42
458.999	23883.58
459.204	25599.78
459.41	24909.61
459.616	23564.1
459.821	23560
460.027	23420.74
460.233	23074.63
460.438	21645.15
460.644	21931.87
460.85	20717.42
461.055	20813.68
461.261	20799.34
461.466	19140.49
461.672	18339.73
461.878	19758.97
462.083	18485.14
462.289	18210.71
462.494	18151.32
462.7	17426.34
462.905	16725.93
463.111	17403.81
463.316	17508.26
463.522	17321.89
463.727	17229.73
463.932	17022.89
464.138	16979.88
464.343	16967.59
464.549	16574.38
464.754	17250.21
464.959	16926.63
465.165	16705.45
465.37	16168.88
465.575	15833.02
465.781	16390.06
465.986	16351.15
466.191	15755.19
466.397	15437.76
466.602	14653.39
466.807	15478.72
467.012	15429.57
467.218	15386.56
467.423	15093.7
467.628	15284.16
467.833	15626.17
468.038	15099.84
468.244	15009.73
468.449	15226.82
468.654	14864.33
468.859	14864.33
469.064	14491.6
469.269	14260.18
469.474	13995.99
469.679	14653.39
469.885	13969.37
470.09	14405.58
470.295	14417.87
470.5	13873.11
470.705	13688.79
470.91	13455.33
471.115	13537.24
471.32	13783
471.525	13666.27
471.73	13131.75
471.935	13379.55
472.139	12736.49
472.344	12818.41
472.549	12992.48
472.754	12546.03
472.959	12333.04
473.164	12249.07
473.369	12208.11
473.574	12247.02
473.778	12107.76
473.983	12242.93
474.188	12218.35
474.393	11624.44
474.598	11737.08
474.802	11679.74
475.007	11483.13
475.212	11395.07
475.417	10958.85
475.621	10942.47
475.826	11216.9
476.031	10919.94
476.235	10676.23
476.44	10778.63
476.645	10598.41
476.849	10680.33
477.054	10633.22
477.259	10395.66
477.463	10430.48
477.668	9981.97
477.872	10137.62
478.077	10078.22
478.282	9357.34
478.486	9838.61
478.691	9797.65
478.895	9605.14
479.1	9676.82
479.304	9685.01
479.509	9197.6
479.713	9525.27
479.918	9459.74
480.122	9218.08
480.326	9240.61
480.531	9435.16
480.735	9183.26
480.94	9191.45
481.144	9347.1
481.348	8945.7
481.553	9099.3
481.757	8953.89
481.961	9127.97
482.166	9216.03
482.37	9078.82
482.574	8970.27
482.778	8949.79
482.983	9234.46
483.187	8939.55
483.391	9173.02
483.595	8992.8
483.8	8736.81
484.004	9117.73
484.208	9127.97
484.412	9037.86
484.616	8982.56
484.821	8970.27
485.025	8779.81
485.229	8953.89
485.433	8966.18
485.637	9031.71
485.841	8874.02
486.045	8902.69
486.249	9046.05
486.453	8882.21
486.657	8953.89
486.861	9054.24
487.065	8990.75
487.269	8779.81
487.473	8810.53
487.677	8933.41
487.881	8898.59
488.085	8859.68
488.289	8925.22
488.493	8824.87
488.697	9164.83
488.901	9046.05
489.105	9082.91
489.309	8951.84
489.512	9152.54
489.716	9103.39
489.92	9070.62
490.124	8931.36
490.328	9373.72
490.531	9109.54
490.735	9279.52
490.939	9146.4
491.143	9132.06
491.346	9398.3
491.55	9361.44
491.754	9347.1
491.958	9289.76
492.161	9250.85
492.365	9328.67
492.569	9535.51
492.772	9517.08
492.976	9617.43
493.18	9676.82
493.383	9746.45
493.587	9803.8
493.79	9861.14
493.994	9703.45
494.197	9971.73
494.401	10106.9
494.605	10096.66
494.808	10393.61
495.012	10278.93
495.215	10307.6
495.419	10291.21
495.622	10510.35
495.825	10352.65
496.029	10625.03
496.232	10661.9
496.436	10704.9
496.639	10831.88
496.843	10901.51
497.046	10938.37
497.249	11354.11
497.453	11347.97
497.656	11417.6
497.859	11315.2
498.063	11468.8
498.266	11958.26
498.469	11732.98
498.673	11800.57
498.876	12083.19
499.079	11937.78
499.282	12199.92
499.485	12629.99
499.689	12523.5
499.892	13019.11
500.095	12830.69
500.298	13158.37
500.501	12965.86
500.705	13350.88
500.908	13137.89
501.111	13725.66
501.314	13623.26
501.517	13932.5
501.72	13832.15
501.923	14096.34
502.126	14444.49
502.329	14510.03
502.532	14723.02
502.735	14663.63
502.938	14835.66
503.141	15097.8
503.344	15110.08
503.547	15482.81
503.75	15652.8
503.953	15607.74
504.156	15792.06
504.359	16162.74
504.562	16150.45
504.765	16457.65
504.968	16566.19
505.17	16646.06
505.373	16955.3
505.576	17149.86
505.779	17356.71
505.982	17452.96
506.185	17633.18
506.387	17618.85
506.59	17844.12
506.793	18263.96
506.996	18225.04
507.198	18694.03
507.401	18403.22
507.604	18671.5
507.807	19189.64
508.009	19275.65
508.212	19273.6
508.415	19711.87
508.617	19900.28
508.82	20230.01
509.022	20062.07
509.225	20559.73
509.428	20930.41
509.63	21041
509.833	21069.67
510.035	21450.6
510.238	21442.4
510.44	21845.85
510.643	22126.43
510.845	22222.68
511.048	22196.06
511.25	22493.01
511.453	22617.94
511.655	23467.84
511.858	22830.93
512.06	23328.58
512.262	23693.12
512.465	23906.11
512.667	23850.81
512.87	24520.5
513.072	24377.14
513.274	25007.92
513.477	24971.05
513.679	25055.02
513.881	25601.83
514.084	26177.31
514.286	26158.88
514.488	25804.58
514.69	26937.1
514.893	27037.45
515.095	26664.72
515.297	27143.95
515.499	27354.89
515.701	27438.86
515.904	27924.22
516.106	28243.71
516.308	28057.34
516.51	28528.38
516.712	28661.49
516.914	29419.24
517.116	29572.84
517.318	29531.88
517.52	30043.87
517.722	29650.66
517.925	30500.57
518.127	30527.19
518.329	31133.39
518.531	30688.98
518.733	31352.52
518.935	31704.77
519.136	31790.79
519.338	32349.89
519.54	32378.56
519.742	32685.75
519.944	32784.05
520.146	33046.19
520.348	33490.6
520.55	33828.52
520.752	33846.95
520.954	34614.94
521.155	34174.63
521.357	34954.9
521.559	35053.2
521.761	35296.91
521.963	35559.05
522.164	35356.3
522.366	35757.71
522.568	36396.67
522.77	36437.63
522.971	36634.24
523.173	36775.55
523.375	37029.49
523.576	37027.45
523.778	37240.43
523.98	37971.56
524.181	38205.03
524.383	38391.39
524.584	38217.32
524.786	38563.42
524.988	38610.53
525.189	38940.25
525.391	39353.94
525.592	39464.53
525.794	40070.73
525.995	39931.47
526.197	39685.71
526.398	40037.96
526.6	40566.34
526.801	40496.7
527.003	41029.18
527.204	40617.53
527.406	41170.49
527.607	41270.84
527.808	41233.97
528.01	40631.87
528.211	41383.48
528.412	42059.3
528.614	41713.2
528.815	41772.59
529.016	42044.97
529.218	41717.29
529.419	42049.07
529.62	42026.54
529.822	42055.21
530.023	42311.21
530.224	42288.68
530.425	42724.89
530.626	42462.75
530.828	42204.71
531.029	43124.25
531.23	42245.67
531.431	42536.48
531.632	42647.07
531.833	42984.99
532.035	43265.56
532.236	43730.45
532.437	43200.02
532.638	42964.51
532.839	43191.83
533.04	43433.49
533.241	43269.65
533.442	44158.47
533.643	43638.29
533.844	43718.16
534.045	43888.14
534.246	43175.45
534.447	43699.73
534.648	43587.09
534.849	44049.93
535.05	43951.63
535.251	43494.93
535.451	43449.88
535.652	43925
535.853	43587.09
536.054	43892.24
536.255	43853.33
536.456	43703.82
536.657	44609.03
536.857	43585.04
537.058	43658.77
537.259	44647.94
537.46	44183.05
537.66	44051.98
537.861	44248.58
538.062	43730.45
538.263	44445.19
538.463	43511.31
538.664	43937.29
538.865	43972.11
539.065	44324.36
539.266	43744.78
539.466	44383.75
539.667	43562.51
539.868	44439.04
540.068	44080.65
540.269	43863.57
540.469	44154.38
540.67	43535.89
540.87	44273.16
541.071	44002.83
541.271	44000.78
541.472	44316.17
541.672	43769.36
541.873	44035.59
542.073	43716.11
542.274	43986.44
542.474	43933.2
542.675	43636.24
542.875	44236.3
543.075	43836.94
543.276	43206.17
543.476	43970.06
543.676	43658.77
543.877	44056.07
544.077	43877.9
544.277	44154.38
544.478	43832.85
544.678	43941.39
544.878	43677.2
545.078	43912.72
545.279	43714.06
545.479	44041.74
545.679	44035.59
545.879	43941.39
546.079	43994.64
546.28	43888.14
546.48	43413.01
546.68	43947.53
546.88	43724.3
547.08	44017.16
547.28	43527.7
547.48	43468.31
547.68	44144.14
547.88	43507.22
548.081	43791.89
548.281	43718.16
548.481	43638.29
548.681	43892.24
548.881	43587.09
549.081	43773.45
549.28	43007.51
549.48	43986.44
549.68	43470.36
549.88	44332.55
550.08	43699.73
550.28	43908.62
550.48	43646.48
550.68	44056.07
550.88	43310.61
551.08	43511.31
551.279	43705.87
551.479	43376.15
551.679	43505.17
551.879	43353.62
552.079	43685.39
552.278	43697.68
552.478	43644.43
552.678	43683.34
552.878	43773.45
553.077	43456.02
553.277	43226.65
553.477	43838.99
553.676	43388.44
553.876	43492.88
554.076	43111.96
554.275	43582.99
554.475	42778.14
554.674	43494.93
554.874	43322.9
555.074	43044.38
555.273	43488.79
555.473	43384.34
555.672	43327
555.872	43161.11
556.071	42941.98
556.271	43316.76
556.47	43132.44
556.67	42968.6
556.869	42716.7
557.068	43335.19
557.268	42516
557.467	42966.56
557.667	42907.16
557.866	42798.62
558.065	42489.38
558.265	42513.95
558.464	42526.24
558.663	42556.96
558.863	42434.08
559.062	42849.82
559.261	42253.86
559.461	42561.06
559.66	41739.82
559.859	42047.02
560.058	42040.87
560.258	41907.76
560.457	41715.25
560.656	42057.26
560.855	41549.36
561.054	41934.38
561.253	41811.5
561.453	41766.45
561.652	42030.63
561.851	42167.85
562.05	41686.57
562.249	41627.18
562.448	41664.05
562.647	41719.34
562.846	41373.24
563.045	41358.9
563.244	40777.28
563.443	41377.33
563.642	40662.59
563.841	40711.74
564.04	40828.48
564.239	41449.01
564.438	40926.78
564.637	41041.46
564.836	40664.64
565.035	40197.7
565.234	40687.17
565.432	40185.41
565.631	40144.45
565.83	40345.16
566.029	39640.65
566.228	40080.97
566.427	39845.45
566.625	39562.83
566.824	39388.75
567.023	39646.8
567.222	39067.22
567.42	39689.81
567.619	39454.29
567.818	39265.88
568.016	39220.82
568.215	39370.32
568.414	39319.12
568.612	39204.44
568.811	38749.79
569.01	39116.37
569.208	38458.98
569.407	38540.89
569.605	38536.8
569.804	38905.43
570.002	38149.73
570.201	38278.75
570.4	38284.9
570.598	38076.01
570.797	38053.48
570.995	38092.39
571.193	37351.02
571.392	37793.39
571.59	37498.48
571.789	37662.32
571.987	37176.95
572.186	37062.26
572.384	37103.22
572.582	37502.57
572.781	36914.81
572.979	36599.42
573.177	36994.68
573.376	37090.93
573.574	36576.89
573.772	37015.16
573.971	36234.88
574.169	36576.89
574.367	36281.99
574.565	36411.01
574.763	36255.36
574.962	36316.8
575.16	35724.94
575.358	36275.84
575.556	35782.28
575.754	36183.68
575.952	35260.05
576.151	36124.29
576.349	35022.48
576.547	35495.57
576.745	35260.05
576.943	34977.43
577.141	35126.93
577.339	35094.16
577.537	35149.46
577.735	35059.35
577.933	34561.69
578.131	34959
578.329	34836.12
578.527	34387.61
578.725	34803.35
578.923	34346.65
579.121	33953.44
579.319	34010.79
579.516	33777.32
579.714	34102.95
579.912	34320.03
580.11	33937.06
580.308	33668.78
580.506	33910.44
580.704	33013.43
580.901	33556.14
581.099	33625.77
581.297	33296.05
581.495	33261.23
581.692	33173.17
581.89	32757.43
582.088	33189.55
582.285	33152.69
582.483	32954.04
582.681	32931.51
582.878	32509.63
583.076	32313.02
583.274	32753.33
583.471	32177.86
583.669	32421.56
583.866	32259.77
584.064	32392.89
584.262	31831.75
584.459	32239.29
584.657	31829.7
584.854	32511.67
585.052	31608.52
585.249	31735.49
585.447	31792.84
585.644	31387.34
585.841	31266.51
586.039	31665.86
586.236	30916.31
586.434	31434.44
586.631	30969.55
586.828	30748.37
587.026	30789.33
587.223	30699.22
587.42	30617.3
587.618	30828.24
587.815	30299.87
588.012	30095.07
588.21	30164.7
588.407	30418.65
588.604	29953.76
588.801	30037.73
588.999	30162.65
589.196	29953.76
589.393	29830.88
589.59	29796.07
589.787	29660.9
589.984	29380.33
590.182	29394.67
590.379	29779.68
590.576	29376.23
590.773	29447.91
590.97	28985.07
591.167	29163.25
591.364	28657.4
591.561	29079.28
591.758	28727.03
591.955	28663.54
592.152	28874.48
592.349	28802.8
592.546	28569.33
592.743	28530.42
592.94	27934.46
593.137	28491.51
593.334	28505.85
593.531	28118.78
593.727	28016.38
593.924	28055.29
594.121	27631.37
594.318	27680.52
594.515	27758.34
594.712	28159.74
594.908	27477.77
595.105	27539.21
595.302	27254.54
595.499	27531.01
595.696	27426.57
595.892	27088.65
596.089	27535.11
596.286	27051.79
596.482	27135.76
596.679	27117.32
596.876	26953.49
597.072	26894.1
597.269	26537.75
597.466	26746.64
597.662	26521.37
597.859	26568.47
598.055	26554.13
598.252	26029.85
598.448	26384.15
598.645	26031.9
598.841	25886.5
599.038	26115.87
599.234	25802.53
599.431	25431.85
599.627	25397.03
599.824	25622.31
600.02	25618.21
600.217	25415.46
600.413	25220.91
600.609	25554.72
600.806	24811.31
601.002	25294.63
601.198	24915.76
601.395	24917.81
601.591	24780.59
601.787	25292.58
601.984	24713.01
602.18	24803.12
602.376	24540.98
602.572	24442.68
602.769	24645.43
602.965	24325.94
603.161	24368.95
603.357	24127.29
603.553	23807.81
603.75	24153.91
603.946	23740.22
604.142	24190.78
604.338	23494.47
604.534	24268.6
604.73	23711.55
604.926	23570.24
605.122	23748.42
605.318	23631.68
605.514	23217.99
605.71	23361.35
605.906	23355.21
606.102	23119.69
606.298	23127.88
606.494	22994.76
606.69	22849.36
606.886	23023.44
607.082	22853.45
607.278	22798.16
607.474	22394.71
607.67	22697.81
607.866	22626.13
608.062	22841.17
608.257	22576.98
608.453	22632.27
608.649	22519.64
608.845	22351.7
609.041	22488.92
609.236	22331.22
609.432	22138.71
609.628	22263.64
609.824	22105.95
610.019	21913.44
610.215	22099.8
610.411	22161.24
610.606	21935.96
610.802	22132.57
610.998	21579.62
611.193	21974.88
611.389	21657.44
611.584	21712.74
611.78	21741.41
611.976	21512.03
612.171	21602.15
612.367	21421.92
612.562	21555.04
612.758	21233.51
612.953	21100.39
613.149	21423.97
613.344	21231.46
613.539	21438.31
613.735	21061.48
613.93	21571.43
614.126	20744.05
614.321	21274.47
614.517	21137.26
614.712	20911.98
614.907	20903.79
615.103	21038.95
615.298	20723.57
615.493	21061.48
615.688	20639.6
615.884	21172.07
616.079	20547.44
616.274	20498.29
616.47	20647.79
616.665	20643.7
616.86	20416.37
617.055	20440.95
617.25	20250.49
617.445	20420.47
617.641	20109.18
617.836	20496.24
618.031	20254.58
618.226	20086.65
618.421	20117.37
618.616	20057.98
618.811	19435.39
619.006	20094.84
619.201	19632
619.396	19648.38
619.591	19244.93
619.786	19758.97
619.981	19482.5
620.176	19607.42
620.371	18964.36
620.566	19228.55
620.761	19117.96
620.956	19177.35
621.151	18915.21
621.346	19044.23
621.541	18593.68
621.735	18972.55
621.93	18542.48
622.125	18663.31
622.32	18268.05
622.515	18466.7
622.709	18292.63
622.904	18225.04
623.099	18063.26
623.294	18079.64
623.488	17629.09
623.683	17987.48
623.878	17461.15
624.072	17649.57
624.267	17555.36
624.462	17467.3
624.656	17375.14
624.851	17350.56
625.046	17270.69
625.24	16998.31
625.435	16867.24
625.629	16992.17
625.824	16601.01
626.018	16656.3
626.213	16428.98
626.407	16543.66
626.602	15962.04
626.796	16334.77
626.991	16433.07
627.185	15886.26
627.38	16287.67
627.574	15753.15
627.768	15984.57
627.963	15767.48
628.157	15480.77
628.352	15636.41
628.546	15181.76
628.74	15777.72
628.935	15433.66
629.129	15431.62
629.323	15179.72
629.517	15005.64
629.712	15013.83
629.906	14878.66
630.1	14626.76
630.294	14813.13
630.489	14612.43
630.683	14749.64
630.877	14493.65
631.071	14473.17
631.265	14661.58
631.459	14139.35
631.653	14131.16
631.848	14317.52
632.042	14030.8
632.236	14057.43
632.43	13909.97
632.624	14002.13
632.818	13799.38
633.012	13584.35
633.206	13662.17
633.4	13649.88
633.594	13113.31
633.788	13307.87
633.982	13567.96
634.176	13217.76
634.369	13268.96
634.563	13086.69
634.757	13027.3
634.951	13072.36
635.145	12806.12
635.339	12871.65
635.533	12666.86
635.726	12724.2
635.92	12449.77
636.114	12750.82
636.308	12296.18
636.501	12658.67
636.695	12269.55
636.889	12249.07
637.083	12056.56
637.276	12173.3
637.47	11915.25
637.664	11905.01
637.857	12042.23
638.051	11929.59
638.244	11704.31
638.438	11687.93
638.632	11681.78
638.825	11640.83
639.019	11591.67
639.212	11307.01
639.406	11677.69
639.599	11405.31
639.793	11571.19
639.986	11335.68
640.18	11110.4
640.373	11018.24
640.567	11003.91
640.76	10965
640.954	11020.29
641.147	10811.4
641.34	10792.97
641.534	10803.21
641.727	10526.73
641.92	10760.2
642.114	10625.03
642.307	10539.02
642.5	10483.72
642.694	10358.8
642.887	10377.23
643.08	10237.97
643.273	10264.59
643.467	10272.78
643.66	9981.97
643.853	9922.58
644.046	9877.52
644.239	9916.44
644.432	9676.82
644.626	9928.72
644.819	9693.21
645.012	9816.08
645.205	9826.32
645.398	9848.85
645.591	9527.32
645.784	9404.44
645.977	9400.35
646.17	9422.87
646.363	9453.59
646.556	9334.81
646.749	9353.24
646.942	9232.41
647.135	9216.03
647.328	9295.9
647.521	8998.95
647.714	8939.55
647.907	9162.78
648.099	8917.03
648.292	8765.48
648.485	8962.08
648.678	8912.93
648.871	8618.02
649.064	8693.8
649.256	8812.58
649.449	8626.22
649.642	8554.54
649.835	8562.73
650.027	8466.47
650.22	8515.62
650.413	8284.2
650.605	8378.41
650.798	8284.2
650.991	8118.32
651.183	8372.27
651.376	8314.92
651.568	8224.81
651.761	7940.15
651.954	7966.77
652.146	8271.92
652.339	7839.8
652.531	7958.58
652.724	7940.15
652.916	7671.86
653.109	7669.81
653.301	7774.26
653.494	7710.77
653.686	7725.11
653.879	7743.54
654.071	7680.05
654.263	7557.18
654.456	7374.91
654.648	7637.05
654.84	7440.44
655.033	7204.92
655.225	7419.96
655.417	7350.33
655.61	7389.24
655.802	7391.29
655.994	7206.97
656.186	7256.12
656.379	7075.9
656.571	7147.58
656.763	7020.61
656.955	7235.64
657.148	6889.54
657.34	7053.38
657.532	6881.35
657.724	6910.02
657.916	6914.11
658.108	6883.39
658.3	6750.28
658.492	6967.36
658.684	6723.65
658.876	6785.09
659.068	6541.38
659.26	6690.88
659.452	6457.42
659.644	6578.25
659.836	6443.08
660.028	6735.94
660.22	6400.07
660.412	6580.29
660.604	6414.41
660.796	6295.63
660.988	6330.44
661.18	6309.96
661.372	6404.17
661.563	6271.05
661.755	6015.05
661.947	6195.28
662.139	6094.93
662.331	6123.6
662.522	6004.82
662.714	6062.16
662.906	5961.81
663.097	5926.99
663.289	5920.85
663.481	5824.59
663.673	6060.11
663.864	5812.31
664.056	5818.45
664.247	5826.64
664.439	5697.62
664.631	5738.58
664.822	5685.33
665.014	5703.76
665.205	5789.78
665.397	5556.31
665.588	5783.63
665.78	5576.79
665.971	5625.94
666.163	5564.5
666.354	5699.67
666.546	5525.59
666.737	5501.01
666.929	5564.5
667.12	5539.93
667.311	5361.75
667.503	5351.51
667.694	5333.08
667.885	5290.07
668.077	5380.18
668.268	5206.11
668.459	5294.17
668.651	5294.17
668.842	5253.21
669.033	5302.36
669.224	5130.33
669.416	5326.94
669.607	5113.95
669.798	5146.72
669.989	5058.65
670.18	5171.29
670.371	5081.18
670.563	5058.65
670.754	5027.93
670.945	4966.49
671.136	5023.84
671.327	5113.95
671.518	4898.91
671.709	5003.36
671.9	5038.17
672.091	4964.45
672.282	4870.24
672.473	4960.35
672.664	4841.57
672.855	4884.58
673.046	4933.73
673.237	4816.99
673.428	4894.82
673.619	4763.75
673.809	4827.23
674	4778.08
674.191	4876.38
674.382	4796.51
674.573	4767.84
674.764	4878.43
674.954	4733.03
675.145	4659.3
675.336	4565.09
675.527	4561
675.717	4753.51
675.908	4751.46
676.099	4714.59
676.289	4653.16
676.48	4569.19
676.671	4679.78
676.861	4632.68
677.052	4522.09
677.243	4669.54
677.433	4561
677.624	4542.57
677.814	4485.22
678.005	4548.71
678.195	4450.41
678.386	4544.61
678.576	4542.57
678.767	4458.6
678.957	4409.45
679.148	4520.04
679.338	4532.33
679.529	4556.9
679.719	4477.03
679.909	4663.4
680.1	4388.97
680.29	4579.43
680.481	4569.19
680.671	4468.84
680.861	4499.56
681.052	4515.94
681.242	4546.66
681.432	4499.56
681.622	4372.58
681.813	4431.98
682.003	4499.56
682.193	4374.63
682.383	4548.71
682.573	4225.13
682.764	4536.42
682.954	4438.12
683.144	4466.79
683.334	4331.62
683.524	4302.95
683.714	4335.72
683.904	4231.27
684.094	4311.14
684.284	4278.38
684.474	4360.3
684.664	4194.41
684.854	4321.38
685.044	4399.21
685.234	4169.84
685.424	4300.91
685.614	4227.18
685.804	4286.57
685.994	4290.67
686.184	4212.84
686.374	4255.85
686.564	4208.75
686.753	4237.42
686.943	4081.77
687.133	4161.64
687.323	4155.5
687.513	4188.27
687.702	4139.12
687.892	4085.87
688.082	4034.67
688.272	4022.38
688.461	3936.37
688.651	3909.74
688.841	4026.48
689.03	4034.67
689.22	4008.05
689.41	4075.63
689.599	3811.44
689.789	3952.75
689.979	3885.17
690.168	3930.22
690.358	3645.56
690.547	3874.93
690.737	3866.74
690.926	3758.19
691.116	3745.91
691.305	3913.84
691.495	3790.96
691.684	3786.86
691.874	3799.15
692.063	3745.91
692.252	3821.68
692.442	3909.74
692.631	3840.11
692.82	3719.28
693.01	3653.75
693.199	3725.43
693.388	3680.37
693.578	3635.32
693.767	3692.66
693.956	3672.18
694.146	3530.87
694.335	3594.36
694.524	3647.6
694.713	3614.84
694.902	3655.79
695.092	3524.72
695.281	3434.61
695.47	3582.07
695.659	3410.04
695.848	3553.4
696.037	3420.28
696.226	3668.08
696.415	3481.72
696.604	3594.36
696.793	3416.18
696.982	3371.13
697.171	3369.08
697.36	3514.49
697.549	3422.33
697.738	3403.89
697.927	3391.61
698.116	3326.07
698.305	3369.08
698.494	3299.45
698.683	3348.6
698.872	3502.2
699.061	3375.22
699.25	3465.33
699.438	3453.05
699.627	3262.58
699.816	3356.79
700.005	3297.4
700.193	3348.6
700.382	3403.89
700.571	3307.64
700.76	3285.11
700.948	3481.72
701.137	3319.93
701.326	3391.61
701.514	3293.3
701.703	3379.32
701.892	3305.59
702.08	3436.66
702.269	3383.42
702.457	3295.35
702.646	3459.19
702.834	3217.53
703.023	3336.31
703.212	3297.4
703.4	3301.5
703.589	3346.55
703.777	3315.83
703.965	3258.49
704.154	3188.86
704.342	3303.54
704.531	3278.97
704.719	3285.11
704.907	3342.46
705.096	3305.59
705.284	3424.37
705.472	3274.87
705.661	3244.15
705.849	3362.94
706.037	3315.83
706.226	3311.74
706.414	3301.5
706.602	3225.72
706.79	3317.88
706.979	3352.7
707.167	3326.07
707.355	3254.39
707.543	3412.09
707.731	3301.5
707.919	3336.31
708.107	3313.78
708.296	3250.3
708.484	3344.5
708.672	3311.74
708.86	3274.87
709.048	3330.17
709.236	3315.83
709.424	3156.09
709.612	3324.02
709.8	3248.25
709.988	3276.92
710.176	3344.5
710.364	3354.74
710.551	3278.97
710.739	3506.29
710.927	3315.83
711.115	3197.05
711.303	3362.94
711.491	3379.32
711.679	3205.24
711.866	3205.24
712.054	3367.03
712.242	3317.88
712.43	3338.36
712.617	3184.76
712.805	3182.71
712.993	3330.17
713.181	3207.29
713.368	3246.2
713.556	3397.75
713.744	3192.95
713.931	3434.61
714.119	3332.22
714.306	3330.17
714.494	3356.79
714.682	3311.74
714.869	3147.9
715.057	3371.13
715.244	3344.5
715.432	3354.74
715.619	3326.07
715.807	3389.56
715.994	3162.23
716.182	3160.19
716.369	3256.44
716.556	3250.3
716.744	3389.56
716.931	3315.83
717.119	3297.4
717.306	3295.35
717.493	3240.06
717.681	3270.78
717.868	3270.78
718.055	3338.36
718.242	3258.49
718.43	3379.32
718.617	3317.88
718.804	3434.61
718.991	3295.35
719.179	3242.11
719.366	3410.04
719.553	3299.45
719.74	3301.5
719.927	3418.23
720.114	3395.7
720.301	3401.85
720.488	3201.15
720.676	3244.15
720.863	3315.83
721.05	3373.18
721.237	3268.73
721.424	3311.74
721.611	3326.07
721.798	3498.1
721.985	3260.54
722.172	3364.98
722.358	3246.2
722.545	3188.86
722.732	3223.67
722.919	3172.47
723.106	3324.02
723.293	3260.54
723.48	3283.06
723.667	3297.4
723.853	3311.74
724.04	3299.45
724.227	3410.04
724.414	3422.33
724.6	3197.05
724.787	3246.2
724.974	3213.43
725.161	3242.11
725.347	3223.67
725.534	3270.78
725.72	3215.48
725.907	3207.29
726.094	3244.15
726.28	3106.94
726.467	3143.8
726.653	3242.11
726.84	3225.72
727.027	3258.49
727.213	3223.67
727.4	3334.26
727.586	3182.71
727.773	3246.2
727.959	3162.23
728.145	3293.3
728.332	3170.43
728.518	3186.81
728.705	3207.29
728.891	3215.48
729.077	3182.71
729.264	3262.58
729.45	3106.94
729.636	3268.73
729.823	3096.7
730.009	3287.16
730.195	3209.34
730.382	3147.9
730.568	3184.76
730.754	3135.61
730.94	3229.82
731.126	3235.96
731.313	3188.86
731.499	3195
731.685	3164.28
731.871	3186.81
732.057	3127.42
732.243	3229.82
732.429	3162.23
732.615	3348.6
732.801	3119.23
732.987	3174.52
733.173	3100.8
733.359	3094.65
733.545	3090.56
733.731	3117.18
733.917	3135.61
734.103	3217.53
734.289	3145.85
734.475	3004.54
734.661	3123.32
734.847	3129.47
735.033	3074.17
735.219	3104.89
735.404	3082.36
735.59	3111.04
735.776	3041.4
735.962	3090.56
736.148	3151.99
736.333	2996.35
736.519	3029.12
736.705	3149.95
736.89	2902.14
737.076	2930.81
737.262	3055.74
737.447	2951.29
737.633	2906.24
737.819	3055.74
738.004	2885.76
738.19	2867.33
738.375	3022.97
738.561	3076.22
738.747	2836.61
738.932	2871.42
739.118	3014.78
739.303	2934.91
739.489	2963.58
739.674	2816.13
739.859	2889.85
740.045	3065.98
740.23	2924.67
740.416	2812.03
740.601	2926.72
740.786	2967.68
740.972	2914.43
741.157	2803.84
741.342	2863.23
741.528	2816.13
741.713	2750.59
741.898	2773.12
742.084	2828.42
742.269	2797.7
742.454	2777.22
742.639	2826.37
742.824	2791.55
743.01	2820.22
743.195	2789.5
743.38	2730.11
743.565	2687.11
743.75	2703.49
743.935	2637.95
744.12	2629.76
744.305	2625.67
744.49	2656.39
744.675	2625.67
744.86	2689.15
745.045	2549.89
745.23	2582.66
745.415	2560.13
745.6	2654.34
745.785	2443.4
745.97	2553.99
746.155	2525.32
746.34	2437.25
746.525	2470.02
746.71	2433.16
746.895	2461.83
747.079	2445.45
747.264	2445.45
747.449	2429.06
747.634	2388.1
747.819	2408.58
748.003	2443.4
748.188	2408.58
748.373	2388.1
748.557	2328.71
748.742	2306.18
748.927	2261.13
749.111	2365.57
749.296	2222.22
749.481	2345.09
749.665	2179.21
749.85	2115.72
750.034	2279.56
750.219	2189.45
750.404	2271.37
750.588	2150.54
750.773	2117.77
750.957	2218.12
751.141	2207.88
751.326	2111.63
751.51	2101.39
751.695	2015.37
751.879	2011.28
752.064	2066.57
752.248	1994.89
752.432	2033.8
752.617	1986.7
752.801	2056.33
752.985	2021.52
753.17	2070.67
753.354	1923.21
753.538	1906.83
753.722	1902.73
753.907	1765.52
754.091	1867.92
754.275	1867.92
754.459	1843.34
754.643	1790.1
754.828	1904.78
755.012	1775.76
755.196	1765.52
755.38	1898.64
755.564	1824.91
755.748	1771.66
755.932	1702.03
756.116	1691.79
756.3	1736.85
756.484	1673.36
756.668	1722.51
756.852	1730.7
757.036	1665.17
757.22	1640.59
757.404	1685.65
757.588	1691.79
757.772	1695.89
757.956	1636.5
758.14	1644.69
758.323	1550.48
758.507	1624.21
758.691	1605.78
758.875	1654.93
759.059	1630.35
759.242	1550.48
759.426	1552.53
759.61	1632.4
759.794	1556.63
759.977	1468.56
760.161	1597.59
760.345	1591.44
760.528	1446.04
760.712	1446.04
760.895	1411.22
761.079	1454.23
761.263	1464.47
761.446	1360.02
761.63	1427.6
761.813	1450.13
761.997	1357.97
762.18	1392.79
762.364	1384.6
762.547	1286.3
762.731	1355.93
762.914	1409.17
763.098	1294.49
763.281	1319.06
763.464	1345.69
763.648	1360.02
763.831	1314.97
764.015	1368.21
764.198	1392.79
764.381	1278.1
764.564	1312.92
764.748	1255.58
764.931	1335.45
765.114	1304.73
765.297	1317.01
765.481	1276.06
765.664	1296.53
765.847	1239.19
766.03	1253.53
766.213	1239.19
766.397	1224.86
766.58	1286.3
766.763	1294.49
766.946	1153.18
767.129	1247.38
767.312	1276.06
767.495	1134.75
767.678	1165.46
767.861	1280.15
768.044	1114.27
768.227	1149.08
768.41	1161.37
768.593	1296.53
768.776	1140.89
768.959	1169.56
769.142	1202.33
769.324	1185.94
769.507	1206.42
769.69	1187.99
769.873	1110.17
770.056	1163.42
770.239	1089.69
770.421	1130.65
770.604	1161.37
770.787	1089.69
770.97	1038.49
771.152	1079.45
771.335	1097.88
771.518	1026.2
771.7	1077.4
771.883	1124.51
772.066	1065.11
772.248	1101.98
772.431	972.96
772.613	1001.63
772.796	1022.11
772.978	981.15
773.161	1003.68
773.343	870.56
773.526	1026.2
773.708	870.56
773.891	952.48
774.073	948.38
774.256	919.71
774.438	1030.3
774.621	975
774.803	936.09
774.985	983.2
775.168	1034.39
775.35	983.2
775.532	1099.93
775.715	817.31
775.897	921.76
776.079	919.71
776.261	919.71
776.444	837.79
776.626	854.17
776.808	913.56
776.99	866.46
777.173	925.85
777.355	839.84
777.537	852.13
777.719	829.6
777.901	841.89
778.083	837.79
778.265	790.69
778.447	854.17
778.629	788.64
778.811	774.3
778.993	729.25
779.175	850.08
779.357	798.88
779.539	833.69
779.721	843.93
779.903	747.68
780.085	743.58
780.267	798.88
780.449	739.49
780.631	780.45
780.812	788.64
780.994	759.97
781.176	680.1
781.358	729.25
781.54	639.14
781.721	704.67
781.903	655.52
782.085	663.71
782.267	655.52
782.448	632.99
782.63	669.86
782.812	620.71
782.993	655.52
783.175	669.86
783.357	669.86
783.538	669.86
783.72	688.29
783.901	532.64
784.083	579.75
784.264	702.62
784.446	630.95
784.627	561.31
784.809	622.75
784.99	567.46
785.172	569.51
785.353	567.46
785.535	540.83
785.716	485.54
785.897	551.07
786.079	579.75
786.26	510.11
786.441	567.46
786.623	563.36
786.804	501.92
786.985	456.87
787.167	510.11
787.348	499.88
787.529	512.16
787.71	637.09
787.891	526.5
788.073	469.16
788.254	417.96
788.435	506.02
788.616	483.49
788.797	473.25
788.978	544.93
789.159	422.05
789.34	499.88
789.522	454.82
789.703	493.73
789.884	546.98
790.065	454.82
790.246	528.55
790.427	467.11
790.607	528.55
790.788	518.31
790.969	489.64
791.15	471.2
791.331	452.77
791.512	428.2
791.693	403.62
791.874	475.3
792.054	444.58
792.235	508.07
792.416	358.57
792.597	450.72
792.778	442.53
792.958	534.69
793.139	483.49
793.32	362.66
793.5	442.53
793.681	485.54
793.862	374.95
794.042	387.24
794.223	413.86
794.404	391.33
794.584	393.38
794.765	374.95
794.945	352.42
795.126	362.66
795.306	366.76
795.487	403.62
795.667	370.85
795.848	456.87
796.028	338.09
796.209	401.57
796.389	301.22
796.57	350.37
796.75	237.74
796.93	272.55
797.111	331.94
797.291	360.61
797.471	370.85
797.652	346.28
797.832	399.52
798.012	329.89
798.192	262.31
798.373	260.26
798.553	325.8
798.733	358.57
798.913	327.85
799.093	309.41
799.274	331.94
799.454	411.81
799.634	293.03
799.814	329.89
799.994	274.6
800.174	309.41
800.354	284.84
800.534	266.41
800.714	370.85
800.894	311.46
801.074	329.89
801.254	274.6
801.434	342.18
801.614	286.89
801.794	280.74
801.974	858.27
802.154	229.54
802.334	313.51
802.514	325.8
802.693	288.93
802.873	166.06
803.053	303.27
803.233	331.94
803.413	241.83
803.592	194.73
803.772	262.31
803.952	266.41
804.131	196.78
804.311	368.81
804.491	268.45
804.67	254.12
804.85	301.22
805.03	290.98
805.209	250.02
805.389	280.74
805.568	307.37
805.748	245.93
805.928	262.31
806.107	268.45
806.287	280.74
806.466	260.26
806.646	252.07
806.825	250.02
807.004	270.5
807.184	262.31
807.363	196.78
807.543	227.5
807.722	309.41
807.901	217.26
808.081	280.74
808.26	243.88
808.439	227.5
808.619	211.11
808.798	211.11
808.977	245.93
809.156	313.51
809.336	286.89
809.515	254.12
809.694	225.45
809.873	221.35
810.052	280.74
810.231	213.16
810.411	207.02
810.59	256.17
810.769	221.35
810.948	213.16
811.127	139.43
811.306	141.48
811.485	180.39
811.664	229.54
811.843	151.72
812.022	217.26
812.201	217.26
812.38	207.02
812.559	127.14
812.737	217.26
812.916	174.25
813.095	215.21
813.274	297.13
813.453	186.54
813.632	153.77
813.811	63.66
813.989	258.21
814.168	178.34
814.347	166.06
814.526	170.15
814.704	379.04
814.883	170.15
815.062	194.73
815.24	131.24
815.419	137.38
815.598	235.69
815.776	155.82
815.955	166.06
816.133	143.53
816.312	198.82
816.49	213.16
816.669	141.48
816.847	180.39
817.026	266.41
817.204	174.25
817.383	243.88
817.561	143.53
817.74	186.54
817.918	149.67
818.097	190.63
818.275	217.26
818.453	161.96
818.632	196.78
818.81	127.14
818.988	114.86
819.167	223.4
819.345	147.62
819.523	168.1
819.701	174.25
819.879	157.86
820.058	157.86
820.236	186.54
820.414	157.86
820.592	84.14
820.77	125.1
820.948	157.86
821.127	145.58
821.305	207.02
821.483	141.48
821.661	133.29
821.839	112.81
822.017	100.52
822.195	51.37
822.373	207.02
822.551	98.47
822.729	129.19
822.907	108.71
823.085	149.67
823.262	102.57
823.44	137.38
823.618	112.81
823.796	145.58
823.974	104.62
824.152	168.1
824.329	125.1
824.507	125.1
824.685	215.21
824.863	127.14
825.04	80.04
825.218	104.62
825.396	180.39
825.574	53.42
825.751	80.04
825.929	145.58
826.107	145.58
826.284	67.75
826.462	57.51
826.639	77.99
826.817	164.01
826.994	112.81
827.172	121
827.349	174.25
827.527	143.53
827.704	82.09
827.882	133.29
828.059	65.71
828.237	59.56
828.414	84.14
828.591	63.66
828.769	143.53
828.946	123.05
829.124	209.06
829.301	125.1
829.478	104.62
829.655	67.75
829.833	112.81
830.01	80.04
830.187	151.72
830.364	104.62
830.542	145.58
830.719	184.49
830.896	139.43
831.073	121
831.25	174.25
831.427	102.57
831.604	121
831.782	98.47
831.959	112.81
832.136	180.39
832.313	112.81
832.49	75.95
832.667	123.05
832.844	84.14
833.021	98.47
833.198	47.27
833.374	69.8
833.551	61.61
833.728	149.67
833.905	141.48
834.082	53.42
834.259	49.32
834.436	116.9
834.612	98.47
834.789	82.09
834.966	151.72
835.143	182.44
835.319	92.33
835.496	63.66
835.673	90.28
835.85	69.8
836.026	43.18
836.203	41.13
836.38	108.71
836.556	104.62
836.733	100.52
836.909	112.81
837.086	69.8
837.262	39.08
837.439	121
837.616	41.13
837.792	51.37
837.968	73.9
838.145	67.75
838.321	34.99
838.498	108.71
838.674	98.47
838.851	90.28
839.027	123.05
839.203	59.56
839.38	145.58
839.556	57.51
839.732	92.33
839.909	39.08
840.085	10.41
840.261	75.95
840.437	90.28
840.614	55.47
840.79	84.14
840.966	149.67
841.142	131.24
841.318	161.96
841.494	71.85
841.671	75.95
841.847	-18.26
842.023	77.99
842.199	100.52
842.375	106.67
842.551	123.05
842.727	86.19
842.903	118.95
843.079	77.99
843.255	61.61
843.431	39.08
843.607	88.23
843.783	75.95
843.959	92.33
844.134	57.51
844.31	112.81
844.486	-16.21
844.662	67.75
844.838	-5.97
845.013	118.95
845.189	73.9
845.365	67.75
845.541	98.47
845.716	106.67
845.892	34.99
846.068	125.1
846.244	67.75
846.419	55.47
846.595	43.18
846.77	112.81
846.946	26.79
847.122	59.56
847.297	77.99
847.473	55.47
847.648	0.17
847.824	80.04
847.999	2.22
848.175	32.94
848.35	73.9
848.526	139.43
848.701	116.9
848.876	84.14
849.052	59.56
849.227	94.38
849.403	-16.21
849.578	51.37
849.753	49.32
849.929	123.05
850.104	-20.31
850.279	82.09
850.454	73.9
850.63	108.71
850.805	57.51
850.98	53.42
851.155	20.65
851.33	69.8
851.505	51.37
851.681	82.09
851.856	0.17
852.031	41.13
852.206	20.65
852.381	47.27
852.556	59.56
852.731	67.75
852.906	67.75
853.081	-14.17
853.256	77.99
853.431	8.36
853.606	84.14
853.781	30.89
853.956	-12.12
854.131	98.47
854.305	-14.17
854.48	43.18
854.655	37.03
854.83	-12.12
855.005	57.51
855.18	18.6
855.354	22.7
855.529	61.61
855.704	-40.79
855.879	108.71
856.053	2.22
856.228	2.22
856.403	8.36
856.577	-26.45
856.752	-5.97
856.926	53.42
857.101	51.37
857.276	75.95
857.45	71.85
857.625	84.14
857.799	37.03
857.974	39.08
858.148	24.75
858.323	53.42
858.497	0.17
858.672	26.79
858.846	-1.88
859.02	84.14
859.195	-26.45
859.369	37.03
859.543	-30.55
859.718	63.66
859.892	80.04
860.066	88.23
860.241	-30.55
860.415	41.13
860.589	26.79
860.763	39.08
860.938	73.9
861.112	84.14
861.286	-22.36
861.46	6.31
861.634	22.7
861.808	20.65
861.982	43.18
862.157	18.6
862.331	-12.12
862.505	18.6
862.679	12.46
862.853	39.08
863.027	-22.36
863.201	34.99
863.375	57.51
863.549	41.13
863.722	20.65
863.896	37.03
864.07	-48.98
864.244	14.51
864.418	90.28
864.592	20.65
864.766	14.51
864.939	-14.17
865.113	2.22
865.287	59.56
865.461	30.89
865.634	75.95
865.808	71.85
865.982	0.17
866.156	-14.17
866.329	0.17
866.503	22.7
866.676	30.89
866.85	37.03
867.024	20.65
867.197	55.47
867.371	43.18
867.544	18.6
867.718	-40.79
867.891	41.13
868.065	10.41
868.238	6.31
868.412	55.47
868.585	22.7
868.759	-3.93
868.932	-5.97
869.105	-38.74
869.279	2.22
869.452	2.22
869.625	2.22
869.799	26.79
869.972	43.18
870.145	16.55
870.319	-5.97
870.492	39.08
870.665	-26.45
870.838	28.84
871.011	-20.31
871.185	61.61
871.358	43.18
871.531	53.42
871.704	-24.4
871.877	2.22
872.05	-34.64
872.223	-34.64
872.396	2.22
872.569	45.23
872.742	108.71
872.915	49.32
873.088	-16.21
873.261	20.65
873.434	96.43
873.607	51.37
873.78	30.89
873.953	71.85
874.126	-12.12
874.299	26.79
874.471	28.84
874.644	24.75
874.817	51.37
874.99	84.14
875.163	0.17
875.335	55.47
875.508	16.55
875.681	73.9
875.853	24.75
876.026	2.22
876.199	24.75
876.371	86.19
876.544	4.27
876.717	8.36
876.889	-51.03
877.062	2.22
877.234	-8.02
877.407	-20.31
877.579	63.66
877.752	24.75
877.924	30.89
878.097	-1.88
878.269	61.61
878.442	-67.41
878.614	16.55
878.786	20.65
878.959	75.95
879.131	30.89
879.303	-55.12
879.476	-5.97
879.648	45.23
879.82	-18.26
879.993	77.99
880.165	-71.51
880.337	-26.45
880.509	41.13
880.681	65.71
880.854	30.89
881.026	110.76
881.198	65.71
881.37	-8.02
881.542	14.51
881.714	-32.6
881.886	-16.21
882.058	8.36
882.23	32.94
882.402	-1.88
882.574	57.51
882.746	10.41
882.918	16.55
883.09	2.22
883.262	-34.64
883.434	2.22
883.606	-42.84
883.778	-22.36
883.95	26.79
884.122	22.7
884.293	18.6
884.465	26.79
884.637	57.51
884.809	6.31
884.98	18.6
885.152	-5.97
885.324	22.7
885.496	39.08
885.667	32.94
885.839	41.13
886.011	94.38
886.182	59.56
886.354	26.79
886.525	-24.4
886.697	22.7
886.869	-3.93
887.04	-42.84
887.212	51.37
887.383	41.13
887.555	-18.26
887.726	71.85
887.897	2.22
888.069	34.99
888.24	63.66
888.412	28.84
888.583	-28.5
888.754	80.04
888.926	-36.69
889.097	22.7
889.268	59.56
889.44	41.13
889.611	-10.07
889.782	84.14
889.953	-61.27
890.125	39.08
890.296	2.22
890.467	22.7
890.638	6.31
890.809	39.08
890.98	-28.5
891.151	59.56
891.323	24.75
891.494	-18.26
891.665	-20.31
891.836	-32.6
892.007	-5.97
892.178	2.22
892.349	-1.88
892.52	-22.36
892.691	26.79
892.862	45.23
893.032	-18.26
893.203	-16.21
893.374	75.95
893.545	8.36
893.716	-51.03
893.887	47.27
894.057	43.18
894.228	-12.12
894.399	47.27
894.57	-20.31
894.74	26.79
894.911	61.61
895.082	-8.02
895.253	2.22
895.423	34.99
895.594	45.23
895.764	51.37
895.935	-73.56
896.106	32.94
896.276	12.46
896.447	-18.26
896.617	34.99
896.788	0.17
896.958	-40.79
897.129	-51.03
897.299	24.75
897.47	-69.46
897.64	20.65
897.81	24.75
897.981	10.41
898.151	-42.84
898.322	63.66
898.492	-44.88
898.662	41.13
898.832	-22.36
899.003	37.03
899.173	32.94
899.343	32.94
899.513	-44.88
