Data from USB4F104151__214__10-29-57-003.txt Node

Date: Wed Mar 12 10:29:57 EDT 2025
User: louis
Spectrometer: USB4F10415
Trigger mode: 4
Integration Time (sec): 3.000000E-2
Scans to average: 1
Electric dark correction enabled: true
Nonlinearity correction enabled: false
Boxcar width: 0
XAxis mode: Wavelengths
Number of Pixels in Spectrum: 3648
>>>>>Begin Spectral Data<<<<<
178.204	-103.76
178.424	-103.76
178.644	-103.76
178.864	-54.61
179.084	-85.33
179.304	60.07
179.524	-5.46
179.744	10.92
179.964	-11.61
180.184	-13.65
180.404	-36.18
180.624	15.02
180.844	2.73
181.064	-3.41
181.283	-30.04
181.503	4.78
181.723	6.83
181.943	-54.61
182.163	74.41
182.383	-34.13
182.602	19.11
182.822	29.35
183.042	8.87
183.262	-13.65
183.482	10.92
183.701	55.98
183.921	51.88
184.141	6.83
184.361	64.17
184.58	84.65
184.8	60.07
185.02	10.92
185.239	84.65
185.459	51.88
185.679	39.59
185.898	-42.32
186.118	31.4
186.338	17.07
186.557	0.68
186.777	27.31
186.997	15.02
187.216	-34.13
187.436	109.23
187.655	80.55
187.875	29.35
188.095	43.69
188.314	84.65
188.534	80.55
188.753	-13.65
188.973	6.83
189.192	-48.47
189.412	76.46
189.631	31.4
189.851	51.88
190.07	0.68
190.29	17.07
190.509	21.16
190.729	94.89
190.948	88.75
191.168	88.75
191.387	39.59
191.607	29.35
191.826	29.35
192.045	27.31
192.265	90.79
192.484	-9.56
192.704	19.11
192.923	47.79
193.142	37.55
193.362	76.46
193.581	84.65
193.8	60.07
194.02	27.31
194.239	27.31
194.458	2.73
194.678	10.92
194.897	-3.41
195.116	45.74
195.335	90.79
195.555	25.26
195.774	12.97
195.993	74.41
196.212	41.64
196.432	8.87
196.651	-23.89
196.87	15.02
197.089	70.31
197.308	23.21
197.528	39.59
197.747	43.69
197.966	-5.46
198.185	72.36
198.404	-1.37
198.623	-5.46
198.842	78.51
199.062	39.59
199.281	6.83
199.5	41.64
199.719	-46.42
199.938	53.93
200.157	8.87
200.376	35.5
200.595	98.99
200.814	101.03
201.033	47.79
201.252	17.07
201.471	25.26
201.69	53.93
201.909	15.02
202.128	123.56
202.347	51.88
202.566	31.4
202.785	-7.51
203.004	-1.37
203.223	92.84
203.442	6.83
203.661	-17.75
203.879	27.31
204.098	51.88
204.317	8.87
204.536	72.36
204.755	33.45
204.974	-5.46
205.193	47.79
205.411	105.13
205.63	37.55
205.849	31.4
206.068	49.83
206.287	2.73
206.505	94.89
206.724	55.98
206.943	92.84
207.162	60.07
207.381	21.16
207.599	-44.37
207.818	15.02
208.037	51.88
208.255	12.97
208.474	39.59
208.693	84.65
208.911	-36.18
209.13	6.83
209.349	84.65
209.567	25.26
209.786	92.84
210.005	-1.37
210.223	92.84
210.442	-36.18
210.661	127.66
210.879	49.83
211.098	-13.65
211.316	105.13
211.535	62.12
211.753	-32.08
211.972	19.11
212.191	49.83
212.409	15.02
212.628	74.41
212.846	35.5
213.065	68.27
213.283	90.79
213.502	25.26
213.72	12.97
213.938	12.97
214.157	-23.89
214.375	21.16
214.594	47.79
214.812	107.18
215.031	-3.41
215.249	33.45
215.467	51.88
215.686	66.22
215.904	21.16
216.122	39.59
216.341	37.55
216.559	25.26
216.778	19.11
216.996	66.22
217.214	0.68
217.432	43.69
217.651	43.69
217.869	37.55
218.087	-17.75
218.306	35.5
218.524	68.27
218.742	101.03
218.96	-15.7
219.179	25.26
219.397	58.03
219.615	41.64
219.833	64.17
220.051	-19.8
220.27	60.07
220.488	25.26
220.706	0.68
220.924	51.88
221.142	74.41
221.36	-5.46
221.578	51.88
221.796	51.88
222.015	-17.75
222.233	62.12
222.451	25.26
222.669	84.65
222.887	60.07
223.105	-44.37
223.323	-1.37
223.541	41.64
223.759	117.42
223.977	35.5
224.195	12.97
224.413	43.69
224.631	47.79
224.849	25.26
225.067	12.97
225.285	41.64
225.503	82.6
225.721	15.02
225.939	45.74
226.157	27.31
226.375	51.88
226.592	35.5
226.81	72.36
227.028	64.17
227.246	62.12
227.464	39.59
227.682	60.07
227.9	41.64
228.117	-21.84
228.335	80.55
228.553	78.51
228.771	2.73
228.989	66.22
229.206	-23.89
229.424	-52.56
229.642	-9.56
229.86	6.83
230.077	94.89
230.295	-58.71
230.513	88.75
230.731	68.27
230.948	31.4
231.166	98.99
231.384	10.92
231.601	49.83
231.819	90.79
232.037	8.87
232.254	60.07
232.472	92.84
232.689	6.83
232.907	76.46
233.125	25.26
233.342	49.83
233.56	66.22
233.777	19.11
233.995	25.26
234.213	84.65
234.43	-3.41
234.648	-27.99
234.865	72.36
235.083	6.83
235.3	58.03
235.518	88.75
235.735	35.5
235.953	88.75
236.17	35.5
236.388	90.79
236.605	49.83
236.822	47.79
237.04	78.51
237.257	43.69
237.475	-36.18
237.692	17.07
237.909	-13.65
238.127	17.07
238.344	107.18
238.562	21.16
238.779	-5.46
238.996	43.69
239.214	10.92
239.431	-9.56
239.648	10.92
239.865	37.55
240.083	29.35
240.3	0.68
240.517	49.83
240.735	27.31
240.952	23.21
241.169	37.55
241.386	2.73
241.603	12.97
241.821	35.5
242.038	88.75
242.255	66.22
242.472	-19.8
242.689	15.02
242.907	15.02
243.124	60.07
243.341	-23.89
243.558	-21.84
243.775	35.5
243.992	-1.37
244.209	-9.56
244.426	64.17
244.643	8.87
244.86	-5.46
245.078	58.03
245.295	43.69
245.512	53.93
245.729	2.73
245.946	-1.37
246.163	88.75
246.38	92.84
246.597	-1.37
246.814	12.97
247.031	-7.51
247.248	80.55
247.464	49.83
247.681	-17.75
247.898	137.9
248.115	-11.61
248.332	-40.28
248.549	27.31
248.766	10.92
248.983	103.08
249.2	76.46
249.417	96.94
249.633	43.69
249.85	82.6
250.067	86.7
250.284	80.55
250.501	62.12
250.717	55.98
250.934	-5.46
251.151	6.83
251.368	23.21
251.585	33.45
251.801	72.36
252.018	-9.56
252.235	64.17
252.451	33.45
252.668	25.26
252.885	64.17
253.102	35.5
253.318	43.69
253.535	60.07
253.752	47.79
253.968	66.22
254.185	47.79
254.401	88.75
254.618	6.83
254.835	64.17
255.051	107.18
255.268	-13.65
255.484	-17.75
255.701	-25.94
255.917	68.27
256.134	62.12
256.351	8.87
256.567	-19.8
256.784	51.88
257	27.31
257.217	58.03
257.433	113.32
257.65	51.88
257.866	17.07
258.082	-3.41
258.299	15.02
258.515	51.88
258.732	-60.76
258.948	68.27
259.165	74.41
259.381	-13.65
259.597	29.35
259.814	8.87
260.03	84.65
260.246	101.03
260.463	74.41
260.679	96.94
260.895	45.74
261.112	101.03
261.328	19.11
261.544	15.02
261.761	141.99
261.977	39.59
262.193	6.83
262.409	27.31
262.626	82.6
262.842	15.02
263.058	-17.75
263.274	45.74
263.49	25.26
263.707	62.12
263.923	23.21
264.139	-23.89
264.355	68.27
264.571	6.83
264.787	23.21
265.004	31.4
265.22	68.27
265.436	-15.7
265.652	88.75
265.868	33.45
266.084	66.22
266.3	0.68
266.516	-7.51
266.732	101.03
266.948	-23.89
267.164	68.27
267.38	53.93
267.596	-30.04
267.812	66.22
268.028	27.31
268.244	64.17
268.46	78.51
268.676	-34.13
268.892	4.78
269.108	23.21
269.324	-23.89
269.54	-5.46
269.756	84.65
269.972	55.98
270.188	43.69
270.403	-38.23
270.619	98.99
270.835	8.87
271.051	2.73
271.267	19.11
271.483	49.83
271.698	68.27
271.914	47.79
272.13	60.07
272.346	39.59
272.562	64.17
272.777	58.03
272.993	23.21
273.209	53.93
273.425	47.79
273.64	-3.41
273.856	23.21
274.072	12.97
274.287	-9.56
274.503	25.26
274.719	17.07
274.934	41.64
275.15	51.88
275.366	76.46
275.581	86.7
275.797	41.64
276.012	45.74
276.228	31.4
276.444	25.26
276.659	80.55
276.875	33.45
277.09	35.5
277.306	-32.08
277.521	47.79
277.737	55.98
277.952	31.4
278.168	68.27
278.383	64.17
278.599	23.21
278.814	45.74
279.03	107.18
279.245	10.92
279.461	19.11
279.676	-7.51
279.892	31.4
280.107	-32.08
280.322	17.07
280.538	62.12
280.753	-46.42
280.969	109.23
281.184	37.55
281.399	84.65
281.615	76.46
281.83	101.03
282.045	-1.37
282.26	31.4
282.476	55.98
282.691	19.11
282.906	27.31
283.122	-1.37
283.337	-34.13
283.552	41.64
283.767	2.73
283.983	80.55
284.198	-9.56
284.413	103.08
284.628	27.31
284.843	37.55
285.058	64.17
285.274	0.68
285.489	12.97
285.704	-9.56
285.919	41.64
286.134	-5.46
286.349	-27.99
286.564	4.78
286.779	80.55
286.995	41.64
287.21	2.73
287.425	-52.56
287.64	-40.28
287.855	21.16
288.07	66.22
288.285	37.55
288.5	-1.37
288.715	35.5
288.93	88.75
289.145	27.31
289.36	43.69
289.575	-58.71
289.79	10.92
290.004	-5.46
290.219	117.42
290.434	53.93
290.649	101.03
290.864	21.16
291.079	6.83
291.294	-21.84
291.509	109.23
291.724	10.92
291.938	0.68
292.153	45.74
292.368	62.12
292.583	6.83
292.798	58.03
293.012	53.93
293.227	51.88
293.442	66.22
293.657	109.23
293.871	62.12
294.086	90.79
294.301	170.66
294.516	-17.75
294.73	41.64
294.945	23.21
295.16	4.78
295.374	17.07
295.589	-7.51
295.804	60.07
296.018	78.51
296.233	64.17
296.447	41.64
296.662	-7.51
296.877	43.69
297.091	15.02
297.306	115.37
297.52	68.27
297.735	98.99
297.949	6.83
298.164	47.79
298.378	150.18
298.593	21.16
298.807	19.11
299.022	-15.7
299.236	103.08
299.451	27.31
299.665	25.26
299.88	58.03
300.094	35.5
300.309	105.13
300.523	49.83
300.737	-25.94
300.952	27.31
301.166	-5.46
301.381	-30.04
301.595	62.12
301.809	49.83
302.024	2.73
302.238	-21.84
302.452	66.22
302.667	43.69
302.881	92.84
303.095	6.83
303.309	12.97
303.524	47.79
303.738	72.36
303.952	25.26
304.166	60.07
304.381	47.79
304.595	101.03
304.809	55.98
305.023	-71
305.237	19.11
305.452	-21.84
305.666	80.55
305.88	19.11
306.094	2.73
306.308	92.84
306.522	-1.37
306.736	-19.8
306.95	80.55
307.164	0.68
307.379	10.92
307.593	55.98
307.807	66.22
308.021	60.07
308.235	4.78
308.449	-13.65
308.663	47.79
308.877	139.94
309.091	58.03
309.305	33.45
309.519	-23.89
309.733	6.83
309.947	12.97
310.161	101.03
310.374	76.46
310.588	70.31
310.802	27.31
311.016	88.75
311.23	35.5
311.444	2.73
311.658	66.22
311.872	72.36
312.085	68.27
312.299	70.31
312.513	39.59
312.727	23.21
312.941	-9.56
313.154	53.93
313.368	-11.61
313.582	15.02
313.796	68.27
314.009	60.07
314.223	72.36
314.437	41.64
314.651	2.73
314.864	12.97
315.078	80.55
315.292	17.07
315.505	27.31
315.719	96.94
315.933	19.11
316.146	2.73
316.36	6.83
316.573	41.64
316.787	35.5
317.001	-7.51
317.214	-13.65
317.428	82.6
317.641	10.92
317.855	72.36
318.068	82.6
318.282	66.22
318.495	113.32
318.709	25.26
318.922	27.31
319.136	19.11
319.349	64.17
319.563	90.79
319.776	17.07
319.99	39.59
320.203	58.03
320.417	12.97
320.63	31.4
320.843	129.7
321.057	70.31
321.27	33.45
321.483	64.17
321.697	72.36
321.91	84.65
322.124	60.07
322.337	49.83
322.55	86.7
322.763	133.8
322.977	27.31
323.19	76.46
323.403	82.6
323.617	58.03
323.83	23.21
324.043	41.64
324.256	158.38
324.469	43.69
324.683	60.07
324.896	-5.46
325.109	19.11
325.322	-66.9
325.535	21.16
325.748	43.69
325.962	-19.8
326.175	47.79
326.388	139.94
326.601	10.92
326.814	17.07
327.027	82.6
327.24	92.84
327.453	-13.65
327.666	2.73
327.879	45.74
328.092	64.17
328.305	64.17
328.518	-15.7
328.731	62.12
328.944	68.27
329.157	2.73
329.37	41.64
329.583	96.94
329.796	27.31
330.009	68.27
330.222	68.27
330.435	109.23
330.648	64.17
330.861	19.11
331.073	113.32
331.286	66.22
331.499	84.65
331.712	8.87
331.925	31.4
332.138	31.4
332.35	129.7
332.563	47.79
332.776	62.12
332.989	55.98
333.202	53.93
333.414	66.22
333.627	64.17
333.84	41.64
334.053	115.37
334.265	68.27
334.478	-48.47
334.691	51.88
334.903	49.83
335.116	17.07
335.329	60.07
335.541	64.17
335.754	76.46
335.966	21.16
336.179	64.17
336.392	0.68
336.604	70.31
336.817	31.4
337.029	49.83
337.242	2.73
337.454	53.93
337.667	29.35
337.88	84.65
338.092	41.64
338.305	58.03
338.517	66.22
338.729	137.9
338.942	131.75
339.154	19.11
339.367	31.4
339.579	72.36
339.792	-21.84
340.004	80.55
340.217	17.07
340.429	25.26
340.641	10.92
340.854	41.64
341.066	33.45
341.278	84.65
341.491	23.21
341.703	62.12
341.915	6.83
342.128	133.8
342.34	84.65
342.552	129.7
342.764	92.84
342.977	107.18
343.189	49.83
343.401	45.74
343.613	10.92
343.826	37.55
344.038	76.46
344.25	10.92
344.462	-7.51
344.674	4.78
344.886	53.93
345.099	90.79
345.311	19.11
345.523	-21.84
345.735	64.17
345.947	35.5
346.159	80.55
346.371	0.68
346.583	4.78
346.795	178.86
347.007	8.87
347.219	68.27
347.431	133.8
347.643	105.13
347.855	23.21
348.067	15.02
348.279	-36.18
348.491	15.02
348.703	74.41
348.915	33.45
349.127	-64.85
349.339	92.84
349.551	41.64
349.763	29.35
349.975	12.97
350.187	58.03
350.399	29.35
350.61	115.37
350.822	74.41
351.034	113.32
351.246	-7.51
351.458	35.5
351.669	96.94
351.881	66.22
352.093	60.07
352.305	127.66
352.517	55.98
352.728	170.66
352.94	76.46
353.152	105.13
353.363	17.07
353.575	17.07
353.787	33.45
353.999	43.69
354.21	101.03
354.422	41.64
354.633	29.35
354.845	37.55
355.057	49.83
355.268	10.92
355.48	111.27
355.692	-15.7
355.903	27.31
356.115	103.08
356.326	25.26
356.538	90.79
356.749	58.03
356.961	66.22
357.172	-17.75
357.384	15.02
357.595	82.6
357.807	86.7
358.018	64.17
358.23	39.59
358.441	58.03
358.653	84.65
358.864	-3.41
359.075	109.23
359.287	133.8
359.498	88.75
359.709	105.13
359.921	33.45
360.132	105.13
360.344	0.68
360.555	23.21
360.766	-15.7
360.977	29.35
361.189	88.75
361.4	19.11
361.611	27.31
361.823	92.84
362.034	10.92
362.245	33.45
362.456	21.16
362.667	10.92
362.879	64.17
363.09	47.79
363.301	41.64
363.512	74.41
363.723	19.11
363.935	51.88
364.146	107.18
364.357	2.73
364.568	74.41
364.779	43.69
364.99	105.13
365.201	19.11
365.412	111.27
365.623	66.22
365.834	123.56
366.045	101.03
366.256	88.75
366.467	43.69
366.678	68.27
366.889	66.22
367.1	12.97
367.311	64.17
367.522	15.02
367.733	55.98
367.944	47.79
368.155	58.03
368.366	2.73
368.577	68.27
368.788	96.94
368.999	-1.37
369.209	74.41
369.42	117.42
369.631	76.46
369.842	92.84
370.053	2.73
370.264	84.65
370.474	27.31
370.685	121.51
370.896	35.5
371.107	96.94
371.317	72.36
371.528	111.27
371.739	127.66
371.95	101.03
372.16	76.46
372.371	62.12
372.582	84.65
372.792	84.65
373.003	94.89
373.214	15.02
373.424	125.61
373.635	10.92
373.846	51.88
374.056	-7.51
374.267	58.03
374.477	96.94
374.688	49.83
374.898	51.88
375.109	64.17
375.319	49.83
375.53	88.75
375.74	41.64
375.951	31.4
376.161	109.23
376.372	80.55
376.582	19.11
376.793	58.03
377.003	41.64
377.214	129.7
377.424	101.03
377.635	74.41
377.845	33.45
378.055	105.13
378.266	49.83
378.476	121.51
378.686	60.07
378.897	125.61
379.107	82.6
379.317	111.27
379.528	8.87
379.738	109.23
379.948	51.88
380.158	90.79
380.369	35.5
380.579	86.7
380.789	-11.61
380.999	10.92
381.21	53.93
381.42	174.76
381.63	41.64
381.84	70.31
382.05	103.08
382.261	72.36
382.471	58.03
382.681	37.55
382.891	115.37
383.101	55.98
383.311	80.55
383.521	17.07
383.731	53.93
383.941	115.37
384.151	78.51
384.361	74.41
384.571	90.79
384.781	66.22
384.991	139.94
385.201	92.84
385.411	35.5
385.621	154.28
385.831	60.07
386.041	80.55
386.251	70.31
386.461	68.27
386.671	15.02
386.881	64.17
387.091	17.07
387.301	144.04
387.511	10.92
387.72	121.51
387.93	123.56
388.14	35.5
388.35	113.32
388.56	76.46
388.769	103.08
388.979	129.7
389.189	103.08
389.399	146.09
389.609	21.16
389.818	84.65
390.028	-13.65
390.238	141.99
390.447	35.5
390.657	125.61
390.867	55.98
391.076	135.85
391.286	43.69
391.496	23.21
391.705	141.99
391.915	109.23
392.125	88.75
392.334	133.8
392.544	72.36
392.753	158.38
392.963	82.6
393.172	107.18
393.382	68.27
393.591	158.38
393.801	51.88
394.01	96.94
394.22	101.03
394.429	70.31
394.639	92.84
394.848	135.85
395.058	191.14
395.267	113.32
395.477	129.7
395.686	162.47
395.895	166.57
396.105	70.31
396.314	78.51
396.524	144.04
396.733	47.79
396.942	164.52
397.152	129.7
397.361	135.85
397.57	156.33
397.78	199.34
397.989	90.79
398.198	166.57
398.407	170.66
398.617	156.33
398.826	182.95
399.035	144.04
399.244	213.67
399.453	141.99
399.663	174.76
399.872	205.48
400.081	113.32
400.29	121.51
400.499	215.72
400.708	146.09
400.917	187.05
401.127	187.05
401.336	154.28
401.545	199.34
401.754	144.04
401.963	209.58
402.172	158.38
402.381	203.43
402.59	115.37
402.799	146.09
403.008	225.96
403.217	187.05
403.426	148.14
403.635	273.06
403.844	277.16
404.053	197.29
404.262	141.99
404.471	203.43
404.68	248.49
404.888	213.67
405.097	215.72
405.306	176.81
405.515	158.38
405.724	258.73
405.933	252.58
406.142	244.39
406.35	238.25
406.559	293.54
406.768	189.1
406.977	354.98
407.185	228.01
407.394	289.45
407.603	301.73
407.812	297.64
408.02	326.31
408.229	330.41
408.438	305.83
408.646	326.31
408.855	305.83
409.064	414.37
409.272	350.89
409.481	420.52
409.69	400.04
409.898	465.57
410.107	434.85
410.315	459.43
410.524	420.52
410.733	449.19
410.941	535.2
411.15	549.54
411.358	494.24
411.567	666.27
411.775	656.03
411.984	543.39
412.192	676.51
412.401	672.42
412.609	676.51
412.818	746.14
413.026	746.14
413.234	756.38
413.443	760.48
413.651	645.79
413.86	815.77
414.068	879.26
414.276	922.27
414.485	1022.62
414.693	961.18
414.901	1012.38
415.11	1039
415.318	1002.14
415.526	1051.29
415.734	1165.98
415.943	1229.46
416.151	1192.6
416.359	1233.56
416.567	1206.94
416.776	1374.87
416.984	1438.36
417.192	1530.52
417.4	1551
417.608	1399.45
417.817	1577.62
418.025	1651.35
418.233	1821.33
418.441	1653.39
418.649	1913.49
418.857	2073.23
419.065	1911.44
419.273	1985.16
419.481	1927.82
419.689	2030.22
419.897	2169.48
420.105	2280.07
420.313	2343.56
420.521	2458.25
420.729	2386.57
420.937	2534.02
421.145	2669.19
421.353	2697.86
421.561	2767.49
421.769	2929.28
421.977	3070.59
422.185	3089.02
422.393	3224.19
422.601	3435.13
422.809	3426.93
423.017	3283.58
423.224	3689.07
423.432	3799.66
423.64	3885.68
423.848	4141.68
424.056	3926.64
424.263	4260.46
424.471	4137.58
424.679	4407.91
424.887	4657.76
425.094	4850.27
425.302	4768.35
425.51	5016.16
425.718	5177.95
425.925	5143.13
426.133	5325.4
426.341	5677.65
426.548	5886.54
426.756	5896.78
426.964	6021.71
427.171	6371.91
427.379	6408.78
427.586	6492.74
427.794	6586.95
428.001	7019.07
428.209	7406.14
428.417	7256.64
428.624	7615.03
428.832	7875.12
429.039	7729.72
429.247	7782.96
429.454	8534.57
429.662	9044.51
429.869	8213.04
430.076	8997.41
430.284	8866.34
430.491	9085.47
430.699	9624.09
430.906	9740.82
431.114	9789.97
431.321	10134.03
431.528	10248.72
431.736	10949.12
431.943	11678.2
432.15	11225.6
432.358	11217.41
432.565	11911.67
432.772	11901.43
432.979	12456.43
433.187	12587.5
433.394	13017.57
433.601	13697.5
433.808	13699.55
434.016	13859.29
434.223	13982.17
434.43	15040.97
434.637	14694.86
434.844	15641.02
435.052	15886.78
435.259	15868.34
435.466	16048.57
435.673	15786.43
435.88	17056.17
436.087	17613.21
436.294	17549.73
436.501	17293.73
436.708	17775
436.915	18145.69
437.122	19317.12
437.329	18923.91
437.537	19581.31
437.743	20144.5
437.95	19923.32
438.157	21164.39
438.364	21752.16
438.571	21733.73
438.778	21641.57
438.985	23408.97
439.192	22454.61
439.399	23413.06
439.606	23118.15
439.813	24265.02
440.02	25522.47
440.227	25295.14
440.433	24858.93
440.64	25545
440.847	25657.64
441.054	26153.24
441.261	28010.75
441.467	27758.85
441.674	28027.13
441.881	29255.92
442.088	28893.43
442.294	28639.48
442.501	29573.35
442.708	30222.56
442.914	31412.43
443.121	32467.13
443.328	31647.94
443.534	33999.01
443.741	32891.06
443.948	32428.22
444.154	34619.55
444.361	34451.61
444.568	34537.63
444.774	34719.9
444.981	35278.99
445.187	36266.11
445.394	37644.4
445.6	37185.65
445.807	40730.69
446.013	38647.9
446.22	39729.23
446.426	41418.8
446.633	41513.01
446.839	42709.02
447.046	41437.23
447.252	43653.14
447.459	43534.35
447.665	43200.54
447.871	44845.05
448.078	46673.89
448.284	44609.54
448.491	45492.21
448.697	47415.26
448.903	48283.59
449.11	48150.48
449.316	47552.47
449.522	48582.6
449.728	50091.95
449.935	49997.74
450.141	49881.01
450.347	50741.16
450.553	49080.25
450.76	49737.65
450.966	51449.75
451.172	50892.71
451.378	51799.96
451.584	51259.29
451.791	52113.3
451.997	51842.96
452.203	52604.81
452.409	52653.96
452.615	52543.37
452.821	50835.36
453.027	49938.35
453.233	52959.11
453.44	50198.44
453.646	50890.66
453.852	51027.87
454.058	51605.4
454.264	50253.74
454.47	51476.38
454.676	49985.46
454.882	51632.02
455.088	47208.41
455.294	47783.89
455.5	48074.7
455.705	49264.57
455.911	46858.21
456.117	46084.08
456.323	45529.08
456.529	42831.9
456.735	44906.49
456.941	43882.51
457.147	43122.71
457.352	41564.21
457.558	41416.75
457.764	41156.66
457.97	40538.18
458.176	39600.21
458.381	39809.1
458.587	37687.4
458.793	37871.72
458.999	36001.93
459.204	38402.14
459.41	37517.42
459.616	35020.95
459.821	34721.94
460.027	34666.65
460.233	33996.96
460.438	32133.31
460.644	32770.23
460.85	31008.98
461.055	31006.93
461.261	30750.93
461.466	28619
461.672	27697.41
461.878	29708.52
462.083	27687.17
462.289	27347.21
462.494	26927.38
462.7	25856.29
462.905	25147.69
463.111	25848.1
463.316	26169.63
463.522	25559.33
463.727	25657.64
463.932	25405.74
464.138	25149.74
464.343	25231.66
464.549	24437.05
464.754	25471.27
464.959	25420.07
465.165	25090.35
465.37	24121.66
465.575	23523.65
465.781	24205.63
465.986	24486.2
466.191	23552.32
466.397	22929.74
466.602	22010.2
466.807	22929.74
467.012	22880.59
467.218	22968.65
467.423	22489.43
467.628	22524.24
467.833	23681.35
468.038	22640.98
468.244	21877.08
468.449	22860.11
468.654	22159.7
468.859	22038.87
469.064	21692.77
469.269	21086.57
469.474	21033.32
469.679	21369.19
469.885	20879.72
470.09	21137.77
470.295	20904.3
470.5	20650.35
470.705	20533.62
470.91	19943.8
471.115	19812.73
471.32	20404.6
471.525	20152.7
471.73	19650.94
471.935	19480.96
472.139	18874.76
472.344	18958.73
472.549	19190.15
472.754	18805.13
472.959	18489.74
473.164	17992.09
473.369	18035.1
473.574	18528.66
473.778	18157.97
473.983	18057.62
474.188	18168.21
474.393	17195.43
474.598	17103.27
474.802	16929.19
475.007	17340.83
475.212	17111.46
475.417	16509.36
475.621	16177.59
475.826	16417.2
476.031	16155.06
476.235	15647.16
476.44	16196.02
476.645	15665.6
476.849	15718.84
477.054	15677.88
477.259	15256
477.463	15393.22
477.668	14991.81
477.872	15294.91
478.077	15159.75
478.282	14758.35
478.486	14445.01
478.691	14279.12
478.895	14367.18
479.1	14303.7
479.304	14365.14
479.509	13953.49
479.713	14289.36
479.918	13912.53
480.122	13863.38
480.326	13984.21
480.531	13793.75
480.735	13689.31
480.94	13472.22
481.144	14088.66
481.348	13404.64
481.553	13562.33
481.757	13097.44
481.961	13617.63
482.166	13638.11
482.37	13515.23
482.574	13175.27
482.778	13418.97
482.983	13513.18
483.187	13461.98
483.391	13427.17
483.595	13431.26
483.8	13187.55
484.004	13228.51
484.208	13400.54
484.412	13222.37
484.616	13275.62
484.821	13466.08
485.025	12982.76
485.229	13423.07
485.433	13281.76
485.637	13320.67
485.841	13027.81
486.045	13210.08
486.249	13427.17
486.453	13033.96
486.657	13324.77
486.861	13519.32
487.065	12923.37
487.269	13222.37
487.473	12968.42
487.677	13341.15
487.881	13433.31
488.085	13341.15
488.289	13507.04
488.493	13095.39
488.697	13162.98
488.901	13488.6
489.105	13369.82
489.309	13363.68
489.512	13416.93
489.716	13525.47
489.92	13351.39
490.124	13433.31
490.328	13742.55
490.531	13382.11
490.735	13640.15
490.939	13746.65
491.143	13713.88
491.346	13634.01
491.55	14180.82
491.754	13789.66
491.958	14117.33
492.161	13951.45
492.365	14072.28
492.569	13988.31
492.772	14002.64
492.976	14342.61
493.18	14295.5
493.383	14336.46
493.587	14498.25
493.79	14682.57
493.994	14547.4
494.197	14684.62
494.401	14936.52
494.605	14821.83
494.808	14995.91
495.012	14969.29
495.215	14975.43
495.419	15292.87
495.622	15223.23
495.825	15534.53
496.029	15657.4
496.232	15712.7
496.436	15790.52
496.639	16533.93
496.843	15940.02
497.046	16591.28
497.249	16646.57
497.453	16601.52
497.656	16925.1
497.859	16955.82
498.063	17115.56
498.266	17306.02
498.469	17248.68
498.673	17469.86
498.876	17813.91
499.079	18276.76
499.282	17844.63
499.485	18547.09
499.689	18368.91
499.892	18758.03
500.095	18649.49
500.298	19302.79
500.501	19069.32
500.705	19908.99
500.908	20025.72
501.111	20154.74
501.314	20437.36
501.517	20263.29
501.72	20693.36
501.923	20537.71
502.126	21334.37
502.329	21346.66
502.532	21471.59
502.735	21387.62
502.938	22196.57
503.141	22106.46
503.344	22671.7
503.547	22360.41
503.75	22870.35
503.953	23081.29
504.156	23433.54
504.359	23855.42
504.562	23793.98
504.765	24496.44
504.968	24525.11
505.17	24576.31
505.373	24936.75
505.576	25325.86
505.779	25567.52
505.982	25866.53
506.185	26079.52
506.387	26411.29
506.59	26474.77
506.793	27236.62
506.996	27093.26
507.198	27904.26
507.401	27531.53
507.604	27812.1
507.807	28465.4
508.009	28377.34
508.212	28705.01
508.415	29251.82
508.617	29036.78
508.82	29776.1
509.022	29614.31
509.225	30761.17
509.428	30509.27
509.63	31049.94
509.833	30906.58
510.035	32016.58
510.238	31426.76
510.44	31977.67
510.643	32420.03
510.845	32880.82
511.048	32334.01
511.25	33495.21
511.453	33368.24
511.655	34388.13
511.858	33937.57
512.06	34402.46
512.262	34988.18
512.465	35412.11
512.667	35561.61
512.87	36176
513.072	36126.85
513.274	36399.23
513.477	37085.3
513.679	37490.8
513.881	37286
514.084	38187.11
514.286	37933.16
514.488	38277.22
514.69	39321.68
514.893	39524.43
515.095	39432.27
515.297	40091.72
515.499	40040.52
515.701	40624.19
515.904	41228.34
516.106	41285.68
516.308	41510.96
516.51	42139.69
516.712	42498.08
516.914	42866.72
517.116	43114.52
517.318	43548.69
517.52	43913.23
517.722	44154.89
517.925	44644.35
518.127	44955.64
518.329	45158.39
518.531	45258.74
518.733	46067.69
518.935	46362.6
519.136	46362.6
519.338	47132.64
519.54	47370.2
519.742	47765.46
519.944	48005.07
520.146	48721.86
520.348	48900.03
520.55	48936.9
520.752	49397.69
520.954	50091.95
521.155	49446.84
521.357	50538.41
521.559	51122.08
521.761	51400.6
521.963	51459.99
522.164	51900.31
522.366	51806.1
522.568	52516.75
522.77	52821.89
522.971	53620.6
523.173	52934.53
523.375	53878.64
523.576	53909.36
523.778	54062.96
523.98	54783.85
524.181	54857.57
524.383	54552.43
524.584	55867.22
524.786	55680.86
524.988	55383.9
525.189	56086.35
525.391	56624.97
525.592	56424.27
525.794	57030.47
525.995	57016.13
526.197	57048.9
526.398	57192.26
526.6	57939.77
526.801	58023.73
527.003	58447.66
527.204	58191.67
527.406	58363.7
527.607	58462
527.808	59170.6
528.01	58150.71
528.211	58949.42
528.412	59621.15
528.614	59334.43
528.815	59588.38
529.016	60452.62
529.218	59572
529.419	60280.59
529.62	60092.18
529.822	60110.61
530.023	60325.65
530.224	60489.49
530.425	60405.52
530.626	60292.88
530.828	60151.57
531.029	61175.56
531.23	60516.11
531.431	60661.52
531.632	61083.4
531.833	61275.91
532.035	60935.94
532.236	60937.99
532.437	61675.26
532.638	61378.31
532.839	61640.45
533.04	61689.6
533.241	60940.04
533.442	62193.4
533.643	61189.89
533.844	61384.45
534.045	62019.32
534.246	61509.38
534.447	61861.63
534.648	61017.86
534.849	61892.35
535.05	61247.24
535.251	61886.2
535.451	61796.09
535.652	61777.66
535.853	62197.49
536.054	61966.07
536.255	62181.11
536.456	61341.44
536.657	62537.46
536.857	61452.03
537.058	61591.29
537.259	62091
537.46	62082.81
537.66	61980.41
537.861	62584.56
538.062	61693.69
538.263	62082.81
538.463	61970.17
538.664	61886.2
538.865	62256.88
539.065	62559.98
539.266	61542.14
539.466	62535.41
539.667	61341.44
539.868	62369.52
540.068	61984.5
540.269	62232.31
540.469	61914.87
540.67	62076.66
540.87	61951.74
541.071	62123.77
541.271	62054.14
541.472	62213.88
541.672	61560.58
541.873	61648.64
542.073	61136.65
542.274	62172.92
542.474	61767.42
542.675	61542.14
542.875	62207.73
543.075	61902.59
543.276	61189.89
543.476	62054.14
543.676	61525.76
543.877	62119.67
544.077	61742.84
544.277	61492.99
544.478	61757.18
544.678	62377.71
544.878	61574.91
545.078	61861.63
545.279	61658.88
545.479	61564.67
545.679	61878.01
545.879	61640.45
546.079	61189.89
546.28	61685.5
546.48	61101.83
546.68	61873.91
546.88	62074.62
547.08	61320.96
547.28	61542.14
547.48	61239.04
547.68	61693.69
547.88	61452.03
548.081	61718.27
548.281	61642.49
548.481	61138.69
548.681	61898.49
548.881	61148.93
549.081	61634.3
549.28	61523.71
549.48	61527.81
549.68	61443.84
549.88	62174.97
550.08	61282.05
550.28	61460.22
550.48	61347.59
550.68	61759.23
550.88	60817.16
551.08	60800.78
551.279	60970.76
551.479	61058.82
551.679	61126.41
551.879	61259.52
552.079	60890.89
552.278	61124.36
552.478	60911.37
552.678	60682
552.878	60913.42
553.077	61083.4
553.277	60331.79
553.477	61689.6
553.676	60739.34
553.876	60894.99
554.076	60405.52
554.275	60937.99
554.475	60358.42
554.674	60616.46
554.874	60616.46
555.074	60299.03
555.273	60477.2
555.473	60389.14
555.672	60469.01
555.872	60415.76
556.071	60399.38
556.271	60716.81
556.47	60120.85
556.67	59817.75
556.869	60387.09
557.068	60311.31
557.268	59733.79
557.467	60106.52
557.667	59574.05
557.866	60329.75
558.065	59539.23
558.265	59723.55
558.464	59412.26
558.663	59973.4
558.863	59279.14
559.062	60456.72
559.261	59240.23
559.461	60151.57
559.66	58826.54
559.859	59422.5
560.058	58490.67
560.258	59006.76
560.457	58664.75
560.656	59389.73
560.855	58531.63
561.054	58992.42
561.253	58656.56
561.453	58752.81
561.652	58703.66
561.851	58853.16
562.05	58314.54
562.249	58414.9
562.448	58535.73
562.647	58199.86
562.846	58070.84
563.045	58011.45
563.244	57487.17
563.443	58240.82
563.642	57276.22
563.841	57388.86
564.04	57044.8
564.239	57470.78
564.438	57354.05
564.637	57511.74
564.836	57605.95
565.035	56930.12
565.234	57034.56
565.432	56938.31
565.631	56328.02
565.83	56698.7
566.029	56778.57
566.228	56334.16
566.427	56174.42
566.625	56020.82
566.824	55308.13
567.023	56250.19
567.222	55242.59
567.42	55760.73
567.619	55635.8
567.818	55816.02
568.016	55338.85
568.215	55824.21
568.414	54652.78
568.612	55209.82
568.811	54746.98
569.01	54943.59
569.208	54241.14
569.407	54941.54
569.605	54185.84
569.804	54447.98
570.002	54189.94
570.201	54364.01
570.4	53745.53
570.598	53577.59
570.797	53368.7
570.995	53753.72
571.193	53278.59
571.392	53667.7
571.59	52813.7
571.789	53202.81
571.987	53211.01
572.186	52703.11
572.384	52709.25
572.582	52942.72
572.781	52873.09
572.979	52023.18
573.177	52127.63
573.376	52615.05
573.574	51902.35
573.772	52010.9
573.971	51969.94
574.169	51380.12
574.367	51251.1
574.565	51799.96
574.763	51193.76
574.962	51072.93
575.16	50657.19
575.358	51058.59
575.556	50505.64
575.754	51230.62
575.952	50378.67
576.151	50524.07
576.349	50237.36
576.547	50028.46
576.745	50200.49
576.943	50495.4
577.141	50298.8
577.339	49840.05
577.537	49377.21
577.735	49387.45
577.933	48799.68
578.131	49297.34
578.329	49024.96
578.527	48797.63
578.725	48893.89
578.923	48936.9
579.121	48467.91
579.319	48472.01
579.516	48840.64
579.714	48467.91
579.912	48304.07
580.11	48293.83
580.308	48140.24
580.506	48033.74
580.704	47169.5
580.901	47607.76
581.099	48148.43
581.297	47265.75
581.495	47118.3
581.692	47368.15
581.89	46995.42
582.088	46989.28
582.285	46565.35
582.483	47058.91
582.681	46442.47
582.878	46395.37
583.076	46032.88
583.274	46620.64
583.471	46145.51
583.669	46094.32
583.866	45629.43
584.064	45797.36
584.262	45193.21
584.459	45912.05
584.657	45451.25
584.854	45725.68
585.052	44535.81
585.249	45068.28
585.447	44996.6
585.644	44404.74
585.841	44470.28
586.039	45103.1
586.236	44179.46
586.434	44212.23
586.631	44142.6
586.828	44351.49
587.026	43890.7
587.223	43880.46
587.42	43769.87
587.618	43874.32
587.815	43472.92
588.012	43206.68
588.21	43077.66
588.407	43585.55
588.604	42575.9
588.801	42455.07
588.999	42393.64
589.196	42651.68
589.393	42709.02
589.59	42209.32
589.787	42160.17
589.984	42065.96
590.182	41379.89
590.379	42113.06
590.576	41619.5
590.773	41551.92
590.97	41490.48
591.167	41551.92
591.364	40902.71
591.561	41064.5
591.758	40931.39
591.955	40955.96
592.152	40919.1
592.349	40644.67
592.546	40427.59
592.743	40564.8
592.94	40157.25
593.137	40243.27
593.334	40364.1
593.531	39817.29
593.727	40144.97
593.924	40157.25
594.121	39475.28
594.318	39772.24
594.515	39092.31
594.712	39485.52
594.908	39172.18
595.105	39309.39
595.302	38631.52
595.499	38903.9
595.696	38887.51
595.892	38672.48
596.089	38695
596.286	38787.16
596.482	38559.84
596.679	38156.39
596.876	38418.53
597.072	38221.92
597.269	37738.6
597.466	37552.24
597.662	37877.86
597.859	37455.98
598.055	37761.13
598.252	37331.06
598.448	37443.7
598.645	37025.91
598.841	36782.2
599.038	36774.01
599.234	36903.03
599.431	36425.85
599.627	36511.87
599.824	36778.11
600.02	36296.83
600.217	36370.56
600.413	35969.16
600.609	36157.57
600.806	35827.85
601.002	35872.9
601.198	35451.02
601.395	35803.27
601.591	35379.34
601.787	35547.28
601.984	35186.83
602.18	35391.63
602.376	34914.45
602.572	34853.01
602.769	34975.89
602.965	34805.91
603.161	34717.85
603.357	34468
603.553	34095.27
603.75	34498.72
603.946	34171.04
604.142	34328.73
604.338	33956
604.534	34134.18
604.73	33673.38
604.926	33673.38
605.122	33910.95
605.318	33659.05
605.514	33372.33
605.71	33554.6
605.906	33198.26
606.102	32897.2
606.298	32987.32
606.494	33095.86
606.69	33183.92
606.886	32798.9
607.082	32508.09
607.278	32979.12
607.474	32145.6
607.67	32561.34
607.866	32485.56
608.062	32700.6
608.257	32360.64
608.453	32184.51
608.649	32409.79
608.845	32071.87
609.041	32063.68
609.236	32155.84
609.432	31789.25
609.628	31961.28
609.824	31647.94
610.019	31320.27
610.215	31690.95
610.411	31367.37
610.606	31258.83
610.802	31518.92
610.998	31623.37
611.193	31426.76
611.389	30920.91
611.584	30841.04
611.78	30861.52
611.976	31019.22
612.171	30826.71
612.367	30410.97
612.562	30626.01
612.758	30542.04
612.953	30294.24
613.149	30779.6
613.344	30396.63
613.539	30773.46
613.735	30486.75
613.93	30478.55
614.126	30218.46
614.321	30071.01
614.517	30124.26
614.712	30036.19
614.907	29913.31
615.103	30101.73
615.298	29815.01
615.493	29843.68
615.688	29636.84
615.884	30077.15
616.079	29624.55
616.274	29802.72
616.47	29493.48
616.665	29511.91
616.86	29151.47
617.055	29262.06
617.25	29327.6
617.445	29190.38
617.641	28836.08
617.836	29049.07
618.031	28782.84
618.226	28887.28
618.421	28950.77
618.616	28868.85
618.811	28348.67
619.006	28678.39
619.201	28002.56
619.396	28000.51
619.591	27977.98
619.786	28094.72
619.981	27726.08
620.176	27902.21
620.371	27459.85
620.566	27582.73
620.761	27316.49
620.956	27595.01
621.151	27156.75
621.346	27373.83
621.541	26759.44
621.735	27160.84
621.93	26511.64
622.125	26695.96
622.32	26204.44
622.515	26702.1
622.709	26126.62
622.904	26280.22
623.099	25970.97
623.294	26372.38
623.488	25399.59
623.683	25755.94
623.878	25243.95
624.072	25301.29
624.267	25575.72
624.462	24836.4
624.656	24783.15
624.851	24990
625.046	24918.32
625.24	24930.61
625.435	24082.75
625.629	24367.41
625.824	24637.75
626.018	24320.31
626.213	23722.3
626.407	24021.31
626.602	23468.36
626.796	23642.43
626.991	23587.14
627.185	23327.05
627.38	23130.44
627.574	23228.74
627.768	22972.75
627.963	23030.09
628.157	22917.45
628.352	23134.54
628.546	22579.54
628.74	22743.38
628.935	22190.42
629.129	22368.6
629.323	22186.33
629.517	22018.39
629.712	21975.39
629.906	21748.06
630.1	21406.05
630.294	21643.62
630.489	21201.26
630.683	21295.46
630.877	20996.46
631.071	20947.31
631.265	21029.23
631.459	20824.43
631.653	20808.05
631.848	20640.11
632.042	20449.65
632.236	20578.67
632.43	20156.79
632.624	20386.16
632.818	19976.57
633.012	19884.41
633.206	19925.37
633.4	20074.87
633.594	19454.34
633.788	19487.11
633.982	19614.08
634.176	19380.61
634.369	19390.85
634.563	19198.34
634.757	19081.61
634.951	19100.04
635.145	19050.89
635.339	18850.19
635.533	18444.69
635.726	18798.99
635.92	18461.07
636.114	18432.4
636.308	18350.48
636.501	18313.62
636.695	18237.84
636.889	17967.51
637.083	18114.97
637.276	17799.58
637.47	17787.29
637.664	17762.72
637.857	17686.94
638.051	17580.45
638.244	17269.16
638.438	17404.32
638.632	17140.13
638.825	17203.62
639.019	17045.93
639.212	16980.39
639.406	16918.95
639.599	16794.03
639.793	16622
639.986	16556.46
640.18	16679.34
640.373	16460.21
640.567	16486.83
640.76	16331.19
640.954	16376.24
641.147	15954.36
641.34	16136.63
641.534	16099.76
641.727	15585.72
641.92	15714.75
642.114	15389.12
642.307	15710.65
642.5	15464.89
642.694	15319.49
642.887	15227.33
643.08	15061.44
643.273	14997.96
643.467	15303.11
643.66	14977.48
643.853	14840.26
644.046	14633.42
644.239	14668.23
644.432	14660.04
644.626	14592.46
644.819	14375.38
645.012	14518.73
645.205	14358.99
645.398	14477.77
645.591	14055.89
645.784	14141.91
645.977	13838.81
646.17	13949.4
646.363	13859.29
646.556	13879.77
646.749	13855.19
646.942	13769.18
647.135	13453.79
647.328	13599.2
647.521	13292
647.714	13337.06
647.907	13461.98
648.099	13242.85
648.292	13052.39
648.485	13201.89
648.678	12937.7
648.871	12931.56
649.064	12960.23
649.256	12833.25
649.449	12816.87
649.642	12773.86
649.835	12622.31
650.027	12491.24
650.22	12458.48
650.413	12356.08
650.605	12337.65
650.798	12212.72
650.991	12343.79
651.183	12190.19
651.376	12286.45
651.568	11948.53
651.761	12085.75
651.954	11889.14
652.146	11729.4
652.339	11880.95
652.531	11934.2
652.724	11715.06
652.916	11596.28
653.109	11457.02
653.301	11344.38
653.494	11350.53
653.686	11504.12
653.879	11309.57
654.071	11104.77
654.263	11291.13
654.456	11072
654.648	11293.18
654.84	11233.79
655.033	10975.75
655.225	10775.05
655.417	10820.1
655.61	10838.53
655.802	10791.43
655.994	10746.37
656.186	10725.89
656.379	10631.69
656.571	10643.98
656.763	10422.8
656.955	10316.3
657.148	10478.09
657.34	10439.18
657.532	10387.98
657.724	10177.04
657.916	10199.57
658.108	10441.23
658.3	10029.59
658.492	10201.61
658.684	9939.47
658.876	9865.75
659.068	9955.86
659.26	9779.73
659.452	9832.98
659.644	9753.11
659.836	9505.31
660.028	9796.12
660.22	9361.95
660.412	9505.31
660.604	9445.91
660.796	9447.96
660.988	9396.76
661.18	9308.7
661.372	9110.05
661.563	9413.15
661.755	9071.14
661.947	9218.59
662.139	9103.9
662.331	9077.28
662.522	9191.97
662.714	9183.77
662.906	8815.14
663.097	8911.39
663.289	8722.98
663.481	8720.93
663.673	8823.33
663.864	8778.28
664.056	8718.89
664.247	8815.14
664.439	8509.99
664.631	8651.3
664.822	8477.23
665.014	8383.02
665.205	8544.81
665.397	8372.78
665.588	8385.07
665.78	8426.03
665.971	8360.49
666.163	8297
666.354	8118.83
666.546	8116.78
666.737	8149.55
666.929	8012.34
667.12	8038.96
667.311	8151.6
667.503	7834.16
667.694	7911.99
667.885	7887.41
668.077	7709.24
668.268	7866.93
668.459	7864.88
668.651	7598.65
668.842	7864.88
669.033	7785.01
669.224	7707.19
669.416	7617.08
669.607	7486.01
669.798	7717.43
669.989	7670.33
670.18	7467.58
670.371	7432.76
670.563	7455.29
670.754	7443
670.945	7336.51
671.136	7332.41
671.327	7445.05
671.518	7330.36
671.709	7338.55
671.9	7125.57
672.091	7281.21
672.282	7264.83
672.473	7240.25
672.664	7146.05
672.855	7086.65
673.046	7088.7
673.237	7225.92
673.428	7031.36
673.619	7047.74
673.809	6922.82
674	7006.78
674.191	7006.78
674.382	6943.3
674.573	6916.67
674.764	6908.48
674.954	6908.48
675.145	6863.43
675.336	6851.14
675.527	6720.07
675.717	6754.88
675.908	6728.26
676.099	6789.7
676.289	6742.6
676.48	6668.87
676.671	6693.44
676.861	6779.46
677.052	6625.86
677.243	6679.11
677.433	6701.64
677.624	6609.48
677.814	6412.87
678.005	6638.15
678.195	6650.44
678.386	6494.79
678.576	6515.27
678.767	6539.85
678.957	6517.32
679.148	6408.78
679.338	6453.83
679.529	6476.36
679.719	6273.61
679.909	6556.23
680.1	6320.71
680.29	6398.54
680.481	6470.22
680.671	6490.7
680.861	6355.53
681.052	6429.26
681.242	6382.15
681.432	6343.24
681.622	6365.77
681.813	6122.06
682.003	6330.95
682.193	6195.79
682.383	6408.78
682.573	6355.53
682.764	6171.21
682.954	6351.43
683.144	6298.19
683.334	6095.44
683.524	6191.69
683.714	6113.87
683.904	6138.44
684.094	6214.22
684.284	6021.71
684.474	6158.92
684.664	6201.93
684.854	5943.89
685.044	6005.33
685.234	5919.31
685.424	6017.61
685.614	5945.94
685.804	5999.18
685.994	6042.19
686.184	5960.27
686.374	5831.25
686.564	5794.39
686.753	6142.54
686.943	5907.02
687.133	5866.07
687.323	5851.73
687.513	5806.67
687.702	5827.15
687.892	5728.85
688.082	5618.26
688.272	5792.34
688.461	5536.34
688.651	5794.39
688.841	5585.49
689.03	5573.21
689.22	5644.88
689.41	5544.53
689.599	5481.05
689.789	5562.97
689.979	5497.43
690.168	5536.34
690.358	5245.53
690.547	5306.97
690.737	5245.53
690.926	5335.64
691.116	5259.87
691.305	5407.32
691.495	5296.73
691.684	5218.91
691.874	5122.65
692.063	5216.86
692.252	5163.61
692.442	5352.03
692.631	5114.46
692.82	5184.09
693.01	5114.46
693.199	5083.74
693.388	5063.26
693.578	5069.41
693.767	5091.93
693.956	5069.41
694.146	4944.48
694.335	4911.71
694.524	5032.54
694.713	5067.36
694.902	4885.09
695.092	5012.06
695.281	4891.23
695.47	4919.9
695.659	4909.66
695.848	4835.94
696.037	4831.84
696.226	4924
696.415	4807.27
696.604	4934.24
696.793	4813.41
696.982	4805.22
697.171	4835.94
697.36	4727.39
697.549	4745.83
697.738	4700.77
697.927	4663.91
698.116	4889.18
698.305	4676.2
698.494	4811.36
698.683	4815.46
698.872	4731.49
699.061	4610.66
699.25	4721.25
699.438	4616.8
699.627	4561.51
699.816	4756.07
700.005	4614.76
700.193	4784.74
700.382	4696.68
700.571	4676.2
700.76	4643.43
700.948	4633.19
701.137	4541.03
701.326	4657.76
701.514	4536.93
701.703	4678.24
701.892	4536.93
702.08	4489.83
702.269	4450.92
702.457	4573.8
702.646	4569.7
702.834	4420.2
703.023	4459.11
703.212	4565.61
703.4	4541.03
703.589	4495.97
703.777	4440.68
703.965	4547.17
704.154	4457.06
704.342	4401.77
704.531	4461.16
704.719	4459.11
704.907	4424.3
705.096	4383.34
705.284	4442.73
705.472	4371.05
705.661	4371.05
705.849	4375.14
706.037	4598.37
706.226	4338.28
706.414	4547.17
706.602	4270.7
706.79	4465.25
706.979	4303.47
707.167	4457.06
707.355	4332.14
707.543	4489.83
707.731	4510.31
707.919	4524.65
708.107	4395.62
708.296	4463.21
708.484	4313.7
708.672	4344.42
708.86	4344.42
709.048	4381.29
709.236	4250.22
709.424	4278.89
709.612	4266.6
709.8	4295.27
709.988	4440.68
710.176	4405.86
710.364	4250.22
710.551	4387.43
710.739	4401.77
710.927	4336.23
711.115	4328.04
711.303	4303.47
711.491	4334.18
711.679	4272.75
711.866	4305.51
712.054	4399.72
712.242	4258.41
712.43	4319.85
712.617	4426.34
712.805	4321.9
712.993	4225.64
713.181	4299.37
713.368	4446.82
713.556	4266.6
713.744	4115.05
713.931	4369
714.119	4289.13
714.306	4391.53
714.494	4317.8
714.682	4383.34
714.869	4182.63
715.057	4227.69
715.244	4104.81
715.432	4192.87
715.619	4205.16
715.807	4184.68
715.994	4280.94
716.182	4223.59
716.369	4315.75
716.556	4135.53
716.744	4127.34
716.931	4250.22
717.119	4242.03
717.306	4319.85
717.493	4170.35
717.681	4184.68
717.868	4084.33
718.055	4207.21
718.242	4205.16
718.43	4188.78
718.617	4168.3
718.804	4268.65
718.991	4242.03
719.179	4102.76
719.366	4186.73
719.553	4178.54
719.74	4184.68
719.927	4164.2
720.114	4131.44
720.301	4182.63
720.488	3977.84
720.676	4065.9
720.863	4311.66
721.05	4285.03
721.237	4117.1
721.424	4149.87
721.611	4135.53
721.798	4022.89
721.985	4033.13
722.172	4143.72
722.358	4018.8
722.545	4131.44
722.732	4143.72
722.919	4129.39
723.106	4053.61
723.293	4002.41
723.48	4026.99
723.667	3975.79
723.853	4041.32
724.04	4086.38
724.227	4098.67
724.414	4047.47
724.6	3943.02
724.787	3873.39
724.974	4153.96
725.161	3906.16
725.347	4108.91
725.534	4086.38
725.72	3816.05
725.907	3934.83
726.094	3934.83
726.28	3910.26
726.467	3975.79
726.653	4008.56
726.84	3928.69
727.027	4014.7
727.213	3908.21
727.4	4094.57
727.586	3959.41
727.773	3869.3
727.959	3861.1
728.145	3883.63
728.332	3961.45
728.518	3854.96
728.705	3879.54
728.891	3752.56
729.077	3959.41
729.264	3932.78
729.45	3955.31
729.636	3928.69
729.823	3814
730.009	3912.3
730.195	3891.82
730.382	3873.39
730.568	3885.68
730.754	3932.78
730.94	3807.86
731.126	3846.77
731.313	3877.49
731.499	3930.73
731.685	3816.05
731.871	3795.57
732.057	3910.26
732.243	3832.43
732.429	3701.36
732.615	3840.62
732.801	3807.86
732.987	3873.39
733.173	3709.55
733.359	3746.42
733.545	3783.28
733.731	3637.88
733.917	3809.9
734.103	3684.98
734.289	3889.78
734.475	3639.92
734.661	3836.53
734.847	3607.16
735.033	3816.05
735.219	3732.08
735.404	3826.29
735.59	3666.55
735.776	3719.79
735.962	3541.62
736.148	3684.98
736.333	3644.02
736.519	3533.43
736.705	3584.63
736.89	3572.34
737.076	3551.86
737.262	3521.14
737.447	3629.68
737.633	3500.66
737.819	3684.98
738.004	3461.75
738.19	3537.52
738.375	3535.48
738.561	3562.1
738.747	3512.95
738.932	3500.66
739.118	3476.09
739.303	3529.33
739.489	3512.95
739.674	3400.31
739.859	3529.33
740.045	3357.3
740.23	3476.09
740.416	3484.28
740.601	3467.89
740.786	3396.21
740.972	3426.93
741.157	3306.1
741.342	3244.67
741.528	3375.74
741.713	3424.89
741.898	3320.44
742.084	3275.38
742.269	3342.97
742.454	3218.04
742.639	3275.38
742.824	3207.8
743.01	3275.38
743.195	3197.56
743.38	3152.51
743.565	3177.08
743.75	3127.93
743.935	3132.03
744.12	3189.37
744.305	3156.6
744.49	3158.65
744.675	3078.78
744.86	3154.55
745.045	3172.99
745.23	3181.18
745.415	3080.83
745.6	3107.45
745.785	3007.1
745.97	3037.82
746.155	2933.37
746.34	2904.7
746.525	2812.54
746.71	3019.39
746.895	2867.84
747.079	2947.71
747.264	2857.6
747.449	2802.3
747.634	2873.98
747.819	2810.5
748.003	2810.5
748.188	2779.78
748.373	2820.74
748.557	2804.35
748.742	2742.91
748.927	2722.43
749.111	2673.28
749.296	2765.44
749.481	2699.91
749.665	2591.36
749.85	2726.53
750.034	2531.97
750.219	2632.32
750.404	2546.31
750.588	2556.55
750.773	2531.97
750.957	2452.1
751.141	2439.81
751.326	2564.74
751.51	2472.58
751.695	2550.4
751.879	2417.29
752.064	2493.06
752.248	2421.38
752.432	2390.66
752.617	2284.17
752.801	2314.89
752.985	2456.2
753.17	2327.18
753.354	2220.68
753.538	2339.46
753.722	2304.65
753.907	2198.15
754.091	2257.54
754.275	2189.96
754.459	2169.48
754.643	2210.44
754.828	2263.69
755.012	2155.15
755.196	2108.04
755.38	2232.97
755.564	2103.95
755.748	2019.98
755.932	2089.61
756.116	2038.41
756.3	2085.51
756.484	2013.84
756.668	2026.12
756.852	1985.16
757.036	2048.65
757.22	1921.68
757.404	1895.05
757.588	1878.67
757.772	1968.78
757.956	1925.77
758.14	1766.03
758.323	1895.05
758.507	1909.39
758.691	1827.47
758.875	1874.57
759.059	1866.38
759.242	1759.89
759.426	1845.9
759.61	1819.28
759.794	1720.98
759.977	1761.94
760.161	1815.18
760.345	1784.46
760.528	1751.7
760.712	1688.21
760.895	1743.5
761.079	1729.17
761.263	1632.91
761.446	1714.83
761.63	1712.78
761.813	1682.07
761.997	1634.96
762.18	1548.95
762.364	1555.09
762.547	1624.72
762.731	1751.7
762.914	1618.58
763.098	1620.63
763.281	1622.67
763.464	1561.23
763.648	1614.48
763.831	1594
764.015	1684.11
764.198	1651.35
764.381	1602.19
764.564	1542.8
764.748	1495.7
764.931	1553.04
765.114	1534.61
765.297	1514.13
765.481	1464.98
765.664	1524.37
765.847	1452.69
766.03	1501.84
766.213	1385.11
766.397	1507.99
766.58	1356.44
766.763	1559.19
766.946	1440.4
767.129	1532.56
767.312	1467.03
767.495	1518.23
767.678	1417.88
767.861	1417.88
768.044	1430.16
768.227	1473.17
768.41	1389.21
768.593	1458.84
768.776	1518.23
768.959	1387.16
769.142	1346.2
769.324	1370.77
769.507	1403.54
769.69	1264.28
769.873	1282.71
770.056	1333.91
770.239	1292.95
770.421	1401.49
770.604	1354.39
770.787	1401.49
770.97	1295
771.152	1260.18
771.335	1174.17
771.518	1262.23
771.7	1311.38
771.883	1221.27
772.066	1249.94
772.248	1278.62
772.431	1260.18
772.613	1196.7
772.796	1251.99
772.978	1198.74
773.161	1331.86
773.343	1204.89
773.526	1157.79
773.708	1239.7
773.891	1135.26
774.073	1141.4
774.256	1106.59
774.438	1100.44
774.621	1045.15
774.803	1221.27
774.985	1049.24
775.168	1196.7
775.35	983.71
775.532	1055.39
775.715	1190.55
775.897	1118.87
776.079	1036.95
776.261	1055.39
776.444	1094.3
776.626	1018.52
776.808	1041.05
776.99	946.84
777.173	1008.28
777.355	1008.28
777.537	1014.43
777.719	969.37
777.901	950.94
778.083	983.71
778.265	1026.72
778.447	926.36
778.629	952.99
778.811	918.17
778.993	934.56
779.175	938.65
779.357	893.6
779.539	821.92
779.721	1006.24
779.903	813.73
780.085	955.04
780.267	928.41
780.449	844.45
780.631	858.78
780.812	858.78
780.994	840.35
781.176	819.87
781.358	871.07
781.54	819.87
781.721	889.5
781.903	764.58
782.085	815.77
782.267	778.91
782.448	754.34
782.63	813.73
782.812	850.59
782.993	780.96
783.175	797.34
783.357	653.98
783.538	754.34
783.72	748.19
783.901	834.21
784.083	731.81
784.264	690.85
784.446	740
784.627	639.65
784.809	793.25
784.99	752.29
785.172	760.48
785.353	594.59
785.535	764.58
785.716	756.38
785.897	664.22
786.079	653.98
786.26	666.27
786.441	674.46
786.623	555.68
786.804	619.17
786.985	645.79
787.167	617.12
787.348	699.04
787.529	541.35
787.71	696.99
787.891	600.74
788.073	588.45
788.254	617.12
788.435	500.39
788.616	543.39
788.797	572.07
788.978	604.83
789.159	576.16
789.34	570.02
789.522	572.07
789.703	592.55
789.884	426.66
790.065	592.55
790.246	619.17
790.427	475.81
790.607	613.03
790.788	606.88
790.969	580.26
791.15	572.07
791.331	512.67
791.512	557.73
791.693	490.15
791.874	524.96
792.054	574.11
792.235	578.21
792.416	502.44
792.597	477.86
792.778	516.77
792.958	502.44
793.139	486.05
793.32	529.06
793.5	516.77
793.681	469.67
793.862	475.81
794.042	490.15
794.223	516.77
794.404	467.62
794.584	422.56
794.765	494.24
794.945	426.66
795.126	484
795.306	387.75
795.487	473.76
795.667	385.7
795.848	408.23
796.028	461.48
796.209	473.76
796.389	387.75
796.57	475.81
796.75	436.9
796.93	408.23
797.111	359.08
797.291	391.84
797.471	373.41
797.652	410.28
797.832	381.6
798.012	391.84
798.192	430.76
798.373	404.13
798.553	397.99
798.733	451.24
798.913	443.04
799.093	342.69
799.274	342.69
799.454	402.08
799.634	391.84
799.814	332.45
799.994	453.28
800.174	426.66
800.354	387.75
800.534	338.6
800.714	457.38
800.894	375.46
801.074	354.98
801.254	326.31
801.434	334.5
801.614	320.17
801.794	365.22
801.974	856.73
802.154	299.69
802.334	336.55
802.514	275.11
802.693	361.13
802.873	406.18
803.053	348.84
803.233	361.13
803.413	354.98
803.592	348.84
803.772	326.31
803.952	320.17
804.131	244.39
804.311	420.52
804.491	346.79
804.67	246.44
804.85	271.01
805.03	357.03
805.209	311.97
805.389	336.55
805.568	305.83
805.748	314.02
805.928	338.6
806.107	293.54
806.287	383.65
806.466	418.47
806.646	277.16
806.825	305.83
807.004	273.06
807.184	213.67
807.363	293.54
807.543	287.4
807.722	252.58
807.901	293.54
808.081	322.21
808.26	254.63
808.439	182.95
808.619	318.12
808.798	254.63
808.977	258.73
809.156	336.55
809.336	291.49
809.515	275.11
809.694	180.9
809.873	244.39
810.052	174.76
810.231	258.73
810.411	303.78
810.59	314.02
810.769	234.15
810.948	234.15
811.127	297.64
811.306	150.18
811.485	170.66
811.664	244.39
811.843	191.14
812.022	182.95
812.201	271.01
812.38	268.97
812.559	250.53
812.737	273.06
812.916	174.76
813.095	205.48
813.274	209.58
813.453	219.82
813.632	252.58
813.811	221.86
813.989	240.3
814.168	244.39
814.347	156.33
814.526	207.53
814.704	289.45
814.883	193.19
815.062	252.58
815.24	258.73
815.419	150.18
815.598	264.87
815.776	230.06
815.955	236.2
816.133	232.1
816.312	205.48
816.49	240.3
816.669	256.68
816.847	197.29
817.026	221.86
817.204	115.37
817.383	252.58
817.561	197.29
817.74	125.61
817.918	217.77
818.097	180.9
818.275	158.38
818.453	158.38
818.632	240.3
818.81	170.66
818.988	203.43
819.167	254.63
819.345	172.71
819.523	189.1
819.701	240.3
819.879	189.1
820.058	154.28
820.236	205.48
820.414	166.57
820.592	164.52
820.77	291.49
820.948	182.95
821.127	209.58
821.305	119.46
821.483	160.42
821.661	232.1
821.839	148.14
822.017	90.79
822.195	156.33
822.373	225.96
822.551	217.77
822.729	244.39
822.907	191.14
823.085	205.48
823.262	117.42
823.44	133.8
823.618	166.57
823.796	195.24
823.974	201.38
824.152	164.52
824.329	166.57
824.507	221.86
824.685	178.86
824.863	178.86
825.04	152.23
825.218	166.57
825.396	166.57
825.574	121.51
825.751	101.03
825.929	148.14
826.107	129.7
826.284	189.1
826.462	189.1
826.639	141.99
826.817	101.03
826.994	133.8
827.172	144.04
827.349	252.58
827.527	141.99
827.704	156.33
827.882	170.66
828.059	156.33
828.237	164.52
828.414	129.7
828.591	174.76
828.769	107.18
828.946	84.65
829.124	174.76
829.301	150.18
829.478	129.7
829.655	168.62
829.833	66.22
830.01	76.46
830.187	111.27
830.364	162.47
830.542	129.7
830.719	80.55
830.896	113.32
831.073	156.33
831.25	148.14
831.427	111.27
831.604	101.03
831.782	103.08
831.959	109.23
832.136	244.39
832.313	172.71
832.49	146.09
832.667	141.99
832.844	101.03
833.021	154.28
833.198	90.79
833.374	92.84
833.551	92.84
833.728	96.94
833.905	127.66
834.082	64.17
834.259	101.03
834.436	170.66
834.612	84.65
834.789	125.61
834.966	74.41
835.143	150.18
835.319	68.27
835.496	135.85
835.673	137.9
835.85	113.32
836.026	45.74
836.203	125.61
836.38	123.56
836.556	146.09
836.733	123.56
836.909	217.77
837.086	43.69
837.262	66.22
837.439	92.84
837.616	90.79
837.792	43.69
837.968	90.79
838.145	60.07
838.321	45.74
838.498	154.28
838.674	113.32
838.851	82.6
839.027	117.42
839.203	45.74
839.38	98.99
839.556	115.37
839.732	156.33
839.909	117.42
840.085	96.94
840.261	60.07
840.437	158.38
840.614	146.09
840.79	107.18
840.966	117.42
841.142	88.75
841.318	92.84
841.494	148.14
841.671	98.99
841.847	55.98
842.023	105.13
842.199	107.18
842.375	123.56
842.551	27.31
842.727	35.5
842.903	45.74
843.079	68.27
843.255	119.46
843.431	135.85
843.607	115.37
843.783	39.59
843.959	96.94
844.134	45.74
844.31	80.55
844.486	92.84
844.662	94.89
844.838	64.17
845.013	43.69
845.189	150.18
845.365	10.92
845.541	21.16
845.716	43.69
845.892	78.51
846.068	-1.37
846.244	39.59
846.419	121.51
846.595	15.02
846.77	103.08
846.946	101.03
847.122	33.45
847.297	23.21
847.473	133.8
847.648	90.79
847.824	60.07
847.999	-5.46
848.175	35.5
848.35	144.04
848.526	107.18
848.701	88.75
848.876	96.94
849.052	98.99
849.227	68.27
849.403	109.23
849.578	17.07
849.753	68.27
849.929	55.98
850.104	-66.9
850.279	80.55
850.454	90.79
850.63	86.7
850.805	92.84
850.98	90.79
851.155	76.46
851.33	162.47
851.505	-7.51
851.681	152.23
851.856	0.68
852.031	125.61
852.206	58.03
852.381	-36.18
852.556	27.31
852.731	109.23
852.906	49.83
853.081	-1.37
853.256	92.84
853.431	39.59
853.606	15.02
853.781	2.73
853.956	17.07
854.131	60.07
854.305	15.02
854.48	68.27
854.655	31.4
854.83	-13.65
855.005	-9.56
855.18	27.31
855.354	27.31
855.529	78.51
855.704	8.87
855.879	92.84
856.053	33.45
856.228	154.28
856.403	35.5
856.577	72.36
856.752	43.69
856.926	31.4
857.101	49.83
857.276	68.27
857.45	51.88
857.625	98.99
857.799	96.94
857.974	21.16
858.148	2.73
858.323	12.97
858.497	29.35
858.672	113.32
858.846	27.31
859.02	27.31
859.195	-21.84
859.369	60.07
859.543	25.26
859.718	19.11
859.892	51.88
860.066	51.88
860.241	-13.65
860.415	19.11
860.589	19.11
860.763	15.02
860.938	33.45
861.112	12.97
861.286	37.55
861.46	60.07
861.634	125.61
861.808	33.45
861.982	-9.56
862.157	27.31
862.331	82.6
862.505	2.73
862.679	31.4
862.853	45.74
863.027	-52.56
863.201	64.17
863.375	60.07
863.549	23.21
863.722	45.74
863.896	19.11
864.07	-13.65
864.244	80.55
864.418	-42.32
864.592	58.03
864.766	41.64
864.939	27.31
865.113	-5.46
865.287	78.51
865.461	-13.65
865.634	78.51
865.808	41.64
865.982	78.51
866.156	4.78
866.329	19.11
866.503	19.11
866.676	-5.46
866.85	10.92
867.024	80.55
867.197	60.07
867.371	88.75
867.544	37.55
867.718	-44.37
867.891	62.12
868.065	39.59
868.238	17.07
868.412	-21.84
868.585	-15.7
868.759	58.03
868.932	4.78
869.105	-46.42
869.279	0.68
869.452	78.51
869.625	-32.08
869.799	37.55
869.972	8.87
870.145	98.99
870.319	23.21
870.492	6.83
870.665	0.68
870.838	55.98
871.011	-46.42
871.185	-38.23
871.358	12.97
871.531	92.84
871.704	-11.61
871.877	-17.75
872.05	-11.61
872.223	-38.23
872.396	64.17
872.569	62.12
872.742	-23.89
872.915	39.59
873.088	21.16
873.261	-25.94
873.434	39.59
873.607	-27.99
873.78	74.41
873.953	2.73
874.126	19.11
874.299	41.64
874.471	62.12
874.644	0.68
874.817	31.4
874.99	60.07
875.163	-42.32
875.335	-54.61
875.508	-25.94
875.681	41.64
875.853	-40.28
876.026	31.4
876.199	10.92
876.371	66.22
876.544	-5.46
876.717	60.07
876.889	-52.56
877.062	29.35
877.234	-27.99
877.407	12.97
877.579	0.68
877.752	27.31
877.924	-7.51
878.097	4.78
878.269	2.73
878.442	58.03
878.614	4.78
878.786	-7.51
878.959	15.02
879.131	41.64
879.303	-9.56
879.476	37.55
879.648	29.35
879.82	64.17
879.993	-42.32
880.165	-9.56
880.337	-17.75
880.509	17.07
880.681	43.69
880.854	-27.99
881.026	0.68
881.198	27.31
881.37	49.83
881.542	-17.75
881.714	-9.56
881.886	41.64
882.058	-23.89
882.23	49.83
882.402	2.73
882.574	21.16
882.746	-11.61
882.918	25.26
883.09	2.73
883.262	17.07
883.434	-79.19
883.606	-75.09
883.778	29.35
883.95	17.07
884.122	27.31
884.293	25.26
884.465	39.59
884.637	55.98
884.809	10.92
884.98	58.03
885.152	72.36
885.324	12.97
885.496	58.03
885.667	-9.56
885.839	35.5
886.011	76.46
886.182	-27.99
886.354	58.03
886.525	-1.37
886.697	15.02
886.869	-7.51
887.04	-21.84
887.212	-7.51
887.383	101.03
887.555	25.26
887.726	37.55
887.897	-52.56
888.069	15.02
888.24	35.5
888.412	107.18
888.583	-13.65
888.754	10.92
888.926	-42.32
889.097	-25.94
889.268	-1.37
889.44	72.36
889.611	-46.42
889.782	10.92
889.953	-66.9
890.125	29.35
890.296	-15.7
890.467	-54.61
890.638	-66.9
890.809	19.11
890.98	-3.41
891.151	-3.41
891.323	82.6
891.494	72.36
891.665	68.27
891.836	-23.89
892.007	-11.61
892.178	17.07
892.349	-44.37
892.52	8.87
892.691	80.55
892.862	17.07
893.032	-38.23
893.203	25.26
893.374	47.79
893.545	19.11
893.716	-25.94
893.887	68.27
894.057	45.74
894.228	-30.04
894.399	39.59
894.57	15.02
894.74	51.88
894.911	-30.04
895.082	-71
895.253	-9.56
895.423	23.21
895.594	39.59
895.764	29.35
895.935	-32.08
896.106	-32.08
896.276	51.88
896.447	51.88
896.617	-38.23
896.788	-7.51
896.958	-9.56
897.129	2.73
897.299	-30.04
897.47	17.07
897.64	0.68
897.81	43.69
897.981	8.87
898.151	8.87
898.322	2.73
898.492	-1.37
898.662	31.4
898.832	6.83
899.003	-87.38
899.173	58.03
899.343	27.31
899.513	-40.28
