Data from USB4F104151__142__10-26-26-967.txt Node

Date: Wed Mar 12 10:26:26 EDT 2025
User: louis
Spectrometer: USB4F10415
Trigger mode: 4
Integration Time (sec): 3.000000E-2
Scans to average: 1
Electric dark correction enabled: true
Nonlinearity correction enabled: false
Boxcar width: 0
XAxis mode: Wavelengths
Number of Pixels in Spectrum: 3648
>>>>>Begin Spectral Data<<<<<
178.204	-159.74
178.424	-159.74
178.644	-159.74
178.864	-120.83
179.084	-71.68
179.304	49.15
179.524	-67.58
179.744	-36.86
179.964	65.54
180.184	38.91
180.404	-43.01
180.624	18.43
180.844	32.77
181.064	0
181.283	-16.38
181.503	-57.34
181.723	16.38
181.943	-98.3
182.163	90.11
182.383	34.82
182.602	79.87
182.822	-40.96
183.042	49.15
183.262	14.34
183.482	47.1
183.701	51.2
183.921	81.92
184.141	77.82
184.361	81.92
184.58	-30.72
184.8	-2.05
185.02	51.2
185.239	112.64
185.459	32.77
185.679	73.73
185.898	-8.19
186.118	36.86
186.338	32.77
186.557	57.34
186.777	-16.38
186.997	61.44
187.216	73.73
187.436	83.97
187.655	81.92
187.875	49.15
188.095	49.15
188.314	-8.19
188.534	77.82
188.753	67.58
188.973	40.96
189.192	112.64
189.412	55.3
189.631	55.3
189.851	32.77
190.07	161.79
190.29	86.01
190.509	40.96
190.729	28.67
190.948	10.24
191.168	178.17
191.387	53.25
191.607	34.82
191.826	26.62
192.045	26.62
192.265	57.34
192.484	65.54
192.704	-2.05
192.923	12.29
193.142	40.96
193.362	59.39
193.581	20.48
193.8	81.92
194.02	92.16
194.239	4.1
194.458	53.25
194.678	32.77
194.897	96.25
195.116	34.82
195.335	59.39
195.555	100.35
195.774	18.43
195.993	81.92
196.212	92.16
196.432	90.11
196.651	36.86
196.87	43.01
197.089	100.35
197.308	83.97
197.528	57.34
197.747	-57.34
197.966	20.48
198.185	114.69
198.404	104.45
198.623	18.43
198.842	20.48
199.062	106.49
199.281	114.69
199.5	-8.19
199.719	104.45
199.938	98.3
200.157	77.82
200.376	90.11
200.595	61.44
200.814	49.15
201.033	28.67
201.252	100.35
201.471	30.72
201.69	77.82
201.909	98.3
202.128	40.96
202.347	8.19
202.566	20.48
202.785	55.3
203.004	32.77
203.223	65.54
203.442	-4.1
203.661	-75.77
203.879	67.58
204.098	24.58
204.317	-2.05
204.536	63.49
204.755	20.48
204.974	38.91
205.193	73.73
205.411	16.38
205.63	55.3
205.849	36.86
206.068	36.86
206.287	0
206.505	106.49
206.724	53.25
206.943	28.67
207.162	45.06
207.381	81.92
207.599	81.92
207.818	34.82
208.037	14.34
208.255	-36.86
208.474	73.73
208.693	20.48
208.911	45.06
209.13	67.58
209.349	-16.38
209.567	-8.19
209.786	63.49
210.005	40.96
210.223	20.48
210.442	-77.82
210.661	126.97
210.879	59.39
211.098	145.41
211.316	36.86
211.535	143.36
211.753	-22.53
211.972	63.49
212.191	32.77
212.409	92.16
212.628	45.06
212.846	-22.53
213.065	40.96
213.283	131.07
213.502	24.58
213.72	4.1
213.938	73.73
214.157	-16.38
214.375	55.3
214.594	47.1
214.812	71.68
215.031	102.4
215.249	-18.43
215.467	106.49
215.686	24.58
215.904	83.97
216.122	86.01
216.341	102.4
216.559	40.96
216.778	118.78
216.996	73.73
217.214	59.39
217.432	61.44
217.651	-6.14
217.869	-24.58
218.087	61.44
218.306	139.26
218.524	63.49
218.742	28.67
218.96	75.77
219.179	14.34
219.397	79.87
219.615	90.11
219.833	24.58
220.051	12.29
220.27	102.4
220.488	49.15
220.706	47.1
220.924	12.29
221.142	14.34
221.36	55.3
221.578	86.01
221.796	57.34
222.015	77.82
222.233	-6.14
222.451	112.64
222.669	22.53
222.887	131.07
223.105	-18.43
223.323	57.34
223.541	-14.34
223.759	131.07
223.977	18.43
224.195	75.77
224.413	73.73
224.631	4.1
224.849	55.3
225.067	63.49
225.285	71.68
225.503	28.67
225.721	-59.39
225.939	22.53
226.157	30.72
226.375	163.84
226.592	45.06
226.81	73.73
227.028	63.49
227.246	137.21
227.464	43.01
227.682	22.53
227.9	8.19
228.117	-10.24
228.335	28.67
228.553	47.1
228.771	-6.14
228.989	18.43
229.206	55.3
229.424	49.15
229.642	59.39
229.86	129.02
230.077	40.96
230.295	106.49
230.513	-6.14
230.731	6.14
230.948	83.97
231.166	114.69
231.384	28.67
231.601	45.06
231.819	118.78
232.037	43.01
232.254	-51.2
232.472	12.29
232.689	96.25
232.907	71.68
233.125	61.44
233.342	45.06
233.56	38.91
233.777	6.14
233.995	47.1
234.213	86.01
234.43	10.24
234.648	36.86
234.865	-4.1
235.083	40.96
235.3	98.3
235.518	73.73
235.735	120.83
235.953	73.73
236.17	24.58
236.388	-16.38
236.605	77.82
236.822	81.92
237.04	-20.48
237.257	8.19
237.475	67.58
237.692	45.06
237.909	98.3
238.127	61.44
238.344	40.96
238.562	2.05
238.779	12.29
238.996	-18.43
239.214	43.01
239.431	38.91
239.648	-6.14
239.865	10.24
240.083	90.11
240.3	20.48
240.517	24.58
240.735	32.77
240.952	69.63
241.169	0
241.386	53.25
241.603	63.49
241.821	69.63
242.038	-4.1
242.255	110.59
242.472	79.87
242.689	73.73
242.907	55.3
243.124	24.58
243.341	12.29
243.558	-12.29
243.775	-10.24
243.992	36.86
244.209	51.2
244.426	100.35
244.643	81.92
244.86	22.53
245.078	86.01
245.295	75.77
245.512	92.16
245.729	16.38
245.946	98.3
246.163	28.67
246.38	-8.19
246.597	24.58
246.814	104.45
247.031	90.11
247.248	43.01
247.464	63.49
247.681	4.1
247.898	73.73
248.115	88.06
248.332	-12.29
248.549	55.3
248.766	92.16
248.983	61.44
249.2	77.82
249.417	38.91
249.633	28.67
249.85	18.43
250.067	83.97
250.284	112.64
250.501	40.96
250.717	49.15
250.934	20.48
251.151	-53.25
251.368	36.86
251.585	55.3
251.801	-22.53
252.018	49.15
252.235	73.73
252.451	24.58
252.668	-32.77
252.885	143.36
253.102	71.68
253.318	14.34
253.535	4.1
253.752	75.77
253.968	49.15
254.185	8.19
254.401	22.53
254.618	153.6
254.835	73.73
255.051	112.64
255.268	65.54
255.484	90.11
255.701	2.05
255.917	71.68
256.134	65.54
256.351	63.49
256.567	8.19
256.784	40.96
257	61.44
257.217	108.54
257.433	26.62
257.65	6.14
257.866	81.92
258.082	6.14
258.299	73.73
258.515	59.39
258.732	65.54
258.948	16.38
259.165	98.3
259.381	45.06
259.597	49.15
259.814	53.25
260.03	40.96
260.246	143.36
260.463	106.49
260.679	100.35
260.895	81.92
261.112	38.91
261.328	47.1
261.544	-8.19
261.761	75.77
261.977	20.48
262.193	30.72
262.409	38.91
262.626	-24.58
262.842	57.34
263.058	75.77
263.274	139.26
263.49	79.87
263.707	55.3
263.923	26.62
264.139	-12.29
264.355	73.73
264.571	28.67
264.787	53.25
265.004	73.73
265.22	30.72
265.436	-4.1
265.652	61.44
265.868	43.01
266.084	65.54
266.3	86.01
266.516	34.82
266.732	71.68
266.948	-16.38
267.164	71.68
267.38	49.15
267.596	30.72
267.812	141.31
268.028	61.44
268.244	49.15
268.46	102.4
268.676	40.96
268.892	24.58
269.108	49.15
269.324	-20.48
269.54	-34.82
269.756	96.25
269.972	-20.48
270.188	32.77
270.403	-49.15
270.619	65.54
270.835	38.91
271.051	36.86
271.267	51.2
271.483	22.53
271.698	81.92
271.914	36.86
272.13	36.86
272.346	59.39
272.562	36.86
272.777	43.01
272.993	22.53
273.209	-26.62
273.425	98.3
273.64	0
273.856	-6.14
274.072	69.63
274.287	2.05
274.503	71.68
274.719	49.15
274.934	55.3
275.15	40.96
275.366	45.06
275.581	-30.72
275.797	67.58
276.012	-40.96
276.228	26.62
276.444	67.58
276.659	79.87
276.875	-2.05
277.09	55.3
277.306	88.06
277.521	47.1
277.737	24.58
277.952	45.06
278.168	57.34
278.383	45.06
278.599	47.1
278.814	51.2
279.03	55.3
279.245	49.15
279.461	40.96
279.676	28.67
279.892	36.86
280.107	-8.19
280.322	69.63
280.538	63.49
280.753	51.2
280.969	65.54
281.184	34.82
281.399	79.87
281.615	-20.48
281.83	10.24
282.045	38.91
282.26	59.39
282.476	47.1
282.691	114.69
282.906	135.17
283.122	49.15
283.337	-8.19
283.552	102.4
283.767	61.44
283.983	81.92
284.198	112.64
284.413	18.43
284.628	71.68
284.843	65.54
285.058	57.34
285.274	16.38
285.489	-43.01
285.704	73.73
285.919	32.77
286.134	38.91
286.349	6.14
286.564	61.44
286.779	53.25
286.995	61.44
287.21	110.59
287.425	57.34
287.64	59.39
287.855	26.62
288.07	98.3
288.285	38.91
288.5	43.01
288.715	53.25
288.93	0
289.145	43.01
289.36	16.38
289.575	69.63
289.79	94.21
290.004	4.1
290.219	32.77
290.434	22.53
290.649	96.25
290.864	83.97
291.079	-12.29
291.294	53.25
291.509	12.29
291.724	12.29
291.938	22.53
292.153	129.02
292.368	57.34
292.583	47.1
292.798	75.77
293.012	63.49
293.227	6.14
293.442	6.14
293.657	-32.77
293.871	106.49
294.086	20.48
294.301	81.92
294.516	24.58
294.73	137.21
294.945	71.68
295.16	55.3
295.374	71.68
295.589	18.43
295.804	61.44
296.018	53.25
296.233	18.43
296.447	49.15
296.662	14.34
296.877	94.21
297.091	12.29
297.306	161.79
297.52	83.97
297.735	147.45
297.949	28.67
298.164	16.38
298.378	96.25
298.593	30.72
298.807	92.16
299.022	106.49
299.236	79.87
299.451	75.77
299.665	40.96
299.88	86.01
300.094	43.01
300.309	61.44
300.523	100.35
300.737	98.3
300.952	45.06
301.166	81.92
301.381	61.44
301.595	16.38
301.809	59.39
302.024	36.86
302.238	73.73
302.452	196.61
302.667	63.49
302.881	131.07
303.095	18.43
303.309	57.34
303.524	28.67
303.738	49.15
303.952	43.01
304.166	61.44
304.381	40.96
304.595	126.97
304.809	32.77
305.023	22.53
305.237	34.82
305.452	32.77
305.666	38.91
305.88	86.01
306.094	49.15
306.308	71.68
306.522	98.3
306.736	16.38
306.95	53.25
307.164	45.06
307.379	-4.1
307.593	45.06
307.807	73.73
308.021	172.03
308.235	49.15
308.449	-16.38
308.663	53.25
308.877	83.97
309.091	163.84
309.305	8.19
309.519	40.96
309.733	32.77
309.947	-12.29
310.161	16.38
310.374	22.53
310.588	4.1
310.802	32.77
311.016	20.48
311.23	36.86
311.444	36.86
311.658	-24.58
311.872	118.78
312.085	6.14
312.299	147.45
312.513	126.97
312.727	86.01
312.941	59.39
313.154	20.48
313.368	65.54
313.582	69.63
313.796	129.02
314.009	104.45
314.223	98.3
314.437	38.91
314.651	73.73
314.864	104.45
315.078	45.06
315.292	-32.77
315.505	24.58
315.719	-2.05
315.933	8.19
316.146	118.78
316.36	83.97
316.573	100.35
316.787	59.39
317.001	90.11
317.214	22.53
317.428	106.49
317.641	110.59
317.855	92.16
318.068	65.54
318.282	-4.1
318.495	139.26
318.709	86.01
318.922	90.11
319.136	118.78
319.349	34.82
319.563	71.68
319.776	24.58
319.99	4.1
320.203	-2.05
320.417	86.01
320.63	55.3
320.843	63.49
321.057	47.1
321.27	73.73
321.483	81.92
321.697	90.11
321.91	73.73
322.124	83.97
322.337	51.2
322.55	122.88
322.763	47.1
322.977	118.78
323.19	30.72
323.403	22.53
323.617	61.44
323.83	94.21
324.043	-22.53
324.256	43.01
324.469	0
324.683	49.15
324.896	20.48
325.109	94.21
325.322	38.91
325.535	122.88
325.748	-12.29
325.962	61.44
326.175	71.68
326.388	28.67
326.601	-16.38
326.814	49.15
327.027	24.58
327.24	86.01
327.453	-10.24
327.666	77.82
327.879	61.44
328.092	63.49
328.305	71.68
328.518	81.92
328.731	40.96
328.944	57.34
329.157	104.45
329.37	26.62
329.583	36.86
329.796	43.01
330.009	8.19
330.222	32.77
330.435	73.73
330.648	16.38
330.861	77.82
331.073	53.25
331.286	43.01
331.499	124.93
331.712	47.1
331.925	49.15
332.138	0
332.35	98.3
332.563	59.39
332.776	77.82
332.989	28.67
333.202	49.15
333.414	40.96
333.627	90.11
333.84	14.34
334.053	77.82
334.265	55.3
334.478	43.01
334.691	47.1
334.903	118.78
335.116	49.15
335.329	69.63
335.541	38.91
335.754	73.73
335.966	92.16
336.179	98.3
336.392	16.38
336.604	90.11
336.817	75.77
337.029	114.69
337.242	73.73
337.454	69.63
337.667	122.88
337.88	57.34
338.092	24.58
338.305	114.69
338.517	16.38
338.729	32.77
338.942	122.88
339.154	-20.48
339.367	61.44
339.579	149.5
339.792	-6.14
340.004	67.58
340.217	36.86
340.429	55.3
340.641	28.67
340.854	16.38
341.066	69.63
341.278	49.15
341.491	49.15
341.703	16.38
341.915	71.68
342.128	53.25
342.34	81.92
342.552	110.59
342.764	77.82
342.977	81.92
343.189	36.86
343.401	28.67
343.613	79.87
343.826	49.15
344.038	-24.58
344.25	59.39
344.462	63.49
344.674	57.34
344.886	18.43
345.099	94.21
345.311	61.44
345.523	65.54
345.735	40.96
345.947	122.88
346.159	45.06
346.371	77.82
346.583	53.25
346.795	65.54
347.007	49.15
347.219	34.82
347.431	86.01
347.643	40.96
347.855	47.1
348.067	98.3
348.279	16.38
348.491	20.48
348.703	0
348.915	-51.2
349.127	92.16
349.339	73.73
349.551	73.73
349.763	98.3
349.975	-2.05
350.187	114.69
350.399	47.1
350.61	81.92
350.822	2.05
351.034	22.53
351.246	38.91
351.458	69.63
351.669	98.3
351.881	126.97
352.093	102.4
352.305	73.73
352.517	65.54
352.728	151.55
352.94	49.15
353.152	86.01
353.363	40.96
353.575	98.3
353.787	110.59
353.999	77.82
354.21	90.11
354.422	65.54
354.633	26.62
354.845	40.96
355.057	67.58
355.268	51.2
355.48	102.4
355.692	75.77
355.903	73.73
356.115	4.1
356.326	12.29
356.538	36.86
356.749	88.06
356.961	98.3
357.172	106.49
357.384	24.58
357.595	49.15
357.807	86.01
358.018	53.25
358.23	75.77
358.441	169.98
358.653	94.21
358.864	55.3
359.075	32.77
359.287	149.5
359.498	53.25
359.709	96.25
359.921	53.25
360.132	114.69
360.344	96.25
360.555	16.38
360.766	57.34
360.977	102.4
361.189	141.31
361.4	57.34
361.611	24.58
361.823	28.67
362.034	98.3
362.245	51.2
362.456	69.63
362.667	110.59
362.879	98.3
363.09	116.73
363.301	32.77
363.512	114.69
363.723	34.82
363.935	86.01
364.146	122.88
364.357	-4.1
364.568	71.68
364.779	2.05
364.99	143.36
365.201	30.72
365.412	141.31
365.623	65.54
365.834	49.15
366.045	81.92
366.256	59.39
366.467	120.83
366.678	26.62
366.889	40.96
367.1	102.4
367.311	43.01
367.522	0
367.733	2.05
367.944	131.07
368.155	131.07
368.366	38.91
368.577	4.1
368.788	57.34
368.999	16.38
369.209	4.1
369.42	165.89
369.631	79.87
369.842	40.96
370.053	16.38
370.264	88.06
370.474	108.54
370.685	90.11
370.896	110.59
371.107	98.3
371.317	106.49
371.528	71.68
371.739	108.54
371.95	102.4
372.16	57.34
372.371	106.49
372.582	114.69
372.792	122.88
373.003	135.17
373.214	116.73
373.424	57.34
373.635	28.67
373.846	102.4
374.056	49.15
374.267	139.26
374.477	100.35
374.688	83.97
374.898	49.15
375.109	61.44
375.319	51.2
375.53	59.39
375.74	61.44
375.951	51.2
376.161	69.63
376.372	69.63
376.582	12.29
376.793	106.49
377.003	65.54
377.214	88.06
377.424	34.82
377.635	94.21
377.845	24.58
378.055	43.01
378.266	32.77
378.476	67.58
378.686	83.97
378.897	98.3
379.107	112.64
379.317	38.91
379.528	104.45
379.738	73.73
379.948	28.67
380.158	124.93
380.369	18.43
380.579	83.97
380.789	75.77
380.999	77.82
381.21	153.6
381.42	36.86
381.63	90.11
381.84	34.82
382.05	92.16
382.261	114.69
382.471	90.11
382.681	59.39
382.891	6.14
383.101	110.59
383.311	90.11
383.521	112.64
383.731	36.86
383.941	86.01
384.151	63.49
384.361	79.87
384.571	106.49
384.781	51.2
384.991	69.63
385.201	92.16
385.411	73.73
385.621	77.82
385.831	65.54
386.041	28.67
386.251	79.87
386.461	118.78
386.671	65.54
386.881	14.34
387.091	75.77
387.301	86.01
387.511	86.01
387.72	137.21
387.93	200.7
388.14	26.62
388.35	53.25
388.56	172.03
388.769	129.02
388.979	153.6
389.189	83.97
389.399	53.25
389.609	114.69
389.818	139.26
390.028	106.49
390.238	40.96
390.447	114.69
390.657	131.07
390.867	118.78
391.076	8.19
391.286	110.59
391.496	145.41
391.705	90.11
391.915	184.32
392.125	159.74
392.334	122.88
392.544	114.69
392.753	59.39
392.963	90.11
393.172	53.25
393.382	143.36
393.591	174.08
393.801	67.58
394.01	114.69
394.22	143.36
394.429	145.41
394.639	137.21
394.848	198.65
395.058	92.16
395.267	73.73
395.477	120.83
395.686	151.55
395.895	172.03
396.105	169.98
396.314	83.97
396.524	110.59
396.733	178.17
396.942	188.41
397.152	122.88
397.361	96.25
397.57	38.91
397.78	167.93
397.989	83.97
398.198	276.48
398.407	178.17
398.617	81.92
398.826	176.13
399.035	188.41
399.244	188.41
399.453	63.49
399.663	98.3
399.872	137.21
400.081	165.89
400.29	253.95
400.499	190.46
400.708	151.55
400.917	133.12
401.127	165.89
401.336	159.74
401.545	235.52
401.754	163.84
401.963	114.69
402.172	176.13
402.381	149.5
402.59	176.13
402.799	114.69
403.008	159.74
403.217	172.03
403.426	159.74
403.635	186.37
403.844	159.74
404.053	202.75
404.262	163.84
404.471	180.22
404.68	143.36
404.888	223.23
405.097	155.65
405.306	137.21
405.515	305.15
405.724	165.89
405.933	227.32
406.142	180.22
406.35	243.71
406.559	292.86
406.768	212.99
406.977	276.48
407.185	247.8
407.394	327.67
407.603	188.41
407.812	292.86
408.02	305.15
408.229	305.15
408.438	311.29
408.646	229.37
408.855	327.67
409.064	280.57
409.272	337.91
409.481	346.11
409.69	311.29
409.898	360.44
410.107	374.78
410.315	401.4
410.524	419.83
410.733	413.69
410.941	372.73
411.15	354.3
411.358	450.55
411.567	491.51
411.775	507.9
411.984	489.46
412.192	591.86
412.401	446.46
412.609	618.49
412.818	598.01
413.026	618.49
413.234	651.25
413.443	579.58
413.651	610.29
413.86	694.26
414.068	724.98
414.276	698.36
414.485	716.79
414.693	763.89
414.901	741.36
415.11	808.95
415.318	804.85
415.526	868.34
415.734	903.15
415.943	864.24
416.151	978.93
416.359	933.87
416.567	940.02
416.776	1038.32
416.984	1105.9
417.192	1159.15
417.4	1124.33
417.608	1132.53
417.817	1153.01
418.025	1228.78
418.233	1419.24
418.441	1347.56
418.649	1306.6
418.857	1423.34
419.065	1429.48
419.273	1519.59
419.481	1527.78
419.689	1695.72
419.897	1789.92
420.105	1683.43
420.313	1865.7
420.521	1802.21
420.729	1863.65
420.937	2064.35
421.145	2052.06
421.353	2109.41
421.561	2248.67
421.769	2271.2
421.977	2422.75
422.185	2250.72
422.393	2473.95
422.601	2668.5
422.809	2707.41
423.017	2731.99
423.224	2705.37
423.432	2930.64
423.64	2799.57
423.848	3002.32
424.056	3047.38
424.263	3071.95
424.471	3309.52
424.679	3309.52
424.887	3629
425.094	3645.38
425.302	3651.53
425.51	3772.36
425.718	3932.1
425.925	3993.54
426.133	4186.05
426.341	4417.47
426.548	4407.23
426.756	4532.15
426.964	4505.53
427.171	4702.14
427.379	4878.26
427.586	4933.56
427.794	5136.31
428.001	5324.72
428.209	5492.65
428.417	5453.74
428.624	5951.4
428.832	5922.73
429.039	5881.77
429.247	6148
429.454	6305.7
429.662	6920.09
429.869	6315.94
430.076	6770.58
430.284	6629.27
430.491	6893.46
430.699	7255.95
430.906	7368.59
431.114	7499.66
431.321	7862.15
431.528	7767.95
431.736	8281.99
431.943	8662.91
432.15	8476.54
432.358	8679.29
432.565	8974.2
432.772	9049.97
432.979	9451.38
433.187	9494.38
433.394	9727.85
433.601	10303.33
433.808	10178.4
434.016	10319.71
434.223	10788.7
434.43	11403.09
434.637	11259.73
434.844	11870.03
435.052	12136.26
435.259	11927.37
435.466	12146.5
435.673	11933.51
435.88	12889.92
436.087	13541.17
436.294	13457.2
436.501	12998.46
436.708	13508.4
436.915	13995.82
437.122	14272.29
437.329	14685.98
437.537	14810.91
437.743	14855.97
437.95	15001.37
438.157	15773.46
438.364	16226.06
438.571	16389.89
438.778	16121.61
438.985	17766.13
439.192	17227.51
439.399	17932.01
439.606	17336.06
439.813	18394.86
440.02	19429.08
440.227	19302.11
440.433	18910.94
440.64	19597.01
440.847	19543.77
441.054	19701.46
441.261	21186.24
441.467	20989.63
441.674	21350.07
441.881	22136.49
442.088	21948.08
442.294	21896.88
442.501	22797.99
442.708	22867.62
442.914	23893.65
443.121	24581.77
443.328	23967.38
443.534	25892.47
443.741	24852.1
443.948	24635.02
444.154	26584.68
444.361	26150.51
444.568	26439.28
444.774	26531.44
444.981	26818.15
445.187	27815.51
445.394	28888.65
445.6	28540.49
445.807	31088.17
446.013	29630.01
446.22	30297.65
446.426	31266.34
446.633	31798.81
446.839	32546.32
447.046	31499.81
447.252	32912.91
447.459	33289.73
447.665	33058.31
447.871	34162.17
448.078	35710.43
448.284	33973.75
448.491	35153.38
448.697	36140.5
448.903	36881.87
449.11	37150.15
449.316	36443.6
449.522	37178.82
449.728	37500.36
449.935	38084.03
450.141	38190.52
450.347	38974.89
450.553	37862.85
450.76	38389.17
450.966	39386.54
451.172	38991.28
451.378	39716.26
451.584	39220.65
451.791	40035.74
451.997	39945.63
452.203	40314.26
452.409	40125.85
452.615	40150.43
452.821	38921.65
453.027	38188.47
453.233	40615.32
453.44	38383.03
453.646	39224.75
453.852	39413.16
454.058	40035.74
454.264	37995.96
454.47	39437.73
454.676	38315.45
454.882	40187.29
455.088	36138.46
455.294	36646.35
455.5	36965.84
455.705	37541.32
455.911	35786.21
456.117	35341.8
456.323	34967.02
456.529	32810.51
456.735	34115.06
456.941	33433.09
457.147	33312.26
457.352	31966.74
457.558	31378.98
457.764	31651.36
457.97	30844.46
458.176	30195.25
458.381	30301.75
458.587	28769.86
458.793	28565.07
458.999	27711.07
459.204	29068.87
459.41	28614.22
459.616	26588.78
459.821	26848.87
460.027	26525.29
460.233	25861.75
460.438	24723.08
460.644	25126.53
460.85	24010.39
461.055	23488.15
461.261	23375.52
461.466	21892.79
461.672	21106.37
461.878	22263.47
462.083	20876.99
462.289	20692.68
462.494	20506.31
462.7	19695.32
462.905	19291.87
463.111	19857.1
463.316	19865.3
463.522	19513.05
463.727	19535.57
463.932	19373.78
464.138	19205.85
464.343	19179.23
464.549	18892.51
464.754	19386.07
464.959	19367.64
465.165	19177.18
465.37	18409.19
465.575	17884.91
465.781	18607.84
465.986	18487.01
466.191	17882.86
466.397	17669.87
466.602	16862.97
466.807	17643.25
467.012	17710.83
467.218	17493.75
467.423	17233.66
467.628	17262.33
467.833	18298.6
468.038	17344.25
468.244	16807.68
468.449	17403.64
468.654	16731.9
468.859	16873.21
469.064	16758.53
469.269	16080.65
469.474	16084.75
469.679	16520.96
469.885	16015.12
470.09	16260.87
470.295	16211.72
470.5	15830.8
470.705	15830.8
470.91	15666.96
471.115	15417.11
471.32	15607.57
471.525	15406.87
471.73	14931.74
471.935	15079.19
472.139	14507.81
472.344	14491.43
472.549	14661.41
472.754	14327.59
472.959	14081.83
473.164	13782.83
473.369	13760.3
473.574	14079.79
473.778	13948.72
473.983	13668.14
474.188	13762.35
474.393	13238.07
474.598	13254.45
474.802	13127.48
475.007	12986.17
475.212	13008.7
475.417	12717.89
475.621	12560.19
475.826	12701.5
476.031	12201.8
476.235	12302.15
476.44	12369.73
476.645	12068.68
476.849	12144.45
477.054	11927.37
477.259	11759.44
477.463	11810.64
477.668	11517.78
477.872	11634.51
478.077	11544.4
478.282	11175.77
478.486	11052.89
478.691	11050.84
478.895	11071.32
479.1	10946.39
479.304	11065.18
479.509	10700.64
479.713	10915.67
479.918	10446.69
480.122	10393.44
480.326	10657.63
480.531	10706.78
480.735	10483.55
480.94	10334.05
481.144	10866.52
481.348	10325.86
481.553	10575.71
481.757	10295.14
481.961	10276.71
482.166	10563.42
482.37	10286.95
482.574	9994.09
482.778	10241.89
482.983	10262.37
483.187	10198.88
483.391	10450.78
483.595	10151.78
483.8	10178.4
484.004	10211.17
484.208	10385.25
484.412	10192.74
484.616	10184.55
484.821	10110.82
485.025	9967.46
485.229	10321.76
485.433	10110.82
485.637	10307.43
485.841	10237.8
486.045	10188.64
486.249	10313.57
486.453	10012.52
486.657	10219.36
486.861	10377.06
487.065	10063.72
487.269	10088.29
487.473	10094.44
487.677	10295.14
487.881	10338.15
488.085	10215.27
488.289	10377.06
488.493	10368.87
488.697	10375.01
488.901	10289
489.105	10184.55
489.309	10422.11
489.512	10207.08
489.716	10352.48
489.92	10245.99
490.124	10352.48
490.328	10669.92
490.531	10336.1
490.735	10436.45
490.939	10588
491.143	10669.92
491.346	10510.18
491.55	10692.44
491.754	10567.52
491.958	10780.51
492.161	10688.35
492.365	11009.88
492.569	10688.35
492.772	10854.23
492.976	10919.77
493.18	10827.61
493.383	11173.72
493.587	11044.7
493.79	11448.15
493.994	11188.05
494.197	11458.39
494.401	11312.98
494.605	11499.34
494.808	11638.61
495.012	11652.94
495.215	11648.85
495.419	11804.49
495.622	11833.16
495.825	11972.43
496.029	12060.49
496.232	12293.96
496.436	12105.54
496.639	12648.25
496.843	12437.31
497.046	12728.13
497.249	12990.27
497.453	12803.9
497.656	13268.79
497.859	13143.86
498.063	13238.07
498.266	13467.44
498.469	13520.69
498.673	13551.41
498.876	13745.97
499.079	14112.55
499.282	13924.14
499.485	14321.45
499.689	14358.31
499.892	14530.34
500.095	14593.83
500.298	15062.81
500.501	15005.47
500.705	15349.53
500.908	15159.06
501.111	15513.36
501.314	15830.8
501.517	16000.78
501.72	15951.63
501.923	15939.34
502.126	16416.52
502.329	16611.07
502.532	16652.03
502.735	16826.11
502.938	17102.59
503.141	17217.27
503.344	17510.13
503.547	17825.52
503.75	17950.45
503.953	18378.47
504.156	18130.67
504.359	18456.29
504.562	18714.34
504.765	18978.53
504.968	19093.21
505.17	19128.03
505.373	19508.95
505.576	19914.45
505.779	19984.08
505.982	19881.68
506.185	20444.87
506.387	20575.94
506.59	20870.85
506.793	21323.45
506.996	21182.14
507.198	21585.59
507.401	21649.08
507.604	21823.15
507.807	22163.12
508.009	22398.63
508.212	22480.55
508.415	22795.94
508.617	23262.88
508.82	23045.79
509.022	23154.33
509.225	23989.91
509.428	24047.25
509.63	24020.63
509.833	24118.93
510.035	24895.11
510.238	24841.86
510.44	25106.05
510.643	25474.68
510.845	25898.61
511.048	25534.07
511.25	26044.02
511.453	26152.56
511.655	27246.18
511.858	26822.25
512.06	27115.11
512.262	27657.82
512.465	27272.8
512.667	28202.58
512.87	27864.66
513.072	28155.47
513.274	28890.7
513.477	29175.36
513.679	29195.84
513.881	29929.02
514.084	29986.36
514.286	29904.44
514.488	30086.71
514.69	30826.03
514.893	30946.86
515.095	30973.48
515.297	31241.76
515.499	31477.28
515.701	32081.43
515.904	32243.22
516.106	32691.73
516.308	32550.42
516.51	32931.34
516.712	33271.3
516.914	33713.66
517.116	33949.18
517.318	34100.73
517.52	34369.01
517.722	34614.77
517.925	35186.15
518.127	35751.39
518.329	36111.83
518.531	35794.4
518.733	36214.23
518.935	36810.19
519.136	36865.49
519.338	37455.3
519.54	37717.44
519.742	37866.94
519.944	38034.88
520.146	38985.13
520.348	38907.31
520.55	39112.11
520.752	39093.68
520.954	39765.41
521.155	39675.3
521.357	40428.95
521.559	40422.81
521.761	41201.04
521.963	40986
522.164	41100.68
522.366	41289.1
522.568	41641.35
522.77	42411.38
522.971	42374.52
523.173	42458.49
523.375	42896.75
523.576	42726.77
523.778	42825.07
523.98	43660.65
524.181	43705.7
524.383	43414.89
524.584	44469.59
524.786	44248.41
524.988	44281.18
525.189	44868.95
525.391	45296.97
525.592	45124.94
525.794	45561.16
525.995	45868.36
526.197	45516.11
526.398	45804.87
526.6	46325.05
526.801	46357.82
527.003	46372.16
527.204	46724.41
527.406	47097.14
527.607	46476.6
527.808	47394.09
528.01	46660.92
528.211	47271.21
528.412	47811.88
528.614	47455.53
528.815	47768.87
529.016	48057.63
529.218	47912.23
529.419	47920.42
529.62	48276.77
529.822	48088.35
530.023	48088.35
530.224	48624.92
530.425	48362.78
530.626	48287.01
530.828	48325.92
531.029	49550.6
531.23	48434.46
531.431	48665.88
531.632	48878.87
531.833	49161.49
532.035	49403.15
532.236	49036.56
532.437	49118.48
532.638	48686.36
532.839	49741.07
533.04	49521.93
533.241	48833.81
533.442	49775.88
533.643	49411.34
533.844	49444.11
534.045	49456.4
534.246	48985.36
534.447	49982.73
534.648	49446.16
534.849	49501.45
535.05	49421.58
535.251	49249.55
535.451	49642.76
535.652	50103.56
535.853	49685.77
536.054	49399.05
536.255	49788.17
536.456	49390.86
536.657	50226.43
536.857	49370.38
537.058	49554.7
537.259	49956.1
537.46	50117.89
537.66	49661.19
537.861	49923.33
538.062	49317.14
538.263	50128.13
538.463	49763.59
538.664	49667.34
538.865	49882.37
539.065	49743.11
539.266	49653
539.466	50201.86
539.667	49726.73
539.868	50496.77
540.068	49915.14
540.269	49863.94
540.469	50066.69
540.67	49624.33
540.87	50216.19
541.071	49351.95
541.271	49876.23
541.472	49763.59
541.672	49847.56
541.873	49958.15
542.073	49349.9
542.274	50187.52
542.474	50027.78
542.675	49501.45
542.875	50050.31
543.075	49876.23
543.276	49020.18
543.476	50132.23
543.676	50074.88
543.877	49956.1
544.077	49882.37
544.277	49485.07
544.478	49292.56
544.678	49573.13
544.878	49374.48
545.078	49784.07
545.279	49179.92
545.479	49597.71
545.679	49880.33
545.879	49552.65
546.079	49505.55
546.28	49251.6
546.48	49321.23
546.68	49872.14
546.88	49566.99
547.08	49513.74
547.28	49292.56
547.48	48950.55
547.68	49360.14
547.88	49313.04
548.081	49440.01
548.281	49073.43
548.481	49280.27
548.681	49706.25
548.881	49743.11
549.081	49417.49
549.28	48940.31
549.48	49339.66
549.68	49255.7
549.88	50179.33
550.08	48850.2
550.28	49071.38
550.48	49222.93
550.68	49718.54
550.88	49390.86
551.08	49198.35
551.279	49333.52
551.479	49433.87
551.679	49063.19
551.879	49098
552.079	49440.01
552.278	49337.62
552.478	49382.67
552.678	49083.67
552.878	49392.91
553.077	49118.48
553.277	48575.77
553.477	49458.45
553.676	48831.77
553.876	49069.33
554.076	48723.22
554.275	48964.88
554.475	48549.15
554.674	48755.99
554.874	48997.65
555.074	48588.06
555.273	48776.47
555.473	48989.46
555.672	48522.52
555.872	48336.16
556.071	49208.59
556.271	48889.11
556.47	48489.76
556.67	48104.74
556.869	48465.18
557.068	48330.01
557.268	48526.62
557.467	48502.04
557.667	47916.32
557.866	48647.45
558.065	48465.18
558.265	48063.78
558.464	47516.97
558.663	48540.96
558.863	47858.98
559.062	48022.82
559.261	47564.07
559.461	48270.62
559.66	47150.38
559.859	47820.07
560.058	47121.71
560.258	47629.61
560.457	46916.92
560.656	47873.32
560.855	47506.73
561.054	47826.21
561.253	47209.78
561.453	47365.42
561.652	47220.02
561.851	47433
562.05	47023.41
562.249	46527.8
562.448	47453.48
562.647	47082.8
562.846	46683.45
563.045	47084.85
563.244	46212.41
563.443	47267.12
563.642	45761.86
563.841	46525.75
564.04	46540.09
564.239	46683.45
564.438	46167.36
564.637	46150.98
564.836	45821.25
565.035	45782.34
565.234	46148.93
565.432	45788.49
565.631	45851.97
565.83	46048.58
566.029	45440.33
566.228	45374.8
566.427	45387.08
566.625	45491.53
566.824	44782.93
567.023	45135.18
567.222	44688.73
567.42	45106.51
567.619	45081.94
567.818	44660.05
568.016	44483.93
568.215	45163.85
568.414	44625.24
568.612	44883.28
568.811	44649.81
569.01	44500.31
569.208	44182.88
569.407	44545.37
569.605	43613.54
569.804	44377.43
570.002	43939.17
570.201	43961.7
570.4	43562.34
570.598	43529.58
570.797	43595.11
570.995	43713.89
571.193	43298.16
571.392	43808.1
571.59	42507.64
571.789	43210.09
571.987	43158.89
572.186	42694
572.384	42489.21
572.582	43062.64
572.781	42773.88
572.979	42085.76
573.177	42290.55
573.376	42489.21
573.574	42311.03
573.772	42691.96
573.971	42220.92
574.169	41950.59
574.367	41739.65
574.565	41715.08
574.763	41674.12
574.962	41649.54
575.16	40744.34
575.358	41274.76
575.556	40818.07
575.754	41405.83
575.952	40750.48
576.151	40871.31
576.349	40609.17
576.547	40695.19
576.745	40603.03
576.943	40641.94
577.141	40310.17
577.339	40080.8
577.537	40490.39
577.735	39982.49
577.933	39775.65
578.131	40179.1
578.329	39914.91
578.527	39697.83
578.725	39400.87
578.923	39847.33
579.121	39478.69
579.319	39050.67
579.516	39669.15
579.714	39222.7
579.912	39202.22
580.11	39288.23
580.308	39161.26
580.506	39034.28
580.704	38309.3
580.901	39001.52
581.099	39028.14
581.297	38188.47
581.495	38450.61
581.692	38333.88
581.89	38124.99
582.088	38462.9
582.285	38020.54
582.483	38397.37
582.681	38012.35
582.878	38032.83
583.076	37559.75
583.274	38024.64
583.471	37694.91
583.669	37049.8
583.866	37264.84
584.064	37451.2
584.262	36939.21
584.459	37369.29
584.657	36681.17
584.854	37105.1
585.052	36611.54
585.249	36713.94
585.447	36228.57
585.644	36472.28
585.841	36611.54
586.039	36685.26
586.236	35866.08
586.434	36244.95
586.631	36154.84
586.828	35821.02
587.026	36107.74
587.223	35677.66
587.42	35634.66
587.618	35794.4
587.815	35280.36
588.012	35182.06
588.21	35091.94
588.407	35458.53
588.604	34711.02
588.801	34987.5
588.999	34975.21
589.196	34737.65
589.393	35087.85
589.59	34596.34
589.787	34598.38
589.984	34321.91
590.182	34297.33
590.379	34571.76
590.576	33668.61
590.773	34295.28
590.97	33615.36
591.167	34104.82
591.364	33674.75
591.561	33877.5
591.758	33345.03
591.955	33566.21
592.152	33730.05
592.349	33220.1
592.546	33048.07
592.743	33238.53
592.94	32558.61
593.137	33043.98
593.334	33408.51
593.531	32673.29
593.727	32908.81
593.924	32796.17
594.121	32124.44
594.318	32642.57
594.515	31958.55
594.712	32691.73
594.908	32044.57
595.105	32069.14
595.302	32151.06
595.499	32122.39
595.696	31608.35
595.892	31976.98
596.089	31647.26
596.286	31354.4
596.482	31569.44
596.679	31348.26
596.876	31415.84
597.072	30785.07
597.269	31340.07
597.466	31172.13
597.662	30983.72
597.859	30985.77
598.055	30860.84
598.252	30676.52
598.448	30383.66
598.645	30416.43
598.841	30107.19
599.038	30422.58
599.234	30537.26
599.431	30197.3
599.627	29791.8
599.824	29883.96
600.02	29756.99
600.217	30002.74
600.413	29734.46
600.609	29810.23
600.806	29664.83
601.002	29273.67
601.198	29449.79
601.395	29222.47
601.591	29103.68
601.787	28800.58
601.984	28894.79
602.18	29206.08
602.376	28804.68
602.572	28712.52
602.769	29007.43
602.965	28687.95
603.161	28313.17
603.357	28282.45
603.553	28399.18
603.75	28325.46
603.946	28429.9
604.142	28296.78
604.338	27823.7
604.534	27985.49
604.73	27516.51
604.926	27641.43
605.122	27545.18
605.318	27598.43
605.514	27387.49
605.71	27197.02
605.906	27602.52
606.102	26971.75
606.298	27102.82
606.494	26814.05
606.69	27192.93
606.886	27256.42
607.082	26750.57
607.278	27098.72
607.474	26263.15
607.67	26715.75
607.866	26621.55
608.062	26750.57
608.257	26642.03
608.453	26642.03
608.649	26705.51
608.845	26160.75
609.041	26304.11
609.236	26545.77
609.432	26371.69
609.628	26523.24
609.824	25966.2
610.019	25685.62
610.215	26134.13
610.411	26007.16
610.606	25904.76
610.802	26019.44
610.998	25679.48
611.193	25865.85
611.389	25484.92
611.584	25648.76
611.78	25556.6
611.976	25310.85
612.171	25626.23
612.367	25577.08
612.562	25284.22
612.758	24915.59
612.953	24981.12
613.149	25552.51
613.344	24993.41
613.539	25511.55
613.735	25044.61
613.93	25392.76
614.126	24987.27
614.321	25208.45
614.517	24764.04
614.712	24956.55
614.907	24651.4
615.103	24704.65
615.298	24604.3
615.493	24884.87
615.688	24522.38
615.884	24841.86
616.079	24211.09
616.274	24467.08
616.47	24350.35
616.665	24501.9
616.86	24186.51
617.055	24272.53
617.25	23994
617.445	24227.47
617.641	23690.9
617.836	23891.6
618.031	23568.02
618.226	24151.7
618.421	23783.06
618.616	24141.46
618.811	23436.95
619.006	23936.66
619.201	23287.45
619.396	23744.15
619.591	23125.66
619.786	23258.78
619.981	22617.77
620.176	23226.01
620.371	22945.44
620.566	23008.93
620.761	22795.94
620.956	22841
621.151	22496.94
621.346	22693.54
621.541	22156.97
621.735	22361.77
621.93	21958.32
622.125	22374.06
622.32	21499.58
622.515	22060.72
622.709	21780.15
622.904	21786.29
623.099	21536.44
623.294	21509.82
623.488	21216.96
623.683	21302.97
623.878	21161.66
624.072	21036.73
624.267	21401.27
624.462	20799.17
624.656	20436.68
624.851	20868.8
625.046	20352.71
625.24	20397.77
625.435	20440.78
625.629	20215.5
625.824	20276.94
626.018	20074.19
626.213	19416.79
626.407	19877.58
626.602	19488.47
626.796	19881.68
626.991	19424.98
627.185	19463.89
627.38	19123.93
627.574	19087.07
627.768	18949.85
627.963	18763.49
628.157	18632.42
628.352	19001.05
628.546	18587.36
628.74	18861.79
628.935	18536.17
629.129	18233.07
629.323	18339.56
629.517	18267.88
629.712	18190.06
629.906	17686.26
630.1	17995.5
630.294	17839.86
630.489	17692.4
630.683	17798.9
630.877	17495.8
631.071	17487.61
631.265	17592.05
631.459	17129.21
631.653	17252.09
631.848	17102.59
632.042	16967.42
632.236	16973.56
632.43	16766.72
632.624	16848.64
632.818	16774.91
633.012	16692.99
633.206	16377.61
633.4	16457.48
633.594	16383.75
633.788	16398.09
633.982	16170.76
634.176	16312.07
634.369	15972.11
634.563	16025.36
634.757	16023.31
634.951	15943.44
635.145	15806.22
635.339	15724.3
635.533	15591.19
635.726	15585.04
635.92	15370.01
636.114	15466.26
636.308	15429.4
636.501	14962.46
636.695	15017.75
636.889	14958.36
637.083	14944.03
637.276	14962.46
637.47	14726.94
637.664	14794.53
637.857	14667.55
638.051	14466.85
638.244	14554.91
638.438	14284.58
638.632	14473
638.825	14280.49
639.019	14315.3
639.212	14055.21
639.406	13948.72
639.599	13870.89
639.793	13981.48
639.986	13862.7
640.18	13700.91
640.373	13811.5
640.567	13422.39
640.76	13639.47
640.954	13420.34
641.147	13123.38
641.34	13360.95
641.534	13250.36
641.727	13074.23
641.92	13117.24
642.114	12832.57
642.307	13170.49
642.5	13004.6
642.694	12582.72
642.887	12683.07
643.08	12846.91
643.273	12754.75
643.467	12455.75
643.66	12353.35
643.853	12496.71
644.046	12308.29
644.239	12216.13
644.432	12283.72
644.626	11941.71
644.819	12070.73
645.012	11990.86
645.205	11898.7
645.398	11767.63
645.591	11597.65
645.784	11718.48
645.977	11755.34
646.17	11859.79
646.363	11691.85
646.556	11634.51
646.749	11550.54
646.942	11530.06
647.135	11226.96
647.328	11073.37
647.521	11167.57
647.714	10997.59
647.907	11116.37
648.099	11050.84
648.292	11034.46
648.485	11067.22
648.678	10952.54
648.871	10919.77
649.064	10768.22
649.256	10815.32
649.449	10737.5
649.642	10739.55
649.835	10477.41
650.027	10420.07
650.22	10452.83
650.413	10233.7
650.605	10454.88
650.798	10313.57
650.991	10106.73
651.183	10116.97
651.376	10010.47
651.568	9938.79
651.761	10010.47
651.954	10076.01
652.146	9969.51
652.339	9672.56
652.531	9928.55
652.724	9719.66
652.916	9461.62
653.109	9682.8
653.301	9613.17
653.494	9703.28
653.686	9400.18
653.879	9760.62
654.071	9457.52
654.263	9256.82
654.456	9252.72
654.648	9559.92
654.84	9154.42
655.033	9166.71
655.225	8945.53
655.417	9121.65
655.61	9211.76
655.802	9000.82
655.994	8968.06
656.186	9113.46
656.379	8830.84
656.571	8683.39
656.763	8720.25
656.955	8753.02
657.148	8736.63
657.34	8685.44
657.532	8593.28
657.724	8497.02
657.916	8558.46
658.108	8537.98
658.3	8365.95
658.492	8396.67
658.684	8232.83
658.876	8159.11
659.068	8259.46
659.26	8259.46
659.452	8042.37
659.644	8195.97
659.836	7978.89
660.028	8056.71
660.22	7868.3
660.412	7804.81
660.604	7997.32
660.796	8019.85
660.988	7833.48
661.18	7788.43
661.372	7759.75
661.563	7694.22
661.755	7452.56
661.947	7747.47
662.139	7706.51
662.331	7561.1
662.522	7466.89
662.714	7593.87
662.906	7317.39
663.097	7450.51
663.289	7309.2
663.481	7450.51
663.673	7223.19
663.864	7092.12
664.056	7174.03
664.247	7108.5
664.439	7210.9
664.631	7260.05
664.822	7135.12
665.014	6997.91
665.205	6956.95
665.397	7071.64
665.588	6936.47
665.78	6819.74
665.971	6805.4
666.163	6829.98
666.354	6889.37
666.546	6940.57
666.737	6602.65
666.929	6649.75
667.12	6573.98
667.311	6569.88
667.503	6524.83
667.694	6598.56
667.885	6571.93
668.077	6340.51
668.268	6586.27
668.459	6387.61
668.651	6442.91
668.842	6463.39
669.033	6397.85
669.224	6467.49
669.416	6297.5
669.607	6270.88
669.798	6098.85
669.989	6268.83
670.18	6078.37
670.371	6053.8
670.563	6283.17
670.754	6317.98
670.945	5963.68
671.136	6195.11
671.327	6111.14
671.518	6037.41
671.709	5830.57
671.9	6236.06
672.091	6025.12
672.282	5767.08
672.473	5859.24
672.664	5984.16
672.855	5849
673.046	5769.13
673.237	5758.89
673.428	5769.13
673.619	5750.7
673.809	5722.02
674	5797.8
674.191	5902.25
674.382	5773.22
674.573	5726.12
674.764	5699.5
674.954	5715.88
675.145	5693.35
675.336	5689.26
675.527	5636.01
675.717	5580.71
675.908	5539.76
676.099	5494.7
676.289	5547.95
676.48	5521.32
676.671	5482.41
676.861	5586.86
677.052	5418.93
677.243	5478.32
677.433	5361.58
677.624	5328.81
677.814	5498.8
678.005	5349.29
678.195	5457.84
678.386	5402.54
678.576	5250.99
678.767	5261.23
678.957	5253.04
679.148	5390.25
679.338	5238.7
679.529	5244.85
679.719	5347.25
679.909	5412.78
680.1	5095.35
680.29	5193.65
680.481	5154.74
680.671	5085.11
680.861	5091.25
681.052	5187.5
681.242	5253.04
681.432	5283.76
681.622	5025.72
681.813	5015.48
682.003	5066.67
682.193	5148.59
682.383	5058.48
682.573	4964.28
682.764	4896.69
682.954	4962.23
683.144	5083.06
683.334	5021.62
683.524	4870.07
683.714	4911.03
683.904	4917.17
684.094	4943.8
684.284	4990.9
684.474	4853.69
684.664	4923.32
684.854	4911.03
685.044	4816.82
685.234	4855.73
685.424	4671.42
685.614	4771.77
685.804	4587.45
685.994	4706.23
686.184	4921.27
686.374	4796.34
686.564	4652.98
686.753	4790.2
686.943	4822.97
687.133	4685.75
687.323	4603.83
687.513	4628.41
687.702	4614.07
687.892	4483
688.082	4560.83
688.272	4775.86
688.461	4501.44
688.651	4538.3
688.841	4542.39
689.03	4423.61
689.22	4442.04
689.41	4374.46
689.599	4435.9
689.789	4374.46
689.979	4429.76
690.168	4333.5
690.358	4161.47
690.547	4513.72
690.737	4179.9
690.926	4349.89
691.116	4089.79
691.305	4087.75
691.495	4112.32
691.684	4253.63
691.874	4079.55
692.063	4231.1
692.252	4259.77
692.442	4257.73
692.631	4018.11
692.82	4159.42
693.01	4050.88
693.199	4038.59
693.388	4145.09
693.578	4071.36
693.767	4167.62
693.956	4059.07
694.146	3995.59
694.335	3932.1
694.524	3948.48
694.713	3946.44
694.902	4018.11
695.092	4007.87
695.281	3819.46
695.47	3903.43
695.659	3872.71
695.848	3876.8
696.037	3966.92
696.226	3960.77
696.415	3948.48
696.604	3784.65
696.793	3872.71
696.982	3899.33
697.171	3921.86
697.36	3960.77
697.549	3674.06
697.738	3684.3
697.927	3680.2
698.116	3743.69
698.305	3667.91
698.494	3698.63
698.683	3792.84
698.872	3780.55
699.061	3608.52
699.25	3688.39
699.438	3674.06
699.627	3698.63
699.816	3731.4
700.005	3598.28
700.193	3545.03
700.382	3676.1
700.571	3596.23
700.76	3624.9
700.948	3678.15
701.137	3583.95
701.326	3483.59
701.514	3610.57
701.703	3645.38
701.892	3633.1
702.08	3585.99
702.269	3620.81
702.457	3510.22
702.646	3473.35
702.834	3522.51
703.023	3493.83
703.212	3545.03
703.4	3571.66
703.589	3575.75
703.777	3510.22
703.965	3350.48
704.154	3469.26
704.342	3518.41
704.531	3526.6
704.719	3360.72
704.907	3610.57
705.096	3401.68
705.284	3401.68
705.472	3397.58
705.661	3346.38
705.849	3463.12
706.037	3487.69
706.226	3399.63
706.414	3463.12
706.602	3327.95
706.79	3413.96
706.979	3516.36
707.167	3506.12
707.355	3407.82
707.543	3342.28
707.731	3278.8
707.919	3401.68
708.107	3299.28
708.296	3319.76
708.484	3297.23
708.672	3276.75
708.86	3370.96
709.048	3166.16
709.236	3303.37
709.424	3307.47
709.612	3200.98
709.8	3356.62
709.988	3239.89
710.176	3260.37
710.364	3282.89
710.551	3293.13
710.739	3139.54
710.927	3264.46
711.115	3219.41
711.303	3338.19
711.491	3131.34
711.679	3276.75
711.866	3248.08
712.054	3309.52
712.242	3131.34
712.43	3233.74
712.617	3162.06
712.805	3149.78
712.993	3203.02
713.181	3082.19
713.368	3102.67
713.556	3254.22
713.744	3061.71
713.931	3200.98
714.119	3141.58
714.306	3053.52
714.494	3067.86
714.682	3170.26
714.869	3057.62
715.057	3180.5
715.244	3024.85
715.432	3211.21
715.619	3084.24
715.807	3078.1
715.994	3121.1
716.182	3102.67
716.369	3119.06
716.556	3076.05
716.744	3047.38
716.931	3061.71
717.119	2990.03
717.306	2985.94
717.493	3022.8
717.681	3102.67
717.868	2996.18
718.055	2932.69
718.242	2992.08
718.43	2983.89
718.617	2992.08
718.804	3022.8
718.991	2996.18
719.179	2979.79
719.366	3092.43
719.553	3039.19
719.74	2983.89
719.927	2981.84
720.114	2904.02
720.301	2959.31
720.488	2895.83
720.676	2906.07
720.863	3033.04
721.05	2836.44
721.237	2924.5
721.424	2781.14
721.611	2889.68
721.798	2930.64
721.985	2973.65
722.172	2973.65
722.358	2797.53
722.545	2834.39
722.732	2799.57
722.919	2940.88
723.106	2725.85
723.293	2838.48
723.48	2809.81
723.667	2678.74
723.853	2758.61
724.04	2904.02
724.227	2887.64
724.414	2832.34
724.6	2760.66
724.787	2869.2
724.974	2758.61
725.161	2639.83
725.347	2731.99
725.534	2766.81
725.72	2801.62
725.907	2842.58
726.094	2908.12
726.28	2672.6
726.467	2643.93
726.653	2820.05
726.84	2721.75
727.027	2811.86
727.213	2727.89
727.4	2668.5
727.586	2750.42
727.773	2635.74
727.959	2615.26
728.145	2633.69
728.332	2723.8
728.518	2672.6
728.705	2811.86
728.891	2615.26
729.077	2590.68
729.264	2498.52
729.45	2539.48
729.636	2645.98
729.823	2637.78
730.009	2645.98
730.195	2568.15
730.382	2625.5
730.568	2602.97
730.754	2539.48
730.94	2580.44
731.126	2488.28
731.313	2607.06
731.499	2695.13
731.685	2564.06
731.871	2504.67
732.057	2631.64
732.243	2461.66
732.429	2519
732.615	2555.86
732.801	2605.02
732.987	2648.02
733.173	2617.3
733.359	2471.9
733.545	2539.48
733.731	2478.04
733.917	2437.08
734.103	2461.66
734.289	2523.1
734.475	2572.25
734.661	2539.48
734.847	2519
735.033	2432.99
735.219	2449.37
735.404	2480.09
735.59	2463.71
735.776	2437.08
735.962	2359.26
736.148	2394.08
736.333	2338.78
736.519	2422.75
736.705	2379.74
736.89	2299.87
737.076	2342.88
737.262	2412.51
737.447	2375.64
737.633	2471.9
737.819	2324.44
738.004	2389.98
738.19	2344.92
738.375	2234.33
738.561	2381.79
738.747	2217.95
738.932	2260.96
739.118	2277.34
739.303	2334.68
739.489	2195.42
739.674	2244.57
739.859	2207.71
740.045	2228.19
740.23	2308.06
740.416	2144.22
740.601	2148.32
740.786	2183.13
740.972	2187.23
741.157	2195.42
741.342	2162.65
741.528	2039.78
741.713	2181.09
741.898	2326.49
742.084	2058.21
742.269	2158.56
742.454	2129.89
742.639	2144.22
742.824	2144.22
743.01	2068.45
743.195	2058.21
743.38	2109.41
743.565	1994.72
743.75	2002.91
743.935	2037.73
744.12	2144.22
744.305	2035.68
744.49	1992.67
744.675	2080.74
744.86	1908.71
745.045	2019.3
745.23	1910.75
745.415	1867.75
745.6	1890.28
745.785	1871.84
745.97	1882.08
746.155	1812.45
746.34	1964
746.525	1843.17
746.71	1845.22
746.895	1785.83
747.079	1947.62
747.264	1945.57
747.449	1906.66
747.634	1871.84
747.819	1863.65
748.003	1837.03
748.188	1716.2
748.373	1875.94
748.557	1685.48
748.742	1716.2
748.927	1746.92
749.111	1748.97
749.296	1648.61
749.481	1687.53
749.665	1832.93
749.85	1558.5
750.034	1716.2
750.219	1660.9
750.404	1578.98
750.588	1619.94
750.773	1587.18
750.957	1626.09
751.141	1529.83
751.326	1572.84
751.51	1540.07
751.695	1587.18
751.879	1513.45
752.064	1509.35
752.248	1456.11
752.432	1619.94
752.617	1490.92
752.801	1478.63
752.985	1431.53
753.17	1505.26
753.354	1525.74
753.538	1531.88
753.722	1443.82
753.907	1359.85
754.091	1368.04
754.275	1488.87
754.459	1370.09
754.643	1353.71
754.828	1394.67
755.012	1441.77
755.196	1300.46
755.38	1353.71
755.564	1374.19
755.748	1269.74
755.932	1361.9
756.116	1363.95
756.3	1279.98
756.484	1282.03
756.668	1294.32
756.852	1159.15
757.036	1288.17
757.22	1216.49
757.404	1200.11
757.588	1253.36
757.772	1310.7
757.956	1261.55
758.14	1265.64
758.323	1329.13
758.507	1226.73
758.691	1253.36
758.875	1171.44
759.059	1179.63
759.242	1202.16
759.426	1126.38
759.61	1146.86
759.794	1202.16
759.977	1210.35
760.161	1257.45
760.345	1130.48
760.528	1146.86
760.712	1247.21
760.895	1097.71
761.079	1122.29
761.263	1118.19
761.446	1105.9
761.63	1073.14
761.813	1093.62
761.997	1128.43
762.18	1011.7
762.364	1046.51
762.547	995.31
762.731	958.45
762.914	1064.94
763.098	1009.65
763.281	1023.98
763.464	1019.89
763.648	1026.03
763.831	1134.57
764.015	960.5
764.198	1040.37
764.381	987.12
764.564	991.22
764.748	1060.85
764.931	1001.46
765.114	1007.6
765.297	921.59
765.481	907.25
765.664	991.22
765.847	1046.51
766.03	1089.52
766.213	991.22
766.397	983.02
766.58	946.16
766.763	944.11
766.946	950.26
767.129	997.36
767.312	909.3
767.495	931.83
767.678	845.81
767.861	974.83
768.044	972.79
768.227	995.31
768.41	915.44
768.593	888.82
768.776	915.44
768.959	942.07
769.142	913.39
769.324	890.87
769.507	866.29
769.69	897.01
769.873	776.18
770.056	860.15
770.239	940.02
770.421	917.49
770.604	833.52
770.787	909.3
770.97	888.82
771.152	862.19
771.335	849.91
771.518	794.61
771.7	811
771.883	878.58
772.066	817.14
772.248	827.38
772.431	892.91
772.613	796.66
772.796	845.81
772.978	849.91
773.161	790.52
773.343	772.08
773.526	786.42
773.708	729.08
773.891	757.75
774.073	759.8
774.256	765.94
774.438	788.47
774.621	702.45
774.803	757.75
774.985	700.41
775.168	774.13
775.35	753.65
775.532	751.6
775.715	661.49
775.897	686.07
776.079	720.88
776.261	696.31
776.444	626.68
776.626	706.55
776.808	790.52
776.99	655.35
777.173	647.16
777.355	737.27
777.537	712.69
777.719	675.83
777.901	634.87
778.083	659.45
778.265	600.05
778.447	737.27
778.629	598.01
778.811	624.63
778.993	624.63
779.175	757.75
779.357	565.24
779.539	630.77
779.721	581.62
779.903	577.53
780.085	604.15
780.267	679.93
780.449	555
780.631	692.21
780.812	593.91
780.994	614.39
781.176	540.66
781.358	530.42
781.54	600.05
781.721	548.86
781.903	546.81
782.085	514.04
782.267	638.97
782.448	489.46
782.63	491.51
782.812	542.71
782.993	583.67
783.175	544.76
783.357	534.52
783.538	536.57
783.72	542.71
783.901	579.58
784.083	516.09
784.264	473.08
784.446	542.71
784.627	440.31
784.809	516.09
784.99	514.04
785.172	477.18
785.353	503.8
785.535	514.04
785.716	552.95
785.897	466.94
786.079	454.65
786.26	501.75
786.441	411.64
786.623	432.12
786.804	436.22
786.985	475.13
787.167	468.98
787.348	434.17
787.529	368.63
787.71	548.86
787.891	448.51
788.073	391.16
788.254	475.13
788.435	489.46
788.616	391.16
788.797	421.88
788.978	372.73
789.159	362.49
789.34	466.94
789.522	477.18
789.703	448.51
789.884	397.31
790.065	407.55
790.246	405.5
790.427	352.25
790.607	430.07
790.788	462.84
790.969	368.63
791.15	415.74
791.331	458.75
791.512	382.97
791.693	378.87
791.874	425.98
792.054	468.98
792.235	362.49
792.416	286.72
792.597	337.91
792.778	339.96
792.958	342.01
793.139	327.67
793.32	366.59
793.5	327.67
793.681	348.15
793.862	339.96
794.042	380.92
794.223	266.24
794.404	337.91
794.584	313.34
794.765	333.82
794.945	327.67
795.126	321.53
795.306	311.29
795.487	354.3
795.667	331.77
795.848	262.14
796.028	319.48
796.209	264.19
796.389	235.52
796.57	286.72
796.75	288.76
796.93	282.62
797.111	323.58
797.291	276.48
797.471	327.67
797.652	348.15
797.832	296.96
798.012	266.24
798.192	253.95
798.373	186.37
798.553	212.99
798.733	327.67
798.913	274.43
799.093	288.76
799.274	284.67
799.454	286.72
799.634	368.63
799.814	278.52
799.994	284.67
800.174	268.28
800.354	237.56
800.534	276.48
800.714	290.81
800.894	212.99
801.074	235.52
801.254	280.57
801.434	268.28
801.614	210.94
801.794	196.61
801.974	767.99
802.154	229.37
802.334	245.76
802.514	159.74
802.693	325.63
802.873	208.89
803.053	245.76
803.233	282.62
803.413	278.52
803.592	225.28
803.772	182.27
803.952	247.8
804.131	272.38
804.311	198.65
804.491	307.2
804.67	145.41
804.85	237.56
805.03	219.13
805.209	268.28
805.389	204.8
805.568	176.13
805.748	229.37
805.928	221.18
806.107	208.89
806.287	204.8
806.466	247.8
806.646	229.37
806.825	303.1
807.004	196.61
807.184	172.03
807.363	243.71
807.543	215.04
807.722	200.7
807.901	206.84
808.081	237.56
808.26	206.84
808.439	311.29
808.619	225.28
808.798	131.07
808.977	151.55
809.156	188.41
809.336	161.79
809.515	251.9
809.694	159.74
809.873	182.27
810.052	212.99
810.231	200.7
810.411	217.08
810.59	149.5
810.769	98.3
810.948	180.22
811.127	114.69
811.306	184.32
811.485	180.22
811.664	233.47
811.843	153.6
812.022	178.17
812.201	174.08
812.38	143.36
812.559	174.08
812.737	151.55
812.916	118.78
813.095	129.02
813.274	221.18
813.453	143.36
813.632	192.51
813.811	159.74
813.989	161.79
814.168	147.45
814.347	155.65
814.526	147.45
814.704	139.26
814.883	202.75
815.062	194.56
815.24	147.45
815.419	122.88
815.598	141.31
815.776	118.78
815.955	116.73
816.133	100.35
816.312	151.55
816.49	114.69
816.669	163.84
816.847	96.25
817.026	184.32
817.204	108.54
817.383	188.41
817.561	139.26
817.74	151.55
817.918	122.88
818.097	145.41
818.275	90.11
818.453	188.41
818.632	143.36
818.81	159.74
818.988	114.69
819.167	143.36
819.345	126.97
819.523	147.45
819.701	194.56
819.879	233.47
820.058	86.01
820.236	124.93
820.414	114.69
820.592	159.74
820.77	102.4
820.948	120.83
821.127	79.87
821.305	157.69
821.483	100.35
821.661	131.07
821.839	237.56
822.017	159.74
822.195	161.79
822.373	149.5
822.551	157.69
822.729	169.98
822.907	188.41
823.085	172.03
823.262	186.37
823.44	172.03
823.618	102.4
823.796	155.65
823.974	96.25
824.152	124.93
824.329	118.78
824.507	114.69
824.685	145.41
824.863	106.49
825.04	190.46
825.218	118.78
825.396	81.92
825.574	151.55
825.751	155.65
825.929	174.08
826.107	167.93
826.284	102.4
826.462	94.21
826.639	137.21
826.817	40.96
826.994	63.49
827.172	126.97
827.349	114.69
827.527	192.51
827.704	122.88
827.882	165.89
828.059	94.21
828.237	147.45
828.414	137.21
828.591	122.88
828.769	77.82
828.946	94.21
829.124	118.78
829.301	147.45
829.478	122.88
829.655	116.73
829.833	110.59
830.01	90.11
830.187	77.82
830.364	126.97
830.542	163.84
830.719	120.83
830.896	188.41
831.073	112.64
831.25	79.87
831.427	188.41
831.604	110.59
831.782	122.88
831.959	147.45
832.136	49.15
832.313	155.65
832.49	100.35
832.667	137.21
832.844	116.73
833.021	116.73
833.198	73.73
833.374	53.25
833.551	135.17
833.728	20.48
833.905	139.26
834.082	73.73
834.259	90.11
834.436	155.65
834.612	114.69
834.789	200.7
834.966	106.49
835.143	120.83
835.319	73.73
835.496	151.55
835.673	106.49
835.85	190.46
836.026	120.83
836.203	116.73
836.38	57.34
836.556	129.02
836.733	49.15
836.909	-14.34
837.086	45.06
837.262	102.4
837.439	79.87
837.616	81.92
837.792	88.06
837.968	139.26
838.145	79.87
838.321	126.97
838.498	143.36
838.674	92.16
838.851	40.96
839.027	83.97
839.203	143.36
839.38	81.92
839.556	-18.43
839.732	30.72
839.909	32.77
840.085	86.01
840.261	-10.24
840.437	71.68
840.614	73.73
840.79	110.59
840.966	65.54
841.142	94.21
841.318	86.01
841.494	16.38
841.671	77.82
841.847	86.01
842.023	120.83
842.199	65.54
842.375	12.29
842.551	20.48
842.727	126.97
842.903	108.54
843.079	77.82
843.255	157.69
843.431	81.92
843.607	75.77
843.783	71.68
843.959	79.87
844.134	81.92
844.31	186.37
844.486	86.01
844.662	24.58
844.838	4.1
845.013	88.06
845.189	69.63
845.365	94.21
845.541	112.64
845.716	36.86
845.892	94.21
846.068	116.73
846.244	34.82
846.419	73.73
846.595	57.34
846.77	73.73
846.946	67.58
847.122	83.97
847.297	90.11
847.473	69.63
847.648	124.93
847.824	-18.43
847.999	49.15
848.175	10.24
848.35	47.1
848.526	73.73
848.701	102.4
848.876	30.72
849.052	104.45
849.227	32.77
849.403	32.77
849.578	118.78
849.753	88.06
849.929	124.93
850.104	57.34
850.279	73.73
850.454	55.3
850.63	139.26
850.805	51.2
850.98	32.77
851.155	118.78
851.33	120.83
851.505	8.19
851.681	100.35
851.856	22.53
852.031	57.34
852.206	8.19
852.381	65.54
852.556	65.54
852.731	118.78
852.906	114.69
853.081	129.02
853.256	75.77
853.431	0
853.606	-4.1
853.781	16.38
853.956	20.48
854.131	59.39
854.305	49.15
854.48	-4.1
854.655	49.15
854.83	83.97
855.005	16.38
855.18	-20.48
855.354	57.34
855.529	120.83
855.704	0
855.879	40.96
856.053	32.77
856.228	43.01
856.403	69.63
856.577	57.34
856.752	57.34
856.926	69.63
857.101	16.38
857.276	32.77
857.45	106.49
857.625	36.86
857.799	53.25
857.974	18.43
858.148	53.25
858.323	-8.19
858.497	-10.24
858.672	49.15
858.846	73.73
859.02	-16.38
859.195	6.14
859.369	2.05
859.543	77.82
859.718	73.73
859.892	61.44
860.066	108.54
860.241	0
860.415	47.1
860.589	49.15
860.763	83.97
860.938	53.25
861.112	86.01
861.286	-6.14
861.46	57.34
861.634	65.54
861.808	63.49
861.982	0
862.157	94.21
862.331	38.91
862.505	-8.19
862.679	-20.48
862.853	14.34
863.027	14.34
863.201	83.97
863.375	8.19
863.549	65.54
863.722	30.72
863.896	86.01
864.07	34.82
864.244	12.29
864.418	73.73
864.592	6.14
864.766	65.54
864.939	20.48
865.113	4.1
865.287	55.3
865.461	94.21
865.634	18.43
865.808	47.1
865.982	63.49
866.156	-36.86
866.329	-63.49
866.503	32.77
866.676	-4.1
866.85	53.25
867.024	-34.82
867.197	69.63
867.371	12.29
867.544	36.86
867.718	10.24
867.891	14.34
868.065	55.3
868.238	24.58
868.412	57.34
868.585	-24.58
868.759	28.67
868.932	55.3
869.105	-40.96
869.279	30.72
869.452	18.43
869.625	-8.19
869.799	-20.48
869.972	0
870.145	122.88
870.319	18.43
870.492	61.44
870.665	0
870.838	18.43
871.011	32.77
871.185	10.24
871.358	30.72
871.531	61.44
871.704	57.34
871.877	12.29
872.05	59.39
872.223	14.34
872.396	102.4
872.569	32.77
872.742	45.06
872.915	26.62
873.088	8.19
873.261	53.25
873.434	153.6
873.607	-79.87
873.78	98.3
873.953	22.53
874.126	40.96
874.299	57.34
874.471	-22.53
874.644	94.21
874.817	38.91
874.99	-10.24
875.163	0
875.335	47.1
875.508	-26.62
875.681	102.4
875.853	49.15
876.026	61.44
876.199	28.67
876.371	40.96
876.544	24.58
876.717	26.62
876.889	40.96
877.062	92.16
877.234	45.06
877.407	57.34
877.579	0
877.752	36.86
877.924	8.19
878.097	30.72
878.269	-32.77
878.442	38.91
878.614	49.15
878.786	-20.48
878.959	116.73
879.131	10.24
879.303	-61.44
879.476	51.2
879.648	90.11
879.82	-18.43
879.993	-10.24
880.165	90.11
880.337	53.25
880.509	-2.05
880.681	49.15
880.854	16.38
881.026	114.69
881.198	57.34
881.37	12.29
881.542	24.58
881.714	100.35
881.886	-22.53
882.058	49.15
882.23	12.29
882.402	65.54
882.574	57.34
882.746	12.29
882.918	47.1
883.09	34.82
883.262	32.77
883.434	43.01
883.606	-6.14
883.778	22.53
883.95	133.12
884.122	-32.77
884.293	73.73
884.465	-8.19
884.637	14.34
884.809	-10.24
884.98	53.25
885.152	-8.19
885.324	81.92
885.496	-24.58
885.667	-40.96
885.839	-18.43
886.011	49.15
886.182	38.91
886.354	73.73
886.525	18.43
886.697	16.38
886.869	-16.38
887.04	16.38
887.212	77.82
887.383	92.16
887.555	24.58
887.726	59.39
887.897	81.92
888.069	45.06
888.24	88.06
888.412	55.3
888.583	55.3
888.754	67.58
888.926	-86.01
889.097	32.77
889.268	-4.1
889.44	53.25
889.611	-26.62
889.782	53.25
889.953	53.25
890.125	28.67
890.296	-43.01
890.467	24.58
890.638	-2.05
890.809	43.01
890.98	-24.58
891.151	47.1
891.323	45.06
891.494	65.54
891.665	-26.62
891.836	28.67
892.007	24.58
892.178	8.19
892.349	71.68
892.52	14.34
892.691	-2.05
892.862	94.21
893.032	-24.58
893.203	90.11
893.374	-40.96
893.545	53.25
893.716	-34.82
893.887	20.48
894.057	2.05
894.228	8.19
894.399	4.1
894.57	14.34
894.74	-12.29
894.911	24.58
895.082	69.63
895.253	12.29
895.423	36.86
895.594	18.43
895.764	-8.19
895.935	32.77
896.106	61.44
896.276	-2.05
896.447	14.34
896.617	22.53
896.788	-38.91
896.958	26.62
897.129	14.34
897.299	-18.43
897.47	69.63
897.64	75.77
897.81	18.43
897.981	22.53
898.151	-8.19
898.322	73.73
898.492	100.35
898.662	-14.34
898.832	-40.96
899.003	30.72
899.173	88.06
899.343	-43.01
899.513	55.3
