Data from USB4F104151__236__10-30-27-150.txt Node

Date: Wed Mar 12 10:30:27 EDT 2025
User: louis
Spectrometer: USB4F10415
Trigger mode: 4
Integration Time (sec): 3.000000E-2
Scans to average: 1
Electric dark correction enabled: true
Nonlinearity correction enabled: false
Boxcar width: 0
XAxis mode: Wavelengths
Number of Pixels in Spectrum: 3648
>>>>>Begin Spectral Data<<<<<
178.204	-104.11
178.424	-104.11
178.644	-104.11
178.864	-116.39
179.084	-100.01
179.304	4.44
179.524	106.84
179.744	-40.62
179.964	31.06
180.184	18.77
180.404	-13.99
180.624	-46.76
180.844	4.44
181.064	-79.53
181.283	59.73
181.503	-36.52
181.723	-7.85
181.943	-120.49
182.163	96.6
182.383	12.63
182.602	4.44
182.822	61.78
183.042	98.64
183.262	-1.71
183.482	24.92
183.701	2.39
183.921	-48.81
184.141	-28.33
184.361	12.63
184.58	-1.71
184.8	-9.9
185.02	41.3
185.239	16.73
185.459	45.4
185.679	24.92
185.898	41.3
186.118	-13.99
186.338	20.82
186.557	69.97
186.777	18.77
186.997	24.92
187.216	-3.75
187.436	-9.9
187.655	29.01
187.875	53.59
188.095	2.39
188.314	84.31
188.534	102.74
188.753	16.73
188.973	53.59
189.192	6.49
189.412	37.2
189.631	76.12
189.851	26.96
190.07	33.11
190.29	10.58
190.509	10.58
190.729	2.39
190.948	20.82
191.168	102.74
191.387	51.54
191.607	-11.95
191.826	14.68
192.045	4.44
192.265	39.25
192.484	63.83
192.704	-5.8
192.923	45.4
193.142	61.78
193.362	6.49
193.581	-9.9
193.8	-28.33
194.02	12.63
194.239	-9.9
194.458	57.68
194.678	22.87
194.897	0.34
195.116	63.83
195.335	20.82
195.555	55.64
195.774	43.35
195.993	2.39
196.212	51.54
196.432	-34.47
196.651	84.31
196.87	29.01
197.089	92.5
197.308	8.53
197.528	53.59
197.747	-26.28
197.966	47.44
198.185	45.4
198.404	41.3
198.623	51.54
198.842	45.4
199.062	24.92
199.281	158.03
199.5	76.12
199.719	22.87
199.938	61.78
200.157	72.02
200.376	4.44
200.595	33.11
200.814	-59.05
201.033	53.59
201.252	61.78
201.471	22.87
201.69	45.4
201.909	31.06
202.128	43.35
202.347	14.68
202.566	-3.75
202.785	-5.8
203.004	16.73
203.223	55.64
203.442	4.44
203.661	4.44
203.879	-9.9
204.098	82.26
204.317	72.02
204.536	67.92
204.755	53.59
204.974	-7.85
205.193	35.16
205.411	67.92
205.63	69.97
205.849	2.39
206.068	22.87
206.287	67.92
206.505	45.4
206.724	35.16
206.943	26.96
207.162	39.25
207.381	-7.85
207.599	20.82
207.818	-22.19
208.037	18.77
208.255	-26.28
208.474	20.82
208.693	80.21
208.911	59.73
209.13	39.25
209.349	65.88
209.567	72.02
209.786	63.83
210.005	4.44
210.223	-11.95
210.442	-57
210.661	33.11
210.879	67.92
211.098	47.44
211.316	16.73
211.535	31.06
211.753	53.59
211.972	10.58
212.191	-11.95
212.409	98.64
212.628	51.54
212.846	-24.23
213.065	6.49
213.283	96.6
213.502	49.49
213.72	26.96
213.938	-11.95
214.157	-13.99
214.375	-112.3
214.594	-46.76
214.812	53.59
215.031	59.73
215.249	-79.53
215.467	51.54
215.686	29.01
215.904	33.11
216.122	-67.24
216.341	37.2
216.559	-71.34
216.778	104.79
216.996	6.49
217.214	121.17
217.432	112.98
217.651	-20.14
217.869	47.44
218.087	45.4
218.306	26.96
218.524	110.93
218.742	51.54
218.96	69.97
219.179	20.82
219.397	-63.15
219.615	53.59
219.833	84.31
220.051	-24.23
220.27	69.97
220.488	39.25
220.706	-9.9
220.924	16.73
221.142	88.4
221.36	37.2
221.578	69.97
221.796	59.73
222.015	2.39
222.233	-44.71
222.451	41.3
222.669	33.11
222.887	74.07
223.105	-67.24
223.323	35.16
223.541	14.68
223.759	18.77
223.977	10.58
224.195	84.31
224.413	51.54
224.631	72.02
224.849	69.97
225.067	76.12
225.285	35.16
225.503	2.39
225.721	-34.47
225.939	31.06
226.157	26.96
226.375	110.93
226.592	31.06
226.81	96.6
227.028	55.64
227.246	65.88
227.464	6.49
227.682	63.83
227.9	-7.85
228.117	-16.04
228.335	47.44
228.553	24.92
228.771	18.77
228.989	-28.33
229.206	53.59
229.424	112.98
229.642	-30.38
229.86	-5.8
230.077	31.06
230.295	65.88
230.513	65.88
230.731	41.3
230.948	100.69
231.166	92.5
231.384	12.63
231.601	-5.8
231.819	10.58
232.037	49.49
232.254	6.49
232.472	2.39
232.689	47.44
232.907	37.2
233.125	67.92
233.342	-20.14
233.56	39.25
233.777	43.35
233.995	45.4
234.213	24.92
234.43	-16.04
234.648	51.54
234.865	14.68
235.083	57.68
235.3	12.63
235.518	45.4
235.735	96.6
235.953	61.78
236.17	2.39
236.388	41.3
236.605	47.44
236.822	67.92
237.04	37.2
237.257	35.16
237.475	-28.33
237.692	57.68
237.909	29.01
238.127	6.49
238.344	16.73
238.562	0.34
238.779	-11.95
238.996	0.34
239.214	47.44
239.431	-61.1
239.648	4.44
239.865	29.01
240.083	78.16
240.3	41.3
240.517	-7.85
240.735	-1.71
240.952	33.11
241.169	80.21
241.386	-38.57
241.603	55.64
241.821	86.36
242.038	72.02
242.255	31.06
242.472	4.44
242.689	110.93
242.907	31.06
243.124	14.68
243.341	47.44
243.558	-1.71
243.775	39.25
243.992	6.49
244.209	43.35
244.426	168.27
244.643	88.4
244.86	39.25
245.078	4.44
245.295	-36.52
245.512	-1.71
245.729	31.06
245.946	49.49
246.163	31.06
246.38	88.4
246.597	-1.71
246.814	-1.71
247.031	39.25
247.248	12.63
247.464	18.77
247.681	43.35
247.898	74.07
248.115	16.73
248.332	6.49
248.549	0.34
248.766	63.83
248.983	53.59
249.2	14.68
249.417	92.5
249.633	33.11
249.85	72.02
250.067	35.16
250.284	16.73
250.501	98.64
250.717	86.36
250.934	18.77
251.151	-5.8
251.368	18.77
251.585	96.6
251.801	29.01
252.018	12.63
252.235	24.92
252.451	31.06
252.668	37.2
252.885	63.83
253.102	6.49
253.318	22.87
253.535	-36.52
253.752	31.06
253.968	-11.95
254.185	-13.99
254.401	10.58
254.618	14.68
254.835	55.64
255.051	117.08
255.268	6.49
255.484	59.73
255.701	22.87
255.917	51.54
256.134	-7.85
256.351	63.83
256.567	-11.95
256.784	-13.99
257	29.01
257.217	92.5
257.433	31.06
257.65	35.16
257.866	14.68
258.082	29.01
258.299	-1.71
258.515	10.58
258.732	14.68
258.948	0.34
259.165	10.58
259.381	-40.62
259.597	43.35
259.814	67.92
260.03	4.44
260.246	100.69
260.463	96.6
260.679	2.39
260.895	-34.47
261.112	78.16
261.328	-1.71
261.544	-18.09
261.761	110.93
261.977	20.82
262.193	-50.86
262.409	37.2
262.626	22.87
262.842	80.21
263.058	14.68
263.274	22.87
263.49	41.3
263.707	84.31
263.923	-34.47
264.139	61.78
264.355	51.54
264.571	45.4
264.787	59.73
265.004	18.77
265.22	108.88
265.436	18.77
265.652	-50.86
265.868	55.64
266.084	121.17
266.3	90.45
266.516	-40.62
266.732	80.21
266.948	31.06
267.164	51.54
267.38	-9.9
267.596	-18.09
267.812	115.03
268.028	31.06
268.244	-48.81
268.46	43.35
268.676	90.45
268.892	88.4
269.108	-106.15
269.324	-34.47
269.54	22.87
269.756	-11.95
269.972	35.16
270.188	18.77
270.403	55.64
270.619	16.73
270.835	39.25
271.051	-20.14
271.267	45.4
271.483	45.4
271.698	14.68
271.914	37.2
272.13	35.16
272.346	-16.04
272.562	47.44
272.777	39.25
272.993	39.25
273.209	-42.67
273.425	8.53
273.64	-67.24
273.856	33.11
274.072	-26.28
274.287	-11.95
274.503	61.78
274.719	37.2
274.934	-28.33
275.15	-24.23
275.366	39.25
275.581	-22.19
275.797	-16.04
276.012	72.02
276.228	18.77
276.444	53.59
276.659	29.01
276.875	18.77
277.09	20.82
277.306	53.59
277.521	80.21
277.737	98.64
277.952	47.44
278.168	22.87
278.383	55.64
278.599	31.06
278.814	67.92
279.03	-44.71
279.245	106.84
279.461	-38.57
279.676	24.92
279.892	-26.28
280.107	14.68
280.322	-34.47
280.538	147.8
280.753	-44.71
280.969	33.11
281.184	0.34
281.399	39.25
281.615	31.06
281.83	16.73
282.045	14.68
282.26	14.68
282.476	69.97
282.691	4.44
282.906	80.21
283.122	31.06
283.337	-3.75
283.552	45.4
283.767	-13.99
283.983	158.03
284.198	26.96
284.413	45.4
284.628	24.92
284.843	74.07
285.058	26.96
285.274	45.4
285.489	26.96
285.704	22.87
285.919	65.88
286.134	39.25
286.349	4.44
286.564	43.35
286.779	-13.99
286.995	45.4
287.21	-11.95
287.425	33.11
287.64	57.68
287.855	26.96
288.07	-22.19
288.285	72.02
288.5	86.36
288.715	131.41
288.93	31.06
289.145	45.4
289.36	-5.8
289.575	10.58
289.79	35.16
290.004	20.82
290.219	53.59
290.434	0.34
290.649	67.92
290.864	-18.09
291.079	63.83
291.294	37.2
291.509	67.92
291.724	33.11
291.938	14.68
292.153	55.64
292.368	6.49
292.583	-9.9
292.798	61.78
293.012	-30.38
293.227	-18.09
293.442	-32.43
293.657	20.82
293.871	55.64
294.086	41.3
294.301	67.92
294.516	-13.99
294.73	31.06
294.945	82.26
295.16	43.35
295.374	76.12
295.589	37.2
295.804	39.25
296.018	69.97
296.233	47.44
296.447	51.54
296.662	26.96
296.877	53.59
297.091	104.79
297.306	29.01
297.52	29.01
297.735	14.68
297.949	74.07
298.164	-40.62
298.378	84.31
298.593	31.06
298.807	72.02
299.022	10.58
299.236	55.64
299.451	24.92
299.665	53.59
299.88	39.25
300.094	33.11
300.309	49.49
300.523	35.16
300.737	61.78
300.952	-1.71
301.166	29.01
301.381	39.25
301.595	4.44
301.809	-9.9
302.024	6.49
302.238	20.82
302.452	14.68
302.667	78.16
302.881	47.44
303.095	29.01
303.309	29.01
303.524	31.06
303.738	35.16
303.952	0.34
304.166	22.87
304.381	-24.23
304.595	88.4
304.809	29.01
305.023	61.78
305.237	61.78
305.452	51.54
305.666	49.49
305.88	-24.23
306.094	108.88
306.308	-54.95
306.522	80.21
306.736	51.54
306.95	6.49
307.164	88.4
307.379	14.68
307.593	72.02
307.807	80.21
308.021	47.44
308.235	31.06
308.449	49.49
308.663	51.54
308.877	-7.85
309.091	12.63
309.305	53.59
309.519	6.49
309.733	55.64
309.947	0.34
310.161	-9.9
310.374	45.4
310.588	92.5
310.802	94.55
311.016	-40.62
311.23	35.16
311.444	-7.85
311.658	72.02
311.872	92.5
312.085	98.64
312.299	47.44
312.513	14.68
312.727	88.4
312.941	45.4
313.154	35.16
313.368	100.69
313.582	88.4
313.796	47.44
314.009	45.4
314.223	67.92
314.437	24.92
314.651	10.58
314.864	4.44
315.078	39.25
315.292	10.58
315.505	65.88
315.719	31.06
315.933	67.92
316.146	37.2
316.36	4.44
316.573	84.31
316.787	139.6
317.001	88.4
317.214	-13.99
317.428	47.44
317.641	2.39
317.855	-38.57
318.068	37.2
318.282	12.63
318.495	78.16
318.709	131.41
318.922	47.44
319.136	20.82
319.349	43.35
319.563	-59.05
319.776	88.4
319.99	10.58
320.203	69.97
320.417	4.44
320.63	2.39
320.843	57.68
321.057	61.78
321.27	10.58
321.483	72.02
321.697	72.02
321.91	96.6
322.124	45.4
322.337	22.87
322.55	-28.33
322.763	72.02
322.977	78.16
323.19	24.92
323.403	51.54
323.617	-9.9
323.83	51.54
324.043	57.68
324.256	20.82
324.469	-11.95
324.683	31.06
324.896	55.64
325.109	49.49
325.322	29.01
325.535	61.78
325.748	12.63
325.962	43.35
326.175	-48.81
326.388	14.68
326.601	121.17
326.814	129.36
327.027	76.12
327.24	10.58
327.453	6.49
327.666	29.01
327.879	18.77
328.092	82.26
328.305	24.92
328.518	20.82
328.731	-34.47
328.944	22.87
329.157	88.4
329.37	51.54
329.583	96.6
329.796	31.06
330.009	20.82
330.222	49.49
330.435	63.83
330.648	65.88
330.861	86.36
331.073	39.25
331.286	88.4
331.499	112.98
331.712	6.49
331.925	61.78
332.138	67.92
332.35	102.74
332.563	-83.63
332.776	106.84
332.989	-18.09
333.202	43.35
333.414	20.82
333.627	0.34
333.84	67.92
334.053	37.2
334.265	6.49
334.478	51.54
334.691	72.02
334.903	14.68
335.116	-44.71
335.329	84.31
335.541	76.12
335.754	74.07
335.966	-13.99
336.179	100.69
336.392	31.06
336.604	78.16
336.817	135.51
337.029	22.87
337.242	6.49
337.454	4.44
337.667	10.58
337.88	61.78
338.092	112.98
338.305	112.98
338.517	8.53
338.729	88.4
338.942	6.49
339.154	-11.95
339.367	-36.52
339.579	0.34
339.792	10.58
340.004	61.78
340.217	51.54
340.429	74.07
340.641	80.21
340.854	43.35
341.066	-30.38
341.278	65.88
341.491	43.35
341.703	12.63
341.915	84.31
342.128	76.12
342.34	2.39
342.552	22.87
342.764	106.84
342.977	37.2
343.189	37.2
343.401	57.68
343.613	6.49
343.826	39.25
344.038	55.64
344.25	59.73
344.462	-48.81
344.674	-13.99
344.886	86.36
345.099	55.64
345.311	-3.75
345.523	-18.09
345.735	22.87
345.947	108.88
346.159	63.83
346.371	94.55
346.583	41.3
346.795	31.06
347.007	47.44
347.219	76.12
347.431	-3.75
347.643	61.78
347.855	82.26
348.067	104.79
348.279	0.34
348.491	24.92
348.703	65.88
348.915	-28.33
349.127	31.06
349.339	96.6
349.551	-32.43
349.763	29.01
349.975	106.84
350.187	39.25
350.399	20.82
350.61	51.54
350.822	37.2
351.034	12.63
351.246	76.12
351.458	31.06
351.669	59.73
351.881	94.55
352.093	53.59
352.305	98.64
352.517	6.49
352.728	53.59
352.94	63.83
353.152	72.02
353.363	61.78
353.575	35.16
353.787	41.3
353.999	39.25
354.21	26.96
354.422	10.58
354.633	59.73
354.845	35.16
355.057	76.12
355.268	63.83
355.48	67.92
355.692	53.59
355.903	53.59
356.115	47.44
356.326	-59.05
356.538	84.31
356.749	26.96
356.961	59.73
357.172	67.92
357.384	2.39
357.595	108.88
357.807	88.4
358.018	31.06
358.23	-30.38
358.441	29.01
358.653	92.5
358.864	22.87
359.075	29.01
359.287	-3.75
359.498	35.16
359.709	55.64
359.921	92.5
360.132	39.25
360.344	39.25
360.555	-3.75
360.766	39.25
360.977	43.35
361.189	100.69
361.4	-26.28
361.611	106.84
361.823	96.6
362.034	45.4
362.245	-16.04
362.456	74.07
362.667	90.45
362.879	10.58
363.09	51.54
363.301	51.54
363.512	55.64
363.723	33.11
363.935	61.78
364.146	59.73
364.357	-5.8
364.568	41.3
364.779	-1.71
364.99	74.07
365.201	96.6
365.412	55.64
365.623	-3.75
365.834	2.39
366.045	35.16
366.256	86.36
366.467	90.45
366.678	98.64
366.889	45.4
367.1	88.4
367.311	61.78
367.522	20.82
367.733	80.21
367.944	69.97
368.155	39.25
368.366	-26.28
368.577	61.78
368.788	94.55
368.999	-22.19
369.209	12.63
369.42	100.69
369.631	31.06
369.842	41.3
370.053	26.96
370.264	121.17
370.474	131.41
370.685	47.44
370.896	115.03
371.107	94.55
371.317	102.74
371.528	104.79
371.739	117.08
371.95	135.51
372.16	22.87
372.371	63.83
372.582	49.49
372.792	35.16
373.003	39.25
373.214	72.02
373.424	35.16
373.635	20.82
373.846	141.65
374.056	104.79
374.267	-13.99
374.477	135.51
374.688	61.78
374.898	61.78
375.109	26.96
375.319	29.01
375.53	31.06
375.74	31.06
375.951	-20.14
376.161	43.35
376.372	137.56
376.582	76.12
376.793	92.5
377.003	67.92
377.214	-38.57
377.424	45.4
377.635	76.12
377.845	94.55
378.055	43.35
378.266	35.16
378.476	49.49
378.686	6.49
378.897	84.31
379.107	78.16
379.317	82.26
379.528	45.4
379.738	61.78
379.948	67.92
380.158	45.4
380.369	55.64
380.579	108.88
380.789	-22.19
380.999	100.69
381.21	112.98
381.42	112.98
381.63	-54.95
381.84	94.55
382.05	96.6
382.261	88.4
382.471	41.3
382.681	53.59
382.891	182.61
383.101	72.02
383.311	26.96
383.521	65.88
383.731	117.08
383.941	145.75
384.151	125.27
384.361	117.08
384.571	18.77
384.781	-1.71
384.991	137.56
385.201	55.64
385.411	31.06
385.621	69.97
385.831	76.12
386.041	86.36
386.251	35.16
386.461	80.21
386.671	88.4
386.881	65.88
387.091	26.96
387.301	110.93
387.511	-30.38
387.72	39.25
387.93	121.17
388.14	0.34
388.35	37.2
388.56	104.79
388.769	67.92
388.979	158.03
389.189	4.44
389.399	41.3
389.609	37.2
389.818	162.13
390.028	39.25
390.238	67.92
390.447	59.73
390.657	39.25
390.867	-26.28
391.076	53.59
391.286	45.4
391.496	125.27
391.705	76.12
391.915	84.31
392.125	119.12
392.334	-28.33
392.544	82.26
392.753	121.17
392.963	37.2
393.172	96.6
393.382	108.88
393.591	61.78
393.801	35.16
394.01	115.03
394.22	63.83
394.429	61.78
394.639	39.25
394.848	121.17
395.058	133.46
395.267	55.64
395.477	131.41
395.686	137.56
395.895	186.71
396.105	104.79
396.314	119.12
396.524	49.49
396.733	53.59
396.942	151.89
397.152	88.4
397.361	170.32
397.57	102.74
397.78	45.4
397.989	153.94
398.198	90.45
398.407	22.87
398.617	139.6
398.826	61.78
399.035	63.83
399.244	155.99
399.453	121.17
399.663	145.75
399.872	98.64
400.081	94.55
400.29	96.6
400.499	41.3
400.708	149.84
400.917	61.78
401.127	78.16
401.336	180.56
401.545	135.51
401.754	133.46
401.963	141.65
402.172	168.27
402.381	84.31
402.59	110.93
402.799	131.41
403.008	145.75
403.217	117.08
403.426	172.37
403.635	133.46
403.844	192.85
404.053	153.94
404.262	180.56
404.471	198.99
404.68	143.7
404.888	147.8
405.097	194.9
405.306	153.94
405.515	190.8
405.724	239.95
405.933	203.09
406.142	211.28
406.35	242
406.559	176.47
406.768	207.19
406.977	229.71
407.185	182.61
407.394	237.91
407.603	129.36
407.812	285.01
408.02	221.52
408.229	258.39
408.438	252.24
408.646	340.3
408.855	356.69
409.064	289.1
409.272	301.39
409.481	346.45
409.69	285.01
409.898	242
410.107	348.5
410.315	356.69
410.524	371.02
410.733	348.5
410.941	440.65
411.15	438.61
411.358	448.85
411.567	446.8
411.775	469.33
411.984	414.03
412.192	495.95
412.401	416.08
412.609	526.67
412.818	483.66
413.026	553.29
413.234	573.77
413.443	559.44
413.651	518.48
413.86	661.84
414.068	706.89
414.276	735.56
414.485	618.83
414.693	743.75
414.901	772.43
415.11	866.63
415.318	764.23
415.526	829.77
415.734	782.67
415.943	815.43
416.151	979.27
416.359	985.41
416.567	969.03
416.776	952.65
416.984	1071.43
417.192	1079.62
417.4	1122.63
417.608	1055.05
417.817	1186.12
418.025	1169.73
418.233	1331.52
418.441	1257.79
418.649	1288.51
418.857	1384.77
419.065	1405.25
419.273	1315.14
419.481	1450.3
419.689	1575.23
419.897	1642.81
420.105	1667.39
420.313	1757.5
420.521	1747.26
420.729	1831.23
420.937	1907
421.145	2019.64
421.353	2095.41
421.561	2150.71
421.769	2165.04
421.977	2312.5
422.185	2257.2
422.393	2378.03
422.601	2498.86
422.809	2601.26
423.017	2517.29
423.224	2732.33
423.432	2756.91
423.64	2648.36
423.848	3033.38
424.056	2930.98
424.263	3139.88
424.471	3127.59
424.679	3293.48
424.887	3440.93
425.094	3344.67
425.302	3516.7
425.51	3586.33
425.718	3764.51
425.925	3797.28
426.133	4026.65
426.341	4059.42
426.548	4378.9
426.756	4387.09
426.964	4286.74
427.171	4544.78
427.379	4768.01
427.586	4794.64
427.794	4827.4
428.001	5128.46
428.209	5507.33
428.417	5284.1
428.624	5828.86
428.832	5771.52
429.039	5679.36
429.247	5722.37
429.454	6177.02
429.662	6654.19
429.869	6244.6
430.076	6521.07
430.284	6484.21
430.491	6813.93
430.699	7104.74
430.906	7215.34
431.114	7084.27
431.321	7428.32
431.528	7811.29
431.736	8149.21
431.943	8536.28
432.15	8093.91
432.358	8347.86
432.565	8902.86
432.772	8655.06
432.979	9169.1
433.187	9353.41
433.394	9457.86
433.601	9918.65
433.808	10049.72
434.016	9902.27
434.223	10483.89
434.43	10928.3
434.637	10688.69
434.844	11440.29
435.052	11620.52
435.259	11544.74
435.466	11796.64
435.673	11604.13
435.88	12341.4
436.087	12974.22
436.294	12970.13
436.501	12605.59
436.708	13111.44
436.915	13486.22
437.122	13994.11
437.329	13838.47
437.537	14469.24
437.743	14866.55
437.95	14588.02
438.157	15292.52
438.364	15765.6
438.571	15657.06
438.778	15777.89
438.985	17199.18
439.192	16746.58
439.399	17172.56
439.606	16826.45
439.813	17961.03
440.02	19048.5
440.227	18505.79
440.433	18311.23
440.64	18907.19
440.847	18745.4
441.054	19064.88
441.261	20525.08
441.467	20252.7
441.674	20717.59
441.881	21323.79
442.088	21198.87
442.294	20918.29
442.501	21760.01
442.708	21970.95
442.914	23119.86
443.121	23848.94
443.328	23162.87
443.534	25077.72
443.741	23934.95
443.948	24137.7
444.154	25458.64
444.361	25290.71
444.568	25907.15
444.774	25698.25
444.981	25771.98
445.187	26539.97
445.394	27727.79
445.6	27078.58
445.807	29878.16
446.013	28725.15
446.22	29562.77
446.426	29945.74
446.633	30660.48
446.839	31360.89
447.046	30039.95
447.252	32051.05
447.459	32087.92
447.665	31995.76
447.871	33181.53
448.078	34385.74
448.284	32833.38
448.491	33773.39
448.697	35002.18
448.903	35407.67
449.11	35540.79
449.316	35131.2
449.522	35444.54
449.728	36880.16
449.935	36736.8
450.141	36755.24
450.347	37623.58
450.553	36179.76
450.76	36949.79
450.966	38027.03
451.172	37654.29
451.378	38233.87
451.584	37527.32
451.791	38682.38
451.997	38457.1
452.203	39188.22
452.409	38979.33
452.615	38960.9
452.821	37195.55
453.027	37054.24
453.233	39132.93
453.44	37259.04
453.646	37482.27
453.852	38084.37
454.058	38186.77
454.264	37345.05
454.47	38125.33
454.676	37177.12
454.882	38203.15
455.088	34719.56
455.294	35254.08
455.5	35657.53
455.705	35901.23
455.911	34828.1
456.117	34150.22
456.323	33337.18
456.529	31577.97
456.735	33077.08
456.941	32212.84
457.147	31446.9
457.352	30824.32
457.558	30539.65
457.764	30478.21
457.97	30056.33
458.176	29552.53
458.381	29251.48
458.587	27840.43
458.793	27885.48
458.999	26298.31
459.204	28303.27
459.41	27516.85
459.616	25638.86
459.821	25518.03
460.027	25450.45
460.233	25327.57
460.438	23664.62
460.644	24324.07
460.85	22992.89
461.055	22822.91
461.261	22708.22
461.466	20783.13
461.672	20162.59
461.878	21843.98
462.083	20228.13
462.289	20140.07
462.494	19845.16
462.7	19099.7
462.905	18419.77
463.111	19130.42
463.316	18810.93
463.522	18591.8
463.727	18890.81
463.932	18765.88
464.138	18618.43
464.343	18536.51
464.549	18118.72
464.754	18714.68
464.959	18544.7
465.165	18217.02
465.37	17465.42
465.575	17236.05
465.781	17969.22
465.986	18038.85
466.191	17174.61
466.397	17002.58
466.602	16453.72
466.807	16738.39
467.012	16803.92
467.218	16857.17
467.423	16617.56
467.628	16541.78
467.833	17135.7
468.038	16617.56
468.244	16132.19
468.449	16973.91
468.654	16345.18
468.859	16517.21
469.064	15837.28
469.269	15302.76
469.474	15540.33
469.679	15865.96
469.885	15618.15
470.09	15663.21
470.295	15108.21
470.5	15073.39
470.705	14997.62
470.91	14911.6
471.115	14962.8
471.32	15020.14
471.525	14739.57
471.73	14424.19
471.935	14573.69
472.139	14100.61
472.344	14061.69
472.549	14112.89
472.754	13666.44
472.959	13447.3
473.164	13219.98
473.369	13056.14
473.574	13416.58
473.778	13389.96
473.983	13277.32
474.188	13332.62
474.393	12675.22
474.598	12652.69
474.802	12415.13
475.007	12497.05
475.212	12576.92
475.417	11901.09
475.621	12200.09
475.826	11835.55
476.031	11888.8
476.235	11774.11
476.44	11817.12
476.645	11344.04
476.849	11505.83
477.054	11542.69
477.259	11528.36
477.463	11176.11
477.668	11106.48
477.872	11049.13
478.077	11028.65
478.282	10805.42
478.486	10735.79
478.691	10578.1
478.895	10565.81
479.1	10457.27
479.304	10494.13
479.509	10262.71
479.713	10430.65
479.918	10184.89
480.122	9965.76
480.326	10301.62
480.531	9836.74
480.735	10012.86
480.94	10016.96
481.144	10223.8
481.348	9754.82
481.553	10004.67
481.757	9756.86
481.961	9953.47
482.166	9951.42
482.37	9808.06
482.574	9599.17
482.778	9851.07
482.983	9797.82
483.187	9967.81
483.391	9466.05
483.595	9599.17
483.8	9662.66
484.004	9785.54
484.208	9836.74
484.412	9623.75
484.616	9734.34
484.821	9638.08
485.025	9685.19
485.229	9945.28
485.433	9701.57
485.637	9892.03
485.841	9494.72
486.045	9683.14
486.249	9818.3
486.453	9603.27
486.657	9715.91
486.861	9910.46
487.065	9679.04
487.269	9760.96
487.473	9638.08
487.677	10033.34
487.881	9793.73
488.085	9769.15
488.289	9859.26
488.493	9797.82
488.697	9840.83
488.901	9846.98
489.105	9750.72
489.309	9984.19
489.512	9693.38
489.716	9978.05
489.92	9857.21
490.124	10025.15
490.328	10008.76
490.531	9775.3
490.735	10221.75
490.939	10148.03
491.143	10180.79
491.346	10066.11
491.55	10094.78
491.754	10387.64
491.958	10254.52
492.161	10225.85
492.365	10340.54
492.569	10512.56
492.772	10285.24
492.976	10348.73
493.18	10354.87
493.383	10598.58
493.587	10772.66
493.79	10707.12
493.994	10746.03
494.197	10875.06
494.401	10930.35
494.605	10838.19
494.808	11235.5
495.012	10995.89
495.215	11012.27
495.419	11133.1
495.622	10856.62
495.825	11167.91
496.029	11335.85
496.232	11679.91
496.436	11538.6
496.639	11952.29
496.843	11806.88
497.046	11919.52
497.249	12415.13
497.453	12191.9
497.656	12159.13
497.859	12361.88
498.063	12517.53
498.266	12908.69
498.469	12574.87
498.673	12826.77
498.876	13172.88
499.079	13244.56
499.282	13242.51
499.485	13635.72
499.689	13308.04
499.892	13936.77
500.095	13873.28
500.298	13904
500.501	13957.25
500.705	14332.03
500.908	14655.61
501.111	14610.55
501.314	14743.67
501.517	14954.61
501.72	15220.85
501.923	15171.69
502.126	15296.62
502.329	15751.27
502.532	15968.35
502.735	15718.5
502.938	16435.29
503.141	16310.36
503.344	16556.12
503.547	16515.16
503.75	16676.95
503.953	16896.08
504.156	17358.92
504.359	17528.91
504.562	17518.67
504.765	17821.77
504.968	17926.21
505.17	18348.09
505.373	18196.54
505.576	18436.16
505.779	18794.55
505.982	18823.22
506.185	19288.11
506.387	19245.1
506.59	19544.11
506.793	19755.05
506.996	19804.2
507.198	20645.91
507.401	20260.9
507.604	20396.06
507.807	20740.12
508.009	20910.1
508.212	21264.4
508.415	21489.68
508.617	21717
508.82	21757.96
509.022	21948.42
509.225	22687.74
509.428	22435.84
509.63	22745.08
509.833	22462.46
510.035	23136.24
510.238	23273.46
510.44	23724.01
510.643	23924.71
510.845	24143.84
511.048	23853.03
511.25	24477.66
511.453	24455.14
511.655	25323.47
511.858	24971.22
512.06	25315.28
512.262	25794.51
512.465	25470.93
512.667	26079.18
512.87	26714.05
513.072	26435.52
513.274	27107.26
513.477	27291.57
513.679	27322.29
513.881	27666.35
514.084	28057.51
514.286	27955.11
514.488	27951.02
514.69	29392.79
514.893	29163.42
515.095	29091.74
515.297	29382.55
515.499	29638.55
515.701	29960.08
515.904	30558.08
516.106	30601.09
516.308	30728.06
516.51	31381.37
516.712	31364.98
516.914	31801.2
517.116	32212.84
517.318	32305
517.52	32343.91
517.722	32659.3
517.925	33193.82
518.127	33574.74
518.329	33507.16
518.531	33609.56
518.733	34127.69
518.935	34424.65
519.136	34318.15
519.338	34885.44
519.54	35415.86
519.742	35372.86
519.944	35671.86
520.146	36507.43
520.348	36462.38
520.55	36880.16
520.752	36699.94
520.954	37433.11
521.155	37013.28
521.357	37945.11
521.559	38164.24
521.761	38688.52
521.963	38448.91
522.164	38661.9
522.366	38741.77
522.568	39212.8
522.77	39714.55
522.971	40128.24
523.173	39669.5
523.375	40310.51
523.576	40324.85
523.778	40640.23
523.98	41463.52
524.181	41363.17
524.383	41346.78
524.584	42221.27
524.786	41570.01
524.988	42278.61
525.189	42256.08
525.391	42772.17
525.592	42731.21
525.794	43179.71
525.995	43089.6
526.197	43032.26
526.398	43124.42
526.6	44037.81
526.801	43445.95
527.003	44072.63
527.204	43837.11
527.406	44613.29
527.607	44727.98
527.808	44797.61
528.01	43978.42
528.211	44789.42
528.412	45547.17
528.614	45059.75
528.815	45524.64
529.016	45887.13
529.218	45584.03
529.419	45477.54
529.62	45866.65
529.822	45848.22
530.023	45874.84
530.224	45901.46
530.425	46247.57
530.626	46079.64
530.828	45942.42
531.029	46552.72
531.23	45948.57
531.431	46442.13
531.632	46849.67
531.833	46876.3
532.035	46665.36
532.236	46714.51
532.437	47224.45
532.638	46710.41
532.839	47009.42
533.04	47341.19
533.241	46921.35
533.442	47787.64
533.643	47097.48
533.844	47140.49
534.045	47343.23
534.246	46972.55
534.447	47316.61
534.648	46757.52
534.849	47459.97
535.05	47140.49
535.251	47455.87
535.451	47457.92
535.652	47619.71
535.853	47380.1
536.054	47711.87
536.255	47552.13
536.456	47113.86
536.657	47763.07
536.857	47431.3
537.058	47281.8
537.259	47578.75
537.46	47971.96
537.66	47599.23
537.861	47765.12
538.062	47267.46
538.263	47718.01
538.463	47500.93
538.664	47216.26
538.865	47632
539.065	47896.19
539.266	47345.28
539.466	47783.55
539.667	47257.22
539.868	47718.01
540.068	47308.42
540.269	47177.35
540.469	47505.02
540.67	47447.68
540.87	47214.21
541.071	47115.91
541.271	47545.98
541.472	47609.47
541.672	47263.36
541.873	47382.15
542.073	47097.48
542.274	47801.98
542.474	47564.42
542.675	47111.81
542.875	47838.84
543.075	47703.68
543.276	46569.1
543.476	47779.45
543.676	47289.99
543.877	47550.08
544.077	47259.27
544.277	47466.11
544.478	47154.82
544.678	47484.54
544.878	47343.23
545.078	47206.02
545.279	46913.16
545.479	47605.37
545.679	47689.34
545.879	47328.9
546.079	47040.14
546.28	47412.87
546.48	46784.14
546.68	47365.76
546.88	47410.82
547.08	47249.03
547.28	46861.96
547.48	46821
547.68	46960.26
547.88	47079.05
548.081	47097.48
548.281	46919.31
548.481	46990.98
548.681	47083.14
548.881	47033.99
549.081	46909.07
549.28	47193.73
549.48	47230.6
549.68	46857.87
549.88	47470.21
550.08	46390.93
550.28	47054.47
550.48	46833.29
550.68	46851.72
550.88	46823.05
551.08	46966.41
551.279	46683.79
551.479	46558.86
551.679	46694.03
551.879	46796.43
552.079	46972.55
552.278	46366.35
552.478	46968.46
552.678	46741.13
552.878	46659.21
553.077	46870.15
553.277	46382.74
553.477	47062.66
553.676	46374.55
553.876	46511.76
554.076	46319.25
554.275	46466.7
554.475	45899.42
554.674	46442.13
554.874	46997.13
555.074	46272.15
555.273	46581.39
555.473	46489.23
555.672	46263.96
555.872	46255.76
556.071	45903.51
556.271	46778
556.47	45868.7
556.67	45850.27
556.869	45618.85
557.068	46141.08
557.268	45485.73
557.467	45608.61
557.667	45956.76
557.866	46128.79
558.065	45829.79
558.265	45393.57
558.464	45461.15
558.663	45991.58
558.863	45319.84
559.062	45788.83
559.261	44988.07
559.461	45737.63
559.66	44764.84
559.859	45080.23
560.058	45110.95
560.258	45368.99
560.457	44248.75
560.656	45072.04
560.855	44697.26
561.054	44859.05
561.253	44500.65
561.453	44811.95
561.652	44867.24
561.851	44746.41
562.05	44293.81
562.249	44095.16
562.448	44558
562.647	44129.97
562.846	44037.81
563.045	44238.51
563.244	43894.46
563.443	44162.74
563.642	43777.72
563.841	43622.08
564.04	43652.8
564.239	44117.68
564.438	43302.59
564.637	43439.81
564.836	43361.98
565.035	43380.42
565.234	43220.67
565.432	42831.56
565.631	43249.35
565.83	43073.22
566.029	42761.93
566.228	42723.02
566.427	42835.66
566.625	42510.03
566.824	41860.82
567.023	42651.34
567.222	41668.31
567.42	42116.82
567.619	42204.88
567.818	41746.14
568.016	41952.98
568.215	42274.51
568.414	41815.77
568.612	41832.15
568.811	41639.64
569.01	41588.44
569.208	40990.44
569.407	41221.86
569.605	40525.55
569.804	41338.59
570.002	40670.95
570.201	40951.52
570.4	40279.79
570.598	40140.53
570.797	40216.3
570.995	40390.38
571.193	40140.53
571.392	40427.24
571.59	40097.52
571.789	39931.64
571.987	39790.33
572.186	39536.38
572.384	39239.42
572.582	39974.64
572.781	39773.94
572.979	38872.84
573.177	39657.21
573.376	39577.34
573.574	38915.84
573.772	38981.38
573.971	38975.23
574.169	38899.46
574.367	38248.21
574.565	38864.64
574.763	38569.74
574.962	38586.12
575.16	38158.1
575.358	38215.44
575.556	37656.34
575.754	38295.31
575.952	37871.38
576.151	38006.55
576.349	37519.13
576.547	37535.51
576.745	37510.94
576.943	37642.01
577.141	37224.22
577.339	37158.69
577.537	37281.56
577.735	36970.27
577.933	36970.27
578.131	37183.26
578.329	36790.05
578.527	36294.44
578.725	36458.28
578.923	36730.66
579.121	36417.32
579.319	36011.82
579.516	36714.28
579.714	36419.37
579.912	36007.73
580.11	36091.69
580.308	35907.38
580.506	35979.06
580.704	35045.18
580.901	35862.32
581.099	35659.57
581.297	35460.92
581.495	35149.63
581.692	35387.19
581.89	34756.42
582.088	35489.59
582.285	34930.5
582.483	35497.78
582.681	35069.76
582.878	34858.82
583.076	34514.76
583.274	35153.72
583.471	34602.82
583.669	34586.44
583.866	34211.66
584.064	34594.63
584.262	34244.43
584.459	34434.89
584.657	33869.65
584.854	33972.05
585.052	33247.07
585.249	33890.13
585.447	33888.08
585.644	33257.31
585.841	33253.21
586.039	33374.04
586.236	33191.77
586.434	33259.35
586.631	33023.84
586.828	32898.91
587.026	33089.37
587.223	32907.1
587.42	32802.66
587.618	32720.74
587.815	32108.4
588.012	32614.24
588.21	32132.97
588.407	32302.95
588.604	32274.28
588.801	31940.46
588.999	31897.45
589.196	31993.71
589.393	31850.35
589.59	31688.56
589.787	31692.66
589.984	31766.38
590.182	31387.51
590.379	31534.96
590.576	31178.62
590.773	31510.39
590.97	30803.84
591.167	31348.6
591.364	30474.12
591.561	31129.47
591.758	30494.6
591.955	30310.28
592.152	30392.2
592.349	30543.75
592.546	30291.85
592.743	30287.75
592.94	29728.66
593.137	30134.15
593.334	29910.92
593.531	29738.9
593.727	30185.35
593.924	29888.4
594.121	29982.6
594.318	29568.91
594.515	29296.53
594.712	29769.62
594.908	29398.93
595.105	29484.95
595.302	29280.15
595.499	29187.99
595.696	28985.24
595.892	29011.87
596.089	28893.08
596.286	28727.2
596.482	28671.9
596.679	28864.41
596.876	28975
597.072	28411.81
597.269	28405.67
597.466	28184.49
597.662	28032.94
597.859	28143.53
598.055	28106.66
598.252	27699.12
598.448	27858.86
598.645	27750.32
598.841	27314.1
599.038	27590.58
599.234	27985.83
599.431	27412.4
599.627	27414.45
599.824	27269.05
600.02	27041.72
600.217	27082.68
600.413	27035.58
600.609	26953.66
600.806	26881.98
601.002	27109.3
601.198	26623.94
601.395	26445.76
601.591	26597.31
601.787	26628.03
601.984	26468.29
602.18	26556.35
602.376	26412.99
602.572	26046.41
602.769	26288.07
602.965	25626.57
603.161	26097.61
603.357	25610.19
603.553	25905.1
603.75	25763.79
603.946	25663.44
604.142	25645.01
604.338	25415.63
604.534	25468.88
604.73	25098.2
604.926	25067.48
605.122	25368.53
605.318	25167.83
605.514	24682.46
605.71	24917.98
605.906	24973.27
606.102	24891.35
606.298	24780.76
606.494	24811.48
606.69	24614.88
606.886	24616.93
607.082	24481.76
607.278	24604.64
607.474	24254.44
607.67	24514.53
607.866	24213.48
608.062	24268.77
608.257	24381.41
608.453	24033.25
608.649	24561.63
608.845	24010.73
609.041	23631.85
609.236	24076.26
609.432	23697.39
609.628	23926.76
609.824	23795.69
610.019	23863.27
610.215	23683.05
610.411	23699.44
610.606	23488.49
610.802	23318.51
610.998	23658.48
611.193	23379.95
611.389	23085.05
611.584	23295.99
611.78	23232.5
611.976	23349.23
612.171	23300.08
612.367	22999.03
612.562	23130.1
612.758	22820.86
612.953	22566.91
613.149	22857.72
613.344	22781.95
613.539	22933.5
613.735	22847.48
613.93	22700.03
614.126	22513.66
614.321	22937.59
614.517	22673.4
614.712	22370.3
614.907	22413.31
615.103	22677.5
615.298	22372.35
615.493	22577.15
615.688	22059.01
615.884	22730.75
616.079	21944.33
616.274	22532.09
616.47	22059.01
616.665	22372.35
616.86	22024.2
617.055	22034.44
617.25	21954.57
617.445	22102.02
617.641	21551.12
617.836	22173.7
618.031	21524.49
618.226	21872.65
618.421	21938.18
618.616	21557.26
618.811	21145.62
619.006	21530.64
619.201	21168.15
619.396	21714.95
619.591	20742.17
619.786	21229.59
619.981	20906.01
620.176	21098.52
620.371	20848.66
620.566	20875.29
620.761	20736.02
620.956	20793.37
621.151	20627.48
621.346	20424.73
621.541	20195.36
621.735	20402.21
621.93	19806.25
622.125	20291.62
622.32	19818.53
622.515	19953.7
622.709	19634.22
622.904	19623.98
623.099	19529.77
623.294	19335.21
623.488	19349.55
623.683	19173.42
623.878	18907.19
624.072	19042.35
624.267	19220.53
624.462	18972.72
624.656	18772.02
624.851	18675.77
625.046	18507.83
625.24	18470.97
625.435	18329.66
625.629	18028.61
625.824	18081.86
626.018	18165.82
626.213	17702.98
626.407	17879.11
626.602	17533
626.796	17827.91
626.991	17850.44
627.185	17602.63
627.38	17293.39
627.574	17438.8
627.768	17268.81
627.963	17193.04
628.157	16691.29
628.352	16951.38
628.546	16621.66
628.74	16873.56
628.935	16732.25
629.129	16607.32
629.323	16154.72
629.517	16185.44
629.712	16195.68
629.906	16357.47
630.1	15892.58
630.294	15960.16
630.489	15958.11
630.683	15818.85
630.877	15454.31
631.071	15749.22
631.265	15634.53
631.459	15648.87
631.653	15472.75
631.848	15343.72
632.042	15136.88
632.236	15382.63
632.43	15220.85
632.624	15071.34
632.818	15020.14
633.012	14768.24
633.206	14653.56
633.4	14786.68
633.594	14551.16
633.788	14573.69
633.982	14489.72
634.176	14313.59
634.369	14270.59
634.563	14086.27
634.757	14309.5
634.951	14203
635.145	14108.8
635.339	13918.34
635.533	13873.28
635.726	14110.85
635.92	13658.24
636.114	13768.84
636.308	13584.52
636.501	13578.37
636.695	13459.59
636.889	13283.47
637.083	13123.73
637.276	13262.99
637.47	13195.4
637.664	12996.75
637.857	13076.62
638.051	12920.98
638.244	12880.02
638.438	12683.41
638.632	12679.32
638.825	12677.27
639.019	12535.96
639.212	12630.16
639.406	12611.73
639.599	12576.92
639.793	12488.85
639.986	12193.95
640.18	12263.58
640.373	12214.43
640.567	12009.63
640.76	12187.8
640.954	11954.33
641.147	11894.94
641.34	11702.43
641.534	11942.05
641.727	11802.79
641.92	11438.25
642.114	11499.69
642.307	11628.71
642.5	11350.18
642.694	11360.42
642.887	11391.14
643.08	11419.82
643.273	11262.12
643.467	11100.33
643.66	10975.41
643.853	10928.3
644.046	10764.47
644.239	10852.53
644.432	10674.35
644.626	10416.31
644.819	10627.25
645.012	10674.35
645.205	10623.16
645.398	10746.03
645.591	10574
645.784	10483.89
645.977	10430.65
646.17	10270.9
646.363	10178.75
646.556	9775.3
646.749	10074.3
646.942	10062.01
647.135	10080.44
647.328	10014.91
647.521	9707.71
647.714	9705.67
647.907	10019
648.099	9689.28
648.292	9988.28
648.485	9531.59
648.678	9433.29
648.871	9654.47
649.064	9476.29
649.256	9545.92
649.449	9291.98
649.642	9152.71
649.835	9302.22
650.027	9341.13
650.22	9056.46
650.413	9158.86
650.605	9089.23
650.798	8866
650.991	8861.9
651.183	8890.57
651.376	8833.23
651.568	8843.47
651.761	8829.13
651.954	8820.94
652.146	8841.42
652.339	8728.78
652.531	8642.77
652.724	8605.91
652.916	8411.35
653.109	8534.23
653.301	8450.26
653.494	8356.05
653.686	8253.66
653.879	8411.35
654.071	8202.46
654.263	8210.65
654.456	8337.62
654.648	8128.73
654.84	7999.71
655.033	8048.86
655.225	8098.01
655.417	7964.89
655.61	8161.5
655.802	7950.56
655.994	7702.75
656.186	8018.14
656.379	7753.95
656.571	7817.44
656.763	7735.52
656.955	7624.93
657.148	7555.3
657.34	7571.68
657.532	7592.16
657.724	7459.04
657.916	7397.6
658.108	7311.59
658.3	7375.08
658.492	7366.88
658.684	7203.05
658.876	7225.58
659.068	7198.95
659.26	7114.98
659.452	7026.92
659.644	7155.94
659.836	7198.95
660.028	7289.06
660.22	6779.12
660.412	7018.73
660.604	6822.13
660.796	6973.67
660.988	6846.7
661.18	6889.71
661.372	6727.92
661.563	6756.59
661.755	6746.35
661.947	6762.73
662.139	6721.77
662.331	6600.94
662.522	6547.7
662.714	6584.56
662.906	6533.36
663.097	6537.46
663.289	6643.95
663.481	6371.57
663.673	6336.76
663.864	6373.62
664.056	6215.93
664.247	6338.8
664.439	6385.91
664.631	6293.75
664.822	6207.73
665.014	6308.09
665.205	6234.36
665.397	6248.69
665.588	6174.97
665.78	5894.4
665.971	5935.35
666.163	6015.23
666.354	5978.36
666.546	6076.66
666.737	5857.53
666.929	5812.48
667.12	5959.93
667.311	5916.92
667.503	5771.52
667.694	5871.87
667.885	5763.33
668.077	5896.44
668.268	5796.09
668.459	5863.68
668.651	5585.15
668.842	5497.09
669.033	5572.86
669.224	5574.91
669.416	5613.82
669.607	5589.25
669.798	5443.84
669.989	5662.97
670.18	5468.42
670.371	5564.67
670.563	5404.93
670.754	5546.24
670.945	5505.28
671.136	5597.44
671.327	5425.41
671.518	5347.59
671.709	5456.13
671.9	5398.79
672.091	5333.25
672.282	5402.88
672.473	5259.53
672.664	5363.97
672.855	5280
673.046	5374.21
673.237	5130.5
673.428	5363.97
673.619	5345.54
673.809	5171.46
674	5320.96
674.191	5232.9
674.382	5245.19
674.573	5206.28
674.764	5052.68
674.954	5300.48
675.145	5036.3
675.336	5028.1
675.527	5140.74
675.717	5173.51
675.908	4958.47
676.099	5230.85
676.289	5116.17
676.48	5114.12
676.671	4999.43
676.861	5052.68
677.052	4843.79
677.243	5019.91
677.433	5107.98
677.624	5058.82
677.814	4958.47
678.005	4839.69
678.195	4950.28
678.386	4999.43
678.576	4901.13
678.767	4935.95
678.957	4905.23
679.148	5001.48
679.338	4874.51
679.529	4847.88
679.719	4845.84
679.909	4962.57
680.1	4907.27
680.29	4870.41
680.481	4847.88
680.671	4894.99
680.861	4884.75
681.052	4733.2
681.242	4741.39
681.432	4862.22
681.622	4720.91
681.813	4823.31
682.003	4786.44
682.193	4692.24
682.383	4905.23
682.573	4765.96
682.764	4806.92
682.954	4802.83
683.144	4827.4
683.334	4747.53
683.524	4768.01
683.714	4794.64
683.904	4722.96
684.094	4702.48
684.284	4813.07
684.474	4698.38
684.664	4827.4
684.854	4677.9
685.044	4735.25
685.234	4690.19
685.424	4700.43
685.614	4600.08
685.804	4602.13
685.994	4743.44
686.184	4641.04
686.374	4690.19
686.564	4491.54
686.753	4708.62
686.943	4426
687.133	4559.12
687.323	4516.11
687.513	4413.71
687.702	4442.39
687.892	4452.63
688.082	4448.53
688.272	4407.57
688.461	4405.52
688.651	4372.75
688.841	4342.04
689.03	4256.02
689.22	4307.22
689.41	4561.17
689.599	4215.06
689.789	4262.16
689.979	4280.6
690.168	4192.53
690.358	4170.01
690.547	4161.81
690.737	4278.55
690.926	4233.49
691.116	4129.05
691.305	4188.44
691.495	4219.16
691.684	3989.78
691.874	4219.16
692.063	4198.68
692.252	3969.3
692.442	3983.64
692.631	4098.33
692.82	3909.91
693.01	3983.64
693.199	4032.79
693.388	3948.83
693.578	3891.48
693.767	4040.98
693.956	3973.4
694.146	4090.13
694.335	3897.63
694.524	3971.35
694.713	3936.54
694.902	3926.3
695.092	3959.06
695.281	3844.38
695.47	3770.65
695.659	3819.8
695.848	3780.89
696.037	3758.36
696.226	3846.43
696.415	3924.25
696.604	3856.67
696.793	3854.62
696.982	3774.75
697.171	3825.95
697.36	3807.52
697.549	3784.99
697.738	3797.28
697.927	3754.27
698.116	3760.41
698.305	3758.36
698.494	3684.64
698.683	3703.07
698.872	3791.13
699.061	3766.56
699.25	3780.89
699.438	3670.3
699.627	3754.27
699.816	3717.4
700.005	3713.31
700.193	3633.44
700.382	3737.88
700.571	3631.39
700.76	3848.47
700.948	3608.86
701.137	3664.16
701.326	3635.49
701.514	3668.25
701.703	3604.77
701.892	3596.57
702.08	3784.99
702.269	3651.87
702.457	3672.35
702.646	3584.29
702.834	3676.45
703.023	3623.2
703.212	3690.78
703.4	3717.4
703.589	3528.99
703.777	3621.15
703.965	3625.25
704.154	3647.77
704.342	3709.21
704.531	3535.14
704.719	3565.85
704.907	3641.63
705.096	3537.18
705.284	3619.1
705.472	3651.87
705.661	3498.27
705.849	3750.17
706.037	3625.25
706.226	3586.33
706.414	3649.82
706.602	3547.42
706.79	3641.63
706.979	3490.08
707.167	3578.14
707.355	3492.13
707.543	3520.8
707.731	3750.17
707.919	3684.64
708.107	3641.63
708.296	3619.1
708.484	3576.09
708.672	3617.05
708.86	3588.38
709.048	3567.9
709.236	3651.87
709.424	3553.57
709.612	3481.89
709.8	3674.4
709.988	3465.5
710.176	3631.39
710.364	3535.14
710.551	3455.26
710.739	3528.99
710.927	3481.89
711.115	3658.01
711.303	3725.6
711.491	3604.77
711.679	3604.77
711.866	3518.75
712.054	3606.81
712.242	3500.32
712.43	3543.33
712.617	3531.04
712.805	3668.25
712.993	3606.81
713.181	3533.09
713.368	3612.96
713.556	3563.81
713.744	3492.13
713.931	3688.73
714.119	3619.1
714.306	3662.11
714.494	3559.71
714.682	3559.71
714.869	3612.96
715.057	3606.81
715.244	3588.38
715.432	3610.91
715.619	3686.69
715.807	3586.33
715.994	3506.46
716.182	3594.53
716.369	3588.38
716.556	3719.45
716.744	3606.81
716.931	3539.23
717.119	3643.68
717.306	3606.81
717.493	3561.76
717.681	3580.19
717.868	3508.51
718.055	3635.49
718.242	3596.57
718.43	3660.06
718.617	3572
718.804	3588.38
718.991	3561.76
719.179	3830.04
719.366	3578.14
719.553	3637.53
719.74	3612.96
719.927	3682.59
720.114	3688.73
720.301	3612.96
720.488	3651.87
720.676	3645.73
720.863	3653.92
721.05	3887.39
721.237	3549.47
721.424	3475.74
721.611	3639.58
721.798	3508.51
721.985	3586.33
722.172	3635.49
722.358	3594.53
722.545	3483.94
722.732	3488.03
722.919	3582.24
723.106	3524.9
723.293	3438.88
723.48	3518.75
723.667	3496.22
723.853	3545.38
724.04	3602.72
724.227	3528.99
724.414	3612.96
724.6	3502.37
724.787	3707.16
724.974	3660.06
725.161	3528.99
725.347	3356.96
725.534	3518.75
725.72	3422.5
725.907	3477.79
726.094	3559.71
726.28	3432.74
726.467	3406.11
726.653	3496.22
726.84	3399.97
727.027	3492.13
727.213	3600.67
727.4	3436.83
727.586	3350.82
727.773	3615.01
727.959	3367.2
728.145	3479.84
728.332	3416.35
728.518	3526.94
728.705	3479.84
728.891	3342.63
729.077	3440.93
729.264	3424.55
729.45	3467.55
729.636	3453.22
729.823	3426.59
730.009	3328.29
730.195	3516.7
730.382	3567.9
730.568	3578.14
730.754	3567.9
730.94	3426.59
731.126	3397.92
731.313	3479.84
731.499	3387.68
731.685	3492.13
731.871	3369.25
732.057	3459.36
732.243	3500.32
732.429	3455.26
732.615	3465.5
732.801	3391.78
732.987	3492.13
733.173	3395.87
733.359	3422.5
733.545	3432.74
733.731	3309.86
733.917	3342.63
734.103	3453.22
734.289	3465.5
734.475	3498.27
734.661	3582.24
734.847	3305.76
735.033	3457.31
735.219	3369.25
735.404	3418.4
735.59	3328.29
735.776	3348.77
735.962	3406.11
736.148	3256.61
736.333	3303.71
736.519	3373.35
736.705	3363.11
736.89	3299.62
737.076	3273
737.262	3254.56
737.447	3361.06
737.633	3356.96
737.819	3283.24
738.004	3305.76
738.19	3176.74
738.375	3209.51
738.561	3342.63
738.747	3209.51
738.932	3113.25
739.118	3283.24
739.303	3105.06
739.489	3227.94
739.674	3025.19
739.859	3180.84
740.045	3078.44
740.23	3096.87
740.416	3201.32
740.601	3189.03
740.786	3092.77
740.972	3000.62
741.157	3137.83
741.342	3012.9
741.528	3051.81
741.713	3109.16
741.898	3017
742.084	3232.04
742.269	2992.42
742.454	3010.86
742.639	3125.54
742.824	2976.04
743.01	2967.85
743.195	3025.19
743.38	2867.5
743.565	2906.41
743.75	2924.84
743.935	2939.18
744.12	2951.46
744.305	2777.39
744.49	2830.63
744.675	2834.73
744.86	2828.59
745.045	2873.64
745.23	2799.91
745.415	2967.85
745.6	2705.71
745.785	2785.58
745.97	2865.45
746.155	2789.67
746.34	2855.21
746.525	2754.86
746.71	2619.69
746.895	2662.7
747.079	2687.28
747.264	2634.03
747.449	2722.09
747.634	2627.89
747.819	2623.79
748.003	2578.73
748.188	2470.19
748.373	2550.06
748.557	2564.4
748.742	2472.24
748.927	2515.25
749.111	2443.57
749.296	2464.05
749.481	2400.56
749.665	2468.14
749.85	2402.61
750.034	2537.77
750.219	2351.41
750.404	2283.83
750.588	2361.65
750.773	2355.51
750.957	2363.7
751.141	2371.89
751.326	2277.68
751.51	2253.11
751.695	2148.66
751.879	2244.92
752.064	2263.35
752.248	2165.04
752.432	2197.81
752.617	2275.63
752.801	2136.37
752.985	2119.99
753.17	2206
753.354	2146.61
753.538	2128.18
753.722	2105.65
753.907	2044.21
754.091	2138.42
754.275	2066.74
754.459	1986.87
754.643	1980.73
754.828	1960.25
755.012	1956.15
755.196	1939.77
755.38	1911.1
755.564	1890.62
755.748	1927.48
755.932	1954.1
756.116	1870.14
756.3	1925.43
756.484	1870.14
756.668	1935.67
756.852	1739.07
757.036	1829.18
757.22	1808.7
757.404	1863.99
757.588	1714.49
757.772	1892.66
757.956	1759.55
758.14	1669.44
758.323	1782.07
758.507	1702.2
758.691	1724.73
758.875	1671.48
759.059	1726.78
759.242	1753.4
759.426	1694.01
759.61	1599.8
759.794	1612.09
759.977	1700.16
760.161	1632.57
760.345	1630.52
760.528	1640.76
760.712	1603.9
760.895	1540.41
761.079	1505.6
761.263	1550.65
761.446	1503.55
761.63	1636.67
761.813	1499.45
761.997	1542.46
762.18	1497.41
762.364	1476.93
762.547	1560.89
762.731	1591.61
762.914	1472.83
763.098	1503.55
763.281	1485.12
763.464	1403.2
763.648	1390.91
763.831	1497.41
764.015	1399.1
764.198	1446.21
764.381	1411.39
764.564	1405.25
764.748	1372.48
764.931	1489.21
765.114	1366.34
765.297	1386.82
765.481	1378.62
765.664	1284.42
765.847	1354.05
766.03	1407.3
766.213	1292.61
766.397	1311.04
766.58	1286.47
766.763	1384.77
766.946	1294.66
767.129	1358.14
767.312	1345.86
767.495	1440.06
767.678	1243.46
767.861	1399.1
768.044	1247.55
768.227	1315.14
768.41	1319.23
768.593	1331.52
768.776	1249.6
768.959	1352
769.142	1276.23
769.324	1227.07
769.507	1284.42
769.69	1188.16
769.873	1159.49
770.056	1341.76
770.239	1186.12
770.421	1274.18
770.604	1208.64
770.787	1143.11
770.97	1134.92
771.152	1198.4
771.335	1177.92
771.518	1190.21
771.7	1231.17
771.883	1222.98
772.066	1122.63
772.248	1149.25
772.431	1124.68
772.613	1171.78
772.796	1081.67
772.978	1276.23
773.161	1153.35
773.343	1198.4
773.526	1175.88
773.708	1069.38
773.891	944.45
774.073	1069.38
774.256	997.7
774.438	1120.58
774.621	938.31
774.803	1005.89
774.985	987.46
775.168	1014.09
775.35	1073.48
775.532	938.31
775.715	893.26
775.897	1075.52
776.079	1009.99
776.261	966.98
776.444	1018.18
776.626	960.84
776.808	842.06
776.99	991.56
777.173	907.59
777.355	973.13
777.537	913.74
777.719	985.41
777.901	971.08
778.083	907.59
778.265	846.15
778.447	926.02
778.629	817.48
778.811	919.88
778.993	936.26
779.175	878.92
779.357	792.91
779.539	784.71
779.721	825.67
779.903	782.67
780.085	809.29
780.267	915.78
780.449	794.95
780.631	782.67
780.812	842.06
780.994	823.62
781.176	717.13
781.358	694.6
781.54	776.52
781.721	794.95
781.903	788.81
782.085	672.08
782.267	788.81
782.448	797
782.63	706.89
782.812	723.27
782.993	741.71
783.175	688.46
783.357	641.36
783.538	702.79
783.72	706.89
783.901	608.59
784.083	702.79
784.264	749.9
784.446	608.59
784.627	604.49
784.809	696.65
784.99	670.03
785.172	649.55
785.353	604.49
785.535	651.6
785.716	659.79
785.897	629.07
786.079	627.02
786.26	649.55
786.441	543.05
786.623	653.64
786.804	553.29
786.985	577.87
787.167	592.2
787.348	575.82
787.529	581.96
787.71	565.58
787.891	590.16
788.073	547.15
788.254	514.38
788.435	674.12
788.616	553.29
788.797	602.44
788.978	547.15
789.159	504.14
789.34	555.34
789.522	551.24
789.703	545.1
789.884	538.96
790.065	483.66
790.246	596.3
790.427	504.14
790.607	495.95
790.788	549.2
790.969	411.98
791.15	495.95
791.331	454.99
791.512	516.43
791.693	457.04
791.874	477.52
792.054	571.72
792.235	493.9
792.416	461.13
792.597	477.52
792.778	508.24
792.958	424.27
793.139	481.61
793.32	440.65
793.5	344.4
793.681	504.14
793.862	461.13
794.042	463.18
794.223	362.83
794.404	373.07
794.584	416.08
794.765	377.17
794.945	364.88
795.126	457.04
795.306	414.03
795.487	340.3
795.667	354.64
795.848	469.33
796.028	399.7
796.209	373.07
796.389	399.7
796.57	368.98
796.75	307.54
796.93	450.89
797.111	403.79
797.291	397.65
797.471	383.31
797.652	328.02
797.832	321.87
798.012	463.18
798.192	366.93
798.373	364.88
798.553	454.99
798.733	364.88
798.913	321.87
799.093	319.82
799.274	362.83
799.454	362.83
799.634	305.49
799.814	344.4
799.994	350.54
800.174	346.45
800.354	350.54
800.534	266.58
800.714	340.3
800.894	360.78
801.074	309.58
801.254	321.87
801.434	317.78
801.614	407.89
801.794	299.34
801.974	733.51
802.154	319.82
802.334	328.02
802.514	276.82
802.693	348.5
802.873	248.15
803.053	366.93
803.233	287.06
803.413	354.64
803.592	301.39
803.772	266.58
803.952	344.4
804.131	328.02
804.311	332.11
804.491	352.59
804.67	250.19
804.85	299.34
805.03	350.54
805.209	289.1
805.389	223.57
805.568	285.01
805.748	311.63
805.928	354.64
806.107	217.43
806.287	297.3
806.466	227.67
806.646	332.11
806.825	301.39
807.004	252.24
807.184	282.96
807.363	260.43
807.543	244.05
807.722	264.53
807.901	246.1
808.081	231.76
808.26	215.38
808.439	291.15
808.619	235.86
808.798	233.81
808.977	270.67
809.156	219.47
809.336	209.23
809.515	205.14
809.694	260.43
809.873	301.39
810.052	244.05
810.231	233.81
810.411	225.62
810.59	237.91
810.769	258.39
810.948	321.87
811.127	184.66
811.306	211.28
811.485	151.89
811.664	248.15
811.843	207.19
812.022	180.56
812.201	272.72
812.38	127.32
812.559	194.9
812.737	242
812.916	207.19
813.095	153.94
813.274	215.38
813.453	237.91
813.632	233.81
813.811	254.29
813.989	162.13
814.168	180.56
814.347	115.03
814.526	260.43
814.704	225.62
814.883	264.53
815.062	252.24
815.24	278.87
815.419	194.9
815.598	233.81
815.776	166.23
815.955	186.71
816.133	192.85
816.312	256.34
816.49	235.86
816.669	186.71
816.847	201.04
817.026	198.99
817.204	262.48
817.383	151.89
817.561	145.75
817.74	162.13
817.918	235.86
818.097	182.61
818.275	108.88
818.453	219.47
818.632	162.13
818.81	186.71
818.988	96.6
819.167	217.43
819.345	229.71
819.523	213.33
819.701	182.61
819.879	205.14
820.058	141.65
820.236	133.46
820.414	192.85
820.592	137.56
820.77	135.51
820.948	158.03
821.127	145.75
821.305	96.6
821.483	117.08
821.661	246.1
821.839	137.56
822.017	147.8
822.195	198.99
822.373	192.85
822.551	86.36
822.729	160.08
822.907	182.61
823.085	155.99
823.262	115.03
823.44	209.23
823.618	194.9
823.796	168.27
823.974	139.6
824.152	170.32
824.329	112.98
824.507	145.75
824.685	182.61
824.863	194.9
825.04	98.64
825.218	129.36
825.396	182.61
825.574	176.47
825.751	192.85
825.929	192.85
826.107	145.75
826.284	155.99
826.462	174.42
826.639	110.93
826.817	110.93
826.994	135.51
827.172	84.31
827.349	155.99
827.527	110.93
827.704	131.41
827.882	170.32
828.059	153.94
828.237	82.26
828.414	143.7
828.591	35.16
828.769	168.27
828.946	112.98
829.124	67.92
829.301	88.4
829.478	162.13
829.655	129.36
829.833	129.36
830.01	121.17
830.187	143.7
830.364	59.73
830.542	112.98
830.719	110.93
830.896	135.51
831.073	190.8
831.25	135.51
831.427	151.89
831.604	133.46
831.782	121.17
831.959	149.84
832.136	63.83
832.313	198.99
832.49	129.36
832.667	84.31
832.844	162.13
833.021	137.56
833.198	158.03
833.374	170.32
833.551	102.74
833.728	108.88
833.905	110.93
834.082	20.82
834.259	127.32
834.436	151.89
834.612	69.97
834.789	141.65
834.966	123.22
835.143	10.58
835.319	141.65
835.496	31.06
835.673	139.6
835.85	164.18
836.026	104.79
836.203	145.75
836.38	104.79
836.556	139.6
836.733	135.51
836.909	131.41
837.086	141.65
837.262	94.55
837.439	127.32
837.616	123.22
837.792	80.21
837.968	82.26
838.145	18.77
838.321	96.6
838.498	72.02
838.674	115.03
838.851	80.21
839.027	14.68
839.203	53.59
839.38	37.2
839.556	24.92
839.732	57.68
839.909	94.55
840.085	-32.43
840.261	117.08
840.437	31.06
840.614	55.64
840.79	4.44
840.966	110.93
841.142	143.7
841.318	84.31
841.494	108.88
841.671	104.79
841.847	106.84
842.023	0.34
842.199	69.97
842.375	63.83
842.551	45.4
842.727	14.68
842.903	61.78
843.079	51.54
843.255	90.45
843.431	45.4
843.607	127.32
843.783	26.96
843.959	47.44
844.134	82.26
844.31	188.75
844.486	-7.85
844.662	35.16
844.838	55.64
845.013	117.08
845.189	92.5
845.365	63.83
845.541	108.88
845.716	137.56
845.892	74.07
846.068	59.73
846.244	55.64
846.419	121.17
846.595	-26.28
846.77	45.4
846.946	20.82
847.122	29.01
847.297	74.07
847.473	100.69
847.648	-9.9
847.824	86.36
847.999	53.59
848.175	61.78
848.35	104.79
848.526	-11.95
848.701	151.89
848.876	129.36
849.052	80.21
849.227	-9.9
849.403	-9.9
849.578	47.44
849.753	106.84
849.929	80.21
850.104	67.92
850.279	102.74
850.454	76.12
850.63	102.74
850.805	37.2
850.98	55.64
851.155	86.36
851.33	26.96
851.505	-20.14
851.681	131.41
851.856	78.16
852.031	53.59
852.206	18.77
852.381	16.73
852.556	22.87
852.731	94.55
852.906	18.77
853.081	72.02
853.256	69.97
853.431	92.5
853.606	6.49
853.781	47.44
853.956	43.35
854.131	69.97
854.305	8.53
854.48	-1.71
854.655	26.96
854.83	-93.87
855.005	53.59
855.18	61.78
855.354	-28.33
855.529	24.92
855.704	22.87
855.879	80.21
856.053	2.39
856.228	-48.81
856.403	-30.38
856.577	33.11
856.752	2.39
856.926	112.98
857.101	-11.95
857.276	31.06
857.45	37.2
857.625	96.6
857.799	6.49
857.974	0.34
858.148	6.49
858.323	100.69
858.497	104.79
858.672	18.77
858.846	26.96
859.02	59.73
859.195	22.87
859.369	53.59
859.543	33.11
859.718	26.96
859.892	41.3
860.066	69.97
860.241	43.35
860.415	92.5
860.589	22.87
860.763	37.2
860.938	80.21
861.112	51.54
861.286	102.74
861.46	76.12
861.634	78.16
861.808	-13.99
861.982	-42.67
862.157	78.16
862.331	-3.75
862.505	18.77
862.679	29.01
862.853	78.16
863.027	45.4
863.201	121.17
863.375	33.11
863.549	-7.85
863.722	45.4
863.896	51.54
864.07	55.64
864.244	49.49
864.418	-28.33
864.592	51.54
864.766	-18.09
864.939	-30.38
865.113	8.53
865.287	74.07
865.461	0.34
865.634	12.63
865.808	20.82
865.982	12.63
866.156	43.35
866.329	-26.28
866.503	57.68
866.676	43.35
866.85	63.83
867.024	41.3
867.197	35.16
867.371	24.92
867.544	43.35
867.718	-9.9
867.891	4.44
868.065	-9.9
868.238	24.92
868.412	12.63
868.585	4.44
868.759	47.44
868.932	12.63
869.105	51.54
869.279	-11.95
869.452	63.83
869.625	-7.85
869.799	18.77
869.972	-1.71
870.145	96.6
870.319	31.06
870.492	2.39
870.665	14.68
870.838	12.63
871.011	-46.76
871.185	96.6
871.358	12.63
871.531	92.5
871.704	18.77
871.877	2.39
872.05	74.07
872.223	26.96
872.396	37.2
872.569	0.34
872.742	55.64
872.915	106.84
873.088	69.97
873.261	43.35
873.434	-1.71
873.607	6.49
873.78	35.16
873.953	-30.38
874.126	-26.28
874.299	-22.19
874.471	-7.85
874.644	-1.71
874.817	-46.76
874.99	61.78
875.163	-40.62
875.335	49.49
875.508	14.68
875.681	2.39
875.853	4.44
876.026	74.07
876.199	16.73
876.371	22.87
876.544	-44.71
876.717	14.68
876.889	16.73
877.062	69.97
877.234	-52.91
877.407	-42.67
877.579	49.49
877.752	63.83
877.924	-11.95
878.097	49.49
878.269	-3.75
878.442	22.87
878.614	37.2
878.786	31.06
878.959	33.11
879.131	4.44
879.303	-20.14
879.476	4.44
879.648	-13.99
879.82	-7.85
879.993	43.35
880.165	-1.71
880.337	6.49
880.509	-26.28
880.681	12.63
880.854	4.44
881.026	45.4
881.198	67.92
881.37	-5.8
881.542	10.58
881.714	-9.9
881.886	14.68
882.058	-26.28
882.23	39.25
882.402	-32.43
882.574	43.35
882.746	-9.9
882.918	41.3
883.09	74.07
883.262	31.06
883.434	39.25
883.606	4.44
883.778	22.87
883.95	26.96
884.122	-7.85
884.293	74.07
884.465	24.92
884.637	18.77
884.809	0.34
884.98	55.64
885.152	-32.43
885.324	20.82
885.496	-18.09
885.667	-13.99
885.839	-20.14
886.011	31.06
886.182	-11.95
886.354	18.77
886.525	51.54
886.697	39.25
886.869	-26.28
887.04	-79.53
887.212	69.97
887.383	14.68
887.555	-3.75
887.726	37.2
887.897	39.25
888.069	31.06
888.24	12.63
888.412	-50.86
888.583	55.64
888.754	88.4
888.926	-28.33
889.097	-5.8
889.268	-3.75
889.44	26.96
889.611	-7.85
889.782	80.21
889.953	43.35
890.125	-5.8
890.296	49.49
890.467	4.44
890.638	69.97
890.809	102.74
890.98	-5.8
891.151	-95.91
891.323	41.3
891.494	-28.33
891.665	108.88
891.836	12.63
892.007	26.96
892.178	0.34
892.349	61.78
892.52	26.96
892.691	-13.99
892.862	78.16
893.032	24.92
893.203	6.49
893.374	43.35
893.545	67.92
893.716	51.54
893.887	-7.85
894.057	-102.06
894.228	-38.57
894.399	65.88
894.57	45.4
894.74	10.58
894.911	6.49
895.082	-7.85
895.253	57.68
895.423	29.01
895.594	63.83
895.764	39.25
895.935	18.77
896.106	33.11
896.276	-30.38
896.447	2.39
896.617	31.06
896.788	-59.05
896.958	-20.14
897.129	-67.24
897.299	31.06
897.47	65.88
897.64	24.92
897.81	0.34
897.981	31.06
898.151	29.01
898.322	39.25
898.492	4.44
898.662	-32.43
898.832	33.11
899.003	-1.71
899.173	-18.09
899.343	6.49
899.513	2.39
