Data from USB4F104151__78__10-24-12-821.txt Node

Date: Wed Mar 12 10:24:12 EDT 2025
User: louis
Spectrometer: USB4F10415
Trigger mode: 4
Integration Time (sec): 3.000000E-2
Scans to average: 1
Electric dark correction enabled: true
Nonlinearity correction enabled: false
Boxcar width: 0
XAxis mode: Wavelengths
Number of Pixels in Spectrum: 3648
>>>>>Begin Spectral Data<<<<<
178.204	-88.75
178.424	-88.75
178.644	-88.75
178.864	-133.8
179.084	-90.79
179.304	-41.64
179.524	25.94
179.744	27.99
179.964	36.18
180.184	-41.64
180.404	-64.17
180.624	48.47
180.844	42.32
181.064	-74.41
181.283	-43.69
181.503	44.37
181.723	40.28
181.943	-70.31
182.163	15.7
182.383	-19.11
182.602	-8.87
182.822	81.24
183.042	38.23
183.262	-33.45
183.482	-37.55
183.701	-10.92
183.921	-2.73
184.141	9.56
184.361	103.76
184.58	75.09
184.8	-55.98
185.02	-55.98
185.239	1.37
185.459	-6.83
185.679	48.47
185.898	-6.83
186.118	64.85
186.338	60.76
186.557	-35.5
186.777	1.37
186.997	38.23
187.216	-15.02
187.436	128.34
187.655	42.32
187.875	-15.02
188.095	-31.4
188.314	66.9
188.534	85.33
188.753	38.23
188.973	50.52
189.192	9.56
189.412	62.8
189.631	-23.21
189.851	-6.83
190.07	118.1
190.29	75.09
190.509	25.94
190.729	38.23
190.948	77.14
191.168	107.86
191.387	66.9
191.607	19.8
191.826	19.8
192.045	42.32
192.265	52.56
192.484	23.89
192.704	46.42
192.923	-55.98
193.142	-19.11
193.362	56.66
193.581	107.86
193.8	25.94
194.02	11.61
194.239	-6.83
194.458	85.33
194.678	54.61
194.897	-10.92
195.116	56.66
195.335	25.94
195.555	64.85
195.774	17.75
195.993	58.71
196.212	-41.64
196.432	-27.31
196.651	-17.07
196.87	36.18
197.089	42.32
197.308	19.8
197.528	99.67
197.747	13.65
197.966	-2.73
198.185	25.94
198.404	66.9
198.623	77.14
198.842	66.9
199.062	32.08
199.281	124.24
199.5	48.47
199.719	32.08
199.938	7.51
200.157	3.41
200.376	-8.87
200.595	54.61
200.814	9.56
201.033	17.75
201.252	17.75
201.471	44.37
201.69	36.18
201.909	46.42
202.128	85.33
202.347	-49.83
202.566	73.04
202.785	23.89
203.004	-0.68
203.223	91.48
203.442	25.94
203.661	-12.97
203.879	-0.68
204.098	97.62
204.317	3.41
204.536	32.08
204.755	-2.73
204.974	21.85
205.193	58.71
205.411	66.9
205.63	42.32
205.849	40.28
206.068	-0.68
206.287	25.94
206.505	66.9
206.724	40.28
206.943	9.56
207.162	15.7
207.381	-6.83
207.599	-8.87
207.818	13.65
208.037	107.86
208.255	19.8
208.474	42.32
208.693	-45.74
208.911	-33.45
209.13	-0.68
209.349	87.38
209.567	1.37
209.786	-19.11
210.005	21.85
210.223	38.23
210.442	23.89
210.661	5.46
210.879	60.76
211.098	32.08
211.316	3.41
211.535	-12.97
211.753	50.52
211.972	11.61
212.191	99.67
212.409	83.28
212.628	17.75
212.846	81.24
213.065	68.95
213.283	107.86
213.502	81.24
213.72	5.46
213.938	-45.74
214.157	27.99
214.375	36.18
214.594	7.51
214.812	-23.21
215.031	-17.07
215.249	5.46
215.467	-0.68
215.686	50.52
215.904	83.28
216.122	9.56
216.341	71
216.559	3.41
216.778	13.65
216.996	-0.68
217.214	46.42
217.432	40.28
217.651	-35.5
217.869	-15.02
218.087	32.08
218.306	111.96
218.524	60.76
218.742	-23.21
218.96	50.52
219.179	-33.45
219.397	89.43
219.615	56.66
219.833	58.71
220.051	48.47
220.27	-21.16
220.488	38.23
220.706	71
220.924	9.56
221.142	17.75
221.36	23.89
221.578	99.67
221.796	32.08
222.015	-23.21
222.233	21.85
222.451	30.04
222.669	-35.5
222.887	40.28
223.105	7.51
223.323	-4.78
223.541	-51.88
223.759	21.85
223.977	9.56
224.195	34.13
224.413	107.86
224.631	91.48
224.849	-33.45
225.067	111.96
225.285	-27.31
225.503	-2.73
225.721	-27.31
225.939	-6.83
226.157	-51.88
226.375	83.28
226.592	-10.92
226.81	-68.27
227.028	107.86
227.246	66.9
227.464	87.38
227.682	38.23
227.9	19.8
228.117	46.42
228.335	5.46
228.553	17.75
228.771	-31.4
228.989	3.41
229.206	50.52
229.424	30.04
229.642	17.75
229.86	-37.55
230.077	77.14
230.295	-4.78
230.513	36.18
230.731	105.81
230.948	17.75
231.166	50.52
231.384	79.19
231.601	97.62
231.819	-0.68
232.037	-21.16
232.254	-58.03
232.472	42.32
232.689	44.37
232.907	62.8
233.125	48.47
233.342	17.75
233.56	54.61
233.777	54.61
233.995	-49.83
234.213	114
234.43	1.37
234.648	34.13
234.865	-19.11
235.083	-17.07
235.3	-6.83
235.518	52.56
235.735	75.09
235.953	38.23
236.17	1.37
236.388	30.04
236.605	54.61
236.822	-6.83
237.04	116.05
237.257	-10.92
237.475	-0.68
237.692	-2.73
237.909	60.76
238.127	-0.68
238.344	38.23
238.562	17.75
238.779	21.85
238.996	-6.83
239.214	50.52
239.431	83.28
239.648	36.18
239.865	73.04
240.083	27.99
240.3	-2.73
240.517	62.8
240.735	23.89
240.952	50.52
241.169	79.19
241.386	81.24
241.603	40.28
241.821	25.94
242.038	21.85
242.255	54.61
242.472	73.04
242.689	17.75
242.907	99.67
243.124	40.28
243.341	15.7
243.558	19.8
243.775	36.18
243.992	11.61
244.209	58.71
244.426	-55.98
244.643	62.8
244.86	-6.83
245.078	64.85
245.295	56.66
245.512	56.66
245.729	44.37
245.946	107.86
246.163	7.51
246.38	-15.02
246.597	-17.07
246.814	-35.5
247.031	-15.02
247.248	66.9
247.464	-15.02
247.681	58.71
247.898	-10.92
248.115	5.46
248.332	83.28
248.549	-23.21
248.766	32.08
248.983	66.9
249.2	58.71
249.417	38.23
249.633	-12.97
249.85	64.85
250.067	9.56
250.284	44.37
250.501	25.94
250.717	-21.16
250.934	32.08
251.151	11.61
251.368	58.71
251.585	44.37
251.801	27.99
252.018	64.85
252.235	91.48
252.451	-8.87
252.668	21.85
252.885	1.37
253.102	87.38
253.318	-0.68
253.535	-51.88
253.752	-19.11
253.968	-58.03
254.185	91.48
254.401	42.32
254.618	17.75
254.835	-43.69
255.051	83.28
255.268	64.85
255.484	13.65
255.701	1.37
255.917	34.13
256.134	1.37
256.351	42.32
256.567	23.89
256.784	48.47
257	-37.55
257.217	9.56
257.433	21.85
257.65	-2.73
257.866	56.66
258.082	34.13
258.299	1.37
258.515	46.42
258.732	75.09
258.948	13.65
259.165	-53.93
259.381	-6.83
259.597	-6.83
259.814	-2.73
260.03	1.37
260.246	66.9
260.463	42.32
260.679	30.04
260.895	7.51
261.112	118.1
261.328	95.57
261.544	36.18
261.761	105.81
261.977	44.37
262.193	-0.68
262.409	1.37
262.626	60.76
262.842	-62.12
263.058	34.13
263.274	-15.02
263.49	-8.87
263.707	34.13
263.923	17.75
264.139	3.41
264.355	5.46
264.571	91.48
264.787	-35.5
265.004	95.57
265.22	23.89
265.436	19.8
265.652	17.75
265.868	34.13
266.084	-45.74
266.3	30.04
266.516	-19.11
266.732	79.19
266.948	-45.74
267.164	52.56
267.38	34.13
267.596	42.32
267.812	19.8
268.028	73.04
268.244	-25.26
268.46	73.04
268.676	-15.02
268.892	17.75
269.108	13.65
269.324	-10.92
269.54	-31.4
269.756	27.99
269.972	5.46
270.188	7.51
270.403	-0.68
270.619	-8.87
270.835	-2.73
271.051	34.13
271.267	25.94
271.483	-12.97
271.698	46.42
271.914	62.8
272.13	48.47
272.346	3.41
272.562	124.24
272.777	83.28
272.993	-10.92
273.209	-15.02
273.425	5.46
273.64	38.23
273.856	71
274.072	-8.87
274.287	32.08
274.503	91.48
274.719	56.66
274.934	36.18
275.15	-31.4
275.366	60.76
275.581	40.28
275.797	101.72
276.012	-17.07
276.228	62.8
276.444	25.94
276.659	54.61
276.875	46.42
277.09	97.62
277.306	83.28
277.521	116.05
277.737	-27.31
277.952	83.28
278.168	-29.35
278.383	42.32
278.599	27.99
278.814	77.14
279.03	23.89
279.245	15.7
279.461	17.75
279.676	11.61
279.892	9.56
280.107	36.18
280.322	81.24
280.538	58.71
280.753	-47.79
280.969	52.56
281.184	21.85
281.399	62.8
281.615	-27.31
281.83	42.32
282.045	1.37
282.26	71
282.476	54.61
282.691	62.8
282.906	-8.87
283.122	118.1
283.337	-8.87
283.552	54.61
283.767	42.32
283.983	91.48
284.198	46.42
284.413	15.7
284.628	5.46
284.843	44.37
285.058	34.13
285.274	77.14
285.489	21.85
285.704	-0.68
285.919	15.7
286.134	50.52
286.349	-43.69
286.564	42.32
286.779	25.94
286.995	1.37
287.21	42.32
287.425	42.32
287.64	23.89
287.855	95.57
288.07	-33.45
288.285	-2.73
288.5	91.48
288.715	87.38
288.93	105.81
289.145	-19.11
289.36	38.23
289.575	-6.83
289.79	73.04
290.004	23.89
290.219	68.95
290.434	25.94
290.649	17.75
290.864	21.85
291.079	-25.26
291.294	32.08
291.509	32.08
291.724	62.8
291.938	-25.26
292.153	36.18
292.368	13.65
292.583	56.66
292.798	7.51
293.012	-27.31
293.227	66.9
293.442	-12.97
293.657	-15.02
293.871	114
294.086	3.41
294.301	73.04
294.516	66.9
294.73	27.99
294.945	-6.83
295.16	40.28
295.374	58.71
295.589	103.76
295.804	42.32
296.018	-6.83
296.233	75.09
296.447	107.86
296.662	58.71
296.877	40.28
297.091	56.66
297.306	30.04
297.52	44.37
297.735	64.85
297.949	48.47
298.164	99.67
298.378	21.85
298.593	13.65
298.807	-27.31
299.022	58.71
299.236	62.8
299.451	-66.22
299.665	25.94
299.88	19.8
300.094	34.13
300.309	32.08
300.523	40.28
300.737	44.37
300.952	97.62
301.166	13.65
301.381	-72.36
301.595	-6.83
301.809	-17.07
302.024	42.32
302.238	-33.45
302.452	50.52
302.667	95.57
302.881	105.81
303.095	9.56
303.309	54.61
303.524	44.37
303.738	27.99
303.952	5.46
304.166	79.19
304.381	34.13
304.595	54.61
304.809	46.42
305.023	23.89
305.237	79.19
305.452	60.76
305.666	34.13
305.88	9.56
306.094	130.39
306.308	9.56
306.522	48.47
306.736	103.76
306.95	42.32
307.164	-2.73
307.379	-23.21
307.593	46.42
307.807	64.85
308.021	54.61
308.235	91.48
308.449	-49.83
308.663	-6.83
308.877	87.38
309.091	-21.16
309.305	25.94
309.519	9.56
309.733	83.28
309.947	25.94
310.161	93.52
310.374	13.65
310.588	-2.73
310.802	44.37
311.016	73.04
311.23	101.72
311.444	42.32
311.658	124.24
311.872	134.48
312.085	-6.83
312.299	52.56
312.513	42.32
312.727	38.23
312.941	-23.21
313.154	71
313.368	71
313.582	50.52
313.796	87.38
314.009	40.28
314.223	114
314.437	62.8
314.651	42.32
314.864	73.04
315.078	27.99
315.292	56.66
315.505	-15.02
315.719	5.46
315.933	97.62
316.146	-25.26
316.36	34.13
316.573	105.81
316.787	66.9
317.001	56.66
317.214	9.56
317.428	56.66
317.641	-6.83
317.855	-47.79
318.068	116.05
318.282	64.85
318.495	97.62
318.709	17.75
318.922	58.71
319.136	99.67
319.349	58.71
319.563	23.89
319.776	58.71
319.99	44.37
320.203	-10.92
320.417	56.66
320.63	99.67
320.843	66.9
321.057	13.65
321.27	23.89
321.483	3.41
321.697	116.05
321.91	81.24
322.124	54.61
322.337	111.96
322.55	75.09
322.763	21.85
322.977	85.33
323.19	34.13
323.403	54.61
323.617	32.08
323.83	116.05
324.043	5.46
324.256	17.75
324.469	11.61
324.683	68.95
324.896	75.09
325.109	-6.83
325.322	-0.68
325.535	48.47
325.748	111.96
325.962	66.9
326.175	46.42
326.388	52.56
326.601	79.19
326.814	62.8
327.027	52.56
327.24	83.28
327.453	-10.92
327.666	50.52
327.879	36.18
328.092	25.94
328.305	19.8
328.518	-47.79
328.731	38.23
328.944	42.32
329.157	27.99
329.37	60.76
329.583	40.28
329.796	32.08
330.009	-2.73
330.222	19.8
330.435	87.38
330.648	103.76
330.861	9.56
331.073	13.65
331.286	9.56
331.499	32.08
331.712	97.62
331.925	13.65
332.138	34.13
332.35	95.57
332.563	23.89
332.776	103.76
332.989	13.65
333.202	48.47
333.414	34.13
333.627	1.37
333.84	46.42
334.053	38.23
334.265	71
334.478	103.76
334.691	11.61
334.903	75.09
335.116	73.04
335.329	-19.11
335.541	73.04
335.754	97.62
335.966	23.89
336.179	46.42
336.392	32.08
336.604	5.46
336.817	46.42
337.029	13.65
337.242	34.13
337.454	99.67
337.667	77.14
337.88	99.67
338.092	54.61
338.305	44.37
338.517	62.8
338.729	116.05
338.942	32.08
339.154	32.08
339.367	52.56
339.579	42.32
339.792	-23.21
340.004	54.61
340.217	27.99
340.429	103.76
340.641	32.08
340.854	81.24
341.066	42.32
341.278	148.82
341.491	128.34
341.703	54.61
341.915	36.18
342.128	25.94
342.34	73.04
342.552	1.37
342.764	38.23
342.977	48.47
343.189	38.23
343.401	132.44
343.613	7.51
343.826	64.85
344.038	66.9
344.25	48.47
344.462	-17.07
344.674	71
344.886	30.04
345.099	68.95
345.311	-29.35
345.523	-2.73
345.735	81.24
345.947	54.61
346.159	60.76
346.371	71
346.583	42.32
346.795	114
347.007	9.56
347.219	91.48
347.431	-23.21
347.643	144.72
347.855	40.28
348.067	83.28
348.279	21.85
348.491	66.9
348.703	50.52
348.915	-0.68
349.127	60.76
349.339	128.34
349.551	62.8
349.763	99.67
349.975	-17.07
350.187	99.67
350.399	25.94
350.61	105.81
350.822	75.09
351.034	56.66
351.246	71
351.458	-27.31
351.669	42.32
351.881	79.19
352.093	93.52
352.305	101.72
352.517	89.43
352.728	15.7
352.94	77.14
353.152	81.24
353.363	25.94
353.575	71
353.787	146.77
353.999	81.24
354.21	32.08
354.422	93.52
354.633	87.38
354.845	50.52
355.057	87.38
355.268	5.46
355.48	62.8
355.692	30.04
355.903	79.19
356.115	1.37
356.326	27.99
356.538	142.68
356.749	79.19
356.961	81.24
357.172	75.09
357.384	23.89
357.595	87.38
357.807	5.46
358.018	91.48
358.23	13.65
358.441	68.95
358.653	58.71
358.864	-43.69
359.075	66.9
359.287	56.66
359.498	101.72
359.709	81.24
359.921	-19.11
360.132	109.91
360.344	36.18
360.555	42.32
360.766	75.09
360.977	32.08
361.189	103.76
361.4	42.32
361.611	54.61
361.823	54.61
362.034	103.76
362.245	-33.45
362.456	114
362.667	-47.79
362.879	11.61
363.09	42.32
363.301	114
363.512	44.37
363.723	38.23
363.935	52.56
364.146	140.63
364.357	19.8
364.568	25.94
364.779	17.75
364.99	64.85
365.201	87.38
365.412	48.47
365.623	32.08
365.834	85.33
366.045	36.18
366.256	40.28
366.467	13.65
366.678	154.96
366.889	122.2
367.1	83.28
367.311	64.85
367.522	25.94
367.733	58.71
367.944	46.42
368.155	48.47
368.366	79.19
368.577	38.23
368.788	103.76
368.999	-45.74
369.209	11.61
369.42	99.67
369.631	120.15
369.842	66.9
370.053	44.37
370.264	21.85
370.474	40.28
370.685	111.96
370.896	5.46
371.107	58.71
371.317	103.76
371.528	-43.69
371.739	91.48
371.95	17.75
372.16	120.15
372.371	32.08
372.582	87.38
372.792	91.48
373.003	56.66
373.214	1.37
373.424	169.3
373.635	44.37
373.846	93.52
374.056	87.38
374.267	-2.73
374.477	68.95
374.688	89.43
374.898	89.43
375.109	30.04
375.319	7.51
375.53	87.38
375.74	52.56
375.951	30.04
376.161	120.15
376.372	60.76
376.582	66.9
376.793	114
377.003	17.75
377.214	64.85
377.424	58.71
377.635	140.63
377.845	-23.21
378.055	105.81
378.266	13.65
378.476	54.61
378.686	-2.73
378.897	38.23
379.107	73.04
379.317	89.43
379.528	13.65
379.738	54.61
379.948	36.18
380.158	85.33
380.369	66.9
380.579	50.52
380.789	89.43
380.999	107.86
381.21	66.9
381.42	64.85
381.63	97.62
381.84	68.95
382.05	38.23
382.261	89.43
382.471	66.9
382.681	109.91
382.891	111.96
383.101	21.85
383.311	38.23
383.521	101.72
383.731	114
383.941	103.76
384.151	46.42
384.361	85.33
384.571	50.52
384.781	75.09
384.991	138.58
385.201	140.63
385.411	73.04
385.621	58.71
385.831	48.47
386.041	126.29
386.251	73.04
386.461	175.44
386.671	25.94
386.881	85.33
387.091	34.13
387.301	130.39
387.511	13.65
387.72	75.09
387.93	25.94
388.14	27.99
388.35	60.76
388.56	165.2
388.769	165.2
388.979	87.38
389.189	34.13
389.399	91.48
389.609	73.04
389.818	124.24
390.028	103.76
390.238	132.44
390.447	48.47
390.657	17.75
390.867	83.28
391.076	62.8
391.286	103.76
391.496	50.52
391.705	46.42
391.915	73.04
392.125	93.52
392.334	7.51
392.544	79.19
392.753	136.53
392.963	111.96
393.172	144.72
393.382	103.76
393.591	146.77
393.801	89.43
394.01	91.48
394.22	111.96
394.429	111.96
394.639	62.8
394.848	120.15
395.058	130.39
395.267	107.86
395.477	60.76
395.686	58.71
395.895	165.2
396.105	99.67
396.314	142.68
396.524	204.11
396.733	126.29
396.942	152.91
397.152	62.8
397.361	154.96
397.57	136.53
397.78	122.2
397.989	132.44
398.198	138.58
398.407	206.16
398.617	103.76
398.826	154.96
399.035	64.85
399.244	116.05
399.453	195.92
399.663	138.58
399.872	238.93
400.081	81.24
400.29	79.19
400.499	187.73
400.708	91.48
400.917	99.67
401.127	142.68
401.336	114
401.545	132.44
401.754	167.25
401.963	157.01
402.172	128.34
402.381	124.24
402.59	171.35
402.799	120.15
403.008	212.31
403.217	234.83
403.426	171.35
403.635	189.78
403.844	109.91
404.053	230.74
404.262	144.72
404.471	185.68
404.68	191.83
404.888	202.07
405.097	197.97
405.306	183.63
405.515	275.79
405.724	202.07
405.933	202.07
406.142	279.89
406.35	326.99
406.559	255.31
406.768	216.4
406.977	292.18
407.185	271.7
407.394	218.45
407.603	226.64
407.812	243.03
408.02	259.41
408.229	286.03
408.438	359.76
408.646	370
408.855	312.66
409.064	380.24
409.272	413.01
409.481	384.34
409.69	374.1
409.898	378.19
410.107	443.73
410.315	480.59
410.524	419.15
410.733	546.12
410.941	437.58
411.15	513.36
411.358	539.98
411.567	560.46
411.775	517.45
411.984	595.28
412.192	619.85
412.401	619.85
412.609	652.62
412.818	728.39
413.026	728.39
413.234	732.49
413.443	755.02
413.651	697.67
413.86	732.49
414.068	888.14
414.276	793.93
414.485	892.23
414.693	894.28
414.901	1060.17
415.11	1037.64
415.318	857.42
415.526	1029.45
415.734	1088.84
415.943	1197.38
416.151	1131.84
416.359	1107.27
416.567	1224
416.776	1262.91
416.984	1330.5
417.192	1387.84
417.4	1369.41
417.608	1361.22
417.817	1430.85
418.025	1500.48
418.233	1606.97
418.441	1590.59
418.649	1652.03
418.857	1807.67
419.065	1791.29
419.273	1834.3
419.481	1924.41
419.689	1924.41
419.897	2057.53
420.105	2143.54
420.313	2159.92
420.521	2288.95
420.729	2338.1
420.937	2280.75
421.145	2553.13
421.353	2592.05
421.561	2786.6
421.769	2649.39
421.977	2848.04
422.185	2895.15
422.393	3101.99
422.601	3200.29
422.809	3294.5
423.017	3226.92
423.224	3450.14
423.432	3411.23
423.64	3650.85
423.848	3927.32
424.056	3777.82
424.263	4150.55
424.471	4117.78
424.679	4232.47
424.887	4400.4
425.094	4453.65
425.302	4664.59
425.51	4621.58
425.718	4840.72
425.925	4900.11
426.133	5174.53
426.341	5489.92
426.548	5475.59
426.756	5563.65
426.964	5653.76
427.171	5924.09
427.379	6196.47
427.586	6190.33
427.794	6407.41
428.001	6694.13
428.209	6853.87
428.417	6923.5
428.624	7363.81
428.832	7398.63
429.039	7265.51
429.247	7468.26
429.454	7974.11
429.662	8414.42
429.869	7935.2
430.076	8492.24
430.284	8430.8
430.491	8727.76
430.699	9174.22
430.906	9252.04
431.114	9376.97
431.321	9518.28
431.528	9835.71
431.736	10339.51
431.943	10861.74
432.15	10556.6
432.358	10699.95
432.565	11187.37
432.772	11355.3
432.979	11719.84
433.187	12086.43
433.394	12127.39
433.601	13030.54
433.808	12958.86
434.016	12969.1
434.223	13298.83
434.43	14136.45
434.637	13845.63
434.844	14814.32
435.052	15289.45
435.259	14875.76
435.466	15195.25
435.673	15127.66
435.88	16135.26
436.087	16817.24
436.294	16995.41
436.501	16274.52
436.708	16862.29
436.915	17405
437.122	18062.4
437.329	17937.48
437.537	18453.56
437.743	18779.19
437.95	18732.09
438.157	19635.24
438.364	20335.65
438.571	20268.06
438.778	20560.92
438.985	22426.62
439.192	21443.6
439.399	21935.11
439.606	21699.59
439.813	22756.35
440.02	24288.23
440.227	23823.34
440.433	23589.87
440.64	24341.47
440.847	23888.87
441.054	24869.85
441.261	26401.73
441.467	25973.7
441.674	26676.16
441.881	27550.64
442.088	27286.45
442.294	27366.32
442.501	27894.7
442.708	28511.14
442.914	29651.86
443.121	30411.65
443.328	29854.61
443.534	31834.99
443.741	30845.82
443.948	30643.07
444.154	33256.28
444.361	32656.23
444.568	32873.31
444.774	32832.35
444.981	33491.8
445.187	33964.88
445.394	35633.97
445.6	35083.07
445.807	38826.76
446.013	36922.15
446.22	37581.59
446.426	38710.02
446.633	39367.42
446.839	40631.02
447.046	38935.3
447.252	40688.36
447.459	40921.83
447.665	40659.69
447.871	42486.48
448.078	44231.35
448.284	42040.02
448.491	43311.81
448.697	44608.17
448.903	45697.69
449.11	45664.92
449.316	44749.48
449.522	45453.98
449.728	46838.41
449.935	47016.58
450.141	46576.27
450.347	47729.28
450.553	47045.26
450.76	46740.11
450.966	48568.94
451.172	47727.23
451.378	48820.84
451.584	48081.53
451.791	48874.09
451.997	48892.52
452.203	50106.97
452.409	49764.96
452.615	49056.36
452.821	46934.67
453.027	47172.23
453.233	49158.76
453.44	46961.29
453.646	47934.07
453.852	47907.45
454.058	48917.1
454.264	46897.8
454.47	48269.94
454.676	46961.29
454.882	48364.15
455.088	44313.27
455.294	44841.64
455.5	45736.6
455.705	46242.45
455.911	44157.62
456.117	43168.45
456.323	42646.22
456.529	40313.58
456.735	42083.03
456.941	41061.09
457.147	40428.27
457.352	38916.87
457.558	38263.57
457.764	38568.71
457.97	37892.88
458.176	37018.4
458.381	37485.34
458.587	35326.78
458.793	35375.93
458.999	33602.39
459.204	36287.28
459.41	34681.67
459.616	32650.08
459.821	32668.51
460.027	32473.96
460.233	31394.68
460.438	30342.02
460.644	30985.08
460.85	29383.57
461.055	28799.9
461.261	28838.81
461.466	26481.6
461.672	26018.76
461.878	27456.43
462.083	25674.7
462.289	25598.93
462.494	25242.58
462.7	24169.44
462.905	23262.19
463.111	24343.52
463.316	24153.06
463.522	23880.68
463.727	23829.48
463.932	23811.05
464.138	23505.9
464.343	23520.24
464.549	22803.45
464.754	23968.74
464.959	23372.78
465.165	23360.5
465.37	22326.27
465.575	21634.06
465.781	22780.92
465.986	22995.96
466.191	21675.02
466.397	21484.56
466.602	20603.93
466.807	21163.03
467.012	21302.29
467.218	20921.37
467.423	20993.04
467.628	20861.97
467.833	21986.31
468.038	21152.79
468.244	20651.03
468.449	21298.19
468.654	20614.17
468.859	20575.26
469.064	20378.65
469.269	19584.04
469.474	19780.65
469.679	20046.88
469.885	19301.42
470.09	19911.72
470.295	19600.43
470.5	19188.78
470.705	19223.6
470.91	18822.2
471.115	18523.19
471.32	18865.21
471.525	18873.4
471.73	18375.74
471.935	18060.35
472.139	17689.67
472.344	17998.91
472.549	17699.91
472.754	17650.76
472.959	17079.38
473.164	16577.62
473.369	16745.56
473.574	17079.38
473.778	17089.62
473.983	16936.02
474.188	16952.4
474.393	16018.53
474.598	16106.59
474.802	15903.84
475.007	15846.5
475.212	15909.99
475.417	15221.87
475.621	15160.43
475.826	15172.72
476.031	14929.01
476.235	14761.08
476.44	15027.31
476.645	14738.55
476.849	14539.9
477.054	14734.45
477.259	14566.52
477.463	14251.13
477.668	13960.32
477.872	13929.6
478.077	13872.26
478.282	13354.12
478.486	13495.43
478.691	13526.15
478.895	13448.33
479.1	13329.55
479.304	13182.09
479.509	12887.18
479.713	13243.53
479.918	12936.34
480.122	12579.99
480.326	12797.07
480.531	12825.75
480.735	12739.73
480.94	12575.89
481.144	12838.03
481.348	12436.63
481.553	12565.65
481.757	12379.29
481.961	12285.08
482.166	12539.03
482.37	12502.17
482.574	12283.03
482.778	12283.03
482.983	12471.45
483.187	12367
483.391	12645.52
483.595	12223.64
483.8	12481.69
484.004	12326.04
484.208	12444.82
484.412	12231.83
484.616	12631.19
484.821	12385.43
485.025	12211.35
485.229	12672.15
485.433	12246.17
485.637	12303.51
485.841	12102.81
486.045	12000.41
486.249	12350.62
486.453	12192.92
486.657	12223.64
486.861	12295.32
487.065	12147.87
487.269	12248.22
487.473	12123.29
487.677	12262.55
487.881	12477.59
488.085	12328.09
488.289	12237.98
488.493	12305.56
488.697	12625.04
488.901	12444.82
489.105	12412.06
489.309	12530.84
489.512	12420.25
489.716	12307.61
489.92	12407.96
490.124	12352.66
490.328	12811.41
490.531	12485.78
490.735	12784.79
490.939	12702.87
491.143	12709.01
491.346	12674.2
491.55	12702.87
491.754	13016.21
491.958	12924.05
492.161	13108.37
492.365	12762.26
492.569	12893.33
492.772	12901.52
492.976	13130.89
493.18	13028.49
493.383	13395.08
493.587	13511.82
493.79	13425.8
493.994	13489.29
494.197	13665.41
494.401	13751.43
494.605	13907.07
494.808	13687.94
495.012	14144.64
495.215	13868.16
495.419	14191.74
495.622	14130.3
495.825	14341.24
496.029	14310.52
496.232	14804.08
496.436	14810.23
496.639	15025.26
496.843	14922.87
497.046	15344.75
497.249	15271.02
497.453	15764.58
497.656	15598.7
497.859	15703.14
498.063	15903.84
498.266	16149.6
498.469	16237.66
498.673	16426.07
498.876	16346.2
499.079	16833.62
499.282	16553.05
499.485	17292.37
499.689	17077.33
499.892	17478.73
500.095	17445.96
500.298	17873.99
500.501	17939.52
500.705	18318.4
500.908	18476.09
501.111	18736.18
501.314	18781.24
501.517	18836.53
501.72	19358.77
501.923	19377.2
502.126	19645.48
502.329	19819.56
502.532	19825.7
502.735	20190.24
502.938	20468.76
503.141	20610.07
503.344	21218.32
503.547	20966.42
503.75	21502.99
503.953	21566.48
504.156	22021.13
504.359	21861.38
504.562	22092.8
504.765	22668.28
504.968	22928.38
505.17	23034.87
505.373	23004.15
505.576	23624.68
505.779	24140.77
505.982	23874.54
506.185	24413.15
506.387	24515.55
506.59	24620
506.793	25146.33
506.996	25191.38
507.198	25826.25
507.401	25437.14
507.604	26188.74
507.807	26319.81
508.009	26471.36
508.212	26944.44
508.415	27114.42
508.617	27556.78
508.82	27845.55
509.022	27544.5
509.225	28175.27
509.428	28332.97
509.63	28652.45
509.833	28736.41
510.035	29606.8
510.238	29393.81
510.44	29920.14
510.643	30086.03
510.845	30989.18
511.048	30284.68
511.25	30940.03
511.453	31198.07
511.655	32234.35
511.858	31642.48
512.06	31865.71
512.262	32574.31
512.465	32344.94
512.667	32820.06
512.87	33139.55
513.072	33313.62
513.274	34337.61
513.477	34503.49
513.679	34790.21
513.881	35023.68
514.084	35343.16
514.286	35253.05
514.488	35668.79
514.69	36240.17
514.893	36610.85
515.095	36457.26
515.297	37137.18
515.499	36961.06
515.701	37698.33
515.904	38306.57
516.106	38245.13
516.308	38699.78
516.51	39357.18
516.712	38890.24
516.914	39514.87
517.116	40364.78
517.318	40446.7
517.52	40680.17
517.722	40778.47
517.925	41405.15
518.127	41734.87
518.329	42349.26
518.531	42123.99
518.733	42488.52
518.935	43137.73
519.136	43414.21
519.338	44087.99
519.54	43944.63
519.742	44622.51
519.944	44618.41
520.146	45087.4
520.348	45240.99
520.55	45435.55
520.752	46051.99
520.954	46502.54
521.155	46328.47
521.357	47032.97
521.559	47272.58
521.761	48188.02
521.963	47942.27
522.164	48118.39
522.366	48343.67
522.568	48616.05
522.77	49212.01
522.971	49883.74
523.173	49416.8
523.375	49984.09
523.576	49990.23
523.778	50244.18
523.98	51159.62
524.181	51040.84
524.383	50981.45
524.584	51219.02
524.786	52060.73
524.988	51454.53
525.189	52406.84
525.391	52564.53
525.592	52177.47
525.794	53119.53
525.995	52896.3
526.197	52625.97
526.398	53135.91
526.6	53242.41
526.801	54233.63
527.003	53946.91
527.204	54202.91
527.406	54651.41
527.607	54776.34
527.808	55167.5
528.01	54219.29
528.211	54628.88
528.412	55595.52
528.614	55781.89
528.815	55527.94
529.016	55716.36
529.218	55382.54
529.419	55478.79
529.62	55810.56
529.822	55716.36
530.023	55855.62
530.224	56089.09
530.425	56187.39
530.626	55783.94
530.828	55712.26
531.029	57086.45
531.23	56486.39
531.431	56855.03
531.632	56488.44
531.833	57225.71
532.035	56818.16
532.236	56793.59
532.437	56926.7
532.638	56674.8
532.839	57186.8
533.04	57209.32
533.241	56590.84
533.442	57854.43
533.643	56998.38
533.844	57324.01
534.045	57403.88
534.246	56914.42
534.447	57477.61
534.648	57016.82
534.849	57569.77
535.05	56965.62
535.251	57377.26
535.451	57373.16
535.652	57485.8
535.853	57090.54
536.054	57592.29
536.255	57627.11
536.456	57256.43
536.657	58108.38
536.857	57717.22
537.058	57356.78
537.259	58028.51
537.46	57706.98
537.66	57682.41
537.861	57657.83
538.062	57432.55
538.263	57903.59
538.463	57414.12
538.664	57741.8
538.865	57557.48
539.065	57948.64
539.266	57426.41
539.466	58005.98
539.667	56664.56
539.868	58612.18
540.068	57641.45
540.269	57317.87
540.469	58077.66
540.67	57258.48
540.87	57395.69
541.071	57379.31
541.271	57356.78
541.472	57123.31
541.672	57068.01
541.873	57125.36
542.073	56529.4
542.274	58108.38
542.474	57133.55
542.675	57194.99
542.875	58057.18
543.075	57281
543.276	56748.53
543.476	57733.6
543.676	57133.55
543.877	57534.95
544.077	57420.27
544.277	56938.99
544.478	56963.57
544.678	57676.26
544.878	56805.87
545.078	57149.93
545.279	56812.02
545.479	57055.73
545.679	57190.89
545.879	57287.15
546.079	57108.97
546.28	56877.55
546.48	56730.1
546.68	57250.28
546.88	57506.28
547.08	56898.03
547.28	56689.14
547.48	56453.62
547.68	57029.1
547.88	56816.11
548.081	56912.37
548.281	57006.58
548.481	56695.28
548.681	57272.81
548.881	56949.23
549.081	56789.49
549.28	56326.65
549.48	56621.56
549.68	56709.62
549.88	57039.34
550.08	56658.42
550.28	56877.55
550.48	56900.08
550.68	56953.33
550.88	56412.66
551.08	56617.46
551.279	56701.43
551.479	56551.93
551.679	56691.19
551.879	56453.62
552.079	56750.58
552.278	56365.56
552.478	56322.55
552.678	56318.46
552.878	57043.44
553.077	56574.45
553.277	56306.17
553.477	56904.18
553.676	56211.96
553.876	56437.24
554.076	56273.4
554.275	55820.8
554.475	55788.03
554.674	56044.03
554.874	56177.15
555.074	56076.8
555.273	55982.59
555.473	56265.21
555.672	55863.81
555.872	56068.61
556.071	55812.61
556.271	56220.16
556.47	55605.76
556.67	55529.99
556.869	55751.17
557.068	55835.14
557.268	55183.88
557.467	55347.72
557.667	55845.38
557.866	55712.26
558.065	55480.84
558.265	54893.07
558.464	55304.71
558.663	55933.44
558.863	54288.92
559.062	55396.87
559.261	54641.17
559.461	55470.6
559.66	54417.94
559.859	54735.38
560.058	54641.17
560.258	55015.95
560.457	54487.57
560.656	54880.78
560.855	54096.41
561.054	54716.95
561.253	54422.04
561.453	54340.12
561.652	54325.78
561.851	54438.42
562.05	54043.16
562.249	53819.94
562.448	54131.23
562.647	53404.2
562.846	53893.66
563.045	53778.98
563.244	53217.83
563.443	53928.48
563.642	52937.26
563.841	53389.86
564.04	52783.66
564.239	53652
564.438	52791.86
564.637	52998.7
564.836	53023.28
565.035	52343.35
565.234	52636.21
565.432	52773.42
565.631	52318.77
565.83	52894.25
566.029	52171.32
566.228	52415.03
566.427	52224.57
566.625	51841.6
566.824	51288.65
567.023	51800.64
567.222	51133
567.42	51778.11
567.619	51685.95
567.818	51096.14
568.016	51999.29
568.215	51751.49
568.414	50895.44
568.612	51655.23
568.811	50793.04
569.01	51059.27
569.208	49936.99
569.407	50883.15
569.605	50178.65
569.804	50555.47
570.002	50084.44
570.201	50645.58
570.4	50223.7
570.598	49771.1
570.797	49717.85
570.995	50186.84
571.193	48781.93
571.392	50147.93
571.59	49189.48
571.789	49326.69
571.987	48773.74
572.186	49027.69
572.384	48689.77
572.582	49117.8
572.781	48624.24
572.979	48409.2
573.177	48523.89
573.376	49019.5
573.574	48130.68
573.772	48745.07
573.971	47852.16
574.169	47696.51
574.367	47624.83
574.565	48005.75
574.763	47651.45
574.962	47874.68
575.16	46770.83
575.358	47180.42
575.556	46918.28
575.754	47450.75
575.952	46776.97
576.151	47147.65
576.349	46656.14
576.547	46451.34
576.745	46873.23
576.943	46312.08
577.141	46142.1
577.339	46369.43
577.537	46160.53
577.735	46185.11
577.933	45906.58
578.131	46271.12
578.329	45765.27
578.527	45357.73
578.725	45484.7
578.923	45640.35
579.121	45122.21
579.319	45019.81
579.516	45343.39
579.714	45220.52
579.912	45019.81
580.11	44714.67
580.308	44739.24
580.506	44759.72
580.704	43680.44
580.901	44772.01
581.099	44483.25
581.297	43760.31
581.495	43797.18
581.692	44309.17
581.89	43418.3
582.088	43987.64
582.285	43649.72
582.483	43805.37
582.681	43553.47
582.878	43354.82
583.076	42762.95
583.274	43401.92
583.471	42789.58
583.669	42883.78
583.866	42695.37
584.064	43180.74
584.262	42040.02
584.459	42701.51
584.657	42160.85
584.854	42410.7
585.052	41970.39
585.249	42183.38
585.447	42078.93
585.644	41962.2
585.841	41806.55
586.039	41972.44
586.236	41351.9
586.434	41294.56
586.631	41171.68
586.828	41499.36
587.026	41186.02
587.223	41226.98
587.42	41243.36
587.618	40772.33
587.815	40377.07
588.012	40325.87
588.21	40827.62
588.407	40442.6
588.604	40135.41
588.801	39928.56
588.999	40063.73
589.196	39611.13
589.393	39852.79
589.59	39492.35
589.787	39676.66
589.984	39449.34
590.182	39072.51
590.379	39295.74
590.576	38925.06
590.773	39525.11
590.97	38652.68
591.167	38959.87
591.364	38214.41
591.561	38632.2
591.758	38255.37
591.955	38345.48
592.152	38759.17
592.349	38136.59
592.546	38292.24
592.743	38124.3
592.94	37481.24
593.137	38257.42
593.334	38062.86
593.531	37331.74
593.727	37327.64
593.924	37659.41
594.121	37126.94
594.318	37501.72
594.515	36776.74
594.712	37215.01
594.908	36700.97
595.105	36789.03
595.302	36412.2
595.499	36936.48
595.696	36369.19
595.892	36457.26
596.089	36535.08
596.286	36617
596.482	36049.71
596.679	36440.87
596.876	36031.28
597.072	35601.21
597.269	35808.05
597.466	35527.48
597.662	35267.39
597.859	35498.81
598.055	35011.39
598.252	35089.21
598.448	34956.1
598.645	34929.47
598.841	34691.91
599.038	34880.32
599.234	34730.82
599.431	34593.61
599.627	34351.95
599.824	34544.45
600.02	34263.88
600.217	34118.48
600.413	33991.5
600.609	34057.04
600.806	33659.73
601.002	33794.9
601.198	33475.41
601.395	33231.71
601.591	33315.67
601.787	33696.6
601.984	33387.35
602.18	33313.62
602.376	33039.2
602.572	33186.65
602.769	32842.59
602.965	32353.13
603.161	32942.94
603.357	32648.04
603.553	32412.52
603.75	32697.19
603.946	32226.15
604.142	32191.34
604.338	31669.11
604.534	31925.1
604.73	32084.84
604.926	31611.76
605.122	32002.92
605.318	31650.67
605.514	31693.68
605.71	31273.85
605.906	31615.86
606.102	31396.73
606.298	31138.68
606.494	31112.06
606.69	31415.16
606.886	31103.87
607.082	30761.86
607.278	30833.53
607.474	30661.51
607.67	30806.91
607.866	30174.09
608.062	30858.11
608.257	30329.73
608.453	30544.77
608.649	30258.06
608.845	30219.14
609.041	30534.53
609.236	30129.03
609.432	29977.48
609.628	29961.1
609.824	29866.89
610.019	29658
610.215	30077.83
610.411	29862.8
610.606	29778.83
610.802	29522.83
610.998	29729.68
611.193	29879.18
611.389	29518.74
611.584	29236.12
611.78	29412.24
611.976	29641.62
612.171	29105.05
612.367	28849.05
612.562	29211.54
612.758	28922.78
612.953	28605.34
613.149	29322.13
613.344	28638.11
613.539	29162.39
613.735	29004.7
613.93	28832.67
614.126	28470.18
614.321	28978.08
614.517	28789.66
614.712	28410.79
614.907	28480.42
615.103	28674.98
615.298	28101.54
615.493	28638.11
615.688	27898.8
615.884	28650.4
616.079	27706.29
616.274	28294.05
616.47	28144.55
616.665	28058.54
616.86	27599.79
617.055	27810.73
617.25	27902.89
617.445	27968.43
617.641	27427.76
617.836	27720.62
618.031	27347.89
618.226	27308.98
618.421	27055.03
618.616	27325.36
618.811	27028.41
619.006	27175.86
619.201	26678.21
619.396	27081.66
619.591	26469.31
619.786	26735.55
619.981	26309.57
620.176	26514.37
620.371	26155.97
620.566	26061.77
620.761	26178.5
620.956	26315.72
621.151	25758.67
621.346	25951.18
621.541	25566.16
621.735	25551.82
621.93	25445.33
622.125	25244.63
622.32	25054.17
622.515	25097.17
622.709	24884.19
622.904	24904.67
623.099	24628.19
623.294	24454.11
623.488	24298.47
623.683	24609.76
623.878	24140.77
624.072	24339.43
624.267	23933.93
624.462	24179.68
624.656	23636.97
624.851	23571.44
625.046	23444.46
625.24	23376.88
625.435	22914.04
625.629	23223.28
625.824	22653.95
626.018	22909.94
626.213	22418.43
626.407	22703.1
626.602	22303.74
626.796	22352.9
626.991	22270.98
627.185	22475.77
627.38	21990.41
627.574	21859.34
627.768	21486.61
627.963	21707.79
628.157	21369.87
628.352	21685.26
628.546	21253.14
628.74	21402.64
628.935	20761.62
629.129	21070.87
629.323	20653.08
629.517	20798.49
629.712	20556.83
629.906	20890.65
630.1	20419.61
630.294	20284.45
630.489	20483.1
630.683	20171.81
630.877	19768.36
631.071	19723.3
631.265	20014.12
631.459	19551.27
631.653	19371.05
631.848	19817.51
632.042	19416.11
632.236	19309.61
632.43	19047.47
632.624	19184.69
632.818	19137.59
633.012	18861.11
633.206	18766.9
633.4	18787.38
633.594	18623.55
633.788	18492.48
633.982	18545.72
634.176	18281.53
634.369	18091.07
634.563	18076.74
634.757	17978.43
634.951	18019.39
635.145	18129.98
635.339	17738.82
635.533	17720.39
635.726	17546.31
635.92	17396.81
636.114	17538.12
636.308	17501.26
636.501	17445.96
636.695	17083.47
636.889	16893.01
637.083	16839.76
637.276	16643.16
637.47	16813.14
637.664	16749.65
637.857	16718.93
638.051	16569.43
638.244	16555.1
638.438	16389.21
638.632	16438.36
638.825	16151.65
639.019	15860.84
639.212	16104.54
639.406	15858.79
639.599	15996
639.793	15715.43
639.986	15615.08
640.18	15682.66
640.373	15461.48
640.567	15230.06
640.76	15090.8
640.954	15258.73
641.147	14978.16
641.34	15101.04
641.534	15068.27
641.727	14707.83
641.92	14756.98
642.114	14533.75
642.307	14685.3
642.5	14740.6
642.694	14363.77
642.887	14177.4
643.08	14464.12
643.273	14290.04
643.467	14161.02
643.66	14062.72
643.853	13927.55
644.046	13902.98
644.239	14001.28
644.432	13741.19
644.626	13593.73
644.819	13884.55
645.012	13792.39
645.205	13454.47
645.398	13165.71
645.591	13399.18
645.784	13292.68
645.977	13325.45
646.17	13151.37
646.363	12889.23
646.556	12782.74
646.749	12688.53
646.942	12954.77
647.135	12729.49
647.328	12872.85
647.521	12639.38
647.714	12606.61
647.907	12414.1
648.099	12401.82
648.292	12432.54
648.485	12328.09
648.678	12342.42
648.871	12231.83
649.064	12143.77
649.256	12072.09
649.449	11938.98
649.642	11918.5
649.835	11660.45
650.027	11601.06
650.22	11685.03
650.413	11617.44
650.605	11443.37
650.798	11410.6
650.991	11515.05
651.183	11611.3
651.376	11334.82
651.568	11238.57
651.761	11175.08
651.954	11291.82
652.146	11211.95
652.339	11132.08
652.531	11093.16
652.724	11033.77
652.916	10820.78
653.109	11033.77
653.301	10839.22
653.494	10615.99
653.686	10585.27
653.879	10591.41
654.071	10767.54
654.263	10497.21
654.456	10636.47
654.648	10579.12
654.84	10353.85
655.033	10273.98
655.225	10220.73
655.417	10087.61
655.61	10167.48
655.802	10378.42
655.994	10032.32
656.186	10030.27
656.379	9837.76
656.571	9938.11
656.763	9813.18
656.955	9612.48
657.148	9727.17
657.34	9751.74
657.532	9426.12
657.724	9712.83
657.916	9520.32
658.108	9432.26
658.3	9270.47
658.492	9432.26
658.684	9168.07
658.876	9348.29
659.068	9094.35
659.26	9223.37
659.452	9258.18
659.644	9123.02
659.836	8965.32
660.028	8994
660.22	8862.93
660.412	8776.91
660.604	8899.79
660.796	8791.25
660.988	8707.28
661.18	8901.84
661.372	8838.35
661.563	8594.64
661.755	8551.63
661.947	8502.48
662.139	8510.68
662.331	8393.94
662.522	8426.71
662.714	8479.96
662.906	8324.31
663.097	8283.35
663.289	8289.49
663.481	8240.34
663.673	8164.57
663.864	8021.21
664.056	7910.62
664.247	7890.14
664.439	7900.38
664.631	7992.54
664.822	7972.06
665.014	7714.02
665.205	7800.03
665.397	7750.88
665.588	7630.05
665.78	7840.99
665.971	7709.92
666.163	7720.16
666.354	7697.63
666.546	7505.12
666.737	7533.79
666.929	7748.83
667.12	7404.77
667.311	7451.88
667.503	7312.61
667.694	7527.65
667.885	7240.93
668.077	7427.3
668.268	7335.14
668.459	7202.02
668.651	7384.29
668.842	7062.76
669.033	7163.11
669.224	7167.21
669.416	6984.94
669.607	7220.46
669.798	7007.47
669.989	7163.11
670.18	7013.61
670.371	6923.5
670.563	6778.09
670.754	6954.22
670.945	6819.05
671.136	6759.66
671.327	6886.64
671.518	6909.16
671.709	6751.47
671.9	6730.99
672.091	6556.91
672.282	6823.15
672.473	6634.74
672.664	6690.03
672.855	6716.65
673.046	6597.87
673.237	6513.91
673.428	6530.29
673.619	6612.21
673.809	6558.96
674	6456.56
674.191	6493.43
674.382	6536.43
674.573	6571.25
674.764	6446.32
674.954	6587.63
675.145	6259.96
675.336	6249.72
675.527	6401.27
675.717	6247.67
675.908	6212.85
676.099	6444.27
676.289	6237.43
676.48	6124.79
676.671	6110.46
676.861	6184.18
677.052	6178.04
677.243	6132.98
677.433	6290.68
677.624	6118.65
677.814	6089.98
678.005	6120.7
678.195	6046.97
678.386	6042.87
678.576	5997.82
678.767	5940.47
678.957	5989.63
679.148	5940.47
679.338	5915.9
679.529	6104.31
679.719	5907.71
679.909	5915.9
680.1	5862.65
680.29	5999.87
680.481	5948.67
680.671	5879.04
680.861	5846.27
681.052	6006.01
681.242	5815.55
681.432	6030.59
681.622	5823.74
681.813	5833.98
682.003	5770.49
682.193	5897.47
682.383	5725.44
682.573	5805.31
682.764	5827.84
682.954	5752.06
683.144	5629.18
683.334	5555.46
683.524	5784.83
683.714	5713.15
683.904	5735.68
684.094	5696.77
684.284	5641.47
684.474	5661.95
684.664	5588.22
684.854	5645.57
685.044	5676.29
685.234	5580.03
685.424	5551.36
685.614	5485.83
685.804	5381.38
685.994	5463.3
686.184	5481.73
686.374	5434.63
686.564	5307.65
686.753	5463.3
686.943	5332.23
687.133	5352.71
687.323	5201.16
687.513	5412.1
687.702	5215.49
687.892	5217.54
688.082	5225.73
688.272	5283.08
688.461	5076.23
688.651	5213.45
688.841	5205.25
689.03	5365
689.22	5235.97
689.41	5072.14
689.599	5125.38
689.789	5170.44
689.979	5195.01
690.168	4973.83
690.358	4889.87
690.547	4990.22
690.737	5125.38
690.926	5027.08
691.116	4900.11
691.305	5127.43
691.495	5094.66
691.684	4812.04
691.874	4885.77
692.063	4803.85
692.252	4752.65
692.442	4865.29
692.631	4683.02
692.82	4717.84
693.01	4656.4
693.199	4785.42
693.388	4687.12
693.578	4683.02
693.767	4658.45
693.956	4707.6
694.146	4590.86
694.335	4644.11
694.524	4590.86
694.713	4654.35
694.902	4732.17
695.092	4527.38
695.281	4420.88
695.47	4517.14
695.659	4488.46
695.848	4510.99
696.037	4531.47
696.226	4504.85
696.415	4570.38
696.604	4455.7
696.793	4427.03
696.982	4523.28
697.171	4531.47
697.36	4490.51
697.549	4334.87
697.738	4349.2
697.927	4506.9
698.116	4443.41
698.305	4373.78
698.494	4396.31
698.683	4369.68
698.872	4412.69
699.061	4277.52
699.25	4257.04
699.438	4207.89
699.627	4285.72
699.816	4400.4
700.005	4177.17
700.193	4320.53
700.382	4347.15
700.571	4234.52
700.76	4244.76
700.948	4367.63
701.137	4273.43
701.326	4230.42
701.514	4166.93
701.703	4191.51
701.892	4191.51
702.08	4302.1
702.269	4298
702.457	4140.31
702.646	4154.65
702.834	4183.32
703.023	4185.37
703.212	4166.93
703.4	4230.42
703.589	4173.08
703.777	4287.76
703.965	4046.1
704.154	4074.78
704.342	4103.45
704.531	4031.77
704.719	3826.97
704.907	4195.61
705.096	4005.14
705.284	4015.38
705.472	4060.44
705.661	4031.77
705.849	4130.07
706.037	3935.51
706.226	3964.18
706.414	3976.47
706.602	4175.13
706.79	4076.82
706.979	4175.13
707.167	3990.81
707.355	4044.06
707.543	3931.42
707.731	4064.54
707.919	4037.91
708.107	3925.27
708.296	3994.9
708.484	4044.06
708.672	4074.78
708.86	3953.94
709.048	3974.42
709.236	4023.58
709.424	4056.34
709.612	3999
709.8	3833.11
709.988	3814.68
710.176	3990.81
710.364	3831.07
710.551	3843.35
710.739	3847.45
710.927	3853.59
711.115	3878.17
711.303	3976.47
711.491	3777.82
711.679	3904.79
711.866	3771.68
712.054	3929.37
712.242	3935.51
712.43	4056.34
712.617	3837.21
712.805	3826.97
712.993	3788.06
713.181	3747.1
713.368	3886.36
713.556	3796.25
713.744	3667.23
713.931	3996.95
714.119	3915.03
714.306	3929.37
714.494	3718.43
714.682	3767.58
714.869	3687.71
715.057	3861.79
715.244	3820.83
715.432	3806.49
715.619	3732.76
715.807	3777.82
715.994	3724.57
716.182	3892.51
716.369	3740.96
716.556	3865.88
716.744	3835.16
716.931	3765.53
717.119	3751.2
717.306	3743
717.493	3683.61
717.681	3835.16
717.868	3753.24
718.055	3771.68
718.242	3691.8
718.43	3726.62
718.617	3790.11
718.804	3714.33
718.991	3783.96
719.179	3745.05
719.366	3704.09
719.553	3708.19
719.74	3697.95
719.927	3761.44
720.114	3679.52
720.301	3704.09
720.488	3679.52
720.676	3562.78
720.863	3642.65
721.05	3759.39
721.237	3654.94
721.424	3636.51
721.611	3620.13
721.798	3700
721.985	3652.89
722.172	3675.42
722.358	3589.41
722.545	3749.15
722.732	3616.03
722.919	3747.1
723.106	3667.23
723.293	3540.26
723.48	3661.09
723.667	3564.83
723.853	3546.4
724.04	3622.17
724.227	3536.16
724.414	3476.77
724.6	3554.59
724.787	3552.54
724.974	3663.13
725.161	3573.02
725.347	3450.14
725.534	3570.97
725.72	3556.64
725.907	3546.4
726.094	3454.24
726.28	3427.62
726.467	3566.88
726.653	3540.26
726.84	3616.03
727.027	3364.13
727.213	3536.16
727.4	3431.71
727.586	3550.5
727.773	3470.62
727.959	3519.78
728.145	3544.35
728.332	3464.48
728.518	3398.95
728.705	3472.67
728.891	3423.52
729.077	3425.57
729.264	3327.27
729.45	3329.31
729.636	3423.52
729.823	3458.34
730.009	3474.72
730.195	3423.52
730.382	3341.6
730.568	3278.12
730.754	3224.87
730.94	3429.66
731.126	3355.94
731.313	3421.47
731.499	3433.76
731.685	3335.46
731.871	3349.79
732.057	3290.4
732.243	3298.59
732.429	3253.54
732.615	3218.72
732.801	3228.96
732.987	3374.37
733.173	3251.49
733.359	3366.18
733.545	3384.61
733.731	3220.77
733.917	3376.42
734.103	3267.88
734.289	3190.05
734.475	3183.91
734.661	3360.03
734.847	3267.88
735.033	3325.22
735.219	3216.68
735.404	3339.55
735.59	3261.73
735.776	3255.59
735.962	3249.44
736.148	3147.05
736.333	3208.48
736.519	3204.39
736.705	3159.33
736.89	3108.13
737.076	3159.33
737.262	3134.76
737.447	3112.23
737.633	3024.17
737.819	3188
738.004	3030.31
738.19	3153.19
738.375	2987.3
738.561	3171.62
738.747	3097.89
738.932	3163.43
739.118	3108.13
739.303	3005.74
739.489	3052.84
739.674	3048.74
739.859	3124.52
740.045	2975.02
740.23	2999.59
740.416	2995.5
740.601	2942.25
740.786	2854.19
740.972	3024.17
741.157	2858.28
741.342	2972.97
741.528	2958.63
741.713	2872.62
741.898	2880.81
742.084	2757.93
742.269	2905.39
742.454	2745.64
742.639	2841.9
742.824	2743.6
743.01	2823.47
743.195	2886.95
743.38	2843.95
743.565	2835.75
743.75	2733.36
743.935	2692.4
744.12	2792.75
744.305	2833.71
744.49	2671.92
744.675	2620.72
744.86	2731.31
745.045	2577.71
745.23	2702.64
745.415	2659.63
745.6	2600.24
745.785	2671.92
745.97	2559.28
746.155	2737.45
746.34	2637.1
746.525	2538.8
746.71	2587.95
746.895	2585.9
747.079	2454.83
747.264	2458.93
747.449	2553.13
747.634	2497.84
747.819	2393.39
748.003	2430.26
748.188	2370.87
748.373	2483.5
748.557	2438.45
748.742	2266.42
748.927	2366.77
749.111	2323.76
749.296	2397.49
749.481	2295.09
749.665	2286.9
749.85	2196.79
750.034	2282.8
750.219	2303.28
750.404	2305.33
750.588	2227.51
750.773	2196.79
750.957	2080.05
751.141	2153.78
751.326	2204.98
751.51	2110.77
751.695	2037.05
751.879	2116.92
752.064	2137.4
752.248	2030.9
752.432	2090.29
752.617	2032.95
752.801	2035
752.985	2000.18
753.17	2010.42
753.354	2004.28
753.538	1969.46
753.722	1916.22
753.907	1959.22
754.091	1858.87
754.275	1832.25
754.459	1938.74
754.643	1781.05
754.828	1914.17
755.012	1774.91
755.196	1850.68
755.38	1754.43
755.564	1824.06
755.748	1781.05
755.932	1819.96
756.116	1774.91
756.3	1787.19
756.484	1819.96
756.668	1717.56
756.852	1723.71
757.036	1721.66
757.22	1750.33
757.404	1631.55
757.588	1680.7
757.772	1727.8
757.956	1639.74
758.14	1592.64
758.323	1604.92
758.507	1572.16
758.691	1568.06
758.875	1647.93
759.059	1621.31
759.242	1516.86
759.426	1514.81
759.61	1523.01
759.794	1574.21
759.977	1529.15
760.161	1588.54
760.345	1477.95
760.528	1611.07
760.712	1465.66
760.895	1492.29
761.079	1400.13
761.263	1428.8
761.446	1455.42
761.63	1396.03
761.813	1506.62
761.997	1410.37
762.18	1451.33
762.364	1418.56
762.547	1453.38
762.731	1402.18
762.914	1326.4
763.098	1420.61
763.281	1381.7
763.464	1400.13
763.648	1439.04
763.831	1373.5
764.015	1320.26
764.198	1428.8
764.381	1359.17
764.564	1336.64
764.748	1365.31
764.931	1342.78
765.114	1312.07
765.297	1348.93
765.481	1230.15
765.664	1348.93
765.847	1340.74
766.03	1297.73
766.213	1221.95
766.397	1250.63
766.58	1283.39
766.763	1301.83
766.946	1258.82
767.129	1307.97
767.312	1258.82
767.495	1219.91
767.678	1277.25
767.861	1205.57
768.044	1195.33
768.227	1168.71
768.41	1230.15
768.593	1209.67
768.776	1203.52
768.959	1195.33
769.142	1191.24
769.324	1166.66
769.507	1224
769.69	1162.56
769.873	1142.08
770.056	1185.09
770.239	1162.56
770.421	1148.23
770.604	1187.14
770.787	1103.17
770.97	1201.47
771.152	988.49
771.335	1094.98
771.518	1133.89
771.7	1129.8
771.883	1097.03
772.066	1021.25
772.248	1084.74
772.431	1144.13
772.613	1117.51
772.796	1064.26
772.978	1006.92
773.161	978.25
773.343	1041.73
773.526	1031.49
773.708	1094.98
773.891	1031.49
774.073	920.9
774.256	1080.64
774.438	1074.5
774.621	986.44
774.803	955.72
774.985	1006.92
775.168	1025.35
775.35	847.18
775.532	1049.93
775.715	935.24
775.897	939.34
776.079	869.7
776.261	953.67
776.444	959.81
776.626	902.47
776.808	804.17
776.99	861.51
777.173	847.18
777.355	851.27
777.537	957.77
777.719	902.47
777.901	890.18
778.083	767.31
778.265	822.6
778.447	853.32
778.629	812.36
778.811	826.7
778.993	761.16
779.175	871.75
779.357	734.54
779.539	771.4
779.721	789.83
779.903	818.5
780.085	703.82
780.267	830.79
780.449	712.01
780.631	779.59
780.812	755.02
780.994	775.5
781.176	689.48
781.358	658.76
781.54	687.43
781.721	793.93
781.903	687.43
782.085	712.01
782.267	746.83
782.448	621.9
782.63	697.67
782.812	738.63
782.993	726.35
783.175	636.24
783.357	677.19
783.538	703.82
783.72	685.39
783.901	636.24
784.083	621.9
784.264	652.62
784.446	619.85
784.627	529.74
784.809	599.37
784.99	601.42
785.172	607.56
785.353	636.24
785.535	652.62
785.716	562.51
785.897	527.69
786.079	550.22
786.26	505.17
786.441	513.36
786.623	572.75
786.804	546.12
786.985	521.55
787.167	515.41
787.348	560.46
787.529	562.51
787.71	548.17
787.891	603.47
788.073	578.89
788.254	521.55
788.435	517.45
788.616	589.13
788.797	464.21
788.978	427.34
789.159	464.21
789.34	496.97
789.522	453.97
789.703	464.21
789.884	433.49
790.065	550.22
790.246	488.78
790.427	476.49
790.607	523.6
790.788	488.78
790.969	507.21
791.15	398.67
791.331	472.4
791.512	421.2
791.693	427.34
791.874	447.82
792.054	484.69
792.235	396.62
792.416	388.43
792.597	378.19
792.778	382.29
792.958	388.43
793.139	390.48
793.32	380.24
793.5	443.73
793.681	499.02
793.862	415.05
794.042	480.59
794.223	357.71
794.404	419.15
794.584	357.71
794.765	417.1
794.945	326.99
795.126	380.24
795.306	437.58
795.487	392.53
795.667	425.29
795.848	415.05
796.028	427.34
796.209	316.75
796.389	394.58
796.57	339.28
796.75	386.38
796.93	271.7
797.111	308.56
797.291	318.8
797.471	427.34
797.652	320.85
797.832	329.04
798.012	378.19
798.192	370
798.373	316.75
798.553	349.52
798.733	288.08
798.913	259.41
799.093	318.8
799.274	312.66
799.454	365.9
799.634	331.09
799.814	335.18
799.994	288.08
800.174	308.56
800.354	347.47
800.534	251.22
800.714	337.23
800.894	208.21
801.074	306.51
801.254	255.31
801.434	326.99
801.614	292.18
801.794	273.75
801.974	818.5
802.154	314.7
802.334	367.95
802.514	279.89
802.693	302.42
802.873	275.79
803.053	384.34
803.233	273.75
803.413	257.36
803.592	302.42
803.772	304.46
803.952	263.51
804.131	228.69
804.311	308.56
804.491	308.56
804.67	234.83
804.85	271.7
805.03	304.46
805.209	300.37
805.389	257.36
805.568	267.6
805.748	222.55
805.928	251.22
806.107	247.12
806.287	283.98
806.466	222.55
806.646	232.79
806.825	263.51
807.004	230.74
807.184	200.02
807.363	226.64
807.543	220.5
807.722	228.69
807.901	333.14
808.081	204.11
808.26	173.39
808.439	279.89
808.619	265.55
808.798	214.35
808.977	243.03
809.156	339.28
809.336	228.69
809.515	296.27
809.694	263.51
809.873	195.92
810.052	234.83
810.231	318.8
810.411	245.07
810.59	294.22
810.769	247.12
810.948	290.13
811.127	157.01
811.306	167.25
811.485	218.45
811.664	218.45
811.843	312.66
812.022	200.02
812.201	275.79
812.38	253.27
812.559	120.15
812.737	173.39
812.916	154.96
813.095	177.49
813.274	226.64
813.453	245.07
813.632	202.07
813.811	189.78
813.989	189.78
814.168	202.07
814.347	136.53
814.526	185.68
814.704	197.97
814.883	189.78
815.062	157.01
815.24	169.3
815.419	189.78
815.598	204.11
815.776	81.24
815.955	173.39
816.133	66.9
816.312	142.68
816.49	152.91
816.669	150.87
816.847	150.87
817.026	181.59
817.204	197.97
817.383	95.57
817.561	130.39
817.74	103.76
817.918	193.87
818.097	185.68
818.275	181.59
818.453	165.2
818.632	171.35
818.81	216.4
818.988	181.59
819.167	212.31
819.345	230.74
819.523	152.91
819.701	206.16
819.879	128.34
820.058	212.31
820.236	157.01
820.414	157.01
820.592	177.49
820.77	91.48
820.948	177.49
821.127	220.5
821.305	150.87
821.483	152.91
821.661	175.44
821.839	169.3
822.017	157.01
822.195	173.39
822.373	148.82
822.551	179.54
822.729	154.96
822.907	173.39
823.085	126.29
823.262	87.38
823.44	48.47
823.618	144.72
823.796	171.35
823.974	83.28
824.152	157.01
824.329	83.28
824.507	124.24
824.685	81.24
824.863	146.77
825.04	157.01
825.218	161.11
825.396	91.48
825.574	77.14
825.751	130.39
825.929	99.67
826.107	126.29
826.284	150.87
826.462	114
826.639	25.94
826.817	136.53
826.994	140.63
827.172	101.72
827.349	206.16
827.527	54.61
827.704	109.91
827.882	138.58
828.059	134.48
828.237	83.28
828.414	189.78
828.591	81.24
828.769	169.3
828.946	34.13
829.124	87.38
829.301	114
829.478	118.1
829.655	132.44
829.833	105.81
830.01	56.66
830.187	181.59
830.364	109.91
830.542	77.14
830.719	163.15
830.896	83.28
831.073	95.57
831.25	66.9
831.427	93.52
831.604	130.39
831.782	124.24
831.959	150.87
832.136	64.85
832.313	107.86
832.49	93.52
832.667	83.28
832.844	54.61
833.021	189.78
833.198	107.86
833.374	126.29
833.551	3.41
833.728	128.34
833.905	169.3
834.082	77.14
834.259	212.31
834.436	140.63
834.612	89.43
834.789	118.1
834.966	50.52
835.143	58.71
835.319	62.8
835.496	124.24
835.673	21.85
835.85	157.01
836.026	116.05
836.203	154.96
836.38	114
836.556	81.24
836.733	73.04
836.909	136.53
837.086	71
837.262	48.47
837.439	71
837.616	120.15
837.792	79.19
837.968	79.19
838.145	-23.21
838.321	124.24
838.498	68.95
838.674	146.77
838.851	101.72
839.027	48.47
839.203	99.67
839.38	99.67
839.556	66.9
839.732	126.29
839.909	116.05
840.085	58.71
840.261	3.41
840.437	138.58
840.614	111.96
840.79	87.38
840.966	122.2
841.142	95.57
841.318	40.28
841.494	103.76
841.671	56.66
841.847	109.91
842.023	-31.4
842.199	50.52
842.375	103.76
842.551	-6.83
842.727	68.95
842.903	116.05
843.079	42.32
843.255	83.28
843.431	21.85
843.607	-15.02
843.783	83.28
843.959	5.46
844.134	52.56
844.31	50.52
844.486	30.04
844.662	68.95
844.838	50.52
845.013	5.46
845.189	124.24
845.365	54.61
845.541	21.85
845.716	52.56
845.892	91.48
846.068	19.8
846.244	32.08
846.419	128.34
846.595	15.7
846.77	21.85
846.946	60.76
847.122	71
847.297	27.99
847.473	114
847.648	116.05
847.824	66.9
847.999	9.56
848.175	23.89
848.35	60.76
848.526	91.48
848.701	64.85
848.876	97.62
849.052	42.32
849.227	97.62
849.403	46.42
849.578	107.86
849.753	103.76
849.929	66.9
850.104	66.9
850.279	50.52
850.454	93.52
850.63	38.23
850.805	5.46
850.98	-19.11
851.155	73.04
851.33	116.05
851.505	62.8
851.681	40.28
851.856	34.13
852.031	44.37
852.206	62.8
852.381	25.94
852.556	25.94
852.731	38.23
852.906	132.44
853.081	66.9
853.256	56.66
853.431	58.71
853.606	19.8
853.781	81.24
853.956	91.48
854.131	81.24
854.305	13.65
854.48	38.23
854.655	7.51
854.83	1.37
855.005	-49.83
855.18	17.75
855.354	32.08
855.529	68.95
855.704	11.61
855.879	83.28
856.053	-43.69
856.228	81.24
856.403	27.99
856.577	17.75
856.752	87.38
856.926	66.9
857.101	-10.92
857.276	-12.97
857.45	85.33
857.625	54.61
857.799	32.08
857.974	107.86
858.148	42.32
858.323	42.32
858.497	40.28
858.672	-49.83
858.846	21.85
859.02	-15.02
859.195	46.42
859.369	62.8
859.543	128.34
859.718	46.42
859.892	-55.98
860.066	11.61
860.241	81.24
860.415	95.57
860.589	50.52
860.763	48.47
860.938	1.37
861.112	40.28
861.286	25.94
861.46	71
861.634	-60.07
861.808	38.23
861.982	-72.36
862.157	58.71
862.331	7.51
862.505	1.37
862.679	-39.59
862.853	79.19
863.027	77.14
863.201	99.67
863.375	3.41
863.549	-6.83
863.722	30.04
863.896	93.52
864.07	-21.16
864.244	58.71
864.418	48.47
864.592	95.57
864.766	52.56
864.939	-27.31
865.113	-27.31
865.287	27.99
865.461	-33.45
865.634	56.66
865.808	7.51
865.982	-15.02
866.156	11.61
866.329	-41.64
866.503	1.37
866.676	83.28
866.85	-58.03
867.024	-41.64
867.197	120.15
867.371	-0.68
867.544	40.28
867.718	36.18
867.891	5.46
868.065	68.95
868.238	58.71
868.412	32.08
868.585	5.46
868.759	32.08
868.932	-17.07
869.105	73.04
869.279	-29.35
869.452	87.38
869.625	5.46
869.799	38.23
869.972	-15.02
870.145	17.75
870.319	83.28
870.492	-41.64
870.665	-2.73
870.838	-10.92
871.011	-12.97
871.185	30.04
871.358	-51.88
871.531	99.67
871.704	15.7
871.877	-23.21
872.05	66.9
872.223	73.04
872.396	-10.92
872.569	-6.83
872.742	-12.97
872.915	-23.21
873.088	-90.79
873.261	-10.92
873.434	1.37
873.607	-0.68
873.78	-39.59
873.953	-78.51
874.126	-15.02
874.299	54.61
874.471	56.66
874.644	34.13
874.817	36.18
874.99	1.37
875.163	9.56
875.335	21.85
875.508	19.8
875.681	36.18
875.853	58.71
876.026	58.71
876.199	-25.26
876.371	64.85
876.544	-60.07
876.717	48.47
876.889	-6.83
877.062	34.13
877.234	-31.4
877.407	-49.83
877.579	77.14
877.752	-15.02
877.924	9.56
878.097	50.52
878.269	25.94
878.442	-6.83
878.614	48.47
878.786	-8.87
878.959	9.56
879.131	-6.83
879.303	17.75
879.476	46.42
879.648	32.08
879.82	42.32
879.993	-4.78
880.165	-53.93
880.337	-47.79
880.509	30.04
880.681	-31.4
880.854	71
881.026	46.42
881.198	66.9
881.37	52.56
881.542	-31.4
881.714	44.37
881.886	-23.21
882.058	-51.88
882.23	-35.5
882.402	7.51
882.574	-33.45
882.746	5.46
882.918	99.67
883.09	9.56
883.262	42.32
883.434	46.42
883.606	7.51
883.778	25.94
883.95	30.04
884.122	-25.26
884.293	27.99
884.465	120.15
884.637	99.67
884.809	-21.16
884.98	114
885.152	1.37
885.324	66.9
885.496	-0.68
885.667	1.37
885.839	25.94
886.011	34.13
886.182	48.47
886.354	38.23
886.525	38.23
886.697	34.13
886.869	-15.02
887.04	-2.73
887.212	54.61
887.383	-19.11
887.555	-55.98
887.726	42.32
887.897	-6.83
888.069	83.28
888.24	23.89
888.412	-17.07
888.583	-29.35
888.754	-31.4
888.926	1.37
889.097	19.8
889.268	-47.79
889.44	-2.73
889.611	13.65
889.782	46.42
889.953	-35.5
890.125	42.32
890.296	-68.27
890.467	17.75
890.638	-8.87
890.809	50.52
890.98	23.89
891.151	81.24
891.323	-25.26
891.494	-6.83
891.665	-41.64
891.836	42.32
892.007	30.04
892.178	73.04
892.349	7.51
892.52	-35.5
892.691	1.37
892.862	15.7
893.032	-49.83
893.203	46.42
893.374	-31.4
893.545	27.99
893.716	-15.02
893.887	1.37
894.057	-35.5
894.228	-6.83
894.399	-6.83
894.57	44.37
894.74	32.08
894.911	81.24
895.082	-29.35
895.253	-51.88
895.423	-8.87
895.594	-90.79
895.764	-47.79
895.935	-12.97
896.106	-15.02
896.276	-49.83
896.447	36.18
896.617	-2.73
896.788	-31.4
896.958	-39.59
897.129	48.47
897.299	34.13
897.47	66.9
897.64	-31.4
897.81	5.46
897.981	25.94
898.151	-68.27
898.322	13.65
898.492	-17.07
898.662	42.32
898.832	3.41
899.003	38.23
899.173	9.56
899.343	5.46
899.513	15.7
