Data from USB4F104151__285__10-42-20-532.txt Node

Date: Wed Mar 12 10:42:20 EDT 2025
User: louis
Spectrometer: USB4F10415
Trigger mode: 4
Integration Time (sec): 3.000000E-2
Scans to average: 1
Electric dark correction enabled: true
Nonlinearity correction enabled: false
Boxcar width: 0
XAxis mode: Wavelengths
Number of Pixels in Spectrum: 3648
>>>>>Begin Spectral Data<<<<<
178.204	-45.74
178.424	-45.74
178.644	-45.74
178.864	-72.36
179.084	-125.61
179.304	25.94
179.524	-37.55
179.744	62.8
179.964	-17.07
180.184	-25.26
180.404	-0.68
180.624	34.13
180.844	-55.98
181.064	3.41
181.283	-25.26
181.503	-19.11
181.723	54.61
181.943	-23.21
182.163	50.52
182.383	-49.83
182.602	15.7
182.822	52.56
183.042	116.05
183.262	17.75
183.482	48.47
183.701	17.75
183.921	34.13
184.141	-10.92
184.361	-12.97
184.58	23.89
184.8	36.18
185.02	-58.03
185.239	64.85
185.459	71
185.679	46.42
185.898	32.08
186.118	48.47
186.338	-4.78
186.557	17.75
186.777	77.14
186.997	5.46
187.216	91.48
187.436	9.56
187.655	52.56
187.875	114
188.095	27.99
188.314	97.62
188.534	34.13
188.753	36.18
188.973	54.61
189.192	17.75
189.412	87.38
189.631	-19.11
189.851	44.37
190.07	36.18
190.29	1.37
190.509	122.2
190.729	11.61
190.948	91.48
191.168	122.2
191.387	62.8
191.607	15.7
191.826	-25.26
192.045	23.89
192.265	107.86
192.484	97.62
192.704	50.52
192.923	42.32
193.142	107.86
193.362	50.52
193.581	105.81
193.8	-15.02
194.02	116.05
194.239	50.52
194.458	19.8
194.678	44.37
194.897	-45.74
195.116	48.47
195.335	99.67
195.555	21.85
195.774	32.08
195.993	101.72
196.212	-25.26
196.432	-55.98
196.651	40.28
196.87	46.42
197.089	73.04
197.308	91.48
197.528	13.65
197.747	-70.31
197.966	81.24
198.185	171.35
198.404	48.47
198.623	99.67
198.842	42.32
199.062	60.76
199.281	52.56
199.5	73.04
199.719	27.99
199.938	42.32
200.157	40.28
200.376	79.19
200.595	107.86
200.814	19.8
201.033	17.75
201.252	56.66
201.471	64.85
201.69	68.95
201.909	40.28
202.128	93.52
202.347	75.09
202.566	42.32
202.785	17.75
203.004	56.66
203.223	73.04
203.442	44.37
203.661	93.52
203.879	46.42
204.098	13.65
204.317	75.09
204.536	95.57
204.755	91.48
204.974	75.09
205.193	44.37
205.411	107.86
205.63	66.9
205.849	56.66
206.068	42.32
206.287	95.57
206.505	81.24
206.724	-10.92
206.943	38.23
207.162	-0.68
207.381	105.81
207.599	42.32
207.818	7.51
208.037	23.89
208.255	-2.73
208.474	87.38
208.693	83.28
208.911	17.75
209.13	-10.92
209.349	99.67
209.567	7.51
209.786	105.81
210.005	46.42
210.223	11.61
210.442	48.47
210.661	36.18
210.879	52.56
211.098	30.04
211.316	62.8
211.535	40.28
211.753	21.85
211.972	36.18
212.191	60.76
212.409	40.28
212.628	101.72
212.846	68.95
213.065	60.76
213.283	91.48
213.502	77.14
213.72	73.04
213.938	-43.69
214.157	64.85
214.375	105.81
214.594	30.04
214.812	30.04
215.031	83.28
215.249	-49.83
215.467	11.61
215.686	-2.73
215.904	77.14
216.122	54.61
216.341	58.71
216.559	38.23
216.778	48.47
216.996	64.85
217.214	15.7
217.432	103.76
217.651	75.09
217.869	60.76
218.087	21.85
218.306	-2.73
218.524	54.61
218.742	7.51
218.96	56.66
219.179	60.76
219.397	87.38
219.615	62.8
219.833	116.05
220.051	81.24
220.27	34.13
220.488	44.37
220.706	60.76
220.924	42.32
221.142	34.13
221.36	17.75
221.578	32.08
221.796	19.8
222.015	87.38
222.233	-21.16
222.451	87.38
222.669	128.34
222.887	46.42
223.105	-29.35
223.323	85.33
223.541	42.32
223.759	17.75
223.977	50.52
224.195	19.8
224.413	85.33
224.631	-55.98
224.849	-2.73
225.067	62.8
225.285	68.95
225.503	85.33
225.721	73.04
225.939	-23.21
226.157	114
226.375	111.96
226.592	11.61
226.81	64.85
227.028	97.62
227.246	91.48
227.464	-19.11
227.682	109.91
227.9	83.28
228.117	-6.83
228.335	73.04
228.553	-6.83
228.771	40.28
228.989	68.95
229.206	77.14
229.424	1.37
229.642	40.28
229.86	73.04
230.077	89.43
230.295	17.75
230.513	56.66
230.731	64.85
230.948	50.52
231.166	58.71
231.384	60.76
231.601	126.29
231.819	62.8
232.037	75.09
232.254	7.51
232.472	83.28
232.689	-8.87
232.907	15.7
233.125	7.51
233.342	73.04
233.56	48.47
233.777	91.48
233.995	56.66
234.213	21.85
234.43	3.41
234.648	79.19
234.865	-6.83
235.083	17.75
235.3	105.81
235.518	83.28
235.735	13.65
235.953	87.38
236.17	1.37
236.388	85.33
236.605	89.43
236.822	64.85
237.04	19.8
237.257	103.76
237.475	19.8
237.692	62.8
237.909	73.04
238.127	19.8
238.344	-15.02
238.562	91.48
238.779	-25.26
238.996	97.62
239.214	91.48
239.431	79.19
239.648	62.8
239.865	48.47
240.083	111.96
240.3	-33.45
240.517	73.04
240.735	9.56
240.952	95.57
241.169	30.04
241.386	50.52
241.603	34.13
241.821	58.71
242.038	23.89
242.255	87.38
242.472	46.42
242.689	77.14
242.907	34.13
243.124	27.99
243.341	34.13
243.558	40.28
243.775	66.9
243.992	17.75
244.209	25.94
244.426	68.95
244.643	71
244.86	30.04
245.078	36.18
245.295	54.61
245.512	13.65
245.729	40.28
245.946	99.67
246.163	68.95
246.38	15.7
246.597	56.66
246.814	36.18
247.031	48.47
247.248	58.71
247.464	40.28
247.681	42.32
247.898	27.99
248.115	95.57
248.332	-8.87
248.549	132.44
248.766	138.58
248.983	103.76
249.2	40.28
249.417	68.95
249.633	103.76
249.85	81.24
250.067	-17.07
250.284	64.85
250.501	60.76
250.717	27.99
250.934	19.8
251.151	11.61
251.368	40.28
251.585	50.52
251.801	38.23
252.018	79.19
252.235	73.04
252.451	3.41
252.668	73.04
252.885	42.32
253.102	40.28
253.318	3.41
253.535	11.61
253.752	48.47
253.968	116.05
254.185	-10.92
254.401	-0.68
254.618	34.13
254.835	25.94
255.051	124.24
255.268	21.85
255.484	71
255.701	-0.68
255.917	68.95
256.134	36.18
256.351	73.04
256.567	-25.26
256.784	25.94
257	54.61
257.217	118.1
257.433	89.43
257.65	89.43
257.866	34.13
258.082	52.56
258.299	75.09
258.515	40.28
258.732	19.8
258.948	-10.92
259.165	132.44
259.381	54.61
259.597	58.71
259.814	97.62
260.03	52.56
260.246	32.08
260.463	81.24
260.679	44.37
260.895	23.89
261.112	116.05
261.328	136.53
261.544	1.37
261.761	114
261.977	130.39
262.193	-25.26
262.409	122.2
262.626	23.89
262.842	165.2
263.058	7.51
263.274	9.56
263.49	46.42
263.707	93.52
263.923	81.24
264.139	21.85
264.355	-31.4
264.571	30.04
264.787	60.76
265.004	13.65
265.22	56.66
265.436	-27.31
265.652	-0.68
265.868	93.52
266.084	-19.11
266.3	118.1
266.516	25.94
266.732	36.18
266.948	81.24
267.164	5.46
267.38	132.44
267.596	101.72
267.812	122.2
268.028	77.14
268.244	21.85
268.46	60.76
268.676	85.33
268.892	64.85
269.108	79.19
269.324	48.47
269.54	58.71
269.756	48.47
269.972	68.95
270.188	3.41
270.403	-0.68
270.619	1.37
270.835	79.19
271.051	71
271.267	-66.22
271.483	25.94
271.698	25.94
271.914	109.91
272.13	60.76
272.346	48.47
272.562	-29.35
272.777	64.85
272.993	66.9
273.209	87.38
273.425	23.89
273.64	32.08
273.856	11.61
274.072	50.52
274.287	73.04
274.503	27.99
274.719	99.67
274.934	89.43
275.15	13.65
275.366	48.47
275.581	36.18
275.797	13.65
276.012	7.51
276.228	-15.02
276.444	-21.16
276.659	105.81
276.875	5.46
277.09	34.13
277.306	114
277.521	46.42
277.737	-23.21
277.952	89.43
278.168	7.51
278.383	99.67
278.599	25.94
278.814	34.13
279.03	34.13
279.245	142.68
279.461	68.95
279.676	60.76
279.892	3.41
280.107	124.24
280.322	40.28
280.538	25.94
280.753	71
280.969	17.75
281.184	56.66
281.399	42.32
281.615	1.37
281.83	42.32
282.045	3.41
282.26	-10.92
282.476	5.46
282.691	109.91
282.906	66.9
283.122	91.48
283.337	52.56
283.552	1.37
283.767	-19.11
283.983	52.56
284.198	44.37
284.413	97.62
284.628	-17.07
284.843	68.95
285.058	77.14
285.274	52.56
285.489	73.04
285.704	3.41
285.919	23.89
286.134	46.42
286.349	1.37
286.564	91.48
286.779	79.19
286.995	75.09
287.21	27.99
287.425	60.76
287.64	-0.68
287.855	105.81
288.07	7.51
288.285	97.62
288.5	73.04
288.715	111.96
288.93	-17.07
289.145	11.61
289.36	15.7
289.575	50.52
289.79	132.44
290.004	50.52
290.219	130.39
290.434	73.04
290.649	50.52
290.864	40.28
291.079	91.48
291.294	64.85
291.509	9.56
291.724	36.18
291.938	11.61
292.153	44.37
292.368	111.96
292.583	116.05
292.798	36.18
293.012	34.13
293.227	71
293.442	89.43
293.657	-0.68
293.871	17.75
294.086	44.37
294.301	3.41
294.516	62.8
294.73	89.43
294.945	114
295.16	36.18
295.374	30.04
295.589	97.62
295.804	56.66
296.018	134.48
296.233	32.08
296.447	46.42
296.662	64.85
296.877	21.85
297.091	-0.68
297.306	97.62
297.52	-4.78
297.735	87.38
297.949	56.66
298.164	85.33
298.378	27.99
298.593	5.46
298.807	40.28
299.022	40.28
299.236	134.48
299.451	52.56
299.665	32.08
299.88	32.08
300.094	27.99
300.309	40.28
300.523	68.95
300.737	54.61
300.952	79.19
301.166	17.75
301.381	52.56
301.595	81.24
301.809	130.39
302.024	-0.68
302.238	105.81
302.452	40.28
302.667	81.24
302.881	91.48
303.095	71
303.309	60.76
303.524	46.42
303.738	1.37
303.952	64.85
304.166	73.04
304.381	3.41
304.595	118.1
304.809	101.72
305.023	99.67
305.237	122.2
305.452	40.28
305.666	25.94
305.88	32.08
306.094	54.61
306.308	-35.5
306.522	42.32
306.736	21.85
306.95	56.66
307.164	83.28
307.379	5.46
307.593	101.72
307.807	71
308.021	23.89
308.235	95.57
308.449	36.18
308.663	25.94
308.877	118.1
309.091	114
309.305	-51.88
309.519	48.47
309.733	99.67
309.947	89.43
310.161	-45.74
310.374	116.05
310.588	58.71
310.802	19.8
311.016	-6.83
311.23	120.15
311.444	77.14
311.658	-8.87
311.872	38.23
312.085	17.75
312.299	183.63
312.513	48.47
312.727	-19.11
312.941	38.23
313.154	68.95
313.368	93.52
313.582	21.85
313.796	97.62
314.009	128.34
314.223	114
314.437	7.51
314.651	122.2
314.864	46.42
315.078	34.13
315.292	-19.11
315.505	79.19
315.719	165.2
315.933	-6.83
316.146	89.43
316.36	60.76
316.573	66.9
316.787	97.62
317.001	15.7
317.214	-41.64
317.428	62.8
317.641	32.08
317.855	87.38
318.068	83.28
318.282	75.09
318.495	87.38
318.709	40.28
318.922	38.23
319.136	73.04
319.349	13.65
319.563	-10.92
319.776	25.94
319.99	27.99
320.203	134.48
320.417	60.76
320.63	146.77
320.843	83.28
321.057	79.19
321.27	54.61
321.483	77.14
321.697	107.86
321.91	118.1
322.124	62.8
322.337	95.57
322.55	122.2
322.763	105.81
322.977	54.61
323.19	38.23
323.403	91.48
323.617	48.47
323.83	48.47
324.043	81.24
324.256	36.18
324.469	-19.11
324.683	116.05
324.896	34.13
325.109	44.37
325.322	81.24
325.535	103.76
325.748	9.56
325.962	73.04
326.175	93.52
326.388	73.04
326.601	89.43
326.814	68.95
327.027	97.62
327.24	81.24
327.453	27.99
327.666	122.2
327.879	79.19
328.092	75.09
328.305	56.66
328.518	56.66
328.731	-17.07
328.944	75.09
329.157	42.32
329.37	85.33
329.583	101.72
329.796	142.68
330.009	38.23
330.222	83.28
330.435	62.8
330.648	21.85
330.861	85.33
331.073	116.05
331.286	111.96
331.499	68.95
331.712	9.56
331.925	11.61
332.138	87.38
332.35	38.23
332.563	71
332.776	91.48
332.989	-4.78
333.202	11.61
333.414	99.67
333.627	105.81
333.84	122.2
334.053	56.66
334.265	60.76
334.478	105.81
334.691	85.33
334.903	27.99
335.116	27.99
335.329	13.65
335.541	130.39
335.754	93.52
335.966	77.14
336.179	81.24
336.392	91.48
336.604	99.67
336.817	81.24
337.029	99.67
337.242	34.13
337.454	83.28
337.667	64.85
337.88	85.33
338.092	44.37
338.305	46.42
338.517	-15.02
338.729	58.71
338.942	23.89
339.154	62.8
339.367	-12.97
339.579	99.67
339.792	23.89
340.004	46.42
340.217	60.76
340.429	124.24
340.641	38.23
340.854	54.61
341.066	60.76
341.278	93.52
341.491	128.34
341.703	132.44
341.915	15.7
342.128	107.86
342.34	62.8
342.552	36.18
342.764	68.95
342.977	68.95
343.189	85.33
343.401	48.47
343.613	42.32
343.826	118.1
344.038	9.56
344.25	68.95
344.462	52.56
344.674	89.43
344.886	30.04
345.099	32.08
345.311	97.62
345.523	93.52
345.735	19.8
345.947	89.43
346.159	60.76
346.371	60.76
346.583	-17.07
346.795	118.1
347.007	42.32
347.219	148.82
347.431	64.85
347.643	144.72
347.855	73.04
348.067	48.47
348.279	66.9
348.491	40.28
348.703	75.09
348.915	-19.11
349.127	32.08
349.339	48.47
349.551	34.13
349.763	81.24
349.975	27.99
350.187	85.33
350.399	52.56
350.61	64.85
350.822	-2.73
351.034	77.14
351.246	54.61
351.458	120.15
351.669	60.76
351.881	130.39
352.093	60.76
352.305	103.76
352.517	46.42
352.728	116.05
352.94	161.11
353.152	134.48
353.363	71
353.575	52.56
353.787	128.34
353.999	103.76
354.21	114
354.422	19.8
354.633	81.24
354.845	34.13
355.057	95.57
355.268	114
355.48	85.33
355.692	52.56
355.903	68.95
356.115	-2.73
356.326	56.66
356.538	142.68
356.749	87.38
356.961	50.52
357.172	103.76
357.384	38.23
357.595	142.68
357.807	7.51
358.018	122.2
358.23	44.37
358.441	161.11
358.653	83.28
358.864	81.24
359.075	19.8
359.287	3.41
359.498	32.08
359.709	144.72
359.921	17.75
360.132	40.28
360.344	52.56
360.555	15.7
360.766	89.43
360.977	17.75
361.189	146.77
361.4	-2.73
361.611	58.71
361.823	46.42
362.034	38.23
362.245	68.95
362.456	40.28
362.667	118.1
362.879	15.7
363.09	91.48
363.301	66.9
363.512	48.47
363.723	38.23
363.935	42.32
364.146	52.56
364.357	103.76
364.568	136.53
364.779	58.71
364.99	58.71
365.201	54.61
365.412	144.72
365.623	73.04
365.834	109.91
366.045	138.58
366.256	126.29
366.467	126.29
366.678	56.66
366.889	68.95
367.1	-4.78
367.311	101.72
367.522	50.52
367.733	32.08
367.944	85.33
368.155	114
368.366	60.76
368.577	132.44
368.788	107.86
368.999	62.8
369.209	56.66
369.42	118.1
369.631	66.9
369.842	107.86
370.053	9.56
370.264	52.56
370.474	87.38
370.685	27.99
370.896	79.19
371.107	154.96
371.317	142.68
371.528	73.04
371.739	109.91
371.95	46.42
372.16	146.77
372.371	64.85
372.582	75.09
372.792	62.8
373.003	91.48
373.214	83.28
373.424	56.66
373.635	66.9
373.846	103.76
374.056	54.61
374.267	3.41
374.477	30.04
374.688	77.14
374.898	126.29
375.109	44.37
375.319	-4.78
375.53	66.9
375.74	142.68
375.951	52.56
376.161	87.38
376.372	79.19
376.582	99.67
376.793	36.18
377.003	52.56
377.214	116.05
377.424	44.37
377.635	87.38
377.845	105.81
378.055	116.05
378.266	17.75
378.476	105.81
378.686	19.8
378.897	60.76
379.107	27.99
379.317	111.96
379.528	99.67
379.738	128.34
379.948	93.52
380.158	95.57
380.369	89.43
380.579	60.76
380.789	13.65
380.999	71
381.21	144.72
381.42	99.67
381.63	-10.92
381.84	105.81
382.05	60.76
382.261	154.96
382.471	87.38
382.681	40.28
382.891	154.96
383.101	89.43
383.311	97.62
383.521	44.37
383.731	77.14
383.941	150.87
384.151	114
384.361	124.24
384.571	40.28
384.781	73.04
384.991	91.48
385.201	163.15
385.411	89.43
385.621	17.75
385.831	64.85
386.041	66.9
386.251	68.95
386.461	109.91
386.671	89.43
386.881	105.81
387.091	9.56
387.301	140.63
387.511	95.57
387.72	114
387.93	40.28
388.14	30.04
388.35	54.61
388.56	132.44
388.769	105.81
388.979	91.48
389.189	64.85
389.399	48.47
389.609	138.58
389.818	68.95
390.028	124.24
390.238	159.06
390.447	81.24
390.657	163.15
390.867	157.01
391.076	54.61
391.286	109.91
391.496	85.33
391.705	50.52
391.915	183.63
392.125	130.39
392.334	93.52
392.544	87.38
392.753	77.14
392.963	81.24
393.172	95.57
393.382	95.57
393.591	140.63
393.801	97.62
394.01	122.2
394.22	126.29
394.429	163.15
394.639	126.29
394.848	222.55
395.058	87.38
395.267	30.04
395.477	109.91
395.686	116.05
395.895	218.45
396.105	179.54
396.314	109.91
396.524	105.81
396.733	144.72
396.942	187.73
397.152	171.35
397.361	154.96
397.57	120.15
397.78	253.27
397.989	163.15
398.198	169.3
398.407	130.39
398.617	97.62
398.826	208.21
399.035	150.87
399.244	122.2
399.453	130.39
399.663	185.68
399.872	183.63
400.081	118.1
400.29	181.59
400.499	212.31
400.708	177.49
400.917	109.91
401.127	175.44
401.336	138.58
401.545	187.73
401.754	232.79
401.963	111.96
402.172	150.87
402.381	173.39
402.59	150.87
402.799	128.34
403.008	228.69
403.217	159.06
403.426	163.15
403.635	173.39
403.844	238.93
404.053	118.1
404.262	191.83
404.471	275.79
404.68	240.98
404.888	187.73
405.097	179.54
405.306	197.97
405.515	247.12
405.724	300.37
405.933	232.79
406.142	183.63
406.35	204.11
406.559	247.12
406.768	251.22
406.977	300.37
407.185	261.46
407.394	214.35
407.603	240.98
407.812	318.8
408.02	404.82
408.229	353.62
408.438	308.56
408.646	259.41
408.855	298.32
409.064	367.95
409.272	390.48
409.481	394.58
409.69	316.75
409.898	392.53
410.107	361.81
410.315	413.01
410.524	449.87
410.733	445.77
410.941	402.77
411.15	474.45
411.358	546.12
411.567	566.6
411.775	548.17
411.984	601.42
412.192	542.03
412.401	472.4
412.609	675.15
412.818	607.56
413.026	580.94
413.234	654.67
413.443	761.16
413.651	726.35
413.86	779.59
414.068	779.59
414.276	859.46
414.485	800.07
414.693	810.31
414.901	896.33
415.11	871.75
415.318	875.85
415.526	1019.21
415.734	939.33
415.943	1101.12
416.151	976.2
416.359	1072.45
416.567	1039.69
416.776	1131.84
416.984	1199.43
417.192	1224
417.4	1201.48
417.608	1346.88
417.817	1359.17
418.025	1469.76
418.233	1457.47
418.441	1453.38
418.649	1461.57
418.857	1629.5
419.065	1688.89
419.273	1637.69
419.481	1692.99
419.689	1873.21
419.897	2012.47
420.105	2014.52
420.313	2018.61
420.521	2080.05
420.729	2147.64
420.937	2127.16
421.145	2231.6
421.353	2383.15
421.561	2430.26
421.769	2538.8
421.977	2514.22
422.185	2536.75
422.393	2723.12
422.601	3015.98
422.809	2913.58
423.017	2813.23
423.224	3067.17
423.432	3280.16
423.64	3235.11
423.848	3484.96
424.056	3499.3
424.263	3681.57
424.471	3728.67
424.679	3626.27
424.887	3999
425.094	3980.57
425.302	4017.43
425.51	3990.81
425.718	4369.68
425.925	4494.61
426.133	4554
426.341	4863.24
426.548	5049.61
426.756	5137.67
426.964	5102.86
427.171	5360.9
427.379	5426.43
427.586	5637.38
427.794	5803.26
428.001	6184.18
428.209	6311.16
428.417	6159.61
428.624	6706.41
428.832	6782.19
429.039	6690.03
429.247	6638.83
429.454	7433.44
429.662	7769.31
429.869	7324.9
430.076	7718.11
430.284	7523.55
430.491	8037.59
430.699	8559.83
430.906	8461.52
431.114	8412.37
431.321	8867.02
431.528	9071.82
431.736	9346.25
431.943	10147
432.15	9665.73
432.358	9954.49
432.565	10359.99
432.772	10218.68
432.979	10812.59
433.187	11029.68
433.394	11107.5
433.601	11740.32
433.808	11783.33
434.016	11650.21
434.223	12383.38
434.43	12838.03
434.637	12655.76
434.844	13370.51
435.052	13730.95
435.259	13493.38
435.466	14019.71
435.673	13702.28
435.88	14595.19
436.087	15533.16
436.294	15410.28
436.501	15168.62
436.708	15238.25
436.915	15930.47
437.122	16415.83
437.329	16374.88
437.537	17097.81
437.743	17529.93
437.95	17273.93
438.157	17976.39
438.364	18846.77
438.571	18648.12
438.778	18568.25
438.985	20339.74
439.192	20036.64
439.399	20450.33
439.606	19887.14
439.813	20980.76
440.02	22473.73
440.227	21873.67
440.433	21554.19
440.64	22461.44
440.847	22397.95
441.054	22871.03
441.261	24380.39
441.467	24173.54
441.674	24511.46
441.881	25183.19
442.088	25443.28
442.294	25185.24
442.501	25506.77
442.708	26039.24
442.914	27710.38
443.121	28521.38
443.328	27741.1
443.534	29399.96
443.741	28701.6
443.948	28445.6
444.154	30473.09
444.361	30172.04
444.568	30217.1
444.774	30915.45
444.981	31269.75
445.187	31642.48
445.394	33268.57
445.6	32789.35
445.807	35998.51
446.013	34116.43
446.22	35033.92
446.426	36268.84
446.633	36762.4
446.839	37393.18
447.046	35865.39
447.252	38144.78
447.459	37993.23
447.665	37651.22
447.871	39895.8
448.078	41116.39
448.284	39236.35
448.491	40094.45
448.697	41822.94
448.903	42392.27
449.11	42541.77
449.316	41329.37
449.522	42189.52
449.728	43979.45
449.935	43946.68
450.141	43639.48
450.347	44303.03
450.553	43483.84
450.76	44382.9
450.966	45470.37
451.172	44526.25
451.378	45851.29
451.584	44839.59
451.791	45951.64
451.997	45963.93
452.203	46592.65
452.409	46588.56
452.615	46301.84
452.821	44354.22
453.027	44229.3
453.233	46408.34
453.44	44278.45
453.646	44847.79
453.852	44823.21
454.058	45679.26
454.264	44139.19
454.47	45261.47
454.676	44331.7
454.882	45466.27
455.088	41403.1
455.294	42126.03
455.5	42443.47
455.705	42937.03
455.911	41257.7
456.117	40846.05
456.323	39879.41
456.529	37847.83
456.735	39424.76
456.941	38298.38
457.147	37690.13
457.352	36647.72
457.558	36234.03
457.764	36197.17
457.97	35521.34
458.176	34933.57
458.381	35324.73
458.587	32998.24
458.793	33311.58
458.999	31175.55
459.204	33821.52
459.41	32619.36
459.616	30628.74
459.821	30057.35
460.027	30264.2
460.233	29834.13
460.438	28556.19
460.644	29172.63
460.85	27306.93
461.055	27239.35
461.261	26788.8
461.466	24800.22
461.672	24308.71
461.878	26033.1
462.083	24165.35
462.289	23585.77
462.494	23604.21
462.7	22359.04
462.905	22101
463.111	22705.15
463.316	22881.27
463.522	22137.86
463.727	22494.21
463.932	22252.55
464.138	22125.57
464.343	22045.7
464.549	21431.31
464.754	22473.73
464.959	22199.3
465.165	22144
465.37	20917.27
465.575	20554.78
465.781	21361.68
465.986	21652.49
466.191	20702.23
466.397	20421.66
466.602	19100.72
466.807	20120.61
467.012	19813.41
467.218	20005.92
467.423	19418.16
467.628	19655.72
467.833	20741.14
468.038	19960.87
468.244	19319.85
468.449	20122.66
468.654	19383.34
468.859	19196.98
469.064	19160.11
469.269	18328.64
469.474	18621.5
469.679	18859.06
469.885	18455.61
470.09	18558.01
470.295	18236.48
470.5	17828.93
470.705	18160.7
470.91	17783.88
471.115	17534.03
471.32	17923.14
471.525	17640.52
471.73	17245.26
471.935	17327.18
472.139	16626.78
472.344	16700.5
472.549	16796.76
472.754	16526.43
472.959	16245.85
473.164	15623.27
473.369	15514.73
473.574	16395.36
473.778	16122.98
473.983	15656.04
474.188	15623.27
474.393	15180.91
474.598	15264.88
474.802	14814.32
475.007	15105.13
475.212	15197.29
475.417	14417.02
475.621	14253.18
475.826	14683.25
476.031	14222.46
476.235	13788.29
476.44	14134.4
476.645	14064.77
476.849	13747.33
477.054	13882.5
477.259	13458.57
477.463	13548.68
477.668	13345.93
477.872	13186.19
478.077	13114.51
478.282	12911.76
478.486	12635.28
478.691	12590.23
478.895	12758.16
479.1	12729.49
479.304	12577.94
479.509	12280.99
479.713	12496.02
479.918	12121.24
480.122	11977.89
480.326	12041.37
480.531	12192.92
480.735	12127.39
480.94	11842.72
481.144	12483.73
481.348	11668.64
481.553	11967.65
481.757	11611.3
481.961	11963.55
482.166	11955.36
482.37	11855.01
482.574	11754.66
482.778	11830.43
482.983	12100.76
483.187	11852.96
483.391	11809.95
483.595	11467.94
483.8	11412.65
484.004	11863.2
484.208	12002.46
484.412	11533.48
484.616	11807.91
484.821	11738.27
485.025	11517.09
485.229	11693.22
485.433	11599.01
485.637	11621.54
485.841	11723.94
486.045	11533.48
486.249	11889.82
486.453	11732.13
486.657	11680.93
486.861	11562.15
487.065	11472.04
487.269	11510.95
487.473	11474.09
487.677	11785.38
487.881	11984.03
488.085	11828.38
488.289	11707.55
488.493	11738.27
488.697	11930.78
488.901	11867.3
489.105	11740.32
489.309	11965.6
489.512	11918.5
489.716	11902.11
489.92	11793.57
490.124	11732.13
490.328	12211.35
490.531	11877.54
490.735	12012.7
490.939	12412.06
491.143	12100.76
491.346	12145.82
491.55	11947.17
491.754	12231.83
491.958	12364.95
492.161	12500.12
492.365	12436.63
492.569	12504.21
492.772	12547.22
492.976	12629.14
493.18	12674.2
493.383	12850.32
493.587	12831.89
493.79	12913.81
493.994	12962.96
494.197	12975.25
494.401	13157.52
494.605	13190.28
494.808	13339.79
495.012	13417.61
495.215	13395.08
495.419	13573.25
495.622	13517.96
495.825	13712.52
496.029	13753.48
496.232	14165.12
496.436	14077.05
496.639	14507.13
496.843	14437.5
497.046	14578.81
497.249	14832.75
497.453	14718.07
497.656	14838.9
497.859	15142
498.063	15076.46
498.266	15578.22
498.469	15549.54
498.673	15670.37
498.876	15934.56
499.079	16034.91
499.282	16110.69
499.485	16292.96
499.689	16481.37
499.892	16612.44
500.095	16792.66
500.298	17235.02
500.501	16766.04
500.705	17472.59
500.908	17585.22
501.111	17718.34
501.314	17941.57
501.517	18023.49
501.72	18545.72
501.923	18306.11
502.126	18973.75
502.329	19237.94
502.532	19156.02
502.735	19313.71
502.938	19575.85
503.141	19895.33
503.344	20364.32
503.547	20073.51
503.75	20401.18
503.953	20659.23
504.156	20925.46
504.359	21201.94
504.562	21021.72
504.765	21324.82
504.968	21758.99
505.17	22211.59
505.373	22092.8
505.576	22406.14
505.779	22496.25
505.982	22844.41
506.185	23262.19
506.387	23419.89
506.59	23649.26
506.793	24044.52
506.996	24200.16
507.198	24542.17
507.401	24556.51
507.604	24677.34
507.807	25072.6
508.009	25590.73
508.212	25545.68
508.415	25977.8
508.617	26155.97
508.82	26414.02
509.022	26360.77
509.225	27200.44
509.428	27288.5
509.63	27515.83
509.833	27685.81
510.035	28208.04
510.238	27960.23
510.44	28408.74
510.643	28976.03
510.845	28941.21
511.048	28877.72
511.25	29672.34
511.453	29873.04
511.655	30587.78
511.858	30464.9
512.06	30821.25
512.262	30991.23
512.465	30995.32
512.667	31894.38
512.87	31818.61
513.072	31787.89
513.274	32688.99
513.477	32572.26
513.679	32953.18
513.881	33342.3
514.084	33798.99
514.286	33936.21
514.488	34130.76
514.69	34798.4
514.893	35142.46
515.095	35265.34
515.297	35599.16
515.499	35605.3
515.701	36283.18
515.904	36789.03
516.106	36490.02
516.308	36647.72
516.51	37298.97
516.712	37536.54
516.914	38241.04
517.116	38445.83
517.318	38318.86
517.52	38787.85
517.722	39359.23
517.925	39324.41
518.127	40016.63
518.329	40420.08
518.531	40192.75
518.733	40827.62
518.935	40772.33
519.136	41417.44
519.338	42177.23
519.54	42318.54
519.742	42533.58
519.944	42472.14
520.146	43401.92
520.348	43442.88
520.55	43680.44
520.752	44128.95
520.954	44589.74
521.155	44167.86
521.357	45081.25
521.559	45267.62
521.761	46070.42
521.963	45818.52
522.164	45859.48
522.366	45920.92
522.568	46580.37
522.77	46623.37
522.971	47653.5
523.173	47796.86
523.375	48122.49
523.576	47694.46
523.778	47927.93
523.98	48644.72
524.181	48923.24
524.383	49066.6
524.584	49461.86
524.786	49490.53
524.988	49330.79
525.189	50031.19
525.391	50500.18
525.592	50446.93
525.794	50934.35
525.995	50901.58
526.197	50668.11
526.398	51042.89
526.6	51128.91
526.801	51997.24
527.003	52204.09
527.204	51700.29
527.406	52255.29
527.607	52175.42
527.808	52589.11
528.01	51614.27
528.211	52732.46
528.412	52922.93
528.614	53197.35
528.815	53441.06
529.016	53797.41
529.218	53127.72
529.419	53594.66
529.62	53455.4
529.822	53600.8
530.023	53416.49
530.224	53611.04
530.425	53807.65
530.626	53834.27
530.828	53494.31
531.029	54620.69
531.23	53815.84
531.431	54190.62
531.632	54190.62
531.833	54526.49
532.035	54452.76
532.236	54116.89
532.437	54917.65
532.638	54401.56
532.839	54997.52
533.04	55249.42
533.241	54370.84
533.442	55341.58
533.643	54886.93
533.844	55239.18
534.045	54921.74
534.246	54675.99
534.447	55382.54
534.648	54782.48
534.849	55124.49
535.05	54870.54
535.251	55165.45
535.451	54856.21
535.652	55257.61
535.853	55157.26
536.054	55589.38
536.255	55349.77
536.456	54790.67
536.657	55800.32
536.857	55390.73
537.058	54960.65
537.259	55732.74
537.46	55661.06
537.66	55288.33
537.861	55675.4
538.062	55038.48
538.263	55239.18
538.463	55392.78
538.664	55691.78
538.865	55620.1
539.065	55720.45
539.266	55036.43
539.466	55874.05
539.667	54938.13
539.868	55699.97
540.068	55192.08
540.269	55398.92
540.469	55499.27
540.67	55124.49
540.87	55239.18
541.071	54878.74
541.271	55382.54
541.472	55243.27
541.672	54878.74
541.873	54805.01
542.073	54243.87
542.274	55276.04
542.474	55157.26
542.675	54825.49
542.875	55704.07
543.075	55077.39
543.276	54841.87
543.476	55407.11
543.676	54727.19
543.877	55423.5
544.077	54903.31
544.277	54856.21
544.478	55052.81
544.678	55099.92
544.878	55114.25
545.078	54981.13
545.279	54579.73
545.479	54891.02
545.679	55452.17
545.879	54841.87
546.079	54850.06
546.28	54794.77
546.48	54680.08
546.68	55052.81
546.88	54610.45
547.08	55007.76
547.28	54690.32
547.48	54618.64
547.68	54811.15
547.88	54501.91
548.081	55003.66
548.281	54841.87
548.481	54665.75
548.681	55106.06
548.881	54546.96
549.081	54747.67
549.28	54766.1
549.48	54983.18
549.68	54739.47
549.88	55255.56
550.08	54489.62
550.28	54819.34
550.48	54534.68
550.68	54817.3
550.88	54497.81
551.08	54227.48
551.279	54297.11
551.479	54581.78
551.679	54983.18
551.879	54579.73
552.079	54563.35
552.278	54231.58
552.478	54163.99
552.678	54534.68
552.878	54651.41
553.077	54403.61
553.277	53959.2
553.477	54977.04
553.676	54383.13
553.876	54274.59
554.076	53887.52
554.275	54198.81
554.475	53871.14
554.674	54209.05
554.874	54477.33
555.074	53973.53
555.273	53805.6
555.473	54399.51
555.672	53699.11
555.872	53928.48
556.071	53813.79
556.271	54075.93
556.47	53731.87
556.67	53152.3
556.869	53494.31
557.068	53707.3
557.268	53281.32
557.467	53197.35
557.667	53486.12
557.866	53674.53
558.065	53393.96
558.265	53297.7
558.464	53189.16
558.663	53742.11
558.863	52896.3
559.062	53840.42
559.261	52585.01
559.461	53226.03
559.66	52513.33
559.859	52410.93
560.058	52646.45
560.258	52810.29
560.457	52312.63
560.656	52703.79
560.855	52118.07
561.054	52234.81
561.253	52240.95
561.453	52304.44
561.652	52286.01
561.851	52138.55
562.05	52007.48
562.249	51683.9
562.448	51941.95
562.647	52175.42
562.846	51733.06
563.045	51710.53
563.244	51399.24
563.443	52363.83
563.642	51216.97
563.841	51565.12
564.04	51305.03
564.239	51939.9
564.438	50838.09
564.637	51171.91
564.836	51176.01
565.035	50545.23
565.234	50956.88
565.432	50684.5
565.631	50299.48
565.83	50621.01
566.029	50029.15
566.228	50405.97
566.427	50295.38
566.625	50002.52
566.824	49445.47
567.023	50025.05
567.222	49363.56
567.42	50274.9
567.619	49844.83
567.818	49648.22
568.016	49046.12
568.215	49660.51
568.414	49283.69
568.612	49791.58
568.811	49365.6
569.01	48734.83
569.208	48716.4
569.407	48730.73
569.605	48343.67
569.804	48597.62
570.002	48087.67
570.201	48695.92
570.4	47972.99
570.598	48009.85
570.797	48120.44
570.995	48271.99
571.193	47428.23
571.392	48226.93
571.59	47362.69
571.789	47805.05
571.987	47075.97
572.186	47192.71
572.384	46973.58
572.582	47104.65
572.781	47057.54
572.979	46449.3
573.177	46572.17
573.376	46989.96
573.574	46277.27
573.772	46647.95
573.971	46254.74
574.169	46367.38
574.367	46178.96
574.565	45955.74
574.763	45916.82
574.962	45965.98
575.16	45449.89
575.358	45896.35
575.556	45384.35
575.754	45851.29
575.952	45097.64
576.151	45445.79
576.349	44962.47
576.547	44970.66
576.745	45124.26
576.943	44681.9
577.141	44874.41
577.339	44606.12
577.537	44507.82
577.735	44229.3
577.933	44430
578.131	44667.56
578.329	43940.53
578.527	43551.42
578.725	43522.75
578.923	44159.67
579.121	43565.76
579.319	43469.5
579.516	43635.39
579.714	43752.12
579.912	43008.71
580.11	43260.61
580.308	42891.97
580.506	42871.5
580.704	42564.3
580.901	42818.25
581.099	42576.59
581.297	42605.26
581.495	42646.22
581.692	42357.46
581.89	42005.2
582.088	42146.51
582.285	41847.51
582.483	42408.65
582.681	41968.34
582.878	41976.53
583.076	41296.61
583.274	41495.26
583.471	40801
583.669	41388.77
583.866	41077.47
584.064	41061.09
584.262	40907.49
584.459	41587.42
584.657	40545
584.854	41292.51
585.052	40061.68
585.249	40368.88
585.447	40354.54
585.644	40231.66
585.841	40481.52
586.039	40207.09
586.236	39791.35
586.434	39936.76
586.631	39514.87
586.828	39566.07
587.026	39336.7
587.223	39385.85
587.42	39062.27
587.618	39353.08
587.815	38824.71
588.012	39168.77
588.21	38691.59
588.407	39285.5
588.604	38204.17
588.801	38118.16
588.999	38662.92
589.196	38388.49
589.393	38298.38
589.59	37929.75
589.787	38171.41
589.984	37686.04
590.182	37331.74
590.379	38126.35
590.576	37253.92
590.773	37632.79
590.97	37393.18
591.167	37587.74
591.364	36971.3
591.561	36899.62
591.758	36629.29
591.955	36733.73
592.152	37008.16
592.349	36715.3
592.546	37194.53
592.743	36424.49
592.94	35726.13
593.137	36295.47
593.334	36016.94
593.531	35627.83
593.727	35922.74
593.924	35855.15
594.121	35476.28
594.318	36047.66
594.515	34997.06
594.712	35955.5
594.908	35285.82
595.105	35281.72
595.302	34855.75
595.499	35306.3
595.696	34765.63
595.892	34661.19
596.089	34812.74
596.286	34554.69
596.482	34366.28
596.679	34198.35
596.876	34814.79
597.072	34054.99
597.269	34009.93
597.466	33899.34
597.662	33915.73
597.859	33880.91
598.055	33874.77
598.252	33594.2
598.448	33733.46
598.645	33645.4
598.841	33067.87
599.038	32949.09
599.234	33424.22
599.431	33133.4
599.627	32813.92
599.824	33006.43
600.02	32412.52
600.217	32490.34
600.413	32435.05
600.609	32457.57
600.806	32183.15
601.002	32746.34
601.198	32252.78
601.395	31892.33
601.591	32007.02
601.787	31861.62
601.984	31540.08
602.18	32072.56
602.376	31673.2
602.572	31351.67
602.769	31308.66
602.965	30776.19
603.161	31394.68
603.357	31067
603.553	30864.25
603.75	31382.39
603.946	30671.75
604.142	31007.61
604.338	30266.25
604.534	30636.93
604.73	30389.13
604.926	30528.39
605.122	30788.48
605.318	30245.77
605.514	29778.83
605.71	30053.26
605.906	29856.65
606.102	29971.34
606.298	30000.01
606.494	29819.79
606.69	29522.83
606.886	29711.25
607.082	29578.13
607.278	29750.16
607.474	28945.31
607.67	29393.81
607.866	28650.4
608.062	29340.57
608.257	28865.44
608.453	29449.11
608.649	29103
608.845	28726.17
609.041	28760.99
609.236	28797.85
609.432	28713.89
609.628	28455.84
609.824	28586.91
610.019	28292.01
610.215	28216.23
610.411	28300.2
610.606	28085.16
610.802	28660.64
610.998	28423.08
611.193	28246.95
611.389	28015.53
611.584	28300.2
611.78	27775.92
611.976	27761.58
612.171	27581.36
612.367	27866.03
612.562	27837.36
612.758	27339.7
612.953	27370.42
613.149	27640.75
613.344	27106.23
613.539	27902.89
613.735	27370.42
613.93	27319.22
614.126	27431.86
614.321	27675.57
614.517	27249.59
614.712	27120.57
614.907	27292.6
615.103	27044.79
615.298	26889.15
615.493	27157.43
615.688	26276.8
615.884	27208.63
616.079	26731.45
616.274	26647.49
616.47	26526.66
616.665	26473.41
616.86	26278.85
617.055	26624.96
617.25	25865.16
617.445	26581.95
617.641	26104.77
617.836	26239.94
618.031	25922.51
618.226	25990.09
618.421	25672.65
618.616	25994.18
618.811	25484.24
619.006	25926.6
619.201	25383.89
619.396	25670.61
619.591	25258.96
619.786	25584.59
619.981	24767.45
620.176	25318.35
620.371	24794.07
620.566	24984.54
620.761	24902.62
620.956	25078.74
621.151	24191.97
621.346	24742.88
621.541	24230.88
621.735	24476.64
621.93	23825.39
622.125	23892.97
622.32	23817.19
622.515	24034.28
622.709	23569.39
622.904	23661.55
623.099	23229.43
623.294	23493.61
623.488	22983.67
623.683	23372.78
623.878	22774.78
624.072	22852.6
624.267	22799.35
624.462	22600.7
624.656	22668.28
624.851	22316.03
625.046	21990.41
625.24	22328.32
625.435	21847.05
625.629	21754.89
625.824	21660.68
626.018	21578.76
626.213	21404.69
626.407	21335.06
626.602	21165.07
626.796	21201.94
626.991	21382.16
627.185	20943.89
627.38	20591.64
627.574	20591.64
627.768	20542.49
627.963	20530.2
628.157	20225.06
628.352	20192.29
628.546	20239.39
628.74	20196.39
628.935	19686.44
629.129	20114.47
629.323	19555.37
629.517	19538.99
629.712	19733.54
629.906	19557.42
630.1	19203.12
630.294	19172.4
630.489	19057.71
630.683	19305.52
630.877	18861.11
631.071	18877.49
631.265	19104.82
631.459	18586.68
631.653	18506.81
631.848	18578.49
632.042	18447.42
632.236	18687.03
632.43	18394.17
632.624	18363.45
632.818	17865.8
633.012	18015.3
633.206	17802.31
633.4	18013.25
633.594	17337.42
633.788	17484.87
633.982	17615.94
634.176	17546.31
634.369	17226.83
634.563	17167.44
634.757	17071.18
634.951	17169.49
635.145	17032.27
635.339	16962.64
635.533	16770.13
635.726	16897.11
635.92	16489.56
636.114	16497.75
636.308	16307.29
636.501	16301.15
636.695	16272.48
636.889	16047.2
637.083	16051.3
637.276	15842.4
637.47	15686.76
637.664	15727.72
637.857	16000.1
638.051	15879.27
638.244	15547.5
638.438	15649.89
638.632	15418.47
638.825	15154.29
639.019	15094.89
639.212	15076.46
639.406	15064.18
639.599	14892.15
639.793	14834.8
639.986	14705.78
640.18	14863.47
640.373	14640.25
640.567	14597.24
640.76	14417.02
640.954	14408.83
641.147	14111.87
641.34	14345.34
641.534	14232.7
641.727	14222.46
641.92	14062.72
642.114	14019.71
642.307	13845.63
642.5	13849.73
642.694	13784.19
642.887	13659.27
643.08	13606.02
643.273	13513.86
643.467	13393.03
643.66	13327.5
643.853	13288.59
644.046	13071.5
644.239	13137.04
644.432	13182.09
644.626	12835.99
644.819	12663.96
645.012	12973.2
645.205	13073.55
645.398	12829.84
645.591	12524.69
645.784	12602.52
645.977	12639.38
646.17	12530.84
646.363	12311.71
646.556	12301.47
646.749	12383.38
646.942	12475.54
647.135	12186.78
647.328	12059.81
647.521	11988.13
647.714	11672.74
647.907	11881.63
648.099	11902.11
648.292	11908.26
648.485	11842.72
648.678	11553.96
648.871	11619.49
649.064	11474.09
649.256	11744.42
649.449	11488.42
649.642	11187.37
649.835	11248.81
650.027	11162.8
650.22	11134.12
650.413	11025.58
650.605	11011.25
650.798	10982.57
650.991	11021.49
651.183	10869.94
651.376	10988.72
651.568	10720.43
651.761	10548.4
651.954	10607.8
652.146	10638.51
652.339	10435.77
652.531	10446.01
652.724	10611.89
652.916	10345.66
653.109	10378.42
653.301	10323.13
653.494	10534.07
653.686	10101.95
653.879	10302.65
654.071	10130.62
654.263	10026.17
654.456	9929.92
654.648	10075.32
654.84	9684.16
655.033	9825.47
655.225	9622.72
655.417	9839.81
655.61	9622.72
655.802	9673.92
655.994	9452.74
656.186	9452.74
656.379	9233.61
656.571	9374.92
656.763	9202.89
656.955	9235.66
657.148	9110.73
657.34	9153.74
657.532	9145.55
657.724	9229.51
657.916	9032.91
658.108	9090.25
658.3	8938.7
658.492	8940.75
658.684	8932.56
658.876	8969.42
659.068	8864.97
659.26	8627.41
659.452	8793.3
659.644	8891.6
659.836	8512.72
660.028	8633.55
660.22	8404.18
660.412	8504.53
660.604	8410.33
660.796	8484.05
660.988	8334.55
661.18	8307.93
661.372	8197.34
661.563	8260.82
661.755	8029.4
661.947	8230.1
662.139	8068.31
662.331	8094.94
662.522	7957.72
662.714	8125.66
662.906	7863.52
663.097	7996.64
663.289	7757.02
663.481	7881.95
663.673	7781.6
663.864	7681.25
664.056	7650.53
664.247	7650.53
664.439	7484.64
664.631	7445.73
664.822	7628
665.014	7388.39
665.205	7449.83
665.397	7404.77
665.588	7445.73
665.78	7369.96
665.971	7318.76
666.163	7400.68
666.354	7292.13
666.546	7265.51
666.737	7120.1
666.929	7265.51
667.12	7173.35
667.311	7167.21
667.503	7167.21
667.694	7023.85
667.885	7062.76
668.077	7040.23
668.268	6958.32
668.459	6970.6
668.651	6886.64
668.842	6751.47
669.033	6868.2
669.224	6657.26
669.416	6655.22
669.607	6735.09
669.798	6659.31
669.989	6765.81
670.18	6622.45
670.371	6513.91
670.563	6499.57
670.754	6524.15
670.945	6481.14
671.136	6409.46
671.327	6399.22
671.518	6483.19
671.709	6503.67
671.9	6331.64
672.091	6436.08
672.282	6468.85
672.473	6208.76
672.664	6286.58
672.855	6237.43
673.046	6241.53
673.237	6448.37
673.428	6157.56
673.619	6206.71
673.809	6243.57
674	6249.72
674.191	6175.99
674.382	6030.59
674.573	6010.11
674.764	6018.3
674.954	6003.96
675.145	5819.64
675.336	6061.3
675.527	6016.25
675.717	6014.2
675.908	5762.3
676.099	5819.64
676.289	5899.52
676.48	5848.32
676.671	5848.32
676.861	5870.84
677.052	5666.05
677.243	5856.51
677.433	5666.05
677.624	5733.63
677.814	5664
678.005	5610.75
678.195	5817.6
678.386	5707.01
678.576	5684.48
678.767	5692.67
678.957	5555.46
679.148	5604.61
679.338	5620.99
679.529	5528.83
679.719	5594.37
679.909	5793.02
680.1	5682.43
680.29	5504.26
680.481	5520.64
680.671	5743.87
680.861	5418.24
681.052	5590.27
681.242	5477.63
681.432	5600.51
681.622	5405.95
681.813	5434.63
682.003	5395.71
682.193	5528.83
682.383	5618.94
682.573	5446.91
682.764	5399.81
682.954	5528.83
683.144	5424.39
683.334	5422.34
683.524	5164.29
683.714	5403.91
683.904	5336.32
684.094	5307.65
684.284	5264.64
684.474	5416.19
684.664	5328.13
684.854	5385.48
685.044	5289.22
685.234	5205.25
685.424	5334.28
685.614	5233.93
685.804	5268.74
685.994	5205.25
686.184	5434.63
686.374	5121.29
686.564	5178.63
686.753	5299.46
686.943	5082.38
687.133	5082.38
687.323	4992.27
687.513	5139.72
687.702	4934.92
687.892	4918.54
688.082	4865.29
688.272	4945.16
688.461	5104.9
688.651	4963.59
688.841	4902.15
689.03	4893.96
689.22	5049.61
689.41	4893.96
689.599	4797.71
689.789	4687.12
689.979	4834.57
690.168	4707.6
690.358	4738.32
690.547	4719.89
690.737	4701.45
690.926	4621.58
691.116	4568.34
691.305	4709.65
691.495	4547.86
691.684	4521.23
691.874	4371.73
692.063	4656.4
692.252	4517.14
692.442	4476.18
692.631	4558.1
692.82	4351.25
693.01	4443.41
693.199	4472.08
693.388	4328.72
693.578	4279.57
693.767	4431.12
693.956	4396.31
694.146	4355.35
694.335	4304.15
694.524	4478.22
694.713	4322.58
694.902	4447.51
695.092	4338.96
695.281	4291.86
695.47	4240.66
695.659	4341.01
695.848	4318.48
696.037	4226.32
696.226	4154.65
696.415	4060.44
696.604	4033.82
696.793	4199.7
696.982	4111.64
697.171	4240.66
697.36	4173.08
697.549	4050.2
697.738	4076.82
697.927	4031.77
698.116	4111.64
698.305	4140.31
698.494	4148.5
698.683	4066.58
698.872	4168.98
699.061	3962.14
699.25	3898.65
699.438	4023.58
699.627	4005.14
699.816	3910.94
700.005	4017.43
700.193	4042.01
700.382	3988.76
700.571	3972.38
700.76	3966.23
700.948	3994.9
701.137	3966.23
701.326	4123.93
701.514	3927.32
701.703	3904.79
701.892	3931.42
702.08	3935.51
702.269	3837.21
702.457	3734.81
702.646	3902.75
702.834	3822.88
703.023	4013.34
703.212	3982.62
703.4	3857.69
703.589	3888.41
703.777	3970.33
703.965	3796.25
704.154	3923.23
704.342	3904.79
704.531	3880.22
704.719	3886.36
704.907	3853.59
705.096	3915.03
705.284	3761.44
705.472	3781.92
705.661	3855.64
705.849	3837.21
706.037	3896.6
706.226	3773.72
706.414	3882.27
706.602	3781.92
706.79	3808.54
706.979	3763.48
707.167	4007.19
707.355	3912.99
707.543	3783.96
707.731	3812.64
707.919	3798.3
708.107	3693.85
708.296	3777.82
708.484	3720.48
708.672	3689.76
708.86	3788.06
709.048	3863.83
709.236	3743
709.424	3700
709.612	3765.53
709.8	3788.06
709.988	3730.72
710.176	3700
710.364	3747.1
710.551	3691.8
710.739	3683.61
710.927	3730.72
711.115	3835.16
711.303	3734.81
711.491	3706.14
711.679	3636.51
711.866	3749.15
712.054	3800.35
712.242	3669.28
712.43	3794.2
712.617	3724.57
712.805	3628.32
712.993	3693.85
713.181	3671.33
713.368	3718.43
713.556	3679.52
713.744	3716.38
713.931	3861.79
714.119	3730.72
714.306	3816.73
714.494	3624.22
714.682	3872.03
714.869	3706.14
715.057	3775.77
715.244	3683.61
715.432	3804.44
715.619	3779.87
715.807	3648.8
715.994	3759.39
716.182	3585.31
716.369	3673.37
716.556	3601.69
716.744	3704.09
716.931	3693.85
717.119	3704.09
717.306	3687.71
717.493	3665.18
717.681	3622.17
717.868	3620.13
718.055	3667.23
718.242	3667.23
718.43	3700
718.617	3618.08
718.804	3769.63
718.991	3677.47
719.179	3749.15
719.366	3628.32
719.553	3634.46
719.74	3585.31
719.927	3661.09
720.114	3566.88
720.301	3712.28
720.488	3554.59
720.676	3661.09
720.863	3714.33
721.05	3626.27
721.237	3685.66
721.424	3638.56
721.611	3556.64
721.798	3622.17
721.985	3695.9
722.172	3446.05
722.358	3636.51
722.545	3525.92
722.732	3597.6
722.919	3618.08
723.106	3747.1
723.293	3710.24
723.48	3618.08
723.667	3564.83
723.853	3646.75
724.04	3687.71
724.227	3566.88
724.414	3538.21
724.6	3575.07
724.787	3591.45
724.974	3511.58
725.161	3452.19
725.347	3417.38
725.534	3464.48
725.72	3564.83
725.907	3525.92
726.094	3478.82
726.28	3456.29
726.467	3497.25
726.653	3607.84
726.84	3593.5
727.027	3493.15
727.213	3431.71
727.4	3562.78
727.586	3437.86
727.773	3468.58
727.959	3628.32
728.145	3470.62
728.332	3378.47
728.518	3566.88
728.705	3593.5
728.891	3444
729.077	3499.3
729.264	3411.23
729.45	3450.14
729.636	3552.54
729.823	3448.1
730.009	3478.82
730.195	3423.52
730.382	3497.25
730.568	3392.8
730.754	3415.33
730.94	3558.69
731.126	3566.88
731.313	3403.04
731.499	3460.38
731.685	3423.52
731.871	3466.53
732.057	3462.43
732.243	3462.43
732.429	3464.48
732.615	3360.03
732.801	3493.15
732.987	3464.48
733.173	3382.56
733.359	3366.18
733.545	3294.5
733.731	3308.83
733.917	3368.23
734.103	3376.42
734.289	3458.34
734.475	3286.31
734.661	3357.99
734.847	3366.18
735.033	3386.66
735.219	3466.53
735.404	3372.32
735.59	3282.21
735.776	3296.55
735.962	3351.84
736.148	3292.45
736.333	3249.44
736.519	3243.3
736.705	3249.44
736.89	3210.53
737.076	3347.75
737.262	3124.52
737.447	3259.68
737.633	3142.95
737.819	3321.12
738.004	3253.54
738.19	3147.05
738.375	3130.66
738.561	3300.64
738.747	3265.83
738.932	3149.09
739.118	3183.91
739.303	3171.62
739.489	3046.69
739.674	2970.92
739.859	3138.85
740.045	3013.93
740.23	3040.55
740.416	3118.37
740.601	3208.48
740.786	3001.64
740.972	3001.64
741.157	3046.69
741.342	3005.74
741.528	3112.23
741.713	3040.55
741.898	3087.65
742.084	2895.15
742.269	2886.95
742.454	3042.6
742.639	2981.16
742.824	2938.15
743.01	2805.03
743.195	3087.65
743.38	2893.1
743.565	2903.34
743.75	2843.95
743.935	2835.75
744.12	2970.92
744.305	2827.56
744.49	2934.06
744.675	2780.46
744.86	2886.95
745.045	2776.36
745.23	2698.54
745.415	2860.33
745.6	2743.6
745.785	2862.38
745.97	2639.15
746.155	2649.39
746.34	2757.93
746.525	2657.58
746.71	2590
746.895	2637.1
747.079	2710.83
747.264	2598.19
747.449	2567.47
747.634	2737.45
747.819	2643.24
748.003	2620.72
748.188	2479.41
748.373	2536.75
748.557	2546.99
748.742	2497.84
748.927	2487.6
749.111	2385.2
749.296	2420.02
749.481	2448.69
749.665	2448.69
749.85	2334
750.034	2438.45
750.219	2387.25
750.404	2370.87
750.588	2358.58
750.773	2241.84
750.957	2315.57
751.141	2211.12
751.326	2272.56
751.51	2241.84
751.695	2227.51
751.879	2198.84
752.064	2121.01
752.248	2190.64
752.432	2260.27
752.617	2270.51
752.801	2239.8
752.985	2088.25
753.17	2166.07
753.354	2051.38
753.538	2045.24
753.722	2061.62
753.907	2133.3
754.091	1926.46
754.275	2035
754.459	1994.04
754.643	2028.85
754.828	1996.09
755.012	1985.85
755.196	1873.21
755.38	1858.87
755.564	1934.65
755.748	1832.25
755.932	2014.52
756.116	1871.16
756.3	1887.54
756.484	1815.87
756.668	1867.06
756.852	1707.32
757.036	1846.59
757.22	1789.24
757.404	1828.15
757.588	1793.34
757.772	1799.48
757.956	1725.75
758.14	1735.99
758.323	1723.71
758.507	1799.48
758.691	1699.13
758.875	1582.4
759.059	1711.42
759.242	1742.14
759.426	1649.98
759.61	1635.64
759.794	1625.4
759.977	1611.07
760.161	1617.21
760.345	1629.5
760.528	1645.88
760.712	1578.3
760.895	1547.58
761.079	1527.1
761.263	1504.57
761.446	1553.73
761.63	1510.72
761.813	1561.92
761.997	1510.72
762.18	1467.71
762.364	1502.53
762.547	1373.5
762.731	1504.57
762.914	1600.83
763.098	1420.61
763.281	1461.57
763.464	1430.85
763.648	1393.98
763.831	1482.05
764.015	1320.26
764.198	1490.24
764.381	1426.75
764.564	1359.17
764.748	1441.09
764.931	1426.75
765.114	1426.75
765.297	1473.85
765.481	1412.42
765.664	1439.04
765.847	1310.02
766.03	1385.79
766.213	1287.49
766.397	1330.5
766.58	1344.83
766.763	1418.56
766.946	1371.46
767.129	1291.59
767.312	1320.26
767.495	1310.02
767.678	1279.3
767.861	1324.35
768.044	1244.48
768.227	1232.19
768.41	1324.35
768.593	1307.97
768.776	1199.43
768.959	1408.32
769.142	1252.67
769.324	1176.9
769.507	1262.91
769.69	1146.18
769.873	1232.19
770.056	1291.59
770.239	1287.49
770.421	1213.76
770.604	1209.67
770.787	1187.14
770.97	1150.28
771.152	1148.23
771.335	1215.81
771.518	1250.63
771.7	1178.95
771.883	1201.48
772.066	1166.66
772.248	1199.43
772.431	1219.91
772.613	1129.8
772.796	1054.02
772.978	1199.43
773.161	1121.6
773.343	1140.04
773.526	1178.95
773.708	1039.69
773.891	1123.65
774.073	1101.12
774.256	1004.87
774.438	1103.17
774.621	980.29
774.803	1107.27
774.985	996.68
775.168	1072.45
775.35	1031.49
775.532	1006.92
775.715	859.46
775.897	1056.07
776.079	992.58
776.261	1000.77
776.444	937.29
776.626	1017.16
776.808	957.77
776.99	1002.82
777.173	1037.64
777.355	896.33
777.537	910.66
777.719	881.99
777.901	875.85
778.083	838.98
778.265	834.89
778.447	881.99
778.629	818.5
778.811	853.32
778.993	849.22
779.175	920.9
779.357	912.71
779.539	834.89
779.721	863.56
779.903	861.51
780.085	767.31
780.267	757.07
780.449	818.5
780.631	910.66
780.812	800.07
780.994	746.83
781.176	777.55
781.358	855.37
781.54	791.88
781.721	795.98
781.903	781.64
782.085	798.03
782.267	777.55
782.448	752.97
782.63	709.96
782.812	781.64
782.993	730.44
783.175	728.39
783.357	730.44
783.538	732.49
783.72	679.24
783.901	765.26
784.083	693.58
784.264	669
784.446	650.57
784.627	681.29
784.809	562.51
784.99	652.62
785.172	720.2
785.353	626
785.535	597.32
785.716	597.32
785.897	636.24
786.079	587.08
786.26	638.28
786.441	630.09
786.623	638.28
786.804	556.36
786.985	546.12
787.167	660.81
787.348	484.69
787.529	525.65
787.71	615.76
787.891	597.32
788.073	568.65
788.254	533.84
788.435	593.23
788.616	566.6
788.797	488.78
788.978	531.79
789.159	560.46
789.34	560.46
789.522	517.45
789.703	564.56
789.884	476.49
790.065	560.46
790.246	486.73
790.427	503.12
790.607	537.93
790.788	505.17
790.969	513.36
791.15	531.79
791.331	402.77
791.512	464.21
791.693	456.01
791.874	492.88
792.054	496.97
792.235	460.11
792.416	499.02
792.597	441.68
792.778	550.22
792.958	464.21
793.139	417.1
793.32	474.45
793.5	494.93
793.681	474.45
793.862	443.73
794.042	365.9
794.223	425.29
794.404	509.26
794.584	437.58
794.765	456.01
794.945	417.1
795.126	478.54
795.306	380.24
795.487	427.34
795.667	394.58
795.848	466.25
796.028	372.05
796.209	423.25
796.389	425.29
796.57	453.97
796.75	386.38
796.93	445.77
797.111	324.94
797.291	341.33
797.471	357.71
797.652	404.82
797.832	406.86
798.012	415.06
798.192	331.09
798.373	329.04
798.553	394.58
798.733	392.53
798.913	314.7
799.093	398.67
799.274	322.9
799.454	396.62
799.634	324.94
799.814	413.01
799.994	357.71
800.174	425.29
800.354	288.08
800.534	361.81
800.714	331.09
800.894	347.47
801.074	298.32
801.254	322.9
801.434	376.14
801.614	318.8
801.794	357.71
801.974	855.37
802.154	236.88
802.334	382.29
802.514	351.57
802.693	308.56
802.873	302.42
803.053	318.8
803.233	365.9
803.413	310.61
803.592	232.79
803.772	298.32
803.952	349.52
804.131	214.35
804.311	318.8
804.491	298.32
804.67	243.03
804.85	359.76
805.03	361.81
805.209	292.18
805.389	343.38
805.568	355.66
805.748	251.22
805.928	279.89
806.107	255.31
806.287	318.8
806.466	308.56
806.646	292.18
806.825	343.38
807.004	341.33
807.184	302.42
807.363	296.27
807.543	288.08
807.722	269.65
807.901	236.88
808.081	331.09
808.26	216.4
808.439	300.37
808.619	232.79
808.798	347.47
808.977	273.75
809.156	193.87
809.336	288.08
809.515	243.03
809.694	212.31
809.873	269.65
810.052	247.12
810.231	247.12
810.411	279.89
810.59	277.84
810.769	167.25
810.948	349.52
811.127	220.5
811.306	171.35
811.485	214.35
811.664	279.89
811.843	290.13
812.022	200.02
812.201	195.92
812.38	200.02
812.559	245.07
812.737	265.55
812.916	228.69
813.095	300.37
813.274	185.68
813.453	271.7
813.632	238.93
813.811	290.13
813.989	228.69
814.168	275.79
814.347	154.96
814.526	249.17
814.704	302.42
814.883	265.55
815.062	271.7
815.24	240.98
815.419	177.49
815.598	259.41
815.776	224.59
815.955	161.11
816.133	202.07
816.312	277.84
816.49	181.59
816.669	251.22
816.847	220.5
817.026	128.34
817.204	253.27
817.383	154.96
817.561	152.91
817.74	191.83
817.918	226.64
818.097	185.68
818.275	95.57
818.453	265.55
818.632	261.46
818.81	200.02
818.988	109.91
819.167	142.68
819.345	202.07
819.523	146.77
819.701	165.2
819.879	210.26
820.058	204.11
820.236	226.64
820.414	146.77
820.592	179.54
820.77	191.83
820.948	75.09
821.127	208.21
821.305	234.83
821.483	122.2
821.661	306.51
821.839	144.72
822.017	140.63
822.195	212.31
822.373	206.16
822.551	136.53
822.729	251.22
822.907	126.29
823.085	240.98
823.262	232.79
823.44	138.58
823.618	101.72
823.796	161.11
823.974	148.82
824.152	191.83
824.329	81.24
824.507	169.3
824.685	146.77
824.863	136.53
825.04	83.28
825.218	114
825.396	167.25
825.574	130.39
825.751	216.4
825.929	220.5
826.107	114
826.284	185.68
826.462	181.59
826.639	161.11
826.817	144.72
826.994	177.49
827.172	181.59
827.349	154.96
827.527	64.85
827.704	144.72
827.882	179.54
828.059	159.06
828.237	58.71
828.414	185.68
828.591	146.77
828.769	163.15
828.946	130.39
829.124	122.2
829.301	171.35
829.478	124.24
829.655	52.56
829.833	208.21
830.01	56.66
830.187	120.15
830.364	214.35
830.542	138.58
830.719	216.4
830.896	179.54
831.073	68.95
831.25	126.29
831.427	118.1
831.604	146.77
831.782	105.81
831.959	187.73
832.136	124.24
832.313	128.34
832.49	83.28
832.667	232.79
832.844	89.43
833.021	126.29
833.198	62.8
833.374	154.96
833.551	56.66
833.728	116.05
833.905	114
834.082	83.28
834.259	146.77
834.436	181.59
834.612	111.96
834.789	118.1
834.966	38.23
835.143	83.28
835.319	17.75
835.496	91.48
835.673	124.24
835.85	109.91
836.026	130.39
836.203	124.24
836.38	64.85
836.556	171.35
836.733	77.14
836.909	111.96
837.086	130.39
837.262	15.7
837.439	136.53
837.616	73.04
837.792	91.48
837.968	122.2
838.145	122.2
838.321	111.96
838.498	152.91
838.674	25.94
838.851	111.96
839.027	56.66
839.203	97.62
839.38	134.48
839.556	85.33
839.732	154.96
839.909	83.28
840.085	154.96
840.261	3.41
840.437	95.57
840.614	103.76
840.79	52.56
840.966	130.39
841.142	93.52
841.318	130.39
841.494	132.44
841.671	109.91
841.847	44.37
842.023	42.32
842.199	56.66
842.375	116.05
842.551	95.57
842.727	107.86
842.903	150.87
843.079	77.14
843.255	40.28
843.431	68.95
843.607	87.38
843.783	-8.87
843.959	120.15
844.134	19.8
844.31	130.39
844.486	40.28
844.662	83.28
844.838	83.28
845.013	159.06
845.189	109.91
845.365	173.39
845.541	101.72
845.716	97.62
845.892	114
846.068	111.96
846.244	62.8
846.419	83.28
846.595	23.89
846.77	50.52
846.946	54.61
847.122	109.91
847.297	146.77
847.473	128.34
847.648	32.08
847.824	77.14
847.999	19.8
848.175	34.13
848.35	111.96
848.526	132.44
848.701	32.08
848.876	152.91
849.052	64.85
849.227	81.24
849.403	77.14
849.578	17.75
849.753	87.38
849.929	111.96
850.104	21.85
850.279	73.04
850.454	81.24
850.63	83.28
850.805	13.65
850.98	68.95
851.155	118.1
851.33	3.41
851.505	73.04
851.681	122.2
851.856	23.89
852.031	107.86
852.206	77.14
852.381	79.19
852.556	60.76
852.731	140.63
852.906	124.24
853.081	-17.07
853.256	118.1
853.431	111.96
853.606	40.28
853.781	30.04
853.956	9.56
854.131	105.81
854.305	81.24
854.48	64.85
854.655	54.61
854.83	71
855.005	62.8
855.18	46.42
855.354	21.85
855.529	46.42
855.704	116.05
855.879	91.48
856.053	-19.11
856.228	32.08
856.403	46.42
856.577	126.29
856.752	71
856.926	36.18
857.101	64.85
857.276	23.89
857.45	60.76
857.625	87.38
857.799	97.62
857.974	118.1
858.148	-31.4
858.323	73.04
858.497	-25.26
858.672	38.23
858.846	124.24
859.02	68.95
859.195	71
859.369	118.1
859.543	21.85
859.718	-33.45
859.892	-12.97
860.066	56.66
860.241	5.46
860.415	68.95
860.589	66.9
860.763	-19.11
860.938	101.72
861.112	93.52
861.286	68.95
861.46	75.09
861.634	38.23
861.808	99.67
861.982	34.13
862.157	5.46
862.331	56.66
862.505	91.48
862.679	13.65
862.853	25.94
863.027	46.42
863.201	87.38
863.375	-58.03
863.549	105.81
863.722	50.52
863.896	75.09
864.07	3.41
864.244	68.95
864.418	54.61
864.592	44.37
864.766	46.42
864.939	99.67
865.113	23.89
865.287	81.24
865.461	-17.07
865.634	-12.97
865.808	-27.31
865.982	-41.64
866.156	-10.92
866.329	19.8
866.503	-47.79
866.676	77.14
866.85	66.9
867.024	54.61
867.197	122.2
867.371	56.66
867.544	27.99
867.718	-8.87
867.891	-15.02
868.065	3.41
868.238	120.15
868.412	44.37
868.585	-29.35
868.759	48.47
868.932	-6.83
869.105	-10.92
869.279	120.15
869.452	-51.88
869.625	32.08
869.799	93.52
869.972	40.28
870.145	36.18
870.319	62.8
870.492	-64.17
870.665	-37.55
870.838	34.13
871.011	-0.68
871.185	107.86
871.358	19.8
871.531	19.8
871.704	38.23
871.877	19.8
872.05	-66.22
872.223	46.42
872.396	36.18
872.569	77.14
872.742	15.7
872.915	79.19
873.088	-19.11
873.261	52.56
873.434	-15.02
873.607	46.42
873.78	50.52
873.953	60.76
874.126	15.7
874.299	25.94
874.471	54.61
874.644	48.47
874.817	64.85
874.99	105.81
875.163	30.04
875.335	46.42
875.508	15.7
875.681	42.32
875.853	40.28
876.026	13.65
876.199	15.7
876.371	5.46
876.544	56.66
876.717	122.2
876.889	-74.41
877.062	87.38
877.234	58.71
877.407	-0.68
877.579	15.7
877.752	40.28
877.924	105.81
878.097	46.42
878.269	9.56
878.442	54.61
878.614	87.38
878.786	-19.11
878.959	48.47
879.131	46.42
879.303	-0.68
879.476	15.7
879.648	30.04
879.82	36.18
879.993	-49.83
880.165	11.61
880.337	21.85
880.509	50.52
880.681	-17.07
880.854	75.09
881.026	15.7
881.198	58.71
881.37	19.8
881.542	75.09
881.714	-27.31
881.886	-4.78
882.058	75.09
882.23	-4.78
882.402	19.8
882.574	32.08
882.746	50.52
882.918	60.76
883.09	68.95
883.262	-31.4
883.434	30.04
883.606	-37.55
883.778	13.65
883.95	89.43
884.122	42.32
884.293	73.04
884.465	25.94
884.637	122.2
884.809	7.51
884.98	66.9
885.152	-8.87
885.324	-4.78
885.496	32.08
885.667	73.04
885.839	50.52
886.011	58.71
886.182	-68.27
886.354	36.18
886.525	7.51
886.697	-29.35
886.869	-0.68
887.04	50.52
887.212	11.61
887.383	44.37
887.555	30.04
887.726	30.04
887.897	56.66
888.069	64.85
888.24	-23.21
888.412	54.61
888.583	-33.45
888.754	77.14
888.926	-35.5
889.097	-41.64
889.268	-10.92
889.44	50.52
889.611	52.56
889.782	9.56
889.953	-39.59
890.125	36.18
890.296	9.56
890.467	7.51
890.638	-4.78
890.809	13.65
890.98	21.85
891.151	1.37
891.323	-41.64
891.494	19.8
891.665	-0.68
891.836	101.72
892.007	-33.45
892.178	-35.5
892.349	54.61
892.52	46.42
892.691	7.51
892.862	-37.55
893.032	-49.83
893.203	93.52
893.374	25.94
893.545	46.42
893.716	81.24
893.887	97.62
894.057	79.19
894.228	23.89
894.399	-72.36
894.57	73.04
894.74	48.47
894.911	48.47
895.082	40.28
895.253	3.41
895.423	7.51
895.594	50.52
895.764	66.9
895.935	-0.68
896.106	13.65
896.276	11.61
896.447	68.95
896.617	-15.02
896.788	23.89
896.958	5.46
897.129	27.99
897.299	-25.26
897.47	97.62
897.64	52.56
897.81	19.8
897.981	68.95
898.151	-39.59
898.322	32.08
898.492	50.52
898.662	-12.97
898.832	11.61
899.003	60.76
899.173	60.76
899.343	38.23
899.513	-23.21
