Data from USB4F104151__34__10-22-11-124.txt Node

Date: Wed Mar 12 10:22:11 EDT 2025
User: louis
Spectrometer: USB4F10415
Trigger mode: 4
Integration Time (sec): 3.000000E-2
Scans to average: 1
Electric dark correction enabled: true
Nonlinearity correction enabled: false
Boxcar width: 0
XAxis mode: Wavelengths
Number of Pixels in Spectrum: 3648
>>>>>Begin Spectral Data<<<<<
178.204	-143.53
178.424	-143.53
178.644	-143.53
178.864	-137.38
179.084	-145.58
179.304	42.84
179.524	59.22
179.744	-6.31
179.964	-6.31
180.184	-24.75
180.404	-24.75
180.624	1.88
180.844	100.18
181.064	-63.66
181.283	-30.89
181.503	-98.47
181.723	51.03
181.943	-0.17
182.163	75.6
182.383	26.45
182.602	57.17
182.822	59.22
183.042	22.36
183.262	-0.17
183.482	8.02
183.701	24.4
183.921	-4.27
184.141	-39.08
184.361	22.36
184.58	5.97
184.8	118.61
185.02	1.88
185.239	22.36
185.459	-12.46
185.679	40.79
185.898	-26.79
186.118	-6.31
186.338	-55.47
186.557	30.55
186.777	-8.36
186.997	-8.36
187.216	16.21
187.436	85.84
187.655	-0.17
187.875	34.64
188.095	-32.94
188.314	-22.7
188.534	26.45
188.753	12.12
188.973	8.02
189.192	65.36
189.412	46.93
189.631	34.64
189.851	3.93
190.07	65.36
190.29	-28.84
190.509	18.26
190.729	16.21
190.948	83.8
191.168	110.42
191.387	130.9
191.607	-10.41
191.826	89.94
192.045	-12.46
192.265	53.08
192.484	20.31
192.704	-4.27
192.923	-20.65
193.142	106.32
193.362	63.32
193.581	79.7
193.8	46.93
194.02	22.36
194.239	-16.55
194.458	-2.22
194.678	-30.89
194.897	8.02
195.116	57.17
195.335	14.17
195.555	55.12
195.774	98.13
195.993	36.69
196.212	-18.6
196.432	8.02
196.651	55.12
196.87	32.6
197.089	108.37
197.308	139.09
197.528	32.6
197.747	5.97
197.966	14.17
198.185	28.5
198.404	40.79
198.623	-51.37
198.842	46.93
199.062	44.88
199.281	55.12
199.5	22.36
199.719	34.64
199.938	34.64
200.157	44.88
200.376	18.26
200.595	48.98
200.814	38.74
201.033	-2.22
201.252	48.98
201.471	42.84
201.69	63.32
201.909	-43.18
202.128	48.98
202.347	22.36
202.566	-30.89
202.785	-32.94
203.004	26.45
203.223	67.41
203.442	-32.94
203.661	-8.36
203.879	-4.27
204.098	24.4
204.317	1.88
204.536	-16.55
204.755	14.17
204.974	128.85
205.193	42.84
205.411	40.79
205.63	48.98
205.849	75.6
206.068	20.31
206.287	28.5
206.505	16.21
206.724	73.56
206.943	-16.55
207.162	10.07
207.381	-32.94
207.599	55.12
207.818	67.41
208.037	-2.22
208.255	16.21
208.474	40.79
208.693	-34.99
208.911	12.12
209.13	-8.36
209.349	55.12
209.567	57.17
209.786	3.93
210.005	24.4
210.223	18.26
210.442	-4.27
210.661	67.41
210.879	26.45
211.098	32.6
211.316	63.32
211.535	10.07
211.753	-10.41
211.972	65.36
212.191	32.6
212.409	-6.31
212.628	14.17
212.846	16.21
213.065	96.08
213.283	-39.08
213.502	46.93
213.72	-22.7
213.938	1.88
214.157	16.21
214.375	67.41
214.594	89.94
214.812	-8.36
215.031	44.88
215.249	32.6
215.467	10.07
215.686	-55.47
215.904	42.84
216.122	104.28
216.341	-20.65
216.559	34.64
216.778	55.12
216.996	83.8
217.214	38.74
217.432	18.26
217.651	-14.51
217.869	-61.61
218.087	63.32
218.306	40.79
218.524	91.99
218.742	42.84
218.96	53.08
219.179	14.17
219.397	71.51
219.615	-0.17
219.833	3.93
220.051	-14.51
220.27	26.45
220.488	81.75
220.706	12.12
220.924	-24.75
221.142	40.79
221.36	10.07
221.578	48.98
221.796	40.79
222.015	34.64
222.233	22.36
222.451	51.03
222.669	-43.18
222.887	44.88
223.105	-16.55
223.323	-8.36
223.541	67.41
223.759	73.56
223.977	-18.6
224.195	14.17
224.413	26.45
224.631	59.22
224.849	130.9
225.067	137.04
225.285	42.84
225.503	-59.56
225.721	-57.51
225.939	-12.46
226.157	-71.85
226.375	96.08
226.592	1.88
226.81	30.55
227.028	42.84
227.246	77.65
227.464	100.18
227.682	10.07
227.9	5.97
228.117	53.08
228.335	65.36
228.553	1.88
228.771	-10.41
228.989	20.31
229.206	-39.08
229.424	24.4
229.642	-49.32
229.86	-8.36
230.077	-24.75
230.295	16.21
230.513	81.75
230.731	14.17
230.948	18.26
231.166	147.28
231.384	10.07
231.601	8.02
231.819	51.03
232.037	22.36
232.254	16.21
232.472	22.36
232.689	18.26
232.907	65.36
233.125	-34.99
233.342	22.36
233.56	28.5
233.777	42.84
233.995	28.5
234.213	32.6
234.43	18.26
234.648	18.26
234.865	32.6
235.083	18.26
235.3	8.02
235.518	79.7
235.735	63.32
235.953	65.36
236.17	42.84
236.388	87.89
236.605	16.21
236.822	42.84
237.04	57.17
237.257	22.36
237.475	-18.6
237.692	36.69
237.909	36.69
238.127	69.46
238.344	112.47
238.562	42.84
238.779	-14.51
238.996	53.08
239.214	8.02
239.431	57.17
239.648	-16.55
239.865	139.09
240.083	18.26
240.3	100.18
240.517	3.93
240.735	-14.51
240.952	75.6
241.169	75.6
241.386	-43.18
241.603	42.84
241.821	-0.17
242.038	26.45
242.255	75.6
242.472	24.4
242.689	87.89
242.907	96.08
243.124	51.03
243.341	1.88
243.558	-47.27
243.775	-16.55
243.992	-6.31
244.209	20.31
244.426	102.23
244.643	57.17
244.86	40.79
245.078	-41.13
245.295	34.64
245.512	69.46
245.729	5.97
245.946	26.45
246.163	-8.36
246.38	77.65
246.597	65.36
246.814	12.12
247.031	22.36
247.248	18.26
247.464	-4.27
247.681	-6.31
247.898	83.8
248.115	96.08
248.332	-20.65
248.549	24.4
248.766	122.71
248.983	67.41
249.2	3.93
249.417	63.32
249.633	57.17
249.85	38.74
250.067	38.74
250.284	30.55
250.501	75.6
250.717	22.36
250.934	-22.7
251.151	77.65
251.368	12.12
251.585	63.32
251.801	42.84
252.018	46.93
252.235	87.89
252.451	-63.66
252.668	10.07
252.885	24.4
253.102	14.17
253.318	75.6
253.535	-26.79
253.752	-16.55
253.968	42.84
254.185	14.17
254.401	-30.89
254.618	3.93
254.835	59.22
255.051	16.21
255.268	-10.41
255.484	48.98
255.701	89.94
255.917	65.36
256.134	-6.31
256.351	36.69
256.567	32.6
256.784	18.26
257	-37.03
257.217	24.4
257.433	46.93
257.65	153.43
257.866	63.32
258.082	46.93
258.299	10.07
258.515	102.23
258.732	98.13
258.948	-14.51
259.165	-47.27
259.381	59.22
259.597	20.31
259.814	5.97
260.03	12.12
260.246	36.69
260.463	34.64
260.679	65.36
260.895	-32.94
261.112	28.5
261.328	51.03
261.544	46.93
261.761	73.56
261.977	-12.46
262.193	-53.42
262.409	83.8
262.626	34.64
262.842	-14.51
263.058	-43.18
263.274	75.6
263.49	67.41
263.707	81.75
263.923	-26.79
264.139	1.88
264.355	30.55
264.571	32.6
264.787	44.88
265.004	-14.51
265.22	30.55
265.436	-22.7
265.652	32.6
265.868	12.12
266.084	26.45
266.3	14.17
266.516	1.88
266.732	10.07
266.948	16.21
267.164	14.17
267.38	-8.36
267.596	-14.51
267.812	53.08
268.028	100.18
268.244	-6.31
268.46	91.99
268.676	10.07
268.892	104.28
269.108	-6.31
269.324	22.36
269.54	30.55
269.756	36.69
269.972	-45.23
270.188	38.74
270.403	3.93
270.619	69.46
270.835	61.27
271.051	42.84
271.267	48.98
271.483	51.03
271.698	71.51
271.914	77.65
272.13	83.8
272.346	67.41
272.562	-16.55
272.777	61.27
272.993	40.79
273.209	71.51
273.425	65.36
273.64	-28.84
273.856	16.21
274.072	18.26
274.287	-34.99
274.503	-8.36
274.719	38.74
274.934	-14.51
275.15	34.64
275.366	34.64
275.581	-59.56
275.797	85.84
276.012	-57.51
276.228	40.79
276.444	85.84
276.659	48.98
276.875	73.56
277.09	-45.23
277.306	18.26
277.521	12.12
277.737	61.27
277.952	100.18
278.168	87.89
278.383	-26.79
278.599	53.08
278.814	-41.13
279.03	-26.79
279.245	100.18
279.461	1.88
279.676	124.76
279.892	69.46
280.107	-51.37
280.322	46.93
280.538	3.93
280.753	-2.22
280.969	44.88
281.184	-10.41
281.399	8.02
281.615	114.52
281.83	73.56
282.045	-4.27
282.26	14.17
282.476	96.08
282.691	112.47
282.906	85.84
283.122	-2.22
283.337	-32.94
283.552	30.55
283.767	44.88
283.983	83.8
284.198	36.69
284.413	87.89
284.628	-26.79
284.843	48.98
285.058	30.55
285.274	16.21
285.489	10.07
285.704	79.7
285.919	137.04
286.134	-10.41
286.349	-41.13
286.564	42.84
286.779	34.64
286.995	55.12
287.21	40.79
287.425	20.31
287.64	67.41
287.855	59.22
288.07	38.74
288.285	20.31
288.5	71.51
288.715	38.74
288.93	-30.89
289.145	-24.75
289.36	14.17
289.575	71.51
289.79	-14.51
290.004	-14.51
290.219	30.55
290.434	8.02
290.649	-43.18
290.864	59.22
291.079	67.41
291.294	79.7
291.509	34.64
291.724	32.6
291.938	57.17
292.153	40.79
292.368	22.36
292.583	40.79
292.798	55.12
293.012	63.32
293.227	-18.6
293.442	38.74
293.657	71.51
293.871	124.76
294.086	57.17
294.301	34.64
294.516	46.93
294.73	44.88
294.945	5.97
295.16	55.12
295.374	81.75
295.589	16.21
295.804	42.84
296.018	51.03
296.233	112.47
296.447	57.17
296.662	-14.51
296.877	57.17
297.091	46.93
297.306	89.94
297.52	44.88
297.735	89.94
297.949	8.02
298.164	89.94
298.378	75.6
298.593	10.07
298.807	-18.6
299.022	36.69
299.236	91.99
299.451	30.55
299.665	42.84
299.88	10.07
300.094	61.27
300.309	59.22
300.523	65.36
300.737	53.08
300.952	57.17
301.166	81.75
301.381	16.21
301.595	28.5
301.809	30.55
302.024	-22.7
302.238	-2.22
302.452	69.46
302.667	-24.75
302.881	85.84
303.095	77.65
303.309	22.36
303.524	46.93
303.738	18.26
303.952	42.84
304.166	67.41
304.381	14.17
304.595	135
304.809	22.36
305.023	14.17
305.237	-24.75
305.452	-28.84
305.666	79.7
305.88	63.32
306.094	48.98
306.308	30.55
306.522	141.14
306.736	22.36
306.95	53.08
307.164	-43.18
307.379	98.13
307.593	65.36
307.807	28.5
308.021	36.69
308.235	40.79
308.449	16.21
308.663	75.6
308.877	94.04
309.091	106.32
309.305	-47.27
309.519	-12.46
309.733	65.36
309.947	-20.65
310.161	128.85
310.374	59.22
310.588	59.22
310.802	71.51
311.016	57.17
311.23	77.65
311.444	8.02
311.658	48.98
311.872	53.08
312.085	69.46
312.299	100.18
312.513	22.36
312.727	22.36
312.941	-18.6
313.154	40.79
313.368	63.32
313.582	69.46
313.796	61.27
314.009	34.64
314.223	87.89
314.437	79.7
314.651	8.02
314.864	112.47
315.078	18.26
315.292	26.45
315.505	124.76
315.719	-10.41
315.933	-6.31
316.146	-2.22
316.36	57.17
316.573	40.79
316.787	5.97
317.001	53.08
317.214	-18.6
317.428	-0.17
317.641	36.69
317.855	14.17
318.068	10.07
318.282	12.12
318.495	71.51
318.709	91.99
318.922	57.17
319.136	91.99
319.349	83.8
319.563	63.32
319.776	10.07
319.99	-20.65
320.203	108.37
320.417	-8.36
320.63	24.4
320.843	116.56
321.057	34.64
321.27	-30.89
321.483	71.51
321.697	-2.22
321.91	18.26
322.124	61.27
322.337	34.64
322.55	55.12
322.763	42.84
322.977	-26.79
323.19	46.93
323.403	1.88
323.617	14.17
323.83	63.32
324.043	81.75
324.256	71.51
324.469	-10.41
324.683	34.64
324.896	-0.17
325.109	30.55
325.322	-14.51
325.535	-0.17
325.748	81.75
325.962	34.64
326.175	55.12
326.388	-6.31
326.601	22.36
326.814	51.03
327.027	12.12
327.24	46.93
327.453	-47.27
327.666	18.26
327.879	77.65
328.092	114.52
328.305	42.84
328.518	-2.22
328.731	30.55
328.944	51.03
329.157	51.03
329.37	26.45
329.583	91.99
329.796	34.64
330.009	-4.27
330.222	94.04
330.435	5.97
330.648	46.93
330.861	16.21
331.073	61.27
331.286	-6.31
331.499	40.79
331.712	63.32
331.925	-14.51
332.138	32.6
332.35	51.03
332.563	75.6
332.776	42.84
332.989	22.36
333.202	48.98
333.414	28.5
333.627	51.03
333.84	-6.31
334.053	83.8
334.265	10.07
334.478	91.99
334.691	-26.79
334.903	34.64
335.116	38.74
335.329	12.12
335.541	51.03
335.754	81.75
335.966	38.74
336.179	55.12
336.392	40.79
336.604	46.93
336.817	75.6
337.029	8.02
337.242	63.32
337.454	22.36
337.667	34.64
337.88	36.69
338.092	14.17
338.305	79.7
338.517	-30.89
338.729	63.32
338.942	44.88
339.154	10.07
339.367	-20.65
339.579	98.13
339.792	-77.99
340.004	20.31
340.217	42.84
340.429	100.18
340.641	-10.41
340.854	-8.36
341.066	8.02
341.278	153.43
341.491	83.8
341.703	67.41
341.915	59.22
342.128	36.69
342.34	104.28
342.552	-2.22
342.764	79.7
342.977	55.12
343.189	55.12
343.401	40.79
343.613	42.84
343.826	116.56
344.038	16.21
344.25	1.88
344.462	24.4
344.674	24.4
344.886	-10.41
345.099	16.21
345.311	116.56
345.523	67.41
345.735	71.51
345.947	20.31
346.159	22.36
346.371	3.93
346.583	-6.31
346.795	71.51
347.007	51.03
347.219	40.79
347.431	1.88
347.643	159.57
347.855	1.88
348.067	81.75
348.279	-18.6
348.491	55.12
348.703	46.93
348.915	118.61
349.127	-10.41
349.339	55.12
349.551	12.12
349.763	51.03
349.975	81.75
350.187	34.64
350.399	122.71
350.61	79.7
350.822	18.26
351.034	75.6
351.246	16.21
351.458	53.08
351.669	59.22
351.881	89.94
352.093	46.93
352.305	63.32
352.517	51.03
352.728	69.46
352.94	26.45
353.152	28.5
353.363	-6.31
353.575	63.32
353.787	108.37
353.999	67.41
354.21	67.41
354.422	-37.03
354.633	-2.22
354.845	22.36
355.057	34.64
355.268	59.22
355.48	24.4
355.692	87.89
355.903	-63.66
356.115	30.55
356.326	10.07
356.538	118.61
356.749	26.45
356.961	48.98
357.172	91.99
357.384	10.07
357.595	155.47
357.807	42.84
358.018	141.14
358.23	65.36
358.441	83.8
358.653	116.56
358.864	67.41
359.075	10.07
359.287	-6.31
359.498	79.7
359.709	46.93
359.921	79.7
360.132	48.98
360.344	71.51
360.555	59.22
360.766	51.03
360.977	42.84
361.189	57.17
361.4	-0.17
361.611	38.74
361.823	36.69
362.034	79.7
362.245	14.17
362.456	32.6
362.667	67.41
362.879	96.08
363.09	38.74
363.301	38.74
363.512	75.6
363.723	100.18
363.935	75.6
364.146	51.03
364.357	77.65
364.568	53.08
364.779	32.6
364.99	126.8
365.201	34.64
365.412	63.32
365.623	-2.22
365.834	32.6
366.045	28.5
366.256	42.84
366.467	77.65
366.678	20.31
366.889	20.31
367.1	-14.51
367.311	81.75
367.522	67.41
367.733	87.89
367.944	85.84
368.155	-47.27
368.366	71.51
368.577	-10.41
368.788	79.7
368.999	26.45
369.209	42.84
369.42	165.71
369.631	120.66
369.842	71.51
370.053	-2.22
370.264	85.84
370.474	59.22
370.685	30.55
370.896	96.08
371.107	26.45
371.317	59.22
371.528	71.51
371.739	42.84
371.95	28.5
372.16	44.88
372.371	67.41
372.582	71.51
372.792	139.09
373.003	87.89
373.214	112.47
373.424	32.6
373.635	71.51
373.846	16.21
374.056	106.32
374.267	120.66
374.477	26.45
374.688	98.13
374.898	44.88
375.109	94.04
375.319	83.8
375.53	34.64
375.74	83.8
375.951	51.03
376.161	83.8
376.372	96.08
376.582	55.12
376.793	83.8
377.003	53.08
377.214	40.79
377.424	108.37
377.635	53.08
377.845	46.93
378.055	106.32
378.266	-26.79
378.476	40.79
378.686	-6.31
378.897	51.03
379.107	132.95
379.317	108.37
379.528	40.79
379.738	106.32
379.948	28.5
380.158	42.84
380.369	34.64
380.579	77.65
380.789	98.13
380.999	22.36
381.21	102.23
381.42	180.05
381.63	73.56
381.84	102.23
382.05	42.84
382.261	57.17
382.471	14.17
382.681	34.64
382.891	71.51
383.101	130.9
383.311	16.21
383.521	12.12
383.731	-4.27
383.941	75.6
384.151	3.93
384.361	114.52
384.571	145.24
384.781	55.12
384.991	106.32
385.201	71.51
385.411	79.7
385.621	57.17
385.831	77.65
386.041	69.46
386.251	44.88
386.461	10.07
386.671	96.08
386.881	96.08
387.091	83.8
387.301	114.52
387.511	46.93
387.72	116.56
387.93	46.93
388.14	-10.41
388.35	122.71
388.56	53.08
388.769	32.6
388.979	124.76
389.189	18.26
389.399	132.95
389.609	100.18
389.818	22.36
390.028	28.5
390.238	42.84
390.447	67.41
390.657	63.32
390.867	22.36
391.076	24.4
391.286	71.51
391.496	94.04
391.705	22.36
391.915	145.24
392.125	73.56
392.334	38.74
392.544	69.46
392.753	178
392.963	104.28
393.172	96.08
393.382	155.47
393.591	89.94
393.801	53.08
394.01	122.71
394.22	55.12
394.429	102.23
394.639	116.56
394.848	161.62
395.058	153.43
395.267	112.47
395.477	91.99
395.686	145.24
395.895	96.08
396.105	186.19
396.314	102.23
396.524	75.6
396.733	94.04
396.942	110.42
397.152	120.66
397.361	118.61
397.57	124.76
397.78	104.28
397.989	79.7
398.198	155.47
398.407	98.13
398.617	145.24
398.826	69.46
399.035	94.04
399.244	139.09
399.453	118.61
399.663	149.33
399.872	96.08
400.081	87.89
400.29	180.05
400.499	94.04
400.708	143.19
400.917	141.14
401.127	167.76
401.336	102.23
401.545	235.35
401.754	100.18
401.963	161.62
402.172	108.37
402.381	89.94
402.59	196.43
402.799	198.48
403.008	153.43
403.217	214.87
403.426	128.85
403.635	91.99
403.844	206.67
404.053	165.71
404.262	161.62
404.471	214.87
404.68	100.18
404.888	153.43
405.097	128.85
405.306	171.86
405.515	198.48
405.724	200.53
405.933	210.77
406.142	231.25
406.35	284.5
406.559	225.11
406.768	196.43
406.977	251.73
407.185	327.5
407.394	251.73
407.603	165.71
407.812	313.17
408.02	280.4
408.229	329.55
408.438	286.54
408.646	196.43
408.855	321.36
409.064	264.02
409.272	278.35
409.481	280.4
409.69	345.94
409.898	376.66
410.107	354.13
410.315	421.71
410.524	325.46
410.733	515.92
410.941	419.66
411.15	470.86
411.358	409.42
411.567	452.43
411.775	524.11
411.984	483.15
412.192	522.06
412.401	606.03
412.609	640.84
412.818	671.56
413.026	608.08
413.234	657.23
413.443	675.66
413.651	673.61
413.86	702.28
414.068	835.4
414.276	853.83
414.485	859.98
414.693	853.83
414.901	909.13
415.11	870.22
415.318	894.79
415.526	984.9
415.734	931.66
415.943	935.75
416.151	1075.01
416.359	1023.81
416.567	1072.96
416.776	1068.87
416.984	1201.99
417.192	1259.33
417.4	1283.91
417.608	1281.86
417.817	1335.1
418.025	1460.03
418.233	1449.79
418.441	1482.56
418.649	1406.78
418.857	1703.74
419.065	1679.16
419.273	1642.3
419.481	1750.84
419.689	1849.15
419.897	1836.86
420.105	2084.66
420.313	2025.27
420.521	2092.85
420.729	2166.58
420.937	2119.48
421.145	2248.5
421.353	2309.94
421.561	2524.97
421.769	2572.08
421.977	2787.11
422.185	2549.55
422.393	2846.51
422.601	2871.08
422.809	2877.23
423.017	2875.18
423.224	3020.58
423.432	3024.68
423.64	3184.42
423.848	3434.27
424.056	3333.92
424.263	3579.68
424.471	3663.65
424.679	3710.75
424.887	4001.56
425.094	4081.43
425.302	4050.71
425.51	4138.77
425.718	4376.34
425.925	4345.62
426.133	4607.76
426.341	4734.73
426.548	5064.46
426.756	5150.47
426.964	5160.71
427.171	5367.56
427.379	5730.05
427.586	5594.88
427.794	5742.33
428.001	6096.63
428.209	6178.55
428.417	6133.5
428.624	6659.82
428.832	6823.66
429.039	6471.41
429.247	6579.95
429.454	7167.72
429.662	7546.59
429.869	7255.78
430.076	7782.11
430.284	7489.25
430.491	7925.47
430.699	8206.04
430.906	8328.92
431.114	8408.79
431.321	8668.88
431.528	8949.45
431.736	9463.49
431.943	9920.19
432.15	9494.21
432.358	9688.77
432.565	10235.58
432.772	10118.84
432.979	10751.67
433.187	10954.41
433.394	10899.12
433.601	11734.69
433.808	11865.76
434.016	11804.32
434.223	12342.94
434.43	12725.91
434.637	12635.8
434.844	13358.73
435.052	13692.55
435.259	13659.78
435.466	13844.1
435.673	13536.9
435.88	14433.91
436.087	15271.53
436.294	15083.12
436.501	14995.06
436.708	15111.79
436.915	15566.44
437.122	16371.29
437.329	16264.8
437.537	16643.67
437.743	17282.64
437.95	16854.61
438.157	17737.29
438.364	18638.39
438.571	18247.23
438.778	18320.96
438.985	20168.23
439.192	19559.98
439.399	20182.56
439.606	19699.24
439.813	20729.37
440.02	22265.35
440.227	21640.72
440.433	21491.21
440.64	22109.7
440.847	21923.33
441.054	22681.08
441.261	24063.46
441.467	23829.99
441.674	24026.6
441.881	25079.25
442.088	24960.47
442.294	24638.94
442.501	25451.98
442.708	25877.96
442.914	26899.9
443.121	28188.07
443.328	27616.69
443.534	29171.1
443.741	28509.6
443.948	28149.16
444.154	30201.22
444.361	29611.41
444.568	30256.52
444.774	30037.39
444.981	30199.18
445.187	31124.86
445.394	32951.65
445.6	31925.61
445.807	35196.22
446.013	33707.35
446.22	34411.85
446.426	35384.63
446.633	36130.09
446.839	36764.96
447.046	35519.8
447.252	37559.58
447.459	37451.03
447.665	37203.23
447.871	39331.07
448.078	40461.55
448.284	38262.03
448.491	39742.71
448.697	41170.15
448.903	41931.99
449.11	42224.85
449.316	41426.14
449.522	41647.32
449.728	42650.83
449.935	43080.9
450.141	43306.18
450.347	44453.04
450.553	42513.61
450.76	43064.52
450.966	44160.18
451.172	43947.19
451.378	45079.72
451.584	44274.87
451.791	45214.88
451.997	44919.98
452.203	45829.27
452.409	45685.92
452.615	45440.16
452.821	44020.92
453.027	44082.36
453.233	45657.24
453.44	43855.03
453.646	44321.97
453.852	44240.05
454.058	45184.16
454.264	43254.98
454.47	44489.9
454.676	43515.07
454.882	45067.43
455.088	40848.61
455.294	41565.4
455.5	42153.17
455.705	42654.92
455.911	40795.37
456.117	40205.55
456.323	39439.61
456.529	37557.53
456.735	39365.88
456.941	37809.43
457.147	37168.41
457.352	36285.74
457.558	35851.57
457.764	35609.91
457.97	35337.53
458.176	34852.16
458.381	34622.79
458.587	32736.61
458.793	33017.18
458.999	31128.95
459.204	33402.2
459.41	32607.59
459.616	30172.55
459.821	30064.01
460.027	29994.38
460.233	29502.87
460.438	28104.1
460.644	28214.69
460.85	27067.83
461.055	26703.29
461.261	26742.21
461.466	24741.34
461.672	23817.71
461.878	25707.98
462.083	24190.44
462.289	23703.02
462.494	23178.74
462.7	22091.27
462.905	21892.62
463.111	22681.08
463.316	22568.44
463.522	22105.6
463.727	22076.93
463.932	22287.87
464.138	21925.38
464.343	21792.26
464.549	21126.67
464.754	22257.15
464.959	21818.89
465.165	21759.5
465.37	20833.82
465.575	20479.52
465.781	21188.11
465.986	21323.28
466.191	20545.05
466.397	19750.44
466.602	19052.08
466.807	19973.67
467.012	19729.96
467.218	19619.37
467.423	19392.05
467.628	19609.13
467.833	20209.18
468.038	19602.99
468.244	19101.23
468.449	19949.09
468.654	19256.88
468.859	19015.22
469.064	18710.07
469.269	18163.26
469.474	18394.68
469.679	18759.22
469.885	18251.33
470.09	18351.68
470.295	18318.91
470.5	17995.33
470.705	17925.7
470.91	17382.99
471.115	17522.25
471.32	17876.55
471.525	17485.39
471.73	17012.31
471.935	16817.75
472.139	16500.31
472.344	16598.62
472.549	16551.51
472.754	16449.11
472.959	15881.83
473.164	15683.17
473.369	15654.5
473.574	16154.21
473.778	16062.05
473.983	15709.8
474.188	15773.28
474.393	15003.25
474.598	14882.42
474.802	15066.74
475.007	14812.79
475.212	14841.46
475.417	14474.87
475.621	14403.19
475.826	14464.63
476.031	14132.86
476.235	13950.59
476.44	13983.36
476.645	13778.56
476.849	13639.3
477.054	13635.21
477.259	13416.07
477.463	13551.24
477.668	12992.14
477.872	13274.76
478.077	13041.29
478.282	12476.05
478.486	12754.58
478.691	12613.27
478.895	12625.56
479.1	12377.75
479.304	12719.76
479.509	12007.07
479.713	12517.01
479.918	12115.61
480.122	11892.38
480.326	12306.07
480.531	12076.7
480.735	12045.98
480.94	11904.67
481.144	12121.76
481.348	11724.45
481.553	11902.62
481.757	11450.02
481.961	11765.41
482.166	11884.19
482.37	11830.94
482.574	11542.18
482.778	11574.95
482.983	11908.77
483.187	11749.03
483.391	11755.17
483.595	11761.31
483.8	11484.84
484.004	11386.54
484.208	11738.79
484.412	11802.27
484.616	11691.68
484.821	11724.45
485.025	11544.23
485.229	11830.94
485.433	11507.37
485.637	11736.74
485.841	11515.56
486.045	11626.15
486.249	11579.04
486.453	11558.56
486.657	11714.21
486.861	11865.76
487.065	11585.19
487.269	11624.1
487.473	11409.06
487.677	11859.62
487.881	11968.16
488.085	11730.59
488.289	11689.63
488.493	11478.69
488.697	11738.79
488.901	11910.82
489.105	11839.14
489.309	11896.48
489.512	11837.09
489.716	11904.67
489.92	12005.02
490.124	11871.9
490.328	12113.56
490.531	11937.44
490.735	12025.5
490.939	12105.37
491.143	12109.47
491.346	11912.86
491.55	12269.21
491.754	12179.1
491.958	12304.03
492.161	12211.87
492.365	12347.03
492.569	12314.27
492.772	12301.98
492.976	12564.12
493.18	12811.92
493.383	12824.21
493.587	12869.26
493.79	12859.03
493.994	13039.25
494.197	13076.11
494.401	13033.1
494.605	13092.49
494.808	13407.88
495.012	13543.05
495.215	13313.67
495.419	13624.97
495.622	13600.39
495.825	13565.57
496.029	13737.6
496.232	14214.78
496.436	13936.26
496.639	14317.18
496.843	14384.76
497.046	14642.81
497.249	14906.99
497.453	14982.77
497.656	14982.77
497.859	15378.03
498.063	15337.07
498.266	15523.43
498.469	15541.86
498.673	15795.81
498.876	15842.92
499.079	16242.27
499.282	15933.03
499.485	16520.79
499.689	16592.47
499.892	16678.49
500.095	16748.12
500.298	17153.62
500.501	16928.34
500.705	17473.1
500.908	17821.25
501.111	17845.83
501.314	18284.09
501.517	18130.5
501.72	18476.6
501.923	18767.41
502.126	18894.39
502.329	19193.39
502.532	19471.92
502.735	19471.92
502.938	19768.87
503.141	19953.19
503.344	20151.84
503.547	20321.82
503.75	20516.38
503.953	21044.76
504.156	20966.93
504.359	21235.22
504.562	21333.52
504.765	22160.9
504.968	22345.22
505.17	22406.66
505.373	22291.97
505.576	22957.56
505.779	23078.39
505.982	22758.91
506.185	23533.04
506.387	23803.37
506.59	23893.48
506.793	24122.85
506.996	24444.38
507.198	24886.75
507.401	24581.6
507.604	25107.93
507.807	25531.86
508.009	25546.19
508.212	25882.06
508.415	26054.09
508.617	26893.75
508.82	26971.58
509.022	26949.05
509.225	27127.22
509.428	27643.31
509.63	28177.83
509.833	28095.91
510.035	29023.64
510.238	28755.36
510.44	28749.21
510.643	29326.74
510.845	29691.28
511.048	29388.18
511.25	29934.99
511.453	30129.55
511.655	31350.13
511.858	30750.08
512.06	30983.55
512.262	31712.63
512.465	32064.88
512.667	32193.9
512.87	32300.39
513.072	32499.05
513.274	33242.46
513.477	33449.3
513.679	33639.76
513.881	34319.69
514.084	34800.96
514.286	34690.37
514.488	34579.78
514.69	35847.47
514.893	35792.18
515.095	35509.56
515.297	36695.33
515.499	36355.37
515.701	36838.69
515.904	37430.55
516.106	37571.86
516.308	37760.28
516.51	38458.63
516.712	38300.94
516.914	39070.98
517.116	39834.87
517.318	39443.71
517.52	39673.08
517.722	40099.06
517.925	40381.68
518.127	40928.48
518.329	41331.93
518.531	41157.86
518.733	42083.54
518.935	42167.51
519.136	42233.04
519.338	43334.85
519.54	43138.24
519.742	43711.67
519.944	43547.84
520.146	44645.55
520.348	44469.42
520.55	44838.06
520.752	45315.23
520.954	45804.7
521.155	45345.95
521.357	46306.45
521.559	46994.57
521.761	47137.93
521.963	47260.8
522.164	46961.8
522.366	47869.05
522.568	48020.6
522.77	47950.97
522.971	48700.53
523.173	48589.94
523.375	49192.04
523.576	48880.75
523.778	49101.93
523.98	49835.1
524.181	49955.93
524.383	50166.87
524.584	50642
524.786	50719.82
524.988	50846.8
525.189	51457.09
525.391	51571.78
525.592	52130.87
525.794	51999.8
525.995	52132.92
526.197	52352.05
526.398	52354.1
526.6	52573.24
526.801	53204.01
527.003	52972.59
527.204	53171.24
527.406	53687.33
527.607	53627.94
527.808	54082.59
528.01	53464.1
528.211	53548.07
528.412	54889.49
528.614	54684.69
528.815	54877.2
529.016	54873.1
529.218	54787.09
529.419	55077.9
529.62	54578.2
529.822	55202.83
530.023	55602.18
530.224	55512.07
530.425	55065.61
530.626	54887.44
530.828	55483.4
531.029	56417.27
531.23	55454.73
531.431	55381
531.632	55976.96
531.833	55725.06
532.035	55942.14
532.236	55874.56
532.437	56169.47
532.638	56134.65
532.839	56953.84
533.04	56624.12
533.241	56142.84
533.442	56947.7
533.643	56495.1
533.844	56593.4
534.045	56400.89
534.246	56329.21
534.447	56904.69
534.648	56417.27
534.849	56921.07
535.05	56579.06
535.251	56867.83
535.451	56374.27
535.652	57310.19
535.853	56980.46
536.054	56839.15
536.255	56921.07
536.456	56396.79
536.657	57172.97
536.857	56822.77
537.058	56429.56
537.259	57058.29
537.46	56953.84
537.66	56462.33
537.861	56976.37
538.062	56849.39
538.263	57428.97
538.463	56523.77
538.664	56511.48
538.865	56939.5
539.065	56855.54
539.266	56800.24
539.466	57250.8
539.667	56243.2
539.868	57437.16
540.068	56630.26
540.269	56572.92
540.469	56871.92
540.67	56970.22
540.87	57160.69
541.071	56710.13
541.271	56716.28
541.472	56628.21
541.672	56658.93
541.873	56314.87
542.073	56167.42
542.274	56847.35
542.474	56585.21
542.675	56644.6
542.875	57127.92
543.075	56278.01
543.276	56181.76
543.476	57007.09
543.676	56486.9
543.877	56943.6
544.077	56896.5
544.277	56726.52
544.478	56460.28
544.678	56968.18
544.878	56239.1
545.078	56417.27
545.279	56054.78
545.479	56380.41
545.679	56347.64
545.879	56683.51
546.079	56454.14
546.28	56667.12
546.48	56034.3
546.68	56443.9
546.88	56589.3
547.08	56302.59
547.28	56212.48
547.48	56151.04
547.68	56646.64
547.88	55999.49
548.081	56306.68
548.281	56251.39
548.481	56185.85
548.681	56298.49
548.881	56171.52
549.081	56617.97
549.28	55706.63
549.48	56691.7
549.68	55907.33
549.88	56996.85
550.08	56015.87
550.28	56558.58
550.48	56501.24
550.68	56529.91
550.88	56022.01
551.08	56026.11
551.279	56257.53
551.479	56030.21
551.679	56153.08
551.879	55995.39
552.079	56355.83
552.278	56022.01
552.478	56368.12
552.678	56036.35
552.878	55892.99
553.077	56022.01
553.277	55514.12
553.477	56515.57
553.676	55626.76
553.876	55919.62
554.076	55655.43
554.275	55792.64
554.475	55057.42
554.674	55929.86
554.874	55802.88
555.074	55686.15
555.273	55872.51
555.473	55813.12
555.672	55233.55
555.872	55352.33
556.071	55610.37
556.271	55446.54
556.47	55176.2
556.67	55077.9
556.869	55565.32
557.068	55553.03
557.268	55266.31
557.467	54973.45
557.667	54901.78
557.866	55469.06
558.065	55057.42
558.265	54561.81
558.464	54760.47
558.663	55170.06
558.863	54617.11
559.062	55176.2
559.261	54283.29
559.461	55389.19
559.66	54500.37
559.859	54750.23
560.058	54023.2
560.258	54416.41
560.457	53795.87
560.656	54471.7
560.855	53963.81
561.054	54357.02
561.253	53584.93
561.453	53982.24
561.652	54457.37
561.851	53892.13
562.05	53845.02
562.249	53380.13
562.448	53644.32
562.647	53990.43
562.846	53572.64
563.045	53967.9
563.244	53021.74
563.443	53863.46
563.642	52577.33
563.841	53664.8
564.04	52759.6
564.239	53249.06
564.438	52646.96
564.637	53511.2
564.836	52788.27
565.035	52571.19
565.234	52775.98
565.432	52483.12
565.631	52278.33
565.83	52368.44
566.029	52440.12
566.228	52194.36
566.427	51838.01
566.625	52145.21
566.824	51276.87
567.023	51788.86
567.222	50836.56
567.42	52188.22
567.619	51539.01
567.818	51471.43
568.016	51270.73
568.215	51833.92
568.414	50973.77
568.612	51420.23
568.811	50934.86
569.01	50820.17
569.208	50304.09
569.407	50875.47
569.605	50785.36
569.804	50992.2
570.002	50070.62
570.201	50629.71
570.4	50211.93
570.598	50140.25
570.797	49581.15
570.995	49929.31
571.193	49466.47
571.392	50011.23
571.59	49429.6
571.789	49486.95
571.987	49351.78
572.186	49427.56
572.384	48938.09
572.582	49491.04
572.781	49396.84
572.979	48157.81
573.177	48942.19
573.376	49331.3
573.574	48311.41
573.772	48555.12
573.971	48215.16
574.169	47772.8
574.367	47991.93
574.565	48610.42
574.763	47957.11
574.962	47752.32
575.16	47522.94
575.358	47815.8
575.556	47316.1
575.754	47885.43
575.952	46697.61
576.151	47496.32
576.349	46718.09
576.547	46714
576.745	46951.56
576.943	46705.8
577.141	46810.25
577.339	46871.69
577.537	46525.58
577.735	46558.35
577.933	46077.08
578.131	46916.75
578.329	45841.56
578.527	45839.51
578.725	45835.42
578.923	46048.41
579.121	45872.28
579.319	45304.99
579.516	45862.04
579.714	45321.38
579.912	45065.38
580.11	45003.94
580.308	45329.57
580.506	45137.06
580.704	44407.98
580.901	44952.74
581.099	45401.25
581.297	44541.1
581.495	44151.99
581.692	44532.91
581.89	44000.44
582.088	44354.74
582.285	43887.8
582.483	44397.74
582.681	44047.54
582.878	43918.52
583.076	43472.06
583.274	44137.65
583.471	43396.29
583.669	43287.74
583.866	43060.42
584.064	43187.39
584.262	42620.11
584.459	43119.81
584.657	42849.48
584.854	43334.85
585.052	42296.53
585.249	42618.06
585.447	42712.27
585.644	41915.61
585.841	42130.64
586.039	42321.1
586.236	41581.79
586.434	41598.17
586.631	41518.3
586.828	41561.31
587.026	41512.16
587.223	41483.48
587.42	41618.65
587.618	41229.54
587.815	40770.79
588.012	40965.35
588.21	40527.08
588.407	41123.04
588.604	40692.97
588.801	40570.09
588.999	40260.85
589.196	40400.11
589.393	40375.53
589.59	40156.4
589.787	40301.81
589.984	39777.53
590.182	39775.48
590.379	40115.44
590.576	39585.02
590.773	39298.3
590.97	39089.41
591.167	39423.23
591.364	39025.92
591.561	39054.59
591.758	38825.22
591.955	38679.82
592.152	39075.07
592.349	38677.77
592.546	38923.52
592.743	38728.97
592.94	37883.16
593.137	38677.77
593.334	38413.58
593.531	37938.45
593.727	38006.03
593.924	37901.59
594.121	37723.41
594.318	37997.84
594.515	37031.2
594.712	37715.22
594.908	37156.13
595.105	37481.75
595.302	37102.88
595.499	37156.13
595.696	37322.01
595.892	36300.08
596.089	36834.6
596.286	37072.16
596.482	36666.66
596.679	36488.49
596.876	36695.33
597.072	36230.44
597.269	36562.22
597.466	35792.18
597.662	36023.6
597.859	36003.12
598.055	35769.65
598.252	35482.94
598.448	35747.12
598.645	35630.39
598.841	35312.95
599.038	35390.78
599.234	35220.8
599.431	35511.61
599.627	35155.26
599.824	34899.26
600.02	34983.23
600.217	34778.43
600.413	34626.88
600.609	34282.83
600.806	34258.25
601.002	34524.49
601.198	34168.14
601.395	33946.96
601.591	34030.93
601.787	34004.3
601.984	33992.01
602.18	33942.86
602.376	33824.08
602.572	33492.31
602.769	33535.32
602.965	33250.65
603.161	33584.47
603.357	32826.72
603.553	32689.51
603.75	33035.61
603.946	32976.22
604.142	33256.79
604.338	32150.89
604.534	32935.26
604.73	32423.27
604.926	32503.14
605.122	32550.24
605.318	32357.74
605.514	31896.94
605.71	32001.39
605.906	31892.85
606.102	32132.46
606.298	31528.31
606.494	31460.73
606.69	31630.71
606.886	31772.02
607.082	31120.76
607.278	31931.76
607.474	31511.92
607.67	31589.75
607.866	30961.02
608.062	31243.64
608.257	30666.11
608.453	30725.5
608.649	31292.79
608.845	30510.47
609.041	30680.45
609.236	30709.12
609.432	30903.68
609.628	30860.67
609.824	30471.56
610.019	30446.98
610.215	30797.18
610.411	30559.62
610.606	30512.52
610.802	30383.49
610.998	30399.88
611.193	30320.01
611.389	30027.15
611.584	29971.85
611.78	30018.96
611.976	30100.87
612.171	30301.57
612.367	30021
612.562	29818.25
612.758	29406.61
612.953	29476.24
613.149	29687.18
613.344	29449.62
613.539	30076.3
613.735	29554.07
613.93	29631.89
614.126	29121.94
614.321	29601.17
614.517	29232.54
614.712	28929.44
614.907	29142.42
615.103	29306.26
615.298	29128.09
615.493	29230.49
615.688	28736.93
615.884	29302.17
616.079	28708.26
616.274	29046.17
616.47	28634.53
616.665	28652.96
616.86	28521.89
617.055	28614.05
617.25	28685.73
617.445	28693.92
617.641	27927.98
617.836	28241.32
618.031	28020.14
618.226	28274.09
618.421	28153.26
618.616	28202.41
618.811	27755.95
619.006	28257.7
619.201	27391.41
619.396	27784.62
619.591	26922.43
619.786	27753.9
619.981	27082.17
620.176	27313.59
620.371	26938.81
620.566	27162.04
620.761	26949.05
620.956	26928.57
621.151	26248.64
621.346	26725.82
621.541	26432.96
621.735	26463.68
621.93	25923.02
622.125	26041.8
622.32	25716.17
622.515	25816.52
622.709	25562.58
622.904	25636.3
623.099	25759.18
623.294	25374.16
623.488	24991.19
623.683	25261.52
623.878	24872.41
624.072	24686.04
624.267	24989.14
624.462	24952.28
624.656	24444.38
624.851	24481.25
625.046	24096.23
625.24	24221.16
625.435	24147.43
625.629	23985.64
625.824	23571.95
626.018	23739.88
626.213	23176.69
626.407	23490.03
626.602	22924.79
626.796	23633.39
626.991	23066.1
627.185	22863.35
627.38	22656.51
627.574	22971.89
627.768	22332.93
627.963	22349.31
628.157	22259.2
628.352	22312.45
628.546	21943.81
628.74	21909
628.935	21562.89
629.129	22038.02
629.323	21409.29
629.517	21444.11
629.712	21616.14
629.906	21243.41
630.1	20887.06
630.294	21267.98
630.489	21095.96
630.683	21308.94
630.877	20868.63
631.071	20502.04
631.265	20454.94
631.459	20588.06
631.653	20323.87
631.848	20368.93
632.042	20157.99
632.236	20334.11
632.43	20131.36
632.624	19787.3
632.818	19957.28
633.012	19555.88
633.206	19562.03
633.4	19418.67
633.594	19199.54
633.788	19346.99
633.982	19125.81
634.176	19160.62
634.369	19080.75
634.563	18957.88
634.757	18587.19
634.951	18656.82
635.145	18855.48
635.339	18574.91
635.533	18191.94
635.726	18579
635.92	18116.16
636.114	18177.6
636.308	18130.5
636.501	17864.26
636.695	17772.1
636.889	17720.9
637.083	17673.8
637.276	17677.9
637.47	17479.24
637.664	17272.4
637.857	17305.17
638.051	17063.5
638.244	17079.89
638.438	17290.83
638.632	16799.32
638.825	16627.29
639.019	16850.52
639.212	16602.71
639.406	16799.32
639.599	16705.11
639.793	16123.49
639.986	16221.79
640.18	16291.42
640.373	15992.42
640.567	16000.61
640.76	16131.68
640.954	15758.95
641.147	15787.62
641.34	15652.45
641.534	15390.31
641.727	15656.55
641.92	15556.2
642.114	15507.05
642.307	15560.3
642.5	15165.04
642.694	15021.68
642.887	15021.68
643.08	15269.48
643.273	14984.82
643.467	14833.27
643.66	14696.05
643.853	14558.84
644.046	14489.21
644.239	14667.38
644.432	14298.75
644.626	14325.37
644.819	14149.25
645.012	14202.49
645.205	14222.97
645.398	14032.51
645.591	14038.66
645.784	14014.08
645.977	13727.36
646.17	13960.83
646.363	13528.71
646.556	13336.2
646.749	13438.6
646.942	13581.96
647.135	13420.17
647.328	13022.86
647.521	13311.63
647.714	12986
647.907	13074.06
648.099	13029.01
648.292	13092.49
648.485	12809.87
648.678	12834.45
648.871	12549.78
649.064	12711.57
649.256	12850.83
649.449	12410.52
649.642	12560.02
649.835	12424.86
650.027	12265.11
650.22	12248.73
650.413	12387.99
650.605	12252.83
650.798	12363.42
650.991	11910.82
651.183	12195.48
651.376	11839.14
651.568	11962.01
651.761	11726.5
651.954	11839.14
652.146	11765.41
652.339	11740.83
652.531	11515.56
652.724	11431.59
652.916	11347.62
653.109	11277.99
653.301	11423.4
653.494	11302.57
653.686	10962.61
653.879	11124.4
654.071	11042.48
654.263	11220.65
654.456	10991.28
654.648	11044.52
654.84	10575.54
655.033	10995.37
655.225	10811.06
655.417	10571.44
655.61	10614.45
655.802	10612.4
655.994	10491.57
656.186	10542.77
656.379	10665.65
656.571	10348.22
656.763	10321.59
656.955	10231.48
657.148	10313.4
657.34	10294.97
657.532	10038.97
657.724	9971.39
657.916	10041.02
658.108	10135.23
658.3	9721.54
658.492	9830.08
658.684	9617.09
658.876	9746.11
659.068	9533.12
659.26	9639.62
659.452	9668.29
659.644	9535.17
659.836	9504.45
660.028	9455.3
660.22	9410.25
660.412	9285.32
660.604	9289.42
660.796	9348.81
660.988	9256.65
661.18	8951.5
661.372	8820.43
661.563	9004.75
661.755	8857.29
661.947	8857.29
662.139	8951.5
662.331	8935.12
662.522	8738.51
662.714	8853.2
662.906	8482.52
663.097	8683.22
663.289	8539.86
663.481	8652.5
663.673	8425.17
663.864	8429.27
664.056	8464.08
664.247	8347.35
664.439	8312.53
664.631	8324.82
664.822	8412.88
665.014	8201.94
665.205	8058.59
665.397	8011.48
665.588	8062.68
665.78	8111.83
665.971	7931.61
666.163	8015.58
666.354	7778.01
666.546	7933.66
666.737	7712.48
666.929	7845.6
667.12	7722.72
667.311	7788.25
667.503	7575.27
667.694	7698.14
667.885	7640.8
668.077	7743.2
668.268	7436
668.459	7761.63
668.651	7444.2
668.842	7390.95
669.033	7411.43
669.224	7370.47
669.416	7372.52
669.607	7462.63
669.798	7366.37
669.989	7325.41
670.18	7294.69
670.371	7218.92
670.563	7182.06
670.754	7223.02
670.945	6881
671.136	6989.55
671.327	7007.98
671.518	6926.06
671.709	6938.35
671.9	6952.68
672.091	6913.77
672.282	6921.96
672.473	6756.08
672.664	6708.97
672.855	6737.65
673.046	6797.04
673.237	6809.33
673.428	6872.81
673.619	6768.37
673.809	6606.58
674	6653.68
674.191	6700.78
674.382	6426.36
674.573	6598.38
674.764	6569.71
674.954	6633.2
675.145	6414.07
675.336	6356.72
675.527	6342.39
675.717	6432.5
675.908	6326
676.099	6461.17
676.289	6334.2
676.48	6297.33
676.671	6160.12
676.861	6225.65
677.052	6174.46
677.243	6219.51
677.433	6119.16
677.624	6121.21
677.814	6096.63
678.005	6127.35
678.195	6121.21
678.386	6053.62
678.576	5951.23
678.767	6039.29
678.957	5828.35
679.148	6074.1
679.338	6039.29
679.529	6082.3
679.719	5828.35
679.909	5977.85
680.1	5684.99
680.29	5961.47
680.481	5736.19
680.671	5953.27
680.861	5805.82
681.052	5873.4
681.242	5881.6
681.432	5816.06
681.622	5762.81
681.813	5695.23
682.003	5795.58
682.193	5744.38
682.383	5691.13
682.573	5619.46
682.764	5539.58
682.954	5662.46
683.144	5568.26
683.334	5623.55
683.524	5396.23
683.714	5664.51
683.904	5515.01
684.094	5515.01
684.284	5457.67
684.474	5539.58
684.664	5439.23
684.854	5568.26
685.044	5283.59
685.234	5461.76
685.424	5529.34
685.614	5527.3
685.804	5383.94
685.994	5379.84
686.184	5306.12
686.374	5357.32
686.564	5287.68
686.753	5271.3
686.943	5046.02
687.133	5316.36
687.323	5048.07
687.513	5093.13
687.702	5216.01
687.892	5168.9
688.082	5000.97
688.272	5058.31
688.461	5060.36
688.651	5068.55
688.841	5093.13
689.03	5023.5
689.22	4945.67
689.41	4990.73
689.599	4908.81
689.789	4992.78
689.979	4980.49
690.168	4855.56
690.358	4857.61
690.547	4693.77
690.737	4935.43
690.926	4728.59
691.116	4818.7
691.305	4751.12
691.495	4730.64
691.684	4726.54
691.874	4552.46
692.063	4798.22
692.252	4669.2
692.442	4679.44
692.631	4597.52
692.82	4531.98
693.01	4460.31
693.199	4448.02
693.388	4443.92
693.578	4550.42
693.767	4495.12
693.956	4454.16
694.146	4310.8
694.335	4362
694.524	4390.67
694.713	4495.12
694.902	4472.59
695.092	4427.54
695.281	4298.52
695.47	4267.8
695.659	4345.62
695.848	4374.29
696.037	4405.01
696.226	4366.1
696.415	4224.79
696.604	4253.46
696.793	4351.76
696.982	4306.71
697.171	4263.7
697.36	4255.51
697.549	4118.29
697.738	4128.53
697.927	4226.84
698.116	4243.22
698.305	4106.01
698.494	4163.35
698.683	4208.41
698.872	4278.04
699.061	4044.57
699.25	4142.87
699.438	4093.72
699.627	4103.96
699.816	4081.43
700.005	3979.03
700.193	3958.55
700.382	4200.21
700.571	4081.43
700.76	3876.63
700.948	4083.48
701.137	4198.17
701.326	3948.31
701.514	4003.61
701.703	4040.47
701.892	3931.93
702.08	3985.18
702.269	3893.02
702.457	3794.72
702.646	3931.93
702.834	3884.83
703.023	4001.56
703.212	3933.98
703.4	4022.04
703.589	3940.12
703.777	3981.08
703.965	3927.83
704.154	3972.89
704.342	3907.35
704.531	3862.3
704.719	3792.67
704.907	3866.39
705.096	3739.42
705.284	3813.15
705.472	3794.72
705.661	3807
705.849	3819.29
706.037	3841.82
706.226	3698.46
706.414	3782.43
706.602	3850.01
706.79	3786.52
706.979	3675.93
707.167	3714.84
707.355	3680.03
707.543	3749.66
707.731	3786.52
707.919	3657.5
708.107	3641.12
708.296	3639.07
708.484	3706.65
708.672	3667.74
708.86	3614.49
709.048	3630.88
709.236	3565.34
709.424	3653.41
709.612	3702.56
709.8	3614.49
709.988	3567.39
710.176	3565.34
710.364	3614.49
710.551	3485.47
710.739	3557.15
710.927	3688.22
711.115	3522.34
711.303	3680.03
711.491	3577.63
711.679	3579.68
711.866	3512.1
712.054	3487.52
712.242	3628.83
712.43	3555.1
712.617	3540.77
712.805	3483.42
712.993	3516.19
713.181	3428.13
713.368	3387.17
713.556	3415.84
713.744	3442.46
713.931	3608.35
714.119	3335.97
714.306	3512.1
714.494	3346.21
714.682	3399.46
714.869	3440.42
715.057	3436.32
715.244	3366.69
715.432	3491.62
715.619	3329.83
715.807	3430.18
715.994	3393.31
716.182	3270.44
716.369	3301.15
716.556	3358.5
716.744	3258.15
716.931	3194.66
717.119	3383.07
717.306	3333.92
717.493	3290.92
717.681	3444.51
717.868	3303.2
718.055	3421.99
718.242	3272.48
718.43	3209
718.617	3258.15
718.804	3321.63
718.991	3252
719.179	3243.81
719.366	3157.8
719.553	3196.71
719.74	3057.45
719.927	3163.94
720.114	3327.78
720.301	3104.55
720.488	3268.39
720.676	3233.57
720.863	3157.8
721.05	3039.01
721.237	3204.9
721.424	3155.75
721.611	3147.56
721.798	2981.67
721.985	3233.57
722.172	3200.8
722.358	3204.9
722.545	3161.89
722.732	3067.69
722.919	3032.87
723.106	2918.18
723.293	3079.97
723.48	3155.75
723.667	3088.17
723.853	3000.1
724.04	2963.24
724.227	3114.79
724.414	3059.49
724.6	2991.91
724.787	3051.3
724.974	3008.3
725.161	2959.14
725.347	3000.1
725.534	3041.06
725.72	2967.34
725.907	2901.8
726.094	2969.38
726.28	2858.79
726.467	2967.34
726.653	3022.63
726.84	2842.41
727.027	3073.83
727.213	2828.07
727.4	3000.1
727.586	2950.95
727.773	2811.69
727.959	2938.66
728.145	2998.06
728.332	2799.4
728.518	2893.61
728.705	2912.04
728.891	2793.26
729.077	2873.13
729.264	2811.69
729.45	2780.97
729.636	2944.81
729.823	2778.92
730.009	2836.27
730.195	2903.85
730.382	2793.26
730.568	2748.2
730.754	2776.87
730.94	2676.52
731.126	2778.92
731.313	2756.4
731.499	2750.25
731.685	2686.76
731.871	2561.84
732.057	2748.2
732.243	2688.81
732.429	2789.16
732.615	2705.2
732.801	2688.81
732.987	2662.19
733.173	2635.57
733.359	2676.52
733.545	2686.76
733.731	2604.85
733.917	2606.89
734.103	2578.22
734.289	2686.76
734.475	2570.03
734.661	2617.13
734.847	2582.32
735.033	2586.41
735.219	2635.57
735.404	2639.66
735.59	2549.55
735.776	2553.65
735.962	2598.7
736.148	2574.13
736.333	2592.56
736.519	2500.4
736.705	2574.13
736.89	2531.12
737.076	2588.46
737.262	2496.3
737.447	2447.15
737.633	2430.77
737.819	2414.38
738.004	2395.95
738.19	2553.65
738.375	2473.78
738.561	2475.82
738.747	2414.38
738.932	2418.48
739.118	2502.45
739.303	2565.93
739.489	2479.92
739.674	2324.27
739.859	2271.03
740.045	2441.01
740.23	2279.22
740.416	2363.19
740.601	2369.33
740.786	2238.26
740.972	2324.27
741.157	2363.19
741.342	2307.89
741.528	2246.45
741.713	2168.63
741.898	2357.04
742.084	2299.7
742.269	2320.18
742.454	2266.93
742.639	2254.64
742.824	2242.36
743.01	2250.55
743.195	2299.7
743.38	2135.86
743.565	2201.4
743.75	2185.01
743.935	2117.43
744.12	2211.64
744.305	2113.33
744.49	2080.57
744.675	2119.48
744.86	2152.24
745.045	2129.72
745.23	2094.9
745.415	2127.67
745.6	2096.95
745.785	2070.33
745.97	2076.47
746.155	2025.27
746.34	2039.61
746.525	1935.16
746.71	1990.45
746.895	1972.02
747.079	1933.11
747.264	2008.89
747.449	1972.02
747.634	1945.4
747.819	1900.34
748.003	1943.35
748.188	1959.74
748.373	1859.38
748.557	1888.06
748.742	1820.47
748.927	1853.24
749.111	1875.77
749.296	1879.86
749.481	1795.9
749.665	1843
749.85	1750.84
750.034	1828.67
750.219	1705.79
750.404	1726.27
750.588	1716.03
750.773	1738.55
750.957	1750.84
751.141	1689.4
751.326	1734.46
751.51	1654.59
751.695	1642.3
751.879	1687.36
752.064	1759.03
752.248	1613.63
752.432	1638.2
752.617	1609.53
752.801	1591.1
752.985	1486.65
753.17	1550.14
753.354	1595.2
753.538	1599.29
753.722	1517.37
753.907	1580.86
754.091	1472.32
754.275	1533.76
754.459	1423.17
754.643	1449.79
754.828	1517.37
755.012	1492.8
755.196	1451.84
755.38	1488.7
755.564	1392.45
755.748	1455.94
755.932	1421.12
756.116	1425.22
756.3	1447.74
756.484	1320.77
756.668	1312.58
756.852	1341.25
757.036	1333.06
757.22	1374.02
757.404	1390.4
757.588	1275.71
757.772	1394.5
757.956	1341.25
758.14	1300.29
758.323	1185.6
758.507	1341.25
758.691	1271.62
758.875	1216.32
759.059	1294.15
759.242	1242.95
759.426	1214.27
759.61	1204.03
759.794	1158.98
759.977	1263.43
760.161	1247.04
760.345	1167.17
760.528	1175.36
760.712	1181.51
760.895	1251.14
761.079	1185.6
761.263	1152.84
761.446	1140.55
761.63	1216.32
761.813	1179.46
761.997	1156.93
762.18	1134.4
762.364	1081.16
762.547	1124.16
762.731	1122.12
762.914	1150.79
763.098	1027.91
763.281	1099.59
763.464	1107.78
763.648	1079.11
763.831	1056.58
764.015	1087.3
764.198	1058.63
764.381	1062.73
764.564	1081.16
764.748	1099.59
764.931	1111.88
765.114	1044.29
765.297	1042.25
765.481	1066.82
765.664	1025.86
765.847	1005.38
766.03	1081.16
766.213	1034.05
766.397	1050.44
766.58	984.9
766.763	1034.05
766.946	966.47
767.129	1060.68
767.312	999.24
767.495	1048.39
767.678	991.05
767.861	1032.01
768.044	1023.81
768.227	1064.77
768.41	1005.38
768.593	1015.62
768.776	941.89
768.959	915.27
769.142	1025.86
769.324	972.61
769.507	884.55
769.69	921.42
769.873	849.74
770.056	933.7
770.239	939.85
770.421	943.94
770.604	849.74
770.787	890.7
770.97	907.08
771.152	948.04
771.335	978.76
771.518	907.08
771.7	941.89
771.883	933.7
772.066	810.82
772.248	927.56
772.431	808.78
772.613	821.06
772.796	800.59
772.978	851.78
773.161	823.11
773.343	859.98
773.526	841.54
773.708	866.12
773.891	816.97
774.073	808.78
774.256	796.49
774.438	759.63
774.621	804.68
774.803	870.22
774.985	802.63
775.168	780.11
775.35	806.73
775.532	792.39
775.715	812.87
775.897	765.77
776.079	769.87
776.261	751.43
776.444	767.82
776.626	792.39
776.808	800.59
776.99	661.32
777.173	819.02
777.355	792.39
777.537	663.37
777.719	757.58
777.901	769.87
778.083	710.47
778.265	679.75
778.447	720.71
778.629	780.11
778.811	700.23
778.993	683.85
779.175	646.99
779.357	640.84
779.539	579.4
779.721	644.94
779.903	683.85
780.085	634.7
780.267	681.8
780.449	710.47
780.631	567.12
780.812	606.03
780.994	659.28
781.176	579.4
781.358	524.11
781.54	612.17
781.721	665.42
781.903	622.41
782.085	472.91
782.267	632.65
782.448	657.23
782.63	569.16
782.812	558.92
782.993	575.31
783.175	606.03
783.357	524.11
783.538	550.73
783.72	368.46
783.901	542.54
784.083	511.82
784.264	522.06
784.446	575.31
784.627	485.2
784.809	556.88
784.99	509.77
785.172	520.01
785.353	489.29
785.535	501.58
785.716	468.81
785.897	458.57
786.079	477.01
786.26	436.05
786.441	499.53
786.623	411.47
786.804	477.01
786.985	485.2
787.167	415.57
787.348	499.53
787.529	423.76
787.71	479.05
787.891	456.53
788.073	403.28
788.254	468.81
788.435	468.81
788.616	434
788.797	448.33
788.978	421.71
789.159	409.42
789.34	485.2
789.522	321.36
789.703	409.42
789.884	376.66
790.065	411.47
790.246	485.2
790.427	413.52
790.607	329.55
790.788	472.91
790.969	372.56
791.15	380.75
791.331	454.48
791.512	341.84
791.693	333.65
791.874	384.85
792.054	376.66
792.235	374.61
792.416	378.7
792.597	378.7
792.778	352.08
792.958	343.89
793.139	323.41
793.32	309.07
793.5	317.26
793.681	407.38
793.862	296.78
794.042	382.8
794.223	270.16
794.404	313.17
794.584	272.21
794.765	315.22
794.945	374.61
795.126	296.78
795.306	300.88
795.487	300.88
795.667	341.84
795.848	304.98
796.028	300.88
796.209	384.85
796.389	300.88
796.57	372.56
796.75	270.16
796.93	364.37
797.111	331.6
797.291	341.84
797.471	261.97
797.652	292.69
797.832	261.97
798.012	278.35
798.192	223.06
798.373	210.77
798.553	323.41
798.733	313.17
798.913	304.98
799.093	329.55
799.274	255.83
799.454	274.26
799.634	335.7
799.814	270.16
799.994	280.4
800.174	227.15
800.354	304.98
800.534	198.48
800.714	319.31
800.894	264.02
801.074	194.39
801.254	307.02
801.434	325.46
801.614	139.09
801.794	231.25
801.974	755.53
802.154	329.55
802.334	272.21
802.514	251.73
802.693	227.15
802.873	233.3
803.053	345.94
803.233	261.97
803.413	247.63
803.592	227.15
803.772	241.49
803.952	300.88
804.131	319.31
804.311	270.16
804.491	180.05
804.67	190.29
804.85	268.11
805.03	259.92
805.209	261.97
805.389	225.11
805.568	223.06
805.748	223.06
805.928	270.16
806.107	171.86
806.287	268.11
806.466	247.63
806.646	247.63
806.825	214.87
807.004	208.72
807.184	257.87
807.363	196.43
807.543	245.59
807.722	196.43
807.901	202.58
808.081	210.77
808.26	214.87
808.439	239.44
808.619	247.63
808.798	212.82
808.977	165.71
809.156	163.67
809.336	247.63
809.515	235.35
809.694	245.59
809.873	200.53
810.052	190.29
810.231	190.29
810.411	206.67
810.59	122.71
810.769	218.96
810.948	135
811.127	157.52
811.306	190.29
811.485	100.18
811.664	180.05
811.843	169.81
812.022	130.9
812.201	155.47
812.38	106.32
812.559	178
812.737	204.63
812.916	208.72
813.095	200.53
813.274	235.35
813.453	188.24
813.632	167.76
813.811	239.44
813.989	157.52
814.168	196.43
814.347	59.22
814.526	96.08
814.704	128.85
814.883	198.48
815.062	116.56
815.24	178
815.419	141.14
815.598	143.19
815.776	137.04
815.955	198.48
816.133	165.71
816.312	157.52
816.49	116.56
816.669	169.81
816.847	124.76
817.026	116.56
817.204	155.47
817.383	124.76
817.561	28.5
817.74	83.8
817.918	141.14
818.097	124.76
818.275	153.43
818.453	157.52
818.632	182.1
818.81	198.48
818.988	173.91
819.167	132.95
819.345	81.75
819.523	98.13
819.701	149.33
819.879	153.43
820.058	106.32
820.236	100.18
820.414	122.71
820.592	120.66
820.77	75.6
820.948	116.56
821.127	122.71
821.305	243.54
821.483	85.84
821.661	159.57
821.839	69.46
822.017	120.66
822.195	59.22
822.373	188.24
822.551	139.09
822.729	112.47
822.907	46.93
823.085	190.29
823.262	67.41
823.44	128.85
823.618	137.04
823.796	100.18
823.974	91.99
824.152	149.33
824.329	96.08
824.507	132.95
824.685	145.24
824.863	59.22
825.04	132.95
825.218	128.85
825.396	137.04
825.574	147.28
825.751	81.75
825.929	83.8
826.107	69.46
826.284	100.18
826.462	155.47
826.639	77.65
826.817	126.8
826.994	171.86
827.172	73.56
827.349	169.81
827.527	118.61
827.704	83.8
827.882	87.89
828.059	132.95
828.237	26.45
828.414	87.89
828.591	20.31
828.769	120.66
828.946	98.13
829.124	141.14
829.301	100.18
829.478	102.23
829.655	163.67
829.833	51.03
830.01	3.93
830.187	69.46
830.364	108.37
830.542	91.99
830.719	128.85
830.896	67.41
831.073	71.51
831.25	155.47
831.427	188.24
831.604	51.03
831.782	67.41
831.959	91.99
832.136	48.98
832.313	116.56
832.49	116.56
832.667	75.6
832.844	81.75
833.021	67.41
833.198	65.36
833.374	89.94
833.551	34.64
833.728	26.45
833.905	124.76
834.082	-4.27
834.259	75.6
834.436	73.56
834.612	94.04
834.789	14.17
834.966	-26.79
835.143	30.55
835.319	-34.99
835.496	44.88
835.673	106.32
835.85	100.18
836.026	83.8
836.203	100.18
836.38	8.02
836.556	67.41
836.733	44.88
836.909	75.6
837.086	94.04
837.262	65.36
837.439	18.26
837.616	14.17
837.792	112.47
837.968	46.93
838.145	34.64
838.321	91.99
838.498	34.64
838.674	87.89
838.851	100.18
839.027	69.46
839.203	26.45
839.38	10.07
839.556	57.17
839.732	98.13
839.909	-14.51
840.085	120.66
840.261	100.18
840.437	-10.41
840.614	46.93
840.79	81.75
840.966	67.41
841.142	46.93
841.318	22.36
841.494	46.93
841.671	51.03
841.847	34.64
842.023	-77.99
842.199	38.74
842.375	46.93
842.551	42.84
842.727	-18.6
842.903	28.5
843.079	89.94
843.255	118.61
843.431	48.98
843.607	-34.99
843.783	34.64
843.959	67.41
844.134	77.65
844.31	116.56
844.486	1.88
844.662	32.6
844.838	67.41
845.013	104.28
845.189	-24.75
845.365	73.56
845.541	51.03
845.716	40.79
845.892	118.61
846.068	67.41
846.244	36.69
846.419	48.98
846.595	67.41
846.77	48.98
846.946	55.12
847.122	75.6
847.297	59.22
847.473	81.75
847.648	-2.22
847.824	59.22
847.999	-55.47
848.175	30.55
848.35	73.56
848.526	81.75
848.701	20.31
848.876	55.12
849.052	77.65
849.227	61.27
849.403	34.64
849.578	63.32
849.753	63.32
849.929	38.74
850.104	18.26
850.279	48.98
850.454	46.93
850.63	-10.41
850.805	114.52
850.98	44.88
851.155	30.55
851.33	55.12
851.505	30.55
851.681	171.86
851.856	81.75
852.031	12.12
852.206	1.88
852.381	46.93
852.556	34.64
852.731	59.22
852.906	5.97
853.081	87.89
853.256	75.6
853.431	34.64
853.606	46.93
853.781	14.17
853.956	18.26
854.131	48.98
854.305	-12.46
854.48	73.56
854.655	26.45
854.83	-0.17
855.005	89.94
855.18	83.8
855.354	10.07
855.529	8.02
855.704	-8.36
855.879	5.97
856.053	1.88
856.228	42.84
856.403	-14.51
856.577	126.8
856.752	-20.65
856.926	10.07
857.101	108.37
857.276	38.74
857.45	22.36
857.625	81.75
857.799	40.79
857.974	38.74
858.148	-41.13
858.323	-51.37
858.497	8.02
858.672	-0.17
858.846	-41.13
859.02	12.12
859.195	-53.42
859.369	81.75
859.543	10.07
859.718	24.4
859.892	57.17
860.066	85.84
860.241	75.6
860.415	32.6
860.589	5.97
860.763	30.55
860.938	-32.94
861.112	-4.27
861.286	46.93
861.46	8.02
861.634	-24.75
861.808	34.64
861.982	-75.95
862.157	-2.22
862.331	-24.75
862.505	46.93
862.679	-43.18
862.853	-43.18
863.027	18.26
863.201	14.17
863.375	61.27
863.549	22.36
863.722	46.93
863.896	38.74
864.07	-10.41
864.244	-14.51
864.418	8.02
864.592	96.08
864.766	26.45
864.939	26.45
865.113	10.07
865.287	16.21
865.461	48.98
865.634	-10.41
865.808	18.26
865.982	55.12
866.156	-6.31
866.329	-2.22
866.503	44.88
866.676	96.08
866.85	51.03
867.024	-6.31
867.197	-6.31
867.371	-14.51
867.544	36.69
867.718	-39.08
867.891	-2.22
868.065	89.94
868.238	51.03
868.412	69.46
868.585	-20.65
868.759	-57.51
868.932	34.64
869.105	-63.66
869.279	-8.36
869.452	1.88
869.625	-22.7
869.799	-16.55
869.972	18.26
870.145	87.89
870.319	73.56
870.492	83.8
870.665	5.97
870.838	-22.7
871.011	1.88
871.185	-26.79
871.358	-26.79
871.531	38.74
871.704	14.17
871.877	-12.46
872.05	10.07
872.223	-39.08
872.396	-4.27
872.569	69.46
872.742	-39.08
872.915	63.32
873.088	-49.32
873.261	10.07
873.434	51.03
873.607	20.31
873.78	24.4
873.953	-51.37
874.126	-14.51
874.299	14.17
874.471	16.21
874.644	24.4
874.817	18.26
874.99	53.08
875.163	-39.08
875.335	-4.27
875.508	-10.41
875.681	44.88
875.853	-65.71
876.026	51.03
876.199	-6.31
876.371	-2.22
876.544	51.03
876.717	67.41
876.889	-26.79
877.062	8.02
877.234	5.97
877.407	-14.51
877.579	16.21
877.752	30.55
877.924	22.36
878.097	-24.75
878.269	-28.84
878.442	-12.46
878.614	34.64
878.786	-12.46
878.959	-8.36
879.131	22.36
879.303	-41.13
879.476	-63.66
879.648	-39.08
879.82	28.5
879.993	8.02
880.165	22.36
880.337	38.74
880.509	53.08
880.681	5.97
880.854	-26.79
881.026	-8.36
881.198	67.41
881.37	3.93
881.542	-16.55
881.714	14.17
881.886	-4.27
882.058	-2.22
882.23	1.88
882.402	46.93
882.574	18.26
882.746	-41.13
882.918	69.46
883.09	26.45
883.262	-8.36
883.434	24.4
883.606	-22.7
883.778	-61.61
883.95	-6.31
884.122	-34.99
884.293	-2.22
884.465	16.21
884.637	-0.17
884.809	34.64
884.98	-24.75
885.152	30.55
885.324	26.45
885.496	-53.42
885.667	-20.65
885.839	-12.46
886.011	18.26
886.182	10.07
886.354	34.64
886.525	34.64
886.697	30.55
886.869	-8.36
887.04	26.45
887.212	91.99
887.383	32.6
887.555	22.36
887.726	-24.75
887.897	-22.7
888.069	-32.94
888.24	-22.7
888.412	-41.13
888.583	12.12
888.754	-22.7
888.926	-41.13
889.097	28.5
889.268	-71.85
889.44	79.7
889.611	-18.6
889.782	22.36
889.953	10.07
890.125	100.18
890.296	-16.55
890.467	51.03
890.638	-20.65
890.809	-26.79
890.98	-88.23
891.151	48.98
891.323	55.12
891.494	5.97
891.665	-0.17
891.836	61.27
892.007	-51.37
892.178	48.98
892.349	-45.23
892.52	51.03
892.691	-2.22
892.862	8.02
893.032	1.88
893.203	-100.52
893.374	-30.89
893.545	67.41
893.716	-37.03
893.887	30.55
894.057	-28.84
894.228	-22.7
894.399	-18.6
894.57	106.32
894.74	28.5
894.911	44.88
895.082	-71.85
895.253	-14.51
895.423	67.41
895.594	-43.18
895.764	-41.13
895.935	-61.61
896.106	46.93
896.276	-12.46
896.447	8.02
896.617	-53.42
896.788	-39.08
896.958	-24.75
897.129	26.45
897.299	8.02
897.47	-30.89
897.64	-10.41
897.81	-0.17
897.981	16.21
898.151	-26.79
898.322	-8.36
898.492	14.17
898.662	-8.36
898.832	-18.6
899.003	-100.52
899.173	-6.31
899.343	44.88
899.513	3.93
