Data from USB4F104151__175__10-27-36-438.txt Node

Date: Wed Mar 12 10:27:36 EDT 2025
User: louis
Spectrometer: USB4F10415
Trigger mode: 4
Integration Time (sec): 3.000000E-2
Scans to average: 1
Electric dark correction enabled: true
Nonlinearity correction enabled: false
Boxcar width: 0
XAxis mode: Wavelengths
Number of Pixels in Spectrum: 3648
>>>>>Begin Spectral Data<<<<<
178.204	-192.85
178.424	-192.85
178.644	-192.85
178.864	-221.52
179.084	-141.65
179.304	54.95
179.524	-20.82
179.744	9.9
179.964	28.33
180.184	-41.3
180.404	-55.64
180.624	-65.88
180.844	69.29
181.064	-26.96
181.283	1.71
181.503	11.95
181.723	34.47
181.943	3.75
182.163	26.28
182.383	-39.25
182.602	13.99
182.822	52.91
183.042	-10.58
183.262	34.47
183.482	42.67
183.701	50.86
183.921	-24.92
184.141	-29.01
184.361	26.28
184.58	5.8
184.8	16.04
185.02	-22.87
185.239	-10.58
185.459	-51.54
185.679	1.71
185.898	-29.01
186.118	52.91
186.338	-26.96
186.557	18.09
186.777	-24.92
186.997	9.9
187.216	38.57
187.436	32.43
187.655	-6.49
187.875	34.47
188.095	-51.54
188.314	52.91
188.534	48.81
188.753	-10.58
188.973	48.81
189.192	24.23
189.412	18.09
189.631	18.09
189.851	-12.63
190.07	13.99
190.29	-2.39
190.509	61.1
190.729	28.33
190.948	5.8
191.168	124.58
191.387	75.43
191.607	-26.96
191.826	61.1
192.045	22.19
192.265	-6.49
192.484	-22.87
192.704	22.19
192.923	34.47
193.142	52.91
193.362	-6.49
193.581	40.62
193.8	-2.39
194.02	-2.39
194.239	30.38
194.458	11.95
194.678	16.04
194.897	-12.63
195.116	-69.97
195.335	16.04
195.555	40.62
195.774	3.75
195.993	28.33
196.212	-0.34
196.432	3.75
196.651	-24.92
196.87	-22.87
197.089	65.19
197.308	26.28
197.528	32.43
197.747	-4.44
197.966	13.99
198.185	69.29
198.404	-4.44
198.623	79.53
198.842	20.14
199.062	106.15
199.281	3.75
199.5	65.19
199.719	40.62
199.938	-43.35
200.157	-4.44
200.376	11.95
200.595	46.76
200.814	34.47
201.033	24.23
201.252	-2.39
201.471	61.1
201.69	32.43
201.909	5.8
202.128	18.09
202.347	118.44
202.566	22.19
202.785	-18.77
203.004	20.14
203.223	65.19
203.442	67.24
203.661	-2.39
203.879	1.71
204.098	-2.39
204.317	-20.82
204.536	13.99
204.755	-8.53
204.974	24.23
205.193	87.72
205.411	89.77
205.63	-6.49
205.849	52.91
206.068	-55.64
206.287	22.19
206.505	-10.58
206.724	9.9
206.943	-57.68
207.162	26.28
207.381	-31.06
207.599	-16.73
207.818	-10.58
208.037	11.95
208.255	-43.35
208.474	-35.16
208.693	24.23
208.911	22.19
209.13	-16.73
209.349	7.85
209.567	26.28
209.786	91.82
210.005	5.8
210.223	3.75
210.442	-51.54
210.661	54.95
210.879	91.82
211.098	73.39
211.316	-4.44
211.535	120.49
211.753	9.9
211.972	-26.96
212.191	-47.44
212.409	-72.02
212.628	22.19
212.846	24.23
213.065	34.47
213.283	73.39
213.502	-31.06
213.72	-6.49
213.938	54.95
214.157	-31.06
214.375	26.28
214.594	42.67
214.812	-20.82
215.031	13.99
215.249	16.04
215.467	18.09
215.686	73.39
215.904	28.33
216.122	-59.73
216.341	20.14
216.559	7.85
216.778	67.24
216.996	118.44
217.214	-39.25
217.432	-35.16
217.651	-39.25
217.869	54.95
218.087	50.86
218.306	42.67
218.524	-31.06
218.742	-31.06
218.96	-22.87
219.179	-4.44
219.397	-2.39
219.615	97.96
219.833	-26.96
220.051	-4.44
220.27	-2.39
220.488	46.76
220.706	7.85
220.924	-14.68
221.142	50.86
221.36	13.99
221.578	63.15
221.796	-14.68
222.015	-14.68
222.233	20.14
222.451	50.86
222.669	-31.06
222.887	-6.49
223.105	18.09
223.323	-88.4
223.541	1.71
223.759	71.34
223.977	-31.06
224.195	79.53
224.413	-35.16
224.631	-20.82
224.849	20.14
225.067	36.52
225.285	9.9
225.503	13.99
225.721	-8.53
225.939	9.9
226.157	1.71
226.375	1.71
226.592	-22.87
226.81	-24.92
227.028	26.28
227.246	46.76
227.464	9.9
227.682	54.95
227.9	20.14
228.117	44.71
228.335	-10.58
228.553	11.95
228.771	75.43
228.989	54.95
229.206	16.04
229.424	-18.77
229.642	22.19
229.86	-55.64
230.077	87.72
230.295	-12.63
230.513	-12.63
230.731	50.86
230.948	83.63
231.166	13.99
231.384	-22.87
231.601	-51.54
231.819	54.95
232.037	22.19
232.254	-63.83
232.472	-0.34
232.689	26.28
232.907	-18.77
233.125	5.8
233.342	-41.3
233.56	-80.21
233.777	59.05
233.995	3.75
234.213	114.34
234.43	48.81
234.648	-22.87
234.865	40.62
235.083	42.67
235.3	-43.35
235.518	63.15
235.735	13.99
235.953	97.96
236.17	9.9
236.388	-35.16
236.605	-2.39
236.822	38.57
237.04	18.09
237.257	26.28
237.475	-18.77
237.692	46.76
237.909	-16.73
238.127	34.47
238.344	1.71
238.562	18.09
238.779	11.95
238.996	40.62
239.214	-2.39
239.431	65.19
239.648	-14.68
239.865	79.53
240.083	40.62
240.3	-84.31
240.517	5.8
240.735	44.71
240.952	48.81
241.169	54.95
241.386	38.57
241.603	16.04
241.821	-22.87
242.038	50.86
242.255	20.14
242.472	13.99
242.689	-12.63
242.907	32.43
243.124	-43.35
243.341	-100.69
243.558	-29.01
243.775	3.75
243.992	-67.92
244.209	85.67
244.426	54.95
244.643	28.33
244.86	18.09
245.078	87.72
245.295	-29.01
245.512	-0.34
245.729	11.95
245.946	-22.87
246.163	44.71
246.38	20.14
246.597	67.24
246.814	28.33
247.031	-20.82
247.248	1.71
247.464	-29.01
247.681	-35.16
247.898	50.86
248.115	-53.59
248.332	-63.83
248.549	75.43
248.766	38.57
248.983	61.1
249.2	11.95
249.417	46.76
249.633	-12.63
249.85	87.72
250.067	-4.44
250.284	50.86
250.501	102.06
250.717	26.28
250.934	-24.92
251.151	42.67
251.368	67.24
251.585	81.58
251.801	24.23
252.018	-29.01
252.235	54.95
252.451	-4.44
252.668	-47.44
252.885	75.43
253.102	20.14
253.318	71.34
253.535	22.19
253.752	-35.16
253.968	-20.82
254.185	34.47
254.401	5.8
254.618	1.71
254.835	-43.35
255.051	40.62
255.268	63.15
255.484	28.33
255.701	5.8
255.917	102.06
256.134	30.38
256.351	79.53
256.567	34.47
256.784	-51.54
257	-26.96
257.217	42.67
257.433	-2.39
257.65	65.19
257.866	28.33
258.082	28.33
258.299	69.29
258.515	147.11
258.732	-24.92
258.948	44.71
259.165	24.23
259.381	16.04
259.597	-76.12
259.814	50.86
260.03	1.71
260.246	-18.77
260.463	61.1
260.679	63.15
260.895	87.72
261.112	59.05
261.328	9.9
261.544	-8.53
261.761	11.95
261.977	91.82
262.193	11.95
262.409	-22.87
262.626	28.33
262.842	13.99
263.058	42.67
263.274	30.38
263.49	22.19
263.707	-2.39
263.923	-55.64
264.139	-0.34
264.355	22.19
264.571	44.71
264.787	1.71
265.004	40.62
265.22	91.82
265.436	16.04
265.652	30.38
265.868	79.53
266.084	30.38
266.3	-12.63
266.516	20.14
266.732	48.81
266.948	-4.44
267.164	75.43
267.38	42.67
267.596	13.99
267.812	59.05
268.028	87.72
268.244	32.43
268.46	5.8
268.676	7.85
268.892	128.68
269.108	54.95
269.324	-6.49
269.54	-35.16
269.756	54.95
269.972	-67.92
270.188	-22.87
270.403	9.9
270.619	-18.77
270.835	-22.87
271.051	36.52
271.267	-6.49
271.483	18.09
271.698	18.09
271.914	52.91
272.13	-24.92
272.346	-14.68
272.562	13.99
272.777	54.95
272.993	-57.68
273.209	46.76
273.425	63.15
273.64	-39.25
273.856	48.81
274.072	79.53
274.287	-57.68
274.503	91.82
274.719	9.9
274.934	-10.58
275.15	-53.59
275.366	44.71
275.581	-53.59
275.797	18.09
276.012	26.28
276.228	42.67
276.444	38.57
276.659	-10.58
276.875	-29.01
277.09	-24.92
277.306	-20.82
277.521	57
277.737	-24.92
277.952	40.62
278.168	-29.01
278.383	57
278.599	95.91
278.814	5.8
279.03	26.28
279.245	95.91
279.461	-6.49
279.676	-2.39
279.892	-47.44
280.107	-37.2
280.322	-39.25
280.538	7.85
280.753	11.95
280.969	-39.25
281.184	-33.11
281.399	75.43
281.615	-41.3
281.83	-31.06
282.045	5.8
282.26	36.52
282.476	18.09
282.691	151.21
282.906	46.76
283.122	-18.77
283.337	40.62
283.552	40.62
283.767	-45.4
283.983	52.91
284.198	-0.34
284.413	79.53
284.628	16.04
284.843	71.34
285.058	61.1
285.274	71.34
285.489	54.95
285.704	-0.34
285.919	-6.49
286.134	26.28
286.349	65.19
286.564	5.8
286.779	-20.82
286.995	-78.16
287.21	-12.63
287.425	11.95
287.64	63.15
287.855	26.28
288.07	57
288.285	36.52
288.5	30.38
288.715	108.2
288.93	-22.87
289.145	20.14
289.36	5.8
289.575	-22.87
289.79	22.19
290.004	-2.39
290.219	-45.4
290.434	-2.39
290.649	-2.39
290.864	44.71
291.079	28.33
291.294	5.8
291.509	18.09
291.724	50.86
291.938	9.9
292.153	116.39
292.368	1.71
292.583	13.99
292.798	81.58
293.012	46.76
293.227	50.86
293.442	48.81
293.657	13.99
293.871	30.38
294.086	26.28
294.301	63.15
294.516	75.43
294.73	13.99
294.945	-4.44
295.16	-53.59
295.374	-26.96
295.589	50.86
295.804	-49.49
296.018	26.28
296.233	9.9
296.447	18.09
296.662	-29.01
296.877	61.1
297.091	126.63
297.306	-12.63
297.52	-26.96
297.735	67.24
297.949	-8.53
298.164	28.33
298.378	16.04
298.593	-2.39
298.807	11.95
299.022	112.3
299.236	11.95
299.451	-26.96
299.665	77.48
299.88	67.24
300.094	38.57
300.309	-10.58
300.523	7.85
300.737	-39.25
300.952	59.05
301.166	-57.68
301.381	57
301.595	54.95
301.809	44.71
302.024	42.67
302.238	22.19
302.452	32.43
302.667	30.38
302.881	61.1
303.095	79.53
303.309	36.52
303.524	-41.3
303.738	34.47
303.952	-29.01
304.166	13.99
304.381	-39.25
304.595	75.43
304.809	-55.64
305.023	-43.35
305.237	32.43
305.452	1.71
305.666	-2.39
305.88	-4.44
306.094	77.48
306.308	54.95
306.522	50.86
306.736	26.28
306.95	50.86
307.164	5.8
307.379	42.67
307.593	5.8
307.807	28.33
308.021	100.01
308.235	5.8
308.449	18.09
308.663	-69.97
308.877	104.11
309.091	73.39
309.305	46.76
309.519	-26.96
309.733	50.86
309.947	65.19
310.161	13.99
310.374	28.33
310.588	24.23
310.802	24.23
311.016	24.23
311.23	-2.39
311.444	42.67
311.658	71.34
311.872	34.47
312.085	54.95
312.299	85.67
312.513	30.38
312.727	71.34
312.941	-31.06
313.154	59.05
313.368	20.14
313.582	-45.4
313.796	44.71
314.009	26.28
314.223	-22.87
314.437	-2.39
314.651	61.1
314.864	-4.44
315.078	28.33
315.292	-51.54
315.505	59.05
315.719	97.96
315.933	-14.68
316.146	11.95
316.36	9.9
316.573	22.19
316.787	-35.16
317.001	75.43
317.214	-16.73
317.428	-4.44
317.641	-20.82
317.855	40.62
318.068	-0.34
318.282	-14.68
318.495	32.43
318.709	7.85
318.922	11.95
319.136	85.67
319.349	71.34
319.563	20.14
319.776	40.62
319.99	11.95
320.203	40.62
320.417	-6.49
320.63	44.71
320.843	18.09
321.057	-20.82
321.27	38.57
321.483	100.01
321.697	18.09
321.91	77.48
322.124	69.29
322.337	30.38
322.55	11.95
322.763	59.05
322.977	65.19
323.19	22.19
323.403	85.67
323.617	71.34
323.83	30.38
324.043	44.71
324.256	-39.25
324.469	46.76
324.683	24.23
324.896	54.95
325.109	30.38
325.322	13.99
325.535	63.15
325.748	-16.73
325.962	42.67
326.175	79.53
326.388	52.91
326.601	-26.96
326.814	5.8
327.027	36.52
327.24	28.33
327.453	-35.16
327.666	42.67
327.879	26.28
328.092	61.1
328.305	3.75
328.518	93.87
328.731	3.75
328.944	-2.39
329.157	93.87
329.37	71.34
329.583	46.76
329.796	95.91
330.009	69.29
330.222	79.53
330.435	67.24
330.648	147.11
330.861	-20.82
331.073	22.19
331.286	11.95
331.499	48.81
331.712	20.14
331.925	108.2
332.138	-18.77
332.35	36.52
332.563	18.09
332.776	69.29
332.989	-12.63
333.202	-4.44
333.414	20.14
333.627	61.1
333.84	-33.11
334.053	91.82
334.265	34.47
334.478	9.9
334.691	48.81
334.903	32.43
335.116	30.38
335.329	40.62
335.541	13.99
335.754	136.87
335.966	7.85
336.179	83.63
336.392	73.39
336.604	-22.87
336.817	-10.58
337.029	95.91
337.242	36.52
337.454	46.76
337.667	44.71
337.88	34.47
338.092	40.62
338.305	-33.11
338.517	-33.11
338.729	30.38
338.942	18.09
339.154	22.19
339.367	28.33
339.579	61.1
339.792	16.04
340.004	65.19
340.217	46.76
340.429	34.47
340.641	-55.64
340.854	44.71
341.066	-18.77
341.278	40.62
341.491	44.71
341.703	75.43
341.915	-35.16
342.128	63.15
342.34	20.14
342.552	18.09
342.764	-24.92
342.977	42.67
343.189	-22.87
343.401	57
343.613	3.75
343.826	61.1
344.038	52.91
344.25	22.19
344.462	22.19
344.674	28.33
344.886	59.05
345.099	91.82
345.311	46.76
345.523	1.71
345.735	50.86
345.947	-22.87
346.159	-10.58
346.371	-51.54
346.583	30.38
346.795	13.99
347.007	106.15
347.219	95.91
347.431	79.53
347.643	52.91
347.855	32.43
348.067	-2.39
348.279	-14.68
348.491	-10.58
348.703	79.53
348.915	24.23
349.127	1.71
349.339	110.25
349.551	67.24
349.763	77.48
349.975	54.95
350.187	95.91
350.399	36.52
350.61	13.99
350.822	-26.96
351.034	16.04
351.246	57
351.458	71.34
351.669	61.1
351.881	48.81
352.093	132.78
352.305	91.82
352.517	48.81
352.728	-22.87
352.94	3.75
353.152	110.25
353.363	-31.06
353.575	48.81
353.787	52.91
353.999	75.43
354.21	46.76
354.422	61.1
354.633	-16.73
354.845	32.43
355.057	46.76
355.268	7.85
355.48	73.39
355.692	28.33
355.903	40.62
356.115	28.33
356.326	112.3
356.538	140.97
356.749	18.09
356.961	52.91
357.172	-18.77
357.384	13.99
357.595	126.63
357.807	-0.34
358.018	-20.82
358.23	54.95
358.441	50.86
358.653	50.86
358.864	-26.96
359.075	11.95
359.287	20.14
359.498	59.05
359.709	-10.58
359.921	54.95
360.132	32.43
360.344	46.76
360.555	52.91
360.766	44.71
360.977	63.15
361.189	-14.68
361.4	-14.68
361.611	95.91
361.823	48.81
362.034	3.75
362.245	52.91
362.456	42.67
362.667	36.52
362.879	-20.82
363.09	30.38
363.301	38.57
363.512	-16.73
363.723	36.52
363.935	36.52
364.146	11.95
364.357	-18.77
364.568	38.57
364.779	-4.44
364.99	89.77
365.201	44.71
365.412	32.43
365.623	5.8
365.834	36.52
366.045	-37.2
366.256	126.63
366.467	-37.2
366.678	-2.39
366.889	13.99
367.1	11.95
367.311	26.28
367.522	-39.25
367.733	67.24
367.944	50.86
368.155	93.87
368.366	87.72
368.577	97.96
368.788	48.81
368.999	30.38
369.209	48.81
369.42	71.34
369.631	143.02
369.842	1.71
370.053	-31.06
370.264	75.43
370.474	40.62
370.685	44.71
370.896	59.05
371.107	118.44
371.317	106.15
371.528	59.05
371.739	48.81
371.95	93.87
372.16	59.05
372.371	20.14
372.582	34.47
372.792	-31.06
373.003	85.67
373.214	5.8
373.424	-24.92
373.635	28.33
373.846	9.9
374.056	57
374.267	143.02
374.477	57
374.688	-6.49
374.898	16.04
375.109	100.01
375.319	13.99
375.53	102.06
375.74	28.33
375.951	-0.34
376.161	69.29
376.372	93.87
376.582	-35.16
376.793	102.06
377.003	85.67
377.214	-26.96
377.424	30.38
377.635	52.91
377.845	89.77
378.055	87.72
378.266	5.8
378.476	44.71
378.686	-29.01
378.897	28.33
379.107	44.71
379.317	65.19
379.528	-8.53
379.738	22.19
379.948	-22.87
380.158	46.76
380.369	34.47
380.579	-12.63
380.789	26.28
380.999	38.57
381.21	89.77
381.42	67.24
381.63	-41.3
381.84	85.67
382.05	42.67
382.261	79.53
382.471	26.28
382.681	-53.59
382.891	104.11
383.101	69.29
383.311	34.47
383.521	100.01
383.731	91.82
383.941	143.02
384.151	93.87
384.361	63.15
384.571	18.09
384.781	7.85
384.991	48.81
385.201	124.58
385.411	87.72
385.621	46.76
385.831	-6.49
386.041	89.77
386.251	44.71
386.461	61.1
386.671	26.28
386.881	5.8
387.091	5.8
387.301	40.62
387.511	16.04
387.72	26.28
387.93	65.19
388.14	3.75
388.35	-10.58
388.56	91.82
388.769	34.47
388.979	52.91
389.189	-8.53
389.399	73.39
389.609	13.99
389.818	85.67
390.028	34.47
390.238	9.9
390.447	54.95
390.657	1.71
390.867	38.57
391.076	32.43
391.286	50.86
391.496	87.72
391.705	65.19
391.915	130.73
392.125	34.47
392.334	-6.49
392.544	95.91
392.753	22.19
392.963	77.48
393.172	63.15
393.382	24.23
393.591	38.57
393.801	57
394.01	108.2
394.22	61.1
394.429	138.92
394.639	118.44
394.848	42.67
395.058	30.38
395.267	71.34
395.477	81.58
395.686	75.43
395.895	134.82
396.105	159.4
396.314	67.24
396.524	100.01
396.733	48.81
396.942	104.11
397.152	128.68
397.361	136.87
397.57	73.39
397.78	79.53
397.989	124.58
398.198	149.16
398.407	95.91
398.617	100.01
398.826	183.98
399.035	71.34
399.244	48.81
399.453	128.68
399.663	112.3
399.872	116.39
400.081	28.33
400.29	85.67
400.499	61.1
400.708	118.44
400.917	67.24
401.127	112.3
401.336	124.58
401.545	106.15
401.754	110.25
401.963	153.26
402.172	140.97
402.381	50.86
402.59	87.72
402.799	104.11
403.008	169.64
403.217	153.26
403.426	140.97
403.635	130.73
403.844	91.82
404.053	116.39
404.262	136.87
404.471	202.41
404.68	89.77
404.888	153.26
405.097	210.6
405.306	216.74
405.515	206.5
405.724	130.73
405.933	128.68
406.142	157.35
406.35	169.64
406.559	149.16
406.768	143.02
406.977	194.22
407.185	229.03
407.394	251.56
407.603	183.98
407.812	267.94
408.02	263.85
408.229	237.22
408.438	212.65
408.646	169.64
408.855	284.33
409.064	233.13
409.272	206.5
409.481	337.57
409.69	308.9
409.898	251.56
410.107	257.7
410.315	394.92
410.524	376.48
410.733	294.57
410.941	321.19
411.15	454.31
411.358	429.73
411.567	382.63
411.775	454.31
411.984	411.3
412.192	456.36
412.401	460.45
412.609	505.51
412.818	603.81
413.026	579.23
413.234	609.95
413.443	599.71
413.651	556.71
413.86	595.62
414.068	587.43
414.276	587.43
414.485	644.77
414.693	650.91
414.901	683.68
415.11	716.45
415.318	865.95
415.526	790.17
415.734	800.41
415.943	851.61
416.151	827.04
416.359	898.72
416.567	898.72
416.776	1033.88
416.984	1023.64
417.192	1119.9
417.4	1083.03
417.608	1074.84
417.817	1105.56
418.025	1136.28
418.233	1236.63
418.441	1175.19
418.649	1267.35
418.857	1437.33
419.065	1482.39
419.273	1328.79
419.481	1568.4
419.689	1521.3
419.897	1611.41
420.105	1504.92
420.313	1685.14
420.521	1683.09
420.729	1767.06
420.937	1758.86
421.145	1824.4
421.353	1939.09
421.561	2008.72
421.769	2068.11
421.977	2231.94
422.185	2238.09
422.393	2285.19
422.601	2395.78
422.809	2418.31
423.017	2494.08
423.224	2705.03
423.432	2627.2
423.64	2723.46
423.848	2862.72
424.056	2842.24
424.263	3135.1
424.471	3040.89
424.679	3192.44
424.887	3178.11
425.094	3409.53
425.302	3290.74
425.51	3495.54
425.718	3692.15
425.925	3593.84
426.133	3841.65
426.341	4050.54
426.548	4138.6
426.756	4144.75
426.964	4152.94
427.171	4445.8
427.379	4494.95
427.586	4742.75
427.794	4777.57
428.001	4982.37
428.209	5146.2
428.417	5138.01
428.624	5529.17
428.832	5572.18
429.039	5369.43
429.247	5465.69
429.454	6092.37
429.662	6448.71
429.869	6094.41
430.076	6307.4
430.284	6137.42
430.491	6571.59
430.699	6886.98
430.906	6843.97
431.114	6979.14
431.321	7214.65
431.528	7472.7
431.736	7925.3
431.943	8312.36
432.15	8072.75
432.358	8121.9
432.565	8594.98
432.772	8443.43
432.979	8807.97
433.187	9039.39
433.394	8963.62
433.601	9616.92
433.808	9598.49
434.016	9383.45
434.223	9973.27
434.43	10743.3
434.637	10556.94
434.844	11107.84
435.052	11226.62
435.259	11181.57
435.466	11386.36
435.673	11159.04
435.88	11976.18
436.087	12600.81
436.294	12545.52
436.501	12281.33
436.708	12508.65
436.915	12809.7
437.122	13571.55
437.329	13516.25
437.537	13888.98
437.743	14063.06
437.95	13673.95
438.157	14835.14
438.364	15214.02
438.571	15228.35
438.778	15390.14
438.985	16668.08
439.192	15943.1
439.399	16524.72
439.606	16522.67
439.813	17175.97
440.02	18132.37
440.227	17679.77
440.433	17616.29
440.64	18146.71
440.847	18048.41
441.054	18777.48
441.261	19555.71
441.467	19189.13
441.674	20192.63
441.881	20571.5
442.088	20094.33
442.294	20239.73
442.501	20966.76
442.708	21443.94
442.914	22199.64
443.121	23010.64
443.328	22531.41
443.534	23856.45
443.741	23459.14
443.948	23098.7
444.154	24823.09
444.361	24614.2
444.568	24550.71
444.774	24743.22
444.981	24948.01
445.187	25722.15
445.394	26676.5
445.6	26391.83
445.807	28972.27
446.013	27700.48
446.22	28540.15
446.426	29367.53
446.633	29398.25
446.839	30373.08
447.046	29213.93
447.252	30704.85
447.459	30737.62
447.665	30624.98
447.871	32511.16
448.078	33330.35
448.284	31407.31
448.491	32564.41
448.697	34139.3
448.903	34518.17
449.11	34237.6
449.316	33606.83
449.522	34602.14
449.728	35282.06
449.935	35755.15
450.141	35423.37
450.347	36297.86
450.553	35411.09
450.76	35337.36
450.966	36828.28
451.172	36490.37
451.378	36961.4
451.584	36334.72
451.791	37094.52
451.997	36897.91
452.203	37575.79
452.409	37395.57
452.615	37416.05
452.821	36265.09
453.027	35562.64
453.233	37297.27
453.44	35955.85
453.646	36080.77
453.852	36320.38
454.058	36707.45
454.264	35679.37
454.47	36369.54
454.676	35585.16
454.882	36643.96
455.088	33748.14
455.294	33975.46
455.5	34387.1
455.705	34442.4
455.911	33176.75
456.117	32773.3
456.323	32371.9
456.529	30518.49
456.735	31722.69
456.941	30819.54
457.147	30729.43
457.352	29537.51
457.558	29162.73
457.764	29336.81
457.97	28849.39
458.176	27991.3
458.381	27856.13
458.587	26506.52
458.793	26629.4
458.999	25525.54
459.204	26924.3
459.41	26410.26
459.616	24714.55
459.821	24487.22
460.027	24692.02
460.233	23897.41
460.438	22867.28
460.644	22836.56
460.85	22029.66
461.055	21775.71
461.261	21861.73
461.466	20088.18
461.672	19484.03
461.878	21144.94
462.083	19338.63
462.289	19412.35
462.494	18961.8
462.7	18085.27
462.905	17712.54
463.111	18271.64
463.316	18290.07
463.522	17890.71
463.727	18032.02
463.932	18156.95
464.138	17712.54
464.343	17927.58
464.549	17280.42
464.754	17735.07
464.959	17816.99
465.165	17446.3
465.37	16948.65
465.575	16512.43
465.781	17249.7
465.986	17178.02
466.191	16516.53
466.397	16168.37
466.602	15410.62
466.807	16025.01
467.012	16043.45
467.218	15904.18
467.423	15652.28
467.628	15713.72
467.833	16516.53
468.038	15881.66
468.244	15359.42
468.449	15961.53
468.654	15455.68
468.859	15361.47
469.064	15240.64
469.269	14716.36
469.474	14792.14
469.679	15017.41
469.885	14704.07
470.09	14710.22
470.295	14689.74
470.5	14497.23
470.705	14396.88
470.91	14015.96
471.115	14108.12
471.32	14417.36
471.525	14210.51
471.73	13735.39
471.935	13712.86
472.139	13221.34
472.344	13264.35
472.549	13262.3
472.754	13256.16
472.959	12932.58
473.164	12731.88
473.369	12531.18
473.574	12920.29
473.778	12846.57
473.983	12654.06
474.188	12678.63
474.393	12029.43
474.598	12127.73
474.802	12279.28
475.007	11935.22
475.212	12097.01
475.417	11306.49
475.621	11601.4
475.826	11402.75
476.031	11359.74
476.235	11126.27
476.44	11148.8
476.645	10962.44
476.849	11054.59
477.054	10862.08
477.259	10843.65
477.463	10870.28
477.668	10536.46
477.872	10626.57
478.077	10561.03
478.282	10346
478.486	10032.66
478.691	10251.79
478.895	10161.68
479.1	9895.44
479.304	9991.7
479.509	9754.13
479.713	9952.79
479.918	9756.18
480.122	9539.1
480.326	9752.09
480.531	9680.41
480.735	9588.25
480.94	9621.02
481.144	9870.87
481.348	9362.97
481.553	9489.95
481.757	9262.62
481.961	9424.41
482.166	9545.24
482.37	9518.62
482.574	9176.61
482.778	9291.29
482.983	9508.38
483.187	9332.25
483.391	9319.96
483.595	9262.62
483.8	9106.98
484.004	9279.01
484.208	9575.96
484.412	9502.23
484.616	9285.15
484.821	9276.96
485.025	9227.81
485.229	9324.06
485.433	9111.07
485.637	9178.65
485.841	9291.29
486.045	9385.5
486.249	9135.65
486.453	9109.02
486.657	9225.76
486.861	9377.31
487.065	9051.68
487.269	9221.66
487.473	9145.89
487.677	9369.12
487.881	9659.93
488.085	9158.17
488.289	9352.73
488.493	9172.51
488.697	9467.42
488.901	9352.73
489.105	9549.34
489.309	9424.41
489.512	9346.59
489.716	9373.21
489.92	9352.73
490.124	9465.37
490.328	9602.58
490.531	9504.28
490.735	9520.67
490.939	9729.56
491.143	9700.89
491.346	9778.71
491.55	9694.74
491.754	9578.01
491.958	9836.05
492.161	9813.52
492.365	9909.78
492.569	9664.02
492.772	9836.05
492.976	9922.07
493.18	10018.32
493.383	10036.75
493.587	10116.62
493.79	10313.23
493.994	10178.06
494.197	10130.96
494.401	10448.4
494.605	10141.2
494.808	10513.93
495.012	10507.79
495.215	10692.1
495.419	10745.35
495.622	10618.38
495.825	11156.99
496.029	10987.01
496.232	11034.11
496.436	11005.44
496.639	11562.49
496.843	11376.13
497.046	11468.28
497.249	11834.87
497.453	11679.22
497.656	11961.84
497.859	11711.99
498.063	12084.72
498.266	12189.17
498.469	12287.47
498.673	12301.81
498.876	12248.56
499.079	12778.98
499.282	12529.13
499.485	12979.68
499.689	13069.8
499.892	13290.98
500.095	13067.75
500.298	13442.53
500.501	13497.82
500.705	13909.46
500.908	13968.85
501.111	14056.92
501.314	14235.09
501.517	14300.62
501.72	14497.23
501.923	14562.76
502.126	14783.95
502.329	15228.35
502.532	15101.38
502.735	15447.49
502.938	15519.17
503.141	15744.44
503.344	16012.73
503.547	16045.49
503.75	16213.43
503.953	16299.44
504.156	16510.38
504.359	16700.84
504.562	16969.13
504.765	17167.78
504.968	17317.28
505.17	17329.57
505.373	17413.54
505.576	17788.32
505.779	17964.44
505.982	17771.93
506.185	18765.2
506.387	18494.86
506.59	18750.86
506.793	18904.46
506.996	19086.73
507.198	19768.7
507.401	19496.32
507.604	19789.18
507.807	20262.26
508.009	20444.53
508.212	20241.78
508.415	20579.7
508.617	20886.89
508.82	21247.33
509.022	21034.35
509.225	21613.92
509.428	21648.74
509.63	21966.17
509.833	22119.77
510.035	22414.68
510.238	22447.44
510.44	22420.82
510.643	22969.68
510.845	23229.77
511.048	23375.17
511.25	23371.08
511.453	23553.35
511.655	24505.65
511.858	24038.72
512.06	24364.34
512.262	24876.34
512.465	24939.82
512.667	25218.35
512.87	25451.81
513.072	25439.53
513.274	25928.99
513.477	26469.65
513.679	26739.99
513.881	26912.02
514.084	27065.61
514.286	26656.02
514.488	27407.62
514.69	28146.94
514.893	28179.71
515.095	28083.45
515.297	28310.78
515.499	28521.72
515.701	29056.24
515.904	29521.13
516.106	29791.46
516.308	29930.72
516.51	30407.9
516.712	30383.32
516.914	30543.06
517.116	31452.36
517.318	31261.9
517.52	31841.48
517.722	31841.48
517.925	31872.2
518.127	32369.85
518.329	32640.18
518.531	32611.51
518.733	33049.78
518.935	33131.7
519.136	33643.69
519.338	34112.67
519.54	34340
519.742	34886.81
519.944	34669.72
520.146	35181.71
520.348	35593.36
520.55	35699.85
520.752	36058.24
520.954	36437.12
521.155	36379.78
521.357	37051.51
521.559	37364.85
521.761	37719.15
521.963	37387.38
522.164	38069.35
522.366	38114.41
522.568	38530.14
522.77	38718.56
522.971	39269.46
523.173	38980.7
523.375	39554.13
523.576	39758.92
523.778	39875.66
523.98	40184.9
524.181	40696.89
524.383	40934.46
524.584	41497.65
524.786	40715.33
524.988	41194.55
525.189	41669.68
525.391	41829.42
525.592	41999.4
525.794	42071.08
525.995	42224.68
526.197	42581.02
526.398	42675.23
526.6	42830.88
526.801	43328.53
527.003	43508.75
527.204	43299.86
527.406	43654.16
527.607	43727.89
527.808	43965.45
528.01	43693.07
528.211	44094.47
528.412	44745.73
528.614	45124.6
528.815	44657.67
529.016	45134.84
529.218	44493.83
529.419	45345.78
529.62	44934.14
529.822	45310.97
530.023	45575.16
530.224	45382.65
530.425	45902.83
530.626	45480.95
530.828	45423.61
531.029	46402.53
531.23	45501.43
531.431	45949.93
531.632	46078.96
531.833	46492.65
532.035	46308.33
532.236	46369.77
532.437	46248.94
532.638	46380.01
532.839	46777.31
533.04	46506.98
533.241	46271.46
533.442	46930.91
533.643	46719.97
533.844	46789.6
534.045	47115.23
534.246	46289.9
534.447	46881.76
534.648	46742.5
534.849	46912.48
535.05	46865.38
535.251	46848.99
535.451	46689.25
535.652	47129.56
535.853	47299.54
536.054	47143.9
536.255	47066.08
536.456	46963.68
536.657	47586.26
536.857	47045.6
537.058	46965.73
537.259	47524.82
537.46	47014.88
537.66	47031.26
537.861	47184.86
538.062	47234.01
538.263	47154.14
538.463	47338.46
538.664	47231.96
538.865	47266.78
539.065	47637.46
539.266	46832.61
539.466	47506.39
539.667	46676.96
539.868	47637.46
540.068	47332.31
540.269	47313.88
540.469	48026.57
540.67	47248.35
540.87	47418.33
541.071	47428.57
541.271	47209.43
541.472	46988.25
541.672	47133.66
541.873	46967.77
542.073	46627.81
542.274	47559.64
542.474	47059.93
542.675	47066.08
542.875	47553.49
543.075	47182.81
543.276	46672.87
543.476	47332.31
543.676	47004.64
543.877	47346.65
544.077	46947.29
544.277	46988.25
544.478	46771.17
544.678	47291.35
544.878	47061.98
545.078	47328.22
545.279	46818.27
545.479	46984.16
545.679	47162.33
545.879	46922.72
546.079	47135.71
546.28	47201.24
546.48	46748.64
546.68	47262.68
546.88	46851.04
547.08	47072.22
547.28	46848.99
547.48	46375.91
547.68	47334.36
547.88	46533.6
548.081	46885.86
548.281	46859.23
548.481	47104.99
548.681	47344.6
548.881	46943.2
549.081	46824.42
549.28	46658.53
549.48	47207.39
549.68	46406.63
549.88	47823.82
550.08	46742.5
550.28	46971.87
550.48	46973.92
550.68	47057.88
550.88	46250.98
551.08	47014.88
551.279	46719.97
551.479	46371.82
551.679	46834.66
551.879	46554.08
552.079	46902.24
552.278	46611.43
552.478	46787.55
552.678	46480.36
552.878	46748.64
553.077	46453.73
553.277	46701.54
553.477	47297.5
553.676	46269.42
553.876	46795.74
554.076	46570.47
554.275	46304.23
554.475	46078.96
554.674	46783.46
554.874	46664.67
555.074	46369.77
555.273	46240.75
555.473	46709.73
555.672	45886.45
555.872	46398.44
556.071	46179.31
556.271	46451.69
556.47	46021.61
556.67	45536.24
556.869	46066.67
557.068	45988.84
557.268	45485.04
557.467	45796.34
557.667	45630.45
557.866	45790.19
558.065	45310.97
558.265	45589.49
558.464	45370.36
558.663	45741.04
558.863	45022.2
559.062	45902.83
559.261	44706.82
559.461	45620.21
559.66	44841.98
559.859	45308.92
560.058	44704.77
560.258	45186.04
560.457	44915.71
560.656	44733.44
560.855	44792.83
561.054	44569.6
561.253	44381.19
561.453	44506.12
561.652	44538.88
561.851	44727.3
562.05	44280.84
562.249	44063.75
562.448	44440.58
562.647	44129.29
562.846	43942.92
563.045	43836.43
563.244	43795.47
563.443	44477.44
563.642	43303.96
563.841	43643.92
564.04	43281.43
564.239	43770.89
564.438	43095.07
564.637	43228.18
564.836	43389.97
565.035	42515.49
565.234	42894.36
565.432	42834.97
565.631	42546.21
565.83	42890.27
566.029	42322.98
566.228	42400.8
566.427	42060.84
566.625	42322.98
566.824	41452.59
567.023	41937.96
567.222	41329.72
567.42	42019.88
567.619	41729.07
567.818	41794.6
568.016	41264.18
568.215	41903.15
568.414	41212.98
568.612	41489.46
568.811	41217.08
569.01	41346.1
569.208	40877.11
569.407	41346.1
569.605	40324.16
569.804	41022.52
570.002	40389.7
570.201	40877.11
570.4	39842.89
570.598	39754.83
570.797	40037.45
570.995	40084.55
571.193	39345.23
571.392	40238.15
571.59	39689.29
571.789	39859.27
571.987	39232.6
572.186	39101.53
572.384	39117.91
572.582	39144.53
572.781	39103.57
572.979	38849.63
573.177	38777.95
573.376	38777.95
573.574	38304.87
573.772	38685.79
573.971	38345.83
574.169	38231.14
574.367	37745.77
574.565	38321.25
574.763	37866.6
574.962	37813.35
575.16	37313.65
575.358	37805.16
575.556	37172.34
575.754	37936.23
575.952	37028.98
576.151	37221.49
576.349	36797.56
576.547	36949.11
576.745	36758.65
576.943	36785.27
577.141	36514.94
577.339	36715.64
577.537	36476.03
577.735	36732.03
577.933	36048
578.131	36291.71
578.329	36304
578.527	35918.98
578.725	35792.01
578.923	35957.89
579.121	35634.31
579.319	35603.6
579.516	35474.57
579.714	35863.69
579.912	35525.77
580.11	35128.47
580.308	35210.39
580.506	34757.78
580.704	34296.99
580.901	35163.28
581.099	34901.14
581.297	34268.32
581.495	34616.47
581.692	34716.82
581.89	34389.15
582.088	34583.71
582.285	33963.17
582.483	34389.15
582.681	33928.36
582.878	33840.29
583.076	33488.04
583.274	33914.02
583.471	33502.38
583.669	33979.56
583.866	33074.35
584.064	33307.82
584.262	32797.88
584.459	33152.18
584.657	32634.04
584.854	33324.21
585.052	32502.97
585.249	32871.61
585.447	32883.89
585.644	32285.89
585.841	32308.41
586.039	32685.24
586.236	32087.23
586.434	32308.41
586.631	32046.27
586.828	32386.24
587.026	32210.11
587.223	32013.51
587.42	31777.99
587.618	31882.44
587.815	31220.94
588.012	31409.36
588.21	31120.59
588.407	31659.21
588.604	30934.23
588.801	31079.63
588.999	31005.91
589.196	31022.29
589.393	30997.71
589.59	30641.37
589.787	30506.2
589.984	30383.32
590.182	30330.08
590.379	30268.64
590.576	30065.89
590.773	29902.05
590.97	30137.57
591.167	30205.15
591.364	29615.33
591.561	30002.4
591.758	29719.78
591.955	29510.89
592.152	29699.3
592.349	29447.4
592.546	29474.02
592.743	29258.99
592.94	28931.31
593.137	28998.9
593.334	29258.99
593.531	28648.69
593.727	28847.35
593.924	28880.11
594.121	28273.92
594.318	28763.38
594.515	28114.17
594.712	28570.87
594.908	28089.6
595.105	28353.79
595.302	27909.38
595.499	28384.51
595.696	27944.19
595.892	27854.08
596.089	27897.09
596.286	27940.1
596.482	27849.99
596.679	27639.04
596.876	27739.4
597.072	27538.69
597.269	27593.99
597.466	27256.07
597.662	27118.86
597.859	27180.3
598.055	27227.4
598.252	26658.07
598.448	26760.47
598.645	26744.08
598.841	26486.04
599.038	26461.46
599.234	26721.55
599.431	26139.93
599.627	26426.65
599.824	26551.57
600.02	25863.46
600.217	26316.06
600.413	26127.64
600.609	26015.01
600.806	25904.42
601.002	25980.19
601.198	25361.7
601.395	25642.28
601.591	25607.46
601.787	25812.26
601.984	25287.98
602.18	25660.71
602.376	25417
602.572	24968.49
602.769	25021.74
602.965	24794.42
603.161	24878.38
603.357	24436.02
603.553	24872.24
603.75	24565.04
603.946	24442.17
604.142	24732.98
604.338	24284.47
604.534	24470.84
604.73	24261.94
604.926	24110.39
605.122	24245.56
605.318	23897.41
605.514	24231.22
605.71	23973.18
605.906	23772.48
606.102	23756.1
606.298	23878.97
606.494	23600.45
606.69	23614.79
606.886	23995.71
607.082	23295.3
607.278	23409.99
607.474	23080.27
607.67	23301.45
607.866	22863.18
608.062	23354.69
608.257	23045.45
608.453	23012.68
608.649	23004.49
608.845	22826.32
609.041	23016.78
609.236	22703.44
609.432	22633.81
609.628	22578.51
609.824	22525.27
610.019	22637.91
610.215	22517.08
610.411	22504.79
610.606	22365.53
610.802	22345.05
610.998	22338.9
611.193	22748.5
611.389	22244.7
611.584	22230.36
611.78	22017.37
611.976	22211.93
612.171	22056.28
612.367	21984.6
612.562	21755.23
612.758	21802.33
612.953	21747.04
613.149	21851.49
613.344	21622.11
613.539	21896.54
613.735	21548.39
613.93	21816.67
614.126	21493.09
614.321	21613.92
614.517	21364.07
614.712	21359.97
614.907	21228.9
615.103	21351.78
615.298	21212.52
615.493	21491.04
615.688	21063.02
615.884	21689.7
616.079	21060.97
616.274	21124.46
616.47	21036.39
616.665	21296.49
616.86	20718.96
617.055	21271.91
617.25	20784.49
617.445	21013.87
617.641	20637.04
617.836	20819.31
618.031	20276.6
618.226	20571.5
618.421	20299.12
618.616	20622.7
618.811	20039.03
619.006	20583.79
619.201	20102.52
619.396	20180.34
619.591	20030.84
619.786	19936.63
619.981	19600.77
620.176	19948.92
620.371	19658.11
620.566	19703.17
620.761	19793.28
620.956	19656.06
621.151	19303.81
621.346	19420.55
621.541	19039.62
621.735	19359.11
621.93	18724.24
622.125	19043.72
622.32	18507.15
622.515	18748.81
622.709	18474.38
622.904	18601.36
623.099	18331.03
623.294	18394.51
623.488	18427.28
623.683	18470.29
623.878	17937.82
624.072	18197.91
624.267	18081.17
624.462	17962.39
624.656	17720.73
624.851	17921.43
625.046	17663.39
625.24	17460.64
625.435	17413.54
625.629	17304.99
625.824	17034.66
626.018	17159.59
626.213	16766.38
626.407	16967.08
626.602	16661.93
626.796	16930.22
626.991	16623.02
627.185	16479.66
627.38	16625.07
627.574	16272.82
627.768	16106.93
627.963	15861.18
628.157	16104.88
628.352	16141.75
628.546	15914.42
628.74	16242.1
628.935	15486.4
629.129	15943.1
629.323	15482.3
629.517	15410.62
629.712	15353.28
629.906	15343.04
630.1	15427.01
630.294	15334.85
630.489	15085
630.683	15263.17
630.877	14798.28
631.071	14603.72
631.265	15029.7
631.459	14669.26
631.653	14716.36
631.848	14573
632.042	14403.02
632.236	14630.35
632.43	14286.29
632.624	14362.06
632.818	14241.23
633.012	14013.91
633.206	14005.72
633.4	14142.93
633.594	14063.06
633.788	13925.85
633.982	13934.04
634.176	14052.82
634.369	13559.26
634.563	13790.68
634.757	13487.58
634.951	13368.8
635.145	13444.57
635.339	13460.96
635.533	13258.21
635.726	13112.8
635.92	12979.68
636.114	13096.42
636.308	13075.94
636.501	12940.77
636.695	12957.16
636.889	12774.89
637.083	12860.9
637.276	12672.49
637.47	12578.28
637.664	12252.66
637.857	12463.6
638.051	12254.7
638.244	12027.38
638.438	12166.64
638.632	12158.45
638.825	12092.91
639.019	11945.46
639.212	11980.28
639.406	11951.6
639.599	11675.13
639.793	12023.28
639.986	11429.37
640.18	11576.83
640.373	11806.2
640.567	11167.23
640.76	11439.61
640.954	11525.63
641.147	11363.84
641.34	11075.07
641.534	11304.45
641.727	10948.1
641.92	11443.71
642.114	10857.99
642.307	10946.05
642.5	10735.11
642.694	10679.82
642.887	10675.72
643.08	10696.2
643.273	10692.1
643.467	10673.67
643.66	10593.8
643.853	10294.8
644.046	10323.47
644.239	10546.7
644.432	10216.97
644.626	10151.44
644.819	10063.38
645.012	10184.21
645.205	10243.6
645.398	10133.01
645.591	9942.55
645.784	10030.61
645.977	9899.54
646.17	9700.89
646.363	9678.36
646.556	9551.38
646.749	9700.89
646.942	9737.75
647.135	9623.06
647.328	9446.94
647.521	9545.24
647.714	9344.54
647.907	9324.06
648.099	9166.37
648.292	9279.01
648.485	9233.95
648.678	9068.06
648.871	8965.67
649.064	9195.04
649.256	8980
649.449	9090.59
649.642	8943.14
649.835	8893.99
650.027	8865.32
650.22	8719.91
650.413	8664.61
650.605	9016.87
650.798	8646.18
650.991	8742.44
651.183	8762.92
651.376	8349.23
651.568	8611.37
651.761	8410.67
651.954	8320.56
652.146	8425
652.339	8277.55
652.531	8132.14
652.724	8136.24
652.916	8203.82
653.109	8271.4
653.301	8119.85
653.494	8277.55
653.686	7900.72
653.879	8203.82
654.071	7915.06
654.263	7980.59
654.456	7792.18
654.648	7792.18
654.84	7759.41
655.033	7870
655.225	7640.63
655.417	7601.72
655.61	7644.73
655.802	7769.65
655.994	7538.23
656.186	7583.29
656.379	7476.79
656.571	7464.5
656.763	7353.91
656.955	7358.01
657.148	7433.79
657.34	7304.76
657.532	7003.71
657.724	7007.81
657.916	7269.95
658.108	7165.5
658.3	7157.31
658.492	7091.77
658.684	7020.1
658.876	6952.51
659.068	6862.4
659.26	6913.6
659.452	6925.89
659.644	6825.54
659.836	6723.14
660.028	7032.38
660.22	6673.99
660.412	6733.38
660.604	6776.39
660.796	6680.13
660.988	6676.04
661.18	6563.4
661.372	6587.97
661.563	6551.11
661.755	6458.95
661.947	6567.49
662.139	6387.27
662.331	6417.99
662.522	6282.83
662.714	6286.92
662.906	6174.28
663.097	6250.06
663.289	6184.52
663.481	6016.59
663.673	6112.85
663.864	6172.24
664.056	6155.85
664.247	6123.09
664.439	6172.24
664.631	6028.88
664.822	6039.12
665.014	5961.3
665.205	5975.63
665.397	5971.54
665.588	5975.63
665.78	5850.71
665.971	5832.27
666.163	5854.8
666.354	5641.81
666.546	5813.84
666.737	5629.52
666.929	5785.17
667.12	5750.35
667.311	5779.03
667.503	5529.17
667.694	5578.33
667.885	5443.16
668.077	5520.98
668.268	5506.65
668.459	5549.65
668.651	5391.96
668.842	5549.65
669.033	5377.62
669.224	5097.05
669.416	5473.88
669.607	5394.01
669.798	5244.51
669.989	5383.77
670.18	5316.19
670.371	5236.31
670.563	5185.12
670.754	5211.74
670.945	5359.19
671.136	5142.11
671.327	5328.47
671.518	5293.66
671.709	5068.38
671.9	5121.63
672.091	5203.55
672.282	5105.24
672.473	4980.32
672.664	5197.4
672.855	5125.72
673.046	5000.8
673.237	5031.52
673.428	4974.17
673.619	5172.83
673.809	4855.39
674	5092.96
674.191	4853.34
674.382	4703.84
674.573	4824.67
674.764	4886.11
674.954	5006.94
675.145	4847.2
675.336	4777.57
675.527	4951.65
675.717	4857.44
675.908	4834.91
676.099	4705.89
676.289	4826.72
676.48	4882.02
676.671	4875.87
676.861	4912.74
677.052	4726.37
677.243	4810.34
677.433	4705.89
677.624	4691.56
677.814	4812.39
678.005	4712.03
678.195	4855.39
678.386	4707.94
678.576	4814.43
678.767	4664.93
678.957	4656.74
679.148	4775.52
679.338	4738.66
679.529	4722.27
679.719	4583.01
679.909	4576.87
680.1	4675.17
680.29	4738.66
680.481	4705.89
680.671	4689.51
680.861	4400.74
681.052	4572.77
681.242	4466.28
681.432	4591.2
681.622	4486.76
681.813	4619.88
682.003	4531.81
682.193	4542.05
682.383	4542.05
682.573	4621.92
682.764	4458.09
682.954	4482.66
683.144	4591.2
683.334	4470.37
683.524	4662.88
683.714	4511.33
683.904	4523.62
684.094	4525.67
684.284	4564.58
684.474	4628.07
684.664	4335.21
684.854	4490.85
685.044	4417.13
685.234	4396.65
685.424	4255.34
685.614	4400.74
685.804	4390.5
685.994	4347.5
686.184	4261.48
686.374	4284.01
686.564	4279.91
686.753	4425.32
686.943	4195.95
687.133	4222.57
687.323	4277.87
687.513	4320.87
687.702	4128.36
687.892	4275.82
688.082	4093.55
688.272	4157.04
688.461	4243.05
688.651	4163.18
688.841	4161.13
689.03	4107.88
689.22	4111.98
689.41	4154.99
689.599	4146.8
689.789	4109.93
689.979	4028.01
690.168	4025.97
690.358	4007.53
690.547	4091.5
690.737	3995.25
690.926	4093.55
691.116	3970.67
691.305	4030.06
691.495	3792.5
691.684	3937.9
691.874	4050.54
692.063	3946.09
692.252	3892.85
692.442	4019.82
692.631	3790.45
692.82	3825.26
693.01	3808.88
693.199	3759.73
693.388	3841.65
693.578	3786.35
693.767	3804.78
693.956	3796.59
694.146	3804.78
694.335	3745.39
694.524	3714.67
694.713	3733.11
694.902	3729.01
695.092	3614.32
695.281	3810.93
695.47	3700.34
695.659	3874.42
695.848	3714.67
696.037	3606.13
696.226	3651.19
696.415	3735.15
696.604	3757.68
696.793	3645.04
696.982	3606.13
697.171	3671.67
697.36	3640.95
697.549	3626.61
697.738	3657.33
697.927	3626.61
698.116	3636.85
698.305	3774.07
698.494	3651.19
698.683	3636.85
698.872	3647.09
699.061	3634.8
699.25	3534.45
699.438	3722.87
699.627	3675.76
699.816	3466.87
700.005	3589.75
700.193	3669.62
700.382	3610.23
700.571	3520.12
700.76	3524.21
700.948	3677.81
701.137	3651.19
701.326	3567.22
701.514	3556.98
701.703	3608.18
701.892	3604.08
702.08	3554.93
702.269	3651.19
702.457	3602.04
702.646	3663.47
702.834	3602.04
703.023	3653.23
703.212	3595.89
703.4	3466.87
703.589	3528.31
703.777	3501.69
703.965	3343.99
704.154	3604.08
704.342	3524.21
704.531	3327.61
704.719	3591.8
704.907	3599.99
705.096	3499.64
705.284	3524.21
705.472	3579.51
705.661	3569.27
705.849	3487.35
706.037	3604.08
706.226	3516.02
706.414	3585.65
706.602	3470.97
706.79	3450.49
706.979	3487.35
707.167	3550.84
707.355	3470.97
707.543	3493.49
707.731	3507.83
707.919	3649.14
708.107	3446.39
708.296	3518.07
708.484	3583.6
708.672	3634.8
708.86	3634.8
709.048	3585.65
709.236	3593.84
709.424	3591.8
709.612	3563.12
709.8	3546.74
709.988	3436.15
710.176	3559.03
710.364	3561.08
710.551	3499.64
710.739	3614.32
710.927	3511.93
711.115	3516.02
711.303	3466.87
711.491	3561.08
711.679	3425.91
711.866	3489.4
712.054	3593.84
712.242	3548.79
712.43	3542.64
712.617	3466.87
712.805	3518.07
712.993	3520.12
713.181	3466.87
713.368	3483.25
713.556	3497.59
713.744	3628.66
713.931	3589.75
714.119	3495.54
714.306	3368.57
714.494	3352.18
714.682	3444.34
714.869	3354.23
715.057	3499.64
715.244	3491.45
715.432	3546.74
715.619	3503.73
715.807	3456.63
715.994	3561.08
716.182	3403.38
716.369	3356.28
716.556	3591.8
716.744	3403.38
716.931	3518.07
717.119	3573.36
717.306	3411.57
717.493	3477.11
717.681	3554.93
717.868	3501.69
718.055	3448.44
718.242	3434.1
718.43	3473.01
718.617	3393.14
718.804	3575.41
718.991	3391.09
719.179	3556.98
719.366	3280.5
719.553	3501.69
719.74	3411.57
719.927	3454.58
720.114	3425.91
720.301	3546.74
720.488	3364.47
720.676	3516.02
720.863	3575.41
721.05	3481.21
721.237	3374.71
721.424	3505.78
721.611	3384.95
721.798	3438.2
721.985	3452.53
722.172	3454.58
722.358	3462.77
722.545	3427.96
722.732	3376.76
722.919	3522.16
723.106	3454.58
723.293	3343.99
723.48	3460.73
723.667	3356.28
723.853	3425.91
724.04	3450.49
724.227	3270.26
724.414	3427.96
724.6	3319.42
724.787	3331.7
724.974	3501.69
725.161	3425.91
725.347	3368.57
725.534	3450.49
725.72	3405.43
725.907	3335.8
726.094	3399.29
726.28	3296.89
726.467	3335.8
726.653	3270.26
726.84	3382.9
727.027	3354.23
727.213	3337.85
727.4	3288.7
727.586	3221.11
727.773	3407.48
727.959	3249.79
728.145	3440.25
728.332	3335.8
728.518	3235.45
728.705	3251.83
728.891	3198.59
729.077	3268.22
729.264	3362.42
729.45	3253.88
729.636	3382.9
729.823	3178.11
730.009	3262.07
730.195	3239.55
730.382	3298.94
730.568	3315.32
730.754	3241.59
730.94	3241.59
731.126	3391.09
731.313	3276.41
731.499	3241.59
731.685	3282.55
731.871	3133.05
732.057	3255.93
732.243	3393.14
732.429	3192.44
732.615	3190.39
732.801	3131
732.987	3167.87
733.173	3247.74
733.359	3190.39
733.545	3135.1
733.731	3311.22
733.917	3229.31
734.103	3208.83
734.289	3110.52
734.475	3126.91
734.661	3108.48
734.847	3188.35
735.033	3219.07
735.219	3315.32
735.404	3100.28
735.59	3192.44
735.776	3153.53
735.962	3061.37
736.148	3237.5
736.333	3208.83
736.519	3186.3
736.705	3161.72
736.89	3081.85
737.076	3102.33
737.262	3018.36
737.447	3063.42
737.633	3051.13
737.819	3057.28
738.004	3024.51
738.19	2971.26
738.375	2989.69
738.561	3034.75
738.747	3057.28
738.932	2997.88
739.118	3110.52
739.303	3092.09
739.489	3092.09
739.674	3001.98
739.859	2887.29
740.045	2952.83
740.23	2782.85
740.416	2840.19
740.601	2971.26
740.786	2868.86
740.972	2872.96
741.157	2948.73
741.342	2821.76
741.528	2885.25
741.713	2985.6
741.898	2979.45
742.084	2832
742.269	2852.48
742.454	2813.57
742.639	2819.71
742.824	2791.04
743.01	2887.29
743.195	2813.57
743.38	2668.16
743.565	2764.42
743.75	2815.62
743.935	2774.66
744.12	2832
744.305	2610.82
744.49	2653.83
744.675	2555.52
744.86	2657.92
745.045	2659.97
745.23	2619.01
745.415	2623.11
745.6	2680.45
745.785	2438.79
745.97	2725.51
746.155	2610.82
746.34	2510.47
746.525	2563.72
746.71	2567.81
746.895	2457.22
747.079	2473.6
747.264	2477.7
747.449	2477.7
747.634	2369.16
747.819	2520.71
748.003	2231.94
748.188	2324.1
748.373	2348.68
748.557	2387.59
748.742	2424.45
748.927	2250.38
749.111	2279.05
749.296	2346.63
749.481	2307.72
749.665	2250.38
749.85	2256.52
750.034	2223.75
750.219	2297.48
750.404	2172.55
750.588	2180.75
750.773	2231.94
750.957	2115.21
751.141	2139.79
751.326	2125.45
751.51	2150.03
751.695	2025.1
751.879	2078.35
752.064	2121.35
752.248	2070.16
752.432	2057.87
752.617	2033.29
752.801	2012.81
752.985	1898.13
753.17	2027.15
753.354	2051.72
753.538	2014.86
753.722	1926.8
753.907	1922.7
754.091	1984.14
754.275	1922.7
754.459	1906.32
754.643	1881.74
754.828	1896.08
755.012	1793.68
755.196	1738.38
755.38	1869.45
755.564	1812.11
755.748	1818.25
755.932	1783.44
756.116	1828.49
756.3	1748.62
756.484	1689.23
756.668	1746.58
756.852	1638.03
757.036	1644.18
757.22	1599.12
757.404	1603.22
757.588	1613.46
757.772	1627.79
757.956	1494.68
758.14	1635.99
758.323	1558.16
758.507	1529.49
758.691	1607.31
758.875	1615.51
759.059	1609.36
759.242	1476.24
759.426	1500.82
759.61	1463.96
759.794	1552.02
759.977	1564.31
760.161	1568.4
760.345	1484.44
760.528	1443.48
760.712	1463.96
760.895	1418.9
761.079	1406.61
761.263	1425.04
761.446	1509.01
761.63	1425.04
761.813	1392.28
761.997	1265.3
762.18	1445.52
762.364	1427.09
762.547	1345.17
762.731	1451.67
762.914	1339.03
763.098	1343.13
763.281	1304.21
763.464	1453.72
763.648	1310.36
763.831	1298.07
764.015	1308.31
764.198	1277.59
764.381	1339.03
764.564	1273.5
764.748	1367.7
764.931	1361.56
765.114	1275.54
765.297	1298.07
765.481	1257.11
765.664	1224.34
765.847	1246.87
766.03	1212.06
766.213	1250.97
766.397	1316.5
766.58	1160.86
766.763	1257.11
766.946	1193.62
767.129	1173.14
767.312	1189.53
767.495	1134.23
767.678	1205.91
767.861	1193.62
768.044	1205.91
768.227	1152.67
768.41	1283.74
768.593	1269.4
768.776	1167
768.959	1126.04
769.142	1154.71
769.324	1134.23
769.507	1056.41
769.69	1050.27
769.873	1105.56
770.056	1226.39
770.239	1013.4
770.421	1099.42
770.604	1093.27
770.787	1101.47
770.97	1052.31
771.152	1021.6
771.335	1162.9
771.518	1042.07
771.7	1089.18
771.883	1117.85
772.066	986.78
772.248	1044.12
772.431	1052.31
772.613	1015.45
772.796	1044.12
772.978	1117.85
773.161	1068.7
773.343	980.64
773.526	1113.75
773.708	865.95
773.891	1013.4
774.073	997.02
774.256	923.29
774.438	927.39
774.621	915.1
774.803	1042.07
774.985	921.24
775.168	990.88
775.35	917.15
775.532	894.62
775.715	919.2
775.897	847.52
776.079	915.1
776.261	845.47
776.444	851.61
776.626	792.22
776.808	896.67
776.99	818.85
777.173	902.81
777.355	870.05
777.537	833.18
777.719	859.81
777.901	833.18
778.083	800.41
778.265	800.41
778.447	859.81
778.629	765.6
778.811	786.08
778.993	814.75
779.175	779.93
779.357	790.17
779.539	814.75
779.721	757.41
779.903	784.03
780.085	761.5
780.267	706.21
780.449	726.69
780.631	802.46
780.812	720.54
780.994	714.4
781.176	681.63
781.358	636.58
781.54	741.02
781.721	587.43
781.903	743.07
782.085	624.29
782.267	700.06
782.448	708.26
782.63	734.88
782.812	644.77
782.993	640.67
783.175	681.63
783.357	587.43
783.538	560.8
783.72	571.04
783.901	698.02
784.083	632.48
784.264	636.58
784.446	470.69
784.627	579.23
784.809	626.34
784.99	579.23
785.172	566.95
785.353	579.23
785.535	583.33
785.716	607.91
785.897	540.32
786.079	609.95
786.26	499.36
786.441	546.47
786.623	513.7
786.804	530.08
786.985	556.71
787.167	589.47
787.348	528.03
787.529	497.32
787.71	554.66
787.891	560.8
788.073	413.35
788.254	523.94
788.435	431.78
788.616	489.12
788.797	472.74
788.978	491.17
789.159	525.99
789.34	575.14
789.522	474.79
789.703	464.55
789.884	571.04
790.065	525.99
790.246	497.32
790.427	485.03
790.607	501.41
790.788	448.16
790.969	399.01
791.15	429.73
791.331	474.79
791.512	495.27
791.693	435.88
791.874	429.73
792.054	456.36
792.235	425.64
792.416	456.36
792.597	394.92
792.778	458.4
792.958	308.9
793.139	419.49
793.32	437.92
793.5	345.77
793.681	444.07
793.862	423.59
794.042	409.25
794.223	372.39
794.404	380.58
794.584	376.48
794.765	396.96
794.945	437.92
795.126	382.63
795.306	407.2
795.487	343.72
795.667	394.92
795.848	269.99
796.028	331.43
796.209	329.38
796.389	380.58
796.57	290.47
796.75	380.58
796.93	321.19
797.111	399.01
797.291	341.67
797.471	290.47
797.652	321.19
797.832	384.68
798.012	292.52
798.192	298.66
798.373	261.8
798.553	331.43
798.733	345.77
798.913	261.8
799.093	306.85
799.274	308.9
799.454	329.38
799.634	337.57
799.814	374.44
799.994	351.91
800.174	267.94
800.354	243.37
800.534	274.09
800.714	366.25
800.894	302.76
801.074	249.51
801.254	235.18
801.434	321.19
801.614	296.61
801.794	226.98
801.974	808.61
802.154	317.09
802.334	233.13
802.514	259.75
802.693	313
802.873	331.43
803.053	358.05
803.233	325.29
803.413	202.41
803.592	282.28
803.772	269.99
803.952	261.8
804.131	255.65
804.311	253.61
804.491	310.95
804.67	202.41
804.85	251.56
805.03	226.98
805.209	265.89
805.389	306.85
805.568	286.37
805.748	315.05
805.928	226.98
806.107	196.26
806.287	216.74
806.466	272.04
806.646	208.55
806.825	206.5
807.004	267.94
807.184	210.6
807.363	212.65
807.543	243.37
807.722	198.31
807.901	255.65
808.081	204.46
808.26	132.78
808.439	210.6
808.619	165.54
808.798	288.42
808.977	155.3
809.156	237.22
809.336	239.27
809.515	296.61
809.694	151.21
809.873	198.31
810.052	226.98
810.231	183.98
810.411	310.95
810.59	241.32
810.769	165.54
810.948	269.99
811.127	124.58
811.306	100.01
811.485	159.4
811.664	212.65
811.843	165.54
812.022	233.13
812.201	186.02
812.38	106.15
812.559	124.58
812.737	267.94
812.916	210.6
813.095	116.39
813.274	173.74
813.453	192.17
813.632	218.79
813.811	218.79
813.989	261.8
814.168	147.11
814.347	157.35
814.526	188.07
814.704	210.6
814.883	190.12
815.062	165.54
815.24	247.46
815.419	136.87
815.598	218.79
815.776	102.06
815.955	106.15
816.133	126.63
816.312	118.44
816.49	128.68
816.669	194.22
816.847	110.25
817.026	159.4
817.204	136.87
817.383	136.87
817.561	143.02
817.74	147.11
817.918	136.87
818.097	216.74
818.275	183.98
818.453	261.8
818.632	206.5
818.81	145.06
818.988	169.64
819.167	97.96
819.345	165.54
819.523	161.45
819.701	186.02
819.879	198.31
820.058	124.58
820.236	167.59
820.414	134.82
820.592	138.92
820.77	59.05
820.948	173.74
821.127	167.59
821.305	183.98
821.483	149.16
821.661	179.88
821.839	153.26
822.017	124.58
822.195	91.82
822.373	159.4
822.551	149.16
822.729	87.72
822.907	200.36
823.085	130.73
823.262	114.34
823.44	97.96
823.618	177.83
823.796	59.05
823.974	177.83
824.152	122.54
824.329	100.01
824.507	143.02
824.685	173.74
824.863	136.87
825.04	159.4
825.218	171.69
825.396	106.15
825.574	104.11
825.751	130.73
825.929	108.2
826.107	118.44
826.284	124.58
826.462	194.22
826.639	134.82
826.817	61.1
826.994	81.58
827.172	161.45
827.349	181.93
827.527	140.97
827.704	173.74
827.882	110.25
828.059	134.82
828.237	71.34
828.414	136.87
828.591	28.33
828.769	175.78
828.946	54.95
829.124	140.97
829.301	153.26
829.478	110.25
829.655	145.06
829.833	132.78
830.01	100.01
830.187	104.11
830.364	110.25
830.542	102.06
830.719	100.01
830.896	95.91
831.073	63.15
831.25	46.76
831.427	69.29
831.604	122.54
831.782	95.91
831.959	112.3
832.136	89.77
832.313	132.78
832.49	112.3
832.667	46.76
832.844	22.19
833.021	136.87
833.198	93.87
833.374	95.91
833.551	149.16
833.728	81.58
833.905	143.02
834.082	44.71
834.259	104.11
834.436	138.92
834.612	91.82
834.789	128.68
834.966	85.67
835.143	71.34
835.319	61.1
835.496	106.15
835.673	132.78
835.85	145.06
836.026	79.53
836.203	73.39
836.38	81.58
836.556	30.38
836.733	52.91
836.909	46.76
837.086	75.43
837.262	32.43
837.439	59.05
837.616	118.44
837.792	44.71
837.968	124.58
838.145	22.19
838.321	32.43
838.498	5.8
838.674	59.05
838.851	75.43
839.027	89.77
839.203	93.87
839.38	118.44
839.556	-16.73
839.732	102.06
839.909	50.86
840.085	38.57
840.261	3.75
840.437	5.8
840.614	44.71
840.79	59.05
840.966	77.48
841.142	11.95
841.318	26.28
841.494	79.53
841.671	46.76
841.847	40.62
842.023	102.06
842.199	59.05
842.375	79.53
842.551	36.52
842.727	54.95
842.903	69.29
843.079	24.23
843.255	83.63
843.431	71.34
843.607	83.63
843.783	-0.34
843.959	87.72
844.134	42.67
844.31	63.15
844.486	5.8
844.662	42.67
844.838	63.15
845.013	106.15
845.189	95.91
845.365	71.34
845.541	67.24
845.716	110.25
845.892	67.24
846.068	69.29
846.244	34.47
846.419	30.38
846.595	11.95
846.77	54.95
846.946	22.19
847.122	48.81
847.297	36.52
847.473	112.3
847.648	18.09
847.824	38.57
847.999	11.95
848.175	42.67
848.35	54.95
848.526	69.29
848.701	36.52
848.876	-16.73
849.052	48.81
849.227	104.11
849.403	42.67
849.578	9.9
849.753	59.05
849.929	65.19
850.104	42.67
850.279	7.85
850.454	36.52
850.63	9.9
850.805	46.76
850.98	57
851.155	-18.77
851.33	-26.96
851.505	-2.39
851.681	71.34
851.856	36.52
852.031	79.53
852.206	59.05
852.381	-18.77
852.556	30.38
852.731	79.53
852.906	104.11
853.081	20.14
853.256	3.75
853.431	85.67
853.606	57
853.781	-10.58
853.956	9.9
854.131	71.34
854.305	-2.39
854.48	69.29
854.655	20.14
854.83	85.67
855.005	30.38
855.18	13.99
855.354	-18.77
855.529	71.34
855.704	-4.44
855.879	40.62
856.053	-2.39
856.228	-35.16
856.403	11.95
856.577	30.38
856.752	-37.2
856.926	-69.97
857.101	28.33
857.276	26.28
857.45	18.09
857.625	36.52
857.799	85.67
857.974	28.33
858.148	-12.63
858.323	38.57
858.497	-84.31
858.672	20.14
858.846	-31.06
859.02	81.58
859.195	79.53
859.369	18.09
859.543	20.14
859.718	-29.01
859.892	11.95
860.066	22.19
860.241	11.95
860.415	5.8
860.589	-43.35
860.763	40.62
860.938	63.15
861.112	30.38
861.286	36.52
861.46	11.95
861.634	-16.73
861.808	108.2
861.982	-31.06
862.157	26.28
862.331	-12.63
862.505	-29.01
862.679	-4.44
862.853	-63.83
863.027	-12.63
863.201	95.91
863.375	-4.44
863.549	20.14
863.722	83.63
863.896	102.06
864.07	-2.39
864.244	-20.82
864.418	16.04
864.592	-8.53
864.766	-24.92
864.939	40.62
865.113	-16.73
865.287	85.67
865.461	-20.82
865.634	5.8
865.808	-14.68
865.982	-12.63
866.156	20.14
866.329	-12.63
866.503	-4.44
866.676	18.09
866.85	24.23
867.024	-35.16
867.197	-20.82
867.371	13.99
867.544	-29.01
867.718	-8.53
867.891	57
868.065	-22.87
868.238	28.33
868.412	38.57
868.585	50.86
868.759	-12.63
868.932	36.52
869.105	20.14
869.279	1.71
869.452	34.47
869.625	11.95
869.799	38.57
869.972	-63.83
870.145	48.81
870.319	30.38
870.492	52.91
870.665	-59.73
870.838	-12.63
871.011	13.99
871.185	-55.64
871.358	13.99
871.531	59.05
871.704	13.99
871.877	-24.92
872.05	30.38
872.223	38.57
872.396	63.15
872.569	36.52
872.742	13.99
872.915	5.8
873.088	-12.63
873.261	9.9
873.434	-35.16
873.607	-26.96
873.78	-16.73
873.953	3.75
874.126	3.75
874.299	61.1
874.471	22.19
874.644	-14.68
874.817	50.86
874.99	42.67
875.163	44.71
875.335	28.33
875.508	46.76
875.681	-37.2
875.853	26.28
876.026	38.57
876.199	11.95
876.371	24.23
876.544	-22.87
876.717	34.47
876.889	-35.16
877.062	1.71
877.234	30.38
877.407	34.47
877.579	-26.96
877.752	16.04
877.924	34.47
878.097	-10.58
878.269	61.1
878.442	48.81
878.614	83.63
878.786	28.33
878.959	9.9
879.131	106.15
879.303	-45.4
879.476	5.8
879.648	18.09
879.82	-35.16
879.993	-45.4
880.165	-74.07
880.337	-22.87
880.509	-20.82
880.681	-61.78
880.854	-29.01
881.026	-37.2
881.198	32.43
881.37	50.86
881.542	-33.11
881.714	-33.11
881.886	-51.54
882.058	-6.49
882.23	59.05
882.402	-12.63
882.574	5.8
882.746	42.67
882.918	-4.44
883.09	13.99
883.262	-45.4
883.434	-12.63
883.606	-43.35
883.778	-33.11
883.95	-16.73
884.122	5.8
884.293	34.47
884.465	-47.44
884.637	59.05
884.809	-20.82
884.98	18.09
885.152	5.8
885.324	65.19
885.496	-12.63
885.667	11.95
885.839	-35.16
886.011	-2.39
886.182	73.39
886.354	73.39
886.525	-67.92
886.697	24.23
886.869	5.8
887.04	-10.58
887.212	1.71
887.383	9.9
887.555	63.15
887.726	-43.35
887.897	-18.77
888.069	-35.16
888.24	9.9
888.412	59.05
888.583	26.28
888.754	-22.87
888.926	38.57
889.097	9.9
889.268	-20.82
889.44	-43.35
889.611	-10.58
889.782	13.99
889.953	-29.01
890.125	48.81
890.296	-90.45
890.467	-18.77
890.638	7.85
890.809	26.28
890.98	-51.54
891.151	-12.63
891.323	-29.01
891.494	9.9
891.665	26.28
891.836	-59.73
892.007	-49.49
892.178	34.47
892.349	-24.92
892.52	5.8
892.691	28.33
892.862	5.8
893.032	-10.58
893.203	24.23
893.374	-26.96
893.545	-43.35
893.716	-51.54
893.887	-26.96
894.057	-33.11
894.228	-6.49
894.399	-90.45
894.57	5.8
894.74	-4.44
894.911	38.57
895.082	1.71
895.253	28.33
895.423	-26.96
895.594	54.95
895.764	11.95
895.935	-59.73
896.106	-39.25
896.276	-4.44
896.447	1.71
896.617	-10.58
896.788	-4.44
896.958	20.14
897.129	36.52
897.299	-10.58
897.47	3.75
897.64	-2.39
897.81	-20.82
897.981	1.71
898.151	22.19
898.322	-37.2
898.492	7.85
898.662	-35.16
898.832	28.33
899.003	-22.87
899.173	36.52
899.343	-24.92
899.513	3.75
