Data from USB4F104151__3__10-19-53-079.txt Node

Date: Wed Mar 12 10:19:53 EDT 2025
User: louis
Spectrometer: USB4F10415
Trigger mode: 4
Integration Time (sec): 3.000000E-2
Scans to average: 1
Electric dark correction enabled: true
Nonlinearity correction enabled: false
Boxcar width: 0
XAxis mode: Wavelengths
Number of Pixels in Spectrum: 3648
>>>>>Begin Spectral Data<<<<<
178.204	-104.45
178.424	-104.45
178.644	-104.45
178.864	-43.01
179.084	-155.65
179.304	8.19
179.524	-24.58
179.744	43.01
179.964	40.96
180.184	67.58
180.404	47.1
180.624	-51.2
180.844	-51.2
181.064	-67.58
181.283	34.82
181.503	-34.82
181.723	-12.29
181.943	-59.39
182.163	90.11
182.383	-45.06
182.602	26.62
182.822	75.77
183.042	53.25
183.262	-32.77
183.482	-10.24
183.701	-45.06
183.921	-40.96
184.141	-2.05
184.361	16.38
184.58	26.62
184.8	6.14
185.02	14.34
185.239	40.96
185.459	20.48
185.679	43.01
185.898	28.67
186.118	32.77
186.338	20.48
186.557	73.73
186.777	-75.77
186.997	-8.19
187.216	-2.05
187.436	-30.72
187.655	55.3
187.875	34.82
188.095	38.91
188.314	40.96
188.534	43.01
188.753	6.14
188.973	-6.14
189.192	-32.77
189.412	34.82
189.631	67.58
189.851	2.05
190.07	98.3
190.29	-49.15
190.509	71.68
190.729	-40.96
190.948	81.92
191.168	198.65
191.387	47.1
191.607	-30.72
191.826	40.96
192.045	51.2
192.265	-18.43
192.484	55.3
192.704	-16.38
192.923	2.05
193.142	96.25
193.362	43.01
193.581	104.45
193.8	-40.96
194.02	75.77
194.239	32.77
194.458	102.4
194.678	8.19
194.897	-8.19
195.116	88.06
195.335	14.34
195.555	71.68
195.774	32.77
195.993	32.77
196.212	32.77
196.432	-40.96
196.651	6.14
196.87	36.86
197.089	67.58
197.308	14.34
197.528	47.1
197.747	51.2
197.966	-16.38
198.185	-0
198.404	-10.24
198.623	-10.24
198.842	63.49
199.062	63.49
199.281	120.83
199.5	8.19
199.719	22.53
199.938	30.72
200.157	59.39
200.376	-63.49
200.595	47.1
200.814	43.01
201.033	-12.29
201.252	45.06
201.471	59.39
201.69	100.35
201.909	36.86
202.128	69.63
202.347	55.3
202.566	6.14
202.785	71.68
203.004	4.1
203.223	88.06
203.442	57.34
203.661	2.05
203.879	24.58
204.098	-16.38
204.317	51.2
204.536	92.16
204.755	45.06
204.974	157.69
205.193	-0
205.411	26.62
205.63	6.14
205.849	22.53
206.068	61.44
206.287	45.06
206.505	114.69
206.724	45.06
206.943	-51.2
207.162	43.01
207.381	63.49
207.599	-32.77
207.818	-47.1
208.037	38.91
208.255	88.06
208.474	71.68
208.693	57.34
208.911	67.58
209.13	32.77
209.349	65.53
209.567	34.82
209.786	32.77
210.005	26.62
210.223	53.25
210.442	34.82
210.661	14.34
210.879	14.34
211.098	-2.05
211.316	63.49
211.535	75.77
211.753	49.15
211.972	32.77
212.191	14.34
212.409	28.67
212.628	49.15
212.846	61.44
213.065	-32.77
213.283	30.72
213.502	-24.58
213.72	-30.72
213.938	24.58
214.157	-26.62
214.375	10.24
214.594	-6.14
214.812	24.58
215.031	22.53
215.249	43.01
215.467	12.29
215.686	90.11
215.904	6.14
216.122	-2.05
216.341	69.63
216.559	71.68
216.778	47.1
216.996	98.3
217.214	83.97
217.432	32.77
217.651	90.11
217.869	53.25
218.087	-34.82
218.306	83.97
218.524	75.77
218.742	75.77
218.96	98.3
219.179	-0
219.397	59.39
219.615	112.64
219.833	24.58
220.051	28.67
220.27	86.01
220.488	61.44
220.706	40.96
220.924	22.53
221.142	59.39
221.36	26.62
221.578	30.72
221.796	-16.38
222.015	-10.24
222.233	53.25
222.451	73.73
222.669	12.29
222.887	118.78
223.105	73.73
223.323	12.29
223.541	32.77
223.759	122.88
223.977	59.39
224.195	151.55
224.413	26.62
224.631	71.68
224.849	63.49
225.067	94.21
225.285	40.96
225.503	-2.05
225.721	-4.1
225.939	-0
226.157	-38.91
226.375	79.87
226.592	-8.19
226.81	73.73
227.028	59.39
227.246	69.63
227.464	61.44
227.682	40.96
227.9	-55.3
228.117	40.96
228.335	18.43
228.553	-8.19
228.771	106.49
228.989	43.01
229.206	28.67
229.424	34.82
229.642	71.68
229.86	18.43
230.077	47.1
230.295	34.82
230.513	106.49
230.731	34.82
230.948	118.78
231.166	16.38
231.384	124.93
231.601	51.2
231.819	34.82
232.037	43.01
232.254	-14.34
232.472	24.58
232.689	-30.72
232.907	-10.24
233.125	-0
233.342	34.82
233.56	-14.34
233.777	65.53
233.995	34.82
234.213	112.64
234.43	51.2
234.648	49.15
234.865	83.97
235.083	-43.01
235.3	49.15
235.518	-36.86
235.735	36.86
235.953	-34.82
236.17	-28.67
236.388	38.91
236.605	133.12
236.822	112.64
237.04	96.25
237.257	14.34
237.475	51.2
237.692	94.21
237.909	55.3
238.127	34.82
238.344	81.92
238.562	-18.43
238.779	8.19
238.996	6.14
239.214	40.96
239.431	94.21
239.648	8.19
239.865	12.29
240.083	133.12
240.3	69.63
240.517	-2.05
240.735	67.58
240.952	100.35
241.169	86.01
241.386	45.06
241.603	51.2
241.821	34.82
242.038	38.91
242.255	14.34
242.472	75.77
242.689	88.06
242.907	63.49
243.124	49.15
243.341	-0
243.558	-59.39
243.775	2.05
243.992	-14.34
244.209	61.44
244.426	22.53
244.643	47.1
244.86	-22.53
245.078	-14.34
245.295	71.68
245.512	69.63
245.729	2.05
245.946	49.15
246.163	53.25
246.38	-26.62
246.597	2.05
246.814	10.24
247.031	30.72
247.248	24.58
247.464	75.77
247.681	51.2
247.898	2.05
248.115	16.38
248.332	63.49
248.549	2.05
248.766	69.63
248.983	26.62
249.2	-20.48
249.417	69.63
249.633	2.05
249.85	116.73
250.067	28.67
250.284	53.25
250.501	79.87
250.717	96.25
250.934	10.24
251.151	71.68
251.368	10.24
251.585	-45.06
251.801	16.38
252.018	43.01
252.235	75.77
252.451	30.72
252.668	2.05
252.885	77.82
253.102	47.1
253.318	-36.86
253.535	26.62
253.752	-0
253.968	10.24
254.185	22.53
254.401	18.43
254.618	112.64
254.835	96.25
255.051	49.15
255.268	-12.29
255.484	79.87
255.701	16.38
255.917	14.34
256.134	14.34
256.351	51.2
256.567	45.06
256.784	69.63
257	4.1
257.217	40.96
257.433	112.64
257.65	43.01
257.866	59.39
258.082	10.24
258.299	2.05
258.515	61.44
258.732	57.34
258.948	8.19
259.165	77.82
259.381	-32.77
259.597	112.64
259.814	26.62
260.03	-47.1
260.246	112.64
260.463	75.77
260.679	149.5
260.895	36.86
261.112	32.77
261.328	55.3
261.544	10.24
261.761	75.77
261.977	24.58
262.193	-22.53
262.409	96.25
262.626	22.53
262.842	53.25
263.058	57.34
263.274	-47.1
263.49	81.92
263.707	83.97
263.923	-10.24
264.139	129.02
264.355	-18.43
264.571	73.73
264.787	81.92
265.004	55.3
265.22	20.48
265.436	-47.1
265.652	51.2
265.868	6.14
266.084	43.01
266.3	10.24
266.516	83.97
266.732	14.34
266.948	26.62
267.164	30.72
267.38	16.38
267.596	12.29
267.812	59.39
268.028	55.3
268.244	32.77
268.46	65.53
268.676	43.01
268.892	71.68
269.108	43.01
269.324	-8.19
269.54	59.39
269.756	49.15
269.972	28.67
270.188	-47.1
270.403	24.58
270.619	36.86
270.835	61.44
271.051	86.01
271.267	69.63
271.483	55.3
271.698	98.3
271.914	57.34
272.13	-10.24
272.346	40.96
272.562	59.39
272.777	16.38
272.993	71.68
273.209	-16.38
273.425	108.54
273.64	90.11
273.856	30.72
274.072	-8.19
274.287	12.29
274.503	63.49
274.719	75.77
274.934	6.14
275.15	18.43
275.366	30.72
275.581	65.53
275.797	-14.34
276.012	43.01
276.228	-30.72
276.444	8.19
276.659	65.53
276.875	18.43
277.09	65.53
277.306	-10.24
277.521	73.73
277.737	-10.24
277.952	47.1
278.168	16.38
278.383	45.06
278.599	-38.91
278.814	92.16
279.03	10.24
279.245	104.45
279.461	24.58
279.676	38.91
279.892	-10.24
280.107	49.15
280.322	-0
280.538	-49.15
280.753	-40.96
280.969	108.54
281.184	-8.19
281.399	75.77
281.615	-8.19
281.83	34.82
282.045	-6.14
282.26	65.53
282.476	59.39
282.691	92.16
282.906	63.49
283.122	96.25
283.337	65.53
283.552	-6.14
283.767	26.62
283.983	-18.43
284.198	51.2
284.413	71.68
284.628	51.2
284.843	49.15
285.058	106.49
285.274	86.01
285.489	-16.38
285.704	18.43
285.919	36.86
286.134	59.39
286.349	116.73
286.564	67.58
286.779	30.72
286.995	55.3
287.21	28.67
287.425	38.91
287.64	73.73
287.855	43.01
288.07	-22.53
288.285	83.97
288.5	49.15
288.715	90.11
288.93	59.39
289.145	12.29
289.36	79.87
289.575	116.73
289.79	30.72
290.004	96.25
290.219	-6.14
290.434	-40.96
290.649	14.34
290.864	55.3
291.079	-18.43
291.294	77.82
291.509	43.01
291.724	30.72
291.938	38.91
292.153	51.2
292.368	-4.1
292.583	61.44
292.798	81.92
293.012	88.06
293.227	12.29
293.442	38.91
293.657	51.2
293.871	47.1
294.086	8.19
294.301	24.58
294.516	45.06
294.73	14.34
294.945	-49.15
295.16	55.3
295.374	38.91
295.589	43.01
295.804	14.34
296.018	116.73
296.233	55.3
296.447	28.67
296.662	63.49
296.877	59.39
297.091	65.53
297.306	20.48
297.52	8.19
297.735	69.63
297.949	43.01
298.164	145.41
298.378	40.96
298.593	59.39
298.807	-0
299.022	81.92
299.236	45.06
299.451	38.91
299.665	-10.24
299.88	16.38
300.094	6.14
300.309	-8.19
300.523	14.34
300.737	28.67
300.952	67.58
301.166	36.86
301.381	4.1
301.595	6.14
301.809	51.2
302.024	-22.53
302.238	-6.14
302.452	77.82
302.667	65.53
302.881	79.87
303.095	2.05
303.309	-14.34
303.524	-0
303.738	-6.14
303.952	-43.01
304.166	86.01
304.381	18.43
304.595	86.01
304.809	-14.34
305.023	-8.19
305.237	45.06
305.452	90.11
305.666	38.91
305.88	28.67
306.094	112.64
306.308	104.45
306.522	51.2
306.736	61.44
306.95	102.4
307.164	129.02
307.379	-6.14
307.593	67.58
307.807	71.68
308.021	6.14
308.235	47.1
308.449	49.15
308.663	26.62
308.877	108.54
309.091	40.96
309.305	-20.48
309.519	-47.1
309.733	114.69
309.947	6.14
310.161	40.96
310.374	108.54
310.588	100.35
310.802	12.29
311.016	53.25
311.23	79.87
311.444	-61.44
311.658	51.2
311.872	92.16
312.085	43.01
312.299	110.59
312.513	77.82
312.727	34.82
312.941	10.24
313.154	49.15
313.368	-6.14
313.582	65.53
313.796	-12.29
314.009	67.58
314.223	86.01
314.437	75.77
314.651	14.34
314.864	65.53
315.078	47.1
315.292	-20.48
315.505	30.72
315.719	8.19
315.933	-6.14
316.146	34.82
316.36	2.05
316.573	83.97
316.787	77.82
317.001	63.49
317.214	-38.91
317.428	51.2
317.641	86.01
317.855	122.88
318.068	36.86
318.282	14.34
318.495	43.01
318.709	32.77
318.922	43.01
319.136	104.45
319.349	26.62
319.563	20.48
319.776	-0
319.99	6.14
320.203	38.91
320.417	112.64
320.63	96.25
320.843	75.77
321.057	32.77
321.27	71.68
321.483	34.82
321.697	116.73
321.91	43.01
322.124	112.64
322.337	81.92
322.55	32.77
322.763	38.91
322.977	69.63
323.19	6.14
323.403	77.82
323.617	30.72
323.83	65.53
324.043	30.72
324.256	67.58
324.469	20.48
324.683	55.3
324.896	59.39
325.109	112.64
325.322	34.82
325.535	81.92
325.748	118.78
325.962	16.38
326.175	73.73
326.388	73.73
326.601	40.96
326.814	47.1
327.027	116.73
327.24	108.54
327.453	-26.62
327.666	34.82
327.879	102.4
328.092	106.49
328.305	12.29
328.518	73.73
328.731	30.72
328.944	18.43
329.157	2.05
329.37	40.96
329.583	38.91
329.796	116.73
330.009	45.06
330.222	51.2
330.435	81.92
330.648	53.25
330.861	14.34
331.073	75.77
331.286	69.63
331.499	69.63
331.712	-14.34
331.925	153.6
332.138	30.72
332.35	22.53
332.563	59.39
332.776	47.1
332.989	-12.29
333.202	30.72
333.414	77.82
333.627	10.24
333.84	45.06
334.053	65.53
334.265	47.1
334.478	2.05
334.691	30.72
334.903	53.25
335.116	24.58
335.329	88.06
335.541	92.16
335.754	81.92
335.966	53.25
336.179	79.87
336.392	73.73
336.604	92.16
336.817	-18.43
337.029	30.72
337.242	38.91
337.454	55.3
337.667	10.24
337.88	108.54
338.092	36.86
338.305	71.68
338.517	79.87
338.729	67.58
338.942	92.16
339.154	6.14
339.367	67.58
339.579	-16.38
339.792	63.49
340.004	120.83
340.217	34.82
340.429	90.11
340.641	-2.05
340.854	59.39
341.066	30.72
341.278	94.21
341.491	92.16
341.703	108.54
341.915	57.34
342.128	92.16
342.34	153.6
342.552	59.39
342.764	55.3
342.977	94.21
343.189	71.68
343.401	6.14
343.613	22.53
343.826	75.77
344.038	36.86
344.25	90.11
344.462	51.2
344.674	61.44
344.886	14.34
345.099	28.67
345.311	53.25
345.523	38.91
345.735	-14.34
345.947	47.1
346.159	47.1
346.371	10.24
346.583	-10.24
346.795	174.08
347.007	55.3
347.219	67.58
347.431	16.38
347.643	2.05
347.855	38.91
348.067	71.68
348.279	47.1
348.491	30.72
348.703	100.35
348.915	75.77
349.127	24.58
349.339	61.44
349.551	14.34
349.763	-51.2
349.975	51.2
350.187	10.24
350.399	20.48
350.61	40.96
350.822	57.34
351.034	98.3
351.246	90.11
351.458	67.58
351.669	65.53
351.881	30.72
352.093	-30.72
352.305	20.48
352.517	10.24
352.728	92.16
352.94	104.45
353.152	51.2
353.363	10.24
353.575	81.92
353.787	83.97
353.999	-10.24
354.21	18.43
354.422	18.43
354.633	90.11
354.845	34.82
355.057	43.01
355.268	102.4
355.48	49.15
355.692	47.1
355.903	83.97
356.115	45.06
356.326	34.82
356.538	75.77
356.749	102.4
356.961	83.97
357.172	-12.29
357.384	34.82
357.595	108.54
357.807	-2.05
358.018	12.29
358.23	63.49
358.441	169.98
358.653	55.3
358.864	16.38
359.075	14.34
359.287	6.14
359.498	81.92
359.709	104.45
359.921	116.73
360.132	100.35
360.344	16.38
360.555	51.2
360.766	81.92
360.977	106.49
361.189	59.39
361.4	104.45
361.611	36.86
361.823	45.06
362.034	83.97
362.245	18.43
362.456	30.72
362.667	26.62
362.879	8.19
363.09	112.64
363.301	45.06
363.512	71.68
363.723	-6.14
363.935	49.15
364.146	59.39
364.357	32.77
364.568	94.21
364.779	8.19
364.99	114.69
365.201	75.77
365.412	106.49
365.623	40.96
365.834	69.63
366.045	30.72
366.256	98.3
366.467	40.96
366.678	71.68
366.889	38.91
367.1	40.96
367.311	96.25
367.522	71.68
367.733	92.16
367.944	2.05
368.155	22.53
368.366	59.39
368.577	67.58
368.788	67.58
368.999	34.82
369.209	18.43
369.42	186.37
369.631	100.35
369.842	88.06
370.053	47.1
370.264	129.02
370.474	30.72
370.685	104.45
370.896	57.34
371.107	65.53
371.317	71.68
371.528	-51.2
371.739	51.2
371.95	32.77
372.16	75.77
372.371	2.05
372.582	120.83
372.792	8.19
373.003	61.44
373.214	100.35
373.424	98.3
373.635	-0
373.846	57.34
374.056	24.58
374.267	88.06
374.477	38.91
374.688	96.25
374.898	55.3
375.109	18.43
375.319	30.72
375.53	59.39
375.74	22.53
375.951	30.72
376.161	47.1
376.372	100.35
376.582	-22.53
376.793	124.93
377.003	8.19
377.214	100.35
377.424	81.92
377.635	-6.14
377.845	59.39
378.055	145.41
378.266	22.53
378.476	14.34
378.686	43.01
378.897	55.3
379.107	83.97
379.317	28.67
379.528	30.72
379.738	94.21
379.948	2.05
380.158	96.25
380.369	96.25
380.579	28.67
380.789	24.58
380.999	45.06
381.21	96.25
381.42	67.58
381.63	30.72
381.84	98.3
382.05	83.97
382.261	81.92
382.471	98.3
382.681	53.25
382.891	157.69
383.101	30.72
383.311	69.63
383.521	73.73
383.731	67.58
383.941	104.45
384.151	65.53
384.361	73.73
384.571	114.69
384.781	49.15
384.991	145.41
385.201	165.89
385.411	124.93
385.621	94.21
385.831	10.24
386.041	79.87
386.251	96.25
386.461	38.91
386.671	79.87
386.881	63.49
387.091	108.54
387.301	83.97
387.511	38.91
387.72	83.97
387.93	98.3
388.14	88.06
388.35	63.49
388.56	94.21
388.769	79.87
388.979	59.39
389.189	-4.1
389.399	40.96
389.609	108.54
389.818	96.25
390.028	63.49
390.238	92.16
390.447	18.43
390.657	30.72
390.867	108.54
391.076	55.3
391.286	55.3
391.496	38.91
391.705	59.39
391.915	120.83
392.125	137.21
392.334	38.91
392.544	67.58
392.753	108.54
392.963	73.73
393.172	47.1
393.382	75.77
393.591	88.06
393.801	49.15
394.01	116.73
394.22	126.97
394.429	90.11
394.639	88.06
394.848	67.58
395.058	92.16
395.267	88.06
395.477	-10.24
395.686	176.13
395.895	206.84
396.105	124.93
396.314	79.87
396.524	83.97
396.733	141.31
396.942	55.3
397.152	57.34
397.361	90.11
397.57	165.89
397.78	118.78
397.989	190.46
398.198	112.64
398.407	118.78
398.617	182.27
398.826	116.73
399.035	94.21
399.244	149.5
399.453	178.17
399.663	133.12
399.872	120.83
400.081	-8.19
400.29	98.3
400.499	110.59
400.708	126.97
400.917	153.6
401.127	147.45
401.336	67.58
401.545	149.5
401.754	143.36
401.963	174.08
402.172	98.3
402.381	75.77
402.59	114.69
402.799	161.79
403.008	65.53
403.217	129.02
403.426	116.73
403.635	129.02
403.844	145.41
404.053	147.45
404.262	149.5
404.471	167.93
404.68	106.49
404.888	217.08
405.097	157.69
405.306	198.65
405.515	212.99
405.724	165.89
405.933	176.13
406.142	59.39
406.35	153.6
406.559	219.13
406.768	174.08
406.977	260.09
407.185	229.37
407.394	174.08
407.603	157.69
407.812	292.86
408.02	223.23
408.229	210.94
408.438	204.8
408.646	280.57
408.855	212.99
409.064	290.81
409.272	296.96
409.481	354.3
409.69	294.91
409.898	296.96
410.107	327.67
410.315	331.77
410.524	352.25
410.733	286.72
410.941	399.35
411.15	391.16
411.358	444.41
411.567	454.65
411.775	358.39
411.984	456.7
412.192	413.69
412.401	428.03
412.609	559.1
412.818	493.56
413.026	548.86
413.234	628.73
413.443	505.85
413.651	624.63
413.86	581.62
414.068	589.81
414.276	729.08
414.485	624.63
414.693	661.49
414.901	706.55
415.11	735.22
415.318	804.85
415.526	702.45
415.734	763.89
415.943	778.23
416.151	849.91
416.359	880.63
416.567	950.26
416.776	985.07
416.984	1093.62
417.192	1017.84
417.4	1009.65
417.608	1028.08
417.817	1114.09
418.025	1122.29
418.233	1175.53
418.441	1200.11
418.649	1214.45
418.857	1353.71
419.065	1368.04
419.273	1384.43
419.481	1513.45
419.689	1523.69
419.897	1554.41
420.105	1658.85
420.313	1644.52
420.521	1632.23
420.729	1791.97
420.937	1683.43
421.145	1912.8
421.353	1906.66
421.561	1990.63
421.769	2082.78
421.977	2205.66
422.185	2127.84
422.393	2314.2
422.601	2426.84
422.809	2424.79
423.017	2416.6
423.224	2385.88
423.432	2684.89
423.64	2580.44
423.848	2746.33
424.056	2781.14
424.263	3016.66
424.471	2893.78
424.679	3076.05
424.887	3327.95
425.094	3438.54
425.302	3393.48
425.51	3508.17
425.718	3510.22
425.925	3573.71
426.133	3735.49
426.341	3991.49
426.548	4179.9
426.756	4095.94
426.964	4233.15
427.171	4333.5
427.379	4493.24
427.586	4581.31
427.794	4859.83
428.001	4837.3
428.209	5363.63
428.417	4980.66
428.624	5320.62
428.832	5406.64
429.039	5425.07
429.247	5406.64
429.454	5818.28
429.662	6211.49
429.869	5767.08
430.076	6461.34
430.284	6274.98
430.491	6410.14
430.699	6848.41
430.906	6985.62
431.114	6961.05
431.321	7085.97
431.528	7255.95
431.736	7772.04
431.943	8152.96
432.15	7937.93
432.358	8124.29
432.565	8558.46
432.772	8595.32
432.979	8757.11
433.187	9017.21
433.394	9119.6
433.601	9369.46
433.808	9650.03
434.016	9582.45
434.223	9938.79
434.43	10600.29
434.637	10475.36
434.844	11104.09
435.052	11515.73
435.259	11253.59
435.466	11212.63
435.673	11286.36
435.88	11923.27
436.087	12492.61
436.294	12592.96
436.501	12193.61
436.708	12365.64
436.915	12789.56
437.122	13662
437.329	13553.46
437.537	13662
437.743	14069.55
437.95	13909.8
438.157	14532.39
438.364	15003.42
438.571	15238.94
438.778	15324.95
438.985	16588.55
439.192	15763.22
439.399	16441.09
439.606	15896.33
439.813	16994.04
440.02	18026.22
440.227	17663.73
440.433	17690.35
440.64	18269.93
440.847	17821.42
441.054	18736.87
441.261	19846.87
441.467	19152.6
441.674	19967.7
441.881	20420.3
442.088	20700.87
442.294	20512.45
442.501	20891.33
442.708	21196.48
442.914	22138.54
443.121	23008.93
443.328	22511.27
443.534	24209.04
443.741	23209.63
443.948	22597.29
444.154	24731.27
444.361	24616.58
444.568	24663.69
444.774	24620.68
444.981	24958.6
445.187	25880.18
445.394	26560.11
445.6	26412.65
445.807	29058.63
446.013	27907.67
446.22	28280.4
446.426	29079.11
446.633	29795.9
446.839	30211.63
447.046	29269.57
447.252	30785.07
447.459	30909.99
447.665	30856.75
447.871	32282.13
448.078	33342.98
448.284	31827.48
448.491	32531.98
448.697	34022.9
448.903	34129.4
449.11	34584.05
449.316	33504.77
449.522	34704.88
449.728	35341.8
449.935	35513.83
450.141	35679.71
450.347	36255.19
450.553	34870.76
450.76	35597.79
450.966	36595.15
451.172	36199.9
451.378	37275.08
451.584	36584.91
451.791	37250.5
451.997	37039.56
452.203	37514.69
452.409	37596.61
452.615	37103.05
452.821	36077.02
453.027	35352.04
453.233	37215.69
453.44	36085.21
453.646	36216.28
453.852	36349.4
454.058	36689.36
454.264	35511.78
454.47	36492.76
454.676	35374.56
454.882	36926.92
455.088	33762.81
455.294	34121.21
455.5	34459.12
455.705	34858.48
455.911	33400.32
456.117	33060.36
456.323	32243.22
456.529	30563.89
456.735	31825.43
456.941	30930.47
457.147	30590.51
457.352	30051.89
457.558	29122.12
457.764	28952.13
457.97	28284.5
458.176	28073.56
458.381	27989.59
458.587	26490.48
458.793	26642.03
458.999	25351.81
459.204	26898.02
459.41	26318.45
459.616	24411.79
459.821	24399.5
460.027	24594.06
460.233	24098.45
460.438	22763.17
460.644	23172.77
460.85	22109.87
461.055	21798.58
461.261	21753.52
461.466	20033.23
461.672	19474.13
461.878	20805.31
462.083	19453.66
462.289	19062.49
462.494	19183.32
462.7	18065.13
462.905	17614.58
463.111	18149.1
463.316	18112.24
463.522	18009.84
463.727	18099.95
463.932	18007.79
464.138	17526.52
464.343	17770.22
464.549	17018.62
464.754	18028.27
464.959	17708.79
465.165	17694.45
465.37	16914.17
465.575	16373.51
465.781	17272.57
465.986	17211.13
466.191	16432.9
466.397	16310.02
466.602	15523.6
466.807	16013.07
467.012	15935.24
467.218	16068.36
467.423	15736.59
467.628	15820.56
467.833	16471.81
468.038	15748.88
468.244	15656.72
468.449	16031.5
468.654	15302.42
468.859	15304.47
469.064	15413.01
469.269	14726.94
469.474	14905.12
469.679	15144.73
469.885	14767.9
470.09	14839.58
470.295	14772
470.5	14038.83
470.705	14497.57
470.91	14139.18
471.115	13936.43
471.32	14274.34
471.525	13993.77
471.73	13739.82
471.935	14133.03
472.139	13291.32
472.344	13330.23
472.549	12969.79
472.754	13260.6
472.959	12832.57
473.164	12658.49
473.369	12611.39
473.574	12941.11
473.778	12707.65
473.983	12506.95
474.188	12738.37
474.393	11980.62
474.598	11992.9
474.802	11863.88
475.007	12013.38
475.212	11941.71
475.417	11419.47
475.621	11472.72
475.826	11376.47
476.031	11237.2
476.235	10843.99
476.44	11374.42
476.645	11186.01
476.849	10911.58
477.054	10975.06
477.259	10768.22
477.463	10970.97
477.668	10276.71
477.872	10757.98
478.077	10362.72
478.282	10168.16
478.486	10114.92
478.691	10135.4
478.895	10041.19
479.1	9930.6
479.304	9860.97
479.509	9635.69
479.713	9973.61
479.918	9701.23
480.122	9541.49
480.326	9828.2
480.531	9598.83
480.735	9656.17
480.94	9453.42
481.144	9715.56
481.348	9217.91
481.553	9437.04
481.757	9240.43
481.961	9412.46
482.166	9400.18
482.37	9447.28
482.574	9152.37
482.778	9283.44
482.983	9275.25
483.187	9275.25
483.391	9230.2
483.595	9238.39
483.8	9045.88
484.004	9103.22
484.208	9295.73
484.412	9246.58
484.616	9320.31
484.821	9238.39
485.025	9049.97
485.229	9371.5
485.433	9011.06
485.637	9213.81
485.841	9193.33
486.045	9285.49
486.249	9207.67
486.453	9025.4
486.657	9301.87
486.861	9465.71
487.065	8972.15
487.269	9244.53
487.473	8943.48
487.677	9324.4
487.881	9238.39
488.085	9377.65
488.289	9357.17
488.493	9238.39
488.697	9398.13
488.901	9324.4
489.105	9330.55
489.309	9357.17
489.512	9320.31
489.716	9447.28
489.92	9449.33
490.124	9443.18
490.328	9611.12
490.531	9439.09
490.735	9541.49
490.939	9594.73
491.143	9658.22
491.346	9574.25
491.55	9543.53
491.754	9674.6
491.958	9809.77
492.161	9701.23
492.365	9750.38
492.569	9658.22
492.772	9842.54
492.976	9979.75
493.18	10149.73
493.383	10028.9
493.587	10147.69
493.79	10102.63
493.994	10225.51
494.197	10221.41
494.401	10334.05
494.605	10313.57
494.808	10702.68
495.012	10381.15
495.215	10440.54
495.419	10622.81
495.622	10755.93
495.825	10803.04
496.029	10823.51
496.232	11034.46
496.436	11030.36
496.639	11444.05
496.843	11194.2
497.046	11663.18
497.249	11659.09
497.453	11632.46
497.656	11579.22
497.859	12019.53
498.063	11863.88
498.266	12240.71
498.469	12224.33
498.673	12257.09
498.876	12422.98
499.079	12517.18
499.282	12461.89
499.485	12789.56
499.689	12941.11
499.892	13197.11
500.095	13109.05
500.298	13512.5
500.501	13338.42
500.705	13455.15
500.908	13942.57
501.111	14008.11
501.314	13915.95
501.517	14149.42
501.72	14450.47
501.923	14368.55
502.126	14821.15
502.329	15140.63
502.532	14952.22
502.735	15228.7
502.938	15611.67
503.141	15589.14
503.344	15810.32
503.547	15632.15
503.75	16068.36
503.953	16137.99
504.156	16465.67
504.359	16475.91
504.562	16660.23
504.765	16930.56
504.968	17037.05
505.17	17268.47
505.373	17293.05
505.576	17719.03
505.779	18159.34
505.982	18253.55
506.185	18368.23
506.387	18276.07
506.59	18286.31
506.793	18906.85
506.996	18820.83
507.198	19248.86
507.401	19543.77
507.604	19715.8
507.807	19984.08
508.009	20133.58
508.212	20321.99
508.415	20621
508.617	20739.78
508.82	20891.33
509.022	20881.09
509.225	21073.6
509.428	21542.58
509.63	21733.04
509.833	21589.69
510.035	22316.72
510.238	22199.98
510.44	22787.75
510.643	22904.48
510.845	22906.53
511.048	22757.03
511.25	23307.93
511.453	23598.74
511.655	24358.54
511.858	24045.2
512.06	24141.46
512.262	24395.4
512.465	24864.39
512.667	24819.33
512.87	25185.92
513.072	25566.84
513.274	26295.92
513.477	26189.42
513.679	26562.15
513.881	26312.3
514.084	26742.38
514.286	27022.95
514.488	27258.46
514.69	27784.79
514.893	27848.28
515.095	28159.57
515.297	28587.6
515.499	28405.33
515.701	28847.69
515.904	29367.87
516.106	29140.55
516.308	29654.59
516.51	29810.23
516.712	29791.8
516.914	30428.72
517.116	30938.66
517.318	30916.14
517.52	31112.74
517.722	31301.15
517.925	31878.68
518.127	32157.21
518.329	32527.89
518.531	32108.05
518.733	32701.96
518.935	33009.16
519.136	32908.81
519.338	33564.16
519.54	34059.77
519.742	34383.35
519.944	34489.84
520.146	34983.4
520.348	35175.91
520.55	35526.11
520.752	35534.31
520.954	36058.59
521.155	35775.97
521.357	36582.87
521.559	36697.55
521.761	37139.91
521.963	37612.99
522.164	37311.94
522.366	37563.84
522.568	37717.44
522.77	38114.75
522.971	38800.82
523.173	38647.22
523.375	39140.78
523.576	38677.94
523.778	39128.49
523.98	39904.67
524.181	39759.27
524.383	40146.33
524.584	40795.54
524.786	40252.83
524.988	40514.97
525.189	40994.19
525.391	41489.8
525.592	41479.56
525.794	41577.86
525.995	41803.14
526.197	41848.19
526.398	42003.84
526.6	42493.3
526.801	42792.31
527.003	42900.85
527.204	42579.32
527.406	43214.19
527.607	42970.48
527.808	43863.39
528.01	42876.27
528.211	43314.54
528.412	44541.27
528.614	44201.31
528.815	43908.45
529.016	44449.11
529.218	44215.65
529.419	44449.11
529.62	44565.85
529.822	44643.67
530.023	44629.33
530.224	44797.27
530.425	44916.05
530.626	44897.62
530.828	44916.05
531.029	45618.5
531.23	45215.05
531.431	45245.77
531.632	45725
531.833	45757.77
532.035	45466.95
532.236	45702.47
532.437	46036.29
532.638	45534.54
532.839	45825.35
533.04	46458.17
533.241	45428.04
533.442	46806.33
533.643	46036.29
533.844	46417.21
534.045	46544.19
534.246	45555.02
534.447	46861.62
534.648	45999.43
534.849	46513.47
535.05	46271.81
535.251	46472.51
535.451	46490.94
535.652	46542.14
535.853	46546.23
536.054	46550.33
536.255	46544.19
536.456	46394.68
536.657	47279.41
536.857	46628.15
537.058	46613.82
537.259	46894.39
537.46	46787.89
537.66	46398.78
537.861	46986.55
538.062	46488.89
538.263	46789.94
538.463	46665.02
538.664	46996.79
538.865	46718.26
539.065	47011.12
539.266	46363.96
539.466	47320.37
539.667	46722.36
539.868	47041.84
540.068	46540.09
540.269	46775.61
540.469	47060.27
540.67	46245.18
540.87	47127.86
541.071	46705.98
541.271	46980.4
541.472	46378.3
541.672	46484.79
541.873	46343.48
542.073	46114.11
542.274	46894.39
542.474	46562.62
542.675	46277.95
542.875	47131.95
543.075	46931.25
543.276	46335.29
543.476	46822.71
543.676	46488.89
543.877	47084.85
544.077	46970.16
544.277	46851.38
544.478	46730.55
544.678	47168.82
544.878	46652.73
545.078	47430.96
545.279	46333.24
545.479	46476.6
545.679	46628.15
545.879	46742.84
546.079	47000.88
546.28	46648.63
546.48	46110.02
546.68	46576.95
546.88	46837.05
547.08	46855.48
547.28	47201.58
547.48	46214.46
547.68	46505.27
547.88	46226.75
548.081	46662.97
548.281	46593.34
548.481	46624.06
548.681	46896.44
548.881	46898.48
549.081	46576.95
549.28	46325.05
549.48	46878
549.68	46540.09
549.88	47385.9
550.08	46280
550.28	46855.48
550.48	46714.17
550.68	46622.01
550.88	46456.12
551.08	46419.26
551.279	46605.62
551.479	46394.68
551.679	46656.82
551.879	46849.33
552.079	46697.78
552.278	46304.57
552.478	46656.82
552.678	46890.29
552.878	47031.6
553.077	46419.26
553.277	46153.02
553.477	46886.2
553.676	46200.13
553.876	46202.17
554.076	45806.92
554.275	46251.33
554.475	45641.03
554.674	46472.51
554.874	46069.06
555.074	46058.82
555.273	46490.94
555.473	46312.77
555.672	45972.8
555.872	45952.32
556.071	45753.67
556.271	46402.88
556.47	45667.66
556.67	45186.38
556.869	45288.78
557.068	46067.01
557.268	45673.8
557.467	45962.56
557.667	45722.95
557.866	45477.19
558.065	45432.14
558.265	45460.81
558.464	45100.37
558.663	45854.02
558.863	45094.22
559.062	45602.12
559.261	45124.94
559.461	45636.94
559.66	44746.07
559.859	45282.64
560.058	44449.11
560.258	44920.15
560.457	44404.06
560.656	44979.54
560.855	44762.45
561.054	44866.9
561.253	44227.93
561.453	44354.91
561.652	44496.22
561.851	44784.98
562.05	44414.3
562.249	43707.75
562.448	44041.57
562.647	44287.32
562.846	43920.74
563.045	44053.86
563.244	43509.1
563.443	44242.27
563.642	43126.13
563.841	43672.93
564.04	43619.69
564.239	43687.27
564.438	43355.5
564.637	43068.78
564.836	43443.56
565.035	42925.42
565.234	43015.54
565.432	42855.79
565.631	42847.6
565.83	42990.96
566.029	42487.16
566.228	42429.82
566.427	42259.84
566.625	42274.17
566.824	41635.2
567.023	42421.62
567.222	41536.9
567.42	42327.42
567.619	41708.93
567.818	41815.43
568.016	41364.87
568.215	41946.5
568.414	41547.14
568.612	41590.15
568.811	41434.5
569.01	41332.11
569.208	40582.55
569.407	41155.98
569.605	40676.76
569.804	41145.74
570.002	40521.11
570.201	40500.63
570.4	40162.72
570.598	40392.09
570.797	40158.62
570.995	40158.62
571.193	39521.7
571.392	40377.75
571.59	39859.62
571.789	39847.33
571.987	39597.48
572.186	39226.79
572.384	39116.2
572.582	39566.76
572.781	39366.06
572.979	38706.61
573.177	38874.54
573.376	38671.79
573.574	38745.52
573.772	39273.9
573.971	38428.09
574.169	38454.71
574.367	38018.49
574.565	38464.95
574.763	38112.7
574.962	38100.41
575.16	37881.28
575.358	38014.4
575.556	37772.74
575.754	38112.7
575.952	37354.95
576.151	37440.96
576.349	36781.52
576.547	36986.32
576.745	37191.11
576.943	37297.61
577.141	36937.16
577.339	37303.75
577.537	37080.52
577.735	36867.53
577.933	36017.63
578.131	36754.9
578.329	36290.01
578.527	36191.7
578.725	36150.74
578.923	36259.29
579.121	35978.71
579.319	35694.05
579.516	35999.19
579.714	35933.66
579.912	35696.1
580.11	35507.68
580.308	35352.04
580.506	35519.97
580.704	34977.26
580.901	35274.21
581.099	35417.57
581.297	34659.82
581.495	34835.95
581.692	34852.33
581.89	34541.04
582.088	35073.51
582.285	34452.98
582.483	34780.65
582.681	34424.31
582.878	34483.7
583.076	34002.43
583.274	34307.57
583.471	33850.88
583.669	33871.36
583.866	33381.89
584.064	33930.75
584.262	33496.58
584.459	33889.79
584.657	33492.48
584.854	33394.18
585.052	32777.74
585.249	33414.66
585.447	33025.54
585.644	32650.77
585.841	32931.34
586.039	33093.13
586.236	32599.57
586.434	32648.72
586.631	32271.89
586.828	32273.94
587.026	32341.52
587.223	32206.36
587.42	32034.33
587.618	32056.85
587.815	31473.18
588.012	31598.11
588.21	31284.77
588.407	31772.19
588.604	31432.22
588.801	31534.62
588.999	31604.25
589.196	31147.56
589.393	31131.17
589.59	31114.79
589.787	30989.86
589.984	30821.93
590.182	30621.23
590.379	30795.31
590.576	30379.57
590.773	30588.46
590.97	30234.16
591.167	30209.59
591.364	29994.55
591.561	30250.55
591.758	29955.64
591.955	30008.89
592.152	29804.09
592.349	29951.54
592.546	29544
592.743	29730.36
592.94	29525.57
593.137	29443.65
593.334	29486.65
593.531	29120.07
593.727	28894.79
593.924	28931.65
594.121	29036.1
594.318	28829.26
594.515	28862.02
594.712	28978.76
594.908	28651.08
595.105	28663.37
595.302	28323.41
595.499	28202.58
595.696	28286.54
595.892	27983.44
596.089	28509.77
596.286	28239.44
596.482	27960.92
596.679	27780.7
596.876	27833.94
597.072	27776.6
597.269	27819.61
597.466	27450.97
597.662	27354.72
597.859	27741.78
598.055	27453.02
598.252	27160.16
598.448	27002.47
598.645	26799.72
598.841	26721.9
599.038	26979.94
599.234	27012.71
599.431	26592.87
599.627	26451.56
599.824	26703.46
600.02	26445.42
600.217	26443.37
600.413	26412.65
600.609	26031.73
600.806	25935.48
601.002	26314.35
601.198	25941.62
601.395	25659
601.591	25683.58
601.787	25681.53
601.984	25525.88
602.18	25732.73
602.376	25443.96
602.572	25259.65
602.769	25179.78
602.965	25493.11
603.161	25222.78
603.357	25122.43
603.553	25085.57
603.75	25013.89
603.946	24667.78
604.142	24903.3
604.338	24436.36
604.534	24514.19
604.73	24514.19
604.926	24426.12
605.122	24374.92
605.318	24270.48
605.514	24108.69
605.71	24219.28
605.906	24194.7
606.102	23998.1
606.298	24127.12
606.494	23756.44
606.69	23760.53
606.886	23598.74
607.082	23537.3
607.278	23854.74
607.474	23277.21
607.67	23494.3
607.866	23322.27
608.062	23598.74
608.257	23094.94
608.453	23537.3
608.649	23133.85
608.845	23099.04
609.041	23191.2
609.236	22970.02
609.432	22847.14
609.628	22990.5
609.824	22836.9
610.019	22879.91
610.215	22498.98
610.411	22417.07
610.606	22271.66
610.802	22580.9
610.998	22367.91
611.193	22593.19
611.389	22058.67
611.584	22163.12
611.78	22208.17
611.976	22073.01
612.171	22216.36
612.367	22138.54
612.562	21833.39
612.758	21780.15
612.953	21679.8
613.149	22222.51
613.344	21735.09
613.539	22171.31
613.735	21847.73
613.93	22007.47
614.126	21581.49
614.321	21874.35
614.517	21634.74
614.712	21573.3
614.907	21786.29
615.103	21698.23
615.298	21178.04
615.493	21536.44
615.688	21206.72
615.884	21524.15
616.079	21153.47
616.274	21194.43
616.47	21333.69
616.665	21345.98
616.86	20963.01
617.055	21176
617.25	20780.74
617.445	21044.93
617.641	20803.27
617.836	20549.32
618.031	20739.78
618.226	21038.78
618.421	20520.65
618.616	20770.5
618.811	20334.28
619.006	20616.9
619.201	20262.6
619.396	20305.61
619.591	20109.01
619.786	20143.82
619.981	19613.4
620.176	20025.04
620.371	19535.57
620.566	19777.23
620.761	19549.91
620.956	19637.97
621.151	19132.12
621.346	19650.26
621.541	19166.94
621.735	19502.81
621.93	18937.57
622.125	18749.15
622.32	18935.52
622.515	18753.25
622.709	18745.06
622.904	18597.6
623.099	18712.29
623.294	18837.22
623.488	18151.15
623.683	18478.82
623.878	17954.54
624.072	18282.22
624.267	17909.49
624.462	17852.14
624.656	17770.22
624.851	17946.35
625.046	17633.01
625.24	17534.71
625.435	17213.18
625.629	17520.37
625.824	17174.27
626.018	17348.34
626.213	16738.05
626.407	17215.23
626.602	16887.55
626.796	16852.73
626.991	16838.4
627.185	16674.56
627.38	16672.51
627.574	16381.7
627.768	16318.22
627.963	16275.21
628.157	16109.32
628.352	16279.3
628.546	15869.71
628.74	16230.15
628.935	15623.95
629.129	15652.63
629.323	15515.41
629.517	15460.12
629.712	15642.39
629.906	15439.64
630.1	15382.29
630.294	15255.32
630.489	14927.64
630.683	15128.35
630.877	14915.36
631.071	14786.33
631.265	14921.5
631.459	15054.62
631.653	14669.6
631.848	14728.99
632.042	14554.91
632.236	14333.73
632.43	14352.16
632.624	14556.96
632.818	14303.01
633.012	13997.87
633.206	13967.15
633.4	14194.47
633.594	13834.03
633.788	13932.33
633.982	13981.48
634.176	13928.24
634.369	13641.52
634.563	13694.77
634.757	13602.61
634.951	13618.99
635.145	13496.11
635.339	13432.63
635.533	13301.56
635.726	13332.28
635.92	13125.43
636.114	13180.73
636.308	12875.58
636.501	13023.03
636.695	12840.76
636.889	12730.17
637.083	12676.93
637.276	12580.67
637.47	12728.13
637.664	12334.92
637.857	12488.51
638.051	12355.4
638.244	12347.2
638.438	12506.95
638.632	12293.96
638.825	12107.59
639.019	12048.2
639.212	12042.06
639.406	11876.17
639.599	11976.52
639.793	12046.15
639.986	11536.21
640.18	11904.84
640.373	11501.39
640.567	11386.71
640.76	11482.96
640.954	11444.05
641.147	11229.01
641.34	11423.57
641.534	11288.4
641.727	11429.71
641.92	11210.58
642.114	11071.32
642.307	10985.3
642.5	10899.29
642.694	10739.55
642.887	10856.28
643.08	10999.64
643.273	10764.12
643.467	10686.3
643.66	10680.16
643.853	10528.61
644.046	10397.54
644.239	10354.53
644.432	10536.8
644.626	10227.56
644.819	10088.29
645.012	10405.73
645.205	10329.95
645.398	10219.36
645.591	9971.56
645.784	10143.59
645.977	9979.75
646.17	10067.81
646.363	9801.58
646.556	9758.57
646.749	9568.11
646.942	9731.95
647.135	9631.6
647.328	9670.51
647.521	9303.92
647.714	9406.32
647.907	9508.72
648.099	9176.95
648.292	9486.19
648.485	9312.11
648.678	9150.32
648.871	9039.73
649.064	9156.47
649.256	9207.67
649.449	8890.23
649.642	8945.53
649.835	8906.62
650.027	8750.97
650.22	8904.57
650.413	8755.07
650.605	8871.8
650.798	8923
650.991	8726.39
651.183	8671.1
651.376	8544.13
651.568	8531.84
651.761	8441.73
651.954	8476.54
652.146	8476.54
652.339	8411.01
652.531	8628.09
652.724	8224.64
652.916	8144.77
653.109	8349.57
653.301	8165.25
653.494	8218.5
653.686	8030.09
653.879	8212.35
654.071	8071.04
654.263	7903.11
654.456	7800.71
654.648	8052.61
654.84	7761.8
655.033	7839.62
655.225	7817.1
655.417	7600.01
655.61	7663.5
655.802	7604.11
655.994	7554.96
656.186	7616.4
656.379	7595.92
656.571	7520.14
656.763	7534.48
656.955	7368.59
657.148	7389.07
657.34	7333.78
657.532	7176.08
657.724	7325.58
657.916	7247.76
658.108	7090.07
658.3	7110.55
658.492	7022.48
658.684	6897.56
658.876	7010.2
659.068	6707.1
659.26	6866.84
659.452	6731.67
659.644	7014.29
659.836	6649.75
660.028	6887.32
660.22	6647.71
660.412	6719.39
660.604	6594.46
660.796	6496.16
660.988	6692.76
661.18	6580.12
661.372	6758.3
661.563	6571.93
661.755	6434.72
661.947	6365.09
662.139	6383.52
662.331	6416.29
662.522	6297.5
662.714	6215.59
662.906	6248.35
663.097	6307.74
663.289	6305.7
663.481	6029.22
663.673	6127.52
663.864	6148
664.056	6152.1
664.247	6000.55
664.439	6057.89
664.631	6033.32
664.822	6188.96
665.014	5881.77
665.205	5748.65
665.397	6018.98
665.588	5758.89
665.78	5765.03
665.971	5846.95
666.163	5732.26
666.354	5605.29
666.546	5523.37
666.737	5652.39
666.929	5599.15
667.12	5531.56
667.311	5676.97
667.503	5320.62
667.694	5490.6
667.885	5486.51
668.077	5412.78
668.268	5439.4
668.459	5513.13
668.651	5347.25
668.842	5373.87
669.033	5177.26
669.224	5162.93
669.416	5404.59
669.607	5492.65
669.798	5201.84
669.989	5347.25
670.18	5171.12
670.371	5244.85
670.563	5238.7
670.754	5074.87
670.945	5068.72
671.136	5130.16
671.327	4980.66
671.518	5105.59
671.709	5070.77
671.9	5078.96
672.091	4919.22
672.282	4951.99
672.473	4827.06
672.664	4919.22
672.855	4792.25
673.046	4779.96
673.237	4804.53
673.428	4800.44
673.619	4902.84
673.809	4597.69
674	4816.82
674.191	4749.24
674.382	4704.18
674.573	4667.32
674.764	4779.96
674.954	4628.41
675.145	4630.46
675.336	4693.94
675.527	4558.78
675.717	4585.4
675.908	4474.81
676.099	4478.91
676.289	4523.96
676.48	4624.31
676.671	4360.13
676.861	4392.89
677.052	4335.55
677.243	4333.5
677.433	4341.69
677.624	4335.55
677.814	4458.43
678.005	4364.22
678.195	4351.93
678.386	4255.68
678.576	4378.56
678.767	4255.68
678.957	4122.56
679.148	4229.06
679.338	4157.38
679.529	4229.06
679.719	4165.57
679.909	4304.83
680.1	4317.12
680.29	4095.94
680.481	4140.99
680.671	4112.32
680.861	4071.36
681.052	4165.57
681.242	4147.14
681.432	4114.37
681.622	3915.72
681.813	3944.39
682.003	4061.12
682.193	3983.3
682.383	4001.73
682.573	4114.37
682.764	4011.97
682.954	3925.96
683.144	4009.92
683.334	3995.59
683.524	3997.63
683.714	3868.61
683.904	3860.42
684.094	3942.34
684.284	3983.3
684.474	3946.44
684.664	3770.31
684.854	3862.47
685.044	3835.85
685.234	3704.78
685.424	3866.56
685.614	3807.17
685.804	3762.12
685.994	3749.83
686.184	3811.27
686.374	3696.58
686.564	3530.7
686.753	3698.63
686.943	3710.92
687.133	3674.06
687.323	3616.71
687.513	3606.47
687.702	3588.04
687.892	3569.61
688.082	3588.04
688.272	3504.07
688.461	3686.34
688.651	3559.37
688.841	3545.03
689.03	3413.96
689.22	3403.72
689.41	3516.36
689.599	3561.42
689.789	3534.79
689.979	3360.72
690.168	3471.31
690.358	3375.05
690.547	3424.2
690.737	3356.62
690.926	3336.14
691.116	3332.05
691.305	3422.16
691.495	3360.72
691.684	3196.88
691.874	3293.13
692.063	3250.13
692.252	3360.72
692.442	3332.05
692.631	3215.31
692.82	3325.9
693.01	3301.33
693.199	3268.56
693.388	3274.7
693.578	3309.52
693.767	3413.96
693.956	3119.06
694.146	3246.03
694.335	3246.03
694.524	3141.58
694.713	3145.68
694.902	3074
695.092	3108.82
695.281	3121.1
695.47	3184.59
695.659	3168.21
695.848	3217.36
696.037	3178.45
696.226	3221.45
696.415	3129.3
696.604	3061.71
696.793	3303.37
696.982	3080.14
697.171	3233.74
697.36	3145.68
697.549	3114.96
697.738	3153.87
697.927	3129.3
698.116	3264.46
698.305	3063.76
698.494	3063.76
698.683	3047.38
698.872	3057.62
699.061	3030.99
699.25	3082.19
699.438	3067.86
699.627	3090.38
699.816	3098.58
700.005	3053.52
700.193	3221.45
700.382	3125.2
700.571	3018.71
700.76	3188.69
700.948	3241.93
701.137	3041.23
701.326	3061.71
701.514	2975.7
701.703	3125.2
701.892	2938.84
702.08	3074
702.269	3051.47
702.457	3016.66
702.646	3063.76
702.834	2918.36
703.023	3104.72
703.212	2992.08
703.4	3063.76
703.589	3039.19
703.777	3108.82
703.965	2998.23
704.154	3211.22
704.342	3012.56
704.531	2979.79
704.719	3008.47
704.907	3104.72
705.096	3102.67
705.284	3082.19
705.472	3133.39
705.661	2965.46
705.849	2975.7
706.037	3047.38
706.226	3016.66
706.414	2934.74
706.602	2992.08
706.79	3033.04
706.979	3108.82
707.167	3086.29
707.355	2965.46
707.543	2985.94
707.731	3039.19
707.919	2934.74
708.107	3053.52
708.296	2975.7
708.484	2889.68
708.672	3002.32
708.86	3059.67
709.048	2938.84
709.236	2944.98
709.424	3016.66
709.612	3000.27
709.8	2981.84
709.988	2965.46
710.176	3106.77
710.364	3055.57
710.551	2953.17
710.739	2955.22
710.927	2877.4
711.115	2936.79
711.303	3082.19
711.491	2973.65
711.679	3020.75
711.866	3028.95
712.054	2979.79
712.242	2801.62
712.43	3043.28
712.617	2942.93
712.805	2942.93
712.993	3043.28
713.181	2955.22
713.368	2928.6
713.556	2912.21
713.744	3026.9
713.931	2949.07
714.119	2944.98
714.306	3020.75
714.494	2916.31
714.682	3004.37
714.869	2895.83
715.057	2889.68
715.244	2967.51
715.432	2951.12
715.619	2979.79
715.807	2953.17
715.994	2936.79
716.182	2822.1
716.369	2928.6
716.556	2953.17
716.744	2850.77
716.931	3016.66
717.119	2873.3
717.306	2883.54
717.493	2934.74
717.681	2848.72
717.868	2953.17
718.055	2971.6
718.242	2787.29
718.43	2932.69
718.617	2879.44
718.804	2826.2
718.991	2879.44
719.179	2938.84
719.366	2852.82
719.553	2959.31
719.74	2899.92
719.927	2914.26
720.114	2760.66
720.301	2906.07
720.488	2867.16
720.676	2910.16
720.863	2985.94
721.05	2805.72
721.237	2861.01
721.424	2832.34
721.611	2869.2
721.798	2815.96
721.985	2613.21
722.172	2822.1
722.358	2805.72
722.545	2848.72
722.732	2758.61
722.919	2801.62
723.106	2758.61
723.293	2764.76
723.48	2818.01
723.667	2897.88
723.853	2836.44
724.04	2863.06
724.227	2789.33
724.414	2754.52
724.6	2828.24
724.787	2736.09
724.974	2742.23
725.161	2772.95
725.347	2723.8
725.534	2775
725.72	2766.81
725.907	2637.78
726.094	2621.4
726.28	2617.3
726.467	2701.27
726.653	2725.85
726.84	2758.61
727.027	2715.61
727.213	2662.36
727.4	2621.4
727.586	2643.93
727.773	2693.08
727.959	2746.33
728.145	2557.91
728.332	2627.54
728.518	2605.02
728.705	2627.54
728.891	2631.64
729.077	2740.18
729.264	2660.31
729.45	2514.91
729.636	2629.59
729.823	2639.83
730.009	2588.63
730.195	2607.06
730.382	2516.95
730.568	2645.98
730.754	2519
730.94	2555.86
731.126	2535.39
731.313	2639.83
731.499	2512.86
731.685	2471.9
731.871	2590.68
732.057	2643.93
732.243	2602.97
732.429	2494.43
732.615	2482.14
732.801	2473.95
732.987	2463.71
733.173	2437.08
733.359	2584.54
733.545	2402.27
733.731	2422.75
733.917	2404.32
734.103	2490.33
734.289	2486.23
734.475	2367.45
734.661	2451.42
734.847	2420.7
735.033	2475.99
735.219	2387.93
735.404	2500.57
735.59	2375.64
735.776	2416.6
735.962	2432.99
736.148	2469.85
736.333	2375.64
736.519	2367.45
736.705	2363.36
736.89	2443.23
737.076	2318.3
737.262	2363.36
737.447	2303.96
737.633	2361.31
737.819	2238.43
738.004	2377.69
738.19	2312.16
738.375	2289.63
738.561	2293.72
738.747	2232.29
738.932	2140.13
739.118	2283.49
739.303	2363.36
739.489	2230.24
739.674	2195.42
739.859	2179.04
740.045	2234.33
740.23	2197.47
740.416	2027.49
740.601	2205.66
740.786	2088.93
740.972	2115.55
741.157	2086.88
741.342	2162.65
741.528	2107.36
741.713	2193.37
741.898	2074.59
742.084	2113.5
742.269	2127.84
742.454	2031.58
742.639	2021.35
742.824	2033.63
743.01	2199.52
743.195	2154.46
743.38	2095.07
743.565	2090.98
743.75	2031.58
743.935	2066.4
744.12	1996.77
744.305	1959.91
744.49	1849.32
744.675	2027.49
744.86	2017.25
745.045	1990.63
745.23	1890.28
745.415	1890.28
745.6	1869.8
745.785	1918.95
745.97	1916.9
746.155	1820.64
746.34	1927.14
746.525	1920.99
746.71	1931.23
746.895	1810.4
747.079	1783.78
747.264	1804.26
747.449	1884.13
747.634	1769.44
747.819	1875.94
748.003	1697.77
748.188	1785.83
748.373	1703.91
748.557	1775.59
748.742	1689.57
748.927	1699.81
749.111	1732.58
749.296	1734.63
749.481	1759.21
749.665	1642.47
749.85	1720.29
750.034	1697.77
750.219	1640.42
750.404	1609.7
750.588	1630.18
750.773	1599.46
750.957	1558.5
751.141	1617.9
751.326	1656.81
751.51	1589.22
751.695	1589.22
751.879	1513.45
752.064	1542.12
752.248	1472.49
752.432	1562.6
752.617	1525.74
752.801	1540.07
752.985	1468.39
753.17	1417.19
753.354	1431.53
753.538	1480.68
753.722	1429.48
753.907	1419.24
754.091	1427.43
754.275	1466.35
754.459	1413.1
754.643	1398.76
754.828	1341.42
755.012	1335.28
755.196	1366
755.38	1380.33
755.564	1251.31
755.748	1366
755.932	1452.01
756.116	1341.42
756.3	1341.42
756.484	1193.97
756.668	1267.69
756.852	1271.79
757.036	1290.22
757.22	1249.26
757.404	1273.84
757.588	1296.36
757.772	1222.64
757.956	1161.2
758.14	1318.89
758.323	1290.22
758.507	1294.32
758.691	1173.49
758.875	1245.16
759.059	1277.93
759.242	1083.38
759.426	1130.48
759.61	1173.49
759.794	1175.53
759.977	1095.66
760.161	1255.4
760.345	1212.4
760.528	1110
760.712	1085.42
760.895	1157.1
761.079	1054.7
761.263	1013.74
761.446	1005.55
761.63	1050.61
761.813	1030.13
761.997	1079.28
762.18	1081.33
762.364	1062.9
762.547	964.59
762.731	1087.47
762.914	1112.05
763.098	948.21
763.281	1026.03
763.464	1017.84
763.648	1075.18
763.831	1069.04
764.015	1132.53
764.198	1013.74
764.381	1056.75
764.564	1009.65
764.748	980.98
764.931	890.87
765.114	1013.74
765.297	901.11
765.481	1005.55
765.664	907.25
765.847	1034.22
766.03	913.39
766.213	970.74
766.397	983.02
766.58	1050.61
766.763	958.45
766.946	1036.27
767.129	1071.09
767.312	989.17
767.495	854
767.678	972.79
767.861	931.83
768.044	1021.94
768.227	860.15
768.41	935.92
768.593	991.22
768.776	905.2
768.959	851.95
769.142	948.21
769.324	911.35
769.507	899.06
769.69	913.39
769.873	882.67
770.056	976.88
770.239	897.01
770.421	878.58
770.604	909.3
770.787	913.39
770.97	862.19
771.152	876.53
771.335	837.62
771.518	720.88
771.7	847.86
771.883	888.82
772.066	862.19
772.248	835.57
772.431	907.25
772.613	802.8
772.796	847.86
772.978	874.48
773.161	907.25
773.343	849.91
773.526	786.42
773.708	837.62
773.891	794.61
774.073	751.6
774.256	827.38
774.438	874.48
774.621	753.65
774.803	739.32
774.985	747.51
775.168	819.19
775.35	729.08
775.532	837.62
775.715	739.32
775.897	739.32
776.079	776.18
776.261	747.51
776.444	659.45
776.626	772.08
776.808	663.54
776.99	681.97
777.173	765.94
777.355	731.12
777.537	802.8
777.719	813.04
777.901	722.93
778.083	772.08
778.265	585.72
778.447	702.45
778.629	647.16
778.811	559.1
778.993	698.36
779.175	755.7
779.357	659.45
779.539	698.36
779.721	608.25
779.903	667.64
780.085	661.49
780.267	622.58
780.449	569.34
780.631	649.21
780.812	641.01
780.994	532.47
781.176	581.62
781.358	598.01
781.54	575.48
781.721	563.19
781.903	638.97
782.085	604.15
782.267	509.94
782.448	630.77
782.63	604.15
782.812	579.58
782.993	552.95
783.175	604.15
783.357	487.42
783.538	552.95
783.72	546.81
783.901	530.42
784.083	546.81
784.264	618.49
784.446	522.23
784.627	495.61
784.809	567.29
784.99	511.99
785.172	438.27
785.353	493.56
785.535	505.85
785.716	444.41
785.897	458.74
786.079	450.55
786.26	495.61
786.441	452.6
786.623	354.3
786.804	436.22
786.985	485.37
787.167	511.99
787.348	415.74
787.529	440.31
787.71	546.81
787.891	450.55
788.073	434.17
788.254	378.87
788.435	423.93
788.616	374.78
788.797	446.46
788.978	434.17
789.159	391.16
789.34	428.03
789.522	425.98
789.703	452.6
789.884	356.35
790.065	434.17
790.246	393.21
790.427	450.55
790.607	452.6
790.788	380.92
790.969	385.02
791.15	448.51
791.331	403.45
791.512	333.82
791.693	374.78
791.874	413.69
792.054	372.73
792.235	460.79
792.416	385.02
792.597	329.72
792.778	382.97
792.958	331.77
793.139	411.64
793.32	288.76
793.5	362.49
793.681	409.59
793.862	335.87
794.042	352.25
794.223	319.48
794.404	301.05
794.584	299
794.765	315.39
794.945	354.3
795.126	290.81
795.306	399.35
795.487	296.96
795.667	344.06
795.848	368.63
796.028	358.39
796.209	227.32
796.389	352.25
796.57	280.57
796.75	380.92
796.93	305.15
797.111	309.24
797.291	321.53
797.471	251.9
797.652	296.96
797.832	278.52
798.012	325.63
798.192	290.81
798.373	374.78
798.553	260.09
798.733	311.29
798.913	321.53
799.093	208.89
799.274	264.19
799.454	284.67
799.634	245.76
799.814	354.3
799.994	274.43
800.174	243.71
800.354	323.58
800.534	172.03
800.714	301.05
800.894	235.52
801.074	262.14
801.254	229.37
801.434	288.76
801.614	311.29
801.794	190.46
801.974	819.19
802.154	307.2
802.334	247.8
802.514	215.04
802.693	270.33
802.873	270.33
803.053	309.24
803.233	260.09
803.413	243.71
803.592	274.43
803.772	192.51
803.952	190.46
804.131	210.94
804.311	278.52
804.491	215.04
804.67	161.79
804.85	163.84
805.03	225.28
805.209	241.66
805.389	139.26
805.568	223.23
805.748	106.49
805.928	251.9
806.107	258.04
806.287	311.29
806.466	256
806.646	208.89
806.825	184.32
807.004	272.38
807.184	249.85
807.363	235.52
807.543	247.8
807.722	200.7
807.901	149.5
808.081	180.22
808.26	112.64
808.439	215.04
808.619	157.69
808.798	200.7
808.977	172.03
809.156	245.76
809.336	190.46
809.515	270.33
809.694	178.17
809.873	184.32
810.052	172.03
810.231	186.37
810.411	118.78
810.59	229.37
810.769	120.83
810.948	266.24
811.127	225.28
811.306	157.69
811.485	120.83
811.664	198.65
811.843	147.45
812.022	157.69
812.201	135.17
812.38	180.22
812.559	163.84
812.737	165.89
812.916	180.22
813.095	215.04
813.274	215.04
813.453	77.82
813.632	157.69
813.811	196.6
813.989	208.89
814.168	120.83
814.347	239.61
814.526	155.65
814.704	172.03
814.883	184.32
815.062	143.36
815.24	198.65
815.419	75.77
815.598	188.41
815.776	63.49
815.955	149.5
816.133	106.49
816.312	194.56
816.49	114.69
816.669	98.3
816.847	202.75
817.026	233.47
817.204	155.65
817.383	108.54
817.561	131.07
817.74	169.98
817.918	120.83
818.097	174.08
818.275	186.37
818.453	178.17
818.632	141.31
818.81	161.79
818.988	67.58
819.167	43.01
819.345	190.46
819.523	83.97
819.701	161.79
819.879	163.84
820.058	133.12
820.236	165.89
820.414	143.36
820.592	139.26
820.77	114.69
820.948	208.89
821.127	172.03
821.305	120.83
821.483	169.98
821.661	143.36
821.839	141.31
822.017	92.16
822.195	139.26
822.373	190.46
822.551	98.3
822.729	137.21
822.907	75.77
823.085	124.93
823.262	104.45
823.44	98.3
823.618	79.87
823.796	88.06
823.974	67.58
824.152	32.77
824.329	83.97
824.507	141.31
824.685	88.06
824.863	137.21
825.04	118.78
825.218	24.58
825.396	139.26
825.574	102.4
825.751	180.22
825.929	67.58
826.107	83.97
826.284	147.45
826.462	145.41
826.639	67.58
826.817	73.73
826.994	112.64
827.172	98.3
827.349	96.25
827.527	190.46
827.704	190.46
827.882	67.58
828.059	151.55
828.237	129.02
828.414	200.7
828.591	73.73
828.769	61.44
828.946	124.93
829.124	108.54
829.301	106.49
829.478	-2.05
829.655	120.83
829.833	79.87
830.01	157.69
830.187	90.11
830.364	106.49
830.542	104.45
830.719	120.83
830.896	157.69
831.073	149.5
831.25	178.17
831.427	67.58
831.604	131.07
831.782	57.34
831.959	120.83
832.136	81.92
832.313	118.78
832.49	49.15
832.667	110.59
832.844	120.83
833.021	112.64
833.198	131.07
833.374	10.24
833.551	104.45
833.728	100.35
833.905	126.97
834.082	2.05
834.259	10.24
834.436	133.12
834.612	75.77
834.789	79.87
834.966	163.84
835.143	67.58
835.319	98.3
835.496	65.53
835.673	131.07
835.85	112.64
836.026	116.73
836.203	53.25
836.38	55.3
836.556	51.2
836.733	55.3
836.909	90.11
837.086	81.92
837.262	65.53
837.439	88.06
837.616	86.01
837.792	71.68
837.968	57.34
838.145	-0
838.321	75.77
838.498	67.58
838.674	96.25
838.851	88.06
839.027	108.54
839.203	129.02
839.38	188.41
839.556	36.86
839.732	96.25
839.909	10.24
840.085	94.21
840.261	77.82
840.437	88.06
840.614	51.2
840.79	86.01
840.966	26.62
841.142	77.82
841.318	-0
841.494	94.21
841.671	94.21
841.847	40.96
842.023	6.14
842.199	34.82
842.375	114.69
842.551	71.68
842.727	14.34
842.903	163.84
843.079	43.01
843.255	139.26
843.431	8.19
843.607	100.35
843.783	67.58
843.959	104.45
844.134	45.06
844.31	90.11
844.486	112.64
844.662	24.58
844.838	131.07
845.013	137.21
845.189	83.97
845.365	83.97
845.541	45.06
845.716	26.62
845.892	-6.14
846.068	49.15
846.244	83.97
846.419	83.97
846.595	-43.01
846.77	47.1
846.946	110.59
847.122	47.1
847.297	55.3
847.473	86.01
847.648	10.24
847.824	2.05
847.999	8.19
848.175	75.77
848.35	49.15
848.526	106.49
848.701	16.38
848.876	163.84
849.052	8.19
849.227	59.39
849.403	20.48
849.578	69.63
849.753	59.39
849.929	61.44
850.104	73.73
850.279	71.68
850.454	65.53
850.63	71.68
850.805	26.62
850.98	116.73
851.155	-4.1
851.33	-28.67
851.505	-51.2
851.681	59.39
851.856	-30.72
852.031	106.49
852.206	-38.91
852.381	8.19
852.556	61.44
852.731	67.58
852.906	18.43
853.081	-6.14
853.256	34.82
853.431	22.53
853.606	53.25
853.781	43.01
853.956	-6.14
854.131	55.3
854.305	16.38
854.48	-6.14
854.655	59.39
854.83	-36.86
855.005	65.53
855.18	112.64
855.354	67.58
855.529	49.15
855.704	34.82
855.879	24.58
856.053	4.1
856.228	32.77
856.403	79.87
856.577	55.3
856.752	-24.58
856.926	45.06
857.101	40.96
857.276	38.91
857.45	45.06
857.625	28.67
857.799	81.92
857.974	26.62
858.148	-55.3
858.323	24.58
858.497	6.14
858.672	32.77
858.846	-10.24
859.02	106.49
859.195	-34.82
859.369	43.01
859.543	69.63
859.718	81.92
859.892	59.39
860.066	65.53
860.241	59.39
860.415	12.29
860.589	67.58
860.763	96.25
860.938	92.16
861.112	86.01
861.286	14.34
861.46	-16.38
861.634	77.82
861.808	59.39
861.982	92.16
862.157	-6.14
862.331	26.62
862.505	-26.62
862.679	8.19
862.853	-40.96
863.027	-55.3
863.201	55.3
863.375	55.3
863.549	4.1
863.722	-2.05
863.896	104.45
864.07	22.53
864.244	-40.96
864.418	98.3
864.592	22.53
864.766	2.05
864.939	40.96
865.113	14.34
865.287	61.44
865.461	8.19
865.634	40.96
865.808	-34.82
865.982	8.19
866.156	-45.06
866.329	51.2
866.503	108.54
866.676	45.06
866.85	34.82
867.024	49.15
867.197	26.62
867.371	49.15
867.544	-112.64
867.718	51.2
867.891	86.01
868.065	16.38
868.238	51.2
868.412	149.5
868.585	-10.24
868.759	18.43
868.932	38.91
869.105	-24.58
869.279	-6.14
869.452	53.25
869.625	6.14
869.799	14.34
869.972	26.62
870.145	8.19
870.319	-106.49
870.492	-4.1
870.665	40.96
870.838	22.53
871.011	26.62
871.185	55.3
871.358	-100.35
871.531	-22.53
871.704	-10.24
871.877	16.38
872.05	-6.14
872.223	-43.01
872.396	-0
872.569	-0
872.742	16.38
872.915	71.68
873.088	-38.91
873.261	-18.43
873.434	40.96
873.607	40.96
873.78	53.25
873.953	88.06
874.126	65.53
874.299	75.77
874.471	40.96
874.644	2.05
874.817	67.58
874.99	92.16
875.163	30.72
875.335	69.63
875.508	-0
875.681	36.86
875.853	63.49
876.026	18.43
876.199	45.06
876.371	-18.43
876.544	67.58
876.717	67.58
876.889	-26.62
877.062	122.88
877.234	6.14
877.407	-6.14
877.579	8.19
877.752	81.92
877.924	22.53
878.097	69.63
878.269	26.62
878.442	28.67
878.614	12.29
878.786	-0
878.959	96.25
879.131	10.24
879.303	32.77
879.476	67.58
879.648	-6.14
879.82	4.1
879.993	-65.54
880.165	-45.06
880.337	-81.92
880.509	-6.14
880.681	-16.38
880.854	18.43
881.026	59.39
881.198	28.67
881.37	61.44
881.542	75.77
881.714	-20.48
881.886	55.3
882.058	-16.38
882.23	-69.63
882.402	90.11
882.574	12.29
882.746	-16.38
882.918	57.34
883.09	14.34
883.262	-20.48
883.434	63.49
883.606	-32.77
883.778	6.14
883.95	40.96
884.122	-32.77
884.293	26.62
884.465	32.77
884.637	102.4
884.809	-4.1
884.98	59.39
885.152	-22.53
885.324	65.53
885.496	16.38
885.667	-2.05
885.839	38.91
886.011	4.1
886.182	-2.05
886.354	79.87
886.525	55.3
886.697	30.72
886.869	-22.53
887.04	18.43
887.212	36.86
887.383	18.43
887.555	26.62
887.726	63.49
887.897	-24.58
888.069	47.1
888.24	16.38
888.412	18.43
888.583	24.58
888.754	-38.91
888.926	83.97
889.097	18.43
889.268	6.14
889.44	26.62
889.611	69.63
889.782	47.1
889.953	30.72
890.125	-26.62
890.296	47.1
890.467	49.15
890.638	75.77
890.809	8.19
890.98	30.72
891.151	28.67
891.323	34.82
891.494	49.15
891.665	55.3
891.836	40.96
892.007	18.43
892.178	2.05
892.349	-47.1
892.52	49.15
892.691	-45.06
892.862	45.06
893.032	45.06
893.203	43.01
893.374	43.01
893.545	83.97
893.716	47.1
893.887	67.58
894.057	-24.58
894.228	2.05
894.399	-38.91
894.57	16.38
894.74	108.54
894.911	-55.3
895.082	8.19
895.253	-8.19
895.423	32.77
895.594	18.43
895.764	32.77
895.935	-6.14
896.106	51.2
896.276	51.2
896.447	-43.01
896.617	28.67
896.788	2.05
896.958	-18.43
897.129	26.62
897.299	-12.29
897.47	51.2
897.64	-30.72
897.81	43.01
897.981	59.39
898.151	-34.82
898.322	-28.67
898.492	-20.48
898.662	34.82
898.832	-43.01
899.003	32.77
899.173	14.34
899.343	22.53
899.513	-24.58
