Data from USB4F104151__127__10-25-21-573.txt Node

Date: Wed Mar 12 10:25:21 EDT 2025
User: louis
Spectrometer: USB4F10415
Trigger mode: 4
Integration Time (sec): 3.000000E-2
Scans to average: 1
Electric dark correction enabled: true
Nonlinearity correction enabled: false
Boxcar width: 0
XAxis mode: Wavelengths
Number of Pixels in Spectrum: 3648
>>>>>Begin Spectral Data<<<<<
178.204	-111.61
178.424	-111.61
178.644	-111.61
178.864	-166.91
179.084	-64.51
179.304	-3.07
179.524	-1.02
179.744	17.41
179.964	33.79
180.184	-37.89
180.404	15.36
180.624	33.79
180.844	25.6
181.064	-68.61
181.283	33.79
181.503	-37.89
181.723	-11.26
181.943	-50.18
182.163	54.27
182.383	-19.46
182.602	62.46
182.822	-5.12
183.042	39.94
183.262	19.46
183.482	-3.07
183.701	52.22
183.921	9.22
184.141	54.27
184.361	-5.12
184.58	50.18
184.8	21.5
185.02	21.5
185.239	91.13
185.459	41.98
185.679	107.52
185.898	13.31
186.118	31.74
186.338	13.31
186.557	80.89
186.777	82.94
186.997	15.36
187.216	7.17
187.436	109.57
187.655	74.75
187.875	64.51
188.095	-31.74
188.314	35.84
188.534	119.81
188.753	-56.32
188.973	39.94
189.192	37.89
189.412	29.7
189.631	-21.5
189.851	-11.26
190.07	58.37
190.29	46.08
190.509	64.51
190.729	78.85
190.948	27.65
191.168	95.23
191.387	19.46
191.607	13.31
191.826	17.41
192.045	17.41
192.265	13.31
192.484	11.26
192.704	-11.26
192.923	-7.17
193.142	29.7
193.362	52.22
193.581	48.13
193.8	54.27
194.02	68.61
194.239	-31.74
194.458	56.32
194.678	-31.74
194.897	21.5
195.116	-44.03
195.335	58.37
195.555	9.22
195.774	87.04
195.993	33.79
196.212	29.7
196.432	56.32
196.651	3.07
196.87	-15.36
197.089	68.61
197.308	-7.17
197.528	29.7
197.747	46.08
197.966	-23.55
198.185	107.52
198.404	70.65
198.623	-17.41
198.842	19.46
199.062	29.7
199.281	82.94
199.5	13.31
199.719	-11.26
199.938	62.46
200.157	17.41
200.376	95.23
200.595	70.65
200.814	68.61
201.033	13.31
201.252	72.7
201.471	48.13
201.69	21.5
201.909	44.03
202.128	11.26
202.347	82.94
202.566	78.85
202.785	-13.31
203.004	13.31
203.223	95.23
203.442	60.42
203.661	29.7
203.879	48.13
204.098	44.03
204.317	-76.8
204.536	70.65
204.755	-1.02
204.974	39.94
205.193	91.13
205.411	87.04
205.63	29.7
205.849	103.42
206.068	19.46
206.287	35.84
206.505	48.13
206.724	46.08
206.943	-44.03
207.162	5.12
207.381	74.75
207.599	-5.12
207.818	17.41
208.037	13.31
208.255	13.31
208.474	21.5
208.693	44.03
208.911	17.41
209.13	25.6
209.349	-11.26
209.567	76.8
209.786	60.42
210.005	37.89
210.223	13.31
210.442	-99.33
210.661	39.94
210.879	-25.6
211.098	82.94
211.316	13.31
211.535	-31.74
211.753	9.22
211.972	44.03
212.191	48.13
212.409	84.99
212.628	41.98
212.846	-11.26
213.065	54.27
213.283	5.12
213.502	21.5
213.72	-52.22
213.938	19.46
214.157	48.13
214.375	-37.89
214.594	-29.7
214.812	13.31
215.031	46.08
215.249	25.6
215.467	29.7
215.686	-5.12
215.904	9.22
216.122	107.52
216.341	21.5
216.559	44.03
216.778	35.84
216.996	21.5
217.214	37.89
217.432	33.79
217.651	9.22
217.869	74.75
218.087	44.03
218.306	-1.02
218.524	13.31
218.742	-3.07
218.96	41.98
219.179	11.26
219.397	-5.12
219.615	109.57
219.833	87.04
220.051	50.18
220.27	156.67
220.488	35.84
220.706	78.85
220.924	41.98
221.142	54.27
221.36	-13.31
221.578	87.04
221.796	-56.32
222.015	11.26
222.233	44.03
222.451	41.98
222.669	-7.17
222.887	19.46
223.105	13.31
223.323	15.36
223.541	1.02
223.759	21.5
223.977	29.7
224.195	11.26
224.413	-11.26
224.631	91.13
224.849	21.5
225.067	101.37
225.285	-11.26
225.503	50.18
225.721	1.02
225.939	19.46
226.157	27.65
226.375	60.42
226.592	-11.26
226.81	13.31
227.028	44.03
227.246	54.27
227.464	-23.55
227.682	5.12
227.9	35.84
228.117	54.27
228.335	58.37
228.553	35.84
228.771	44.03
228.989	107.52
229.206	39.94
229.424	11.26
229.642	107.52
229.86	35.84
230.077	-27.65
230.295	62.46
230.513	41.98
230.731	29.7
230.948	70.65
231.166	113.66
231.384	9.22
231.601	-11.26
231.819	52.22
232.037	11.26
232.254	101.37
232.472	5.12
232.689	21.5
232.907	23.55
233.125	105.47
233.342	-44.03
233.56	31.74
233.777	1.02
233.995	-13.31
234.213	156.67
234.43	11.26
234.648	-15.36
234.865	-15.36
235.083	25.6
235.3	41.98
235.518	21.5
235.735	60.42
235.953	44.03
236.17	11.26
236.388	80.89
236.605	11.26
236.822	46.08
237.04	3.07
237.257	84.99
237.475	11.26
237.692	-15.36
237.909	21.5
238.127	37.89
238.344	-15.36
238.562	35.84
238.779	11.26
238.996	44.03
239.214	101.37
239.431	31.74
239.648	25.6
239.865	29.7
240.083	56.32
240.3	68.61
240.517	72.7
240.735	15.36
240.952	115.71
241.169	87.04
241.386	29.7
241.603	-13.31
241.821	1.02
242.038	37.89
242.255	35.84
242.472	-23.55
242.689	60.42
242.907	46.08
243.124	5.12
243.341	27.65
243.558	39.94
243.775	-3.07
243.992	11.26
244.209	29.7
244.426	119.81
244.643	11.26
244.86	15.36
245.078	3.07
245.295	80.89
245.512	37.89
245.729	5.12
245.946	23.55
246.163	-9.22
246.38	3.07
246.597	35.84
246.814	-56.32
247.031	3.07
247.248	54.27
247.464	121.85
247.681	66.56
247.898	41.98
248.115	19.46
248.332	41.98
248.549	29.7
248.766	50.18
248.983	121.85
249.2	35.84
249.417	128
249.633	66.56
249.85	-17.41
250.067	70.65
250.284	-5.12
250.501	60.42
250.717	37.89
250.934	87.04
251.151	3.07
251.368	-11.26
251.585	29.7
251.801	1.02
252.018	-46.08
252.235	60.42
252.451	66.56
252.668	56.32
252.885	74.75
253.102	-52.22
253.318	60.42
253.535	31.74
253.752	-1.02
253.968	52.22
254.185	-23.55
254.401	-27.65
254.618	15.36
254.835	3.07
255.051	50.18
255.268	91.13
255.484	46.08
255.701	-41.98
255.917	50.18
256.134	23.55
256.351	17.41
256.567	7.17
256.784	-1.02
257	44.03
257.217	62.46
257.433	25.6
257.65	41.98
257.866	39.94
258.082	-25.6
258.299	48.13
258.515	31.74
258.732	74.75
258.948	70.65
259.165	29.7
259.381	54.27
259.597	11.26
259.814	66.56
260.03	58.37
260.246	-19.46
260.463	50.18
260.679	97.28
260.895	-87.04
261.112	111.61
261.328	-19.46
261.544	-41.98
261.761	76.8
261.977	25.6
262.193	-5.12
262.409	105.47
262.626	21.5
262.842	37.89
263.058	72.7
263.274	9.22
263.49	5.12
263.707	99.33
263.923	21.5
264.139	5.12
264.355	97.28
264.571	103.42
264.787	76.8
265.004	25.6
265.22	37.89
265.436	35.84
265.652	39.94
265.868	70.65
266.084	27.65
266.3	58.37
266.516	3.07
266.732	-27.65
266.948	-35.84
267.164	46.08
267.38	5.12
267.596	11.26
267.812	-11.26
268.028	66.56
268.244	19.46
268.46	41.98
268.676	-7.17
268.892	56.32
269.108	7.17
269.324	-1.02
269.54	23.55
269.756	-11.26
269.972	21.5
270.188	50.18
270.403	-1.02
270.619	103.42
270.835	-5.12
271.051	-3.07
271.267	82.94
271.483	5.12
271.698	35.84
271.914	29.7
272.13	33.79
272.346	13.31
272.562	103.42
272.777	52.22
272.993	62.46
273.209	-37.89
273.425	21.5
273.64	3.07
273.856	17.41
274.072	78.85
274.287	-44.03
274.503	33.79
274.719	-11.26
274.934	29.7
275.15	-11.26
275.366	66.56
275.581	41.98
275.797	25.6
276.012	80.89
276.228	52.22
276.444	72.7
276.659	13.31
276.875	-7.17
277.09	72.7
277.306	13.31
277.521	56.32
277.737	27.65
277.952	99.33
278.168	82.94
278.383	-11.26
278.599	35.84
278.814	101.37
279.03	64.51
279.245	15.36
279.461	-31.74
279.676	74.75
279.892	17.41
280.107	3.07
280.322	-3.07
280.538	95.23
280.753	44.03
280.969	72.7
281.184	17.41
281.399	117.76
281.615	66.56
281.83	99.33
282.045	7.17
282.26	-3.07
282.476	7.17
282.691	54.27
282.906	35.84
283.122	89.09
283.337	78.85
283.552	-31.74
283.767	44.03
283.983	44.03
284.198	5.12
284.413	52.22
284.628	39.94
284.843	-7.17
285.058	-11.26
285.274	64.51
285.489	-3.07
285.704	136.19
285.919	25.6
286.134	76.8
286.349	-9.22
286.564	82.94
286.779	103.42
286.995	-1.02
287.21	13.31
287.425	62.46
287.64	9.22
287.855	107.52
288.07	-1.02
288.285	35.84
288.5	70.65
288.715	101.37
288.93	50.18
289.145	17.41
289.36	41.98
289.575	70.65
289.79	15.36
290.004	68.61
290.219	-9.22
290.434	25.6
290.649	19.46
290.864	35.84
291.079	41.98
291.294	48.13
291.509	13.31
291.724	13.31
291.938	7.17
292.153	19.46
292.368	37.89
292.583	74.75
292.798	52.22
293.012	84.99
293.227	54.27
293.442	3.07
293.657	125.95
293.871	21.5
294.086	89.09
294.301	93.18
294.516	70.65
294.73	-7.17
294.945	-11.26
295.16	-84.99
295.374	37.89
295.589	107.52
295.804	33.79
296.018	109.57
296.233	-7.17
296.447	44.03
296.662	-27.65
296.877	95.23
297.091	-44.03
297.306	-1.02
297.52	27.65
297.735	87.04
297.949	3.07
298.164	46.08
298.378	23.55
298.593	41.98
298.807	19.46
299.022	58.37
299.236	37.89
299.451	52.22
299.665	87.04
299.88	41.98
300.094	48.13
300.309	103.42
300.523	39.94
300.737	-23.55
300.952	7.17
301.166	7.17
301.381	13.31
301.595	25.6
301.809	-48.13
302.024	44.03
302.238	68.61
302.452	54.27
302.667	66.56
302.881	74.75
303.095	58.37
303.309	-5.12
303.524	33.79
303.738	31.74
303.952	44.03
304.166	68.61
304.381	-3.07
304.595	87.04
304.809	68.61
305.023	52.22
305.237	48.13
305.452	50.18
305.666	72.7
305.88	119.81
306.094	76.8
306.308	-27.65
306.522	29.7
306.736	62.46
306.95	111.61
307.164	54.27
307.379	29.7
307.593	76.8
307.807	119.81
308.021	119.81
308.235	23.55
308.449	-29.7
308.663	-3.07
308.877	68.61
309.091	134.14
309.305	37.89
309.519	-19.46
309.733	62.46
309.947	-31.74
310.161	54.27
310.374	21.5
310.588	52.22
310.802	15.36
311.016	62.46
311.23	60.42
311.444	-7.17
311.658	58.37
311.872	21.5
312.085	70.65
312.299	70.65
312.513	39.94
312.727	58.37
312.941	13.31
313.154	41.98
313.368	84.99
313.582	5.12
313.796	37.89
314.009	37.89
314.223	-3.07
314.437	-1.02
314.651	62.46
314.864	13.31
315.078	3.07
315.292	44.03
315.505	-19.46
315.719	136.19
315.933	56.32
316.146	-44.03
316.36	29.7
316.573	103.42
316.787	74.75
317.001	82.94
317.214	-27.65
317.428	23.55
317.641	-44.03
317.855	21.5
318.068	103.42
318.282	-3.07
318.495	74.75
318.709	1.02
318.922	41.98
319.136	1.02
319.349	101.37
319.563	41.98
319.776	52.22
319.99	-15.36
320.203	46.08
320.417	44.03
320.63	17.41
320.843	107.52
321.057	17.41
321.27	1.02
321.483	29.7
321.697	117.76
321.91	105.47
322.124	31.74
322.337	103.42
322.55	15.36
322.763	-11.26
322.977	-46.08
323.19	-7.17
323.403	33.79
323.617	70.65
323.83	31.74
324.043	46.08
324.256	70.65
324.469	-46.08
324.683	58.37
324.896	50.18
325.109	66.56
325.322	37.89
325.535	107.52
325.748	107.52
325.962	78.85
326.175	60.42
326.388	66.56
326.601	52.22
326.814	87.04
327.027	29.7
327.24	115.71
327.453	33.79
327.666	31.74
327.879	60.42
328.092	52.22
328.305	46.08
328.518	3.07
328.731	48.13
328.944	-39.94
329.157	121.85
329.37	46.08
329.583	50.18
329.796	80.89
330.009	-39.94
330.222	105.47
330.435	-15.36
330.648	-21.5
330.861	93.18
331.073	7.17
331.286	56.32
331.499	46.08
331.712	62.46
331.925	80.89
332.138	27.65
332.35	115.71
332.563	17.41
332.776	54.27
332.989	-11.26
333.202	-7.17
333.414	37.89
333.627	-13.31
333.84	109.57
334.053	29.7
334.265	-19.46
334.478	103.42
334.691	37.89
334.903	19.46
335.116	33.79
335.329	62.46
335.541	117.76
335.754	13.31
335.966	13.31
336.179	9.22
336.392	23.55
336.604	68.61
336.817	97.28
337.029	37.89
337.242	91.13
337.454	9.22
337.667	3.07
337.88	25.6
338.092	37.89
338.305	56.32
338.517	19.46
338.729	29.7
338.942	95.23
339.154	37.89
339.367	68.61
339.579	35.84
339.792	-7.17
340.004	46.08
340.217	-31.74
340.429	37.89
340.641	39.94
340.854	35.84
341.066	72.7
341.278	29.7
341.491	105.47
341.703	91.13
341.915	58.37
342.128	66.56
342.34	109.57
342.552	37.89
342.764	50.18
342.977	17.41
343.189	80.89
343.401	56.32
343.613	3.07
343.826	119.81
344.038	78.85
344.25	41.98
344.462	-11.26
344.674	50.18
344.886	27.65
345.099	15.36
345.311	54.27
345.523	111.61
345.735	21.5
345.947	37.89
346.159	25.6
346.371	74.75
346.583	66.56
346.795	121.85
347.007	-3.07
347.219	70.65
347.431	-25.6
347.643	37.89
347.855	74.75
348.067	58.37
348.279	3.07
348.491	68.61
348.703	54.27
348.915	50.18
349.127	70.65
349.339	74.75
349.551	72.7
349.763	5.12
349.975	-7.17
350.187	115.71
350.399	95.23
350.61	29.7
350.822	5.12
351.034	19.46
351.246	74.75
351.458	107.52
351.669	70.65
351.881	3.07
352.093	99.33
352.305	68.61
352.517	62.46
352.728	132.09
352.94	-11.26
353.152	50.18
353.363	46.08
353.575	46.08
353.787	9.22
353.999	-9.22
354.21	89.09
354.422	99.33
354.633	17.41
354.845	37.89
355.057	66.56
355.268	33.79
355.48	70.65
355.692	87.04
355.903	41.98
356.115	101.37
356.326	-11.26
356.538	48.13
356.749	74.75
356.961	60.42
357.172	-62.46
357.384	54.27
357.595	136.19
357.807	13.31
358.018	-21.5
358.23	31.74
358.441	19.46
358.653	66.56
358.864	107.52
359.075	44.03
359.287	121.85
359.498	130.05
359.709	72.7
359.921	5.12
360.132	52.22
360.344	82.94
360.555	74.75
360.766	54.27
360.977	31.74
361.189	41.98
361.4	39.94
361.611	144.38
361.823	25.6
362.034	87.04
362.245	27.65
362.456	97.28
362.667	54.27
362.879	33.79
363.09	64.51
363.301	17.41
363.512	95.23
363.723	41.98
363.935	44.03
364.146	29.7
364.357	72.7
364.568	64.51
364.779	56.32
364.99	54.27
365.201	7.17
365.412	33.79
365.623	29.7
365.834	27.65
366.045	97.28
366.256	97.28
366.467	62.46
366.678	54.27
366.889	17.41
367.1	37.89
367.311	99.33
367.522	74.75
367.733	72.7
367.944	60.42
368.155	-17.41
368.366	41.98
368.577	82.94
368.788	37.89
368.999	-15.36
369.209	138.24
369.42	87.04
369.631	99.33
369.842	74.75
370.053	19.46
370.264	-3.07
370.474	1.02
370.685	84.99
370.896	37.89
371.107	144.38
371.317	23.55
371.528	50.18
371.739	91.13
371.95	19.46
372.16	1.02
372.371	37.89
372.582	35.84
372.792	95.23
373.003	87.04
373.214	84.99
373.424	117.76
373.635	33.79
373.846	60.42
374.056	58.37
374.267	82.94
374.477	44.03
374.688	5.12
374.898	95.23
375.109	-1.02
375.319	56.32
375.53	91.13
375.74	37.89
375.951	62.46
376.161	-19.46
376.372	78.85
376.582	44.03
376.793	39.94
377.003	3.07
377.214	87.04
377.424	78.85
377.635	21.5
377.845	37.89
378.055	60.42
378.266	62.46
378.476	128
378.686	109.57
378.897	91.13
379.107	97.28
379.317	54.27
379.528	50.18
379.738	134.14
379.948	-3.07
380.158	128
380.369	-13.31
380.579	99.33
380.789	101.37
380.999	99.33
381.21	70.65
381.42	160.77
381.63	-50.18
381.84	78.85
382.05	78.85
382.261	58.37
382.471	72.7
382.681	11.26
382.891	82.94
383.101	58.37
383.311	68.61
383.521	33.79
383.731	89.09
383.941	132.09
384.151	132.09
384.361	19.46
384.571	109.57
384.781	113.66
384.991	68.61
385.201	128
385.411	54.27
385.621	25.6
385.831	103.42
386.041	9.22
386.251	21.5
386.461	91.13
386.671	54.27
386.881	50.18
387.091	74.75
387.301	111.61
387.511	91.13
387.72	130.05
387.93	164.86
388.14	107.52
388.35	50.18
388.56	27.65
388.769	117.76
388.979	64.51
389.189	144.38
389.399	35.84
389.609	76.8
389.818	60.42
390.028	62.46
390.238	74.75
390.447	27.65
390.657	91.13
390.867	78.85
391.076	95.23
391.286	76.8
391.496	3.07
391.705	91.13
391.915	109.57
392.125	62.46
392.334	158.72
392.544	31.74
392.753	82.94
392.963	95.23
393.172	154.62
393.382	82.94
393.591	160.77
393.801	80.89
394.01	58.37
394.22	117.76
394.429	101.37
394.639	87.04
394.848	218.11
395.058	60.42
395.267	107.52
395.477	54.27
395.686	87.04
395.895	11.26
396.105	191.49
396.314	164.86
396.524	107.52
396.733	54.27
396.942	146.43
397.152	64.51
397.361	62.46
397.57	119.81
397.78	195.58
397.989	119.81
398.198	179.2
398.407	82.94
398.617	105.47
398.826	150.53
399.035	78.85
399.244	128
399.453	103.42
399.663	115.71
399.872	105.47
400.081	193.53
400.29	119.81
400.499	136.19
400.708	152.57
400.917	82.94
401.127	171.01
401.336	111.61
401.545	160.77
401.754	103.42
401.963	148.48
402.172	179.2
402.381	164.86
402.59	140.29
402.799	156.67
403.008	125.95
403.217	164.86
403.426	84.99
403.635	132.09
403.844	160.77
404.053	201.72
404.262	123.9
404.471	166.91
404.68	220.16
404.888	125.95
405.097	201.72
405.306	179.2
405.515	205.82
405.724	199.68
405.933	193.53
406.142	216.06
406.35	224.25
406.559	238.59
406.768	265.21
406.977	234.49
407.185	220.16
407.394	351.23
407.603	242.68
407.812	246.78
408.02	263.16
408.229	265.21
408.438	289.79
408.646	300.03
408.855	216.06
409.064	316.41
409.272	287.74
409.481	336.89
409.69	271.36
409.898	435.19
410.107	357.37
410.315	365.56
410.524	375.8
410.733	373.75
410.941	416.76
411.15	470.01
411.358	373.75
411.567	506.87
411.775	457.72
411.984	527.35
412.192	513.02
412.401	486.39
412.609	611.32
412.818	633.85
413.026	541.69
413.234	642.04
413.443	611.32
413.651	670.71
413.86	775.16
414.068	707.57
414.276	705.53
414.485	726
414.693	754.68
414.901	840.69
415.11	863.22
415.318	824.31
415.526	820.21
415.734	822.26
415.943	898.03
416.151	1002.48
416.359	977.91
416.567	947.19
416.776	1111.02
416.984	1094.64
417.192	1147.89
417.4	1119.21
417.608	1227.76
417.817	1211.37
418.025	1242.09
418.233	1369.07
418.441	1336.3
418.649	1420.27
418.857	1528.81
419.065	1600.49
419.273	1537
419.481	1545.19
419.689	1637.35
419.897	1782.76
420.105	1842.15
420.313	1815.52
420.521	1827.81
420.729	1958.88
420.937	1962.98
421.145	2139.1
421.353	2175.97
421.561	2251.74
421.769	2339.8
421.977	2378.72
422.185	2393.05
422.393	2667.48
422.601	2755.54
422.809	2616.28
423.017	2769.88
423.224	2909.14
423.432	2882.52
423.64	2970.58
423.848	3273.68
424.056	3075.03
424.263	3345.36
424.471	3437.52
424.679	3496.91
424.887	3615.69
425.094	3750.85
425.302	3879.88
425.51	3890.12
425.718	3947.46
425.925	4256.7
426.133	4213.7
426.341	4461.5
426.548	4617.15
426.756	4740.02
426.964	4787.13
427.171	5090.23
427.379	5133.23
427.586	5194.67
427.794	5485.48
428.001	5602.22
428.209	5899.17
428.417	5792.68
428.624	6226.85
428.832	6153.12
429.039	6235.04
429.247	6134.69
429.454	6675.35
429.662	7142.29
429.869	6855.58
430.076	7351.18
430.284	7203.73
430.491	7271.31
430.699	7730.06
430.906	7844.74
431.114	8090.5
431.321	8121.22
431.528	8399.74
431.736	8768.38
431.943	9206.64
432.15	8958.84
432.358	9026.42
432.565	9657.2
432.772	9433.97
432.979	9958.25
433.187	10267.49
433.394	10175.33
433.601	10824.54
433.808	10937.18
434.016	10814.3
434.223	11440.98
434.43	11957.07
434.637	11836.24
434.844	12600.13
435.052	12632.9
435.259	12409.67
435.466	12874.56
435.673	12772.16
435.88	13511.47
436.087	14109.48
436.294	14168.87
436.501	13816.62
436.708	14177.06
436.915	14707.49
437.122	15225.62
437.329	15215.38
437.537	15565.59
437.743	16075.53
437.95	15858.45
438.157	16679.68
438.364	17289.98
438.571	16990.97
438.778	17476.34
438.985	18825.95
439.192	18117.36
439.399	18766.56
439.606	18281.19
439.813	19639
440.02	20474.57
440.227	20398.79
440.433	20067.02
440.64	20574.92
440.847	20699.84
441.054	21127.87
441.261	22184.62
441.467	22096.56
441.674	22497.96
441.881	23364.25
442.088	23171.74
442.294	23184.03
442.501	24087.18
442.708	24066.7
442.914	24877.7
443.121	26141.3
443.328	25254.53
443.534	27359.84
443.741	26509.93
443.948	25991.8
444.154	27963.99
444.361	27816.54
444.568	28136.02
444.774	27961.94
444.981	28250.7
445.187	29305.41
445.394	30335.54
445.6	29725.24
445.807	32741.9
446.013	31162.92
446.22	32049.69
446.426	33014.28
446.633	33079.82
446.839	34392.56
447.046	32762.38
447.252	34912.75
447.459	34925.04
447.665	34564.59
447.871	36372.95
448.078	37571.01
448.284	36063.71
448.491	36813.26
448.697	38291.9
448.903	39053.74
449.11	39084.46
449.316	38136.25
449.522	39123.37
449.728	40057.24
449.935	40188.31
450.141	40161.69
450.347	41480.58
450.553	39825.82
450.76	40202.65
450.966	41531.78
451.172	41197.96
451.378	42137.98
451.584	41286.03
451.791	42058.11
451.997	42338.68
452.203	42432.89
452.409	42375.55
452.615	42490.23
452.821	40683.92
453.027	40239.51
453.233	42273.15
453.44	40593.81
453.646	41478.54
453.852	41453.96
454.058	41949.57
454.264	40679.83
454.47	41419.14
454.676	40716.69
454.882	41922.94
455.088	38242.74
455.294	38578.61
455.5	39334.31
455.705	39582.12
455.911	37876.16
456.117	37165.51
456.323	36626.9
456.529	34701.81
456.735	36561.36
456.941	35256.81
457.147	34920.94
457.352	33751.55
457.558	33552.9
457.764	33206.79
457.97	32746
458.176	32051.73
458.381	32135.7
458.587	30550.57
458.793	30644.78
458.999	29135.43
459.204	31089.19
459.41	30323.25
459.616	27968.09
459.821	27777.62
460.027	28088.92
460.233	27615.83
460.438	25973.36
460.644	26323.57
460.85	25377.4
461.055	25156.22
461.261	24683.14
461.466	23069.34
461.672	22391.47
461.878	24064.66
462.083	22201.01
462.289	21828.27
462.494	21686.97
462.7	20583.11
462.905	20079.31
463.111	21043.9
463.316	20873.92
463.522	20495.05
463.727	20437.7
463.932	20423.37
464.138	20507.34
464.343	20546.25
464.549	20052.69
464.754	20462.28
464.959	20161.23
465.165	20142.8
465.37	19352.28
465.575	19282.65
465.781	19364.57
465.986	19811.03
466.191	18969.31
466.397	18713.31
466.602	17730.29
466.807	18377.45
467.012	18330.34
467.218	18127.6
467.423	17830.64
467.628	18078.44
467.833	18776.8
468.038	18125.55
468.244	17824.5
468.449	18158.31
468.654	17883.89
468.859	17646.32
469.064	17300.22
469.269	16988.92
469.474	16831.23
469.679	17353.46
469.885	16567.04
470.09	16710.4
470.295	16685.83
470.5	16296.71
470.705	16556.8
470.91	16032.52
471.115	15946.51
471.32	16118.54
471.525	16106.25
471.73	15799.05
471.935	15878.93
472.139	15119.13
472.344	15422.23
472.549	15461.14
472.754	15055.64
472.959	15059.74
473.164	14629.66
473.369	14271.27
473.574	14742.3
473.778	14586.66
473.983	14838.56
474.188	14498.59
474.393	13751.09
474.598	14037.8
474.802	13810.48
475.007	13716.27
475.212	13749.04
475.417	13110.07
475.621	13071.16
475.826	13239.09
476.031	12636.99
476.235	12647.23
476.44	12815.16
476.645	12571.46
476.849	12673.85
477.054	12579.65
477.259	12165.96
477.463	12125
477.668	11971.4
477.872	12063.56
478.077	12006.22
478.282	11629.39
478.486	11504.46
478.691	11406.16
478.895	11252.56
479.1	11459.41
479.304	11318.1
479.509	11049.82
479.713	11357.01
479.918	11113.3
480.122	10894.17
480.326	11131.73
480.531	11236.18
480.735	10959.7
480.94	11035.48
481.144	11187.03
481.348	10652.51
481.553	10687.32
481.757	10543.97
481.961	10697.56
482.166	10836.83
482.37	10883.93
482.574	10515.3
482.778	10548.06
482.983	10728.28
483.187	10625.89
483.391	10836.83
483.595	10402.66
483.8	10503.01
484.004	10453.86
484.208	10570.59
484.412	10525.54
484.616	10689.37
484.821	10679.13
485.025	10476.38
485.229	10806.11
485.433	10607.45
485.637	10593.12
485.841	10433.38
486.045	10267.49
486.249	10724.19
486.453	10347.36
486.657	10752.86
486.861	10488.67
487.065	10261.35
487.269	10586.97
487.473	10310.5
487.677	10632.03
487.881	10697.56
488.085	10550.11
488.289	10812.25
488.493	10523.49
488.697	10691.42
488.901	10820.44
489.105	10658.65
489.309	10584.93
489.512	10906.46
489.716	10740.57
489.92	10756.96
490.124	10685.28
490.328	10799.96
490.531	10980.18
490.735	10859.35
490.939	10969.94
491.143	11035.48
491.346	10892.12
491.55	10939.23
491.754	11121.49
491.958	11121.49
492.161	10928.99
492.365	11221.84
492.569	11275.09
492.772	11340.63
492.976	11395.92
493.18	11475.79
493.383	11570
493.587	11606.86
493.79	11643.73
493.994	11490.13
494.197	11656.01
494.401	11729.74
494.605	11821.9
494.808	11977.55
495.012	11903.82
495.215	11733.84
495.419	12213.06
495.622	12143.43
495.825	12493.63
496.029	12163.91
496.232	12792.64
496.436	12669.76
496.639	12929.85
496.843	12749.63
497.046	13116.22
497.249	13202.23
497.453	13402.93
497.656	13419.32
497.859	13341.49
498.063	13824.81
498.266	13828.91
498.469	13949.74
498.673	13919.02
498.876	14224.17
499.079	14463.78
499.282	14414.63
499.485	14566.18
499.689	14797.6
499.892	15211.29
500.095	15201.05
500.298	15473.43
500.501	15055.64
500.705	15776.53
500.908	16116.49
501.111	15938.32
501.314	16030.48
501.517	16395.01
501.72	16335.62
501.923	16354.05
502.126	16911.1
502.329	16904.96
502.532	17138.43
502.735	17066.75
502.938	17529.59
503.141	17728.24
503.344	18086.64
503.547	17873.65
503.75	17906.41
503.953	18232.04
504.156	18950.88
504.359	19040.99
504.562	18914.02
504.765	19423.96
504.968	19434.2
505.17	19831.51
505.373	19737.3
505.576	20177.61
505.779	20339.4
505.982	20550.34
506.185	20609.73
506.387	20792
506.59	21115.58
506.793	21551.8
506.996	21529.27
507.198	21992.11
507.401	21975.73
507.604	22399.66
507.807	22751.91
508.009	22715.05
508.212	23014.05
508.415	23161.5
508.617	23384.73
508.82	23796.37
509.022	23546.52
509.225	24345.23
509.428	24500.87
509.63	24599.18
509.833	24713.86
510.035	25365.12
510.238	25197.18
510.44	25676.41
510.643	26057.33
510.845	26077.81
511.048	26229.36
511.25	26342
511.453	26884.71
511.655	27652.7
511.858	27322.98
512.06	27515.48
512.262	27748.95
512.465	27968.09
512.667	28346.96
512.87	29145.67
513.072	28586.57
513.274	29323.84
513.477	29766.2
513.679	29702.71
513.881	29979.19
514.084	30507.57
514.286	30452.27
514.488	30517.81
514.69	31920.66
514.893	31423.01
515.095	31722.01
515.297	32051.73
515.499	31998.49
515.701	32590.35
515.904	33063.43
516.106	33049.1
516.308	33212.93
516.51	33759.74
516.712	33651.2
516.914	34032.12
517.116	34968.04
517.318	34693.61
517.52	34937.32
517.722	35535.33
517.925	35957.21
518.127	36479.44
518.329	36684.24
518.531	36506.07
518.733	36948.43
518.935	37251.53
519.136	37468.61
519.338	37646.79
519.54	38220.22
519.742	38345.14
519.944	38666.67
520.146	38969.77
520.348	39410.09
520.55	39625.12
520.752	39862.69
520.954	40548.76
521.155	40051.1
521.357	40921.49
521.559	40976.78
521.761	41781.63
521.963	41933.18
522.164	41752.96
522.366	41984.38
522.568	42416.5
522.77	42695.03
522.971	43721.06
523.173	43037.04
523.375	43336.04
523.576	43409.77
523.778	43381.1
523.98	44405.08
524.181	44357.98
524.383	44669.27
524.584	44962.13
524.786	45267.28
524.988	45078.86
525.189	46137.66
525.391	45644.1
525.592	46426.43
525.794	46039.36
525.995	46516.54
526.197	46422.33
526.398	47145.26
526.6	47108.4
526.801	47040.82
527.003	47069.49
527.204	47456.56
527.406	47849.77
527.607	47919.4
527.808	48161.06
528.01	47423.79
528.211	48152.87
528.412	48716.06
528.614	48826.65
528.815	48568.6
529.016	49502.48
529.218	48865.56
529.419	49373.45
529.62	49199.38
529.822	49219.86
530.023	49432.85
530.224	49418.51
530.425	49383.69
530.626	49248.53
530.828	48922.9
531.029	50116.87
531.23	49449.23
531.431	49924.36
531.632	50252.03
531.833	50477.31
532.035	50202.88
532.236	50305.28
532.437	50329.86
532.638	50073.86
532.839	50641.15
533.04	50680.06
533.241	50043.14
533.442	50673.91
533.643	51116.28
533.844	51294.45
534.045	51032.31
534.246	50264.32
534.447	50899.19
534.648	50428.16
534.849	50839.8
535.05	51009.78
535.251	51038.45
535.451	50551.04
535.652	51095.8
535.853	50923.77
536.054	50964.73
536.255	51132.66
536.456	50796.79
536.657	51710.19
536.857	51222.77
537.058	50731.26
537.259	51271.92
537.46	51183.86
537.66	50792.7
537.861	51112.18
538.062	51022.07
538.263	51009.78
538.463	50643.2
538.664	51058.93
538.865	51149.04
539.065	51243.25
539.266	50872.57
539.466	51452.14
539.667	50610.43
539.868	51263.73
540.068	50895.1
540.269	51042.55
540.469	50911.48
540.67	50725.11
540.87	51026.17
541.071	51007.73
541.271	51116.28
541.472	50702.59
541.672	50858.23
541.873	50934.01
542.073	50116.87
542.274	51273.97
542.474	50718.97
542.675	50817.27
542.875	51489.01
543.075	50899.19
543.276	50055.43
543.476	51402.99
543.676	50745.59
543.877	51099.89
544.077	50731.26
544.277	50866.42
544.478	51075.32
544.678	50741.5
544.878	50436.35
545.078	50989.3
545.279	50297.09
545.479	50475.26
545.679	50692.35
545.879	50649.34
546.079	50530.56
546.28	50172.16
546.48	50266.37
546.68	50448.64
546.88	50716.92
547.08	50727.16
547.28	50249.99
547.48	50358.53
547.68	50231.55
547.88	50260.23
548.081	50948.34
548.281	50624.76
548.481	50276.61
548.681	50516.22
548.881	50510.08
549.081	50469.12
549.28	50280.7
549.48	50774.27
549.68	50419.97
549.88	50514.17
550.08	49975.56
550.28	50534.65
550.48	50192.64
550.68	50710.78
550.88	49793.29
551.08	50403.58
551.279	50295.04
551.479	50428.16
551.679	50141.44
551.879	49654.03
552.079	50503.93
552.278	50080
552.478	50037
552.678	49940.74
552.878	50077.96
553.077	50039.04
553.277	49645.83
553.477	50460.93
553.676	49727.75
553.876	49971.46
554.076	49701.13
554.275	49912.07
554.475	49496.33
554.674	49959.17
554.874	50010.37
555.074	49420.56
555.273	49578.25
555.473	49436.94
555.672	49367.31
555.872	49502.48
556.071	49348.88
556.271	49807.62
556.47	49185.04
556.67	48972.05
556.869	49240.34
557.068	49365.26
557.268	49103.12
557.467	49457.42
557.667	49287.44
557.866	48992.53
558.065	49096.98
558.265	48462.11
558.464	48496.92
558.663	49277.2
558.863	48208.16
559.062	48863.51
559.261	48347.42
559.461	48855.32
559.66	47661.35
559.859	48261.41
560.058	48134.43
560.258	48183.58
560.457	48101.67
560.656	48163.11
560.855	47868.2
561.054	48363.81
561.253	47644.97
561.453	47677.74
561.652	47925.54
561.851	47880.49
562.05	47604.01
562.249	47286.57
562.448	47726.89
562.647	47180.08
562.846	47319.34
563.045	46960.95
563.244	46651.7
563.443	47614.25
563.642	46522.68
563.841	46610.74
564.04	46582.07
564.239	47282.48
564.438	46405.95
564.637	46942.52
564.836	46551.35
565.035	45807.94
565.234	45842.76
565.432	45627.72
565.631	45979.97
565.83	46227.77
566.029	45777.22
566.228	45476.17
566.427	45574.47
566.625	45293.9
566.824	44915.03
567.023	45412.68
567.222	44876.12
567.42	45373.77
567.619	44960.08
567.818	44958.03
568.016	44530.01
568.215	44730.71
568.414	44306.78
568.612	44988.75
568.811	44405.08
569.01	44558.68
569.208	43809.12
569.407	44181.85
569.605	43921.76
569.804	43866.47
570.002	43684.2
570.201	43956.58
570.4	43583.85
570.598	43446.63
570.797	43485.54
570.995	43532.65
571.193	42666.36
571.392	43252.08
571.59	42996.08
571.789	42688.88
571.987	42793.33
572.186	42959.22
572.384	42273.15
572.582	42860.91
572.781	42350.97
572.979	41597.32
573.177	42371.45
573.376	42432.89
573.574	41638.28
573.772	41824.64
573.971	41683.33
574.169	41744.77
574.367	41232.78
574.565	41767.3
574.763	41146.76
574.962	41372.04
575.16	40515.99
575.358	41304.46
575.556	40298.91
575.754	41126.28
575.952	40247.71
576.151	41105.8
576.349	40307.1
576.547	40311.19
576.745	40008.09
576.943	40391.06
577.141	40083.87
577.339	40141.21
577.537	39766.43
577.735	39389.61
577.933	39614.88
578.131	39555.49
578.329	39354.79
578.527	39240.11
578.725	39668.13
578.923	39371.18
579.121	39000.49
579.319	38930.86
579.516	39141.8
579.714	38779.31
579.912	38568.37
580.11	38834.61
580.308	38410.68
580.506	38246.84
580.704	37941.69
580.901	38476.21
581.099	38181.31
581.297	37980.6
581.495	37761.47
581.692	37847.49
581.89	37304.77
582.088	37925.31
582.285	37626.31
582.483	37562.82
582.681	37411.27
582.878	37065.16
583.076	37091.79
583.274	37302.73
583.471	36731.34
583.669	37222.86
583.866	36458.96
584.064	37126.6
584.262	36235.74
584.459	37067.21
584.657	36354.52
584.854	36565.46
585.052	35955.16
585.249	36100.57
585.447	35846.62
585.644	35568.1
585.841	35684.83
586.039	36223.45
586.236	35455.46
586.434	35498.47
586.631	35357.16
586.828	35422.69
587.026	35213.8
587.223	35299.81
587.42	34707.95
587.618	34972.14
587.815	34519.54
588.012	34750.96
588.21	34781.68
588.407	34941.42
588.604	34195.96
588.801	34206.2
588.999	34036.22
589.196	33991.16
589.393	34161.14
589.59	33638.91
589.787	33741.31
589.984	33843.71
590.182	33518.08
590.379	33882.62
590.576	33327.62
590.773	33307.14
590.97	32913.93
591.167	33290.76
591.364	32463.38
591.561	32813.58
591.758	32694.8
591.955	32692.75
592.152	32750.09
592.349	32506.38
592.546	32524.82
592.743	32825.87
592.94	31705.63
593.137	32236.05
593.334	32125.46
593.531	31785.5
593.727	31959.58
593.924	31939.1
594.121	31744.54
594.318	31830.55
594.515	31009.32
594.712	32078.36
594.908	31271.46
595.105	31400.48
595.302	30886.44
595.499	31142.44
595.696	30911.02
595.892	30796.33
596.089	31027.75
596.286	30695.98
596.482	30448.18
596.679	30460.46
596.876	30523.95
597.072	29946.42
597.269	30650.92
597.466	30026.29
597.662	29946.42
597.859	30249.52
598.055	29743.67
598.252	29639.23
598.448	29594.17
598.645	29598.27
598.841	29555.26
599.038	29536.83
599.234	29491.77
599.431	28875.34
599.627	28811.85
599.824	29213.25
600.02	28998.21
600.217	29094.47
600.413	28789.32
600.609	28707.4
600.806	28308.05
601.002	28496.46
601.198	28568.14
601.395	28111.44
601.591	28254.8
601.787	28179.03
601.984	28183.12
602.18	28125.78
602.376	27839.06
602.572	27867.73
602.769	27746.9
602.965	27400.8
603.161	28031.57
603.357	27466.33
603.553	27605.59
603.75	27558.49
603.946	27157.09
604.142	27314.78
604.338	26952.29
604.534	26913.38
604.73	27023.97
604.926	26960.48
605.122	26837.61
605.318	26675.82
605.514	26630.76
605.71	26479.21
605.906	26241.65
606.102	26430.06
606.298	26522.22
606.494	26630.76
606.69	26428.01
606.886	26042.99
607.082	26006.13
607.278	26374.77
607.474	25690.74
607.67	26057.33
607.866	25270.91
608.062	25625.21
608.257	25678.46
608.453	25766.52
608.649	25660.02
608.845	25156.22
609.041	25143.94
609.236	25410.17
609.432	25289.34
609.628	25055.87
609.824	25203.33
610.019	25045.63
610.215	25055.87
610.411	25148.03
610.606	24752.77
610.802	24789.64
610.998	24646.28
611.193	25264.77
611.389	24666.76
611.584	24722.05
611.78	24652.42
611.976	24705.67
612.171	24517.26
612.367	24674.95
612.562	24390.28
612.758	24130.19
612.953	24269.45
613.149	24631.94
613.344	23896.72
613.539	24248.97
613.735	24222.35
613.93	24363.66
614.126	24070.8
614.321	24287.89
614.517	24081.04
614.712	24283.79
614.907	23853.72
615.103	23933.59
615.298	23630.49
615.493	24076.94
615.688	23612.06
615.884	23898.77
616.079	23095.97
616.274	23569.05
616.47	23378.59
616.665	23597.72
616.86	23503.51
617.055	23753.37
617.25	23186.08
617.445	23442.07
617.641	22624.93
617.836	23114.4
618.031	22831.78
618.226	23175.84
618.421	22991.52
618.616	23075.49
618.811	22704.81
619.006	22989.47
619.201	22518.44
619.396	22446.76
619.591	22014.64
619.786	22569.64
619.981	22172.33
620.176	22381.23
620.371	22114.99
620.566	21994.16
620.761	21699.25
620.956	21865.14
621.151	21383.87
621.346	21680.82
621.541	21412.54
621.735	21392.06
621.93	21035.71
622.125	21236.41
622.32	21031.62
622.515	21217.98
622.709	20953.79
622.904	20861.63
623.099	20574.92
623.294	20718.28
623.488	20267.72
623.683	20519.62
623.878	20191.95
624.072	20392.65
624.267	19972.82
624.462	20032.21
624.656	19915.47
624.851	19911.38
625.046	19610.32
625.24	19825.36
625.435	19516.12
625.629	19286.75
625.824	19096.28
626.018	19213.02
626.213	18686.69
626.407	19079.9
626.602	18578.15
626.796	18758.37
626.991	18813.66
627.185	18684.64
627.38	18295.53
627.574	18336.49
627.768	18281.19
627.963	18119.4
628.157	18027.24
628.352	17957.61
628.546	17838.83
628.74	17945.33
628.935	17410.81
629.129	17439.48
629.323	17212.15
629.517	17443.57
629.712	17287.93
629.906	17167.1
630.1	17029.88
630.294	17097.47
630.489	16829.18
630.683	17060.6
630.877	16646.91
631.071	16659.2
631.265	16782.08
631.459	16519.94
631.653	16012.04
631.848	16329.48
632.042	16405.25
632.236	16241.42
632.43	16061.19
632.624	16114.44
632.818	15926.03
633.012	15762.19
633.206	15868.69
633.4	15543.06
633.594	15354.65
633.788	15381.27
633.982	15395.61
634.176	15438.61
634.369	15303.45
634.563	15176.47
634.757	14865.18
634.951	15059.74
635.145	15008.54
635.339	14910.24
635.533	14787.36
635.726	14619.42
635.92	14455.59
636.114	14543.65
636.308	14385.96
636.501	14414.63
636.695	14101.29
636.889	14250.79
637.083	13933.36
637.276	14084.91
637.47	13996.84
637.664	13962.03
637.857	13826.86
638.051	13779.76
638.244	13648.69
638.438	13445.94
638.632	13742.89
638.825	13280.05
639.019	13370.16
639.212	13232.95
639.406	13284.15
639.599	13040.44
639.793	13306.68
639.986	12905.28
640.18	12778.3
640.373	13185.85
640.567	12647.23
640.76	12743.49
640.954	12448.58
641.147	12634.94
641.34	12792.64
641.534	12485.44
641.727	12542.78
641.92	12507.97
642.114	12374.85
642.307	12096.33
642.5	11909.96
642.694	11946.83
642.887	11801.42
643.08	12251.97
643.273	11819.85
643.467	11905.87
643.66	11848.52
643.853	11488.08
644.046	11703.12
644.239	11694.93
644.432	11420.5
644.626	11424.59
644.819	11344.72
645.012	11258.71
645.205	11078.49
645.398	11236.18
645.591	11090.77
645.784	11035.48
645.977	10937.18
646.17	10857.31
646.363	10820.44
646.556	10890.07
646.749	10695.52
646.942	10789.72
647.135	10478.43
647.328	10392.42
647.521	10548.06
647.714	10548.06
647.907	10560.35
648.099	10296.16
648.292	10210.15
648.485	10285.92
648.678	10285.92
648.871	10140.52
649.064	10072.93
649.256	10124.13
649.449	9767.79
649.642	10009.45
649.835	9737.07
650.027	9761.64
650.22	9716.59
650.413	9720.68
650.605	9505.65
650.798	9450.35
650.991	9548.65
651.183	9450.35
651.376	9597.81
651.568	9364.34
651.761	9452.4
651.954	9356.15
652.146	9292.66
652.339	9366.39
652.531	9186.16
652.724	8913.78
652.916	9055.09
653.109	9051
653.301	8934.26
653.494	8958.84
653.686	8874.87
653.879	8854.39
654.071	8840.06
654.263	8885.11
654.456	8594.3
654.648	8491.9
654.84	8463.23
655.033	8588.16
655.225	8579.97
655.417	8524.67
655.61	8401.79
655.802	8536.96
655.994	8293.25
656.186	8317.83
656.379	8139.65
656.571	8194.95
656.763	8250.24
656.955	8172.42
657.148	7926.66
657.34	8215.43
657.532	7943.05
657.724	8016.77
657.916	7709.58
658.108	7934.85
658.3	7854.98
658.492	7764.87
658.684	7654.28
658.876	7834.5
659.068	7797.64
659.26	7549.84
659.452	7633.8
659.644	7611.28
659.836	7582.6
660.028	7689.1
660.22	7414.67
660.412	7365.52
660.604	7316.37
660.796	7332.75
660.988	7439.25
661.18	7381.9
661.372	6972.31
661.563	7297.94
661.755	7228.31
661.947	7134.1
662.139	7074.71
662.331	7150.48
662.522	7035.8
662.714	6896.53
662.906	6853.53
663.097	7023.51
663.289	6894.49
663.481	6722.46
663.673	6945.69
663.864	6742.94
664.056	6669.21
664.247	6835.1
664.439	6443.93
664.631	6665.11
664.822	6554.52
665.014	6624.15
665.205	6757.27
665.397	6534.04
665.588	6532
665.78	6439.84
665.971	6316.96
666.163	6386.59
666.354	6364.06
666.546	6263.71
666.737	6329.25
666.929	6112.16
667.12	6194.08
667.311	6306.72
667.503	6079.4
667.694	6140.83
667.885	6118.31
668.077	6149.03
668.268	6083.49
668.459	6132.64
668.651	6032.29
668.842	6036.39
669.033	5997.48
669.224	6038.44
669.416	6013.86
669.607	5845.93
669.798	5919.65
669.989	5880.74
670.18	5989.28
670.371	5886.89
670.563	5792.68
670.754	5870.5
670.945	5716.9
671.136	5696.43
671.327	5673.9
671.518	5692.33
671.709	5759.91
671.9	5641.13
672.091	5706.66
672.282	5655.47
672.473	5557.16
672.664	5645.23
672.855	5491.63
673.046	5594.03
673.237	5612.46
673.428	5518.25
673.619	5481.39
673.809	5534.64
674	5565.36
674.191	5510.06
674.382	5428.14
674.573	5503.92
674.764	5313.45
674.954	5385.13
675.145	5407.66
675.336	5450.67
675.527	5366.7
675.717	5329.84
675.908	5233.58
676.099	5436.33
676.289	5301.17
676.48	5290.93
676.671	5170.1
676.861	5122.99
677.052	5196.72
677.243	5155.76
677.433	5225.39
677.624	5190.58
677.814	5077.94
678.005	5170.1
678.195	5198.77
678.386	5209.01
678.576	5110.71
678.767	5161.91
678.957	5223.34
679.148	5079.99
679.338	5000.12
679.529	5194.67
679.719	5063.6
679.909	5213.1
680.1	5131.19
680.29	5131.19
680.481	5163.95
680.671	5149.62
680.861	5157.81
681.052	5100.47
681.242	4905.91
681.432	5163.95
681.622	5032.88
681.813	5000.12
682.003	4977.59
682.193	5104.56
682.383	5131.19
682.573	5067.7
682.764	4996.02
682.954	5088.18
683.144	4889.53
683.334	5137.33
683.524	5039.03
683.714	4895.67
683.904	4844.47
684.094	5034.93
684.284	4807.61
684.474	5034.93
684.664	4955.06
684.854	4893.62
685.044	4737.98
685.234	4842.42
685.424	4758.46
685.614	4830.13
685.804	4901.81
685.994	4832.18
686.184	4836.28
686.374	4737.98
686.564	4690.87
686.753	4717.5
686.943	4746.17
687.133	4793.27
687.323	4615.1
687.513	4799.41
687.702	4584.38
687.892	4856.76
688.082	4547.51
688.272	4611
688.461	4527.03
688.651	4656.06
688.841	4570.04
689.03	4539.32
689.22	4658.1
689.41	4567.99
689.599	4481.98
689.789	4375.49
689.979	4404.16
690.168	4385.73
690.358	4338.62
690.547	4312
690.737	4285.37
690.926	4391.87
691.116	4365.25
691.305	4277.18
691.495	4117.44
691.684	4256.7
691.874	4262.85
692.063	4279.23
692.252	4234.18
692.442	4199.36
692.631	4066.24
692.82	4180.93
693.01	4047.81
693.199	4096.96
693.388	4258.75
693.578	4101.06
693.767	4150.21
693.956	4072.39
694.146	4004.8
694.335	4154.3
694.524	4002.75
694.713	4066.24
694.902	4006.85
695.092	4035.52
695.281	3957.7
695.47	3937.22
695.659	4000.71
695.848	3783.62
696.037	3888.07
696.226	3929.03
696.415	3806.15
696.604	3976.13
696.793	3939.27
696.982	3814.34
697.171	3879.88
697.36	3969.99
697.549	3859.4
697.738	3797.96
697.927	3836.87
698.116	3908.55
698.305	3828.68
698.494	3843.01
698.683	3879.88
698.872	3974.08
699.061	3722.18
699.25	3838.92
699.438	3726.28
699.627	3802.05
699.816	3757
700.005	3720.14
700.193	3863.49
700.382	3972.04
700.571	3867.59
700.76	3908.55
700.948	3761.09
701.137	3781.57
701.326	3822.53
701.514	3722.18
701.703	3806.15
701.892	3666.89
702.08	3748.81
702.269	3654.6
702.457	3711.94
702.646	3873.73
702.834	3689.42
703.023	3814.34
703.212	3732.42
703.4	3912.64
703.589	3820.49
703.777	3779.53
703.965	3666.89
704.154	3718.09
704.342	3539.91
704.531	3707.85
704.719	3695.56
704.907	3802.05
705.096	3726.28
705.284	3754.95
705.472	3754.95
705.661	3929.03
705.849	3537.87
706.037	3644.36
706.226	3754.95
706.414	3668.94
706.602	3541.96
706.79	3707.85
706.979	3810.25
707.167	3740.61
707.355	3683.27
707.543	3754.95
707.731	3843.01
707.919	3587.02
708.107	3703.75
708.296	3732.42
708.484	3668.94
708.672	3826.63
708.86	3638.22
709.048	3759.05
709.236	3662.79
709.424	3716.04
709.612	3675.08
709.8	3711.94
709.988	3724.23
710.176	3615.69
710.364	3728.33
710.551	3648.46
710.739	3687.37
710.927	3724.23
711.115	3632.07
711.303	3754.95
711.491	3703.75
711.679	3627.98
711.866	3716.04
712.054	3748.81
712.242	3761.09
712.43	3691.46
712.617	3744.71
712.805	3630.02
712.993	3720.14
713.181	3752.9
713.368	3826.63
713.556	3744.71
713.744	3742.66
713.931	3736.52
714.119	3687.37
714.306	3673.03
714.494	3666.89
714.682	3605.45
714.869	3781.57
715.057	3666.89
715.244	3679.18
715.432	3683.27
715.619	3695.56
715.807	3648.46
715.994	3724.23
716.182	3785.67
716.369	3584.97
716.556	3785.67
716.744	3660.74
716.931	3654.6
717.119	3535.82
717.306	3836.87
717.493	3699.66
717.681	3765.19
717.868	3666.89
718.055	3840.97
718.242	3632.07
718.43	3619.78
718.617	3656.65
718.804	3580.87
718.991	3687.37
719.179	3662.79
719.366	3652.55
719.553	3724.23
719.74	3584.97
719.927	3707.85
720.114	3693.51
720.301	3636.17
720.488	3605.45
720.676	3562.44
720.863	3623.88
721.05	3605.45
721.237	3638.22
721.424	3695.56
721.611	3787.72
721.798	3460.04
721.985	3724.23
722.172	3617.74
722.358	3681.22
722.545	3640.26
722.732	3472.33
722.919	3615.69
723.106	3587.02
723.293	3666.89
723.48	3576.78
723.667	3552.2
723.853	3576.78
724.04	3625.93
724.227	3591.11
724.414	3595.21
724.6	3584.97
724.787	3609.54
724.974	3619.78
725.161	3535.82
725.347	3607.5
725.534	3525.58
725.72	3507.15
725.907	3566.54
726.094	3625.93
726.28	3550.15
726.467	3404.75
726.653	3621.83
726.84	3468.24
727.027	3455.95
727.213	3572.68
727.4	3636.17
727.586	3560.39
727.773	3584.97
727.959	3625.93
728.145	3476.43
728.332	3513.29
728.518	3453.9
728.705	3699.66
728.891	3552.2
729.077	3572.68
729.264	3476.43
729.45	3644.36
729.636	3566.54
729.823	3496.91
730.009	3476.43
730.195	3662.79
730.382	3611.59
730.568	3474.38
730.754	3613.64
730.94	3560.39
731.126	3564.49
731.313	3443.66
731.499	3439.56
731.685	3550.15
731.871	3466.19
732.057	3515.34
732.243	3546.06
732.429	3441.61
732.615	3582.92
732.801	3484.62
732.987	3271.63
733.173	3386.32
733.359	3449.8
733.545	3421.13
733.731	3390.41
733.917	3433.42
734.103	3492.81
734.289	3441.61
734.475	3392.46
734.661	3509.19
734.847	3433.42
735.033	3486.67
735.219	3257.29
735.404	3548.11
735.59	3406.8
735.776	3331.02
735.962	3363.79
736.148	3302.35
736.333	3347.4
736.519	3253.2
736.705	3412.94
736.89	3431.37
737.076	3421.13
737.262	3206.1
737.447	3212.24
737.633	3417.04
737.819	3343.31
738.004	3195.86
738.19	3347.4
738.375	3263.44
738.561	3314.64
738.747	3351.5
738.932	3245.01
739.118	3267.53
739.303	3257.29
739.489	3193.81
739.674	3208.14
739.859	3146.7
740.045	3308.49
740.23	3269.58
740.416	3167.18
740.601	3105.74
740.786	3066.83
740.972	3183.57
741.157	3093.46
741.342	3044.31
741.528	3113.94
741.713	3054.55
741.898	3163.09
742.084	3075.03
742.269	2972.63
742.454	3040.21
742.639	2923.48
742.824	3044.31
743.01	3054.55
743.195	3066.83
743.38	2898.9
743.565	2991.06
743.75	2857.94
743.935	2917.33
744.12	2978.77
744.305	2876.37
744.49	2831.32
744.675	2771.93
744.86	2845.65
745.045	2831.32
745.23	2855.89
745.415	2767.83
745.6	2792.41
745.785	2612.18
745.97	2755.54
746.155	2728.92
746.34	2765.78
746.525	2733.01
746.71	2845.65
746.895	2694.1
747.079	2659.29
747.264	2659.29
747.449	2771.93
747.634	2634.71
747.819	2728.92
748.003	2675.67
748.188	2591.7
748.373	2630.62
748.557	2493.4
748.742	2497.5
748.927	2520.03
749.111	2456.54
749.296	2509.79
749.481	2458.59
749.665	2552.79
749.85	2266.08
750.034	2454.49
750.219	2331.61
750.404	2360.28
750.588	2411.48
750.773	2378.72
750.957	2206.69
751.141	2175.97
751.326	2288.61
751.51	2272.22
751.695	2296.8
751.879	2251.74
752.064	2233.31
752.248	2214.88
752.432	2159.58
752.617	2110.43
752.801	2247.65
752.985	2284.51
753.17	2149.34
753.354	2155.49
753.538	2264.03
753.722	2055.14
753.907	2124.77
754.091	2020.32
754.275	2089.95
754.459	2171.87
754.643	1960.93
754.828	2075.62
755.012	2032.61
755.196	1879.01
755.38	2024.42
755.564	1979.36
755.748	1948.64
755.932	1919.97
756.116	1967.07
756.3	1872.87
756.484	1852.39
756.668	1819.62
756.852	1836
757.036	1903.59
757.22	1790.95
757.404	1872.87
757.588	1770.47
757.772	1805.28
757.956	1780.71
758.14	1764.33
758.323	1700.84
758.507	1733.61
758.691	1569.77
758.875	1668.07
759.059	1727.46
759.242	1729.51
759.426	1706.98
759.61	1606.63
759.794	1684.45
759.977	1616.87
760.161	1663.97
760.345	1633.26
760.528	1749.99
760.712	1618.92
760.895	1653.73
761.079	1569.77
761.263	1588.2
761.446	1553.38
761.63	1528.81
761.813	1520.62
761.997	1580.01
762.18	1481.71
762.364	1557.48
762.547	1475.56
762.731	1616.87
762.914	1389.55
763.098	1473.51
763.281	1485.8
763.464	1405.93
763.648	1496.04
763.831	1434.6
764.015	1467.37
764.198	1434.6
764.381	1471.47
764.564	1362.92
764.748	1471.47
764.931	1356.78
765.114	1362.92
765.297	1336.3
765.481	1266.67
765.664	1473.51
765.847	1340.4
766.03	1473.51
766.213	1360.88
766.397	1401.83
766.58	1207.28
766.763	1346.54
766.946	1315.82
767.129	1344.49
767.312	1311.72
767.495	1338.35
767.678	1295.34
767.861	1299.44
768.044	1313.77
768.227	1291.24
768.41	1336.3
768.593	1274.86
768.776	1217.52
768.959	1344.49
769.142	1278.96
769.324	1264.62
769.507	1225.71
769.69	1188.85
769.873	1250.28
770.056	1272.81
770.239	1221.61
770.421	1209.33
770.604	1209.33
770.787	1211.37
770.97	1217.52
771.152	1104.88
771.335	1106.93
771.518	1197.04
771.7	1190.89
771.883	1201.13
772.066	1172.46
772.248	1172.46
772.431	1205.23
772.613	1088.5
772.796	1147.89
772.978	1115.12
773.161	1197.04
773.343	1141.74
773.526	1113.07
773.708	1027.06
773.891	984.05
774.073	1106.93
774.256	1059.82
774.438	1111.02
774.621	1078.26
774.803	1014.77
774.985	986.1
775.168	975.86
775.35	922.61
775.532	1027.06
775.715	971.76
775.897	918.51
776.079	963.57
776.261	916.47
776.444	994.29
776.626	994.29
776.808	936.95
776.99	994.29
777.173	930.8
777.355	889.84
777.537	908.27
777.719	865.27
777.901	918.51
778.083	893.94
778.265	926.71
778.447	959.47
778.629	906.23
778.811	863.22
778.993	857.07
779.175	812.02
779.357	908.27
779.539	875.51
779.721	781.3
779.903	799.73
780.085	760.82
780.267	838.64
780.449	754.68
780.631	797.68
780.812	873.46
780.994	756.72
781.176	877.55
781.358	699.38
781.54	820.21
781.721	799.73
781.903	746.48
782.085	754.68
782.267	781.3
782.448	658.42
782.63	742.39
782.812	764.92
782.993	709.62
783.175	674.81
783.357	633.85
783.538	787.44
783.72	693.24
783.901	713.72
784.083	617.46
784.264	687.09
784.446	635.89
784.627	605.17
784.809	668.66
784.99	607.22
785.172	664.57
785.353	605.17
785.535	545.78
785.716	574.46
785.897	693.24
786.079	670.71
786.26	652.28
786.441	594.93
786.623	537.59
786.804	586.74
786.985	617.46
787.167	568.31
787.348	529.4
787.529	639.99
787.71	642.04
787.891	668.66
788.073	521.21
788.254	551.93
788.435	668.66
788.616	547.83
788.797	478.2
788.978	639.99
789.159	570.36
789.34	549.88
789.522	498.68
789.703	551.93
789.884	521.21
790.065	537.59
790.246	549.88
790.427	461.82
790.607	533.5
790.788	517.11
790.969	447.48
791.15	519.16
791.331	537.59
791.512	543.74
791.693	408.57
791.874	416.76
792.054	453.63
792.235	525.3
792.416	513.02
792.597	386.04
792.778	486.39
792.958	451.58
793.139	447.48
793.32	455.67
793.5	340.99
793.681	480.25
793.862	361.47
794.042	377.85
794.223	365.56
794.404	398.33
794.584	367.61
794.765	394.23
794.945	431.1
795.126	435.19
795.306	470.01
795.487	412.67
795.667	412.67
795.848	422.91
796.028	447.48
796.209	396.28
796.389	394.23
796.57	404.47
796.75	394.23
796.93	277.5
797.111	347.13
797.291	297.98
797.471	480.25
797.652	330.75
797.832	312.32
798.012	373.75
798.192	383.99
798.373	343.03
798.553	353.27
798.733	443.39
798.913	287.74
799.093	381.95
799.274	363.51
799.454	388.09
799.634	351.23
799.814	300.03
799.994	402.43
800.174	414.71
800.354	297.98
800.534	371.71
800.714	343.03
800.894	326.65
801.074	263.16
801.254	336.89
801.434	312.32
801.614	306.17
801.794	314.36
801.974	838.64
802.154	310.27
802.334	300.03
802.514	257.02
802.693	355.32
802.873	379.9
803.053	334.84
803.233	279.55
803.413	373.75
803.592	293.88
803.772	318.46
803.952	181.25
804.131	275.45
804.311	228.35
804.491	365.56
804.67	242.68
804.85	283.64
805.03	261.12
805.209	347.13
805.389	324.6
805.568	275.45
805.748	252.92
805.928	248.83
806.107	312.32
806.287	271.36
806.466	322.56
806.646	257.02
806.825	168.96
807.004	279.55
807.184	263.16
807.363	295.93
807.543	330.75
807.722	199.68
807.901	242.68
808.081	281.6
808.26	259.07
808.439	248.83
808.619	318.46
808.798	250.88
808.977	265.21
809.156	265.21
809.336	273.4
809.515	234.49
809.694	218.11
809.873	285.69
810.052	273.4
810.231	281.6
810.411	211.96
810.59	209.92
810.769	224.25
810.948	314.36
811.127	226.3
811.306	222.2
811.485	234.49
811.664	322.56
811.843	254.97
812.022	291.84
812.201	216.06
812.38	201.72
812.559	173.05
812.737	267.26
812.916	140.29
813.095	222.2
813.274	173.05
813.453	209.92
813.632	214.01
813.811	248.83
813.989	164.86
814.168	183.29
814.347	181.25
814.526	240.64
814.704	240.64
814.883	242.68
815.062	175.1
815.24	281.6
815.419	136.19
815.598	168.96
815.776	160.77
815.955	199.68
816.133	142.33
816.312	140.29
816.49	144.38
816.669	193.53
816.847	201.72
817.026	193.53
817.204	158.72
817.383	181.25
817.561	185.34
817.74	240.64
817.918	173.05
818.097	244.73
818.275	191.49
818.453	146.43
818.632	199.68
818.81	173.05
818.988	191.49
819.167	189.44
819.345	214.01
819.523	140.29
819.701	175.1
819.879	275.45
820.058	136.19
820.236	218.11
820.414	191.49
820.592	144.38
820.77	144.38
820.948	113.66
821.127	95.23
821.305	166.91
821.483	93.18
821.661	209.92
821.839	121.85
822.017	185.34
822.195	132.09
822.373	234.49
822.551	152.57
822.729	144.38
822.907	144.38
823.085	144.38
823.262	125.95
823.44	109.57
823.618	222.2
823.796	166.91
823.974	168.96
824.152	111.61
824.329	138.24
824.507	205.82
824.685	138.24
824.863	166.91
825.04	185.34
825.218	175.1
825.396	72.7
825.574	164.86
825.751	193.53
825.929	119.81
826.107	142.33
826.284	142.33
826.462	179.2
826.639	130.05
826.817	62.46
826.994	125.95
827.172	97.28
827.349	150.53
827.527	185.34
827.704	50.18
827.882	171.01
828.059	123.9
828.237	74.75
828.414	152.57
828.591	76.8
828.769	156.67
828.946	62.46
829.124	136.19
829.301	205.82
829.478	23.55
829.655	99.33
829.833	123.9
830.01	87.04
830.187	113.66
830.364	95.23
830.542	41.98
830.719	111.61
830.896	181.25
831.073	111.61
831.25	99.33
831.427	84.99
831.604	29.7
831.782	168.96
831.959	119.81
832.136	146.43
832.313	156.67
832.49	44.03
832.667	70.65
832.844	44.03
833.021	162.81
833.198	132.09
833.374	87.04
833.551	111.61
833.728	66.56
833.905	109.57
834.082	138.24
834.259	101.37
834.436	162.81
834.612	33.79
834.789	166.91
834.966	150.53
835.143	177.15
835.319	95.23
835.496	109.57
835.673	62.46
835.85	103.42
836.026	115.71
836.203	82.94
836.38	37.89
836.556	19.46
836.733	87.04
836.909	50.18
837.086	93.18
837.262	154.62
837.439	37.89
837.616	123.9
837.792	58.37
837.968	160.77
838.145	103.42
838.321	191.49
838.498	99.33
838.674	152.57
838.851	-9.22
839.027	121.85
839.203	5.12
839.38	136.19
839.556	-3.07
839.732	101.37
839.909	103.42
840.085	87.04
840.261	37.89
840.437	93.18
840.614	5.12
840.79	82.94
840.966	119.81
841.142	66.56
841.318	117.76
841.494	-11.26
841.671	103.42
841.847	158.72
842.023	17.41
842.199	84.99
842.375	87.04
842.551	91.13
842.727	64.51
842.903	136.19
843.079	3.07
843.255	37.89
843.431	111.61
843.607	95.23
843.783	17.41
843.959	123.9
844.134	60.42
844.31	101.37
844.486	60.42
844.662	37.89
844.838	121.85
845.013	175.1
845.189	76.8
845.365	62.46
845.541	80.89
845.716	115.71
845.892	1.02
846.068	9.22
846.244	78.85
846.419	76.8
846.595	17.41
846.77	84.99
846.946	130.05
847.122	58.37
847.297	89.09
847.473	82.94
847.648	-17.41
847.824	93.18
847.999	91.13
848.175	52.22
848.35	52.22
848.526	74.75
848.701	87.04
848.876	-3.07
849.052	64.51
849.227	72.7
849.403	37.89
849.578	68.61
849.753	74.75
849.929	91.13
850.104	1.02
850.279	60.42
850.454	87.04
850.63	66.56
850.805	80.89
850.98	-3.07
851.155	7.17
851.33	117.76
851.505	46.08
851.681	31.74
851.856	107.52
852.031	62.46
852.206	19.46
852.381	9.22
852.556	5.12
852.731	58.37
852.906	44.03
853.081	25.6
853.256	82.94
853.431	54.27
853.606	-5.12
853.781	29.7
853.956	-21.5
854.131	-17.41
854.305	72.7
854.48	62.46
854.655	44.03
854.83	7.17
855.005	13.31
855.18	87.04
855.354	-5.12
855.529	25.6
855.704	70.65
855.879	-44.03
856.053	56.32
856.228	48.13
856.403	33.79
856.577	68.61
856.752	89.09
856.926	84.99
857.101	48.13
857.276	-52.22
857.45	48.13
857.625	27.65
857.799	11.26
857.974	37.89
858.148	25.6
858.323	29.7
858.497	52.22
858.672	13.31
858.846	11.26
859.02	66.56
859.195	29.7
859.369	29.7
859.543	-11.26
859.718	9.22
859.892	48.13
860.066	29.7
860.241	25.6
860.415	41.98
860.589	50.18
860.763	29.7
860.938	21.5
861.112	58.37
861.286	56.32
861.46	-21.5
861.634	62.46
861.808	46.08
861.982	29.7
862.157	-11.26
862.331	-23.55
862.505	31.74
862.679	-27.65
862.853	15.36
863.027	54.27
863.201	82.94
863.375	76.8
863.549	5.12
863.722	-37.89
863.896	74.75
864.07	5.12
864.244	-3.07
864.418	68.61
864.592	91.13
864.766	-9.22
864.939	-11.26
865.113	27.65
865.287	-37.89
865.461	-39.94
865.634	39.94
865.808	27.65
865.982	78.85
866.156	-7.17
866.329	39.94
866.503	82.94
866.676	37.89
866.85	74.75
867.024	-19.46
867.197	-1.02
867.371	33.79
867.544	76.8
867.718	58.37
867.891	35.84
868.065	27.65
868.238	78.85
868.412	84.99
868.585	11.26
868.759	91.13
868.932	-44.03
869.105	-52.22
869.279	52.22
869.452	-11.26
869.625	82.94
869.799	27.65
869.972	1.02
870.145	5.12
870.319	7.17
870.492	35.84
870.665	7.17
870.838	25.6
871.011	13.31
871.185	80.89
871.358	23.55
871.531	54.27
871.704	-3.07
871.877	80.89
872.05	70.65
872.223	-39.94
872.396	5.12
872.569	13.31
872.742	17.41
872.915	19.46
873.088	-27.65
873.261	117.76
873.434	54.27
873.607	-13.31
873.78	9.22
873.953	9.22
874.126	-21.5
874.299	70.65
874.471	33.79
874.644	-39.94
874.817	60.42
874.99	103.42
875.163	-23.55
875.335	46.08
875.508	-7.17
875.681	29.7
875.853	-68.61
876.026	-19.46
876.199	35.84
876.371	1.02
876.544	60.42
876.717	23.55
876.889	25.6
877.062	138.24
877.234	-41.98
877.407	5.12
877.579	48.13
877.752	13.31
877.924	29.7
878.097	66.56
878.269	-9.22
878.442	27.65
878.614	-15.36
878.786	19.46
878.959	-23.55
879.131	25.6
879.303	-1.02
879.476	31.74
879.648	-25.6
879.82	-25.6
879.993	46.08
880.165	-23.55
880.337	-3.07
880.509	-5.12
880.681	-29.7
880.854	-23.55
881.026	-48.13
881.198	-13.31
881.37	5.12
881.542	84.99
881.714	5.12
881.886	33.79
882.058	-78.85
882.23	87.04
882.402	-7.17
882.574	58.37
882.746	-54.27
882.918	62.46
883.09	95.23
883.262	37.89
883.434	9.22
883.606	-31.74
883.778	1.02
883.95	50.18
884.122	23.55
884.293	5.12
884.465	1.02
884.637	58.37
884.809	11.26
884.98	60.42
885.152	27.65
885.324	27.65
885.496	52.22
885.667	31.74
885.839	37.89
886.011	72.7
886.182	64.51
886.354	33.79
886.525	54.27
886.697	5.12
886.869	33.79
887.04	11.26
887.212	-7.17
887.383	46.08
887.555	29.7
887.726	23.55
887.897	48.13
888.069	44.03
888.24	54.27
888.412	13.31
888.583	29.7
888.754	27.65
888.926	-48.13
889.097	7.17
889.268	-46.08
889.44	-3.07
889.611	-3.07
889.782	29.7
889.953	-101.37
890.125	46.08
890.296	-3.07
890.467	-3.07
890.638	-5.12
890.809	-3.07
890.98	27.65
891.151	11.26
891.323	93.18
891.494	17.41
891.665	-13.31
891.836	35.84
892.007	9.22
892.178	25.6
892.349	41.98
892.52	29.7
892.691	80.89
892.862	-44.03
893.032	5.12
893.203	9.22
893.374	25.6
893.545	13.31
893.716	29.7
893.887	39.94
894.057	-1.02
894.228	25.6
894.399	-13.31
894.57	13.31
894.74	-25.6
894.911	-62.46
895.082	-17.41
895.253	-37.89
895.423	21.5
895.594	70.65
895.764	-25.6
895.935	-17.41
896.106	-11.26
896.276	-29.7
896.447	13.31
896.617	27.65
896.788	-29.7
896.958	-35.84
897.129	-46.08
897.299	17.41
897.47	54.27
897.64	-15.36
897.81	-31.74
897.981	25.6
898.151	56.32
898.322	21.5
898.492	31.74
898.662	-5.12
898.832	76.8
899.003	-19.46
899.173	23.55
899.343	5.12
899.513	-39.94
