Data from USB4F104151__59__10-23-53-563.txt Node

Date: Wed Mar 12 10:23:53 EDT 2025
User: louis
Spectrometer: USB4F10415
Trigger mode: 4
Integration Time (sec): 3.000000E-2
Scans to average: 1
Electric dark correction enabled: true
Nonlinearity correction enabled: false
Boxcar width: 0
XAxis mode: Wavelengths
Number of Pixels in Spectrum: 3648
>>>>>Begin Spectral Data<<<<<
178.204	-76.12
178.424	-76.12
178.644	-76.12
178.864	-102.74
179.084	-82.26
179.304	32.43
179.524	-31.06
179.744	42.67
179.964	83.63
180.184	-65.88
180.404	-39.25
180.624	42.67
180.844	7.85
181.064	-24.92
181.283	-47.44
181.503	-2.39
181.723	1.71
181.943	-20.82
182.163	32.43
182.383	67.24
182.602	24.23
182.822	83.63
183.042	28.33
183.262	32.43
183.482	-55.64
183.701	24.23
183.921	7.85
184.141	-35.16
184.361	42.67
184.58	16.04
184.8	13.99
185.02	5.8
185.239	46.76
185.459	57
185.679	100.01
185.898	59.05
186.118	16.04
186.338	-43.35
186.557	57
186.777	18.09
186.997	44.71
187.216	1.71
187.436	16.04
187.655	30.38
187.875	61.1
188.095	-39.25
188.314	106.15
188.534	79.53
188.753	-39.25
188.973	46.76
189.192	132.78
189.412	7.85
189.631	79.53
189.851	-72.02
190.07	46.76
190.29	-59.73
190.509	13.99
190.729	16.04
190.948	59.05
191.168	67.24
191.387	63.15
191.607	-43.35
191.826	-74.07
192.045	-8.53
192.265	9.9
192.484	50.86
192.704	79.53
192.923	-10.58
193.142	71.34
193.362	122.54
193.581	44.71
193.8	24.23
194.02	-16.73
194.239	-41.3
194.458	3.75
194.678	-10.58
194.897	50.86
195.116	-39.25
195.335	-22.87
195.555	11.95
195.774	3.75
195.993	-16.73
196.212	20.14
196.432	20.14
196.651	71.34
196.87	28.33
197.089	67.24
197.308	48.81
197.528	48.81
197.747	-45.4
197.966	9.9
198.185	93.87
198.404	-31.06
198.623	18.09
198.842	34.47
199.062	57
199.281	63.15
199.5	102.06
199.719	46.76
199.938	83.63
200.157	5.8
200.376	-2.39
200.595	69.29
200.814	7.85
201.033	-14.68
201.252	61.1
201.471	77.48
201.69	59.05
201.909	9.9
202.128	97.96
202.347	65.19
202.566	-57.68
202.785	-18.77
203.004	11.95
203.223	57
203.442	42.67
203.661	44.71
203.879	24.23
204.098	42.67
204.317	-14.68
204.536	34.47
204.755	7.85
204.974	20.14
205.193	110.25
205.411	52.91
205.63	95.91
205.849	59.05
206.068	-20.82
206.287	-24.92
206.505	59.05
206.724	-22.87
206.943	87.72
207.162	26.28
207.381	75.43
207.599	75.43
207.818	22.19
208.037	40.62
208.255	5.8
208.474	32.43
208.693	73.39
208.911	65.19
209.13	147.11
209.349	40.62
209.567	1.71
209.786	16.04
210.005	91.82
210.223	36.52
210.442	-29.01
210.661	48.81
210.879	13.99
211.098	18.09
211.316	42.67
211.535	44.71
211.753	-2.39
211.972	48.81
212.191	-2.39
212.409	42.67
212.628	30.38
212.846	-22.87
213.065	20.14
213.283	46.76
213.502	-24.92
213.72	16.04
213.938	-24.92
214.157	40.62
214.375	44.71
214.594	-18.77
214.812	20.14
215.031	-39.25
215.249	50.86
215.467	57
215.686	118.44
215.904	85.67
216.122	59.05
216.341	36.52
216.559	28.33
216.778	161.45
216.996	48.81
217.214	24.23
217.432	26.28
217.651	-20.82
217.869	50.86
218.087	71.34
218.306	-41.3
218.524	42.67
218.742	38.57
218.96	159.4
219.179	24.23
219.397	63.15
219.615	24.23
219.833	97.96
220.051	13.99
220.27	-33.11
220.488	38.57
220.706	46.76
220.924	38.57
221.142	79.53
221.36	18.09
221.578	28.33
221.796	34.47
222.015	22.19
222.233	-6.49
222.451	54.95
222.669	-57.68
222.887	67.24
223.105	-33.11
223.323	48.81
223.541	24.23
223.759	77.48
223.977	18.09
224.195	-14.68
224.413	-6.49
224.631	87.72
224.849	46.76
225.067	1.71
225.285	36.52
225.503	26.28
225.721	26.28
225.939	36.52
226.157	18.09
226.375	114.34
226.592	-47.44
226.81	73.39
227.028	57
227.246	16.04
227.464	54.95
227.682	114.34
227.9	79.53
228.117	71.34
228.335	79.53
228.553	65.19
228.771	50.86
228.989	71.34
229.206	54.95
229.424	120.49
229.642	-16.73
229.86	5.8
230.077	34.47
230.295	26.28
230.513	40.62
230.731	-0.34
230.948	57
231.166	40.62
231.384	-51.54
231.601	40.62
231.819	79.53
232.037	-26.96
232.254	30.38
232.472	48.81
232.689	46.76
232.907	24.23
233.125	16.04
233.342	11.95
233.56	54.95
233.777	63.15
233.995	57
234.213	95.91
234.43	87.72
234.648	95.91
234.865	42.67
235.083	22.19
235.3	5.8
235.518	48.81
235.735	59.05
235.953	89.77
236.17	26.28
236.388	-39.25
236.605	13.99
236.822	97.96
237.04	108.2
237.257	38.57
237.475	16.04
237.692	134.82
237.909	16.04
238.127	83.63
238.344	46.76
238.562	18.09
238.779	13.99
238.996	-29.01
239.214	75.43
239.431	42.67
239.648	32.43
239.865	26.28
240.083	7.85
240.3	11.95
240.517	48.81
240.735	-55.64
240.952	42.67
241.169	75.43
241.386	-20.82
241.603	26.28
241.821	-20.82
242.038	50.86
242.255	16.04
242.472	52.91
242.689	65.19
242.907	11.95
243.124	24.23
243.341	36.52
243.558	26.28
243.775	67.24
243.992	-14.68
244.209	1.71
244.426	75.43
244.643	36.52
244.86	-31.06
245.078	22.19
245.295	-0.34
245.512	24.23
245.729	44.71
245.946	46.76
246.163	32.43
246.38	-26.96
246.597	-6.49
246.814	42.67
247.031	9.9
247.248	-24.92
247.464	-49.49
247.681	48.81
247.898	46.76
248.115	-4.44
248.332	18.09
248.549	54.95
248.766	79.53
248.983	91.82
249.2	100.01
249.417	59.05
249.633	104.11
249.85	3.75
250.067	-14.68
250.284	13.99
250.501	63.15
250.717	124.58
250.934	20.14
251.151	-41.3
251.368	50.86
251.585	57
251.801	54.95
252.018	40.62
252.235	67.24
252.451	22.19
252.668	-18.77
252.885	108.2
253.102	7.85
253.318	26.28
253.535	11.95
253.752	108.2
253.968	48.81
254.185	-31.06
254.401	-6.49
254.618	81.58
254.835	-10.58
255.051	38.57
255.268	-20.82
255.484	-59.73
255.701	-4.44
255.917	57
256.134	18.09
256.351	83.63
256.567	-8.53
256.784	11.95
257	48.81
257.217	48.81
257.433	63.15
257.65	81.58
257.866	54.95
258.082	36.52
258.299	-31.06
258.515	54.95
258.732	22.19
258.948	40.62
259.165	108.2
259.381	-8.53
259.597	54.95
259.814	-37.2
260.03	54.95
260.246	9.9
260.463	38.57
260.679	110.25
260.895	18.09
261.112	57
261.328	-41.3
261.544	85.67
261.761	59.05
261.977	-43.35
262.193	24.23
262.409	-8.53
262.626	-31.06
262.842	87.72
263.058	40.62
263.274	69.29
263.49	87.72
263.707	34.47
263.923	7.85
264.139	22.19
264.355	38.57
264.571	57
264.787	50.86
265.004	59.05
265.22	126.63
265.436	-29.01
265.652	-22.87
265.868	93.87
266.084	-2.39
266.3	46.76
266.516	-0.34
266.732	34.47
266.948	50.86
267.164	-2.39
267.38	7.85
267.596	42.67
267.812	120.49
268.028	132.78
268.244	73.39
268.46	102.06
268.676	57
268.892	87.72
269.108	-24.92
269.324	16.04
269.54	61.1
269.756	11.95
269.972	22.19
270.188	-18.77
270.403	1.71
270.619	81.58
270.835	34.47
271.051	77.48
271.267	-41.3
271.483	-16.73
271.698	38.57
271.914	24.23
272.13	-31.06
272.346	1.71
272.562	34.47
272.777	67.24
272.993	65.19
273.209	5.8
273.425	32.43
273.64	65.19
273.856	-2.39
274.072	54.95
274.287	30.38
274.503	13.99
274.719	71.34
274.934	-4.44
275.15	11.95
275.366	3.75
275.581	34.47
275.797	42.67
276.012	52.91
276.228	7.85
276.444	-35.16
276.659	65.19
276.875	5.8
277.09	48.81
277.306	32.43
277.521	46.76
277.737	73.39
277.952	13.99
278.168	42.67
278.383	83.63
278.599	1.71
278.814	16.04
279.03	77.48
279.245	36.52
279.461	75.43
279.676	93.87
279.892	22.19
280.107	73.39
280.322	-24.92
280.538	18.09
280.753	3.75
280.969	48.81
281.184	18.09
281.399	-57.68
281.615	75.43
281.83	63.15
282.045	-0.34
282.26	155.3
282.476	46.76
282.691	5.8
282.906	22.19
283.122	20.14
283.337	-6.49
283.552	132.78
283.767	24.23
283.983	34.47
284.198	16.04
284.413	-8.53
284.628	-2.39
284.843	16.04
285.058	57
285.274	5.8
285.489	75.43
285.704	32.43
285.919	46.76
286.134	40.62
286.349	24.23
286.564	16.04
286.779	54.95
286.995	38.57
287.21	59.05
287.425	73.39
287.64	20.14
287.855	95.91
288.07	5.8
288.285	46.76
288.5	63.15
288.715	89.77
288.93	-16.73
289.145	40.62
289.36	44.71
289.575	-0.34
289.79	77.48
290.004	46.76
290.219	85.67
290.434	-2.39
290.649	1.71
290.864	-22.87
291.079	5.8
291.294	9.9
291.509	59.05
291.724	38.57
291.938	46.76
292.153	63.15
292.368	54.95
292.583	120.49
292.798	59.05
293.012	36.52
293.227	11.95
293.442	30.38
293.657	87.72
293.871	42.67
294.086	73.39
294.301	100.01
294.516	28.33
294.73	42.67
294.945	26.28
295.16	-18.77
295.374	73.39
295.589	5.8
295.804	65.19
296.018	36.52
296.233	-20.82
296.447	20.14
296.662	7.85
296.877	26.28
297.091	-6.49
297.306	77.48
297.52	34.47
297.735	28.33
297.949	-6.49
298.164	75.43
298.378	40.62
298.593	-16.73
298.807	67.24
299.022	-0.34
299.236	126.63
299.451	65.19
299.665	-39.25
299.88	52.91
300.094	50.86
300.309	24.23
300.523	26.28
300.737	7.85
300.952	3.75
301.166	40.62
301.381	26.28
301.595	26.28
301.809	54.95
302.024	50.86
302.238	-59.73
302.452	110.25
302.667	36.52
302.881	83.63
303.095	59.05
303.309	18.09
303.524	-20.82
303.738	9.9
303.952	9.9
304.166	75.43
304.381	28.33
304.595	44.71
304.809	22.19
305.023	38.57
305.237	13.99
305.452	32.43
305.666	50.86
305.88	38.57
306.094	-2.39
306.308	-20.82
306.522	83.63
306.736	9.9
306.95	50.86
307.164	44.71
307.379	38.57
307.593	48.81
307.807	75.43
308.021	46.76
308.235	50.86
308.449	50.86
308.663	34.47
308.877	100.01
309.091	83.63
309.305	57
309.519	16.04
309.733	44.71
309.947	-6.49
310.161	34.47
310.374	59.05
310.588	73.39
310.802	11.95
311.016	-10.58
311.23	95.91
311.444	28.33
311.658	-2.39
311.872	87.72
312.085	54.95
312.299	79.53
312.513	67.24
312.727	73.39
312.941	13.99
313.154	1.71
313.368	44.71
313.582	100.01
313.796	28.33
314.009	1.71
314.223	95.91
314.437	95.91
314.651	-12.63
314.864	59.05
315.078	1.71
315.292	42.67
315.505	75.43
315.719	5.8
315.933	65.19
316.146	46.76
316.36	54.95
316.573	32.43
316.787	161.45
317.001	54.95
317.214	42.67
317.428	59.05
317.641	34.47
317.855	26.28
318.068	59.05
318.282	9.9
318.495	42.67
318.709	100.01
318.922	48.81
319.136	46.76
319.349	1.71
319.563	59.05
319.776	48.81
319.99	40.62
320.203	46.76
320.417	104.11
320.63	89.77
320.843	190.12
321.057	81.58
321.27	112.3
321.483	34.47
321.697	104.11
321.91	-24.92
322.124	16.04
322.337	87.72
322.55	46.76
322.763	9.9
322.977	9.9
323.19	38.57
323.403	81.58
323.617	75.43
323.83	95.91
324.043	16.04
324.256	81.58
324.469	-8.53
324.683	100.01
324.896	13.99
325.109	42.67
325.322	50.86
325.535	36.52
325.748	73.39
325.962	95.91
326.175	34.47
326.388	22.19
326.601	114.34
326.814	-2.39
327.027	87.72
327.24	52.91
327.453	50.86
327.666	63.15
327.879	75.43
328.092	3.75
328.305	59.05
328.518	57
328.731	44.71
328.944	114.34
329.157	30.38
329.37	67.24
329.583	46.76
329.796	42.67
330.009	67.24
330.222	79.53
330.435	38.57
330.648	42.67
330.861	69.29
331.073	97.96
331.286	57
331.499	83.63
331.712	-24.92
331.925	83.63
332.138	34.47
332.35	83.63
332.563	-37.2
332.776	79.53
332.989	-4.44
333.202	5.8
333.414	106.15
333.627	9.9
333.84	20.14
334.053	73.39
334.265	38.57
334.478	20.14
334.691	75.43
334.903	104.11
335.116	52.91
335.329	97.96
335.541	44.71
335.754	112.3
335.966	26.28
336.179	85.67
336.392	5.8
336.604	42.67
336.817	40.62
337.029	81.58
337.242	81.58
337.454	81.58
337.667	67.24
337.88	91.82
338.092	32.43
338.305	46.76
338.517	32.43
338.729	-8.53
338.942	36.52
339.154	13.99
339.367	36.52
339.579	16.04
339.792	71.34
340.004	122.54
340.217	26.28
340.429	42.67
340.641	-26.96
340.854	50.86
341.066	46.76
341.278	132.78
341.491	61.1
341.703	7.85
341.915	32.43
342.128	71.34
342.34	-29.01
342.552	38.57
342.764	38.57
342.977	71.34
343.189	100.01
343.401	38.57
343.613	46.76
343.826	100.01
344.038	81.58
344.25	95.91
344.462	50.86
344.674	38.57
344.886	69.29
345.099	91.82
345.311	75.43
345.523	69.29
345.735	-16.73
345.947	91.82
346.159	63.15
346.371	95.91
346.583	73.39
346.795	149.16
347.007	40.62
347.219	26.28
347.431	57
347.643	85.67
347.855	59.05
348.067	22.19
348.279	38.57
348.491	65.19
348.703	91.82
348.915	69.29
349.127	9.9
349.339	50.86
349.551	-4.44
349.763	89.77
349.975	-6.49
350.187	138.92
350.399	46.76
350.61	69.29
350.822	177.83
351.034	46.76
351.246	34.47
351.458	30.38
351.669	89.77
351.881	54.95
352.093	59.05
352.305	120.49
352.517	57
352.728	81.58
352.94	108.2
353.152	87.72
353.363	59.05
353.575	-0.34
353.787	24.23
353.999	61.1
354.21	83.63
354.422	34.47
354.633	38.57
354.845	77.48
355.057	75.43
355.268	26.28
355.48	63.15
355.692	40.62
355.903	26.28
356.115	-35.16
356.326	-14.68
356.538	77.48
356.749	50.86
356.961	126.63
357.172	-2.39
357.384	18.09
357.595	75.43
357.807	95.91
358.018	30.38
358.23	67.24
358.441	153.26
358.653	110.25
358.864	-20.82
359.075	-22.87
359.287	124.58
359.498	54.95
359.709	79.53
359.921	-14.68
360.132	40.62
360.344	30.38
360.555	28.33
360.766	42.67
360.977	59.05
361.189	5.8
361.4	-10.58
361.611	140.97
361.823	54.95
362.034	59.05
362.245	-41.3
362.456	85.67
362.667	93.87
362.879	-2.39
363.09	89.77
363.301	65.19
363.512	61.1
363.723	46.76
363.935	18.09
364.146	59.05
364.357	38.57
364.568	32.43
364.779	42.67
364.99	67.24
365.201	54.95
365.412	112.3
365.623	-53.59
365.834	18.09
366.045	26.28
366.256	108.2
366.467	89.77
366.678	-0.34
366.889	46.76
367.1	-22.87
367.311	87.72
367.522	42.67
367.733	44.71
367.944	79.53
368.155	-4.44
368.366	59.05
368.577	81.58
368.788	81.58
368.999	85.67
369.209	59.05
369.42	36.52
369.631	91.82
369.842	50.86
370.053	11.95
370.264	54.95
370.474	71.34
370.685	38.57
370.896	20.14
371.107	118.44
371.317	75.43
371.528	54.95
371.739	118.44
371.95	57
372.16	44.71
372.371	40.62
372.582	57
372.792	79.53
373.003	9.9
373.214	79.53
373.424	71.34
373.635	75.43
373.846	1.71
374.056	128.68
374.267	67.24
374.477	95.91
374.688	46.76
374.898	9.9
375.109	100.01
375.319	128.68
375.53	71.34
375.74	108.2
375.951	54.95
376.161	5.8
376.372	50.86
376.582	24.23
376.793	97.96
377.003	81.58
377.214	108.2
377.424	85.67
377.635	69.29
377.845	18.09
378.055	75.43
378.266	59.05
378.476	-57.68
378.686	42.67
378.897	100.01
379.107	36.52
379.317	57
379.528	13.99
379.738	48.81
379.948	-4.44
380.158	91.82
380.369	-10.58
380.579	163.5
380.789	52.91
380.999	63.15
381.21	73.39
381.42	149.16
381.63	50.86
381.84	108.2
382.05	120.49
382.261	73.39
382.471	89.77
382.681	36.52
382.891	13.99
383.101	163.5
383.311	100.01
383.521	48.81
383.731	116.39
383.941	120.49
384.151	11.95
384.361	48.81
384.571	83.63
384.781	59.05
384.991	112.3
385.201	65.19
385.411	85.67
385.621	67.24
385.831	67.24
386.041	24.23
386.251	71.34
386.461	67.24
386.671	40.62
386.881	136.87
387.091	63.15
387.301	128.68
387.511	89.77
387.72	30.38
387.93	122.54
388.14	67.24
388.35	83.63
388.56	110.25
388.769	149.16
388.979	110.25
389.189	59.05
389.399	132.78
389.609	59.05
389.818	106.15
390.028	69.29
390.238	93.87
390.447	-4.44
390.657	42.67
390.867	63.15
391.076	34.47
391.286	83.63
391.496	102.06
391.705	91.82
391.915	54.95
392.125	157.35
392.334	34.47
392.544	110.25
392.753	85.67
392.963	7.85
393.172	87.72
393.382	42.67
393.591	124.58
393.801	93.87
394.01	138.92
394.22	91.82
394.429	85.67
394.639	87.72
394.848	100.01
395.058	108.2
395.267	122.54
395.477	190.12
395.686	171.69
395.895	132.78
396.105	116.39
396.314	153.26
396.524	128.68
396.733	50.86
396.942	106.15
397.152	220.84
397.361	149.16
397.57	163.5
397.78	112.3
397.989	140.97
398.198	153.26
398.407	85.67
398.617	136.87
398.826	16.04
399.035	81.58
399.244	134.82
399.453	87.72
399.663	102.06
399.872	122.54
400.081	163.5
400.29	171.69
400.499	104.11
400.708	183.98
400.917	114.34
401.127	112.3
401.336	73.39
401.545	222.89
401.754	292.52
401.963	161.45
402.172	104.11
402.381	26.28
402.59	128.68
402.799	169.64
403.008	128.68
403.217	91.82
403.426	112.3
403.635	138.92
403.844	181.93
404.053	235.18
404.262	202.41
404.471	216.74
404.68	216.74
404.888	108.2
405.097	169.64
405.306	241.32
405.515	220.84
405.724	186.02
405.933	220.84
406.142	218.79
406.35	247.46
406.559	263.85
406.768	151.21
406.977	245.41
407.185	286.37
407.394	286.37
407.603	220.84
407.812	257.7
408.02	243.37
408.229	269.99
408.438	267.94
408.646	239.27
408.855	222.89
409.064	272.04
409.272	321.19
409.481	290.47
409.69	362.15
409.898	337.57
410.107	368.29
410.315	386.72
410.524	349.86
410.733	388.77
410.941	444.07
411.15	390.82
411.358	433.83
411.567	470.69
411.775	480.93
411.984	431.78
412.192	521.89
412.401	534.18
412.609	489.12
412.818	552.61
413.026	603.81
413.234	536.23
413.443	587.43
413.651	673.44
413.86	695.97
414.068	665.25
414.276	786.08
414.485	745.12
414.693	777.89
414.901	747.17
415.11	863.9
415.318	822.94
415.526	880.29
415.734	837.28
415.943	904.86
416.151	1029.79
416.359	906.91
416.567	980.64
416.776	1033.88
416.984	1140.38
417.192	1146.52
417.4	1171.1
417.608	1115.8
417.817	1177.24
418.025	1316.5
418.233	1437.33
418.441	1433.24
418.649	1390.23
418.857	1459.86
419.065	1554.07
419.273	1431.19
419.481	1568.4
419.689	1631.89
419.897	1707.66
420.105	1683.09
420.313	1957.52
420.521	1930.89
420.729	1857.17
420.937	2014.86
421.145	2074.25
421.353	2051.72
421.561	2238.09
421.769	2291.34
421.977	2442.89
422.185	2281.1
422.393	2506.37
422.601	2627.2
422.809	2668.16
423.017	2705.03
423.224	2782.85
423.432	3004.03
423.64	2819.71
423.848	3155.58
424.056	3088
424.263	3393.14
424.471	3288.7
424.679	3309.18
424.887	3573.36
425.094	3700.34
425.302	3702.39
425.51	3743.35
425.718	4032.11
425.925	4095.6
426.133	4105.84
426.341	4318.82
426.548	4513.38
426.756	4509.29
426.964	4509.29
427.171	4955.74
427.379	5004.89
427.586	5033.57
427.794	5338.71
428.001	5486.17
428.209	5774.93
428.417	5633.62
428.624	6190.67
428.832	6153.8
429.039	6069.84
429.247	6157.9
429.454	6661.7
429.662	7009.86
429.869	6567.49
430.076	7075.39
430.284	6901.31
430.491	7278.14
430.699	7446.07
430.906	7536.18
431.114	7659.06
431.321	8035.89
431.528	8117.81
431.736	8574.5
431.943	9178.65
432.15	8711.72
432.358	8865.32
432.565	9342.49
432.772	9287.2
432.979	9602.58
433.187	9926.16
433.394	10182.16
433.601	10733.06
433.808	10692.1
434.016	10606.09
434.223	10987.01
434.43	11728.38
434.637	11517.43
434.844	12160.5
435.052	12324.33
435.259	12396.01
435.466	12389.87
435.673	12367.34
435.88	12991.97
436.087	13864.41
436.294	13919.7
436.501	13483.48
436.708	13716.95
436.915	14112.21
437.122	14976.45
437.329	14908.87
437.537	15273.41
437.743	15580.6
437.95	15281.6
438.157	16096.69
438.364	16698.8
438.571	16819.63
438.778	16971.18
438.985	18298.26
439.192	17589.66
439.399	18101.65
439.606	17606.05
439.813	18714
440.02	20065.66
440.227	19776.89
440.433	19275.14
440.64	20118.9
440.847	19860.86
441.054	20540.79
441.261	21822.81
441.467	21683.55
441.674	21718.37
441.881	22746.45
442.088	22512.98
442.294	22371.67
442.501	23207.24
442.708	23409.99
442.914	24560.95
443.121	25328.94
443.328	24818.99
443.534	26686.74
443.741	25605.41
443.948	25363.75
444.154	27125
444.361	26979.6
444.568	27403.53
444.774	27274.51
444.981	27542.79
445.187	28396.79
445.394	29576.42
445.6	28970.22
445.807	32091.33
446.013	30311.64
446.22	30907.6
446.426	32263.36
446.633	32367.8
446.839	33787.05
447.046	32433.34
447.252	33963.17
447.459	34022.56
447.665	33496.24
447.871	35077.27
448.078	36711.55
448.284	34686.11
448.491	35691.66
448.697	37137.52
448.903	38276.19
449.11	37776.49
449.316	37256.31
449.522	37786.73
449.728	38802.52
449.935	38724.7
450.141	39031.9
450.347	40203.33
450.553	38677.6
450.76	39107.67
450.966	40068.17
451.172	39664.72
451.378	41241.65
451.584	39859.27
451.791	40920.12
451.997	41006.14
452.203	41368.63
452.409	41522.23
452.615	41159.73
452.821	39398.48
453.027	39232.6
453.233	41090.1
453.44	39683.15
453.646	40217.67
453.852	39937.1
454.058	40539.2
454.264	39031.9
454.47	39849.03
454.676	39384.15
454.882	40412.23
455.088	37059.7
455.294	37727.34
455.5	37958.76
455.705	38419.55
455.911	36940.92
456.117	36269.19
456.323	35611.79
456.529	34063.52
456.735	35036.31
456.941	34333.85
457.147	33764.52
457.352	32726.2
457.558	32314.56
457.764	32556.22
457.97	31839.43
458.176	31087.82
458.381	31315.15
458.587	29330.67
458.793	29244.65
458.999	27956.48
459.204	29969.63
459.41	29291.76
459.616	27165.96
459.821	26967.31
460.027	26819.86
460.233	26567.96
460.438	25224.49
460.644	25281.83
460.85	24511.8
461.055	24012.09
461.261	24263.99
461.466	22295.89
461.672	21581.15
461.878	23237.96
462.083	21597.54
462.289	21439.84
462.494	21028.2
462.7	20104.57
462.905	19588.48
463.111	20104.57
463.316	20340.08
463.522	19785.08
463.727	20065.66
463.932	19434.88
464.138	19443.07
464.343	19733.89
464.549	19162.5
464.754	20053.37
464.959	19748.22
465.165	19617.15
465.37	18781.58
465.575	18111.89
465.781	18623.89
465.986	18898.31
466.191	18038.17
466.397	18056.6
466.602	17182.12
466.807	17493.41
467.012	17573.28
467.218	18046.36
467.423	17634.72
467.628	17829.27
467.833	18294.16
468.038	17677.72
468.244	17040.81
468.449	17728.92
468.654	17102.25
468.859	17184.16
469.064	17059.24
469.269	16465.33
469.474	16465.33
469.679	16784.81
469.885	16104.88
470.09	16549.29
470.295	16350.64
470.5	16151.99
470.705	16123.32
470.91	15723.96
471.115	15537.6
471.32	16057.78
471.525	15914.42
471.73	15527.36
471.935	15254.98
472.139	14706.12
472.344	15023.56
472.549	14892.49
472.754	14878.15
472.959	14374.35
473.164	13987.29
473.369	13913.56
473.574	14357.97
473.778	14063.06
473.983	14167.51
474.188	13784.54
474.393	13286.88
474.598	13594.08
474.802	13514.2
475.007	13108.71
475.212	13190.63
475.417	12860.9
475.621	12533.23
475.826	12858.85
476.031	12684.78
476.235	12451.31
476.44	12709.35
476.645	12185.07
476.849	12307.95
477.054	12187.12
477.259	11957.75
477.463	12021.24
477.668	11740.66
477.872	11900.41
478.077	11722.23
478.282	11263.49
478.486	11404.8
478.691	11382.27
478.895	11353.6
479.1	11042.31
479.304	11179.52
479.509	10888.71
479.713	11118.08
479.918	10921.48
480.122	10956.29
480.326	10577.42
480.531	10946.05
480.735	10567.18
480.94	10606.09
481.144	10962.44
481.348	10286.61
481.553	10311.18
481.757	10298.89
481.961	10540.55
482.166	10698.25
482.37	10501.64
482.574	10190.35
482.778	10421.77
482.983	10528.27
483.187	10620.42
483.391	10614.28
483.595	10294.8
483.8	10194.45
484.004	10294.8
484.208	10524.17
484.412	10370.57
484.616	10499.59
484.821	10606.09
485.025	10071.57
485.229	10503.69
485.433	10227.21
485.637	10550.79
485.841	10286.61
486.045	10176.02
486.249	10470.92
486.453	10200.59
486.657	10341.9
486.861	10472.97
487.065	9960.98
487.269	10335.76
487.473	10364.43
487.677	10774.02
487.881	10464.78
488.085	10442.25
488.289	10503.69
488.493	10354.19
488.697	10618.38
488.901	10462.73
489.105	10446.35
489.309	10479.11
489.512	10620.42
489.716	10470.92
489.92	10563.08
490.124	10409.48
490.328	10907.14
490.531	10774.02
490.735	10563.08
490.939	10806.79
491.143	10774.02
491.346	10862.08
491.55	10880.52
491.754	10948.1
491.958	10974.72
492.161	10989.06
492.365	11054.59
492.569	11003.39
492.772	11193.86
492.976	11271.68
493.18	11093.51
493.383	11466.24
493.587	11464.19
493.79	11392.51
493.994	11503.1
494.197	11603.45
494.401	11542.01
494.605	11605.5
494.808	11763.19
495.012	12011
495.215	12070.39
495.419	11861.49
495.622	11990.52
495.825	11978.23
496.029	12264.94
496.232	12674.54
496.436	12510.7
496.639	12895.72
496.843	12649.96
497.046	12830.18
497.249	13149.67
497.453	13063.65
497.656	13368.8
497.859	13364.7
498.063	13417.95
498.266	13739.48
498.469	13659.61
498.673	13774.3
498.876	14085.59
499.079	14394.83
499.282	14079.44
499.485	14687.69
499.689	14560.72
499.892	15087.04
500.095	14955.97
500.298	15171.01
500.501	15105.48
500.705	15318.46
500.908	15562.17
501.111	15959.48
501.314	15881.66
501.517	16117.17
501.72	16309.68
501.923	16397.74
502.126	16956.84
502.329	17165.73
502.532	17221.03
502.735	17132.97
502.938	17403.3
503.141	17499.55
503.344	17821.08
503.547	17886.62
503.75	18136.47
503.953	18431.38
504.156	18566.54
504.359	19051.91
504.562	18998.66
504.765	19488.13
504.968	19373.44
505.17	19766.65
505.373	19850.62
505.576	20247.93
505.779	20475.25
505.982	20489.59
506.185	20585.84
506.387	20899.18
506.59	21095.78
506.793	21716.32
506.996	21417.32
507.198	22113.63
507.401	22093.15
507.604	22160.73
507.807	22732.11
508.009	22721.87
508.212	22981.96
508.415	23143.75
508.617	23733.57
508.82	23397.7
509.022	23442.76
509.225	24091.96
509.428	24393.01
509.63	24782.13
509.833	24796.46
510.035	25251.11
510.238	25419.05
510.44	25611.56
510.643	25851.17
510.845	26017.05
511.048	25881.89
511.25	26787.09
511.453	26479.89
511.655	27731.2
511.858	27460.87
512.06	27751.68
512.262	28028.16
512.465	27968.77
512.667	28542.2
512.87	28955.89
513.072	28820.72
513.274	29306.09
513.477	29574.38
513.679	29938.91
513.881	30143.71
514.084	30549.21
514.286	30516.44
514.488	30571.74
514.69	31503.56
514.893	31419.6
515.095	31425.74
515.297	32263.36
515.499	32158.91
515.701	33025.2
515.904	33088.69
516.106	33410.22
516.308	33447.08
516.51	33926.31
516.712	34055.33
516.914	34624.67
517.116	34757.78
517.318	35259.54
517.52	35007.64
517.722	35511.44
517.925	35804.3
518.127	36471.93
518.329	36381.82
518.531	36347.01
518.733	37076.08
518.935	37676.14
519.136	37137.52
519.338	38194.28
519.54	38311.01
519.742	38542.43
519.944	38970.46
520.146	39312.47
520.348	39521.36
520.55	39875.66
520.752	40021.06
520.954	40582.21
521.155	40401.99
521.357	41393.2
521.559	41126.97
521.761	41747.5
521.963	42126.38
522.164	42105.9
522.366	42415.14
522.568	42834.97
522.77	42880.03
522.971	43492.37
523.173	43308.05
523.375	43873.29
523.576	43899.92
523.778	44018.7
523.98	44317.7
524.181	44567.55
524.383	44731.39
524.584	45120.51
524.786	45396.98
524.988	45429.75
525.189	46187.5
525.391	46423.01
525.592	46615.52
525.794	46253.03
525.995	46722.02
526.197	46775.26
526.398	46685.15
526.6	47197.15
526.801	47184.86
527.003	48149.45
527.204	48008.14
527.406	48706.5
527.607	48114.64
527.808	48301
528.01	47786.96
528.211	48174.03
528.412	49286.07
528.614	49112
528.815	49025.98
529.016	49763.25
529.218	48974.78
529.419	49460.15
529.62	49480.63
529.822	49744.82
530.023	49972.14
530.224	49777.59
530.425	49535.93
530.626	49753.01
530.828	49435.58
531.029	50482.09
531.23	49834.93
531.431	49871.79
531.632	50486.18
531.833	50451.37
532.035	50539.43
532.236	50457.51
532.437	50674.6
532.638	50037.68
532.839	50838.43
533.04	50604.97
533.241	50662.31
533.442	51430.3
533.643	51194.78
533.844	50416.55
534.045	51518.36
534.246	50557.86
534.447	51372.95
534.648	50777
534.849	51379.1
535.05	50781.09
535.251	51587.99
535.451	51026.85
535.652	51272.6
535.853	51055.52
536.054	51512.22
536.255	51522.46
536.456	50879.39
536.657	52116.37
536.857	51370.91
537.058	51157.92
537.259	51827.6
537.46	51481.5
537.66	51329.95
537.861	51354.52
538.062	51139.49
538.263	51487.64
538.463	51334.04
538.664	51362.71
538.865	51430.3
539.065	51784.6
539.266	51258.27
539.466	51712.92
539.667	50490.28
539.868	51489.69
540.068	51108.77
540.269	51248.03
540.469	51714.97
540.67	51399.58
540.87	51219.36
541.071	51176.35
541.271	51223.45
541.472	51628.95
541.672	50903.97
541.873	51243.93
542.073	50678.69
542.274	51469.21
542.474	51078.05
542.675	50953.12
542.875	51432.35
543.075	51530.65
543.276	50817.96
543.476	51628.95
543.676	51078.05
543.877	51379.1
544.077	51731.35
544.277	51436.44
544.478	50985.89
544.678	51510.17
544.878	51145.63
545.078	51114.91
545.279	50500.52
545.479	50662.31
545.679	51194.78
545.879	50762.66
546.079	50871.2
546.28	51211.17
546.48	50551.72
546.68	51153.82
546.88	50674.6
547.08	50881.44
547.28	51049.38
547.48	50138.03
547.68	51237.79
547.88	50693.03
548.081	51112.86
548.281	50871.2
548.481	50983.84
548.681	51436.44
548.881	50830.24
549.081	51174.3
549.28	50856.87
549.48	50875.3
549.68	50932.64
549.88	51202.97
550.08	50797.48
550.28	50670.5
550.48	50543.53
550.68	51176.35
550.88	50420.65
551.08	50561.96
551.279	50944.93
551.479	50506.66
551.679	50803.62
551.879	50482.09
552.079	51053.47
552.278	50244.52
552.478	49953.71
552.678	50459.56
552.878	50748.32
553.077	50025.39
553.277	50142.13
553.477	50897.83
553.676	50262.96
553.876	50480.04
554.076	50076.59
554.275	50228.14
554.475	49820.59
554.674	50248.62
554.874	50187.18
555.074	49951.66
555.273	50111.41
555.473	50639.78
555.672	50092.97
555.872	49681.33
556.071	49961.9
556.271	50199.47
556.47	49474.49
556.67	49355.71
556.869	49728.44
557.068	49900.47
557.268	49206.2
557.467	49652.66
557.667	49310.65
557.866	49542.07
558.065	49507.26
558.265	49204.16
558.464	49048.51
558.663	49783.73
558.863	48804.8
559.062	49572.79
559.261	48669.64
559.461	49490.87
559.66	48427.98
559.859	48880.58
560.058	48561.09
560.258	48673.73
560.457	48387.02
560.656	48665.54
560.855	48393.16
561.054	48286.67
561.253	48241.61
561.453	48384.97
561.652	48372.68
561.851	48858.05
562.05	48165.84
562.249	47770.58
562.448	47938.51
562.647	48124.88
562.846	48045.01
563.045	47885.26
563.244	46920.67
563.443	48026.57
563.642	47207.39
563.841	47438.81
564.04	46988.25
564.239	47639.51
564.438	46631.91
564.637	47127.52
564.836	47066.08
565.035	46459.88
565.234	47016.93
565.432	46709.73
565.631	46459.88
565.83	46615.52
566.029	46361.58
566.228	46400.49
566.427	46207.98
566.625	45773.81
566.824	45630.45
567.023	46169.07
567.222	45624.31
567.42	46044.14
567.619	45495.28
567.818	45460.47
568.016	45558.77
568.215	45319.16
568.414	44856.32
568.612	45804.53
568.811	45358.07
569.01	45329.4
569.208	44248.07
569.407	44635.14
569.605	44473.35
569.804	44594.18
570.002	44364.81
570.201	44155.91
570.4	43895.82
570.598	43848.72
570.797	43555.86
570.995	44243.98
571.193	43777.04
571.392	43977.74
571.59	42830.88
571.789	43635.73
571.987	43469.84
572.186	43162.65
572.384	42822.69
572.582	42984.47
572.781	43062.3
572.979	42636.32
573.177	42390.56
573.376	43064.35
573.574	42304.55
573.772	42744.86
573.971	42232.87
574.169	42042.41
574.367	41653.3
574.565	42302.5
574.763	42060.84
574.962	41847.85
575.16	41538.61
575.358	41849.9
575.556	41036.86
575.754	42058.79
575.952	41002.04
576.151	41667.63
576.349	40758.33
576.547	40598.59
576.745	41161.78
576.943	40922.17
577.141	40787
577.339	40555.58
577.537	40426.56
577.735	40801.34
577.933	40266.82
578.131	40438.85
578.329	39898.19
578.527	39781.45
578.725	39701.58
578.923	39693.39
579.121	39752.78
579.319	39543.89
579.516	39902.28
579.714	39380.05
579.912	38931.54
580.11	39210.07
580.308	38927.45
580.506	38757.47
580.704	38653.02
580.901	38958.17
581.099	39091.29
581.297	38362.21
581.495	38505.57
581.692	38866.01
581.89	38138.98
582.088	38628.45
582.285	38114.41
582.483	38771.8
582.681	38210.66
582.878	37887.08
583.076	37459.06
583.274	38241.38
583.471	37663.85
583.669	37528.69
583.866	37211.25
584.064	37653.61
584.262	36908.15
584.459	37305.46
584.657	37248.11
584.854	37284.98
585.052	36562.04
585.249	36977.78
585.447	36719.74
585.644	36129.92
585.841	36699.26
586.039	36510.85
586.236	36711.55
586.434	36260.99
586.631	36007.05
586.828	36174.98
587.026	35994.76
587.223	35918.98
587.42	35720.33
587.618	35990.66
587.815	35644.55
588.012	35550.35
588.21	34989.2
588.407	35572.88
588.604	35069.08
588.801	34962.58
588.999	34935.96
589.196	34839.7
589.393	34632.86
589.59	34350.24
589.787	34544.8
589.984	34659.48
590.182	33993.89
590.379	34792.6
590.576	34163.87
590.773	34237.6
590.97	33957.03
591.167	34143.39
591.364	33535.15
591.561	33918.12
591.758	33623.21
591.955	33146.03
592.152	33602.73
592.349	33350.83
592.546	33215.66
592.743	33445.04
592.94	32541.88
593.137	33109.17
593.334	33098.93
593.531	32474.3
593.727	32941.24
593.924	32824.5
594.121	32574.65
594.318	32607.42
594.515	31933.64
594.712	32527.55
594.908	32568.51
595.105	32423.1
595.302	32042.18
595.499	32158.91
595.696	31691.98
595.892	31786.18
596.089	31853.76
596.286	31737.03
596.482	31638.73
596.679	31646.92
596.876	31356.11
597.072	30817.49
597.269	31382.73
597.466	31020.24
597.662	30987.47
597.859	30969.04
598.055	31182.03
598.252	30985.43
598.448	30817.49
598.645	30495.96
598.841	30387.42
599.038	30620.89
599.234	30315.74
599.431	30336.22
599.627	30389.47
599.824	30174.43
600.02	29955.3
600.217	30291.16
600.413	29578.47
600.609	29777.12
600.806	29631.72
601.002	29467.88
601.198	29191.41
601.395	29510.89
601.591	28908.79
601.787	29115.63
601.984	29281.52
602.18	29248.75
602.376	28873.97
602.572	29076.72
602.769	28888.31
602.965	28398.84
603.161	28579.06
603.357	28638.45
603.553	28560.63
603.75	28644.6
603.946	28140.8
604.142	28273.92
604.338	27659.52
604.534	28046.59
604.73	27669.76
604.926	28015.87
605.122	27813.12
605.318	27665.67
605.514	27364.62
605.71	27655.43
605.906	27591.94
606.102	26873.1
606.298	27546.89
606.494	27405.58
606.69	27299.08
606.886	27231.5
607.082	26871.06
607.278	27178.25
607.474	26754.32
607.67	27178.25
607.866	26416.41
608.062	27221.26
608.257	26637.59
608.453	26627.35
608.649	26613.01
608.845	26221.85
609.041	26696.98
609.236	26412.31
609.432	26336.54
609.628	26361.11
609.824	26287.39
610.019	26187.04
610.215	26191.13
610.411	26395.93
610.606	25777.44
610.802	26461.46
610.998	26232.09
611.193	25834.78
611.389	25685.28
611.584	25863.46
611.78	25693.47
611.976	25978.14
612.171	25959.71
612.367	25593.12
612.562	25453.86
612.758	25081.13
612.953	25150.76
613.149	25462.05
613.344	24890.67
613.539	25490.73
613.735	25009.45
613.93	25216.3
614.126	24880.43
614.321	25154.86
614.517	24802.61
614.712	25013.55
614.907	24902.96
615.103	24862
615.298	24673.59
615.493	25253.16
615.688	24507.7
615.884	25122.09
616.079	24173.88
616.274	24732.98
616.47	24644.91
616.665	24556.85
616.86	24855.86
617.055	24415.54
617.25	24155.45
617.445	24558.9
617.641	23964.99
617.836	24147.26
618.031	23846.21
618.226	23713.09
618.421	23889.21
618.616	23803.2
618.811	23586.11
619.006	24081.72
619.201	23088.46
619.396	23504.2
619.591	23344.45
619.786	23508.29
619.981	22725.97
620.176	23203.14
620.371	22953.29
620.566	23145.8
620.761	22879.57
620.956	22832.46
621.151	22420.82
621.346	22881.61
621.541	22185.3
621.735	22228.31
621.93	22064.47
622.125	21914.97
622.32	22021.47
622.515	21880.16
622.709	21720.42
622.904	21742.94
623.099	21536.1
623.294	21417.32
623.488	21378.4
623.683	21626.21
623.878	20985.19
624.072	21124.46
624.267	21257.57
624.462	20800.88
624.656	20827.5
624.851	20782.45
625.046	20743.53
625.24	20469.11
625.435	20018.55
625.629	20067.7
625.824	20348.28
626.018	19979.64
626.213	19654.01
626.407	19762.56
626.602	19461.51
626.796	19815.8
626.991	19320.2
627.185	19334.53
627.38	19436.93
627.574	19127.69
627.768	19109.26
627.963	19133.83
628.157	18865.55
628.352	18779.53
628.546	18693.52
628.74	18593.17
628.935	18732.43
629.129	18199.96
629.323	18107.8
629.517	18042.26
629.712	18343.31
629.906	18009.5
630.1	18025.88
630.294	17773.98
630.489	17563.04
630.683	17558.94
630.877	17434.02
631.071	17534.37
631.265	17397.15
631.459	17309.09
631.653	16997.8
631.848	17014.18
632.042	17005.99
632.236	17028.52
632.43	16790.95
632.624	16897.45
632.818	16397.74
633.012	16598.45
633.206	16567.73
633.4	16567.73
633.594	15992.25
633.788	16160.18
633.982	16377.26
634.176	15979.96
634.369	15994.29
634.563	16086.45
634.757	15859.13
634.951	16006.58
635.145	15545.79
635.339	15576.51
635.533	15332.8
635.726	15443.39
635.92	15340.99
636.114	15609.28
636.308	15259.07
636.501	15222.21
636.695	14917.06
636.889	14915.02
637.083	14992.84
637.276	14722.51
637.47	14759.37
637.664	14419.41
637.857	14808.52
638.051	14491.09
638.244	14415.31
638.438	14448.08
638.632	14204.37
638.825	14157.27
639.019	13796.82
639.212	13733.34
639.406	14075.35
639.599	13968.85
639.793	13759.96
639.986	13606.36
640.18	13479.39
640.373	13659.61
640.567	13254.11
640.76	13510.11
640.954	13657.56
641.147	13151.71
641.34	13157.86
641.534	13309.41
641.727	13032.93
641.92	12844.52
642.114	12809.7
642.307	12760.55
642.5	12656.11
642.694	12611.05
642.887	12516.84
643.08	12647.91
643.273	12434.92
643.467	12361.2
643.66	12283.38
643.853	12248.56
644.046	11994.61
644.239	12115.44
644.432	11724.28
644.626	11970.04
644.819	11859.45
645.012	11709.94
645.205	11877.88
645.398	11849.21
645.591	11572.73
645.784	11421.18
645.977	11347.45
646.17	11415.04
646.363	11341.31
646.556	11453.95
646.749	11259.39
646.942	11394.56
647.135	11251.2
647.328	11177.47
647.521	10987.01
647.714	10753.54
647.907	10939.91
648.099	10739.21
648.292	11011.59
648.485	10724.87
648.678	10681.86
648.871	10501.64
649.064	10696.2
649.256	10401.29
649.449	10427.92
649.642	10407.44
649.835	10188.3
650.027	10237.45
650.22	10384.91
650.413	10128.91
650.605	10130.96
650.798	10139.15
650.991	10063.38
651.183	9954.83
651.376	9774.61
651.568	9936.4
651.761	10032.66
651.954	9881.11
652.146	9709.08
652.339	9807.38
652.531	9694.74
652.724	9537.05
652.916	9334.3
653.109	9494.04
653.301	9612.82
653.494	9354.78
653.686	9207.33
653.879	9557.53
654.071	9221.66
654.263	9102.88
654.456	9192.99
654.648	9055.78
654.84	9008.67
655.033	8920.61
655.225	9000.48
655.417	8781.35
655.61	8998.43
655.802	8928.8
655.994	8685.09
656.186	8949.28
656.379	8652.33
656.571	8683.05
656.763	8594.98
656.955	8338.99
657.148	8619.56
657.34	8439.34
657.532	8291.88
657.724	8351.28
657.916	8281.64
658.108	8224.3
658.3	8234.54
658.492	8097.33
658.684	8001.07
658.876	8093.23
659.068	8009.26
659.26	7988.78
659.452	7849.52
659.644	7962.16
659.836	7878.19
660.028	7990.83
660.22	7665.21
660.412	7792.18
660.604	7726.64
660.796	7611.96
660.988	7593.53
661.18	7573.05
661.372	7454.26
661.563	7505.46
661.755	7433.79
661.947	7495.22
662.139	7323.19
662.331	7333.43
662.522	7267.9
662.714	7179.84
662.906	7214.65
663.097	7380.54
663.289	7083.58
663.481	7077.44
663.673	7079.49
663.864	7179.84
664.056	6811.2
664.247	6932.03
664.439	6903.36
664.631	7061.05
664.822	7085.63
665.014	6870.59
665.205	6743.62
665.397	6692.42
665.588	6790.72
665.78	6719.04
665.971	6614.6
666.163	6938.18
666.354	6651.46
666.546	6567.49
666.737	6487.62
666.929	6624.84
667.12	6508.1
667.311	6497.86
667.503	6514.25
667.694	6444.62
667.885	6395.47
668.077	6383.18
668.268	6112.85
668.459	6346.31
668.651	6164.04
668.842	6301.26
669.033	6180.43
669.224	6272.59
669.416	6260.3
669.607	6194.76
669.798	6088.27
669.989	6145.61
670.18	6114.89
670.371	5957.2
670.563	6012.49
670.754	6078.03
670.945	5781.07
671.136	5826.13
671.327	5858.9
671.518	5994.06
671.709	6006.35
671.9	5797.46
672.091	5746.26
672.282	5774.93
672.473	5826.13
672.664	5830.23
672.855	5609.05
673.046	5744.21
673.237	5613.14
673.428	5854.8
673.619	5729.88
673.809	5760.59
674	5572.18
674.191	5625.43
674.382	5490.26
674.573	5512.79
674.764	5475.93
674.954	5613.14
675.145	5504.6
675.336	5539.41
675.527	5455.45
675.717	5387.86
675.908	5359.19
676.099	5404.25
676.289	5408.34
676.48	5375.58
676.671	5324.38
676.861	5482.07
677.052	5344.86
677.243	5312.09
677.433	5355.1
677.624	5494.36
677.814	5340.76
678.005	5330.52
678.195	5191.26
678.386	5303.9
678.576	5267.03
678.767	5267.03
678.957	5230.17
679.148	5234.27
679.338	5195.36
679.529	5152.35
679.719	5273.18
679.909	5205.6
680.1	5068.38
680.29	5086.81
680.481	5078.62
680.671	5142.11
680.861	5084.77
681.052	5326.43
681.242	5082.72
681.432	5107.29
681.622	4929.12
681.813	5166.68
682.003	5111.39
682.193	4968.03
682.383	5025.37
682.573	5099.1
682.764	5074.53
682.954	5011.04
683.144	5115.48
683.334	4834.91
683.524	5041.76
683.714	4970.08
683.904	4998.75
684.094	4877.92
684.284	4882.02
684.474	4961.89
684.664	4982.37
684.854	4890.21
685.044	4771.43
685.234	4699.75
685.424	4732.51
685.614	4873.82
685.804	4828.77
685.994	4732.51
686.184	4863.58
686.374	4744.8
686.564	4812.39
686.753	4763.23
686.943	4685.41
687.133	4699.75
687.323	4642.4
687.513	4818.53
687.702	4597.35
687.892	4658.79
688.082	4646.5
688.272	4626.02
688.461	4693.6
688.651	4687.46
688.841	4445.8
689.03	4574.82
689.22	4453.99
689.41	4531.81
689.599	4386.41
689.789	4439.65
689.979	4458.09
690.168	4429.42
690.358	4445.8
690.547	4357.74
690.737	4384.36
690.926	4331.11
691.116	4257.39
691.305	4453.99
691.495	4298.35
691.684	4216.43
691.874	4296.3
692.063	4259.43
692.252	4421.22
692.442	4349.54
692.631	4253.29
692.82	4187.75
693.01	4142.7
693.199	4218.47
693.388	4146.8
693.578	4128.36
693.767	4015.73
693.956	4019.82
694.146	4062.83
694.335	3999.34
694.524	4032.11
694.713	4154.99
694.902	4060.78
695.092	3958.38
695.281	4050.54
695.47	4034.16
695.659	3892.85
695.848	3817.07
696.037	3903.09
696.226	4015.73
696.415	3919.47
696.604	4044.4
696.793	3884.66
696.982	3884.66
697.171	3872.37
697.36	3933.81
697.549	3927.66
697.738	3958.38
697.927	3927.66
698.116	3901.04
698.305	3933.81
698.494	3868.27
698.683	3847.79
698.872	4056.68
699.061	3827.31
699.25	3694.19
699.438	3851.89
699.627	3800.69
699.816	3841.65
700.005	3741.3
700.193	3765.87
700.382	3876.46
700.571	3763.83
700.76	3708.53
700.948	3888.75
701.137	3841.65
701.326	3731.06
701.514	3942
701.703	3845.74
701.892	3810.93
702.08	3835.5
702.269	3810.93
702.457	3784.3
702.646	3903.09
702.834	3819.12
703.023	3784.3
703.212	3962.48
703.4	3763.83
703.589	3532.4
703.777	3786.35
703.965	3757.68
704.154	3733.11
704.342	3833.46
704.531	3868.27
704.719	3737.2
704.907	3858.03
705.096	3657.33
705.284	3712.63
705.472	3827.31
705.661	3610.23
705.849	3720.82
706.037	3663.47
706.226	3759.73
706.414	3700.34
706.602	3671.67
706.79	3798.64
706.979	3714.67
707.167	3700.34
707.355	3577.46
707.543	3819.12
707.731	3673.71
707.919	3657.33
708.107	3606.13
708.296	3675.76
708.484	3743.35
708.672	3669.62
708.86	3612.28
709.048	3675.76
709.236	3712.63
709.424	3700.34
709.612	3698.29
709.8	3550.84
709.988	3677.81
710.176	3739.25
710.364	3696.24
710.551	3737.2
710.739	3647.09
710.927	3761.78
711.115	3663.47
711.303	3716.72
711.491	3645.04
711.679	3688.05
711.866	3575.41
712.054	3628.66
712.242	3628.66
712.43	3645.04
712.617	3620.47
712.805	3614.32
712.993	3665.52
713.181	3524.21
713.368	3554.93
713.556	3645.04
713.744	3528.31
713.931	3776.11
714.119	3554.93
714.306	3679.86
714.494	3597.94
714.682	3608.18
714.869	3554.93
715.057	3698.29
715.244	3532.4
715.432	3552.88
715.619	3606.13
715.807	3698.29
715.994	3636.85
716.182	3526.26
716.369	3714.67
716.556	3675.76
716.744	3550.84
716.931	3645.04
717.119	3561.08
717.306	3477.11
717.493	3597.94
717.681	3579.51
717.868	3561.08
718.055	3624.56
718.242	3591.8
718.43	3624.56
718.617	3479.16
718.804	3630.71
718.991	3567.22
719.179	3581.56
719.366	3479.16
719.553	3569.27
719.74	3550.84
719.927	3538.55
720.114	3460.73
720.301	3602.04
720.488	3481.21
720.676	3503.73
720.863	3487.35
721.05	3683.95
721.237	3546.74
721.424	3632.76
721.611	3499.64
721.798	3452.53
721.985	3432.05
722.172	3571.32
722.358	3450.49
722.545	3513.97
722.732	3417.72
722.919	3477.11
723.106	3442.29
723.293	3260.02
723.48	3450.49
723.667	3516.02
723.853	3495.54
724.04	3505.78
724.227	3604.08
724.414	3438.2
724.6	3380.86
724.787	3450.49
724.974	3405.43
725.161	3382.9
725.347	3366.52
725.534	3393.14
725.72	3493.49
725.907	3556.98
726.094	3376.76
726.28	3374.71
726.467	3475.06
726.653	3335.8
726.84	3438.2
727.027	3659.38
727.213	3319.42
727.4	3556.98
727.586	3393.14
727.773	3417.72
727.959	3430.01
728.145	3501.69
728.332	3360.38
728.518	3487.35
728.705	3372.66
728.891	3430.01
729.077	3423.86
729.264	3309.18
729.45	3286.65
729.636	3253.88
729.823	3403.38
730.009	3319.42
730.195	3376.76
730.382	3331.7
730.568	3247.74
730.754	3391.09
730.94	3411.57
731.126	3417.72
731.313	3233.4
731.499	3343.99
731.685	3325.56
731.871	3294.84
732.057	3311.22
732.243	3343.99
732.429	3196.54
732.615	3389.05
732.801	3298.94
732.987	3118.72
733.173	3233.4
733.359	3278.46
733.545	3137.15
733.731	3358.33
733.917	3303.03
734.103	3214.97
734.289	3180.15
734.475	3143.29
734.661	3182.2
734.847	3270.26
735.033	3253.88
735.219	3120.76
735.404	3300.98
735.59	3145.34
735.776	3262.07
735.962	3196.54
736.148	3319.42
736.333	3094.14
736.519	3137.15
736.705	3079.8
736.89	3167.87
737.076	3157.63
737.262	3055.23
737.447	3114.62
737.633	3192.44
737.819	3139.19
738.004	3085.95
738.19	3069.56
738.375	3188.35
738.561	3114.62
738.747	3100.28
738.932	3036.8
739.118	3063.42
739.303	3032.7
739.489	3149.43
739.674	3016.32
739.859	3071.61
740.045	2944.64
740.23	2956.93
740.416	2940.54
740.601	2950.78
740.786	2885.25
740.972	2907.77
741.157	2942.59
741.342	3061.37
741.528	2987.65
741.713	2973.31
741.898	2983.55
742.084	2975.36
742.269	2989.69
742.454	2901.63
742.639	2799.23
742.824	2848.38
743.01	2819.71
743.195	2842.24
743.38	2793.09
743.565	2887.29
743.75	2821.76
743.935	2754.18
744.12	2885.25
744.305	2760.32
744.49	2733.7
744.675	2745.98
744.86	2727.55
745.045	2834.05
745.23	2610.82
745.415	2811.52
745.6	2672.26
745.785	2631.3
745.97	2741.89
746.155	2510.47
746.34	2715.27
746.525	2639.49
746.71	2580.1
746.895	2451.08
747.079	2473.6
747.264	2549.38
747.449	2475.65
747.634	2512.52
747.819	2475.65
748.003	2565.76
748.188	2344.58
748.373	2410.12
748.557	2627.2
748.742	2436.74
748.927	2414.21
749.111	2307.72
749.296	2285.19
749.481	2406.02
749.665	2416.26
749.85	2246.28
750.034	2199.18
750.219	2315.91
750.404	2309.77
750.588	2365.06
750.773	2266.76
750.957	2184.84
751.141	2254.47
751.326	2201.23
751.51	2207.37
751.695	2125.45
751.879	2141.83
752.064	2115.21
752.248	2049.68
752.432	2158.22
752.617	2047.63
752.801	2080.39
752.985	2033.29
753.17	2104.97
753.354	2074.25
753.538	2043.53
753.722	1941.13
753.907	1971.85
754.091	1996.43
754.275	1959.56
754.459	1885.84
754.643	1812.11
754.828	1934.99
755.012	1836.69
755.196	1791.63
755.38	1965.71
755.564	1762.96
755.748	1842.83
755.932	1883.79
756.116	1697.42
756.3	1775.25
756.484	1744.53
756.668	1844.88
756.852	1681.04
757.036	1783.44
757.22	1728.14
757.404	1760.91
757.588	1676.95
757.772	1652.37
757.956	1648.27
758.14	1707.66
758.323	1646.23
758.507	1597.07
758.691	1701.52
758.875	1703.57
759.059	1607.31
759.242	1549.97
759.426	1631.89
759.61	1576.59
759.794	1576.59
759.977	1545.88
760.161	1629.84
760.345	1615.51
760.528	1521.3
760.712	1502.87
760.895	1476.24
761.079	1500.82
761.263	1568.4
761.446	1439.38
761.63	1500.82
761.813	1513.11
761.997	1492.63
762.18	1480.34
762.364	1451.67
762.547	1377.94
762.731	1416.85
762.914	1369.75
763.098	1390.23
763.281	1386.13
763.464	1410.71
763.648	1443.48
763.831	1341.08
764.015	1394.33
764.198	1463.96
764.381	1279.64
764.564	1304.21
764.748	1386.13
764.931	1336.98
765.114	1318.55
765.297	1312.41
765.481	1316.5
765.664	1187.48
765.847	1296.02
766.03	1359.51
766.213	1226.39
766.397	1302.17
766.58	1269.4
766.763	1283.74
766.946	1283.74
767.129	1255.06
767.312	1298.07
767.495	1199.77
767.678	1287.83
767.861	1308.31
768.044	1310.36
768.227	1242.78
768.41	1156.76
768.593	1263.26
768.776	1164.95
768.959	1146.52
769.142	1257.11
769.324	1250.97
769.507	1189.53
769.69	1226.39
769.873	1244.82
770.056	1230.49
770.239	1140.38
770.421	1181.34
770.604	1087.13
770.787	1089.18
770.97	1171.1
771.152	1040.03
771.335	1156.76
771.518	1074.84
771.7	1154.71
771.883	1156.76
772.066	1107.61
772.248	1068.7
772.431	1148.57
772.613	1101.47
772.796	1037.98
772.978	1078.94
773.161	1054.36
773.343	1019.55
773.526	974.49
773.708	978.59
773.891	1050.27
774.073	1099.42
774.256	1025.69
774.438	1040.03
774.621	1011.36
774.803	884.38
774.985	984.73
775.168	1011.36
775.35	978.59
775.532	1033.88
775.715	951.96
775.897	943.77
776.079	878.24
776.261	941.72
776.444	908.96
776.626	876.19
776.808	900.76
776.99	919.2
777.173	902.81
777.355	841.37
777.537	925.34
777.719	945.82
777.901	859.81
778.083	896.67
778.265	829.09
778.447	908.96
778.629	882.33
778.811	818.85
778.993	906.91
779.175	855.71
779.357	853.66
779.539	736.93
779.721	761.5
779.903	722.59
780.085	722.59
780.267	853.66
780.449	849.57
780.631	829.09
780.812	757.41
780.994	714.4
781.176	812.7
781.358	681.63
781.54	691.87
781.721	704.16
781.903	777.89
782.085	779.93
782.267	706.21
782.448	706.21
782.63	665.25
782.812	663.2
782.993	683.68
783.175	695.97
783.357	704.16
783.538	706.21
783.72	681.63
783.901	614.05
784.083	736.93
784.264	632.48
784.446	693.92
784.627	620.19
784.809	614.05
784.99	605.86
785.172	630.43
785.353	599.71
785.535	573.09
785.716	599.71
785.897	622.24
786.079	597.67
786.26	513.7
786.441	624.29
786.623	575.14
786.804	599.71
786.985	497.32
787.167	607.91
787.348	605.86
787.529	517.79
787.71	521.89
787.891	614.05
788.073	587.43
788.254	478.88
788.435	624.29
788.616	501.41
788.797	548.51
788.978	466.6
789.159	560.8
789.34	450.21
789.522	505.51
789.703	433.83
789.884	485.03
790.065	466.6
790.246	546.47
790.427	454.31
790.607	517.79
790.788	501.41
790.969	470.69
791.15	480.93
791.331	349.86
791.512	384.68
791.693	480.93
791.874	433.83
792.054	521.89
792.235	460.45
792.416	368.29
792.597	491.17
792.778	513.7
792.958	497.32
793.139	482.98
793.32	476.84
793.5	403.11
793.681	523.94
793.862	446.12
794.042	394.92
794.223	458.4
794.404	435.88
794.584	380.58
794.765	378.53
794.945	333.48
795.126	403.11
795.306	411.3
795.487	362.15
795.667	376.48
795.848	433.83
796.028	351.91
796.209	411.3
796.389	370.34
796.57	384.68
796.75	349.86
796.93	337.57
797.111	345.77
797.291	401.06
797.471	423.59
797.652	423.59
797.832	304.81
798.012	394.92
798.192	302.76
798.373	366.25
798.553	376.48
798.733	378.53
798.913	382.63
799.093	356.01
799.274	374.44
799.454	269.99
799.634	255.65
799.814	360.1
799.994	269.99
800.174	364.2
800.354	345.77
800.534	274.09
800.714	421.54
800.894	325.29
801.074	313
801.254	308.9
801.434	366.25
801.614	353.96
801.794	272.04
801.974	865.95
802.154	241.32
802.334	341.67
802.514	294.57
802.693	380.58
802.873	306.85
803.053	417.44
803.233	358.05
803.413	265.89
803.592	356.01
803.772	362.15
803.952	304.81
804.131	267.94
804.311	360.1
804.491	214.7
804.67	298.66
804.85	310.95
805.03	239.27
805.209	315.05
805.389	296.61
805.568	310.95
805.748	374.44
805.928	304.81
806.107	269.99
806.287	276.13
806.466	313
806.646	296.61
806.825	280.23
807.004	274.09
807.184	255.65
807.363	321.19
807.543	237.22
807.722	296.61
807.901	247.46
808.081	280.23
808.26	243.37
808.439	255.65
808.619	210.6
808.798	255.65
808.977	196.26
809.156	198.31
809.336	177.83
809.515	255.65
809.694	276.13
809.873	173.74
810.052	257.7
810.231	276.13
810.411	253.61
810.59	218.79
810.769	231.08
810.948	267.94
811.127	157.35
811.306	206.5
811.485	239.27
811.664	280.23
811.843	188.07
812.022	175.78
812.201	235.18
812.38	280.23
812.559	237.22
812.737	265.89
812.916	181.93
813.095	196.26
813.274	218.79
813.453	265.89
813.632	190.12
813.811	233.13
813.989	210.6
814.168	222.89
814.347	206.5
814.526	200.36
814.704	233.13
814.883	145.06
815.062	171.69
815.24	243.37
815.419	147.11
815.598	319.14
815.776	149.16
815.955	102.06
816.133	259.75
816.312	210.6
816.49	163.5
816.669	190.12
816.847	226.98
817.026	177.83
817.204	149.16
817.383	190.12
817.561	138.92
817.74	177.83
817.918	190.12
818.097	116.39
818.275	186.02
818.453	171.69
818.632	171.69
818.81	124.58
818.988	155.3
819.167	140.97
819.345	192.17
819.523	241.32
819.701	153.26
819.879	165.54
820.058	128.68
820.236	231.08
820.414	181.93
820.592	183.98
820.77	190.12
820.948	63.15
821.127	149.16
821.305	229.03
821.483	161.45
821.661	132.78
821.839	183.98
822.017	198.31
822.195	155.3
822.373	206.5
822.551	122.54
822.729	155.3
822.907	155.3
823.085	171.69
823.262	145.06
823.44	112.3
823.618	116.39
823.796	167.59
823.974	126.63
824.152	157.35
824.329	145.06
824.507	126.63
824.685	212.65
824.863	153.26
825.04	140.97
825.218	161.45
825.396	192.17
825.574	255.65
825.751	50.86
825.929	210.6
826.107	85.67
826.284	128.68
826.462	194.22
826.639	104.11
826.817	116.39
826.994	106.15
827.172	112.3
827.349	97.96
827.527	140.97
827.704	128.68
827.882	157.35
828.059	79.53
828.237	138.92
828.414	173.74
828.591	50.86
828.769	120.49
828.946	122.54
829.124	81.58
829.301	169.64
829.478	132.78
829.655	97.96
829.833	167.59
830.01	34.47
830.187	126.63
830.364	108.2
830.542	48.81
830.719	128.68
830.896	138.92
831.073	132.78
831.25	91.82
831.427	106.15
831.604	120.49
831.782	169.64
831.959	89.77
832.136	97.96
832.313	83.63
832.49	59.05
832.667	100.01
832.844	79.53
833.021	165.54
833.198	85.67
833.374	153.26
833.551	138.92
833.728	149.16
833.905	95.91
834.082	106.15
834.259	83.63
834.436	114.34
834.612	16.04
834.789	183.98
834.966	85.67
835.143	128.68
835.319	140.97
835.496	63.15
835.673	104.11
835.85	161.45
836.026	75.43
836.203	114.34
836.38	124.58
836.556	93.87
836.733	-0.34
836.909	97.96
837.086	110.25
837.262	63.15
837.439	128.68
837.616	167.59
837.792	59.05
837.968	128.68
838.145	77.48
838.321	93.87
838.498	71.34
838.674	63.15
838.851	237.22
839.027	87.72
839.203	52.91
839.38	20.14
839.556	153.26
839.732	61.1
839.909	114.34
840.085	110.25
840.261	30.38
840.437	79.53
840.614	65.19
840.79	52.91
840.966	134.82
841.142	100.01
841.318	73.39
841.494	61.1
841.671	104.11
841.847	89.77
842.023	91.82
842.199	83.63
842.375	36.52
842.551	18.09
842.727	122.54
842.903	100.01
843.079	57
843.255	118.44
843.431	136.87
843.607	128.68
843.783	30.38
843.959	95.91
844.134	16.04
844.31	42.67
844.486	26.28
844.662	16.04
844.838	136.87
845.013	106.15
845.189	67.24
845.365	73.39
845.541	40.62
845.716	65.19
845.892	108.2
846.068	30.38
846.244	40.62
846.419	116.39
846.595	67.24
846.77	122.54
846.946	112.3
847.122	65.19
847.297	71.34
847.473	61.1
847.648	108.2
847.824	95.91
847.999	-24.92
848.175	50.86
848.35	91.82
848.526	124.58
848.701	138.92
848.876	57
849.052	36.52
849.227	67.24
849.403	30.38
849.578	54.95
849.753	100.01
849.929	122.54
850.104	7.85
850.279	102.06
850.454	126.63
850.63	48.81
850.805	110.25
850.98	59.05
851.155	34.47
851.33	-12.63
851.505	79.53
851.681	140.97
851.856	36.52
852.031	75.43
852.206	44.71
852.381	67.24
852.556	46.76
852.731	50.86
852.906	48.81
853.081	36.52
853.256	87.72
853.431	3.75
853.606	42.67
853.781	18.09
853.956	50.86
854.131	46.76
854.305	57
854.48	42.67
854.655	26.28
854.83	-24.92
855.005	54.95
855.18	83.63
855.354	85.67
855.529	9.9
855.704	40.62
855.879	71.34
856.053	59.05
856.228	46.76
856.403	-22.87
856.577	69.29
856.752	-2.39
856.926	50.86
857.101	13.99
857.276	38.57
857.45	81.58
857.625	67.24
857.799	63.15
857.974	22.19
858.148	71.34
858.323	28.33
858.497	-2.39
858.672	-18.77
858.846	30.38
859.02	32.43
859.195	48.81
859.369	38.57
859.543	73.39
859.718	63.15
859.892	46.76
860.066	61.1
860.241	81.58
860.415	16.04
860.589	32.43
860.763	81.58
860.938	32.43
861.112	32.43
861.286	16.04
861.46	69.29
861.634	-22.87
861.808	73.39
861.982	-12.63
862.157	1.71
862.331	-6.49
862.505	-6.49
862.679	-18.77
862.853	11.95
863.027	-0.34
863.201	77.48
863.375	18.09
863.549	22.19
863.722	108.2
863.896	24.23
864.07	1.71
864.244	93.87
864.418	50.86
864.592	69.29
864.766	48.81
864.939	-4.44
865.113	-43.35
865.287	9.9
865.461	79.53
865.634	3.75
865.808	81.58
865.982	9.9
866.156	22.19
866.329	16.04
866.503	32.43
866.676	85.67
866.85	-6.49
867.024	-2.39
867.197	71.34
867.371	40.62
867.544	32.43
867.718	9.9
867.891	79.53
868.065	-0.34
868.238	65.19
868.412	7.85
868.585	7.85
868.759	13.99
868.932	42.67
869.105	-31.06
869.279	40.62
869.452	-18.77
869.625	97.96
869.799	59.05
869.972	-31.06
870.145	30.38
870.319	32.43
870.492	-12.63
870.665	13.99
870.838	38.57
871.011	-16.73
871.185	-12.63
871.358	65.19
871.531	22.19
871.704	-22.87
871.877	42.67
872.05	50.86
872.223	9.9
872.396	1.71
872.569	65.19
872.742	9.9
872.915	52.91
873.088	5.8
873.261	13.99
873.434	59.05
873.607	61.1
873.78	-10.58
873.953	-26.96
874.126	9.9
874.299	1.71
874.471	-16.73
874.644	24.23
874.817	91.82
874.99	46.76
875.163	-4.44
875.335	9.9
875.508	32.43
875.681	73.39
875.853	-33.11
876.026	5.8
876.199	26.28
876.371	34.47
876.544	-0.34
876.717	11.95
876.889	16.04
877.062	-14.68
877.234	-47.44
877.407	54.95
877.579	9.9
877.752	50.86
877.924	69.29
878.097	79.53
878.269	16.04
878.442	50.86
878.614	20.14
878.786	54.95
878.959	50.86
879.131	-39.25
879.303	-35.16
879.476	7.85
879.648	36.52
879.82	34.47
879.993	-37.2
880.165	-2.39
880.337	22.19
880.509	-2.39
880.681	7.85
880.854	-57.68
881.026	16.04
881.198	77.48
881.37	-43.35
881.542	40.62
881.714	48.81
881.886	20.14
882.058	13.99
882.23	-0.34
882.402	-4.44
882.574	85.67
882.746	97.96
882.918	34.47
883.09	-22.87
883.262	9.9
883.434	40.62
883.606	34.47
883.778	-41.3
883.95	44.71
884.122	-24.92
884.293	20.14
884.465	46.76
884.637	30.38
884.809	-2.39
884.98	-26.96
885.152	-47.44
885.324	65.19
885.496	9.9
885.667	-31.06
885.839	-41.3
886.011	30.38
886.182	-51.54
886.354	-63.83
886.525	-43.35
886.697	67.24
886.869	11.95
887.04	13.99
887.212	57
887.383	91.82
887.555	1.71
887.726	75.43
887.897	-20.82
888.069	42.67
888.24	54.95
888.412	-33.11
888.583	-14.68
888.754	-43.35
888.926	7.85
889.097	30.38
889.268	-18.77
889.44	28.33
889.611	-22.87
889.782	-24.92
889.953	3.75
890.125	75.43
890.296	48.81
890.467	-24.92
890.638	-51.54
890.809	18.09
890.98	-0.34
891.151	-4.44
891.323	97.96
891.494	32.43
891.665	9.9
891.836	46.76
892.007	-33.11
892.178	-49.49
892.349	44.71
892.52	7.85
892.691	57
892.862	16.04
893.032	7.85
893.203	30.38
893.374	-22.87
893.545	7.85
893.716	-20.82
893.887	9.9
894.057	-18.77
894.228	18.09
894.399	13.99
894.57	130.73
894.74	5.8
894.911	18.09
895.082	-16.73
895.253	32.43
895.423	38.57
895.594	40.62
895.764	18.09
895.935	42.67
896.106	-14.68
896.276	-6.49
896.447	57
896.617	-6.49
896.788	-55.64
896.958	-61.78
897.129	-24.92
897.299	67.24
897.47	83.63
897.64	18.09
897.81	-2.39
897.981	-6.49
898.151	26.28
898.322	-20.82
898.492	38.57
898.662	-6.49
898.832	42.67
899.003	16.04
899.173	36.52
899.343	-2.39
899.513	-33.11
