Data from USB4F104151__240__10-30-36-479.txt Node

Date: Wed Mar 12 10:30:36 EDT 2025
User: louis
Spectrometer: USB4F10415
Trigger mode: 4
Integration Time (sec): 3.000000E-2
Scans to average: 1
Electric dark correction enabled: true
Nonlinearity correction enabled: false
Boxcar width: 0
XAxis mode: Wavelengths
Number of Pixels in Spectrum: 3648
>>>>>Begin Spectral Data<<<<<
178.204	-63.66
178.424	-63.66
178.644	-63.66
178.864	-63.66
179.084	-129.19
179.304	-20.65
179.524	-65.71
179.744	-30.89
179.964	44.88
180.184	-32.94
180.404	26.45
180.624	-28.84
180.844	42.84
181.064	18.26
181.283	55.12
181.503	-6.31
181.723	-2.22
181.943	-30.89
182.163	57.17
182.383	5.97
182.602	-18.6
182.822	67.41
183.042	3.93
183.262	-53.42
183.482	112.47
183.701	59.22
183.921	26.45
184.141	81.75
184.361	40.79
184.58	85.84
184.8	61.27
185.02	-8.36
185.239	30.55
185.459	32.6
185.679	94.04
185.898	-0.17
186.118	38.74
186.338	48.98
186.557	-4.27
186.777	-0.17
186.997	71.51
187.216	71.51
187.436	83.8
187.655	16.21
187.875	14.17
188.095	-18.6
188.314	59.22
188.534	106.32
188.753	20.31
188.973	71.51
189.192	83.8
189.412	51.03
189.631	55.12
189.851	-14.51
190.07	85.84
190.29	67.41
190.509	139.09
190.729	20.31
190.948	-0.17
191.168	192.34
191.387	38.74
191.607	-14.51
191.826	108.37
192.045	-22.7
192.265	8.02
192.484	81.75
192.704	32.6
192.923	28.5
193.142	57.17
193.362	20.31
193.581	71.51
193.8	55.12
194.02	67.41
194.239	67.41
194.458	75.6
194.678	75.6
194.897	34.64
195.116	51.03
195.335	-10.41
195.555	38.74
195.774	26.45
195.993	34.64
196.212	75.6
196.432	51.03
196.651	34.64
196.87	73.56
197.089	122.71
197.308	65.36
197.528	24.4
197.747	1.88
197.966	46.93
198.185	71.51
198.404	1.88
198.623	14.17
198.842	159.57
199.062	51.03
199.281	91.99
199.5	51.03
199.719	61.27
199.938	104.28
200.157	5.97
200.376	53.08
200.595	81.75
200.814	53.08
201.033	44.88
201.252	46.93
201.471	34.64
201.69	40.79
201.909	20.31
202.128	42.84
202.347	8.02
202.566	24.4
202.785	-77.99
203.004	16.21
203.223	126.8
203.442	18.26
203.661	5.97
203.879	44.88
204.098	124.76
204.317	-6.31
204.536	24.4
204.755	22.36
204.974	55.12
205.193	36.69
205.411	55.12
205.63	57.17
205.849	91.99
206.068	87.89
206.287	14.17
206.505	28.5
206.724	-8.36
206.943	22.36
207.162	10.07
207.381	32.6
207.599	67.41
207.818	48.98
208.037	-14.51
208.255	-18.6
208.474	38.74
208.693	32.6
208.911	44.88
209.13	75.6
209.349	-2.22
209.567	102.23
209.786	77.65
210.005	81.75
210.223	18.26
210.442	12.12
210.661	63.32
210.879	-26.79
211.098	10.07
211.316	18.26
211.535	94.04
211.753	20.31
211.972	26.45
212.191	67.41
212.409	57.17
212.628	40.79
212.846	96.08
213.065	40.79
213.283	69.46
213.502	-12.46
213.72	24.4
213.938	-37.03
214.157	-24.75
214.375	40.79
214.594	128.85
214.812	91.99
215.031	36.69
215.249	104.28
215.467	1.88
215.686	30.55
215.904	85.84
216.122	22.36
216.341	63.32
216.559	57.17
216.778	1.88
216.996	89.94
217.214	40.79
217.432	-14.51
217.651	30.55
217.869	10.07
218.087	30.55
218.306	46.93
218.524	71.51
218.742	79.7
218.96	36.69
219.179	46.93
219.397	75.6
219.615	112.47
219.833	42.84
220.051	26.45
220.27	57.17
220.488	69.46
220.706	128.85
220.924	28.5
221.142	63.32
221.36	-41.13
221.578	57.17
221.796	16.21
222.015	36.69
222.233	40.79
222.451	18.26
222.669	3.93
222.887	65.36
223.105	24.4
223.323	20.31
223.541	10.07
223.759	30.55
223.977	24.4
224.195	79.7
224.413	67.41
224.631	26.45
224.849	59.22
225.067	38.74
225.285	-67.75
225.503	26.45
225.721	44.88
225.939	53.08
226.157	14.17
226.375	104.28
226.592	46.93
226.81	98.13
227.028	81.75
227.246	57.17
227.464	16.21
227.682	81.75
227.9	65.36
228.117	91.99
228.335	-0.17
228.553	61.27
228.771	61.27
228.989	100.18
229.206	96.08
229.424	87.89
229.642	26.45
229.86	42.84
230.077	34.64
230.295	-6.31
230.513	89.94
230.731	-2.22
230.948	94.04
231.166	22.36
231.384	10.07
231.601	-45.23
231.819	69.46
232.037	40.79
232.254	-53.42
232.472	59.22
232.689	-8.36
232.907	44.88
233.125	79.7
233.342	57.17
233.56	30.55
233.777	10.07
233.995	75.6
234.213	91.99
234.43	-22.7
234.648	-18.6
234.865	1.88
235.083	57.17
235.3	5.97
235.518	34.64
235.735	110.42
235.953	44.88
236.17	81.75
236.388	-0.17
236.605	1.88
236.822	73.56
237.04	112.47
237.257	36.69
237.475	22.36
237.692	124.76
237.909	8.02
238.127	24.4
238.344	81.75
238.562	73.56
238.779	46.93
238.996	77.65
239.214	14.17
239.431	79.7
239.648	40.79
239.865	79.7
240.083	75.6
240.3	128.85
240.517	63.32
240.735	55.12
240.952	34.64
241.169	16.21
241.386	22.36
241.603	10.07
241.821	-0.17
242.038	67.41
242.255	63.32
242.472	124.76
242.689	1.88
242.907	124.76
243.124	44.88
243.341	46.93
243.558	51.03
243.775	-2.22
243.992	5.97
244.209	87.89
244.426	100.18
244.643	69.46
244.86	48.98
245.078	30.55
245.295	81.75
245.512	22.36
245.729	-12.46
245.946	114.52
246.163	104.28
246.38	77.65
246.597	8.02
246.814	75.6
247.031	73.56
247.248	5.97
247.464	124.76
247.681	34.64
247.898	51.03
248.115	73.56
248.332	-53.42
248.549	40.79
248.766	114.52
248.983	137.04
249.2	42.84
249.417	53.08
249.633	14.17
249.85	94.04
250.067	1.88
250.284	12.12
250.501	55.12
250.717	75.6
250.934	61.27
251.151	81.75
251.368	124.76
251.585	32.6
251.801	-0.17
252.018	-24.75
252.235	55.12
252.451	34.64
252.668	16.21
252.885	38.74
253.102	67.41
253.318	42.84
253.535	38.74
253.752	20.31
253.968	28.5
254.185	85.84
254.401	79.7
254.618	44.88
254.835	53.08
255.051	83.8
255.268	59.22
255.484	67.41
255.701	16.21
255.917	73.56
256.134	42.84
256.351	108.37
256.567	-45.23
256.784	10.07
257	81.75
257.217	-12.46
257.433	85.84
257.65	106.32
257.866	-39.08
258.082	48.98
258.299	-8.36
258.515	75.6
258.732	18.26
258.948	48.98
259.165	40.79
259.381	14.17
259.597	38.74
259.814	143.19
260.03	67.41
260.246	-22.7
260.463	98.13
260.679	28.5
260.895	34.64
261.112	44.88
261.328	48.98
261.544	73.56
261.761	96.08
261.977	18.26
262.193	96.08
262.409	126.8
262.626	36.69
262.842	30.55
263.058	26.45
263.274	118.61
263.49	59.22
263.707	104.28
263.923	26.45
264.139	32.6
264.355	65.36
264.571	71.51
264.787	18.26
265.004	57.17
265.22	30.55
265.436	12.12
265.652	83.8
265.868	104.28
266.084	63.32
266.3	-39.08
266.516	-28.84
266.732	104.28
266.948	67.41
267.164	38.74
267.38	59.22
267.596	16.21
267.812	139.09
268.028	46.93
268.244	42.84
268.46	85.84
268.676	51.03
268.892	16.21
269.108	14.17
269.324	48.98
269.54	20.31
269.756	96.08
269.972	73.56
270.188	55.12
270.403	51.03
270.619	65.36
270.835	67.41
271.051	81.75
271.267	-61.61
271.483	-59.56
271.698	153.43
271.914	44.88
272.13	-26.79
272.346	85.84
272.562	34.64
272.777	5.97
272.993	-82.09
273.209	44.88
273.425	40.79
273.64	48.98
273.856	96.08
274.072	42.84
274.287	22.36
274.503	57.17
274.719	79.7
274.934	69.46
275.15	8.02
275.366	16.21
275.581	-14.51
275.797	38.74
276.012	-0.17
276.228	104.28
276.444	16.21
276.659	-24.75
276.875	75.6
277.09	20.31
277.306	75.6
277.521	79.7
277.737	36.69
277.952	38.74
278.168	1.88
278.383	67.41
278.599	18.26
278.814	-14.51
279.03	67.41
279.245	65.36
279.461	14.17
279.676	71.51
279.892	1.88
280.107	16.21
280.322	67.41
280.538	18.26
280.753	40.79
280.969	-4.27
281.184	48.98
281.399	51.03
281.615	67.41
281.83	87.89
282.045	16.21
282.26	30.55
282.476	89.94
282.691	44.88
282.906	22.36
283.122	51.03
283.337	53.08
283.552	-14.51
283.767	1.88
283.983	67.41
284.198	63.32
284.413	53.08
284.628	-14.51
284.843	28.5
285.058	5.97
285.274	-14.51
285.489	44.88
285.704	100.18
285.919	67.41
286.134	5.97
286.349	67.41
286.564	118.61
286.779	75.6
286.995	36.69
287.21	-0.17
287.425	65.36
287.64	16.21
287.855	53.08
288.07	-22.7
288.285	67.41
288.5	79.7
288.715	89.94
288.93	73.56
289.145	22.36
289.36	18.26
289.575	79.7
289.79	87.89
290.004	24.4
290.219	98.13
290.434	96.08
290.649	22.36
290.864	8.02
291.079	36.69
291.294	73.56
291.509	44.88
291.724	71.51
291.938	-39.08
292.153	104.28
292.368	83.8
292.583	67.41
292.798	32.6
293.012	38.74
293.227	128.85
293.442	46.93
293.657	40.79
293.871	83.8
294.086	67.41
294.301	139.09
294.516	42.84
294.73	-14.51
294.945	42.84
295.16	77.65
295.374	94.04
295.589	55.12
295.804	112.47
296.018	79.7
296.233	36.69
296.447	28.5
296.662	-6.31
296.877	59.22
297.091	8.02
297.306	96.08
297.52	30.55
297.735	67.41
297.949	36.69
298.164	98.13
298.378	51.03
298.593	14.17
298.807	38.74
299.022	71.51
299.236	81.75
299.451	-24.75
299.665	-47.27
299.88	51.03
300.094	28.5
300.309	55.12
300.523	46.93
300.737	42.84
300.952	22.36
301.166	116.56
301.381	18.26
301.595	63.32
301.809	36.69
302.024	59.22
302.238	14.17
302.452	118.61
302.667	106.32
302.881	51.03
303.095	106.32
303.309	73.56
303.524	87.89
303.738	40.79
303.952	73.56
304.166	32.6
304.381	14.17
304.595	67.41
304.809	30.55
305.023	67.41
305.237	5.97
305.452	79.7
305.666	5.97
305.88	102.23
306.094	44.88
306.308	12.12
306.522	91.99
306.736	28.5
306.95	42.84
307.164	61.27
307.379	38.74
307.593	178
307.807	59.22
308.021	57.17
308.235	32.6
308.449	-53.42
308.663	22.36
308.877	190.29
309.091	71.51
309.305	40.79
309.519	-45.23
309.733	38.74
309.947	57.17
310.161	61.27
310.374	71.51
310.588	59.22
310.802	102.23
311.016	77.65
311.23	34.64
311.444	-24.75
311.658	71.51
311.872	87.89
312.085	110.42
312.299	14.17
312.513	12.12
312.727	40.79
312.941	42.84
313.154	18.26
313.368	18.26
313.582	116.56
313.796	-12.46
314.009	51.03
314.223	81.75
314.437	18.26
314.651	38.74
314.864	-18.6
315.078	-61.61
315.292	8.02
315.505	114.52
315.719	73.56
315.933	96.08
316.146	-0.17
316.36	-2.22
316.573	120.66
316.787	48.98
317.001	59.22
317.214	34.64
317.428	67.41
317.641	79.7
317.855	18.26
318.068	38.74
318.282	116.56
318.495	110.42
318.709	108.37
318.922	108.37
319.136	106.32
319.349	48.98
319.563	-6.31
319.776	59.22
319.99	10.07
320.203	59.22
320.417	94.04
320.63	-6.31
320.843	91.99
321.057	18.26
321.27	59.22
321.483	44.88
321.697	114.52
321.91	59.22
322.124	83.8
322.337	51.03
322.55	42.84
322.763	38.74
322.977	20.31
323.19	-0.17
323.403	83.8
323.617	32.6
323.83	81.75
324.043	71.51
324.256	36.69
324.469	59.22
324.683	104.28
324.896	83.8
325.109	65.36
325.322	83.8
325.535	165.71
325.748	55.12
325.962	51.03
326.175	112.47
326.388	63.32
326.601	22.36
326.814	30.55
327.027	73.56
327.24	118.61
327.453	1.88
327.666	73.56
327.879	89.94
328.092	48.98
328.305	96.08
328.518	42.84
328.731	122.71
328.944	67.41
329.157	89.94
329.37	3.93
329.583	71.51
329.796	106.32
330.009	-14.51
330.222	32.6
330.435	26.45
330.648	69.46
330.861	89.94
331.073	102.23
331.286	55.12
331.499	139.09
331.712	-10.41
331.925	14.17
332.138	42.84
332.35	104.28
332.563	34.64
332.776	22.36
332.989	40.79
333.202	-2.22
333.414	128.85
333.627	151.38
333.84	75.6
334.053	69.46
334.265	59.22
334.478	3.93
334.691	12.12
334.903	83.8
335.116	42.84
335.329	114.52
335.541	59.22
335.754	85.84
335.966	51.03
336.179	83.8
336.392	61.27
336.604	51.03
336.817	59.22
337.029	79.7
337.242	34.64
337.454	22.36
337.667	22.36
337.88	100.18
338.092	48.98
338.305	120.66
338.517	1.88
338.729	30.55
338.942	128.85
339.154	38.74
339.367	36.69
339.579	46.93
339.792	28.5
340.004	83.8
340.217	-28.84
340.429	137.04
340.641	26.45
340.854	55.12
341.066	16.21
341.278	46.93
341.491	112.47
341.703	3.93
341.915	-0.17
342.128	118.61
342.34	120.66
342.552	28.5
342.764	3.93
342.977	30.55
343.189	-45.23
343.401	83.8
343.613	34.64
343.826	110.42
344.038	53.08
344.25	96.08
344.462	71.51
344.674	61.27
344.886	71.51
345.099	126.8
345.311	48.98
345.523	51.03
345.735	20.31
345.947	96.08
346.159	32.6
346.371	71.51
346.583	96.08
346.795	83.8
347.007	73.56
347.219	75.6
347.431	75.6
347.643	67.41
347.855	59.22
348.067	20.31
348.279	-32.94
348.491	67.41
348.703	30.55
348.915	89.94
349.127	14.17
349.339	42.84
349.551	69.46
349.763	57.17
349.975	53.08
350.187	77.65
350.399	57.17
350.61	73.56
350.822	30.55
351.034	85.84
351.246	57.17
351.458	75.6
351.669	108.37
351.881	143.19
352.093	57.17
352.305	98.13
352.517	108.37
352.728	91.99
352.94	51.03
353.152	14.17
353.363	26.45
353.575	96.08
353.787	135
353.999	-32.94
354.21	71.51
354.422	61.27
354.633	10.07
354.845	34.64
355.057	100.18
355.268	20.31
355.48	-8.36
355.692	20.31
355.903	67.41
356.115	75.6
356.326	30.55
356.538	108.37
356.749	34.64
356.961	104.28
357.172	61.27
357.384	67.41
357.595	104.28
357.807	10.07
358.018	110.42
358.23	108.37
358.441	151.38
358.653	100.18
358.864	122.71
359.075	77.65
359.287	124.76
359.498	106.32
359.709	102.23
359.921	61.27
360.132	73.56
360.344	112.47
360.555	71.51
360.766	69.46
360.977	63.32
361.189	175.95
361.4	40.79
361.611	55.12
361.823	36.69
362.034	38.74
362.245	48.98
362.456	53.08
362.667	65.36
362.879	73.56
363.09	130.9
363.301	63.32
363.512	104.28
363.723	32.6
363.935	69.46
364.146	155.47
364.357	59.22
364.568	59.22
364.779	65.36
364.99	126.8
365.201	42.84
365.412	180.05
365.623	12.12
365.834	73.56
366.045	126.8
366.256	44.88
366.467	24.4
366.678	75.6
366.889	18.26
367.1	12.12
367.311	89.94
367.522	59.22
367.733	100.18
367.944	53.08
368.155	12.12
368.366	18.26
368.577	75.6
368.788	75.6
368.999	8.02
369.209	67.41
369.42	153.43
369.631	145.24
369.842	91.99
370.053	20.31
370.264	46.93
370.474	114.52
370.685	-22.7
370.896	79.7
371.107	38.74
371.317	67.41
371.528	63.32
371.739	83.8
371.95	124.76
372.16	30.55
372.371	63.32
372.582	89.94
372.792	38.74
373.003	75.6
373.214	85.84
373.424	102.23
373.635	14.17
373.846	104.28
374.056	67.41
374.267	91.99
374.477	34.64
374.688	53.08
374.898	26.45
375.109	36.69
375.319	51.03
375.53	100.18
375.74	120.66
375.951	32.6
376.161	85.84
376.372	73.56
376.582	59.22
376.793	69.46
377.003	14.17
377.214	34.64
377.424	51.03
377.635	55.12
377.845	48.98
378.055	91.99
378.266	51.03
378.476	10.07
378.686	112.47
378.897	65.36
379.107	18.26
379.317	100.18
379.528	46.93
379.738	63.32
379.948	28.5
380.158	116.56
380.369	12.12
380.579	67.41
380.789	18.26
380.999	98.13
381.21	102.23
381.42	157.52
381.63	87.89
381.84	89.94
382.05	155.47
382.261	102.23
382.471	83.8
382.681	53.08
382.891	63.32
383.101	75.6
383.311	36.69
383.521	161.62
383.731	63.32
383.941	75.6
384.151	55.12
384.361	53.08
384.571	87.89
384.781	73.56
384.991	79.7
385.201	153.43
385.411	79.7
385.621	5.97
385.831	65.36
386.041	77.65
386.251	28.5
386.461	102.23
386.671	26.45
386.881	67.41
387.091	67.41
387.301	87.89
387.511	116.56
387.72	100.18
387.93	163.67
388.14	59.22
388.35	48.98
388.56	18.26
388.769	114.52
388.979	16.21
389.189	106.32
389.399	51.03
389.609	67.41
389.818	32.6
390.028	44.88
390.238	157.52
390.447	51.03
390.657	87.89
390.867	106.32
391.076	124.76
391.286	163.67
391.496	77.65
391.705	1.88
391.915	124.76
392.125	87.89
392.334	83.8
392.544	42.84
392.753	40.79
392.963	36.69
393.172	94.04
393.382	83.8
393.591	114.52
393.801	104.28
394.01	155.47
394.22	73.56
394.429	114.52
394.639	147.28
394.848	118.61
395.058	128.85
395.267	167.76
395.477	89.94
395.686	81.75
395.895	79.7
396.105	108.37
396.314	63.32
396.524	55.12
396.733	96.08
396.942	128.85
397.152	145.24
397.361	42.84
397.57	130.9
397.78	155.47
397.989	173.91
398.198	143.19
398.407	91.99
398.617	108.37
398.826	91.99
399.035	155.47
399.244	100.18
399.453	202.58
399.663	110.42
399.872	79.7
400.081	130.9
400.29	141.14
400.499	83.8
400.708	137.04
400.917	137.04
401.127	81.75
401.336	83.8
401.545	182.1
401.754	165.71
401.963	159.57
402.172	180.05
402.381	128.85
402.59	190.29
402.799	116.56
403.008	112.47
403.217	89.94
403.426	192.34
403.635	124.76
403.844	141.14
404.053	272.21
404.262	200.53
404.471	208.72
404.68	157.52
404.888	110.42
405.097	141.14
405.306	202.58
405.515	237.39
405.724	235.35
405.933	270.16
406.142	169.81
406.35	268.11
406.559	163.67
406.768	225.11
406.977	339.79
407.185	284.5
407.394	253.78
407.603	192.34
407.812	302.93
408.02	315.22
408.229	313.17
408.438	274.26
408.646	313.17
408.855	307.02
409.064	352.08
409.272	309.07
409.481	307.02
409.69	337.74
409.898	401.23
410.107	390.99
410.315	313.17
410.524	372.56
410.733	401.23
410.941	350.03
411.15	450.38
411.358	417.61
411.567	450.38
411.775	491.34
411.984	493.39
412.192	483.15
412.401	450.38
412.609	546.64
412.818	589.64
413.026	497.49
413.234	634.7
413.443	618.32
413.651	536.4
413.86	599.88
414.068	661.32
414.276	741.19
414.485	759.63
414.693	776.01
414.901	751.43
415.11	835.4
415.318	763.72
415.526	866.12
415.734	896.84
415.943	921.42
416.151	933.7
416.359	927.56
416.567	964.42
416.776	997.19
416.984	1079.11
417.192	1107.78
417.4	1060.68
417.608	1183.56
417.817	1105.73
418.025	1218.37
418.233	1292.1
418.441	1302.34
418.649	1404.74
418.857	1470.27
419.065	1484.61
419.273	1378.11
419.481	1462.08
419.689	1584.96
419.897	1711.93
420.105	1748.79
420.313	1832.76
420.521	1820.47
420.729	1951.54
420.937	1890.1
421.145	1980.22
421.353	2041.65
421.561	2223.92
421.769	2285.36
421.977	2174.77
422.185	2320.18
422.393	2459.44
422.601	2545.45
422.809	2498.35
423.017	2615.09
423.224	2778.92
423.432	2752.3
423.64	2823.98
423.848	3090.21
424.056	2961.19
424.263	3112.74
424.471	3209
424.679	3219.24
424.887	3481.38
425.094	3487.52
425.302	3594.01
425.51	3645.21
425.718	3657.5
425.925	3835.67
426.133	4077.34
426.341	4257.56
426.548	4413.2
426.756	4415.25
426.964	4419.35
427.171	4800.27
427.379	4736.78
427.586	4966.15
427.794	5043.98
428.001	5248.77
428.209	5306.12
428.417	5426.95
428.624	5734.14
428.832	5879.55
429.039	5836.54
429.247	5641.98
429.454	6301.43
429.662	6797.04
429.869	6293.24
430.076	6852.33
430.284	6401.78
430.491	6631.15
430.699	6940.4
430.906	7116.52
431.114	7317.22
431.321	7556.83
431.528	7892.7
431.736	8240.86
431.943	8546
432.15	8435.41
432.358	8521.43
432.565	9021.13
432.772	8746.7
432.979	9213.64
433.187	9561.8
433.394	9641.67
433.601	10110.65
433.808	10157.75
434.016	9934.53
434.223	10505.91
434.43	11112.11
434.637	10999.47
434.844	11706.02
435.052	11880.1
435.259	11712.16
435.466	12039.84
435.673	11853.47
435.88	12537.49
436.087	13295.24
436.294	12904.08
436.501	13098.64
436.708	13069.97
436.915	13328.01
437.122	14296.7
437.329	14059.13
437.537	14546.55
437.743	14694.01
437.95	14601.85
438.157	15566.44
438.364	16023.14
438.571	15638.12
438.778	15826.53
438.985	17440.33
439.192	16868.95
439.399	17493.58
439.606	16995.92
439.813	17894.98
440.02	18998.84
440.227	18755.13
440.433	18421.31
440.64	19125.81
440.847	19099.19
441.054	19381.81
441.261	20624.92
441.467	20287.01
441.674	20919.83
441.881	21538.32
442.088	21376.53
442.294	21020.18
442.501	21628.43
442.708	22543.87
442.914	23586.29
443.121	24114.66
443.328	23465.46
443.534	25404.88
443.741	24466.91
443.948	24368.61
444.154	26029.51
444.361	25693.65
444.568	25806.28
444.774	25794
444.981	25970.12
445.187	26918.33
445.394	27833.77
445.6	27612.59
445.807	30461.32
446.013	28945.82
446.22	29765.01
446.426	30551.43
446.633	30731.65
446.839	31901.04
447.046	30350.73
447.252	32150.89
447.459	32200.04
447.665	32142.7
447.871	33738.07
448.078	34647.36
448.284	33332.57
448.491	34385.22
448.697	35435.83
448.903	35904.82
449.11	36173.1
449.316	35366.2
449.522	36113.71
449.728	36830.5
449.935	37256.48
450.141	37053.73
450.347	38155.54
450.553	37117.21
450.76	37088.54
450.966	38579.46
451.172	37993.75
451.378	38470.92
451.584	38202.64
451.791	38923.52
451.997	39009.54
452.203	39361.79
452.409	39505.15
452.615	39165.18
452.821	37981.46
453.027	37432.6
453.233	39300.35
453.44	37270.81
453.646	38223.12
453.852	38124.82
454.058	38804.74
454.264	37627.16
454.47	38477.07
454.676	37459.23
454.882	38786.31
455.088	35335.48
455.294	35671.35
455.5	36152.62
455.705	36549.93
455.911	35085.63
456.117	34792.77
456.323	33854.8
456.529	32124.27
456.735	33328.47
456.941	32468.33
457.147	31999.34
457.352	31448.44
457.558	30875.01
457.764	30991.74
457.97	29941.13
458.176	29676.94
458.381	29762.96
458.587	28347.81
458.793	28061.1
458.999	26762.68
459.204	28722.59
459.41	27889.07
459.616	26117.57
459.821	25998.79
460.027	25943.5
460.233	25189.84
460.438	24081.89
460.644	24591.84
460.85	23469.55
461.055	23062.01
461.261	22834.68
461.466	21530.12
461.672	20848.15
461.878	22179.33
462.083	20780.57
462.289	20194.85
462.494	20057.64
462.7	19117.62
462.905	18527.8
463.111	19506.73
463.316	19277.36
463.522	18988.6
463.727	19039.79
463.932	18835
464.138	18765.37
464.343	19068.47
464.549	18380.35
464.754	18974.26
464.959	18535.99
465.165	18517.56
465.37	17958.47
465.575	17591.88
465.781	18210.37
465.986	18187.84
466.191	17765.96
466.397	17112.66
466.602	16289.37
466.807	17071.7
467.012	16897.62
467.218	17016.4
467.423	16694.87
467.628	16819.8
467.833	17327.69
468.038	16924.24
468.244	16422.49
468.449	16967.25
468.654	16664.15
468.859	16389.72
469.064	16262.75
469.269	15656.55
469.474	15763.04
469.679	16033.38
469.885	15433.32
470.09	15957.6
470.295	15732.33
470.5	15066.74
470.705	15558.25
470.91	14927.47
471.115	15005.3
471.32	15265.39
471.525	15050.35
471.73	14749.3
471.935	14538.36
472.139	14100.09
472.344	14194.3
472.549	14263.93
472.754	13866.63
472.959	13743.75
473.164	13348.49
473.369	13411.98
473.574	13813.38
473.778	13495.94
473.983	13524.61
474.188	13598.34
474.393	12766.87
474.598	12947.09
474.802	12893.84
475.007	12846.74
475.212	12836.5
475.417	12437.14
475.621	12375.7
475.826	12207.77
476.031	12132
476.235	12037.79
476.44	11828.9
476.645	11785.89
476.849	11849.38
477.054	11617.96
477.259	11429.54
477.463	11355.82
477.668	11222.7
477.872	11355.82
478.077	11187.88
478.282	10933.93
478.486	10837.68
478.691	10747.57
478.895	10749.62
479.1	10684.08
479.304	10823.34
479.509	10362.55
479.713	10567.35
479.918	10243.77
480.122	10325.69
480.326	10462.9
480.531	10276.54
480.735	10149.56
480.94	10223.29
481.144	10503.86
481.348	9850.56
481.553	10139.32
481.757	9995.96
481.961	10145.47
482.166	10299.06
482.37	10243.77
482.574	9938.62
482.778	9973.44
482.983	9946.81
483.187	10061.5
483.391	10055.36
483.595	10104.51
483.8	9825.98
484.004	9834.18
484.208	10010.3
484.412	9983.68
484.616	10002.11
484.821	9965.25
485.025	9639.62
485.229	9973.44
485.433	9764.54
485.637	10041.02
485.841	9733.82
486.045	9905.85
486.249	9991.87
486.453	9952.96
486.657	10114.75
486.861	10051.26
487.065	9520.84
487.269	9903.81
487.473	9594.56
487.677	9875.13
487.881	9926.33
488.085	10036.92
488.289	10182.33
488.493	9864.89
488.697	10147.51
488.901	10116.79
489.105	9938.62
489.309	10000.06
489.512	9926.33
489.716	10020.54
489.92	10014.4
490.124	10157.75
490.328	10346.17
490.531	9912
490.735	10282.68
490.939	10362.55
491.143	10124.99
491.346	10133.18
491.55	10258.1
491.754	10598.07
491.958	10309.3
492.161	10372.79
492.365	10501.81
492.569	10520.24
492.772	10677.94
492.976	10571.44
493.18	10761.91
493.383	10718.9
493.587	10858.16
493.79	10962.61
493.994	10960.56
494.197	11087.53
494.401	11101.87
494.605	11062.96
494.808	11277.99
495.012	11243.18
495.215	11384.49
495.419	11425.45
495.622	11384.49
495.825	11693.73
496.029	11499.17
496.232	12048.03
496.436	11806.37
496.639	12322.46
496.843	12336.79
497.046	12433.05
497.249	12363.42
497.453	12347.03
497.656	12549.78
497.859	12678.8
498.063	12734.1
498.266	13211.28
498.469	13045.39
498.673	13149.84
498.876	13270.67
499.079	13557.38
499.282	13536.9
499.485	13823.62
499.689	13866.63
499.892	14112.38
500.095	14225.02
500.298	14585.46
500.501	14358.14
500.705	14648.95
500.908	14882.42
501.111	15126.13
501.314	15152.75
501.517	15154.8
501.72	15771.24
501.923	15693.41
502.126	16195.17
502.329	16027.23
502.532	16197.21
502.735	16574.04
502.938	16297.56
503.141	17045.07
503.344	17108.56
503.547	17165.9
503.75	17415.76
503.953	17720.9
504.156	17647.18
504.359	18011.71
504.562	18288.19
504.765	18497.08
504.968	18357.82
505.17	18810.42
505.373	18859.57
505.576	19414.57
505.779	19500.59
505.982	19478.06
506.185	19934.76
506.387	19951.14
506.59	20086.31
506.793	20493.85
506.996	20510.24
507.198	21102.1
507.401	20923.93
507.604	21163.54
507.807	21577.23
508.009	21773.83
508.212	22033.93
508.415	22345.22
508.617	22468.09
508.82	22732.28
509.022	22629.88
509.225	23391.73
509.428	23498.22
509.63	23451.12
509.833	23483.89
510.035	24397.28
510.238	24206.82
510.44	24618.46
510.643	24675.8
510.845	25062.87
511.048	24798.68
511.25	25656.78
511.453	25671.12
511.655	26559.94
511.858	26484.16
512.06	26312.13
512.262	26787.26
512.465	26916.28
512.667	27145.66
512.87	27506.1
513.072	27336.12
513.274	28284.33
513.477	28421.54
513.679	28917.15
513.881	29238.68
514.084	29369.75
514.286	29023.64
514.488	29330.84
514.69	30401.93
514.893	30498.18
515.095	30662.02
515.297	30688.64
515.499	31251.83
515.701	31569.27
515.904	31853.94
516.106	31985.01
516.308	32214.38
516.51	32902.5
516.712	32562.53
516.914	33316.18
517.116	33762.64
517.318	34104.65
517.52	34370.89
517.722	34389.32
517.925	34680.13
518.127	35302.71
518.329	35226.94
518.531	35261.76
518.733	36169.01
518.935	36697.38
519.136	36637.99
519.338	37109.02
519.54	36951.33
519.742	37297.44
519.944	37829.91
520.146	38036.75
520.348	38257.93
520.55	38575.37
520.752	39128.32
520.954	39517.43
521.155	39322.88
521.357	39857.4
521.559	40565.99
521.761	40815.85
521.963	40826.09
522.164	41239.78
522.366	41309.41
522.568	41802.97
522.77	41530.59
522.971	42464.46
523.173	42343.63
523.375	43021.51
523.576	43066.56
523.778	42962.12
523.98	43826.36
524.181	43599.04
524.383	43752.63
524.584	44391.6
524.786	44242.1
524.988	44383.41
525.189	45321.38
525.391	45575.33
525.592	45706.4
525.794	45360.29
525.995	45581.47
526.197	46124.18
526.398	46288.02
526.6	46460.05
526.801	46480.53
527.003	46857.35
527.204	46896.27
527.406	47488.13
527.607	47520.9
527.808	47834.24
528.01	46926.99
528.211	47340.67
528.412	48604.27
528.614	48200.82
528.815	48065.66
529.016	48659.57
529.218	48438.39
529.419	48561.26
529.62	48749.68
529.822	48909.42
530.023	48925.8
530.224	48942.19
530.425	49015.91
530.626	49149.03
530.828	48866.41
531.029	50005.08
531.23	49155.18
531.431	49198.18
531.632	49646.69
531.833	49663.07
532.035	49638.5
532.236	49765.47
532.437	50351.19
532.638	50048.09
532.839	50353.24
533.04	49998.94
533.241	49781.85
533.442	50822.22
533.643	50154.58
533.844	49955.93
534.045	50527.31
534.246	49900.64
534.447	50080.86
534.648	50506.83
534.849	50646.1
535.05	50099.29
535.251	50834.51
535.451	50189.4
535.652	50809.93
535.853	50728.02
536.054	50580.56
536.255	50994.25
536.456	50596.95
536.657	51194.95
536.857	50584.66
537.058	50195.54
537.259	51278.92
537.46	50777.17
537.66	50547.79
537.861	50949.2
538.062	50850.89
538.263	51067.98
538.463	50771.02
538.664	50429.01
538.865	50605.14
539.065	51297.35
539.266	50359.38
539.466	50981.96
539.667	50320.47
539.868	51055.69
540.068	50580.56
540.269	50441.3
540.469	51006.54
540.67	50574.42
540.87	50519.12
541.071	50723.92
541.271	50943.05
541.472	50687.06
541.672	50394.2
541.873	50170.97
542.073	50003.03
542.274	50791.5
542.474	50637.9
542.675	50314.33
542.875	50787.41
543.075	50543.7
543.276	50256.98
543.476	50924.62
543.676	49802.33
543.877	50564.18
544.077	50279.51
544.277	50326.61
544.478	50207.83
544.678	50652.24
544.878	50183.26
545.078	50805.84
545.279	50474.07
545.479	50170.97
545.679	50484.31
545.879	50695.25
546.079	50490.45
546.28	50191.45
546.48	50314.33
546.68	50426.96
546.88	50383.96
547.08	50310.23
547.28	50414.68
547.48	49613.92
547.68	50304.09
547.88	49591.39
548.081	50451.54
548.281	50132.06
548.481	50539.6
548.681	50031.71
548.881	50220.12
549.081	50345.05
549.28	49888.35
549.48	50343
549.68	49890.4
549.88	50615.38
550.08	50021.47
550.28	49990.75
550.48	49767.52
550.68	50363.48
550.88	49759.33
551.08	49892.44
551.279	50060.38
551.479	49534.05
551.679	49761.37
551.879	49581.15
552.079	49892.44
552.278	49615.97
552.478	49634.4
552.678	49691.74
552.878	49704.03
553.077	49669.22
553.277	49278.05
553.477	50117.72
553.676	49677.41
553.876	49456.23
554.076	49431.65
554.275	49802.33
554.475	48977
554.674	49343.59
554.874	49630.3
555.074	49257.57
555.273	49337.44
555.473	49505.38
555.672	49159.27
555.872	48737.39
556.071	49286.25
556.271	49407.08
556.47	48665.71
556.67	48608.37
556.869	48809.07
557.068	48884.84
557.268	48417.91
557.467	48487.54
557.667	48819.31
557.866	48534.64
558.065	48598.13
558.265	48630.9
558.464	48614.51
558.663	48778.35
558.863	47918.2
559.062	48712.81
559.261	47991.93
559.461	48319.6
559.66	47758.46
559.859	48102.52
560.058	47901.82
560.258	47983.74
560.457	47508.61
560.656	47639.68
560.855	47690.88
561.054	47910.01
561.253	47260.8
561.453	47234.18
561.652	47625.34
561.851	47608.96
562.05	47436.93
562.249	46621.84
562.448	47000.71
562.647	46394.51
562.846	46992.52
563.045	47058.06
563.244	46640.27
563.443	46980.23
563.642	46333.07
563.841	46501.01
564.04	46400.66
564.239	46531.73
564.438	45841.56
564.637	45960.34
564.836	46277.78
565.035	45558.94
565.234	46027.93
565.432	45538.46
565.631	45376.67
565.83	45595.81
566.029	45122.72
566.228	45274.27
566.427	45409.44
566.625	45114.53
566.824	44291.25
567.023	44881.06
567.222	43973.81
567.42	44975.27
567.619	44238
567.818	44317.87
568.016	44285.11
568.215	44512.43
568.414	44033.21
568.612	44551.34
568.811	43707.58
569.01	43883.7
569.208	43162.82
569.407	43678.91
569.605	43027.65
569.804	43580.6
570.002	42972.36
570.201	43234.5
570.4	43177.15
570.598	42648.78
570.797	42167.51
570.995	42669.26
571.193	42216.66
571.392	42853.58
571.59	42181.84
571.789	42618.06
571.987	42474.7
572.186	42255.57
572.384	41579.74
572.582	41964.76
572.781	41778.39
572.979	41221.34
573.177	41213.15
573.376	41561.31
573.574	41342.17
573.772	41456.86
573.971	41000.16
574.169	40490.22
574.367	40297.71
574.565	40793.32
574.763	40465.64
574.962	40381.68
575.16	40111.35
575.358	40518.89
575.556	39638.26
575.754	40426.73
575.952	39740.66
576.151	39857.4
576.349	39245.05
576.547	39634.17
576.745	39552.25
576.943	39378.17
577.141	39521.53
577.339	39685.37
577.537	38903.04
577.735	38792.45
577.933	38890.76
578.131	39079.17
578.329	38661.38
578.527	38694.15
578.725	38722.82
578.923	38225.17
579.121	38493.45
579.319	38472.97
579.516	38241.55
579.714	38018.32
579.912	38118.67
580.11	37559.58
580.308	37793.04
580.506	37846.29
580.704	36957.47
580.901	37563.67
581.099	37647.64
581.297	37418.27
581.495	37211.42
581.692	37125.41
581.89	37061.92
582.088	36904.23
582.285	36726.05
582.483	36969.76
582.681	36338.99
582.878	36513.06
583.076	36322.6
583.274	36371.75
583.471	36025.65
583.669	36359.47
583.866	35898.67
584.064	36021.55
584.262	35814.71
584.459	35683.64
584.657	35706.16
584.854	35736.88
585.052	34934.08
585.249	35548.47
585.447	35341.63
585.644	35138.88
585.841	35204.41
586.039	35136.83
586.236	34557.25
586.434	34700.61
586.631	34266.44
586.828	34917.7
587.026	34401.61
587.223	34405.7
587.42	34065.74
587.618	34659.65
587.815	33824.08
588.012	33989.97
588.21	34000.21
588.407	33840.46
588.604	33779.03
588.801	33236.31
588.999	33758.55
589.196	33580.37
589.393	33283.42
589.59	33240.41
589.787	32920.93
589.984	32863.58
590.182	32738.66
590.379	32984.41
590.576	32648.55
590.773	32474.47
590.97	32804.19
591.167	32644.45
591.364	31874.41
591.561	32501.09
591.758	32167.27
591.955	31878.51
592.152	32494.95
592.349	31868.27
592.546	31997.29
592.743	31387
592.94	31311.22
593.137	31800.69
593.334	31548.79
593.531	31448.44
593.727	31464.82
593.924	31532.4
594.121	30875.01
594.318	31520.12
594.515	30469.51
594.712	31251.83
594.908	30872.96
595.105	30784.9
595.302	30354.82
595.499	30580.1
595.696	30537.09
595.892	30100.87
596.089	30389.64
596.286	30225.8
596.482	30195.08
596.679	30053.77
596.876	30424.45
597.072	29943.18
597.269	29642.13
597.466	29468.05
597.662	29478.29
597.859	29570.45
598.055	29648.27
598.252	29414.8
598.448	29506.96
598.645	29179.29
598.841	28736.93
599.038	28929.44
599.234	29162.9
599.431	28757.41
599.627	28634.53
599.824	29056.41
600.02	28554.66
600.217	28431.78
600.413	28290.47
600.609	28317.09
600.806	28300.71
601.002	28130.73
601.198	28095.91
601.395	27876.78
601.591	28024.23
601.787	27962.79
601.984	27487.67
602.18	28140.97
602.376	27567.54
602.572	27227.57
602.769	27557.3
602.965	27020.73
603.161	27235.77
603.357	27291.06
603.553	27129.27
603.75	27262.39
603.946	26822.08
604.142	26953.15
604.338	26717.63
604.534	26961.34
604.73	26582.46
604.926	26398.15
605.122	26656.19
605.318	26195.4
605.514	26031.56
605.71	26033.61
605.906	26193.35
606.102	25902.54
606.298	26043.85
606.494	26049.99
606.69	25935.31
606.886	26082.76
607.082	25449.94
607.278	25892.3
607.474	25341.39
607.67	25890.25
607.866	25040.34
608.062	25492.94
608.257	25365.97
608.453	25480.66
608.649	25775.56
608.845	25251.28
609.041	25206.23
609.236	25408.98
609.432	25148.89
609.628	25236.95
609.824	25204.18
610.019	25044.44
610.215	24948.18
610.411	25103.83
610.606	24939.99
610.802	24720.86
610.998	24677.85
611.193	24882.65
611.389	24346.08
611.584	24294.88
611.78	24329.7
611.976	24333.79
612.171	24407.52
612.367	24319.46
612.562	24694.24
612.758	24221.16
612.953	23780.84
613.149	24585.69
613.344	23651.82
613.539	24514.02
613.735	23926.25
613.93	24188.39
614.126	23913.96
614.321	24284.64
614.517	24126.95
614.712	24055.27
614.907	23455.22
615.103	23956.97
615.298	23547.37
615.493	23475.7
615.688	23182.84
615.884	24188.39
616.079	23258.61
616.274	23496.17
616.47	23383.54
616.665	23451.12
616.86	23274.99
617.055	23387.63
617.25	23188.98
617.445	23356.91
617.641	22578.68
617.836	23557.61
618.031	22975.99
618.226	23059.96
618.421	22722.04
618.616	23002.61
618.811	22564.35
619.006	22945.27
619.201	22543.87
619.396	22541.82
619.591	22363.65
619.786	22691.32
619.981	22027.78
620.176	22152.71
620.371	21876.23
620.566	22136.32
620.761	21603.85
620.956	22197.76
621.151	21157.39
621.346	21976.58
621.541	21450.25
621.735	21343.76
621.93	21079.57
622.125	21106.2
622.32	20530.72
622.515	21149.2
622.709	21079.57
622.904	20735.51
623.099	20469.28
623.294	20696.6
623.488	20295.2
623.683	20590.11
623.878	20289.06
624.072	20211.23
624.267	19928.61
624.462	20129.31
624.656	19535.4
624.851	19568.17
625.046	19441.2
625.24	19684.9
625.435	19480.11
625.629	19230.26
625.824	19275.31
626.018	19023.41
626.213	18712.12
626.407	19056.18
626.602	18665.02
626.796	18781.75
626.991	18968.12
627.185	18851.38
627.38	18482.75
627.574	18429.5
627.768	18181.7
627.963	18026.05
628.157	17954.37
628.352	17919.56
628.546	17587.78
628.74	17870.4
628.935	17493.58
629.129	17405.52
629.323	17622.6
629.517	17348.17
629.712	17329.74
629.906	17141.33
630.1	16961.11
630.294	17010.26
630.489	16883.28
630.683	16961.11
630.877	16793.17
631.071	16555.61
631.265	16645.72
631.459	16485.98
631.653	16313.95
631.848	16217.69
632.042	16522.84
632.236	16291.42
632.43	16053.86
632.624	16166.49
632.818	15904.35
633.012	15697.51
633.206	15619.69
633.4	15777.38
633.594	15568.49
633.788	15476.33
633.982	15361.64
634.176	15351.4
634.369	15337.07
634.563	15085.17
634.757	14917.23
634.951	15066.74
635.145	15029.87
635.339	15009.39
635.533	14843.51
635.726	14855.79
635.92	14599.8
636.114	14626.42
636.308	14431.87
636.501	14390.91
636.695	14458.49
636.889	14093.95
637.083	14085.76
637.276	14028.42
637.47	13760.13
637.664	13704.84
637.857	14028.42
638.051	13880.96
638.244	13713.03
638.438	13616.77
638.632	13549.19
638.825	13463.18
639.019	13180.56
639.212	13358.73
639.406	13219.47
639.599	13217.42
639.793	13289.1
639.986	13065.87
640.18	13084.3
640.373	13059.73
640.567	12932.75
640.76	12844.69
640.954	12791.44
641.147	12527.25
641.34	12285.59
641.534	12537.49
641.727	12433.05
641.92	12641.94
642.114	12127.9
642.307	12011.17
642.5	12078.75
642.694	11925.15
642.887	12105.37
643.08	12119.71
643.273	11929.25
643.467	11669.16
643.66	11716.26
643.853	11759.27
644.046	11431.59
644.239	11464.36
644.432	11480.74
644.626	11101.87
644.819	11171.5
645.012	11116.2
645.205	11376.3
645.398	11087.53
645.591	10952.37
645.784	10878.64
645.977	10757.81
646.17	10956.46
646.363	10839.73
646.556	10991.28
646.749	10714.8
646.942	10880.69
647.135	10524.34
647.328	10518.2
647.521	10380.98
647.714	10274.49
647.907	10297.02
648.099	10395.32
648.292	10294.97
648.485	10174.14
648.678	10043.07
648.871	9981.63
649.064	9772.74
649.256	10174.14
649.449	9791.17
649.642	9901.76
649.835	9789.12
650.027	9627.33
650.22	9823.94
650.413	9625.28
650.605	9641.67
650.798	9496.26
650.991	9520.84
651.183	9494.21
651.376	9371.33
651.568	9348.81
651.761	9494.21
651.954	9236.17
652.146	9342.66
652.339	9162.44
652.531	9184.97
652.724	9283.27
652.916	8984.27
653.109	9010.89
653.301	8943.31
653.494	8924.88
653.686	8605.39
653.879	8802
654.071	8822.48
654.263	8742.61
654.456	8701.65
654.648	8521.43
654.84	8541.91
655.033	8654.55
655.225	8429.27
655.417	8527.57
655.61	8535.76
655.802	8498.9
655.994	8298.2
656.186	8247
656.379	8298.2
656.571	8414.93
656.763	8087.26
656.955	8212.18
657.148	7945.95
657.34	8009.44
657.532	8150.74
657.724	7958.24
657.916	7937.76
658.108	7634.66
658.3	7810.78
658.492	7902.94
658.684	7739.1
658.876	7855.84
659.068	7685.86
659.26	7669.47
659.452	7542.5
659.644	7704.29
659.836	7614.18
660.028	7507.68
660.22	7405.28
660.412	7431.91
660.604	7120.62
660.796	7448.29
660.988	7227.11
661.18	7276.26
661.372	7266.02
661.563	7296.74
661.755	7249.64
661.947	7145.19
662.139	7110.38
662.331	7155.43
662.522	6979.31
662.714	6917.87
662.906	6721.26
663.097	7018.22
663.289	6829.81
663.481	6817.52
663.673	6979.31
663.864	6762.22
664.056	6690.54
664.247	6766.32
664.439	6846.19
664.631	6684.4
664.822	6713.07
665.014	6883.05
665.205	6481.65
665.397	6549.23
665.588	6641.39
665.78	6440.69
665.971	6653.68
666.163	6608.62
666.354	6313.72
666.546	6366.96
666.737	6397.68
666.929	6323.96
667.12	6207.22
667.311	6348.53
667.503	6149.88
667.694	6137.59
667.885	6199.03
668.077	6106.87
668.268	6219.51
668.459	6137.59
668.651	6006.52
668.842	6151.93
669.033	6072.06
669.224	6125.3
669.416	6182.65
669.607	6039.29
669.798	5955.32
669.989	6088.44
670.18	5938.94
670.371	5895.93
670.563	5924.6
670.754	5916.41
670.945	5703.42
671.136	5662.46
671.327	5816.06
671.518	5705.47
671.709	5682.94
671.9	5807.87
672.091	5785.34
672.282	5723.9
672.473	5750.53
672.664	5830.4
672.855	5621.5
673.046	5621.5
673.237	5650.18
673.428	5732.09
673.619	5545.73
673.809	5576.45
674	5506.82
674.191	5537.54
674.382	5656.32
674.573	5699.33
674.764	5547.78
674.954	5463.81
675.145	5555.97
675.336	5545.73
675.527	5385.99
675.717	5555.97
675.908	5486.34
676.099	5551.87
676.289	5457.67
676.48	5424.9
676.671	5404.42
676.861	5490.43
677.052	5537.54
677.243	5385.99
677.433	5584.64
677.624	5492.48
677.814	5422.85
678.005	5541.63
678.195	5367.56
678.386	5512.96
678.576	5312.26
678.767	5388.04
678.957	5359.36
679.148	5404.42
679.338	5523.2
679.529	5447.43
679.719	5379.84
679.909	5332.74
680.1	5371.65
680.29	5254.92
680.481	5328.64
680.671	5334.79
680.861	5418.75
681.052	5488.39
681.242	5238.53
681.432	5328.64
681.622	5357.32
681.813	5230.34
682.003	5330.69
682.193	5093.13
682.383	5334.79
682.573	5207.81
682.764	5279.49
682.954	5422.85
683.144	5388.04
683.334	5340.93
683.524	5414.66
683.714	5347.08
683.904	5355.27
684.094	5420.8
684.284	5297.92
684.474	5367.56
684.664	5338.88
684.854	5209.86
685.044	5234.44
685.234	5207.81
685.424	5216.01
685.614	5306.12
685.804	5418.75
685.994	5093.13
686.184	5170.95
686.374	5234.44
686.564	5170.95
686.753	5064.46
686.943	5111.56
687.133	5150.47
687.323	5086.98
687.513	5054.22
687.702	4917
687.892	5064.46
688.082	5074.7
688.272	5093.13
688.461	5048.07
688.651	5066.5
688.841	4865.8
689.03	4882.19
689.22	4945.67
689.41	4759.31
689.599	4900.62
689.789	4882.19
689.979	4693.77
690.168	4833.04
690.358	4732.69
690.547	4620.05
690.737	4781.84
690.926	4775.69
691.116	4835.08
691.305	4734.73
691.495	4677.39
691.684	4701.97
691.874	4708.11
692.063	4628.24
692.252	4761.36
692.442	4415.25
692.631	4470.55
692.82	4722.45
693.01	4503.31
693.199	4435.73
693.388	4380.43
693.578	4515.6
693.767	4474.64
693.956	4511.5
694.146	4228.88
694.335	4554.51
694.524	4368.15
694.713	4540.18
694.902	4415.25
695.092	4419.35
695.281	4341.52
695.47	4507.41
695.659	4271.89
695.848	4300.56
696.037	4374.29
696.226	4261.65
696.415	4333.33
696.604	4423.44
696.793	4298.52
696.982	4319
697.171	4286.23
697.36	4251.41
697.549	4325.14
697.738	4353.81
697.927	4368.15
698.116	4196.12
698.305	4165.4
698.494	4273.94
698.683	4261.65
698.872	4310.8
699.061	4163.35
699.25	4249.36
699.438	4157.21
699.627	4302.61
699.816	4155.16
700.005	4269.84
700.193	4181.78
700.382	4288.28
700.571	4230.93
700.76	4136.73
700.948	4261.65
701.137	4155.16
701.326	4153.11
701.514	4130.58
701.703	4183.83
701.892	4187.93
702.08	4157.21
702.269	4216.6
702.457	4171.54
702.646	4228.88
702.834	4060.95
703.023	4124.44
703.212	4169.49
703.4	4226.84
703.589	3954.46
703.777	4163.35
703.965	4030.23
704.154	4181.78
704.342	4032.28
704.531	4128.53
704.719	4030.23
704.907	4204.31
705.096	4067.1
705.284	4192.02
705.472	4120.34
705.661	4110.1
705.849	4208.41
706.037	4263.7
706.226	4146.97
706.414	3966.74
706.602	4075.29
706.79	4114.2
706.979	4034.33
707.167	4163.35
707.355	4026.14
707.543	4097.81
707.731	4224.79
707.919	4032.28
708.107	4065.05
708.296	4085.53
708.484	4058.9
708.672	4237.08
708.86	4183.83
709.048	4169.49
709.236	3944.22
709.424	4144.92
709.612	4097.81
709.8	4024.09
709.988	4095.77
710.176	4140.82
710.364	4013.85
710.551	4071.19
710.739	4171.54
710.927	4077.34
711.115	3958.55
711.303	4046.62
711.491	4108.05
711.679	4022.04
711.866	4013.85
712.054	4216.6
712.242	3987.22
712.43	4171.54
712.617	4034.33
712.805	4097.81
712.993	3946.27
713.181	3964.7
713.368	4187.93
713.556	4081.43
713.744	4036.38
713.931	4142.87
714.119	4214.55
714.306	4173.59
714.494	4144.92
714.682	4093.72
714.869	4110.1
715.057	4097.81
715.244	4069.14
715.432	4155.16
715.619	4146.97
715.807	4050.71
715.994	3974.94
716.182	4134.68
716.369	4157.21
716.556	4136.73
716.744	3974.94
716.931	4001.56
717.119	4126.49
717.306	4116.25
717.493	4101.91
717.681	4017.94
717.868	4079.38
718.055	4149.01
718.242	4224.79
718.43	4048.66
718.617	4050.71
718.804	4058.9
718.991	3946.27
719.179	4093.72
719.366	4093.72
719.553	4159.25
719.74	4009.75
719.927	4052.76
720.114	3903.26
720.301	4122.39
720.488	3964.7
720.676	4130.58
720.863	3960.6
721.05	4015.9
721.237	3960.6
721.424	3995.42
721.611	4017.94
721.798	3929.88
721.985	3917.59
722.172	3985.18
722.358	3884.83
722.545	4042.52
722.732	4017.94
722.919	4101.91
723.106	4030.23
723.293	3905.31
723.48	4009.75
723.667	3985.18
723.853	3950.36
724.04	3993.37
724.227	3858.2
724.414	3942.17
724.6	3893.02
724.787	3944.22
724.974	4046.62
725.161	3958.55
725.347	3893.02
725.534	3954.46
725.72	3823.39
725.907	3895.07
726.094	3893.02
726.28	3950.36
726.467	3866.39
726.653	4007.7
726.84	3876.63
727.027	3929.88
727.213	3864.35
727.4	3882.78
727.586	3985.18
727.773	3886.87
727.959	3890.97
728.145	3860.25
728.332	3923.74
728.518	3823.39
728.705	3940.12
728.891	3790.62
729.077	3872.54
729.264	3833.63
729.45	3821.34
729.636	3835.67
729.823	3847.96
730.009	3974.94
730.195	3843.87
730.382	3798.81
730.568	3893.02
730.754	3880.73
730.94	3807
731.126	4003.61
731.313	3899.16
731.499	3909.4
731.685	3692.32
731.871	3936.03
732.057	3864.35
732.243	3720.99
732.429	3847.96
732.615	3876.63
732.801	3782.43
732.987	3872.54
733.173	3747.61
733.359	3663.65
733.545	3788.57
733.731	3882.78
733.917	3915.55
734.103	3852.06
734.289	3835.67
734.475	3684.13
734.661	3913.5
734.847	3739.42
735.033	3761.95
735.219	3487.52
735.404	3790.62
735.59	3729.18
735.776	3585.82
735.962	3667.74
736.148	3591.97
736.333	3645.21
736.519	3538.72
736.705	3632.93
736.89	3618.59
737.076	3614.49
737.262	3618.59
737.447	3510.05
737.633	3663.65
737.819	3628.83
738.004	3565.34
738.19	3690.27
738.375	3520.29
738.561	3610.4
738.747	3600.16
738.932	3505.95
739.118	3524.38
739.303	3573.53
739.489	3563.29
739.674	3485.47
739.859	3532.58
740.045	3567.39
740.23	3385.12
740.416	3424.03
740.601	3489.57
740.786	3516.19
740.972	3260.2
741.157	3372.83
741.342	3440.42
741.528	3340.07
741.713	3426.08
741.898	3268.39
742.084	3278.63
742.269	3342.11
742.454	3290.92
742.639	3282.72
742.824	3327.78
743.01	3252
743.195	3260.2
743.38	3301.15
743.565	3237.67
743.75	3432.22
743.935	3237.67
744.12	3254.05
744.305	3225.38
744.49	3274.53
744.675	3233.57
744.86	3065.64
745.045	3114.79
745.23	3139.37
745.415	3221.28
745.6	3176.23
745.785	3079.97
745.97	2959.14
746.155	3196.71
746.34	3137.32
746.525	2975.53
746.71	3014.44
746.895	3002.15
747.079	3012.39
747.264	2883.37
747.449	3010.34
747.634	2862.89
747.819	2844.46
748.003	2815.79
748.188	2848.55
748.373	2897.71
748.557	2770.73
748.742	2766.64
748.927	2815.79
749.111	2793.26
749.296	2694.96
749.481	2725.68
749.665	2754.35
749.85	2656.04
750.034	2768.68
750.219	2602.8
750.404	2510.64
750.588	2567.98
750.773	2541.36
750.957	2506.54
751.141	2510.64
751.326	2492.21
751.51	2453.3
751.695	2512.69
751.879	2424.62
752.064	2436.91
752.248	2426.67
752.432	2385.71
752.617	2467.63
752.801	2426.67
752.985	2418.48
753.17	2309.94
753.354	2379.57
753.538	2422.58
753.722	2371.38
753.907	2221.88
754.091	2185.01
754.275	2238.26
754.459	2238.26
754.643	2154.29
754.828	2244.4
755.012	2201.4
755.196	2205.49
755.38	2080.57
755.564	2082.61
755.748	2111.29
755.932	2062.13
756.116	2139.96
756.3	2025.27
756.484	2111.29
756.668	1904.44
756.852	1974.07
757.036	1974.07
757.22	1931.06
757.404	2031.41
757.588	2037.56
757.772	1974.07
757.956	2017.08
758.14	1967.93
758.323	1791.8
758.507	1892.15
758.691	1941.3
758.875	1922.87
759.059	1945.4
759.242	1886.01
759.426	1943.35
759.61	1865.53
759.794	1828.67
759.977	1808.19
760.161	1894.2
760.345	1718.08
760.528	1883.96
760.712	1736.51
760.895	1849.15
761.079	1828.67
761.263	1738.55
761.446	1689.4
761.63	1699.64
761.813	1675.07
761.997	1570.62
762.18	1574.72
762.364	1634.11
762.547	1619.77
762.731	1632.06
762.914	1634.11
763.098	1562.43
763.281	1619.77
763.464	1638.2
763.648	1589.05
763.831	1603.39
764.015	1517.37
764.198	1462.08
764.381	1513.28
764.564	1605.44
764.748	1523.52
764.931	1496.89
765.114	1541.95
765.297	1488.7
765.481	1584.96
765.664	1412.93
765.847	1556.29
766.03	1445.7
766.213	1500.99
766.397	1486.65
766.58	1500.99
766.763	1498.94
766.946	1435.46
767.129	1455.94
767.312	1384.26
767.495	1568.57
767.678	1369.92
767.861	1400.64
768.044	1402.69
768.227	1492.8
768.41	1417.02
768.593	1451.84
768.776	1386.3
768.959	1328.96
769.142	1462.08
769.324	1271.62
769.507	1402.69
769.69	1331.01
769.873	1361.73
770.056	1488.7
770.239	1304.39
770.421	1232.71
770.604	1367.87
770.787	1304.39
770.97	1318.72
771.152	1339.2
771.335	1326.91
771.518	1298.24
771.7	1343.3
771.883	1251.14
772.066	1247.04
772.248	1226.56
772.431	1263.43
772.613	1204.03
772.796	1189.7
772.978	1234.75
773.161	1199.94
773.343	1154.88
773.526	1111.88
773.708	1251.14
773.891	1109.83
774.073	1193.8
774.256	1128.26
774.438	1197.89
774.621	1072.96
774.803	1173.32
774.985	1165.12
775.168	1085.25
775.35	1136.45
775.532	1216.32
775.715	1038.15
775.897	1087.3
776.079	1068.87
776.261	1025.86
776.444	1046.34
776.626	1009.48
776.808	1081.16
776.99	1017.67
777.173	1083.2
777.355	991.05
777.537	1019.72
777.719	853.83
777.901	937.8
778.083	945.99
778.265	972.61
778.447	964.42
778.629	862.02
778.811	911.18
778.993	974.66
779.175	989
779.357	911.18
779.539	888.65
779.721	829.26
779.903	964.42
780.085	896.84
780.267	993.09
780.449	810.82
780.631	917.32
780.812	894.79
780.994	870.22
781.176	739.15
781.358	782.15
781.54	800.59
781.721	915.27
781.903	886.6
782.085	827.21
782.267	821.06
782.448	759.63
782.63	776.01
782.812	800.59
782.993	726.86
783.175	718.67
783.357	776.01
783.538	802.63
783.72	692.04
783.901	718.67
784.083	792.39
784.264	733
784.446	706.38
784.627	702.28
784.809	735.05
784.99	673.61
785.172	730.95
785.353	632.65
785.535	685.9
785.716	700.23
785.897	716.62
786.079	716.62
786.26	653.13
786.441	610.12
786.623	644.94
786.804	642.89
786.985	589.64
787.167	655.18
787.348	618.32
787.529	653.13
787.71	626.51
787.891	587.6
788.073	579.4
788.254	603.98
788.435	677.71
788.616	534.35
788.797	550.73
788.978	450.38
789.159	663.37
789.34	589.64
789.522	630.6
789.703	636.75
789.884	610.12
790.065	601.93
790.246	507.73
790.427	603.98
790.607	653.13
790.788	503.63
790.969	542.54
791.15	587.6
791.331	515.92
791.512	569.16
791.693	493.39
791.874	542.54
792.054	601.93
792.235	530.25
792.416	489.29
792.597	520.01
792.778	446.29
792.958	487.25
793.139	530.25
793.32	493.39
793.5	546.64
793.681	495.44
793.862	507.73
794.042	417.61
794.223	509.77
794.404	489.29
794.584	427.85
794.765	532.3
794.945	450.38
795.126	413.52
795.306	462.67
795.487	444.24
795.667	415.57
795.848	395.09
796.028	395.09
796.209	415.57
796.389	442.19
796.57	417.61
796.75	347.98
796.93	462.67
797.111	409.42
797.291	421.71
797.471	417.61
797.652	427.85
797.832	485.2
798.012	456.53
798.192	403.28
798.373	360.27
798.553	415.57
798.733	403.28
798.913	374.61
799.093	407.38
799.274	401.23
799.454	440.14
799.634	417.61
799.814	419.66
799.994	395.09
800.174	427.85
800.354	431.95
800.534	409.42
800.714	395.09
800.894	395.09
801.074	372.56
801.254	302.93
801.434	378.7
801.614	331.6
801.794	364.37
801.974	810.82
802.154	335.7
802.334	372.56
802.514	313.17
802.693	386.9
802.873	280.4
803.053	403.28
803.233	319.31
803.413	341.84
803.592	395.09
803.772	257.87
803.952	333.65
804.131	378.7
804.311	421.71
804.491	384.85
804.67	288.59
804.85	319.31
805.03	350.03
805.209	325.46
805.389	243.54
805.568	290.64
805.748	337.74
805.928	266.07
806.107	337.74
806.287	384.85
806.466	350.03
806.646	282.45
806.825	313.17
807.004	319.31
807.184	343.89
807.363	315.22
807.543	276.31
807.722	245.59
807.901	317.26
808.081	282.45
808.26	243.54
808.439	290.64
808.619	323.41
808.798	198.48
808.977	272.21
809.156	335.7
809.336	286.54
809.515	278.35
809.694	268.11
809.873	286.54
810.052	307.02
810.231	276.31
810.411	229.2
810.59	251.73
810.769	216.91
810.948	264.02
811.127	280.4
811.306	235.35
811.485	192.34
811.664	186.19
811.843	302.93
812.022	253.78
812.201	288.59
812.38	284.5
812.559	251.73
812.737	323.41
812.916	204.63
813.095	235.35
813.274	239.44
813.453	311.12
813.632	290.64
813.811	257.87
813.989	208.72
814.168	280.4
814.347	272.21
814.526	190.29
814.704	239.44
814.883	294.74
815.062	182.1
815.24	268.11
815.419	208.72
815.598	204.63
815.776	247.63
815.955	184.15
816.133	163.67
816.312	216.91
816.49	190.29
816.669	190.29
816.847	221.01
817.026	239.44
817.204	180.05
817.383	212.82
817.561	214.87
817.74	202.58
817.918	270.16
818.097	239.44
818.275	153.43
818.453	198.48
818.632	243.54
818.81	149.33
818.988	259.92
819.167	165.71
819.345	206.67
819.523	190.29
819.701	182.1
819.879	229.2
820.058	223.06
820.236	171.86
820.414	214.87
820.592	239.44
820.77	120.66
820.948	186.19
821.127	173.91
821.305	214.87
821.483	208.72
821.661	200.53
821.839	218.96
822.017	124.76
822.195	188.24
822.373	192.34
822.551	171.86
822.729	280.4
822.907	190.29
823.085	208.72
823.262	198.48
823.44	141.14
823.618	147.28
823.796	216.91
823.974	165.71
824.152	155.47
824.329	178
824.507	208.72
824.685	141.14
824.863	155.47
825.04	202.58
825.218	173.91
825.396	96.08
825.574	130.9
825.751	145.24
825.929	157.52
826.107	163.67
826.284	126.8
826.462	202.58
826.639	110.42
826.817	130.9
826.994	139.09
827.172	141.14
827.349	247.63
827.527	59.22
827.704	184.15
827.882	149.33
828.059	221.01
828.237	75.6
828.414	149.33
828.591	132.95
828.769	255.83
828.946	173.91
829.124	210.77
829.301	126.8
829.478	102.23
829.655	124.76
829.833	145.24
830.01	149.33
830.187	149.33
830.364	157.52
830.542	149.33
830.719	157.52
830.896	163.67
831.073	91.99
831.25	147.28
831.427	173.91
831.604	212.82
831.782	155.47
831.959	106.32
832.136	208.72
832.313	173.91
832.49	132.95
832.667	124.76
832.844	22.36
833.021	202.58
833.198	100.18
833.374	175.95
833.551	71.51
833.728	65.36
833.905	165.71
834.082	122.71
834.259	100.18
834.436	137.04
834.612	143.19
834.789	190.29
834.966	141.14
835.143	122.71
835.319	34.64
835.496	196.43
835.673	118.61
835.85	175.95
836.026	124.76
836.203	128.85
836.38	61.27
836.556	79.7
836.733	122.71
836.909	155.47
837.086	128.85
837.262	106.32
837.439	130.9
837.616	67.41
837.792	63.32
837.968	149.33
838.145	16.21
838.321	116.56
838.498	81.75
838.674	102.23
838.851	173.91
839.027	108.37
839.203	190.29
839.38	157.52
839.556	96.08
839.732	171.86
839.909	151.38
840.085	87.89
840.261	91.99
840.437	137.04
840.614	59.22
840.79	116.56
840.966	36.69
841.142	167.76
841.318	104.28
841.494	163.67
841.671	137.04
841.847	51.03
842.023	59.22
842.199	110.42
842.375	81.75
842.551	75.6
842.727	94.04
842.903	83.8
843.079	69.46
843.255	98.13
843.431	42.84
843.607	51.03
843.783	98.13
843.959	89.94
844.134	108.37
844.31	112.47
844.486	77.65
844.662	34.64
844.838	149.33
845.013	53.08
845.189	91.99
845.365	75.6
845.541	51.03
845.716	42.84
845.892	112.47
846.068	75.6
846.244	89.94
846.419	98.13
846.595	87.89
846.77	36.69
846.946	190.29
847.122	100.18
847.297	65.36
847.473	71.51
847.648	73.56
847.824	16.21
847.999	69.46
848.175	77.65
848.35	8.02
848.526	73.56
848.701	91.99
848.876	104.28
849.052	139.09
849.227	-69.8
849.403	63.32
849.578	102.23
849.753	63.32
849.929	67.41
850.104	96.08
850.279	83.8
850.454	116.56
850.63	67.41
850.805	34.64
850.98	71.51
851.155	63.32
851.33	112.47
851.505	51.03
851.681	61.27
851.856	98.13
852.031	51.03
852.206	61.27
852.381	59.22
852.556	163.67
852.731	-18.6
852.906	165.71
853.081	94.04
853.256	69.46
853.431	34.64
853.606	32.6
853.781	38.74
853.956	91.99
854.131	-12.46
854.305	106.32
854.48	91.99
854.655	16.21
854.83	42.84
855.005	36.69
855.18	-8.36
855.354	53.08
855.529	32.6
855.704	67.41
855.879	130.9
856.053	81.75
856.228	141.14
856.403	53.08
856.577	65.36
856.752	-0.17
856.926	38.74
857.101	87.89
857.276	28.5
857.45	118.61
857.625	77.65
857.799	51.03
857.974	77.65
858.148	-0.17
858.323	30.55
858.497	55.12
858.672	-18.6
858.846	10.07
859.02	57.17
859.195	53.08
859.369	46.93
859.543	73.56
859.718	44.88
859.892	102.23
860.066	77.65
860.241	38.74
860.415	26.45
860.589	46.93
860.763	36.69
860.938	22.36
861.112	5.97
861.286	67.41
861.46	12.12
861.634	83.8
861.808	214.87
861.982	-16.55
862.157	48.98
862.331	73.56
862.505	63.32
862.679	67.41
862.853	30.55
863.027	69.46
863.201	100.18
863.375	18.26
863.549	26.45
863.722	116.56
863.896	38.74
864.07	40.79
864.244	65.36
864.418	83.8
864.592	59.22
864.766	44.88
864.939	59.22
865.113	59.22
865.287	120.66
865.461	-2.22
865.634	48.98
865.808	42.84
865.982	67.41
866.156	-32.94
866.329	5.97
866.503	98.13
866.676	1.88
866.85	36.69
867.024	8.02
867.197	1.88
867.371	98.13
867.544	46.93
867.718	63.32
867.891	18.26
868.065	48.98
868.238	20.31
868.412	89.94
868.585	122.71
868.759	8.02
868.932	8.02
869.105	-14.51
869.279	30.55
869.452	-22.7
869.625	44.88
869.799	44.88
869.972	-26.79
870.145	42.84
870.319	8.02
870.492	-14.51
870.665	44.88
870.838	69.46
871.011	-30.89
871.185	3.93
871.358	28.5
871.531	65.36
871.704	36.69
871.877	-8.36
872.05	44.88
872.223	-14.51
872.396	30.55
872.569	112.47
872.742	30.55
872.915	116.56
873.088	16.21
873.261	44.88
873.434	112.47
873.607	-2.22
873.78	48.98
873.953	10.07
874.126	-26.79
874.299	22.36
874.471	-65.71
874.644	30.55
874.817	63.32
874.99	65.36
875.163	83.8
875.335	-20.65
875.508	59.22
875.681	57.17
875.853	28.5
876.026	59.22
876.199	18.26
876.371	77.65
876.544	42.84
876.717	67.41
876.889	32.6
877.062	65.36
877.234	18.26
877.407	63.32
877.579	85.84
877.752	73.56
877.924	-4.27
878.097	36.69
878.269	-30.89
878.442	57.17
878.614	48.98
878.786	44.88
878.959	-4.27
879.131	77.65
879.303	1.88
879.476	34.64
879.648	61.27
879.82	-45.23
879.993	-0.17
880.165	71.51
880.337	69.46
880.509	-26.79
880.681	-28.84
880.854	16.21
881.026	65.36
881.198	26.45
881.37	42.84
881.542	-47.27
881.714	-0.17
881.886	32.6
882.058	-30.89
882.23	32.6
882.402	18.26
882.574	53.08
882.746	98.13
882.918	3.93
883.09	-16.55
883.262	69.46
883.434	30.55
883.606	34.64
883.778	-4.27
883.95	44.88
884.122	63.32
884.293	8.02
884.465	83.8
884.637	61.27
884.809	61.27
884.98	36.69
885.152	12.12
885.324	63.32
885.496	28.5
885.667	-71.85
885.839	14.17
886.011	18.26
886.182	55.12
886.354	77.65
886.525	42.84
886.697	28.5
886.869	-34.99
887.04	-61.61
887.212	81.75
887.383	34.64
887.555	-10.41
887.726	14.17
887.897	36.69
888.069	26.45
888.24	48.98
888.412	40.79
888.583	-63.66
888.754	-67.75
888.926	16.21
889.097	26.45
889.268	-51.37
889.44	10.07
889.611	-14.51
889.782	18.26
889.953	22.36
890.125	81.75
890.296	-16.55
890.467	-2.22
890.638	12.12
890.809	-10.41
890.98	24.4
891.151	-28.84
891.323	36.69
891.494	28.5
891.665	-18.6
891.836	18.26
892.007	14.17
892.178	42.84
892.349	-22.7
892.52	-30.89
892.691	-2.22
892.862	18.26
893.032	28.5
893.203	-4.27
893.374	44.88
893.545	22.36
893.716	16.21
893.887	40.79
894.057	16.21
894.228	40.79
894.399	-26.79
894.57	12.12
894.74	-6.31
894.911	30.55
895.082	12.12
895.253	14.17
895.423	14.17
895.594	22.36
895.764	40.79
895.935	-37.03
896.106	-24.75
896.276	61.27
896.447	28.5
896.617	40.79
896.788	16.21
896.958	46.93
897.129	22.36
897.299	-45.23
897.47	40.79
897.64	57.17
897.81	-4.27
897.981	40.79
898.151	-24.75
898.322	-24.75
898.492	36.69
898.662	42.84
898.832	10.07
899.003	10.07
899.173	5.97
899.343	42.84
899.513	22.36
