Data from USB4F104151__13__10-21-03-122.txt Node

Date: Wed Mar 12 10:21:03 EDT 2025
User: louis
Spectrometer: USB4F10415
Trigger mode: 4
Integration Time (sec): 3.000000E-2
Scans to average: 1
Electric dark correction enabled: true
Nonlinearity correction enabled: false
Boxcar width: 0
XAxis mode: Wavelengths
Number of Pixels in Spectrum: 3648
>>>>>Begin Spectral Data<<<<<
178.204	-88.4
178.424	-88.4
178.644	-88.4
178.864	-127.32
179.084	-92.5
179.304	-78.16
179.524	42.67
179.744	-12.63
179.964	9.9
180.184	22.19
180.404	44.71
180.624	28.33
180.844	-57.68
181.064	-20.82
181.283	16.04
181.503	-20.82
181.723	26.28
181.943	-82.26
182.163	110.25
182.383	-10.58
182.602	9.9
182.822	118.44
183.042	40.62
183.262	22.19
183.482	40.62
183.701	30.38
183.921	100.01
184.141	44.71
184.361	83.63
184.58	120.49
184.8	-8.53
185.02	7.85
185.239	32.43
185.459	3.75
185.679	20.14
185.898	52.91
186.118	-8.53
186.338	102.06
186.557	36.52
186.777	24.23
186.997	-35.16
187.216	18.09
187.436	116.39
187.655	-0.34
187.875	69.29
188.095	50.86
188.314	102.06
188.534	24.23
188.753	-14.68
188.973	30.38
189.192	50.86
189.412	114.34
189.631	42.67
189.851	48.81
190.07	69.29
190.29	-29.01
190.509	24.23
190.729	52.91
190.948	9.9
191.168	71.34
191.387	20.14
191.607	28.33
191.826	28.33
192.045	-33.11
192.265	22.19
192.484	-47.44
192.704	46.76
192.923	13.99
193.142	48.81
193.362	54.95
193.581	24.23
193.8	65.19
194.02	50.86
194.239	9.9
194.458	7.85
194.678	3.75
194.897	18.09
195.116	-41.3
195.335	3.75
195.555	16.04
195.774	32.43
195.993	134.82
196.212	30.38
196.432	28.33
196.651	11.95
196.87	-8.53
197.089	102.06
197.308	52.91
197.528	16.04
197.747	-20.82
197.966	77.48
198.185	77.48
198.404	77.48
198.623	9.9
198.842	-0.34
199.062	89.77
199.281	57
199.5	85.67
199.719	59.05
199.938	40.62
200.157	26.28
200.376	-29.01
200.595	52.91
200.814	57
201.033	1.71
201.252	7.85
201.471	69.29
201.69	75.43
201.909	61.1
202.128	18.09
202.347	-20.82
202.566	3.75
202.785	61.1
203.004	11.95
203.223	89.77
203.442	50.86
203.661	-16.73
203.879	22.19
204.098	50.86
204.317	-6.49
204.536	59.05
204.755	18.09
204.974	38.57
205.193	36.52
205.411	7.85
205.63	69.29
205.849	9.9
206.068	42.67
206.287	18.09
206.505	44.71
206.724	24.23
206.943	48.81
207.162	34.47
207.381	-39.25
207.599	-29.01
207.818	52.91
208.037	-41.3
208.255	38.57
208.474	50.86
208.693	48.81
208.911	-29.01
209.13	-20.82
209.349	59.05
209.567	11.95
209.786	85.67
210.005	85.67
210.223	44.71
210.442	-12.63
210.661	48.81
210.879	40.62
211.098	9.9
211.316	46.76
211.535	-35.16
211.753	-49.49
211.972	38.57
212.191	-14.68
212.409	18.09
212.628	-4.44
212.846	-14.68
213.065	18.09
213.283	93.87
213.502	-8.53
213.72	-67.92
213.938	48.81
214.157	-6.49
214.375	83.63
214.594	34.47
214.812	-14.68
215.031	36.52
215.249	20.14
215.467	57
215.686	-24.92
215.904	-22.87
216.122	-12.63
216.341	32.43
216.559	28.33
216.778	65.19
216.996	85.67
217.214	-4.44
217.432	-49.49
217.651	48.81
217.869	-12.63
218.087	7.85
218.306	9.9
218.524	50.86
218.742	3.75
218.96	-20.82
219.179	-57.68
219.397	-18.77
219.615	81.58
219.833	34.47
220.051	-26.96
220.27	75.43
220.488	24.23
220.706	36.52
220.924	-24.92
221.142	-41.3
221.36	65.19
221.578	28.33
221.796	13.99
222.015	20.14
222.233	20.14
222.451	16.04
222.669	5.8
222.887	-24.92
223.105	34.47
223.323	46.76
223.541	-16.73
223.759	61.1
223.977	-37.2
224.195	28.33
224.413	36.52
224.631	50.86
224.849	36.52
225.067	81.58
225.285	81.58
225.503	50.86
225.721	-8.53
225.939	1.71
226.157	11.95
226.375	126.63
226.592	-4.44
226.81	73.39
227.028	112.3
227.246	20.14
227.464	-41.3
227.682	-8.53
227.9	30.38
228.117	85.67
228.335	42.67
228.553	50.86
228.771	38.57
228.989	11.95
229.206	61.1
229.424	38.57
229.642	18.09
229.86	-61.78
230.077	67.24
230.295	42.67
230.513	77.48
230.731	18.09
230.948	9.9
231.166	20.14
231.384	-31.06
231.601	32.43
231.819	34.47
232.037	-20.82
232.254	38.57
232.472	65.19
232.689	22.19
232.907	26.28
233.125	-4.44
233.342	40.62
233.56	-31.06
233.777	44.71
233.995	11.95
234.213	28.33
234.43	97.96
234.648	34.47
234.865	42.67
235.083	9.9
235.3	13.99
235.518	34.47
235.735	65.19
235.953	-16.73
236.17	-67.92
236.388	-0.34
236.605	52.91
236.822	48.81
237.04	28.33
237.257	32.43
237.475	20.14
237.692	24.23
237.909	54.95
238.127	-16.73
238.344	24.23
238.562	-0.34
238.779	-22.87
238.996	16.04
239.214	52.91
239.431	126.63
239.648	-26.96
239.865	-2.39
240.083	28.33
240.3	52.91
240.517	-24.92
240.735	77.48
240.952	9.9
241.169	79.53
241.386	-18.77
241.603	26.28
241.821	-8.53
242.038	112.3
242.255	-57.68
242.472	32.43
242.689	65.19
242.907	34.47
243.124	102.06
243.341	61.1
243.558	20.14
243.775	11.95
243.992	3.75
244.209	48.81
244.426	71.34
244.643	42.67
244.86	20.14
245.078	22.19
245.295	108.2
245.512	48.81
245.729	-61.78
245.946	83.63
246.163	-29.01
246.38	-0.34
246.597	26.28
246.814	36.52
247.031	-6.49
247.248	77.48
247.464	-24.92
247.681	32.43
247.898	75.43
248.115	18.09
248.332	-31.06
248.549	13.99
248.766	100.01
248.983	-20.82
249.2	118.44
249.417	40.62
249.633	-8.53
249.85	48.81
250.067	-20.82
250.284	16.04
250.501	61.1
250.717	28.33
250.934	-51.54
251.151	11.95
251.368	16.04
251.585	26.28
251.801	5.8
252.018	85.67
252.235	32.43
252.451	-59.73
252.668	36.52
252.885	50.86
253.102	65.19
253.318	-6.49
253.535	36.52
253.752	-16.73
253.968	-59.73
254.185	34.47
254.401	-0.34
254.618	95.91
254.835	-24.92
255.051	20.14
255.268	-8.53
255.484	50.86
255.701	28.33
255.917	26.28
256.134	-26.96
256.351	18.09
256.567	52.91
256.784	81.58
257	57
257.217	85.67
257.433	28.33
257.65	44.71
257.866	30.38
258.082	34.47
258.299	52.91
258.515	7.85
258.732	-20.82
258.948	-12.63
259.165	69.29
259.381	73.39
259.597	89.77
259.814	-45.4
260.03	40.62
260.246	7.85
260.463	89.77
260.679	28.33
260.895	-22.87
261.112	59.05
261.328	52.91
261.544	-10.58
261.761	38.57
261.977	-0.34
262.193	-37.2
262.409	-31.06
262.626	48.81
262.842	18.09
263.058	16.04
263.274	-6.49
263.49	36.52
263.707	9.9
263.923	11.95
264.139	61.1
264.355	89.77
264.571	54.95
264.787	40.62
265.004	48.81
265.22	26.28
265.436	-24.92
265.652	122.54
265.868	9.9
266.084	7.85
266.3	9.9
266.516	9.9
266.732	38.57
266.948	-57.68
267.164	13.99
267.38	-47.44
267.596	48.81
267.812	40.62
268.028	100.01
268.244	-45.4
268.46	110.25
268.676	5.8
268.892	48.81
269.108	52.91
269.324	28.33
269.54	32.43
269.756	40.62
269.972	3.75
270.188	3.75
270.403	-39.25
270.619	48.81
270.835	54.95
271.051	36.52
271.267	-41.3
271.483	48.81
271.698	13.99
271.914	-16.73
272.13	11.95
272.346	-12.63
272.562	46.76
272.777	40.62
272.993	9.9
273.209	30.38
273.425	108.2
273.64	50.86
273.856	30.38
274.072	20.14
274.287	32.43
274.503	7.85
274.719	32.43
274.934	54.95
275.15	40.62
275.366	-14.68
275.581	26.28
275.797	42.67
276.012	75.43
276.228	-26.96
276.444	42.67
276.659	26.28
276.875	-31.06
277.09	28.33
277.306	-4.44
277.521	85.67
277.737	-14.68
277.952	24.23
278.168	11.95
278.383	65.19
278.599	3.75
278.814	44.71
279.03	44.71
279.245	28.33
279.461	97.96
279.676	-35.16
279.892	81.58
280.107	11.95
280.322	-4.44
280.538	-4.44
280.753	1.71
280.969	89.77
281.184	71.34
281.399	77.48
281.615	38.57
281.83	67.24
282.045	97.96
282.26	40.62
282.476	-37.2
282.691	100.01
282.906	9.9
283.122	18.09
283.337	52.91
283.552	16.04
283.767	46.76
283.983	-18.77
284.198	3.75
284.413	71.34
284.628	-20.82
284.843	93.87
285.058	52.91
285.274	3.75
285.489	46.76
285.704	134.82
285.919	-8.53
286.134	122.54
286.349	-8.53
286.564	13.99
286.779	-8.53
286.995	83.63
287.21	-41.3
287.425	38.57
287.64	-20.82
287.855	-2.39
288.07	3.75
288.285	108.2
288.5	46.76
288.715	44.71
288.93	20.14
289.145	48.81
289.36	63.15
289.575	50.86
289.79	85.67
290.004	3.75
290.219	44.71
290.434	-8.53
290.649	52.91
290.864	26.28
291.079	-20.82
291.294	50.86
291.509	52.91
291.724	40.62
291.938	-39.25
292.153	36.52
292.368	7.85
292.583	40.62
292.798	63.15
293.012	91.82
293.227	38.57
293.442	42.67
293.657	38.57
293.871	134.82
294.086	91.82
294.301	73.39
294.516	34.47
294.73	34.47
294.945	36.52
295.16	-39.25
295.374	143.02
295.589	61.1
295.804	24.23
296.018	34.47
296.233	61.1
296.447	81.58
296.662	42.67
296.877	48.81
297.091	46.76
297.306	65.19
297.52	36.52
297.735	75.43
297.949	28.33
298.164	67.24
298.378	24.23
298.593	9.9
298.807	-39.25
299.022	36.52
299.236	-2.39
299.451	28.33
299.665	-20.82
299.88	48.81
300.094	32.43
300.309	-18.77
300.523	54.95
300.737	34.47
300.952	5.8
301.166	65.19
301.381	-12.63
301.595	-37.2
301.809	-6.49
302.024	89.77
302.238	69.29
302.452	-4.44
302.667	32.43
302.881	59.05
303.095	16.04
303.309	20.14
303.524	-12.63
303.738	42.67
303.952	36.52
304.166	63.15
304.381	26.28
304.595	-29.01
304.809	73.39
305.023	63.15
305.237	36.52
305.452	73.39
305.666	52.91
305.88	100.01
306.094	85.67
306.308	79.53
306.522	57
306.736	75.43
306.95	-2.39
307.164	3.75
307.379	69.29
307.593	106.15
307.807	42.67
308.021	30.38
308.235	7.85
308.449	-8.53
308.663	42.67
308.877	77.48
309.091	30.38
309.305	75.43
309.519	32.43
309.733	77.48
309.947	9.9
310.161	28.33
310.374	30.38
310.588	-12.63
310.802	-35.16
311.016	11.95
311.23	36.52
311.444	40.62
311.658	67.24
311.872	97.96
312.085	32.43
312.299	-8.53
312.513	44.71
312.727	118.44
312.941	42.67
313.154	57
313.368	97.96
313.582	61.1
313.796	28.33
314.009	46.76
314.223	52.91
314.437	20.14
314.651	83.63
314.864	-33.11
315.078	108.2
315.292	34.47
315.505	20.14
315.719	7.85
315.933	18.09
316.146	71.34
316.36	3.75
316.573	69.29
316.787	16.04
317.001	73.39
317.214	-74.07
317.428	97.96
317.641	71.34
317.855	7.85
318.068	59.05
318.282	50.86
318.495	54.95
318.709	57
318.922	32.43
319.136	102.06
319.349	59.05
319.563	38.57
319.776	-14.68
319.99	38.57
320.203	-10.58
320.417	50.86
320.63	18.09
320.843	110.25
321.057	22.19
321.27	-37.2
321.483	65.19
321.697	106.15
321.91	-2.39
322.124	59.05
322.337	77.48
322.55	11.95
322.763	42.67
322.977	42.67
323.19	57
323.403	114.34
323.617	-24.92
323.83	52.91
324.043	36.52
324.256	118.44
324.469	-12.63
324.683	54.95
324.896	-22.87
325.109	11.95
325.322	69.29
325.535	52.91
325.748	16.04
325.962	89.77
326.175	44.71
326.388	97.96
326.601	79.53
326.814	7.85
327.027	5.8
327.24	52.91
327.453	-6.49
327.666	73.39
327.879	50.86
328.092	120.49
328.305	91.82
328.518	71.34
328.731	34.47
328.944	30.38
329.157	32.43
329.37	30.38
329.583	79.53
329.796	63.15
330.009	5.8
330.222	30.38
330.435	89.77
330.648	32.43
330.861	40.62
331.073	81.58
331.286	77.48
331.499	32.43
331.712	69.29
331.925	-8.53
332.138	57
332.35	-55.64
332.563	22.19
332.776	69.29
332.989	30.38
333.202	-14.68
333.414	16.04
333.627	-8.53
333.84	-4.44
334.053	48.81
334.265	-26.96
334.478	32.43
334.691	59.05
334.903	28.33
335.116	46.76
335.329	61.1
335.541	11.95
335.754	24.23
335.966	57
336.179	97.96
336.392	1.71
336.604	32.43
336.817	59.05
337.029	18.09
337.242	24.23
337.454	65.19
337.667	38.57
337.88	69.29
338.092	104.11
338.305	44.71
338.517	11.95
338.729	71.34
338.942	24.23
339.154	9.9
339.367	89.77
339.579	38.57
339.792	-35.16
340.004	75.43
340.217	54.95
340.429	61.1
340.641	38.57
340.854	52.91
341.066	104.11
341.278	108.2
341.491	7.85
341.703	-29.01
341.915	-0.34
342.128	7.85
342.34	-72.02
342.552	46.76
342.764	28.33
342.977	40.62
343.189	34.47
343.401	112.3
343.613	18.09
343.826	-37.2
344.038	22.19
344.25	93.87
344.462	-12.63
344.674	-4.44
344.886	3.75
345.099	54.95
345.311	32.43
345.523	77.48
345.735	16.04
345.947	-4.44
346.159	81.58
346.371	85.67
346.583	91.82
346.795	87.72
347.007	-26.96
347.219	48.81
347.431	9.9
347.643	83.63
347.855	36.52
348.067	1.71
348.279	11.95
348.491	57
348.703	7.85
348.915	30.38
349.127	13.99
349.339	59.05
349.551	28.33
349.763	89.77
349.975	-26.96
350.187	79.53
350.399	40.62
350.61	93.87
350.822	61.1
351.034	13.99
351.246	20.14
351.458	22.19
351.669	61.1
351.881	102.06
352.093	32.43
352.305	24.23
352.517	50.86
352.728	1.71
352.94	13.99
353.152	16.04
353.363	30.38
353.575	24.23
353.787	-0.34
353.999	34.47
354.21	118.44
354.422	61.1
354.633	75.43
354.845	52.91
355.057	52.91
355.268	67.24
355.48	48.81
355.692	3.75
355.903	61.1
356.115	11.95
356.326	22.19
356.538	151.21
356.749	89.77
356.961	126.63
357.172	44.71
357.384	-24.92
357.595	91.82
357.807	22.19
358.018	-2.39
358.23	34.47
358.441	112.3
358.653	77.48
358.864	77.48
359.075	-12.63
359.287	20.14
359.498	85.67
359.709	-14.68
359.921	-82.26
360.132	36.52
360.344	-6.49
360.555	-2.39
360.766	50.86
360.977	52.91
361.189	87.72
361.4	5.8
361.611	61.1
361.823	52.91
362.034	32.43
362.245	32.43
362.456	79.53
362.667	40.62
362.879	24.23
363.09	50.86
363.301	81.58
363.512	147.11
363.723	30.38
363.935	-4.44
364.146	57
364.357	13.99
364.568	75.43
364.779	-12.63
364.99	114.34
365.201	67.24
365.412	28.33
365.623	-18.77
365.834	5.8
366.045	20.14
366.256	71.34
366.467	28.33
366.678	63.15
366.889	22.19
367.1	104.11
367.311	44.71
367.522	38.57
367.733	91.82
367.944	67.24
368.155	69.29
368.366	50.86
368.577	143.02
368.788	59.05
368.999	34.47
369.209	140.97
369.42	110.25
369.631	112.3
369.842	108.2
370.053	-51.54
370.264	93.87
370.474	65.19
370.685	-43.35
370.896	120.49
371.107	11.95
371.317	7.85
371.528	3.75
371.739	28.33
371.95	69.29
372.16	16.04
372.371	36.52
372.582	-4.44
372.792	16.04
373.003	112.3
373.214	11.95
373.424	73.39
373.635	67.24
373.846	159.4
374.056	20.14
374.267	9.9
374.477	75.43
374.688	28.33
374.898	-20.82
375.109	77.48
375.319	34.47
375.53	63.15
375.74	93.87
375.951	81.58
376.161	44.71
376.372	22.19
376.582	59.05
376.793	32.43
377.003	46.76
377.214	32.43
377.424	5.8
377.635	100.01
377.845	91.82
378.055	102.06
378.266	59.05
378.476	30.38
378.686	-6.49
378.897	65.19
379.107	122.54
379.317	34.47
379.528	20.14
379.738	91.82
379.948	-6.49
380.158	118.44
380.369	30.38
380.579	18.09
380.789	71.34
380.999	114.34
381.21	91.82
381.42	114.34
381.63	50.86
381.84	54.95
382.05	65.19
382.261	85.67
382.471	83.63
382.681	57
382.891	110.25
383.101	-22.87
383.311	32.43
383.521	42.67
383.731	38.57
383.941	30.38
384.151	32.43
384.361	69.29
384.571	77.48
384.781	57
384.991	102.06
385.201	11.95
385.411	108.2
385.621	140.97
385.831	59.05
386.041	54.95
386.251	81.58
386.461	140.97
386.671	91.82
386.881	46.76
387.091	59.05
387.301	69.29
387.511	-4.44
387.72	42.67
387.93	-4.44
388.14	44.71
388.35	20.14
388.56	118.44
388.769	140.97
388.979	83.63
389.189	11.95
389.399	16.04
389.609	93.87
389.818	143.02
390.028	-0.34
390.238	54.95
390.447	34.47
390.657	106.15
390.867	3.75
391.076	-0.34
391.286	-39.25
391.496	-6.49
391.705	5.8
391.915	110.25
392.125	130.73
392.334	40.62
392.544	46.76
392.753	122.54
392.963	-0.34
393.172	93.87
393.382	79.53
393.591	97.96
393.801	118.44
394.01	46.76
394.22	190.12
394.429	93.87
394.639	132.78
394.848	140.97
395.058	89.77
395.267	95.91
395.477	69.29
395.686	130.73
395.895	65.19
396.105	108.2
396.314	116.39
396.524	102.06
396.733	63.15
396.942	130.73
397.152	179.88
397.361	194.22
397.57	50.86
397.78	114.34
397.989	73.39
398.198	161.45
398.407	118.44
398.617	140.97
398.826	40.62
399.035	89.77
399.244	85.67
399.453	159.4
399.663	102.06
399.872	126.63
400.081	143.02
400.29	118.44
400.499	79.53
400.708	118.44
400.917	73.39
401.127	181.93
401.336	128.68
401.545	120.49
401.754	126.63
401.963	108.2
402.172	132.78
402.381	89.77
402.59	183.98
402.799	65.19
403.008	95.91
403.217	102.06
403.426	159.4
403.635	120.49
403.844	159.4
404.053	153.26
404.262	138.92
404.471	143.02
404.68	126.63
404.888	89.77
405.097	163.5
405.306	167.59
405.515	231.08
405.724	194.22
405.933	175.78
406.142	138.92
406.35	194.22
406.559	151.21
406.768	147.11
406.977	274.09
407.185	151.21
407.394	188.07
407.603	212.65
407.812	245.41
408.02	274.09
408.229	269.99
408.438	226.98
408.646	251.56
408.855	337.57
409.064	343.72
409.272	294.57
409.481	392.87
409.69	224.94
409.898	253.61
410.107	257.7
410.315	319.14
410.524	368.29
410.733	386.72
410.941	362.15
411.15	358.05
411.358	339.62
411.567	411.3
411.775	419.49
411.984	405.16
412.192	493.22
412.401	429.73
412.609	542.37
412.818	482.98
413.026	536.23
413.234	489.12
413.443	513.7
413.651	546.47
413.86	628.39
414.068	579.23
414.276	638.62
414.485	638.62
414.693	691.87
414.901	747.17
415.11	779.93
415.318	743.07
415.526	683.68
415.734	794.27
415.943	790.17
416.151	863.9
416.359	839.33
416.567	851.61
416.776	898.72
416.984	945.82
417.192	1044.12
417.4	997.02
417.608	1046.17
417.817	1123.99
418.025	1132.19
418.233	1142.43
418.441	1195.67
418.649	1207.96
418.857	1379.99
419.065	1332.89
419.273	1398.42
419.481	1429.14
419.689	1490.58
419.897	1537.68
420.105	1511.06
420.313	1609.36
420.521	1601.17
420.729	1590.93
420.937	1797.78
421.145	1834.64
421.353	1963.66
421.561	1986.19
421.769	1975.95
421.977	2096.78
422.185	2186.89
422.393	2199.18
422.601	2252.42
422.809	2338.44
423.017	2322.06
423.224	2428.55
423.432	2555.52
423.64	2606.72
423.848	2813.57
424.056	2725.51
424.263	2926.21
424.471	2940.54
424.679	2946.69
424.887	3186.3
425.094	3245.69
425.302	3315.32
425.51	3587.7
425.718	3526.26
425.925	3499.64
426.133	3669.62
426.341	3903.09
426.548	4017.77
426.756	4062.83
426.964	4206.19
427.171	4187.75
427.379	4367.98
427.586	4410.98
427.794	4611.68
428.001	4812.39
428.209	5041.76
428.417	5045.85
428.624	5193.31
428.832	5281.37
429.039	5301.85
429.247	5383.77
429.454	5899.86
429.662	6229.58
429.869	5766.74
430.076	6098.51
430.284	6057.55
430.491	6391.37
430.699	6585.93
430.906	6706.76
431.114	6647.37
431.321	6999.62
431.528	7136.83
431.736	7396.92
431.943	7847.47
432.15	7603.77
432.358	7718.45
432.565	8171.05
432.772	8146.48
432.979	8564.26
433.187	8691.24
433.394	8631.85
433.601	9266.72
433.808	9373.21
434.016	9248.29
434.223	9684.5
434.43	10358.28
434.637	10098.19
434.844	10601.99
435.052	10913.28
435.259	10896.9
435.466	10937.86
435.673	10583.56
435.88	11546.11
436.087	11920.88
436.294	12094.96
436.501	11716.09
436.708	12037.62
436.915	12375.53
437.122	12932.58
437.329	12946.92
437.537	13338.08
437.743	13655.51
437.95	13510.11
438.157	14380.5
438.364	14720.46
438.571	14642.64
438.778	14771.66
438.985	16268.72
439.192	15631.8
439.399	15957.43
439.606	15601.08
439.813	16467.38
440.02	17178.02
440.227	17046.95
440.433	16903.59
440.64	17382.82
440.847	17391.01
441.054	17708.44
441.261	18924.94
441.467	18595.21
441.674	19058.06
441.881	19424.64
442.088	19615.1
442.294	19543.42
442.501	20014.46
442.708	20426.1
442.914	21314.92
443.121	21876.06
443.328	21558.63
443.534	23055.69
443.741	22463.83
443.948	22170.97
444.154	23639.36
444.361	23338.31
444.568	23788.86
444.774	23432.52
444.981	23934.27
445.187	24448.31
445.394	25601.32
445.6	25455.91
445.807	27772.16
446.013	26633.49
446.22	27079.95
446.426	28022.02
446.633	28515.58
446.839	29308.14
447.046	27890.95
447.252	29433.07
447.459	29519.08
447.665	29471.98
447.871	30711
448.078	32015.55
448.284	30356.7
448.491	31448.27
448.697	32494.78
448.903	32933.04
449.11	32761.01
449.316	32169.15
449.522	32863.41
449.728	33807.53
449.935	33776.81
450.141	33633.45
450.347	34737.3
450.553	33316.01
450.76	33842.34
450.966	34655.39
451.172	34552.99
451.378	35423.37
451.584	35075.22
451.791	35349.65
451.997	35355.79
452.203	35875.98
452.409	35525.77
452.615	35505.29
452.821	34221.22
453.027	33989.8
453.233	35785.86
453.44	33950.88
453.646	34239.65
453.852	34469.02
454.058	35034.26
454.264	33774.76
454.47	34538.65
454.676	34012.32
454.882	34821.27
455.088	32238.78
455.294	32623.8
455.5	32670.9
455.705	33334.45
455.911	31734.98
456.117	31317.2
456.323	30719.19
456.529	29156.59
456.735	30022.88
456.941	29740.26
457.147	29218.03
457.352	28128.51
457.558	27780.35
457.764	28062.97
457.97	27249.93
458.176	26883.34
458.381	26637.59
458.587	25417
458.793	25423.14
458.999	24225.08
459.204	25734.43
459.41	25060.65
459.616	23287.11
459.821	23401.8
460.027	23252.3
460.233	22674.77
460.438	21937.5
460.644	21820.77
460.85	20841.84
461.055	20639.09
461.261	20397.43
461.466	18824.59
461.672	18249.11
461.878	19895.68
462.083	18384.27
462.289	18257.3
462.494	17909.15
462.7	17296.8
462.905	16858.54
463.111	17386.91
463.316	17581.47
463.522	16893.35
463.727	16883.11
463.932	16774.57
464.138	16704.94
464.343	16950.7
464.549	16379.31
464.754	17239.46
464.959	16911.78
465.165	16663.98
465.37	16092.6
465.575	15517.12
465.781	16084.41
465.986	16459.18
466.191	15582.65
466.397	15574.46
466.602	14480.85
466.807	15379.9
467.012	15463.87
467.218	15056.32
467.423	14908.87
467.628	15392.19
467.833	15547.84
468.038	15064.52
468.244	14781.9
468.449	15091.14
468.654	15041.99
468.859	14671.31
469.064	14345.68
469.269	14218.71
469.474	14028.24
469.679	14296.53
469.885	13807.06
470.09	13934.04
470.295	13876.69
470.5	13479.39
470.705	13669.85
470.91	13309.41
471.115	13389.28
471.32	13692.38
471.525	13376.99
471.73	13219.3
471.935	13145.57
472.139	12707.3
472.344	12543.47
472.549	12641.77
472.754	12559.85
472.959	12295.66
473.164	11894.26
473.369	11662.84
473.574	12295.66
473.778	12021.24
473.983	12054
474.188	11769.34
474.393	11271.68
474.598	11697.66
474.802	11460.09
475.007	11425.28
475.212	11081.22
475.417	10755.59
475.621	10929.67
475.826	11070.98
476.031	10622.47
476.235	10302.99
476.44	10630.66
476.645	10395.15
476.849	10372.62
477.054	10102.29
477.259	10188.3
477.463	10165.78
477.668	10081.81
477.872	9911.83
478.077	9811.48
478.282	9688.6
478.486	9573.91
478.691	9539.1
478.895	9408.03
479.1	9555.48
479.304	9504.28
479.509	9092.64
479.713	9340.44
479.918	9037.34
480.122	8916.51
480.326	9192.99
480.531	9283.1
480.735	9076.26
480.94	8986.15
481.144	9236
481.348	8738.34
481.553	9004.58
481.757	8945.19
481.961	8820.26
482.166	9031.2
482.37	8715.81
482.574	8758.82
482.778	8781.35
482.983	8904.23
483.187	8844.84
483.391	8834.6
483.595	8949.28
483.8	8869.41
484.004	8764.96
484.208	8916.51
484.412	8777.25
484.616	8863.27
484.821	8812.07
485.025	8748.58
485.229	8887.84
485.433	8664.61
485.637	8701.48
485.841	8588.84
486.045	8713.77
486.249	8973.86
486.453	8699.43
486.657	8646.18
486.861	8949.28
487.065	8691.24
487.269	8826.4
487.473	8492.59
487.677	8893.99
487.881	8949.28
488.085	8758.82
488.289	8711.72
488.493	8668.71
488.697	8820.26
488.901	8906.27
489.105	8891.94
489.309	8891.94
489.512	8965.67
489.716	9031.2
489.92	8797.73
490.124	8859.17
490.328	9137.7
490.531	9002.53
490.735	8949.28
490.939	9047.58
491.143	9002.53
491.346	8986.15
491.55	9129.5
491.754	9186.85
491.958	9180.7
492.161	9131.55
492.365	9272.86
492.569	9352.73
492.772	9348.64
492.976	9324.06
493.18	9547.29
493.383	9401.88
493.587	9539.1
493.79	9569.82
493.994	9569.82
494.197	9704.98
494.401	9743.89
494.605	9928.21
494.808	9788.95
495.012	10008.08
495.215	10069.52
495.419	10227.21
495.622	9977.36
495.825	10120.72
496.029	10239.5
496.232	10546.7
496.436	10487.31
496.639	10616.33
496.843	10612.23
497.046	10972.68
497.249	10853.89
497.453	10880.52
497.656	11208.19
497.859	11171.33
498.063	11107.84
498.266	11433.47
498.469	11505.15
498.673	11568.63
498.876	11841.01
499.079	12054
499.282	11963.89
499.485	12250.61
499.689	12176.88
499.892	12400.11
500.095	12350.96
500.298	12877.29
500.501	12479.98
500.705	12957.16
500.908	12834.28
501.111	13401.57
501.314	13342.18
501.517	13338.08
501.72	13610.46
501.923	13762.01
502.126	13966.81
502.329	13989.33
502.532	14144.98
502.735	14280.14
502.938	14486.99
503.141	14843.34
503.344	14962.12
503.547	14788.04
503.75	15142.34
503.953	15402.43
504.156	15275.46
504.359	15783.35
504.562	15730.11
504.765	16143.8
504.968	16133.56
505.17	16551.34
505.373	16418.22
505.576	16620.97
505.779	16905.64
505.982	17087.91
506.185	17175.97
506.387	17509.79
506.59	17503.65
506.793	17798.56
506.996	17468.83
507.198	18654.61
507.401	18017.69
507.604	18445.71
507.807	18967.95
508.009	18546.06
508.212	18892.17
508.415	19371.4
508.617	19662.21
508.82	19514.75
509.022	19662.21
509.225	19815.8
509.428	19953.02
509.63	20209.01
509.833	20745.58
510.035	21032.3
510.238	20921.71
510.44	21341.54
510.643	21568.87
510.845	21738.85
511.048	21816.67
511.25	21767.52
511.453	22117.72
511.655	23065.93
511.858	22619.47
512.06	22482.26
512.262	22984.01
512.465	23078.22
512.667	23594.31
512.87	23622.98
513.072	23702.85
513.274	24284.47
513.477	24438.07
513.679	24669.49
513.881	24493.36
514.084	25046.32
514.286	25074.99
514.488	25460.01
514.69	26195.23
514.893	25963.81
515.095	25681.19
515.297	26318.11
515.499	26547.48
515.701	26952.98
515.904	27245.83
516.106	27120.91
516.308	27641.09
516.51	28073.21
516.712	28296.44
516.914	28568.82
517.116	28964.08
517.318	28800.24
517.52	28968.18
517.722	29031.66
517.925	29752.55
518.127	30254.3
518.329	30178.53
518.531	30207.2
518.733	30346.46
518.935	31007.95
519.136	30911.7
519.338	31327.44
519.54	31853.76
519.742	31997.12
519.944	32158.91
520.146	32900.28
520.348	32568.51
520.55	33232.05
520.752	32726.2
520.954	33733.8
521.155	33391.79
521.357	33780.9
521.559	34217.12
521.761	34610.33
521.963	34610.33
522.164	34845.85
522.366	34911.38
522.568	35189.91
522.77	35452.05
522.971	36273.28
523.173	35990.66
523.375	35869.83
523.576	36467.84
523.778	36547.71
523.98	37110.9
524.181	36961.4
524.383	36910.2
524.584	37399.66
524.786	37573.74
524.988	37504.11
525.189	37799.02
525.391	38384.74
525.592	38759.52
525.794	38870.11
525.995	38530.14
526.197	39007.32
526.398	38665.31
526.6	39154.77
526.801	39416.91
527.003	39828.55
527.204	39550.03
527.406	40168.52
527.607	39984.2
527.808	40498.24
528.01	39908.43
528.211	40338.5
528.412	40934.46
528.614	40813.63
528.815	40827.96
529.016	41008.18
529.218	40889.4
529.419	40827.96
529.62	41114.68
529.822	41112.63
530.023	41149.49
530.224	41622.58
530.425	41653.3
530.626	41552.94
530.828	41255.99
531.029	42368.04
531.23	41606.19
531.431	41841.71
531.632	41745.45
531.833	42019.88
532.035	41854
532.236	42216.49
532.437	42349.6
532.638	42353.7
532.839	42736.67
533.04	42849.31
533.241	42439.72
533.442	42572.83
533.643	42587.17
533.844	42646.56
534.045	42763.29
534.246	42220.58
534.447	43099.16
534.648	42644.51
534.849	42818.59
535.05	42746.91
535.251	42617.89
535.451	42802.21
535.652	43215.9
535.853	42529.83
536.054	42920.99
536.255	43152.41
536.456	42757.15
536.657	43215.9
536.857	42976.28
537.058	42730.53
537.259	43332.63
537.46	42699.81
537.66	42904.6
537.861	43148.31
538.062	42689.57
538.263	42890.27
538.463	42796.06
538.664	42726.43
538.865	42939.42
539.065	42961.95
539.266	42976.28
539.466	43222.04
539.667	42697.76
539.868	43344.92
540.068	43119.64
540.269	42988.57
540.469	42976.28
540.67	42595.36
540.87	43211.8
541.071	43152.41
541.271	43365.4
541.472	42621.98
541.672	42935.32
541.873	42753.05
542.073	42212.39
542.274	43279.38
542.474	42937.37
542.675	42609.7
542.875	43260.95
543.075	42966.04
543.276	42437.67
543.476	42988.57
543.676	42884.12
543.877	43246.61
544.077	42998.81
544.277	42564.64
544.478	42562.59
544.678	43248.66
544.878	42687.52
545.078	42955.8
545.279	42304.55
545.479	42581.02
545.679	42624.03
545.879	42759.2
546.079	42742.81
546.28	42587.17
546.48	42419.24
546.68	42677.28
546.88	43070.49
547.08	42535.97
547.28	42740.77
547.48	42398.76
547.68	43144.22
547.88	42538.02
548.081	42595.36
548.281	42828.83
548.481	42884.12
548.681	43246.61
548.881	42697.76
549.081	42550.31
549.28	42570.79
549.48	42783.77
549.68	42574.88
549.88	43496.47
550.08	42480.67
550.28	42773.53
550.48	42339.36
550.68	42730.53
550.88	42513.44
551.08	42583.07
551.279	42562.59
551.479	42007.59
551.679	42361.89
551.879	42357.8
552.079	42624.03
552.278	42374.18
552.478	42376.23
552.678	42583.07
552.878	42071.08
553.077	41980.97
553.277	41911.34
553.477	42499.11
553.676	42177.58
553.876	42431.52
554.076	41587.76
554.275	42064.94
554.475	41708.59
554.674	42349.6
554.874	41868.33
555.074	41892.91
555.273	42499.11
555.473	42345.51
555.672	41518.13
555.872	41751.6
556.071	42325.03
556.271	41937.96
556.47	41440.31
556.67	41366.58
556.869	41438.26
557.068	41847.85
557.268	41002.04
557.467	41630.77
557.667	41657.39
557.866	41348.15
558.065	41208.89
558.265	40846.4
558.464	40764.48
558.663	41362.48
558.863	40563.78
559.062	41215.03
559.261	40631.36
559.461	41468.98
559.66	40352.83
559.859	40936.51
560.058	40643.65
560.258	40711.23
560.457	40561.73
560.656	40576.06
560.855	40399.94
561.054	40791.1
561.253	40240.2
561.453	40352.83
561.652	40637.5
561.851	40617.02
562.05	40358.98
562.249	39877.71
562.448	40311.88
562.647	40219.72
562.846	40125.51
563.045	39933
563.244	39330.9
563.443	40551.49
563.642	39291.99
563.841	39769.16
564.04	39287.89
564.239	39371.86
564.438	39382.1
564.637	39466.06
564.836	39253.08
565.035	38583.39
565.234	39189.59
565.432	38730.84
565.631	38286.43
565.83	39107.67
566.029	38579.29
566.228	38511.71
566.427	38616.16
566.625	37745.77
566.824	37610.6
567.023	38231.14
567.222	37739.63
567.42	38251.62
567.619	37928.04
567.818	37753.96
568.016	37422.19
568.215	38136.93
568.414	37549.17
568.612	37545.07
568.811	37057.65
569.01	37325.94
569.208	36539.52
569.407	37424.24
569.605	36680.83
569.804	36932.73
570.002	36664.44
570.201	36977.78
570.4	36492.41
570.598	36725.88
570.797	36555.9
570.995	36340.86
571.193	35931.27
571.392	36381.82
571.59	36021.38
571.789	35736.71
571.987	35669.13
572.186	35701.9
572.384	35583.12
572.582	35564.68
572.781	35775.62
572.979	35206.29
573.177	35331.22
573.376	35708.04
573.574	34981.01
573.772	35144.85
573.971	35071.12
574.169	34665.63
574.367	34786.46
574.565	34675.87
574.763	34731.16
574.962	34788.5
575.16	34190.5
575.358	34403.49
575.556	34124.96
575.754	34501.79
575.952	33881.25
576.151	34100.39
576.349	33635.5
576.547	33801.38
576.745	33969.32
576.943	34112.67
577.141	33457.32
577.339	33461.42
577.537	33281.2
577.735	33084.59
577.933	33258.67
578.131	33156.27
578.329	33346.73
578.527	33146.03
578.725	32847.03
578.923	33164.46
579.121	32552.12
579.319	32822.45
579.516	32750.77
579.714	32455.87
579.912	32193.73
580.11	32380.09
580.308	32236.73
580.506	32017.6
580.704	31954.12
580.901	31868.1
581.099	31825.09
581.297	31831.24
581.495	31716.55
581.692	31825.09
581.89	31253.71
582.088	31622.34
582.285	31423.69
582.483	31319.24
582.681	31266
582.878	31141.07
583.076	30926.03
583.274	31335.63
583.471	30575.83
583.669	30713.05
583.866	30938.32
584.064	30837.97
584.262	30239.97
584.459	30663.89
584.657	30262.49
584.854	30706.9
585.052	29383.91
585.249	30321.88
585.447	30205.15
585.644	29840.61
585.841	29893.86
586.039	30010.59
586.236	29652.2
586.434	29437.16
586.631	29562.09
586.828	29693.16
587.026	29203.69
587.223	29461.74
587.42	29017.33
587.618	29504.74
587.815	28794.1
588.012	28974.32
588.21	28896.5
588.407	29172.97
588.604	28935.41
588.801	28425.46
588.999	28732.66
589.196	28269.82
589.393	28562.68
589.59	28447.99
589.787	28374.27
589.984	28212.48
590.182	27802.88
590.379	28007.68
590.576	27809.03
590.773	27936
590.97	27747.59
591.167	27763.97
591.364	27561.22
591.561	27682.05
591.758	27307.27
591.955	27591.94
592.152	27579.65
592.349	26973.46
592.546	27464.97
592.743	27307.27
592.94	26780.95
593.137	26834.19
593.334	26809.62
593.531	26627.35
593.727	26826
593.924	26385.69
594.121	26402.07
594.318	26791.19
594.515	26137.88
594.712	26451.22
594.908	26084.64
595.105	26166.56
595.302	25867.55
595.499	25990.43
595.696	25924.9
595.892	25605.41
596.089	25697.57
596.286	26041.63
596.482	25474.34
596.679	25785.63
596.876	25652.52
597.072	25359.66
597.269	25238.83
597.466	25156.91
597.662	24921.39
597.859	25226.54
598.055	25310.5
598.252	24702.26
598.448	24933.68
598.645	24894.77
598.841	24331.58
599.038	24558.9
599.234	24751.41
599.431	24446.26
599.627	24759.6
599.824	24519.99
600.02	24370.49
600.217	24147.26
600.413	24026.43
600.609	23950.65
600.806	24182.07
601.002	23928.13
601.198	23534.92
601.395	23493.96
601.591	23473.48
601.787	23692.61
601.984	23430.47
602.18	23696.71
602.376	23704.9
602.572	23235.91
602.769	23115.08
602.965	23000.4
603.161	23299.4
603.357	23010.64
603.553	22811.98
603.75	22973.77
603.946	22859.09
604.142	22822.22
604.338	22590.8
604.534	22854.99
604.73	22639.95
604.926	22486.36
605.122	22848.85
605.318	22328.66
605.514	22283.61
605.71	22275.41
605.906	21841.25
606.102	22228.31
606.298	22019.42
606.494	22123.87
606.69	22191.45
606.886	21874.01
607.082	21644.64
607.278	21900.64
607.474	21419.36
607.67	21818.72
607.866	21376.36
608.062	21663.07
608.257	21527.91
608.453	21462.37
608.649	21427.56
608.845	21112.17
609.041	21415.27
609.236	21314.92
609.432	21116.26
609.628	20977
609.824	20995.43
610.019	20616.56
610.215	21056.87
610.411	20993.39
610.606	20876.65
610.802	20899.18
610.998	20843.88
611.193	20733.29
611.389	20598.13
611.584	20624.75
611.78	20467.06
611.976	20893.04
612.171	20532.59
612.367	20079.99
612.562	20264.31
612.758	20299.12
612.953	20049.27
613.149	20475.25
613.344	20030.84
613.539	20512.11
613.735	20166.01
613.93	20108.66
614.126	20098.42
614.321	20182.39
614.517	19799.42
614.712	20014.46
614.907	19658.11
615.103	19854.72
615.298	19840.38
615.493	19735.93
615.688	19619.2
615.884	19912.06
616.079	19406.21
616.274	19752.32
616.47	19547.52
616.665	19641.73
616.86	19471.75
617.055	19340.68
617.25	19447.17
617.445	19568
617.641	19031.43
617.836	19361.16
618.031	18822.54
618.226	19203.46
618.421	18734.48
618.616	19137.93
618.811	18785.68
619.006	19174.79
619.201	18492.82
619.396	18824.59
619.591	18361.75
619.786	18632.08
619.981	18267.54
620.176	18670.99
620.371	18247.06
620.566	18511.25
620.761	18363.79
620.956	18247.06
621.151	17859.99
621.346	18066.84
621.541	17868.19
621.735	17882.52
621.93	17714.59
622.125	17696.16
622.32	17317.28
622.515	17501.6
622.709	17337.76
622.904	17501.6
623.099	17198.5
623.294	17182.12
623.488	16782.76
623.683	16969.13
623.878	16985.51
624.072	17100.2
624.267	16991.66
624.462	16819.63
624.656	16580.01
624.851	16520.62
625.046	16272.82
625.24	16221.62
625.435	16115.12
625.629	16108.98
625.824	15818.17
626.018	16025.01
626.213	15650.24
626.407	15586.75
626.602	15445.44
626.796	15568.32
626.991	15453.63
627.185	15412.67
627.38	15302.08
627.574	15248.83
627.768	15099.33
627.963	14996.93
628.157	14751.18
628.352	15035.85
628.546	14640.59
628.74	14640.59
628.935	14779.85
629.129	14747.08
629.323	14370.26
629.517	14544.33
629.712	14224.85
629.906	14427.6
630.1	14020.05
630.294	14118.36
630.489	14101.97
630.683	13909.46
630.877	13747.67
631.071	13714.91
631.265	13858.26
631.459	13561.31
631.653	13528.54
631.848	13364.7
632.042	13424.09
632.236	13549.02
632.43	13293.02
632.624	13045.22
632.818	13215.2
633.012	12932.58
633.206	12801.51
633.4	12889.57
633.594	12924.39
633.788	12854.76
633.982	12727.78
634.176	12719.59
634.369	12537.32
634.563	12490.22
634.757	12340.72
634.951	12406.25
635.145	12322.29
635.339	12436.97
635.533	12332.53
635.726	12101.11
635.92	11800.05
636.114	11826.68
636.308	11859.45
636.501	12027.38
636.695	11957.75
636.889	11902.45
637.083	11798.01
637.276	11711.99
637.47	11552.25
637.664	11517.43
637.857	11621.88
638.051	11523.58
638.244	11283.97
638.438	11261.44
638.632	11206.14
638.825	11064.83
639.019	11099.65
639.212	10948.1
639.406	10915.33
639.599	10913.28
639.793	10821.13
639.986	10599.94
640.18	10509.83
640.373	10778.12
640.567	10475.02
640.76	10628.62
640.954	10309.13
641.147	10407.44
641.34	10464.78
641.534	10282.51
641.727	10302.99
641.92	10337.8
642.114	10001.94
642.307	10171.92
642.5	9997.84
642.694	9799.19
642.887	9815.57
643.08	9993.75
643.273	9829.91
643.467	9772.57
643.66	9776.66
643.853	9655.83
644.046	9571.86
644.239	9561.62
644.432	9551.38
644.626	9369.12
644.819	9369.12
645.012	9440.79
645.205	9309.72
645.398	9381.4
645.591	9192.99
645.784	9287.2
645.977	9123.36
646.17	9178.65
646.363	8984.1
646.556	8877.6
646.749	8769.06
646.942	9000.48
647.135	8863.27
647.328	8810.02
647.521	8490.54
647.714	8666.66
647.907	8676.9
648.099	8609.32
648.292	8431.15
648.485	8486.44
648.678	8359.47
648.871	8425
649.064	8388.14
649.256	8377.9
649.449	8218.16
649.642	8105.52
649.835	8349.23
650.027	8011.31
650.22	8023.6
650.413	8091.18
650.605	8138.29
650.798	7908.91
650.991	7880.24
651.183	7790.13
651.376	7579.19
651.568	7837.24
651.761	7695.93
651.954	7761.46
652.146	7812.66
652.339	7595.57
652.531	7771.7
652.724	7487.03
652.916	7331.39
653.109	7482.94
653.301	7558.71
653.494	7509.56
653.686	7355.96
653.879	7306.81
654.071	7249.47
654.263	7247.42
654.456	7253.56
654.648	6977.09
654.84	6940.22
655.033	7177.79
655.225	7018.05
655.417	7056.96
655.61	7048.77
655.802	7030.34
655.994	6954.56
656.186	6800.96
656.379	6866.5
656.571	6813.25
656.763	6528.58
656.955	6747.72
657.148	6719.04
657.34	6643.27
657.532	6391.37
657.724	6555.21
657.916	6524.49
658.108	6430.28
658.3	6463.05
658.492	6452.81
658.684	6348.36
658.876	6432.33
659.068	6331.98
659.26	6248.01
659.452	6233.68
659.644	6268.49
659.836	6090.32
660.028	6147.66
660.22	6159.95
660.412	6213.2
660.604	6139.47
660.796	6129.23
660.988	6090.32
661.18	6065.74
661.372	5928.53
661.563	6043.21
661.755	5846.61
661.947	6037.07
662.139	5815.89
662.331	5971.54
662.522	5815.89
662.714	5731.92
662.906	5803.6
663.097	5799.51
663.289	5570.13
663.481	5643.86
663.673	5725.78
663.864	5652.05
664.056	5506.65
664.247	5582.42
664.439	5441.11
664.631	5652.05
664.822	5514.84
665.014	5377.62
665.205	5316.19
665.397	5330.52
665.588	5262.94
665.78	5398.1
665.971	5344.86
666.163	5357.14
666.354	5213.79
666.546	5414.49
666.737	5234.27
666.929	5111.39
667.12	5219.93
667.311	5131.87
667.503	5031.52
667.694	5008.99
667.885	5097.05
668.077	5221.98
668.268	4931.17
668.459	4961.89
668.651	4951.65
668.842	4843.1
669.033	5023.33
669.224	4808.29
669.416	4974.17
669.607	4816.48
669.798	4902.5
669.989	4888.16
670.18	4869.73
670.371	4941.41
670.563	4736.61
670.754	4763.23
670.945	4707.94
671.136	4812.39
671.327	4824.67
671.518	4851.3
671.709	4671.08
671.9	4662.88
672.091	4560.49
672.282	4521.57
672.473	4480.61
672.664	4589.16
672.855	4695.65
673.046	4568.68
673.237	4599.4
673.428	4423.27
673.619	4548.2
673.809	4548.2
674	4560.49
674.191	4517.48
674.382	4402.79
674.573	4542.05
674.764	4468.33
674.954	4484.71
675.145	4376.17
675.336	4406.89
675.527	4320.87
675.717	4382.31
675.908	4367.98
676.099	4410.98
676.289	4509.29
676.48	4382.31
676.671	4271.72
676.861	4322.92
677.052	4327.02
677.243	4089.45
677.433	4294.25
677.624	4210.28
677.814	4253.29
678.005	4255.34
678.195	4238.95
678.386	4251.24
678.576	4288.11
678.767	4122.22
678.957	4177.51
679.148	4333.16
679.338	4099.69
679.529	4114.03
679.719	4130.41
679.909	4277.87
680.1	4195.95
680.29	4230.76
680.481	4046.44
680.671	4236.91
680.861	4197.99
681.052	4130.41
681.242	4050.54
681.432	4120.17
681.622	4134.51
681.813	4011.63
682.003	4187.75
682.193	4095.6
682.383	4105.84
682.573	4040.3
682.764	4001.39
682.954	3972.72
683.144	3985.01
683.334	4087.4
683.524	3997.29
683.714	4058.73
683.904	3989.1
684.094	4169.32
684.284	4066.92
684.474	4144.75
684.664	3876.46
684.854	3985.01
685.044	3966.57
685.234	4017.77
685.424	3853.94
685.614	3942
685.804	4023.92
685.994	3835.5
686.184	4011.63
686.374	3817.07
686.564	3931.76
686.753	3927.66
686.943	3767.92
687.133	3759.73
687.323	3786.35
687.513	3954.29
687.702	3794.54
687.892	3788.4
688.082	3825.26
688.272	3853.94
688.461	3794.54
688.651	3919.47
688.841	3829.36
689.03	3841.65
689.22	3798.64
689.41	3714.67
689.599	3720.82
689.789	3755.63
689.979	3579.51
690.168	3632.76
690.358	3532.4
690.547	3542.64
690.737	3585.65
690.926	3661.43
691.116	3419.77
691.305	3536.5
691.495	3491.45
691.684	3657.33
691.874	3473.01
692.063	3509.88
692.252	3597.94
692.442	3470.97
692.631	3536.5
692.82	3495.54
693.01	3540.6
693.199	3468.92
693.388	3468.92
693.578	3233.4
693.767	3391.09
693.956	3460.73
694.146	3434.1
694.335	3436.15
694.524	3278.46
694.713	3378.81
694.902	3466.87
695.092	3368.57
695.281	3192.44
695.47	3350.14
695.659	3280.5
695.848	3329.66
696.037	3358.33
696.226	3237.5
696.415	3343.99
696.604	3376.76
696.793	3217.02
696.982	3298.94
697.171	3339.9
697.36	3157.63
697.549	3221.11
697.738	3225.21
697.927	3235.45
698.116	3182.2
698.305	3247.74
698.494	3223.16
698.683	3210.87
698.872	3112.57
699.061	3272.31
699.25	3243.64
699.438	3169.91
699.627	3249.79
699.816	3098.24
700.005	3227.26
700.193	3350.14
700.382	3260.02
700.571	3202.68
700.76	3231.35
700.948	3192.44
701.137	3184.25
701.326	3237.5
701.514	3163.77
701.703	3237.5
701.892	3219.07
702.08	3272.31
702.269	3331.7
702.457	3237.5
702.646	3243.64
702.834	3253.88
703.023	3171.96
703.212	3284.6
703.4	3253.88
703.589	3149.43
703.777	3182.2
703.965	3243.64
704.154	3206.78
704.342	3219.07
704.531	3149.43
704.719	3174.01
704.907	3229.31
705.096	3067.52
705.284	3202.68
705.472	3075.71
705.661	3235.45
705.849	3120.76
706.037	3171.96
706.226	3077.76
706.414	3249.79
706.602	3217.02
706.79	3323.51
706.979	3149.43
707.167	3184.25
707.355	3206.78
707.543	3239.55
707.731	3055.23
707.919	3184.25
708.107	3212.92
708.296	3221.11
708.484	3137.15
708.672	3272.31
708.86	3262.07
709.048	3257.98
709.236	3282.55
709.424	3217.02
709.612	3327.61
709.8	3221.11
709.988	3249.79
710.176	3311.22
710.364	3217.02
710.551	3145.34
710.739	3188.35
710.927	3245.69
711.115	3247.74
711.303	3276.41
711.491	3174.01
711.679	3192.44
711.866	3192.44
712.054	3343.99
712.242	3247.74
712.43	3315.32
712.617	3247.74
712.805	3366.52
712.993	3188.35
713.181	3262.07
713.368	3321.46
713.556	3249.79
713.744	3212.92
713.931	3255.93
714.119	3282.55
714.306	3214.97
714.494	3376.76
714.682	3184.25
714.869	3284.6
715.057	3208.83
715.244	3255.93
715.432	3274.36
715.619	3229.31
715.807	3319.42
715.994	3296.89
716.182	3231.35
716.369	3362.42
716.556	3380.86
716.744	3313.27
716.931	3298.94
717.119	3421.81
717.306	3325.56
717.493	3217.02
717.681	3204.73
717.868	3346.04
718.055	3217.02
718.242	3260.02
718.43	3305.08
718.617	3223.16
718.804	3270.26
718.991	3180.15
719.179	3346.04
719.366	3257.98
719.553	3337.85
719.74	3239.55
719.927	3147.39
720.114	3190.39
720.301	3327.61
720.488	3309.18
720.676	3354.23
720.863	3387
721.05	3329.66
721.237	3264.12
721.424	3253.88
721.611	3300.98
721.798	3233.4
721.985	3241.59
722.172	3118.72
722.358	3382.9
722.545	3339.9
722.732	3120.76
722.919	3219.07
723.106	3389.05
723.293	3268.22
723.48	3229.31
723.667	3210.87
723.853	3282.55
724.04	3313.27
724.227	3294.84
724.414	3286.65
724.6	3147.39
724.787	3376.76
724.974	3214.97
725.161	3321.46
725.347	3235.45
725.534	3243.64
725.72	3239.55
725.907	3358.33
726.094	3214.97
726.28	3167.87
726.467	3147.39
726.653	3128.95
726.84	3249.79
727.027	3526.26
727.213	3288.7
727.4	3282.55
727.586	3239.55
727.773	3188.35
727.959	3284.6
728.145	3192.44
728.332	3149.43
728.518	3257.98
728.705	3171.96
728.891	3221.11
729.077	3042.94
729.264	3221.11
729.45	3249.79
729.636	3165.82
729.823	3190.39
730.009	3098.24
730.195	3153.53
730.382	3184.25
730.568	3239.55
730.754	3214.97
730.94	3139.19
731.126	3182.2
731.313	3178.11
731.499	3096.19
731.685	3206.78
731.871	3286.65
732.057	3231.35
732.243	3225.21
732.429	3223.16
732.615	3155.58
732.801	3174.01
732.987	3135.1
733.173	3176.06
733.359	3305.08
733.545	3155.58
733.731	3085.95
733.917	3151.48
734.103	3171.96
734.289	3049.08
734.475	3071.61
734.661	3108.48
734.847	3028.6
735.033	3083.9
735.219	3214.97
735.404	3116.67
735.59	2985.6
735.776	3106.43
735.962	3120.76
736.148	3096.19
736.333	3102.33
736.519	3118.72
736.705	2936.45
736.89	2975.36
737.076	3022.46
737.262	3044.99
737.447	3024.51
737.633	3073.66
737.819	3020.41
738.004	3001.98
738.19	2993.79
738.375	3006.08
738.561	2975.36
738.747	2936.45
738.932	3018.36
739.118	3059.32
739.303	2875.01
739.489	2991.74
739.674	2866.81
739.859	3012.22
740.045	3026.56
740.23	2918.01
740.416	2817.66
740.601	3006.08
740.786	2774.66
740.972	2795.14
741.157	2875.01
741.342	2754.18
741.528	2885.25
741.713	2811.52
741.898	2725.51
742.084	2799.23
742.269	2836.1
742.454	2745.98
742.639	2838.14
742.824	2723.46
743.01	2713.22
743.195	2907.77
743.38	2713.22
743.565	2688.64
743.75	2702.98
743.935	2707.07
744.12	2745.98
744.305	2641.54
744.49	2647.68
744.675	2565.76
744.86	2686.59
745.045	2629.25
745.23	2551.43
745.415	2567.81
745.6	2471.56
745.785	2506.37
745.97	2700.93
746.155	2504.32
746.34	2444.93
746.525	2414.21
746.71	2567.81
746.895	2406.02
747.079	2455.17
747.264	2428.55
747.449	2555.52
747.634	2352.77
747.819	2442.89
748.003	2428.55
748.188	2272.9
748.373	2334.34
748.557	2383.49
748.742	2272.9
748.927	2223.75
749.111	2305.67
749.296	2256.52
749.481	2330.25
749.665	2256.52
749.85	2168.46
750.034	2281.1
750.219	2186.89
750.404	2166.41
750.588	2131.59
750.773	2164.36
750.957	2188.94
751.141	2086.54
751.326	2090.63
751.51	2014.86
751.695	2092.68
751.879	2107.02
752.064	2088.59
752.248	2072.2
752.432	2064.01
752.617	2055.82
752.801	1994.38
752.985	2023.05
753.17	2057.87
753.354	1994.38
753.538	1879.69
753.722	1965.71
753.907	1922.7
754.091	1937.04
754.275	1877.65
754.459	1863.31
754.643	1914.51
754.828	1898.13
755.012	1822.35
755.196	1859.21
755.38	1719.95
755.564	1756.82
755.748	1769.1
755.932	1838.73
756.116	1730.19
756.3	1779.34
756.484	1746.58
756.668	1767.06
756.852	1572.5
757.036	1689.23
757.22	1556.11
757.404	1592.98
757.588	1654.42
757.772	1584.79
757.956	1719.95
758.14	1644.18
758.323	1539.73
758.507	1541.78
758.691	1529.49
758.875	1572.5
759.059	1656.47
759.242	1531.54
759.426	1582.74
759.61	1476.24
759.794	1539.73
759.977	1539.73
760.161	1519.25
760.345	1568.4
760.528	1484.44
760.712	1490.58
760.895	1545.88
761.079	1439.38
761.263	1562.26
761.446	1453.72
761.63	1453.72
761.813	1449.62
761.997	1386.13
762.18	1386.13
762.364	1455.76
762.547	1339.03
762.731	1363.61
762.914	1396.37
763.098	1388.18
763.281	1408.66
763.464	1388.18
763.648	1416.85
763.831	1365.65
764.015	1396.37
764.198	1347.22
764.381	1343.13
764.564	1351.32
764.748	1322.65
764.931	1322.65
765.114	1320.6
765.297	1396.37
765.481	1244.82
765.664	1244.82
765.847	1310.36
766.03	1326.74
766.213	1267.35
766.397	1259.16
766.58	1171.1
766.763	1232.54
766.946	1357.46
767.129	1218.2
767.312	1203.86
767.495	1248.92
767.678	1134.23
767.861	1183.38
768.044	1218.2
768.227	1066.65
768.41	1126.04
768.593	1175.19
768.776	1142.43
768.959	1253.02
769.142	1199.77
769.324	1189.53
769.507	1146.52
769.69	1126.04
769.873	1072.79
770.056	1175.19
770.239	1152.67
770.421	1066.65
770.604	1091.23
770.787	1162.9
770.97	1126.04
771.152	1060.51
771.335	1064.6
771.518	1064.6
771.7	1111.71
771.883	1142.43
772.066	1054.36
772.248	1050.27
772.431	1031.83
772.613	1074.84
772.796	1009.31
772.978	1056.41
773.161	1025.69
773.343	1009.31
773.526	1005.21
773.708	992.92
773.891	974.49
774.073	997.02
774.256	943.77
774.438	1013.4
774.621	913.05
774.803	894.62
774.985	1017.5
775.168	980.64
775.35	888.48
775.532	949.92
775.715	874.14
775.897	925.34
776.079	937.63
776.261	951.96
776.444	845.47
776.626	870.05
776.808	917.15
776.99	870.05
777.173	833.18
777.355	919.2
777.537	835.23
777.719	941.72
777.901	870.05
778.083	847.52
778.265	757.41
778.447	851.61
778.629	765.6
778.811	865.95
778.993	835.23
779.175	816.8
779.357	773.79
779.539	745.12
779.721	814.75
779.903	775.84
780.085	810.65
780.267	790.17
780.449	741.02
780.631	816.8
780.812	829.09
780.994	669.34
781.176	693.92
781.358	730.78
781.54	659.1
781.721	720.54
781.903	749.22
782.085	718.5
782.267	781.98
782.448	665.25
782.63	659.1
782.812	642.72
782.993	591.52
783.175	663.2
783.357	630.43
783.538	679.58
783.72	659.1
783.901	583.33
784.083	714.4
784.264	601.76
784.446	556.71
784.627	573.09
784.809	601.76
784.99	552.61
785.172	648.86
785.353	519.84
785.535	634.53
785.716	624.29
785.897	536.23
786.079	607.91
786.26	495.27
786.441	646.82
786.623	552.61
786.804	509.6
786.985	564.9
787.167	564.9
787.348	544.42
787.529	523.94
787.71	503.46
787.891	554.66
788.073	499.36
788.254	466.6
788.435	573.09
788.616	640.67
788.797	530.08
788.978	468.64
789.159	474.79
789.34	568.99
789.522	462.5
789.703	433.83
789.884	491.17
790.065	427.68
790.246	538.27
790.427	528.03
790.607	544.42
790.788	523.94
790.969	429.73
791.15	519.84
791.331	343.72
791.512	409.25
791.693	456.36
791.874	380.58
792.054	454.31
792.235	378.53
792.416	394.92
792.597	364.2
792.778	315.05
792.958	439.97
793.139	376.48
793.32	415.4
793.5	413.35
793.681	476.84
793.862	431.78
794.042	413.35
794.223	335.53
794.404	487.08
794.584	319.14
794.765	358.05
794.945	313
795.126	417.44
795.306	351.91
795.487	403.11
795.667	347.81
795.848	378.53
796.028	280.23
796.209	329.38
796.389	462.5
796.57	399.01
796.75	315.05
796.93	435.88
797.111	347.81
797.291	315.05
797.471	360.1
797.652	384.68
797.832	415.4
798.012	360.1
798.192	280.23
798.373	347.81
798.553	317.09
798.733	376.48
798.913	343.72
799.093	351.91
799.274	351.91
799.454	360.1
799.634	388.77
799.814	286.37
799.994	249.51
800.174	298.66
800.354	325.29
800.534	267.94
800.714	280.23
800.894	327.33
801.074	212.65
801.254	384.68
801.434	325.29
801.614	253.61
801.794	278.18
801.974	730.78
802.154	321.19
802.334	296.61
802.514	333.48
802.693	278.18
802.873	212.65
803.053	345.77
803.233	331.43
803.413	251.56
803.592	276.13
803.772	274.09
803.952	280.23
804.131	263.85
804.311	226.98
804.491	280.23
804.67	208.55
804.85	249.51
805.03	235.18
805.209	325.29
805.389	284.33
805.568	288.42
805.748	188.07
805.928	177.83
806.107	265.89
806.287	335.53
806.466	278.18
806.646	292.52
806.825	286.37
807.004	292.52
807.184	257.7
807.363	214.7
807.543	235.18
807.722	274.09
807.901	269.99
808.081	304.81
808.26	149.16
808.439	214.7
808.619	243.37
808.798	198.31
808.977	179.88
809.156	296.61
809.336	214.7
809.515	243.37
809.694	206.5
809.873	259.75
810.052	241.32
810.231	214.7
810.411	200.36
810.59	241.32
810.769	200.36
810.948	220.84
811.127	235.18
811.306	202.41
811.485	206.5
811.664	239.27
811.843	220.84
812.022	284.33
812.201	220.84
812.38	183.98
812.559	204.46
812.737	194.22
812.916	112.3
813.095	243.37
813.274	200.36
813.453	188.07
813.632	224.94
813.811	249.51
813.989	130.73
814.168	214.7
814.347	179.88
814.526	167.59
814.704	224.94
814.883	233.13
815.062	206.5
815.24	147.11
815.419	136.87
815.598	169.64
815.776	157.35
815.955	177.83
816.133	175.78
816.312	161.45
816.49	102.06
816.669	120.49
816.847	165.54
817.026	167.59
817.204	104.11
817.383	214.7
817.561	192.17
817.74	153.26
817.918	181.93
818.097	196.26
818.275	118.44
818.453	130.73
818.632	208.55
818.81	181.93
818.988	110.25
819.167	181.93
819.345	140.97
819.523	171.69
819.701	177.83
819.879	183.98
820.058	171.69
820.236	140.97
820.414	194.22
820.592	147.11
820.77	186.02
820.948	190.12
821.127	128.68
821.305	192.17
821.483	85.67
821.661	212.65
821.839	151.21
822.017	130.73
822.195	183.98
822.373	102.06
822.551	175.78
822.729	118.44
822.907	102.06
823.085	132.78
823.262	136.87
823.44	157.35
823.618	151.21
823.796	91.82
823.974	226.98
824.152	151.21
824.329	100.01
824.507	192.17
824.685	157.35
824.863	167.59
825.04	89.77
825.218	93.87
825.396	32.43
825.574	163.5
825.751	75.43
825.929	161.45
826.107	97.96
826.284	147.11
826.462	100.01
826.639	71.34
826.817	97.96
826.994	126.63
827.172	116.39
827.349	151.21
827.527	73.39
827.704	157.35
827.882	194.22
828.059	106.15
828.237	116.39
828.414	143.02
828.591	20.14
828.769	183.98
828.946	85.67
829.124	108.2
829.301	79.53
829.478	134.82
829.655	83.63
829.833	85.67
830.01	3.75
830.187	128.68
830.364	87.72
830.542	46.76
830.719	200.36
830.896	59.05
831.073	132.78
831.25	132.78
831.427	93.87
831.604	77.48
831.782	91.82
831.959	161.45
832.136	32.43
832.313	130.73
832.49	120.49
832.667	161.45
832.844	63.15
833.021	57
833.198	40.62
833.374	77.48
833.551	59.05
833.728	130.73
833.905	36.52
834.082	85.67
834.259	20.14
834.436	61.1
834.612	81.58
834.789	175.78
834.966	124.58
835.143	122.54
835.319	30.38
835.496	183.98
835.673	126.63
835.85	110.25
836.026	183.98
836.203	104.11
836.38	87.72
836.556	54.95
836.733	13.99
836.909	159.4
837.086	32.43
837.262	38.57
837.439	93.87
837.616	73.39
837.792	71.34
837.968	44.71
838.145	93.87
838.321	151.21
838.498	85.67
838.674	140.97
838.851	108.2
839.027	85.67
839.203	143.02
839.38	67.24
839.556	34.47
839.732	206.5
839.909	61.1
840.085	93.87
840.261	7.85
840.437	79.53
840.614	-10.58
840.79	28.33
840.966	61.1
841.142	36.52
841.318	3.75
841.494	81.58
841.671	140.97
841.847	52.91
842.023	46.76
842.199	149.16
842.375	34.47
842.551	-4.44
842.727	-10.58
842.903	50.86
843.079	83.63
843.255	116.39
843.431	91.82
843.607	71.34
843.783	81.58
843.959	73.39
844.134	106.15
844.31	44.71
844.486	-6.49
844.662	-12.63
844.838	40.62
845.013	40.62
845.189	138.92
845.365	67.24
845.541	91.82
845.716	36.52
845.892	102.06
846.068	-49.49
846.244	28.33
846.419	112.3
846.595	26.28
846.77	16.04
846.946	5.8
847.122	151.21
847.297	24.23
847.473	71.34
847.648	18.09
847.824	67.24
847.999	-49.49
848.175	83.63
848.35	54.95
848.526	108.2
848.701	42.67
848.876	118.44
849.052	52.91
849.227	-8.53
849.403	110.25
849.578	69.29
849.753	50.86
849.929	128.68
850.104	44.71
850.279	79.53
850.454	18.09
850.63	67.24
850.805	32.43
850.98	75.43
851.155	112.3
851.33	120.49
851.505	-33.11
851.681	26.28
851.856	7.85
852.031	50.86
852.206	69.29
852.381	89.77
852.556	-39.25
852.731	50.86
852.906	-6.49
853.081	44.71
853.256	61.1
853.431	-8.53
853.606	77.48
853.781	-43.35
853.956	34.47
854.131	67.24
854.305	73.39
854.48	79.53
854.655	128.68
854.83	-0.34
855.005	28.33
855.18	75.43
855.354	87.72
855.529	36.52
855.704	20.14
855.879	102.06
856.053	52.91
856.228	114.34
856.403	-6.49
856.577	1.71
856.752	36.52
856.926	71.34
857.101	34.47
857.276	9.9
857.45	44.71
857.625	13.99
857.799	42.67
857.974	89.77
858.148	3.75
858.323	26.28
858.497	-2.39
858.672	36.52
858.846	28.33
859.02	28.33
859.195	1.71
859.369	85.67
859.543	20.14
859.718	71.34
859.892	-8.53
860.066	20.14
860.241	-2.39
860.415	24.23
860.589	36.52
860.763	75.43
860.938	-20.82
861.112	-43.35
861.286	-29.01
861.46	32.43
861.634	36.52
861.808	79.53
861.982	44.71
862.157	-26.96
862.331	-26.96
862.505	36.52
862.679	-10.58
862.853	118.44
863.027	65.19
863.201	89.77
863.375	-8.53
863.549	40.62
863.722	-4.44
863.896	-0.34
864.07	54.95
864.244	48.81
864.418	18.09
864.592	-0.34
864.766	28.33
864.939	34.47
865.113	32.43
865.287	65.19
865.461	-4.44
865.634	32.43
865.808	61.1
865.982	-20.82
866.156	-41.3
866.329	44.71
866.503	9.9
866.676	85.67
866.85	5.8
867.024	-4.44
867.197	57
867.371	3.75
867.544	13.99
867.718	1.71
867.891	-16.73
868.065	26.28
868.238	-4.44
868.412	108.2
868.585	83.63
868.759	1.71
868.932	1.71
869.105	-41.3
869.279	20.14
869.452	22.19
869.625	32.43
869.799	50.86
869.972	-35.16
870.145	-22.87
870.319	77.48
870.492	13.99
870.665	-41.3
870.838	7.85
871.011	-24.92
871.185	106.15
871.358	-65.88
871.531	22.19
871.704	-4.44
871.877	-12.63
872.05	46.76
872.223	46.76
872.396	20.14
872.569	18.09
872.742	5.8
872.915	24.23
873.088	20.14
873.261	-4.44
873.434	7.85
873.607	-53.59
873.78	71.34
873.953	5.8
874.126	16.04
874.299	18.09
874.471	36.52
874.644	26.28
874.817	52.91
874.99	-2.39
875.163	20.14
875.335	81.58
875.508	69.29
875.681	48.81
875.853	1.71
876.026	-0.34
876.199	28.33
876.371	46.76
876.544	-45.4
876.717	7.85
876.889	-6.49
877.062	-4.44
877.234	13.99
877.407	-6.49
877.579	-8.53
877.752	59.05
877.924	65.19
878.097	36.52
878.269	7.85
878.442	81.58
878.614	40.62
878.786	-10.58
878.959	7.85
879.131	16.04
879.303	-4.44
879.476	-20.82
879.648	112.3
879.82	28.33
879.993	-22.87
880.165	-37.2
880.337	-100.69
880.509	-55.64
880.681	-31.06
880.854	-29.01
881.026	16.04
881.198	69.29
881.37	-16.73
881.542	48.81
881.714	-29.01
881.886	-33.11
882.058	-24.92
882.23	-18.77
882.402	50.86
882.574	-37.2
882.746	-47.44
882.918	89.77
883.09	28.33
883.262	-12.63
883.434	-29.01
883.606	3.75
883.778	69.29
883.95	52.91
884.122	-12.63
884.293	67.24
884.465	85.67
884.637	38.57
884.809	-37.2
884.98	-24.92
885.152	50.86
885.324	44.71
885.496	3.75
885.667	32.43
885.839	-37.2
886.011	93.87
886.182	16.04
886.354	50.86
886.525	24.23
886.697	-20.82
886.869	-29.01
887.04	81.58
887.212	38.57
887.383	-4.44
887.555	20.14
887.726	57
887.897	-57.68
888.069	-29.01
888.24	-0.34
888.412	9.9
888.583	-31.06
888.754	-26.96
888.926	1.71
889.097	22.19
889.268	-4.44
889.44	59.05
889.611	1.71
889.782	-43.35
889.953	-59.73
890.125	42.67
890.296	36.52
890.467	-59.73
890.638	26.28
890.809	75.43
890.98	46.76
891.151	38.57
891.323	44.71
891.494	50.86
891.665	-0.34
891.836	30.38
892.007	32.43
892.178	30.38
892.349	-16.73
892.52	-39.25
892.691	1.71
892.862	-49.49
893.032	-74.07
893.203	-41.3
893.374	40.62
893.545	34.47
893.716	-22.87
893.887	24.23
894.057	5.8
894.228	28.33
894.399	22.19
894.57	48.81
894.74	3.75
894.911	20.14
895.082	34.47
895.253	-4.44
895.423	-0.34
895.594	26.28
895.764	-29.01
895.935	-45.4
896.106	52.91
896.276	-22.87
896.447	59.05
896.617	16.04
896.788	48.81
896.958	28.33
897.129	13.99
897.299	83.63
897.47	-4.44
897.64	3.75
897.81	48.81
897.981	5.8
898.151	54.95
898.322	22.19
898.492	32.43
898.662	-69.97
898.832	-16.73
899.003	54.95
899.173	-37.2
899.343	-47.44
899.513	-18.77
