Data from USB4F104151__206__10-29-37-325.txt Node

Date: Wed Mar 12 10:29:37 EDT 2025
User: louis
Spectrometer: USB4F10415
Trigger mode: 4
Integration Time (sec): 3.000000E-2
Scans to average: 1
Electric dark correction enabled: true
Nonlinearity correction enabled: false
Boxcar width: 0
XAxis mode: Wavelengths
Number of Pixels in Spectrum: 3648
>>>>>Begin Spectral Data<<<<<
178.204	-142.5
178.424	-142.5
178.644	-142.5
178.864	-130.22
179.084	-109.74
179.304	-1.19
179.524	-7.34
179.744	11.09
179.964	-13.48
180.184	0.85
180.404	7
180.624	-38.06
180.844	9.05
181.064	-44.2
181.283	39.76
181.503	-21.67
181.723	58.2
181.943	-33.96
182.163	119.64
182.383	125.78
182.602	70.48
182.822	43.86
183.042	72.53
183.262	0.85
183.482	62.29
183.701	4.95
183.921	11.09
184.141	15.19
184.361	25.43
184.58	4.95
184.8	90.96
185.02	-3.24
185.239	109.4
185.459	72.53
185.679	35.67
185.898	-70.83
186.118	54.1
186.338	41.81
186.557	64.34
186.777	11.09
186.997	146.26
187.216	35.67
187.436	125.78
187.655	19.29
187.875	27.48
188.095	2.9
188.314	2.9
188.534	-21.67
188.753	23.38
188.973	68.44
189.192	62.29
189.412	21.33
189.631	39.76
189.851	13.14
190.07	66.39
190.29	-81.07
190.509	41.81
190.729	80.72
190.948	-13.48
191.168	86.87
191.387	13.14
191.607	39.76
191.826	129.88
192.045	-74.92
192.265	37.72
192.484	-27.82
192.704	37.72
192.923	27.48
193.142	142.16
193.362	62.29
193.581	52.05
193.8	66.39
194.02	43.86
194.239	23.38
194.458	2.9
194.678	-21.67
194.897	27.48
195.116	33.62
195.335	97.11
195.555	21.33
195.774	17.24
195.993	19.29
196.212	33.62
196.432	-17.58
196.651	78.68
196.87	-23.72
197.089	103.25
197.308	47.96
197.528	76.63
197.747	93.01
197.966	31.57
198.185	29.52
198.404	7
198.623	58.2
198.842	58.2
199.062	4.95
199.281	60.24
199.5	11.09
199.719	99.16
199.938	-1.19
200.157	50
200.376	17.24
200.595	56.15
200.814	56.15
201.033	-5.29
201.252	9.05
201.471	27.48
201.69	54.1
201.909	109.4
202.128	76.63
202.347	37.72
202.566	27.48
202.785	68.44
203.004	23.38
203.223	76.63
203.442	80.72
203.661	107.35
203.879	4.95
204.098	58.2
204.317	97.11
204.536	66.39
204.755	109.4
204.974	0.85
205.193	27.48
205.411	129.88
205.63	103.25
205.849	27.48
206.068	-9.39
206.287	88.92
206.505	113.49
206.724	17.24
206.943	60.24
207.162	76.63
207.381	66.39
207.599	84.82
207.818	80.72
208.037	60.24
208.255	-19.63
208.474	11.09
208.693	35.67
208.911	-9.39
209.13	133.97
209.349	52.05
209.567	60.24
209.786	95.06
210.005	43.86
210.223	47.96
210.442	52.05
210.661	15.19
210.879	-5.29
211.098	41.81
211.316	88.92
211.535	64.34
211.753	150.36
211.972	47.96
212.191	23.38
212.409	29.52
212.628	56.15
212.846	27.48
213.065	86.87
213.283	70.48
213.502	-19.63
213.72	43.86
213.938	47.96
214.157	25.43
214.375	62.29
214.594	70.48
214.812	60.24
215.031	35.67
215.249	74.58
215.467	15.19
215.686	11.09
215.904	50
216.122	-40.11
216.341	84.82
216.559	43.86
216.778	23.38
216.996	82.77
217.214	50
217.432	37.72
217.651	27.48
217.869	15.19
218.087	60.24
218.306	29.52
218.524	62.29
218.742	41.81
218.96	62.29
219.179	7
219.397	-3.24
219.615	117.59
219.833	72.53
220.051	56.15
220.27	144.21
220.488	23.38
220.706	50
220.924	43.86
221.142	13.14
221.36	111.44
221.578	43.86
221.796	-44.2
222.015	-15.53
222.233	43.86
222.451	45.91
222.669	27.48
222.887	101.2
223.105	21.33
223.323	93.01
223.541	-9.39
223.759	88.92
223.977	-23.72
224.195	72.53
224.413	-17.58
224.631	70.48
224.849	58.2
225.067	58.2
225.285	-13.48
225.503	11.09
225.721	37.72
225.939	-25.77
226.157	25.43
226.375	138.07
226.592	90.96
226.81	27.48
227.028	82.77
227.246	68.44
227.464	41.81
227.682	-9.39
227.9	68.44
228.117	47.96
228.335	54.1
228.553	101.2
228.771	-9.39
228.989	35.67
229.206	76.63
229.424	41.81
229.642	68.44
229.86	31.57
230.077	47.96
230.295	66.39
230.513	80.72
230.731	62.29
230.948	52.05
231.166	-31.91
231.384	29.52
231.601	76.63
231.819	58.2
232.037	29.52
232.254	13.14
232.472	9.05
232.689	60.24
232.907	72.53
233.125	15.19
233.342	-21.67
233.56	23.38
233.777	115.54
233.995	76.63
234.213	47.96
234.43	23.38
234.648	39.76
234.865	76.63
235.083	19.29
235.3	43.86
235.518	60.24
235.735	58.2
235.953	64.34
236.17	70.48
236.388	58.2
236.605	-13.48
236.822	54.1
237.04	95.06
237.257	31.57
237.475	27.48
237.692	66.39
237.909	50
238.127	88.92
238.344	39.76
238.562	47.96
238.779	105.3
238.996	23.38
239.214	25.43
239.431	21.33
239.648	33.62
239.865	31.57
240.083	19.29
240.3	60.24
240.517	-5.29
240.735	-1.19
240.952	64.34
241.169	66.39
241.386	80.72
241.603	54.1
241.821	52.05
242.038	60.24
242.255	52.05
242.472	-33.96
242.689	72.53
242.907	15.19
243.124	60.24
243.341	2.9
243.558	56.15
243.775	39.76
243.992	-5.29
244.209	95.06
244.426	66.39
244.643	17.24
244.86	127.83
245.078	52.05
245.295	56.15
245.512	97.11
245.729	41.81
245.946	39.76
246.163	23.38
246.38	2.9
246.597	0.85
246.814	80.72
247.031	43.86
247.248	76.63
247.464	39.76
247.681	66.39
247.898	7
248.115	43.86
248.332	9.05
248.549	54.1
248.766	68.44
248.983	125.78
249.2	78.68
249.417	58.2
249.633	23.38
249.85	41.81
250.067	19.29
250.284	-17.58
250.501	97.11
250.717	11.09
250.934	37.72
251.151	7
251.368	45.91
251.585	84.82
251.801	113.49
252.018	25.43
252.235	19.29
252.451	72.53
252.668	-48.3
252.885	109.4
253.102	70.48
253.318	43.86
253.535	-11.43
253.752	70.48
253.968	47.96
254.185	25.43
254.401	47.96
254.618	31.57
254.835	33.62
255.051	58.2
255.268	68.44
255.484	64.34
255.701	50
255.917	54.1
256.134	142.16
256.351	23.38
256.567	9.05
256.784	66.39
257	45.91
257.217	11.09
257.433	47.96
257.65	93.01
257.866	84.82
258.082	70.48
258.299	43.86
258.515	11.09
258.732	113.49
258.948	-38.06
259.165	58.2
259.381	13.14
259.597	27.48
259.814	101.2
260.03	-48.3
260.246	41.81
260.463	31.57
260.679	15.19
260.895	9.05
261.112	82.77
261.328	43.86
261.544	60.24
261.761	95.06
261.977	-5.29
262.193	-11.43
262.409	97.11
262.626	80.72
262.842	66.39
263.058	80.72
263.274	101.2
263.49	72.53
263.707	66.39
263.923	19.29
264.139	105.3
264.355	39.76
264.571	90.96
264.787	74.58
265.004	95.06
265.22	15.19
265.436	60.24
265.652	19.29
265.868	64.34
266.084	19.29
266.3	54.1
266.516	15.19
266.732	64.34
266.948	4.95
267.164	62.29
267.38	70.48
267.596	27.48
267.812	64.34
268.028	35.67
268.244	88.92
268.46	80.72
268.676	7
268.892	-1.19
269.108	82.77
269.324	54.1
269.54	21.33
269.756	84.82
269.972	4.95
270.188	-9.39
270.403	-29.87
270.619	76.63
270.835	41.81
271.051	99.16
271.267	50
271.483	7
271.698	27.48
271.914	25.43
272.13	76.63
272.346	101.2
272.562	45.91
272.777	23.38
272.993	-36.01
273.209	33.62
273.425	95.06
273.64	27.48
273.856	11.09
274.072	52.05
274.287	-13.48
274.503	58.2
274.719	15.19
274.934	19.29
275.15	7
275.366	60.24
275.581	43.86
275.797	78.68
276.012	29.52
276.228	54.1
276.444	133.97
276.659	103.25
276.875	70.48
277.09	62.29
277.306	93.01
277.521	150.36
277.737	93.01
277.952	37.72
278.168	166.74
278.383	101.2
278.599	17.24
278.814	107.35
279.03	45.91
279.245	68.44
279.461	-29.87
279.676	47.96
279.892	-23.72
280.107	7
280.322	88.92
280.538	52.05
280.753	-50.35
280.969	39.76
281.184	-15.53
281.399	93.01
281.615	64.34
281.83	84.82
282.045	68.44
282.26	-23.72
282.476	80.72
282.691	86.87
282.906	29.52
283.122	43.86
283.337	15.19
283.552	0.85
283.767	21.33
283.983	129.88
284.198	35.67
284.413	62.29
284.628	35.67
284.843	43.86
285.058	93.01
285.274	39.76
285.489	29.52
285.704	35.67
285.919	19.29
286.134	11.09
286.349	17.24
286.564	52.05
286.779	56.15
286.995	-25.77
287.21	88.92
287.425	45.91
287.64	4.95
287.855	66.39
288.07	11.09
288.285	64.34
288.5	35.67
288.715	74.58
288.93	39.76
289.145	90.96
289.36	-5.29
289.575	23.38
289.79	82.77
290.004	15.19
290.219	78.68
290.434	29.52
290.649	-3.24
290.864	7
291.079	27.48
291.294	54.1
291.509	68.44
291.724	37.72
291.938	111.44
292.153	82.77
292.368	52.05
292.583	97.11
292.798	88.92
293.012	72.53
293.227	115.54
293.442	-1.19
293.657	37.72
293.871	80.72
294.086	2.9
294.301	60.24
294.516	35.67
294.73	43.86
294.945	2.9
295.16	56.15
295.374	140.12
295.589	93.01
295.804	93.01
296.018	58.2
296.233	109.4
296.447	88.92
296.662	9.05
296.877	80.72
297.091	52.05
297.306	47.96
297.52	25.43
297.735	45.91
297.949	74.58
298.164	37.72
298.378	33.62
298.593	-3.24
298.807	50
299.022	101.2
299.236	80.72
299.451	27.48
299.665	78.68
299.88	56.15
300.094	23.38
300.309	13.14
300.523	131.92
300.737	2.9
300.952	43.86
301.166	29.52
301.381	103.25
301.595	84.82
301.809	80.72
302.024	0.85
302.238	27.48
302.452	66.39
302.667	-56.49
302.881	80.72
303.095	103.25
303.309	-5.29
303.524	39.76
303.738	39.76
303.952	0.85
304.166	47.96
304.381	-46.25
304.595	121.68
304.809	41.81
305.023	58.2
305.237	76.63
305.452	101.2
305.666	31.57
305.88	78.68
306.094	15.19
306.308	111.44
306.522	109.4
306.736	74.58
306.95	66.39
307.164	74.58
307.379	7
307.593	82.77
307.807	125.78
308.021	11.09
308.235	107.35
308.449	37.72
308.663	17.24
308.877	80.72
309.091	68.44
309.305	109.4
309.519	37.72
309.733	97.11
309.947	13.14
310.161	80.72
310.374	50
310.588	123.73
310.802	-13.48
311.016	56.15
311.23	-13.48
311.444	105.3
311.658	-3.24
311.872	64.34
312.085	21.33
312.299	84.82
312.513	23.38
312.727	115.54
312.941	0.85
313.154	35.67
313.368	4.95
313.582	80.72
313.796	-13.48
314.009	27.48
314.223	43.86
314.437	2.9
314.651	82.77
314.864	58.2
315.078	11.09
315.292	15.19
315.505	27.48
315.719	131.92
315.933	47.96
316.146	7
316.36	-42.15
316.573	113.49
316.787	88.92
317.001	72.53
317.214	93.01
317.428	64.34
317.641	19.29
317.855	142.16
318.068	37.72
318.282	35.67
318.495	88.92
318.709	107.35
318.922	43.86
319.136	136.02
319.349	62.29
319.563	52.05
319.776	74.58
319.99	31.57
320.203	64.34
320.417	72.53
320.63	115.54
320.843	97.11
321.057	21.33
321.27	76.63
321.483	74.58
321.697	101.2
321.91	86.87
322.124	95.06
322.337	86.87
322.55	39.76
322.763	45.91
322.977	47.96
323.19	11.09
323.403	9.05
323.617	105.3
323.83	146.26
324.043	52.05
324.256	35.67
324.469	2.9
324.683	90.96
324.896	-5.29
325.109	121.68
325.322	-46.25
325.535	9.05
325.748	43.86
325.962	-3.24
326.175	35.67
326.388	86.87
326.601	76.63
326.814	82.77
327.027	50
327.24	33.62
327.453	37.72
327.666	2.9
327.879	66.39
328.092	113.49
328.305	52.05
328.518	33.62
328.731	-25.77
328.944	60.24
329.157	25.43
329.37	82.77
329.583	78.68
329.796	131.92
330.009	-52.39
330.222	113.49
330.435	25.43
330.648	21.33
330.861	144.21
331.073	121.68
331.286	56.15
331.499	107.35
331.712	47.96
331.925	9.05
332.138	-5.29
332.35	84.82
332.563	0.85
332.776	68.44
332.989	54.1
333.202	127.83
333.414	37.72
333.627	80.72
333.84	125.78
334.053	11.09
334.265	70.48
334.478	80.72
334.691	56.15
334.903	58.2
335.116	82.77
335.329	121.68
335.541	52.05
335.754	62.29
335.966	60.24
336.179	127.83
336.392	7
336.604	60.24
336.817	62.29
337.029	31.57
337.242	41.81
337.454	54.1
337.667	66.39
337.88	115.54
338.092	4.95
338.305	93.01
338.517	-15.53
338.729	62.29
338.942	60.24
339.154	41.81
339.367	68.44
339.579	105.3
339.792	31.57
340.004	129.88
340.217	-17.58
340.429	-42.15
340.641	-21.67
340.854	47.96
341.066	103.25
341.278	70.48
341.491	95.06
341.703	60.24
341.915	62.29
342.128	76.63
342.34	56.15
342.552	33.62
342.764	60.24
342.977	-15.53
343.189	80.72
343.401	52.05
343.613	35.67
343.826	121.68
344.038	-1.19
344.25	70.48
344.462	25.43
344.674	93.01
344.886	66.39
345.099	97.11
345.311	29.52
345.523	-27.82
345.735	60.24
345.947	95.06
346.159	131.92
346.371	74.58
346.583	72.53
346.795	68.44
347.007	45.91
347.219	95.06
347.431	25.43
347.643	62.29
347.855	60.24
348.067	101.2
348.279	95.06
348.491	47.96
348.703	43.86
348.915	54.1
349.127	66.39
349.339	64.34
349.551	41.81
349.763	43.86
349.975	131.92
350.187	144.21
350.399	43.86
350.61	9.05
350.822	39.76
351.034	84.82
351.246	41.81
351.458	29.52
351.669	47.96
351.881	95.06
352.093	158.55
352.305	60.24
352.517	4.95
352.728	23.38
352.94	86.87
353.152	97.11
353.363	64.34
353.575	52.05
353.787	29.52
353.999	90.96
354.21	101.2
354.422	60.24
354.633	64.34
354.845	74.58
355.057	-5.29
355.268	43.86
355.48	115.54
355.692	35.67
355.903	15.19
356.115	23.38
356.326	39.76
356.538	2.9
356.749	15.19
356.961	146.26
357.172	39.76
357.384	117.59
357.595	156.5
357.807	101.2
358.018	68.44
358.23	39.76
358.441	93.01
358.653	52.05
358.864	66.39
359.075	9.05
359.287	105.3
359.498	150.36
359.709	76.63
359.921	45.91
360.132	68.44
360.344	17.24
360.555	93.01
360.766	76.63
360.977	150.36
361.189	43.86
361.4	95.06
361.611	97.11
361.823	131.92
362.034	37.72
362.245	-5.29
362.456	82.77
362.667	9.05
362.879	74.58
363.09	84.82
363.301	62.29
363.512	9.05
363.723	101.2
363.935	33.62
364.146	168.79
364.357	70.48
364.568	101.2
364.779	62.29
364.99	193.36
365.201	27.48
365.412	47.96
365.623	-36.01
365.834	129.88
366.045	80.72
366.256	47.96
366.467	4.95
366.678	19.29
366.889	90.96
367.1	105.3
367.311	117.59
367.522	2.9
367.733	27.48
367.944	93.01
368.155	17.24
368.366	93.01
368.577	88.92
368.788	97.11
368.999	76.63
369.209	47.96
369.42	168.79
369.631	33.62
369.842	58.2
370.053	88.92
370.264	80.72
370.474	74.58
370.685	19.29
370.896	11.09
371.107	37.72
371.317	148.31
371.528	-27.82
371.739	125.78
371.95	41.81
372.16	56.15
372.371	35.67
372.582	39.76
372.792	105.3
373.003	125.78
373.214	47.96
373.424	82.77
373.635	43.86
373.846	123.73
374.056	68.44
374.267	72.53
374.477	82.77
374.688	60.24
374.898	31.57
375.109	11.09
375.319	80.72
375.53	21.33
375.74	82.77
375.951	52.05
376.161	37.72
376.372	101.2
376.582	62.29
376.793	121.68
377.003	0.85
377.214	39.76
377.424	115.54
377.635	76.63
377.845	121.68
378.055	66.39
378.266	17.24
378.476	142.16
378.686	29.52
378.897	54.1
379.107	146.26
379.317	82.77
379.528	121.68
379.738	113.49
379.948	15.19
380.158	84.82
380.369	17.24
380.579	60.24
380.789	27.48
380.999	23.38
381.21	39.76
381.42	183.12
381.63	43.86
381.84	138.07
382.05	50
382.261	52.05
382.471	47.96
382.681	105.3
382.891	86.87
383.101	97.11
383.311	72.53
383.521	43.86
383.731	35.67
383.941	97.11
384.151	70.48
384.361	68.44
384.571	107.35
384.781	125.78
384.991	158.55
385.201	154.45
385.411	58.2
385.621	84.82
385.831	19.29
386.041	74.58
386.251	64.34
386.461	68.44
386.671	129.88
386.881	78.68
387.091	127.83
387.301	142.16
387.511	82.77
387.72	140.12
387.93	113.49
388.14	9.05
388.35	17.24
388.56	86.87
388.769	60.24
388.979	97.11
389.189	11.09
389.399	25.43
389.609	82.77
389.818	174.93
390.028	80.72
390.238	45.91
390.447	70.48
390.657	148.31
390.867	21.33
391.076	13.14
391.286	125.78
391.496	93.01
391.705	52.05
391.915	107.35
392.125	64.34
392.334	168.79
392.544	160.59
392.753	162.64
392.963	97.11
393.172	56.15
393.382	140.12
393.591	88.92
393.801	152.4
394.01	172.88
394.22	119.64
394.429	74.58
394.639	99.16
394.848	82.77
395.058	84.82
395.267	82.77
395.477	142.16
395.686	140.12
395.895	160.59
396.105	101.2
396.314	107.35
396.524	133.97
396.733	156.5
396.942	138.07
397.152	176.98
397.361	103.25
397.57	150.36
397.78	113.49
397.989	172.88
398.198	150.36
398.407	74.58
398.617	144.21
398.826	52.05
399.035	191.31
399.244	162.64
399.453	117.59
399.663	117.59
399.872	142.16
400.081	84.82
400.29	142.16
400.499	170.83
400.708	236.37
400.917	207.7
401.127	164.69
401.336	191.31
401.545	191.31
401.754	131.92
401.963	166.74
402.172	228.18
402.381	156.5
402.59	117.59
402.799	162.64
403.008	176.98
403.217	197.46
403.426	191.31
403.635	183.12
403.844	133.97
404.053	82.77
404.262	154.45
404.471	240.47
404.68	213.84
404.888	156.5
405.097	142.16
405.306	133.97
405.515	189.27
405.724	179.03
405.933	269.14
406.142	217.94
406.35	326.48
406.559	232.27
406.768	240.47
406.977	293.71
407.185	328.53
407.394	228.18
407.603	201.55
407.812	301.9
408.02	256.85
408.229	265.04
408.438	279.38
408.646	250.71
408.855	295.76
409.064	306
409.272	256.85
409.481	430.93
409.69	328.53
409.898	408.4
410.107	459.6
410.315	420.69
410.524	387.92
410.733	435.02
410.941	467.79
411.15	486.22
411.358	531.28
411.567	451.41
411.775	512.85
411.984	590.67
412.192	553.8
412.401	592.72
412.609	615.24
412.818	578.38
413.026	637.77
413.234	715.59
413.443	639.82
413.651	586.57
413.86	721.74
414.068	715.59
414.276	770.89
414.485	736.07
414.693	883.53
414.901	908.1
415.11	842.57
415.318	891.72
415.526	867.14
415.734	889.67
415.943	1018.69
416.151	1071.94
416.359	1051.46
416.567	1133.38
416.776	1112.9
416.984	1170.24
417.192	1231.68
417.4	1157.96
417.608	1280.83
417.817	1309.51
418.025	1418.05
418.233	1446.72
418.441	1372.99
418.649	1502.01
418.857	1577.79
419.065	1600.32
419.273	1534.78
419.481	1610.56
419.689	1813.31
419.897	1878.84
420.105	1817.4
420.313	2014.01
420.521	1993.53
420.729	2120.5
420.937	2075.45
421.145	2157.36
421.353	2343.73
421.561	2370.35
421.769	2325.3
421.977	2444.08
422.185	2470.7
422.393	2638.64
422.601	2841.39
422.809	2919.21
423.017	2822.95
423.224	2825
423.432	3121.96
423.64	3064.61
423.848	3418.91
424.056	3173.16
424.263	3463.97
424.471	3521.31
424.679	3656.48
424.887	3695.39
425.094	3926.81
425.302	3969.82
425.51	4066.07
425.718	4195.09
425.925	4188.95
426.133	4442.9
426.341	4641.55
426.548	4858.64
426.756	4823.82
426.964	4954.89
427.171	5165.83
427.379	5270.28
427.586	5298.95
427.794	5577.47
428.001	5790.46
428.209	6148.86
428.417	5901.05
428.624	6648.56
428.832	6474.48
429.039	6413.04
429.247	6331.12
429.454	6916.84
429.662	7404.26
429.869	6888.17
430.076	7666.4
430.284	7267.05
430.491	7633.63
430.699	8045.27
430.906	8053.47
431.114	8121.05
431.321	8520.4
431.528	8532.69
431.736	8946.38
431.943	9476.8
432.15	9177.8
432.358	9329.35
432.565	9956.03
432.772	9894.59
432.979	10140.35
433.187	10468.02
433.394	10572.47
433.601	11152.04
433.808	11395.75
434.016	11272.87
434.223	11911.84
434.43	12530.33
434.637	12077.73
434.844	12829.33
435.052	13118.09
435.259	13171.34
435.466	13220.49
435.673	13103.76
435.88	13957.76
436.087	14871.15
436.294	14516.86
436.501	14391.93
436.708	14688.89
436.915	15010.42
437.122	15848.04
437.329	15667.81
437.537	16265.82
437.743	16632.41
437.95	16384.6
438.157	17334.86
438.364	17838.66
438.571	17644.1
438.778	17965.64
438.985	19794.47
439.192	18991.67
439.399	19225.14
439.606	18883.13
439.813	19864.1
440.02	21482
440.227	20855.32
440.433	20881.94
440.64	21404.17
440.847	21332.5
441.054	21729.8
441.261	23419.38
441.467	22704.63
441.674	23351.79
441.881	24234.47
442.088	23732.72
442.294	23570.93
442.501	24642.01
442.708	25022.94
442.914	26161.61
443.121	26997.18
443.328	26644.93
443.534	28172.71
443.741	27328.95
443.948	26978.75
444.154	29090.2
444.361	28725.66
444.568	29499.8
444.774	28942.75
444.981	29286.81
445.187	30028.17
445.394	31398.26
445.6	31207.8
445.807	34154.83
446.013	32340.33
446.22	33075.55
446.426	34390.34
446.633	34421.06
446.839	35664.18
447.046	33958.22
447.252	36073.77
447.459	36229.42
447.665	36008.24
447.871	37331.23
448.078	39016.71
448.284	36761.89
448.491	38172.94
448.697	39846.13
448.903	40409.32
449.11	39950.58
449.316	39690.49
449.522	40278.25
449.728	41302.24
449.935	41640.15
450.141	41611.48
450.347	42545.36
450.553	41171.17
450.76	41631.96
450.966	42934.47
451.172	42447.05
451.378	43503.81
451.584	42715.34
451.791	43454.65
451.997	43380.93
452.203	44220.59
452.409	43966.65
452.615	43897.02
452.821	42131.67
453.027	41697.5
453.233	43727.03
453.44	42129.62
453.646	42621.13
453.852	42860.74
454.058	43348.16
454.264	41816.28
454.47	43118.79
454.676	41851.09
454.882	43051.2
455.088	39235.84
455.294	40069.36
455.5	40638.7
455.705	41007.33
455.911	39430.4
456.117	38469.9
456.323	37996.82
456.529	35789.11
456.735	37673.24
456.941	36509.99
457.147	36014.38
457.352	35000.64
457.558	34455.88
457.764	34568.52
457.97	33982.8
458.176	33311.07
458.381	33444.18
458.587	31469.94
458.793	31549.81
458.999	29866.38
459.204	32115.05
459.41	31318.39
459.616	29206.94
459.821	29127.06
460.027	29024.67
460.233	28387.75
460.438	27003.32
460.644	27496.88
460.85	26350.02
461.055	26071.5
461.261	25625.04
461.466	23867.88
461.672	22895.1
461.878	24758.75
462.083	23226.87
462.289	22776.31
462.494	22530.56
462.7	21520.91
462.905	20990.49
463.111	21428.75
463.316	22012.42
463.522	21363.22
463.727	21694.99
463.932	21316.11
464.138	21197.33
464.343	21434.89
464.549	20705.82
464.754	21164.56
464.959	21223.95
465.165	20797.98
465.37	19997.22
465.575	19653.16
465.781	20410.91
465.986	20388.38
466.191	20058.66
466.397	19403.31
466.602	18577.98
466.807	19202.61
467.012	19028.53
467.218	19241.52
467.423	18864.69
467.628	18917.94
467.833	20042.28
468.038	19151.41
468.244	18590.27
468.449	19094.07
468.654	18444.86
468.859	18321.98
469.064	18532.92
469.269	17435.21
469.474	17732.17
469.679	18131.52
469.885	17703.5
470.09	17957.44
470.295	17660.49
470.5	17230.41
470.705	17490.51
470.91	16751.19
471.115	16958.03
471.32	17291.85
471.525	17003.09
471.73	16534.11
471.935	16562.78
472.139	15934.05
472.344	16235.1
472.549	15989.35
472.754	15721.06
472.959	15704.68
473.164	15237.74
473.369	15123.05
473.574	15637.09
473.778	15301.23
473.983	15372.91
474.188	15082.1
474.393	14666.36
474.598	14748.28
474.802	14627.45
475.007	14410.36
475.212	14432.89
475.417	13994.62
475.621	13859.46
475.826	13912.71
476.031	13861.51
476.235	13404.81
476.44	13646.47
476.645	13333.13
476.849	13499.02
477.054	13365.9
477.259	12796.56
477.463	12968.59
477.668	12468.89
477.872	12925.58
478.077	12620.44
478.282	12337.82
478.486	12257.95
478.691	12249.75
478.895	12204.7
479.1	12251.8
479.304	12126.88
479.509	11987.61
479.713	11836.06
479.918	11774.63
480.122	11559.59
480.326	11717.28
480.531	11778.72
480.735	11471.53
480.94	11645.6
481.144	11989.66
481.348	11195.05
481.553	11477.67
481.757	11354.79
481.961	11520.68
482.166	11418.28
482.37	11463.33
482.574	11123.37
482.778	11405.99
482.983	11485.86
483.187	11389.61
483.391	11344.55
483.595	11397.8
483.8	11152.04
484.004	11139.76
484.208	11408.04
484.412	11532.97
484.616	11201.19
484.821	11436.71
485.025	11084.46
485.229	11442.85
485.433	11297.45
485.637	11324.07
485.841	11338.41
486.045	11252.39
486.249	11344.55
486.453	11244.2
486.657	11356.84
486.861	11438.76
487.065	11061.93
487.269	11227.82
487.473	11051.69
487.677	11539.11
487.881	11432.61
488.085	11209.39
488.289	11383.46
488.493	11344.55
488.697	11358.89
488.901	11295.4
489.105	11362.98
489.309	11322.02
489.512	11481.77
489.716	11569.83
489.92	11559.59
490.124	11518.63
490.328	11700.9
490.531	11537.06
490.735	11500.2
490.939	11520.68
491.143	11743.91
491.346	11838.11
491.55	11831.97
491.754	11838.11
491.958	12049.05
492.161	11944.61
492.365	12169.88
492.569	12100.25
492.772	12032.67
492.976	12049.05
493.18	12085.92
493.383	12376.73
493.587	12530.33
493.79	12524.18
493.994	12470.94
494.197	12645.01
494.401	12735.12
494.605	12681.88
494.808	12935.82
495.012	12737.17
495.215	12987.02
495.419	13003.41
495.622	13087.37
495.825	13363.85
496.029	13197.96
496.232	13750.92
496.436	13462.15
496.639	13814.4
496.843	13748.87
497.046	14035.58
497.249	14166.65
497.453	14400.12
497.656	14441.08
497.859	14301.82
498.063	14717.56
498.266	14946.93
498.469	15020.66
498.673	15018.61
498.876	15299.18
499.079	15387.24
499.282	15366.76
499.485	15802.98
499.689	15757.92
499.892	16130.66
500.095	16138.85
500.298	16372.32
500.501	16333.4
500.705	16722.52
500.908	16765.53
501.111	17117.78
501.314	17556.04
501.517	17394.25
501.72	17529.42
501.923	17637.96
502.126	18156.1
502.329	18266.69
502.532	18192.96
502.735	18291.26
502.938	18760.25
503.141	18868.79
503.344	19358.25
503.547	19257.9
503.75	19599.91
503.953	19919.4
504.156	19862.05
504.359	20187.68
504.562	20333.09
504.765	20640.28
504.968	20949.53
505.17	21205.52
505.373	20945.43
505.576	21672.46
505.779	21752.33
505.982	21883.4
506.185	22295.04
506.387	22280.71
506.59	22817.27
506.793	22700.54
506.996	22958.58
507.198	23589.36
507.401	23271.92
507.604	23679.47
507.807	24005.1
508.009	24228.32
508.212	24211.94
508.415	24695.26
508.617	25117.14
508.82	24922.59
509.022	25377.23
509.225	25700.81
509.428	26012.1
509.63	26155.46
509.833	26155.46
510.035	26780.09
510.238	26509.76
510.44	26956.22
510.643	27859.37
510.845	27763.12
511.048	27480.5
511.25	28017.07
511.453	28314.02
511.655	29567.38
511.858	28727.71
512.06	29194.65
512.262	29327.77
512.465	29364.63
512.667	29882.77
512.87	30169.48
513.072	30003.6
513.274	30800.26
513.477	31105.4
513.679	31285.62
513.881	31578.48
514.084	31811.95
514.286	32039.28
514.488	32139.63
514.69	33104.22
514.893	33239.39
515.095	33171.8
515.297	33464.66
515.499	33724.75
515.701	34120.01
515.904	34230.6
516.106	34443.59
516.308	35270.97
516.51	35256.64
516.712	35223.87
516.914	35651.89
517.116	36335.91
517.318	36315.44
517.52	37001.5
517.722	36757.8
517.925	37189.92
518.127	37884.18
518.329	37826.84
518.531	37691.67
518.733	38637.83
518.935	38854.92
519.136	38627.59
519.338	39657.72
519.54	39219.45
519.742	40153.33
519.944	40278.25
520.146	40693.99
520.348	40650.99
520.55	41158.88
520.752	40767.72
520.954	42049.75
521.155	41521.37
521.357	42264.78
521.559	42506.44
521.761	42932.42
521.963	42805.45
522.164	43280.58
522.366	43684.03
522.568	43903.16
522.77	44095.67
522.971	44376.24
523.173	44527.79
523.375	44634.28
523.576	44699.82
523.778	45199.52
523.98	45496.48
524.181	45904.02
524.383	46315.67
524.584	46528.66
524.786	46444.69
524.988	46092.44
525.189	47057.03
525.391	46659.73
525.592	47083.65
525.794	47339.65
525.995	47575.17
526.197	47253.64
526.398	47837.31
526.6	48134.26
526.801	48074.87
527.003	48451.7
527.204	48394.35
527.406	48740.46
527.607	49191.01
527.808	49391.72
528.01	48443.51
528.211	48851.05
528.412	50159.7
528.614	49811.55
528.815	49416.29
529.016	50153.56
529.218	49584.22
529.419	49770.59
529.62	49918.04
529.822	49959
530.023	49920.09
530.224	50233.43
530.425	50294.87
530.626	50329.69
530.828	49588.32
531.029	51245.13
531.23	50569.3
531.431	50552.91
531.632	50718.8
531.833	50995.28
532.035	50802.77
532.236	51150.92
532.437	50946.12
532.638	50933.84
532.839	51359.81
533.04	51224.65
533.241	50724.94
533.442	51361.86
533.643	51212.36
533.844	51552.32
534.045	51474.5
534.246	50802.77
534.447	51591.23
534.648	51079.24
534.849	51208.26
535.05	50929.74
535.251	51318.85
535.451	51591.23
535.652	51535.94
535.853	51589.19
536.054	51675.2
536.255	51732.54
536.456	51155.02
536.657	52252.73
536.857	51755.07
537.058	51224.65
537.259	51816.51
537.46	51945.53
537.66	51580.99
537.861	51654.72
538.062	51206.22
538.263	51804.22
538.463	51591.23
538.664	51466.31
538.865	51767.36
539.065	52033.6
539.266	51075.15
539.466	52252.73
539.667	50851.92
539.868	52312.12
540.068	51546.18
540.269	51744.83
540.469	52195.38
540.67	51396.68
540.87	51343.43
541.071	51728.45
541.271	51460.16
541.472	51570.75
541.672	51533.89
541.873	51316.81
542.073	50886.73
542.274	52080.7
542.474	51617.86
542.675	51138.63
542.875	51765.31
543.075	51746.88
543.276	50987.08
543.476	51880
543.676	51556.42
543.877	51923.01
544.077	51091.53
544.277	51613.76
544.478	51488.84
544.678	51810.37
544.878	51552.32
545.078	51998.78
545.279	50722.9
545.479	51212.36
545.679	51748.93
545.879	51220.55
546.079	51470.4
546.28	51548.23
546.48	51222.6
546.68	51777.6
546.88	51228.74
547.08	51335.24
547.28	51077.19
547.48	50892.88
547.68	51638.34
547.88	51064.91
548.081	51112.01
548.281	51359.81
548.481	50905.16
548.681	51701.82
548.881	51667.01
549.081	51085.39
549.28	51028.04
549.48	51415.11
549.68	51345.48
549.88	51765.31
550.08	50731.09
550.28	51245.13
550.48	51605.57
550.68	51531.84
550.88	50913.36
551.08	51306.57
551.279	51112.01
551.479	50950.22
551.679	51175.5
551.879	51249.22
552.079	51347.53
552.278	51150.92
552.478	50894.92
552.678	50819.15
552.878	51583.04
553.077	51064.91
553.277	50643.02
553.477	51480.64
553.676	50770
553.876	50618.45
554.076	50944.08
554.275	50597.97
554.475	50466.9
554.674	50907.21
554.874	51107.91
555.074	50575.44
555.273	51140.68
555.473	50557.01
555.672	50288.73
555.872	50425.94
556.071	50896.97
556.271	50950.22
556.47	50427.99
556.67	50176.09
556.869	50458.71
557.068	50491.47
557.268	50153.56
557.467	50294.87
557.667	50192.47
557.866	50253.91
558.065	50157.66
558.265	49778.78
558.464	49610.85
558.663	50593.87
558.863	49344.61
559.062	50841.68
559.261	49590.37
559.461	50522.19
559.66	49375.33
559.859	49891.42
560.058	49033.32
560.258	49737.82
560.457	49197.16
560.656	49692.77
560.855	49084.52
561.054	49528.93
561.253	49231.97
561.453	49418.34
561.652	49096.81
561.851	49295.46
562.05	49270.89
562.249	49021.03
562.448	49451.11
562.647	48556.14
562.846	48750.7
563.045	48758.89
563.244	48541.81
563.443	48734.32
563.642	48343.16
563.841	48640.11
564.04	48543.86
564.239	48904.3
564.438	48015.48
564.637	48244.85
564.836	48330.87
565.035	48121.98
565.234	48271.48
565.432	47773.82
565.631	47675.52
565.83	47806.59
566.029	47743.1
566.228	47642.75
566.427	47259.78
566.625	47456.39
566.824	47095.94
567.023	47560.83
567.222	46516.37
567.42	47206.53
567.619	47165.57
567.818	46923.91
568.016	46794.89
568.215	46999.69
568.414	46506.13
568.612	46973.06
568.811	46698.64
569.01	46399.63
569.208	46125.21
569.407	46698.64
569.605	45547.68
569.804	46753.93
570.002	45758.62
570.201	46383.25
570.4	45666.46
570.598	45756.57
570.797	45500.58
570.995	45717.66
571.193	44925.1
571.392	45703.32
571.59	45039.78
571.789	45394.08
571.987	45232.29
572.186	45203.62
572.384	44652.72
572.582	44955.82
572.781	45164.71
572.979	44406.96
573.177	44490.93
573.376	44896.42
573.574	44155.06
573.772	44544.17
573.971	44179.64
574.169	43966.65
574.367	44073.14
574.565	44286.13
574.763	43454.65
574.962	43854.01
575.16	43278.53
575.358	43477.18
575.556	43032.77
575.754	43716.79
575.952	43249.86
576.151	43417.79
576.349	42719.43
576.547	42713.29
576.745	42870.98
576.943	42811.59
577.141	42717.39
577.339	42696.91
577.537	42533.07
577.735	42244.3
577.933	42344.66
578.131	42358.99
578.329	42016.98
578.527	41726.17
578.725	41937.11
578.923	42041.56
579.121	41795.8
579.319	41750.74
579.516	41734.36
579.714	41494.75
579.912	40974.56
580.11	41490.65
580.308	41445.6
580.506	41222.37
580.704	40624.36
580.901	41410.78
581.099	41394.4
581.297	40657.13
581.495	40505.58
581.692	40966.37
581.89	40571.11
582.088	40573.16
582.285	40104.18
582.483	40521.96
582.681	40298.73
582.878	40026.35
583.076	39672.06
583.274	39952.63
583.471	39635.19
583.669	39739.64
583.866	39420.16
584.064	39678.2
584.262	39155.97
584.459	39520.51
584.657	38979.84
584.854	39076.1
585.052	38338.83
585.249	38887.68
585.447	38750.47
585.644	38672.65
585.841	38566.15
586.039	38838.53
586.236	37992.72
586.434	38168.85
586.631	37904.66
586.828	38017.3
587.026	37843.22
587.223	37894.42
587.42	37693.72
587.618	38224.14
587.815	37466.39
588.012	37292.32
588.21	37519.64
588.407	37507.35
588.604	37089.57
588.801	36923.68
588.999	36862.24
589.196	36837.67
589.393	36557.1
589.59	36970.79
589.787	36378.92
589.984	36544.81
590.182	36002.1
590.379	36315.44
590.576	36124.97
590.773	36237.61
590.97	35688.76
591.167	35754.29
591.364	35758.39
591.561	35852.59
591.758	35221.82
591.955	35307.83
592.152	35551.54
592.349	35043.65
592.546	35158.33
592.743	35410.23
592.94	34806.08
593.137	34857.28
593.334	34851.14
593.531	34265.42
593.727	34654.53
593.924	34406.73
594.121	33792.34
594.318	34267.47
594.515	33681.75
594.712	34179.4
594.908	33925.46
595.105	33890.64
595.302	33706.32
595.499	33818.96
595.696	33554.77
595.892	33532.25
596.089	33489.24
596.286	33599.83
596.482	33483.09
596.679	33048.93
596.876	33128.8
597.072	32846.18
597.269	33202.52
597.466	32518.5
597.662	32401.77
597.859	32448.87
598.055	32575.84
598.252	32235.88
598.448	32405.86
598.645	32070
598.841	31797.62
599.038	31920.49
599.234	31863.15
599.431	31873.39
599.627	31613.3
599.824	31457.65
600.02	31412.6
600.217	31492.47
600.413	31363.45
600.609	31105.4
600.806	30923.13
601.002	30781.82
601.198	31086.97
601.395	30710.14
601.591	30800.26
601.787	30738.82
601.984	30400.9
602.18	30480.77
602.376	30392.71
602.572	30183.82
602.769	30189.96
602.965	29702.54
603.161	30108.04
603.357	29874.57
603.553	29897.1
603.75	29946.25
603.946	29516.18
604.142	29700.5
604.338	29108.63
604.534	29389.2
604.73	28848.54
604.926	28924.32
605.122	29411.73
605.318	29135.26
605.514	28860.83
605.71	28711.33
605.906	28719.52
606.102	28731.81
606.298	28408.23
606.494	28787.1
606.69	28866.97
606.886	28314.02
607.082	28152.23
607.278	28318.12
607.474	28051.88
607.67	28363.17
607.866	27476.4
608.062	28451.24
608.257	27781.55
608.453	27855.28
608.649	27906.48
608.845	27494.83
609.041	27586.99
609.236	27802.03
609.432	27468.21
609.628	27333.04
609.824	27611.57
610.019	27126.2
610.215	27429.3
610.411	27627.95
610.606	27044.28
610.802	27208.12
610.998	26905.02
611.193	27107.77
611.389	26792.38
611.584	26954.17
611.78	26589.63
611.976	26614.21
612.171	26702.27
612.367	26716.61
612.562	26509.76
612.758	26304.96
612.953	26046.92
613.149	26569.15
613.344	26048.97
613.539	26362.31
613.735	26132.93
613.93	26569.15
614.126	26335.68
614.321	26186.18
614.517	26161.61
614.712	25627.09
614.907	25991.62
615.103	26184.13
615.298	25655.76
615.493	26147.27
615.688	25201.11
615.884	25860.55
616.079	25278.93
616.274	25618.89
616.47	25410
616.665	25534.93
616.86	25328.08
617.055	25387.47
617.25	25307.6
617.445	25270.74
617.641	24934.87
617.836	24945.11
618.031	24953.3
618.226	24814.04
618.421	24803.8
618.616	24865.24
618.811	24377.83
619.006	25194.96
619.201	24400.35
619.396	24426.98
619.591	23871.98
619.786	24492.51
619.981	23587.31
620.176	24209.89
620.371	23568.88
620.566	23947.75
620.761	23863.79
620.956	23851.5
621.151	23575.02
621.346	23761.39
621.541	23165.43
621.735	23366.13
621.93	22823.42
622.125	23269.87
622.32	22680.06
622.515	22688.25
622.709	22788.6
622.904	22524.41
623.099	22544.89
623.294	22227.46
623.488	21991.94
623.683	22272.51
623.878	21643.79
624.072	22082.05
624.267	21789.19
624.462	21508.62
624.656	21459.47
624.851	21398.03
625.046	21398.03
625.24	20949.53
625.435	20982.29
625.629	20949.53
625.824	20791.83
626.018	20623.9
626.213	20392.48
626.407	20603.42
626.602	20447.77
626.796	20281.89
626.991	20361.76
627.185	20007.46
627.38	20091.43
627.574	19606.06
627.768	19712.55
627.963	19655.21
628.157	19618.35
628.352	19477.04
628.546	19218.99
628.74	19397.17
628.935	18936.37
629.129	19225.14
629.323	18993.72
629.517	18928.18
629.712	18707
629.906	18772.53
630.1	18606.65
630.294	18401.85
630.489	18117.18
630.683	18414.14
630.877	18145.86
631.071	18176.58
631.265	18051.65
631.459	17754.69
631.653	17896
631.848	17879.62
632.042	17738.31
632.236	17750.6
632.43	17388.11
632.624	17570.38
632.818	17136.21
633.012	17152.59
633.206	17019.47
633.4	16980.56
633.594	16763.48
633.788	16794.2
633.982	16788.05
634.176	16898.64
634.369	16343.64
634.563	16493.15
634.757	16222.81
634.951	16450.14
635.145	16169.57
635.339	16368.22
635.533	16165.47
635.726	15888.99
635.92	15772.26
636.114	15813.22
636.308	15669.86
636.501	15444.59
636.695	15514.22
636.889	15364.71
637.083	15440.49
637.276	15168.11
637.47	15143.53
637.664	15334
637.857	15139.44
638.051	15389.29
638.244	14934.64
638.438	14760.56
638.632	14891.63
638.825	14580.34
639.019	14578.29
639.212	14527.1
639.406	14539.38
639.599	14516.86
639.793	14320.25
639.986	14142.08
640.18	14191.23
640.373	14242.43
640.567	13785.73
640.76	13820.55
640.954	13718.15
641.147	13501.06
641.34	13585.03
641.534	13957.76
641.727	13699.72
641.92	13613.7
642.114	13693.57
642.307	13359.75
642.5	13367.95
642.694	13105.81
642.887	12806.8
643.08	13251.21
643.273	13159.05
643.467	13005.45
643.66	12823.19
643.853	12831.38
644.046	12477.08
644.239	12561.05
644.432	12503.7
644.626	12497.56
644.819	12255.9
645.012	12626.58
645.205	12468.89
645.398	12300.95
645.591	12153.5
645.784	12229.27
645.977	11958.94
646.17	12124.83
646.363	11815.59
646.556	11879.07
646.749	11846.3
646.942	11793.06
647.135	11651.75
647.328	11649.7
647.521	11655.84
647.714	11547.3
647.907	11463.33
648.099	11492.01
648.292	11418.28
648.485	11405.99
648.678	11162.28
648.871	11236.01
649.064	10982.06
649.256	10977.97
649.449	10932.91
649.642	10963.63
649.835	10787.5
650.027	11051.69
650.22	10750.64
650.413	10721.97
650.605	10603.19
650.798	10758.83
650.991	10341.05
651.183	10447.54
651.376	10554.04
651.568	10478.26
651.761	10332.86
651.954	10185.4
652.146	10281.66
652.339	10343.1
652.531	10175.16
652.724	10136.25
652.916	10068.67
653.109	9915.07
653.301	9872.06
653.494	9939.65
653.686	9536.2
653.879	9978.56
654.071	9712.32
654.263	9708.23
654.456	9728.7
654.648	9650.88
654.84	9435.85
655.033	9370.31
655.225	9372.36
655.417	9538.24
655.61	9462.47
655.802	9417.41
655.994	9251.53
656.186	9333.45
656.379	9087.69
656.571	9159.37
656.763	8934.09
656.955	9036.49
657.148	9059.02
657.34	9003.72
657.532	8741.58
657.724	8880.85
657.916	8817.36
658.108	8655.57
658.3	8794.83
658.492	8698.58
658.684	8512.21
658.876	8571.6
659.068	8467.16
659.26	8381.14
659.452	8403.67
659.644	8370.9
659.836	8022.75
660.028	8356.57
660.22	8260.31
660.412	8127.19
660.604	8137.43
660.796	8121.05
660.988	8205.02
661.18	8010.46
661.372	7807.71
661.563	7944.92
661.755	7908.06
661.947	7930.59
662.139	7828.19
662.331	7822.05
662.522	7776.99
662.714	7832.29
662.906	7768.8
663.097	7785.18
663.289	7604.96
663.481	7432.93
663.673	7529.19
663.864	7502.56
664.056	7588.58
664.247	7430.88
664.439	7269.09
664.631	7502.56
664.822	7385.83
665.014	7297.77
665.205	7369.44
665.397	7260.9
665.588	7291.62
665.78	7027.43
665.971	7062.25
666.163	7248.61
666.354	6961.9
666.546	7023.34
666.737	7082.73
666.929	6916.84
667.12	6966
667.311	6912.75
667.503	6853.36
667.694	6849.26
667.885	6769.39
668.077	6777.58
668.268	6785.77
668.459	6777.58
668.651	6767.34
668.842	6769.39
669.033	6564.59
669.224	6589.17
669.416	6490.87
669.607	6642.42
669.798	6423.28
669.989	6630.13
670.18	6662.9
670.371	6537.97
670.563	6339.32
670.754	6384.37
670.945	6378.23
671.136	6445.81
671.327	6396.66
671.518	6249.21
671.709	6243.06
671.9	6429.43
672.091	6036.22
672.282	6052.6
672.473	5950.2
672.664	6320.88
672.855	6238.97
673.046	6257.4
673.237	6075.13
673.428	6167.29
673.619	6023.93
673.809	6105.85
674	6021.88
674.191	5962.49
674.382	5978.87
674.573	5917.44
674.764	5958.39
674.954	5923.58
675.145	5899
675.336	5921.53
675.527	5800.7
675.717	5782.27
675.908	5810.94
676.099	5749.5
676.289	5821.18
676.48	5806.84
676.671	5673.73
676.861	5724.93
677.052	5507.84
677.243	5489.41
677.433	5591.81
677.624	5733.12
677.814	5487.36
678.005	5610.24
678.195	5759.74
678.386	5430.02
678.576	5528.32
678.767	5464.83
678.957	5384.96
679.148	5538.56
679.338	5634.82
679.529	5495.55
679.719	5618.43
679.909	5595.9
680.1	5212.93
680.29	5448.45
680.481	5397.25
680.671	5391.11
680.861	5327.62
681.052	5301
681.242	5356.29
681.432	5448.45
681.622	5262.09
681.813	5235.46
682.003	5438.21
682.193	5376.77
682.383	5180.17
682.573	5194.5
682.764	5257.99
682.954	5260.04
683.144	5184.26
683.334	5192.45
683.524	5077.77
683.714	5294.85
683.904	5188.36
684.094	5135.11
684.284	5188.36
684.474	5128.97
684.664	5135.11
684.854	5141.25
685.044	5124.87
685.234	4924.17
685.424	5075.72
685.614	5045
685.804	5102.34
685.994	5090.06
686.184	5030.66
686.374	4832.01
686.564	4893.45
686.753	4860.68
686.943	4950.79
687.133	4885.26
687.323	4891.4
687.513	4852.49
687.702	4793.1
687.892	4711.18
688.082	4889.35
688.272	4711.18
688.461	4801.29
688.651	4807.44
688.841	4633.36
689.03	4627.21
689.22	4629.26
689.41	4780.81
689.599	4510.48
689.789	4565.78
689.979	4633.36
690.168	4483.86
690.358	4635.41
690.547	4406.03
690.737	4369.17
690.926	4479.76
691.116	4373.27
691.305	4426.51
691.495	4377.36
691.684	4430.61
691.874	4406.03
692.063	4344.6
692.252	4399.89
692.442	4377.36
692.631	4258.58
692.82	4338.45
693.01	4131.61
693.199	4154.13
693.388	4164.37
693.578	4180.76
693.767	4223.76
693.956	4004.63
694.146	4049.69
694.335	4037.4
694.524	4217.62
694.713	4205.33
694.902	4027.16
695.092	4090.65
695.281	4115.22
695.47	4031.26
695.659	3941.15
695.848	3975.96
696.037	4064.02
696.226	3916.57
696.415	4082.46
696.604	4021.02
696.793	3822.36
696.982	3953.43
697.171	3971.86
697.36	4111.13
697.549	3781.4
697.738	3935
697.927	3857.18
698.116	3859.23
698.305	3805.98
698.494	3771.16
698.683	3803.93
698.872	3857.18
699.061	3803.93
699.25	3902.23
699.438	3853.08
699.627	3799.84
699.816	3885.85
700.005	3681.05
700.193	3881.75
700.382	3746.59
700.571	3730.2
700.76	3738.4
700.948	3734.3
701.137	3742.49
701.326	3846.94
701.514	3605.28
701.703	3750.68
701.892	3717.92
702.08	3701.53
702.269	3728.16
702.457	3648.29
702.646	3652.38
702.834	3658.53
703.023	3648.29
703.212	3662.62
703.4	3648.29
703.589	3531.55
703.777	3828.51
703.965	3527.46
704.154	3705.63
704.342	3640.09
704.531	3728.16
704.719	3664.67
704.907	3582.75
705.096	3535.65
705.284	3679.01
705.472	3578.65
705.661	3603.23
705.849	3603.23
706.037	3607.33
706.226	3609.37
706.414	3578.65
706.602	3533.6
706.79	3713.82
706.979	3605.28
707.167	3586.85
707.355	3461.92
707.543	3545.89
707.731	3629.85
707.919	3679.01
708.107	3640.09
708.296	3570.46
708.484	3595.04
708.672	3644.19
708.86	3556.13
709.048	3547.94
709.236	3414.82
709.424	3570.46
709.612	3511.07
709.8	3461.92
709.988	3535.65
710.176	3588.89
710.364	3541.79
710.551	3414.82
710.739	3470.11
710.927	3484.45
711.115	3382.05
711.303	3519.26
711.491	3490.59
711.679	3441.44
711.866	3603.23
712.054	3521.31
712.242	3523.36
712.43	3513.12
712.617	3355.43
712.805	3408.67
712.993	3511.07
713.181	3365.67
713.368	3382.05
713.556	3418.91
713.744	3449.63
713.931	3273.51
714.119	3437.34
714.306	3420.96
714.494	3177.25
714.682	3420.96
714.869	3291.94
715.057	3554.08
715.244	3472.16
715.432	3488.54
715.619	3410.72
715.807	3472.16
715.994	3343.14
716.182	3476.26
716.369	3470.11
716.556	3435.3
716.744	3222.31
716.931	3296.04
717.119	3529.5
717.306	3369.76
717.493	3355.43
717.681	3238.69
717.868	3398.43
718.055	3326.75
718.242	3398.43
718.43	3349.28
718.617	3326.75
718.804	3500.83
718.991	3312.42
719.179	3273.51
719.366	3242.79
719.553	3310.37
719.74	3242.79
719.927	3316.51
720.114	3394.34
720.301	3357.47
720.488	3320.61
720.676	3300.13
720.863	3412.77
721.05	3322.66
721.237	3234.6
721.424	3402.53
721.611	3177.25
721.798	3336.99
721.985	3345.19
722.172	3394.34
722.358	3431.2
722.545	3349.28
722.732	3228.45
722.919	3336.99
723.106	3076.9
723.293	3224.36
723.48	3238.69
723.667	3195.68
723.853	3279.65
724.04	3236.64
724.227	3296.04
724.414	3281.7
724.6	3265.32
724.787	3181.35
724.974	3187.49
725.161	3171.11
725.347	3023.66
725.534	3124.01
725.72	3156.77
725.907	3255.08
726.094	3164.97
726.28	3207.97
726.467	3142.44
726.653	3101.48
726.84	3060.52
727.027	3158.82
727.213	3154.73
727.4	3261.22
727.586	2976.55
727.773	3109.67
727.959	3181.35
728.145	3115.81
728.332	3031.85
728.518	3015.46
728.705	3191.59
728.891	3099.43
729.077	3027.75
729.264	3128.1
729.45	3070.76
729.636	3216.16
729.823	3062.57
730.009	3156.77
730.195	3033.9
730.382	3156.77
730.568	2935.59
730.754	3091.24
730.94	3054.37
731.126	3144.49
731.313	3187.49
731.499	3087.14
731.685	3042.09
731.871	3035.94
732.057	3015.46
732.243	3074.85
732.429	3027.75
732.615	3109.67
732.801	3011.37
732.987	2980.65
733.173	2988.84
733.359	2958.12
733.545	2997.03
733.731	2984.74
733.917	3089.19
734.103	3005.22
734.289	3003.18
734.475	2915.11
734.661	3117.86
734.847	2890.54
735.033	3062.57
735.219	2874.15
735.404	2908.97
735.59	2956.07
735.776	2878.25
735.962	2804.52
736.148	3044.13
736.333	2931.5
736.519	2763.56
736.705	2788.14
736.89	2886.44
737.076	2997.03
737.262	2786.09
737.447	2863.91
737.633	2857.77
737.819	2913.06
738.004	2855.72
738.19	2763.56
738.375	2763.56
738.561	2763.56
738.747	2841.39
738.932	2804.52
739.118	2890.54
739.303	2804.52
739.489	2763.56
739.674	2843.43
739.859	2648.88
740.045	2784.04
740.23	2698.03
740.416	2665.26
740.601	2648.88
740.786	2695.98
740.972	2612.01
741.157	2698.03
741.342	2622.25
741.528	2673.45
741.713	2636.59
741.898	2700.08
742.084	2616.11
742.269	2607.92
742.454	2630.45
742.639	2618.16
742.824	2532.14
743.01	2499.38
743.195	2644.78
743.38	2560.81
743.565	2501.42
743.75	2495.28
743.935	2435.89
744.12	2507.57
744.305	2456.37
744.49	2370.35
744.675	2554.67
744.86	2513.71
745.045	2556.72
745.23	2425.65
745.415	2542.38
745.6	2409.26
745.785	2370.35
745.97	2487.09
746.155	2374.45
746.34	2323.25
746.525	2255.67
746.71	2374.45
746.895	2341.68
747.079	2276.15
747.264	2347.83
747.449	2302.77
747.634	2190.13
747.819	2302.77
748.003	2308.91
748.188	2349.87
748.373	2157.36
748.557	2140.98
748.742	2124.6
748.927	2194.23
749.111	2138.93
749.296	2270
749.481	2140.98
749.665	2075.45
749.85	2118.45
750.034	2097.97
750.219	2181.94
750.404	2011.96
750.588	1995.57
750.773	1964.86
750.957	2042.68
751.141	1927.99
751.326	1942.33
751.51	1903.42
751.695	1979.19
751.879	1932.09
752.064	1895.22
752.248	1870.65
752.432	1968.95
752.617	1901.37
752.801	1932.09
752.985	1938.23
753.17	1827.64
753.354	1766.2
753.538	1833.79
753.722	1755.96
753.907	1829.69
754.091	1725.24
754.275	1690.43
754.459	1821.5
754.643	1710.91
754.828	1772.35
755.012	1762.11
755.196	1667.9
755.38	1682.24
755.564	1565.5
755.748	1645.37
755.932	1659.71
756.116	1596.22
756.3	1606.46
756.484	1561.41
756.668	1674.04
756.852	1493.82
757.036	1592.13
757.22	1512.25
757.404	1571.65
757.588	1530.69
757.772	1497.92
757.956	1469.25
758.14	1616.7
758.323	1467.2
758.507	1440.58
758.691	1454.91
758.875	1465.15
759.059	1499.97
759.242	1416
759.426	1440.58
759.61	1549.12
759.794	1434.43
759.977	1456.96
760.161	1452.86
760.345	1467.2
760.528	1352.51
760.712	1436.48
760.895	1387.33
761.079	1350.46
761.263	1389.38
761.446	1297.22
761.63	1327.94
761.813	1311.55
761.997	1315.65
762.18	1401.66
762.364	1348.42
762.547	1252.16
762.731	1352.51
762.914	1305.41
763.098	1194.82
763.281	1301.31
763.464	1092.42
763.648	1303.36
763.831	1264.45
764.015	1297.22
764.198	1213.25
764.381	1166.15
764.564	1266.5
764.748	1239.87
764.931	1248.07
765.114	1221.44
765.297	1246.02
765.481	1231.68
765.664	1123.14
765.847	1139.52
766.03	1299.27
766.213	1131.33
766.397	1145.67
766.58	1125.19
766.763	1248.07
766.946	1098.56
767.129	1147.72
767.312	1123.14
767.495	1147.72
767.678	1112.9
767.861	1096.52
768.044	1078.08
768.227	1153.86
768.41	1112.9
768.593	1018.69
768.776	1129.28
768.959	1104.71
769.142	1104.71
769.324	1043.27
769.507	1149.76
769.69	1049.41
769.873	1020.74
770.056	1119.04
770.239	1203.01
770.421	1063.75
770.604	1094.47
770.787	1022.79
770.97	1014.6
771.152	1014.6
771.335	1096.52
771.518	1049.41
771.7	1166.15
771.883	967.49
772.066	990.02
772.248	1082.18
772.431	949.06
772.613	916.3
772.796	920.39
772.978	975.69
773.161	951.11
773.343	889.67
773.526	912.2
773.708	1016.65
773.891	895.82
774.073	936.78
774.256	951.11
774.438	926.54
774.621	920.39
774.803	879.43
774.985	861
775.168	861
775.35	910.15
775.532	908.1
775.715	938.82
775.897	936.78
776.079	844.62
776.261	885.58
776.444	758.6
776.626	863.05
776.808	824.14
776.99	748.36
777.173	869.19
777.355	817.99
777.537	871.24
777.719	742.22
777.901	791.37
778.083	836.42
778.265	682.83
778.447	809.8
778.629	768.84
778.811	740.17
778.993	867.14
779.175	750.41
779.357	777.03
779.539	686.92
779.721	772.94
779.903	787.27
780.085	711.5
780.267	699.21
780.449	703.31
780.631	752.46
780.812	623.44
780.994	707.4
781.176	748.36
781.358	707.4
781.54	615.24
781.721	676.68
781.903	645.96
782.085	709.45
782.267	729.93
782.448	600.91
782.63	598.86
782.812	635.72
782.993	600.91
783.175	557.9
783.357	557.9
783.538	650.06
783.72	633.68
783.901	637.77
784.083	666.44
784.264	568.14
784.446	531.28
784.627	537.42
784.809	598.86
784.99	551.76
785.172	551.76
785.353	478.03
785.535	570.19
785.716	469.84
785.897	568.14
786.079	559.95
786.26	500.56
786.441	605
786.623	492.37
786.804	518.99
786.985	527.18
787.167	535.37
787.348	533.33
787.529	535.37
787.71	488.27
787.891	555.85
788.073	516.94
788.254	543.57
788.435	500.56
788.616	521.04
788.797	500.56
788.978	543.57
789.159	459.6
789.34	486.22
789.522	523.09
789.703	461.65
789.884	375.63
790.065	412.5
790.246	486.22
790.427	402.26
790.607	480.08
790.788	471.89
790.969	392.02
791.15	457.55
791.331	375.63
791.512	437.07
791.693	367.44
791.874	410.45
792.054	457.55
792.235	418.64
792.416	385.87
792.597	373.58
792.778	435.02
792.958	340.82
793.139	422.73
793.32	349.01
793.5	334.67
793.681	451.41
793.862	404.3
794.042	449.36
794.223	371.54
794.404	291.66
794.584	484.17
794.765	392.02
794.945	349.01
795.126	435.02
795.306	365.39
795.487	377.68
795.667	332.62
795.848	406.35
796.028	379.73
796.209	297.81
796.389	404.3
796.57	355.15
796.75	295.76
796.93	260.95
797.111	301.9
797.291	306
797.471	377.68
797.652	303.95
797.832	361.3
798.012	328.53
798.192	277.33
798.373	316.24
798.553	308.05
798.733	387.92
798.913	281.43
799.093	377.68
799.274	338.77
799.454	357.2
799.634	314.19
799.814	269.14
799.994	346.96
800.174	346.96
800.354	269.14
800.534	312.14
800.714	338.77
800.894	262.99
801.074	365.39
801.254	285.52
801.434	275.28
801.614	260.95
801.794	273.23
801.974	824.14
802.154	269.14
802.334	291.66
802.514	232.27
802.693	250.71
802.873	297.81
803.053	306
803.233	359.25
803.413	303.95
803.592	289.62
803.772	199.51
803.952	250.71
804.131	240.47
804.311	320.34
804.491	219.99
804.67	189.27
804.85	338.77
805.03	281.43
805.209	314.19
805.389	271.19
805.568	170.83
805.748	246.61
805.928	355.15
806.107	203.6
806.287	277.33
806.466	301.9
806.646	187.22
806.825	158.55
807.004	277.33
807.184	238.42
807.363	158.55
807.543	183.12
807.722	205.65
807.901	287.57
808.081	265.04
808.26	185.17
808.439	248.66
808.619	260.95
808.798	265.04
808.977	287.57
809.156	224.08
809.336	256.85
809.515	203.6
809.694	197.46
809.873	224.08
810.052	215.89
810.231	273.23
810.411	281.43
810.59	230.23
810.769	131.92
810.948	213.84
811.127	162.64
811.306	217.94
811.485	150.36
811.664	283.47
811.843	232.27
812.022	183.12
812.201	205.65
812.38	232.27
812.559	187.22
812.737	203.6
812.916	148.31
813.095	238.42
813.274	269.14
813.453	222.03
813.632	211.79
813.811	230.23
813.989	142.16
814.168	232.27
814.347	183.12
814.526	170.83
814.704	185.17
814.883	166.74
815.062	209.75
815.24	170.83
815.419	189.27
815.598	201.55
815.776	58.2
815.955	164.69
816.133	144.21
816.312	123.73
816.49	152.4
816.669	219.99
816.847	179.03
817.026	183.12
817.204	154.45
817.383	193.36
817.561	154.45
817.74	185.17
817.918	195.41
818.097	164.69
818.275	138.07
818.453	197.46
818.632	164.69
818.81	193.36
818.988	109.4
819.167	119.64
819.345	144.21
819.523	162.64
819.701	136.02
819.879	158.55
820.058	76.63
820.236	172.88
820.414	99.16
820.592	154.45
820.77	158.55
820.948	95.06
821.127	166.74
821.305	176.98
821.483	125.78
821.661	238.42
821.839	160.59
822.017	117.59
822.195	142.16
822.373	133.97
822.551	183.12
822.729	121.68
822.907	107.35
823.085	142.16
823.262	142.16
823.44	90.96
823.618	166.74
823.796	162.64
823.974	158.55
824.152	123.73
824.329	142.16
824.507	162.64
824.685	140.12
824.863	142.16
825.04	189.27
825.218	170.83
825.396	211.79
825.574	150.36
825.751	101.2
825.929	193.36
826.107	142.16
826.284	129.88
826.462	136.02
826.639	111.44
826.817	-13.48
826.994	211.79
827.172	181.07
827.349	144.21
827.527	115.54
827.704	86.87
827.882	156.5
828.059	127.83
828.237	70.48
828.414	127.83
828.591	93.01
828.769	119.64
828.946	117.59
829.124	152.4
829.301	160.59
829.478	125.78
829.655	90.96
829.833	174.93
830.01	58.2
830.187	148.31
830.364	119.64
830.542	97.11
830.719	133.97
830.896	176.98
831.073	136.02
831.25	82.77
831.427	117.59
831.604	179.03
831.782	107.35
831.959	109.4
832.136	164.69
832.313	105.3
832.49	86.87
832.667	142.16
832.844	117.59
833.021	127.83
833.198	119.64
833.374	90.96
833.551	162.64
833.728	125.78
833.905	162.64
834.082	115.54
834.259	93.01
834.436	76.63
834.612	82.77
834.789	140.12
834.966	84.82
835.143	80.72
835.319	-13.48
835.496	101.2
835.673	70.48
835.85	127.83
836.026	113.49
836.203	107.35
836.38	58.2
836.556	109.4
836.733	93.01
836.909	176.98
837.086	97.11
837.262	58.2
837.439	93.01
837.616	111.44
837.792	103.25
837.968	154.45
838.145	35.67
838.321	129.88
838.498	226.13
838.674	115.54
838.851	37.72
839.027	115.54
839.203	123.73
839.38	109.4
839.556	37.72
839.732	123.73
839.909	97.11
840.085	33.62
840.261	56.15
840.437	37.72
840.614	76.63
840.79	58.2
840.966	127.83
841.142	103.25
841.318	76.63
841.494	156.5
841.671	103.25
841.847	60.24
842.023	45.91
842.199	80.72
842.375	144.21
842.551	125.78
842.727	72.53
842.903	113.49
843.079	17.24
843.255	95.06
843.431	76.63
843.607	105.3
843.783	2.9
843.959	105.3
844.134	64.34
844.31	25.43
844.486	97.11
844.662	52.05
844.838	66.39
845.013	80.72
845.189	121.68
845.365	62.29
845.541	37.72
845.716	9.05
845.892	60.24
846.068	-7.34
846.244	27.48
846.419	72.53
846.595	103.25
846.77	13.14
846.946	62.29
847.122	99.16
847.297	11.09
847.473	47.96
847.648	60.24
847.824	105.3
847.999	41.81
848.175	80.72
848.35	43.86
848.526	45.91
848.701	64.34
848.876	125.78
849.052	144.21
849.227	74.58
849.403	80.72
849.578	80.72
849.753	129.88
849.929	47.96
850.104	52.05
850.279	80.72
850.454	58.2
850.63	-3.24
850.805	45.91
850.98	41.81
851.155	78.68
851.33	35.67
851.505	50
851.681	113.49
851.856	35.67
852.031	39.76
852.206	58.2
852.381	41.81
852.556	19.29
852.731	90.96
852.906	9.05
853.081	179.03
853.256	117.59
853.431	58.2
853.606	-23.72
853.781	-5.29
853.956	93.01
854.131	52.05
854.305	-11.43
854.48	90.96
854.655	52.05
854.83	9.05
855.005	-21.67
855.18	58.2
855.354	60.24
855.529	86.87
855.704	76.63
855.879	101.2
856.053	-5.29
856.228	64.34
856.403	7
856.577	70.48
856.752	-42.15
856.926	43.86
857.101	45.91
857.276	-15.53
857.45	191.31
857.625	90.96
857.799	90.96
857.974	-29.87
858.148	39.76
858.323	64.34
858.497	68.44
858.672	80.72
858.846	45.91
859.02	29.52
859.195	54.1
859.369	113.49
859.543	66.39
859.718	21.33
859.892	60.24
860.066	109.4
860.241	15.19
860.415	23.38
860.589	-1.19
860.763	25.43
860.938	-48.3
861.112	82.77
861.286	19.29
861.46	43.86
861.634	52.05
861.808	64.34
861.982	-3.24
862.157	41.81
862.331	45.91
862.505	54.1
862.679	-7.34
862.853	-7.34
863.027	0.85
863.201	47.96
863.375	-56.49
863.549	35.67
863.722	93.01
863.896	45.91
864.07	-9.39
864.244	97.11
864.418	-9.39
864.592	68.44
864.766	25.43
864.939	50
865.113	31.57
865.287	76.63
865.461	72.53
865.634	-5.29
865.808	43.86
865.982	23.38
866.156	58.2
866.329	31.57
866.503	27.48
866.676	60.24
866.85	50
867.024	31.57
867.197	90.96
867.371	27.48
867.544	105.3
867.718	-23.72
867.891	31.57
868.065	-56.49
868.238	66.39
868.412	21.33
868.585	9.05
868.759	27.48
868.932	78.68
869.105	84.82
869.279	60.24
869.452	33.62
869.625	78.68
869.799	25.43
869.972	43.86
870.145	80.72
870.319	23.38
870.492	74.58
870.665	74.58
870.838	-38.06
871.011	-11.43
871.185	39.76
871.358	15.19
871.531	27.48
871.704	115.54
871.877	50
872.05	-15.53
872.223	64.34
872.396	45.91
872.569	66.39
872.742	-31.91
872.915	29.52
873.088	2.9
873.261	-21.67
873.434	-3.24
873.607	68.44
873.78	64.34
873.953	60.24
874.126	11.09
874.299	25.43
874.471	-3.24
874.644	60.24
874.817	-74.92
874.99	117.59
875.163	-21.67
875.335	95.06
875.508	-11.43
875.681	19.29
875.853	-76.97
876.026	82.77
876.199	70.48
876.371	62.29
876.544	29.52
876.717	66.39
876.889	19.29
877.062	47.96
877.234	-7.34
877.407	19.29
877.579	-17.58
877.752	-17.58
877.924	60.24
878.097	56.15
878.269	43.86
878.442	72.53
878.614	64.34
878.786	86.87
878.959	25.43
879.131	50
879.303	27.48
879.476	43.86
879.648	2.9
879.82	31.57
879.993	78.68
880.165	11.09
880.337	-46.25
880.509	-36.01
880.681	-19.63
880.854	33.62
881.026	-13.48
881.198	125.78
881.37	7
881.542	66.39
881.714	29.52
881.886	56.15
882.058	41.81
882.23	-7.34
882.402	-7.34
882.574	72.53
882.746	60.24
882.918	35.67
883.09	35.67
883.262	13.14
883.434	17.24
883.606	2.9
883.778	-5.29
883.95	52.05
884.122	-3.24
884.293	43.86
884.465	23.38
884.637	15.19
884.809	31.57
884.98	17.24
885.152	-29.87
885.324	52.05
885.496	-44.2
885.667	0.85
885.839	-15.53
886.011	52.05
886.182	86.87
886.354	13.14
886.525	52.05
886.697	33.62
886.869	25.43
887.04	-9.39
887.212	-56.49
887.383	-15.53
887.555	-1.19
887.726	56.15
887.897	-48.3
888.069	4.95
888.24	9.05
888.412	37.72
888.583	-1.19
888.754	29.52
888.926	-29.87
889.097	97.11
889.268	-60.59
889.44	27.48
889.611	64.34
889.782	47.96
889.953	19.29
890.125	70.48
890.296	7
890.467	-27.82
890.638	31.57
890.809	-13.48
890.98	47.96
891.151	52.05
891.323	33.62
891.494	2.9
891.665	-1.19
891.836	-33.96
892.007	-17.58
892.178	64.34
892.349	29.52
892.52	9.05
892.691	72.53
892.862	90.96
893.032	2.9
893.203	33.62
893.374	19.29
893.545	72.53
893.716	56.15
893.887	21.33
894.057	-38.06
894.228	19.29
894.399	-64.68
894.57	-9.39
894.74	76.63
894.911	107.35
895.082	-7.34
895.253	27.48
895.423	-9.39
895.594	68.44
895.764	11.09
895.935	19.29
896.106	-13.48
896.276	56.15
896.447	11.09
896.617	47.96
896.788	-11.43
896.958	19.29
897.129	29.52
897.299	-25.77
897.47	43.86
897.64	31.57
897.81	52.05
897.981	11.09
898.151	-40.11
898.322	19.29
898.492	25.43
898.662	0.85
898.832	58.2
899.003	-58.54
899.173	39.76
899.343	15.19
899.513	21.33
