Data from USB4F104151__180__10-27-51-257.txt Node

Date: Wed Mar 12 10:27:51 EDT 2025
User: louis
Spectrometer: USB4F10415
Trigger mode: 4
Integration Time (sec): 3.000000E-2
Scans to average: 1
Electric dark correction enabled: true
Nonlinearity correction enabled: false
Boxcar width: 0
XAxis mode: Wavelengths
Number of Pixels in Spectrum: 3648
>>>>>Begin Spectral Data<<<<<
178.204	-147.11
178.424	-147.11
178.644	-147.11
178.864	-118.44
179.084	-169.64
179.304	-34.47
179.524	22.87
179.744	-13.99
179.964	26.96
180.184	29.01
180.404	24.92
180.624	-16.04
180.844	0.34
181.064	-16.04
181.283	-38.57
181.503	29.01
181.723	-13.99
181.943	18.77
182.163	61.78
182.383	43.35
182.602	43.35
182.822	47.44
183.042	29.01
183.262	37.2
183.482	14.68
183.701	-9.9
183.921	37.2
184.141	-34.47
184.361	-1.71
184.58	14.68
184.8	-16.04
185.02	-26.28
185.239	22.87
185.459	16.73
185.679	-28.33
185.898	-77.48
186.118	61.78
186.338	-1.71
186.557	41.3
186.777	-28.33
186.997	-32.43
187.216	-22.19
187.436	-30.38
187.655	55.64
187.875	0.34
188.095	45.4
188.314	-28.33
188.534	96.6
188.753	-48.81
188.973	14.68
189.192	-1.71
189.412	51.54
189.631	-9.9
189.851	41.3
190.07	-28.33
190.29	8.53
190.509	-3.75
190.729	-16.04
190.948	31.06
191.168	61.78
191.387	53.59
191.607	55.64
191.826	-11.95
192.045	49.49
192.265	-44.71
192.484	4.44
192.704	6.49
192.923	26.96
193.142	104.79
193.362	-11.95
193.581	31.06
193.8	33.11
194.02	16.73
194.239	-16.04
194.458	-18.09
194.678	-13.99
194.897	74.07
195.116	4.44
195.335	0.34
195.555	33.11
195.774	20.82
195.993	55.64
196.212	20.82
196.432	31.06
196.651	47.44
196.87	-32.43
197.089	74.07
197.308	-59.05
197.528	57.68
197.747	-5.8
197.966	-13.99
198.185	86.36
198.404	41.3
198.623	35.16
198.842	4.44
199.062	-11.95
199.281	14.68
199.5	49.49
199.719	16.73
199.938	69.97
200.157	53.59
200.376	31.06
200.595	20.82
200.814	16.73
201.033	-3.75
201.252	22.87
201.471	35.16
201.69	18.77
201.909	26.96
202.128	-28.33
202.347	20.82
202.566	57.68
202.785	-44.71
203.004	-67.24
203.223	67.92
203.442	59.73
203.661	-1.71
203.879	6.49
204.098	24.92
204.317	6.49
204.536	72.02
204.755	29.01
204.974	35.16
205.193	-9.9
205.411	57.68
205.63	69.97
205.849	8.53
206.068	-18.09
206.287	-36.52
206.505	-1.71
206.724	16.73
206.943	-11.95
207.162	-57
207.381	86.36
207.599	-20.14
207.818	26.96
208.037	20.82
208.255	-16.04
208.474	31.06
208.693	57.68
208.911	-95.91
209.13	22.87
209.349	53.59
209.567	37.2
209.786	94.55
210.005	57.68
210.223	55.64
210.442	33.11
210.661	80.21
210.879	-16.04
211.098	65.88
211.316	10.58
211.535	37.2
211.753	-50.86
211.972	41.3
212.191	-3.75
212.409	18.77
212.628	41.3
212.846	31.06
213.065	24.92
213.283	61.78
213.502	61.78
213.72	41.3
213.938	26.96
214.157	90.45
214.375	-1.71
214.594	-7.85
214.812	20.82
215.031	31.06
215.249	-9.9
215.467	37.2
215.686	43.35
215.904	26.96
216.122	8.53
216.341	29.01
216.559	-16.04
216.778	110.93
216.996	69.97
217.214	-22.19
217.432	-50.86
217.651	-3.75
217.869	45.4
218.087	41.3
218.306	6.49
218.524	12.63
218.742	6.49
218.96	72.02
219.179	12.63
219.397	14.68
219.615	78.16
219.833	88.4
220.051	-13.99
220.27	125.27
220.488	33.11
220.706	-16.04
220.924	-89.77
221.142	57.68
221.36	20.82
221.578	20.82
221.796	16.73
222.015	-18.09
222.233	80.21
222.451	47.44
222.669	31.06
222.887	76.12
223.105	0.34
223.323	35.16
223.541	-9.9
223.759	20.82
223.977	20.82
224.195	18.77
224.413	41.3
224.631	47.44
224.849	6.49
225.067	57.68
225.285	-30.38
225.503	115.03
225.721	12.63
225.939	53.59
226.157	8.53
226.375	47.44
226.592	-54.95
226.81	-28.33
227.028	20.82
227.246	33.11
227.464	8.53
227.682	45.4
227.9	-26.28
228.117	-3.75
228.335	59.73
228.553	-22.19
228.771	8.53
228.989	-40.62
229.206	0.34
229.424	-32.43
229.642	-50.86
229.86	41.3
230.077	-38.57
230.295	-9.9
230.513	57.68
230.731	90.45
230.948	24.92
231.166	37.2
231.384	-9.9
231.601	10.58
231.819	16.73
232.037	-61.1
232.254	-65.19
232.472	37.2
232.689	4.44
232.907	24.92
233.125	-7.85
233.342	98.64
233.56	33.11
233.777	0.34
233.995	2.39
234.213	49.49
234.43	51.54
234.648	92.5
234.865	51.54
235.083	24.92
235.3	6.49
235.518	0.34
235.735	76.12
235.953	22.87
236.17	-16.04
236.388	4.44
236.605	8.53
236.822	47.44
237.04	-11.95
237.257	-20.14
237.475	-24.23
237.692	-32.43
237.909	41.3
238.127	65.88
238.344	65.88
238.562	16.73
238.779	-32.43
238.996	-38.57
239.214	90.45
239.431	61.78
239.648	2.39
239.865	98.64
240.083	-24.23
240.3	74.07
240.517	12.63
240.735	49.49
240.952	29.01
241.169	69.97
241.386	26.96
241.603	33.11
241.821	-22.19
242.038	-26.28
242.255	47.44
242.472	-18.09
242.689	-3.75
242.907	86.36
243.124	74.07
243.341	-9.9
243.558	-40.62
243.775	47.44
243.992	-32.43
244.209	35.16
244.426	94.55
244.643	88.4
244.86	20.82
245.078	24.92
245.295	4.44
245.512	-26.28
245.729	-65.19
245.946	51.54
246.163	33.11
246.38	-57
246.597	47.44
246.814	4.44
247.031	0.34
247.248	47.44
247.464	-3.75
247.681	51.54
247.898	86.36
248.115	65.88
248.332	-24.23
248.549	18.77
248.766	31.06
248.983	47.44
249.2	63.83
249.417	65.88
249.633	-57
249.85	65.88
250.067	49.49
250.284	74.07
250.501	24.92
250.717	135.51
250.934	26.96
251.151	22.87
251.368	12.63
251.585	12.63
251.801	18.77
252.018	106.84
252.235	6.49
252.451	-77.48
252.668	-11.95
252.885	47.44
253.102	-18.09
253.318	26.96
253.535	-3.75
253.752	16.73
253.968	45.4
254.185	33.11
254.401	0.34
254.618	51.54
254.835	47.44
255.051	84.31
255.268	43.35
255.484	14.68
255.701	4.44
255.917	61.78
256.134	-7.85
256.351	76.12
256.567	98.64
256.784	-3.75
257	-1.71
257.217	22.87
257.433	-11.95
257.65	8.53
257.866	-20.14
258.082	37.2
258.299	8.53
258.515	24.92
258.732	55.64
258.948	20.82
259.165	16.73
259.381	41.3
259.597	82.26
259.814	96.6
260.03	16.73
260.246	37.2
260.463	76.12
260.679	-16.04
260.895	119.12
261.112	63.83
261.328	-38.57
261.544	98.64
261.761	119.12
261.977	-16.04
262.193	18.77
262.409	49.49
262.626	-11.95
262.842	55.64
263.058	-24.23
263.274	59.73
263.49	33.11
263.707	31.06
263.923	-11.95
264.139	53.59
264.355	49.49
264.571	98.64
264.787	26.96
265.004	67.92
265.22	-7.85
265.436	4.44
265.652	-54.95
265.868	37.2
266.084	29.01
266.3	-18.09
266.516	4.44
266.732	-24.23
266.948	6.49
267.164	67.92
267.38	-57
267.596	63.83
267.812	-3.75
268.028	2.39
268.244	24.92
268.46	-54.95
268.676	22.87
268.892	41.3
269.108	-1.71
269.324	-24.23
269.54	-3.75
269.756	80.21
269.972	-24.23
270.188	20.82
270.403	-44.71
270.619	65.88
270.835	0.34
271.051	59.73
271.267	57.68
271.483	100.69
271.698	16.73
271.914	78.16
272.13	82.26
272.346	-7.85
272.562	61.78
272.777	8.53
272.993	18.77
273.209	45.4
273.425	131.41
273.64	14.68
273.856	78.16
274.072	43.35
274.287	-71.34
274.503	39.25
274.719	33.11
274.934	-9.9
275.15	-3.75
275.366	53.59
275.581	-18.09
275.797	53.59
276.012	43.35
276.228	31.06
276.444	37.2
276.659	69.97
276.875	-1.71
277.09	92.5
277.306	65.88
277.521	45.4
277.737	-32.43
277.952	86.36
278.168	0.34
278.383	-11.95
278.599	39.25
278.814	88.4
279.03	76.12
279.245	80.21
279.461	24.92
279.676	51.54
279.892	31.06
280.107	16.73
280.322	-57
280.538	-18.09
280.753	63.83
280.969	51.54
281.184	67.92
281.399	47.44
281.615	69.97
281.83	57.68
282.045	-34.47
282.26	20.82
282.476	47.44
282.691	49.49
282.906	26.96
283.122	10.58
283.337	88.4
283.552	-16.04
283.767	29.01
283.983	78.16
284.198	-57
284.413	33.11
284.628	-65.19
284.843	-34.47
285.058	18.77
285.274	47.44
285.489	-28.33
285.704	106.84
285.919	41.3
286.134	94.55
286.349	49.49
286.564	41.3
286.779	108.88
286.995	-16.04
287.21	-85.67
287.425	74.07
287.64	24.92
287.855	-1.71
288.07	-7.85
288.285	18.77
288.5	65.88
288.715	29.01
288.93	-30.38
289.145	-30.38
289.36	78.16
289.575	43.35
289.79	-22.19
290.004	20.82
290.219	61.78
290.434	63.83
290.649	39.25
290.864	82.26
291.079	-18.09
291.294	-30.38
291.509	-26.28
291.724	-1.71
291.938	22.87
292.153	65.88
292.368	26.96
292.583	37.2
292.798	80.21
293.012	-9.9
293.227	31.06
293.442	31.06
293.657	82.26
293.871	37.2
294.086	63.83
294.301	117.08
294.516	74.07
294.73	92.5
294.945	-11.95
295.16	-1.71
295.374	16.73
295.589	74.07
295.804	-26.28
296.018	24.92
296.233	55.64
296.447	-11.95
296.662	18.77
296.877	94.55
297.091	4.44
297.306	49.49
297.52	49.49
297.735	110.93
297.949	-38.57
298.164	37.2
298.378	2.39
298.593	26.96
298.807	-34.47
299.022	78.16
299.236	-30.38
299.451	20.82
299.665	2.39
299.88	12.63
300.094	37.2
300.309	100.69
300.523	-18.09
300.737	-7.85
300.952	67.92
301.166	61.78
301.381	8.53
301.595	-7.85
301.809	63.83
302.024	39.25
302.238	-40.62
302.452	45.4
302.667	53.59
302.881	24.92
303.095	0.34
303.309	6.49
303.524	-1.71
303.738	65.88
303.952	16.73
304.166	6.49
304.381	-1.71
304.595	39.25
304.809	10.58
305.023	-3.75
305.237	63.83
305.452	39.25
305.666	-48.81
305.88	29.01
306.094	63.83
306.308	-7.85
306.522	16.73
306.736	-28.33
306.95	12.63
307.164	55.64
307.379	53.59
307.593	65.88
307.807	86.36
308.021	96.6
308.235	51.54
308.449	98.64
308.663	16.73
308.877	26.96
309.091	12.63
309.305	82.26
309.519	-26.28
309.733	94.55
309.947	-34.47
310.161	135.51
310.374	67.92
310.588	-3.75
310.802	-1.71
311.016	43.35
311.23	33.11
311.444	12.63
311.658	55.64
311.872	10.58
312.085	55.64
312.299	61.78
312.513	8.53
312.727	-22.19
312.941	-20.14
313.154	29.01
313.368	-11.95
313.582	29.01
313.796	37.2
314.009	35.16
314.223	20.82
314.437	41.3
314.651	-20.14
314.864	22.87
315.078	69.97
315.292	-13.99
315.505	-81.58
315.719	29.01
315.933	86.36
316.146	-24.23
316.36	-18.09
316.573	-28.33
316.787	-42.67
317.001	10.58
317.214	33.11
317.428	33.11
317.641	33.11
317.855	33.11
318.068	37.2
318.282	55.64
318.495	31.06
318.709	-52.91
318.922	39.25
319.136	84.31
319.349	37.2
319.563	67.92
319.776	-5.8
319.99	-46.76
320.203	-16.04
320.417	14.68
320.63	100.69
320.843	88.4
321.057	33.11
321.27	4.44
321.483	33.11
321.697	41.3
321.91	31.06
322.124	49.49
322.337	2.39
322.55	39.25
322.763	33.11
322.977	8.53
323.19	-13.99
323.403	-13.99
323.617	-11.95
323.83	-13.99
324.043	-46.76
324.256	78.16
324.469	33.11
324.683	69.97
324.896	82.26
325.109	-20.14
325.322	43.35
325.535	47.44
325.748	61.78
325.962	14.68
326.175	-57
326.388	37.2
326.601	90.45
326.814	45.4
327.027	49.49
327.24	102.74
327.453	-3.75
327.666	57.68
327.879	-1.71
328.092	41.3
328.305	131.41
328.518	-18.09
328.731	-11.95
328.944	59.73
329.157	96.6
329.37	-5.8
329.583	78.16
329.796	-1.71
330.009	-59.05
330.222	-9.9
330.435	41.3
330.648	-50.86
330.861	72.02
331.073	29.01
331.286	-9.9
331.499	59.73
331.712	14.68
331.925	82.26
332.138	24.92
332.35	115.03
332.563	29.01
332.776	115.03
332.989	51.54
333.202	55.64
333.414	33.11
333.627	-40.62
333.84	12.63
334.053	14.68
334.265	20.82
334.478	-1.71
334.691	35.16
334.903	2.39
335.116	-7.85
335.329	31.06
335.541	108.88
335.754	43.35
335.966	37.2
336.179	49.49
336.392	45.4
336.604	65.88
336.817	88.4
337.029	47.44
337.242	-32.43
337.454	10.58
337.667	57.68
337.88	49.49
338.092	57.68
338.305	41.3
338.517	24.92
338.729	35.16
338.942	29.01
339.154	-11.95
339.367	-38.57
339.579	-40.62
339.792	-44.71
340.004	110.93
340.217	-24.23
340.429	22.87
340.641	43.35
340.854	-59.05
341.066	33.11
341.278	69.97
341.491	88.4
341.703	63.83
341.915	61.78
342.128	96.6
342.34	-34.47
342.552	63.83
342.764	98.64
342.977	78.16
343.189	26.96
343.401	-28.33
343.613	-20.14
343.826	45.4
344.038	-3.75
344.25	43.35
344.462	10.58
344.674	53.59
344.886	94.55
345.099	33.11
345.311	53.59
345.523	53.59
345.735	-69.29
345.947	80.21
346.159	18.77
346.371	37.2
346.583	4.44
346.795	43.35
347.007	-42.67
347.219	49.49
347.431	47.44
347.643	69.97
347.855	31.06
348.067	37.2
348.279	98.64
348.491	41.3
348.703	26.96
348.915	0.34
349.127	10.58
349.339	24.92
349.551	-42.67
349.763	88.4
349.975	4.44
350.187	20.82
350.399	29.01
350.61	82.26
350.822	31.06
351.034	-7.85
351.246	0.34
351.458	29.01
351.669	41.3
351.881	24.92
352.093	45.4
352.305	-11.95
352.517	-38.57
352.728	47.44
352.94	39.25
353.152	-5.8
353.363	47.44
353.575	20.82
353.787	61.78
353.999	72.02
354.21	65.88
354.422	-16.04
354.633	2.39
354.845	-16.04
355.057	31.06
355.268	-9.9
355.48	96.6
355.692	-24.23
355.903	26.96
356.115	8.53
356.326	-5.8
356.538	31.06
356.749	74.07
356.961	37.2
357.172	-61.1
357.384	43.35
357.595	100.69
357.807	-48.81
358.018	0.34
358.23	14.68
358.441	155.99
358.653	-3.75
358.864	29.01
359.075	35.16
359.287	-20.14
359.498	31.06
359.709	-1.71
359.921	-24.23
360.132	26.96
360.344	-26.28
360.555	37.2
360.766	96.6
360.977	69.97
361.189	65.88
361.4	41.3
361.611	67.92
361.823	-32.43
362.034	53.59
362.245	8.53
362.456	24.92
362.667	67.92
362.879	35.16
363.09	-34.47
363.301	-5.8
363.512	51.54
363.723	29.01
363.935	-50.86
364.146	72.02
364.357	0.34
364.568	31.06
364.779	-36.52
364.99	0.34
365.201	67.92
365.412	115.03
365.623	14.68
365.834	57.68
366.045	78.16
366.256	47.44
366.467	16.73
366.678	8.53
366.889	16.73
367.1	-26.28
367.311	82.26
367.522	-40.62
367.733	88.4
367.944	69.97
368.155	55.64
368.366	57.68
368.577	98.64
368.788	-5.8
368.999	43.35
369.209	24.92
369.42	24.92
369.631	151.89
369.842	82.26
370.053	53.59
370.264	24.92
370.474	82.26
370.685	84.31
370.896	117.08
371.107	88.4
371.317	98.64
371.528	-32.43
371.739	49.49
371.95	-26.28
372.16	82.26
372.371	49.49
372.582	-114.34
372.792	65.88
373.003	49.49
373.214	24.92
373.424	37.2
373.635	53.59
373.846	41.3
374.056	8.53
374.267	51.54
374.477	127.32
374.688	-11.95
374.898	33.11
375.109	-18.09
375.319	65.88
375.53	45.4
375.74	65.88
375.951	-1.71
376.161	10.58
376.372	-16.04
376.582	39.25
376.793	24.92
377.003	55.64
377.214	76.12
377.424	100.69
377.635	-48.81
377.845	39.25
378.055	61.78
378.266	16.73
378.476	14.68
378.686	47.44
378.897	53.59
379.107	55.64
379.317	16.73
379.528	16.73
379.738	63.83
379.948	-11.95
380.158	16.73
380.369	4.44
380.579	33.11
380.789	106.84
380.999	39.25
381.21	33.11
381.42	106.84
381.63	16.73
381.84	49.49
382.05	2.39
382.261	41.3
382.471	90.45
382.681	-24.23
382.891	6.49
383.101	61.78
383.311	-9.9
383.521	78.16
383.731	57.68
383.941	59.73
384.151	110.93
384.361	2.39
384.571	102.74
384.781	4.44
384.991	39.25
385.201	57.68
385.411	65.88
385.621	24.92
385.831	76.12
386.041	84.31
386.251	57.68
386.461	88.4
386.671	16.73
386.881	59.73
387.091	10.58
387.301	0.34
387.511	-40.62
387.72	69.97
387.93	61.78
388.14	57.68
388.35	41.3
388.56	82.26
388.769	-5.8
388.979	0.34
389.189	61.78
389.399	80.21
389.609	55.64
389.818	98.64
390.028	53.59
390.238	-11.95
390.447	92.5
390.657	31.06
390.867	63.83
391.076	49.49
391.286	108.88
391.496	57.68
391.705	29.01
391.915	90.45
392.125	26.96
392.334	57.68
392.544	90.45
392.753	96.6
392.963	96.6
393.172	49.49
393.382	8.53
393.591	63.83
393.801	74.07
394.01	174.42
394.22	123.22
394.429	45.4
394.639	47.44
394.848	4.44
395.058	33.11
395.267	43.35
395.477	92.5
395.686	78.16
395.895	104.79
396.105	24.92
396.314	31.06
396.524	-1.71
396.733	45.4
396.942	86.36
397.152	115.03
397.361	90.45
397.57	96.6
397.78	61.78
397.989	82.26
398.198	59.73
398.407	74.07
398.617	57.68
398.826	110.93
399.035	100.69
399.244	22.87
399.453	69.97
399.663	90.45
399.872	98.64
400.081	55.64
400.29	100.69
400.499	72.02
400.708	125.27
400.917	129.36
401.127	88.4
401.336	51.54
401.545	76.12
401.754	96.6
401.963	145.75
402.172	41.3
402.381	147.8
402.59	137.56
402.799	35.16
403.008	170.32
403.217	108.88
403.426	98.64
403.635	35.16
403.844	158.03
404.053	106.84
404.262	74.07
404.471	180.56
404.68	106.84
404.888	119.12
405.097	110.93
405.306	174.42
405.515	110.93
405.724	108.88
405.933	137.56
406.142	135.51
406.35	98.64
406.559	84.31
406.768	119.12
406.977	119.12
407.185	188.75
407.394	180.56
407.603	221.52
407.812	203.09
408.02	176.47
408.229	145.75
408.438	119.12
408.646	110.93
408.855	188.75
409.064	194.9
409.272	237.91
409.481	231.76
409.69	285.01
409.898	225.62
410.107	205.14
410.315	299.34
410.524	262.48
410.733	285.01
410.941	258.39
411.15	354.64
411.358	299.34
411.567	319.82
411.775	393.55
411.984	332.11
412.192	373.07
412.401	295.25
412.609	405.84
412.818	313.68
413.026	328.02
413.234	424.27
413.443	334.16
413.651	416.08
413.86	426.32
414.068	508.24
414.276	487.76
414.485	475.47
414.693	545.1
414.901	604.49
415.11	506.19
415.318	573.77
415.526	536.91
415.734	610.64
415.943	618.83
416.151	665.93
416.359	620.88
416.567	692.55
416.776	686.41
416.984	821.58
417.192	725.32
417.4	686.41
417.608	803.15
417.817	772.43
418.025	809.29
418.233	907.59
418.441	782.67
418.649	893.26
418.857	1093.96
419.065	1024.33
419.273	964.93
419.481	1034.57
419.689	1126.72
419.897	1122.63
420.105	1210.69
420.313	1233.22
420.521	1290.56
420.729	1339.71
420.937	1368.38
421.145	1284.42
421.353	1433.92
421.561	1491.26
421.769	1562.94
421.977	1515.84
422.185	1571.13
422.393	1687.87
422.601	1765.69
422.809	1687.87
423.017	1890.62
423.224	1855.8
423.432	1925.43
423.64	1921.34
423.848	2081.08
424.056	2031.93
424.263	2095.41
424.471	2240.82
424.679	2296.11
424.887	2287.92
425.094	2375.99
425.302	2281.78
425.51	2488.62
425.718	2529.58
425.925	2621.74
426.133	2672.94
426.341	2826.54
426.548	2939.18
426.756	3033.38
426.964	2976.04
427.171	3291.43
427.379	3408.16
427.586	3273
427.794	3350.82
428.001	3637.53
428.209	3688.73
428.417	3801.37
428.624	3957.02
428.832	4075.8
429.039	4010.26
429.247	4020.5
429.454	4202.77
429.662	4538.64
429.869	4534.54
430.076	4602.13
430.284	4495.63
430.491	4643.09
430.699	4991.24
430.906	5015.82
431.114	4954.38
431.321	5224.71
431.528	5329.16
431.736	5634.3
431.943	5953.79
432.15	5642.5
432.358	5835
432.565	6056.18
432.772	6136.06
432.979	6410.48
433.187	6433.01
433.394	6480.11
433.601	7006.44
433.808	7084.27
434.016	6998.25
434.223	7135.46
434.43	7616.74
434.637	7659.74
434.844	7874.78
435.052	7833.82
435.259	8126.68
435.466	8241.37
435.673	8177.88
435.88	8601.81
436.087	9230.54
436.294	8949.96
436.501	8808.65
436.708	8956.11
436.915	9228.49
437.122	9763.01
437.329	9722.05
437.537	10039.48
437.743	10299.58
437.95	10031.29
438.157	10715.31
438.364	11092.14
438.571	11092.14
438.778	11116.72
438.985	11970.72
439.192	11704.48
439.399	12011.68
439.606	11896.99
439.813	12302.49
440.02	13078.67
440.227	13029.52
440.433	12712.08
440.64	13422.73
440.847	13082.77
441.054	13541.51
441.261	14260.35
441.467	13916.29
441.674	14233.72
441.881	14844.02
442.088	14796.92
442.294	14579.83
442.501	15198.32
442.708	15290.48
442.914	15943.78
443.121	16791.64
443.328	16388.19
443.534	17541.19
443.741	16941.14
443.948	16676.95
444.154	17965.12
444.361	18010.18
444.568	17700.94
444.774	17739.85
444.981	18090.05
445.187	18686.01
445.394	19335.21
445.6	19036.21
445.807	20908.05
446.013	20215.84
446.22	20441.12
446.426	21200.91
446.633	21391.37
446.839	22108.16
447.046	20846.62
447.252	22329.34
447.459	22448.13
447.665	22075.4
447.871	23103.48
448.078	24094.69
448.284	23138.29
448.491	23832.55
448.697	24842.2
448.903	24862.68
449.11	24872.92
449.316	24741.85
449.522	25001.94
449.728	25462.74
449.935	25862.09
450.141	25700.3
450.347	26314.69
450.553	25577.42
450.76	25741.26
450.966	26462.15
451.172	26353.6
451.378	26875.84
451.584	26453.95
451.791	26902.46
451.997	26777.53
452.203	27449.27
452.409	27137.98
452.615	27258.81
452.821	26054.6
453.027	25751.5
453.233	27058.1
453.44	25999.3
453.646	26468.29
453.852	26445.76
454.058	26724.29
454.264	25995.21
454.47	26273.73
454.676	25999.3
454.882	26599.36
455.088	24389.6
455.294	24768.48
455.5	24768.48
455.705	25370.58
455.911	24375.27
456.117	23762.92
456.323	23517.17
456.529	22067.2
456.735	23111.67
456.941	22542.33
457.147	21999.62
457.352	21633.04
457.558	21264.4
457.764	21317.65
457.97	21098.52
458.176	20373.53
458.381	20283.42
458.587	19261.49
458.793	19238.96
458.999	18270.27
459.204	19544.11
459.41	19068.98
459.616	18028.61
459.821	17850.44
460.027	17666.12
460.233	17236.05
460.438	16513.11
460.644	16615.51
460.85	15736.93
461.055	15681.64
461.261	15628.39
461.466	14340.22
461.672	14084.22
461.878	15128.69
462.083	14418.04
462.289	13738.12
462.494	13883.52
462.7	13248.65
462.905	12914.83
463.111	13191.31
463.316	13297.8
463.522	12916.88
463.727	12914.83
463.932	12963.98
464.138	12851.35
464.343	12884.11
464.549	12531.86
464.754	13041.81
464.959	12949.65
465.165	12914.83
465.37	12230.81
465.575	11915.42
465.781	12159.13
465.986	12394.65
466.191	12150.94
466.397	11856.03
466.602	11206.83
466.807	11776.16
467.012	11690.15
467.218	11579.56
467.423	11280.55
467.628	11421.86
467.833	11972.77
468.038	11323.56
468.244	11143.34
468.449	11729.06
468.654	11186.35
468.859	11067.56
469.064	11090.09
469.269	10844.34
469.474	10633.4
469.679	11190.44
469.885	10692.79
470.09	10813.62
470.295	10549.43
470.5	10432.69
470.705	10483.89
470.91	10111.16
471.115	10115.26
471.32	10281.14
471.525	10305.72
471.73	9871.55
471.935	10041.53
472.139	9529.54
472.344	9668.8
472.549	9525.44
472.754	9421
472.959	9365.7
473.164	9294.02
473.369	9246.92
473.574	9621.7
473.778	9232.58
473.983	9179.34
474.188	9179.34
474.393	8757.46
474.598	8769.74
474.802	8569.04
475.007	8679.63
475.212	8751.31
475.417	8417.49
475.621	8376.53
475.826	8382.68
476.031	8284.37
476.235	8005.85
476.44	8323.29
476.645	8003.8
476.849	7981.28
477.054	7954.65
477.259	7905.5
477.463	7887.07
477.668	7776.48
477.872	7712.99
478.077	7551.2
478.282	7534.82
478.486	7151.85
478.691	7332.07
478.895	7309.54
479.1	7336.17
479.304	7289.06
479.509	7033.07
479.713	7172.33
479.918	7055.59
480.122	7045.35
480.326	7016.68
480.531	7143.66
480.735	7110.89
480.94	6887.66
481.144	7186.66
481.348	6881.52
481.553	6969.58
481.757	6865.13
481.961	6867.18
482.166	6914.28
482.37	6818.03
482.574	6766.83
482.778	6848.75
482.983	6945
483.187	6840.56
483.391	7026.92
483.595	6713.58
483.8	6623.47
484.004	6736.11
484.208	7069.93
484.412	6865.13
484.616	6926.57
484.821	6789.36
485.025	6875.37
485.229	6752.49
485.433	6711.53
485.637	6672.62
485.841	6877.42
486.045	6795.5
486.249	6717.68
486.453	6854.89
486.657	6811.89
486.861	6926.57
487.065	6617.33
487.269	6637.81
487.473	6478.07
487.677	6779.12
487.881	6942.96
488.085	6775.02
488.289	6848.75
488.493	6777.07
488.697	6822.13
488.901	6684.91
489.105	6766.83
489.309	6953.2
489.512	7010.54
489.716	6969.58
489.92	6783.21
490.124	6791.41
490.328	7188.71
490.531	7014.63
490.735	7119.08
490.939	7074.03
491.143	6996.2
491.346	6973.67
491.55	7157.99
491.754	7114.98
491.958	7250.15
492.161	7127.27
492.365	7141.61
492.569	7377.12
492.772	7239.91
492.976	7356.65
493.18	7274.73
493.383	7514.34
493.587	7477.48
493.79	7590.11
493.994	7387.36
494.197	7577.83
494.401	7641.31
494.605	7786.72
494.808	7891.16
495.012	7745.76
495.215	7633.12
495.419	7981.28
495.622	7837.92
495.825	8065.24
496.029	7979.23
496.232	8063.19
496.436	8009.95
496.639	8487.12
496.843	8192.22
497.046	8483.03
497.249	8532.18
497.453	8564.95
497.656	8540.37
497.859	8653.01
498.063	8868.05
498.266	9175.24
498.469	9167.05
498.673	9060.56
498.876	9322.7
499.079	9283.78
499.282	9392.33
499.485	9550.02
499.689	9525.44
499.892	9533.64
500.095	9654.47
500.298	9965.76
500.501	9750.72
500.705	10217.66
500.908	10260.66
501.111	10346.68
501.314	10334.39
501.517	10606.77
501.72	10856.62
501.923	10862.77
502.126	10860.72
502.329	11182.25
502.532	11268.27
502.735	11212.97
502.938	11581.6
503.141	11661.48
503.344	11583.65
503.547	11888.8
503.75	12112.03
503.953	12279.96
504.156	12460.18
504.359	12322.97
504.562	12163.23
504.765	12548.25
504.968	12556.44
505.17	12701.84
505.373	12759.19
505.576	13070.48
505.779	13056.14
505.982	13277.32
506.185	13525.13
506.387	13725.83
506.59	13815.94
506.793	14127.23
506.996	14030.98
507.198	14428.28
507.401	14573.69
507.604	14612.6
507.807	14852.21
508.009	15036.53
508.212	15052.91
508.415	14852.21
508.617	15566.95
508.82	15159.41
509.022	15333.48
509.225	15874.15
509.428	16007.27
509.63	16162.91
509.833	16205.92
510.035	16736.34
510.238	16502.87
510.44	16652.38
510.643	16949.33
510.845	16973.91
511.048	16969.81
511.25	17213.52
511.453	17096.78
511.655	18092.1
511.858	18057.28
512.06	17991.75
512.262	18223.17
512.465	18118.72
512.667	18591.8
512.87	18681.91
513.072	18888.76
513.274	18997.3
513.477	19198
513.679	19609.64
513.881	19738.66
514.084	19933.22
514.286	19902.5
514.488	20119.59
514.69	20373.53
514.893	20920.34
515.095	20523.04
515.297	21114.9
515.499	20893.72
515.701	21467.15
515.904	21475.34
516.106	21934.09
516.308	22237.19
516.51	22198.27
516.712	21794.82
516.914	22480.89
517.116	22804.47
517.318	22738.94
517.52	22798.33
517.722	23185.4
517.925	23484.4
518.127	23617.52
518.329	24063.97
518.531	23793.64
518.733	24272.87
518.935	24369.12
519.136	24547.29
519.338	24917.98
519.54	24791
519.742	25231.32
519.944	25589.71
520.146	25987.02
520.348	25931.72
520.55	26005.45
520.752	26142.66
520.954	26648.51
521.155	26437.57
521.357	26961.85
521.559	27223.99
521.761	27625.39
521.963	27375.54
522.164	27459.51
522.366	27756.46
522.568	28147.62
522.77	28344.23
522.971	28626.85
523.173	28497.83
523.375	28510.11
523.576	28600.22
523.778	28800.93
523.98	29284.25
524.181	29300.63
524.383	29515.67
524.584	29757.33
524.786	30048.14
524.988	29517.71
525.189	30003.08
525.391	30535.56
525.592	30242.7
525.794	30738.3
525.995	30844.8
526.197	30566.27
526.398	30732.16
526.6	31315.83
526.801	31326.07
527.003	31596.4
527.204	31338.36
527.406	31696.75
527.607	32040.81
527.808	32018.28
528.01	31231.86
528.211	31819.63
528.412	32450.41
528.614	32196.46
528.815	31879.02
529.016	32536.42
529.218	32425.83
529.419	32481.13
529.62	32804.7
529.822	32694.11
530.023	32751.46
530.224	33206.11
530.425	32812.9
530.626	32749.41
530.828	32544.61
531.029	33431.38
531.23	33060.7
531.431	32769.89
531.632	33089.37
531.833	33236.83
532.035	33285.98
532.236	33601.36
532.437	33609.56
532.638	33312.6
532.839	33505.11
533.04	33453.91
533.241	33236.83
533.442	34096.97
533.643	33662.8
533.844	33691.48
534.045	33793.87
534.246	33320.79
534.447	33738.58
534.648	33732.43
534.849	33632.08
535.05	33361.75
535.251	33480.53
535.451	33394.52
535.652	33963.86
535.853	33908.56
536.054	33599.32
536.255	34010.96
536.456	33935.18
536.657	34182.99
536.857	33386.33
537.058	33769.3
537.259	34142.03
537.46	33818.45
537.66	34017.1
537.861	34090.83
538.062	33820.5
538.263	33746.77
538.463	33656.66
538.664	33922.9
538.865	33861.46
539.065	34322.25
539.266	33523.54
539.466	34506.57
539.667	33326.94
539.868	34271.05
540.068	33779.54
540.269	33840.98
540.469	33900.37
540.67	33771.35
540.87	33650.52
541.071	33851.22
541.271	33849.17
541.472	33783.63
541.672	33978.19
541.873	34023.25
542.073	33421.14
542.274	34279.24
542.474	33814.35
542.675	33591.12
542.875	34088.78
543.075	33843.02
543.276	33288.03
543.476	34203.47
543.676	33781.59
543.877	33566.55
544.077	33920.85
544.277	33511.25
544.478	33707.86
544.678	33845.07
544.878	33519.45
545.078	33816.4
545.279	33627.99
545.479	33302.36
545.679	33562.45
545.879	33752.91
546.079	33572.69
546.28	33699.67
546.48	33533.78
546.68	33580.88
546.88	33834.83
547.08	33451.86
547.28	33376.09
547.48	33531.73
547.68	33539.93
547.88	33085.28
548.081	33709.91
548.281	33527.64
548.481	33089.37
548.681	33490.77
548.881	33595.22
549.081	33486.68
549.28	33255.26
549.48	33523.54
549.68	33492.82
549.88	33959.76
550.08	33054.56
550.28	33773.39
550.48	33304.41
550.68	33208.15
550.88	33429.34
551.08	33443.67
551.279	33648.47
551.479	33064.8
551.679	33242.97
551.879	33163.1
552.079	33607.51
552.278	33251.16
552.478	33075.04
552.678	33240.92
552.878	33429.34
553.077	32876.38
553.277	33138.52
553.477	33539.93
553.676	33288.03
553.876	33277.79
554.076	32991.07
554.275	33453.91
554.475	32868.19
554.674	32849.76
554.874	32767.84
555.074	32845.66
555.273	33124.19
555.473	33220.44
555.672	33175.39
555.872	32894.82
556.071	33437.53
556.271	32782.18
556.47	32864.1
556.67	32589.67
556.869	32669.54
557.068	32706.4
557.268	32640.87
557.467	32610.15
557.667	32636.77
557.866	32558.95
558.065	32112.49
558.265	32360.3
558.464	32460.65
558.663	32763.75
558.863	32261.99
559.062	32610.15
559.261	32102.25
559.461	32155.5
559.66	31983.47
559.859	32468.84
560.058	31948.65
560.258	32272.23
560.457	31580.02
560.656	32225.13
560.855	31704.95
561.054	31879.02
561.253	31901.55
561.453	31891.31
561.652	31858.54
561.851	31754.1
562.05	31448.95
562.249	31274.87
562.448	31467.38
562.647	31416.18
562.846	31338.36
563.045	31448.95
563.244	31231.86
563.443	31723.38
563.642	30920.57
563.841	31233.91
564.04	30764.93
564.239	30830.46
564.438	30951.29
564.637	31090.55
564.836	31250.3
565.035	30689.15
565.234	30451.59
565.432	30740.35
565.631	30349.19
565.83	30766.98
566.029	30502.79
566.228	30470.02
566.427	30275.46
566.625	30240.65
566.824	29771.66
567.023	29962.12
567.222	29573.01
567.42	30300.04
567.619	29994.89
567.818	29720.46
568.016	29636.5
568.215	30087.05
568.414	29585.3
568.612	29984.65
568.811	29646.74
569.01	29405.08
569.208	28788.64
569.407	29357.97
569.605	28958.62
569.804	29409.17
570.002	28927.9
570.201	29278.1
570.4	29040.54
570.598	28751.77
570.797	28583.84
570.995	28315.56
571.193	28358.56
571.392	28954.52
571.59	28264.36
571.789	28647.33
571.987	28506.02
572.186	28467.11
572.384	28008.36
572.582	27908.01
572.781	28094.38
572.979	27887.53
573.177	28059.56
573.376	28219.3
573.574	27852.72
573.772	27647.92
573.971	27596.72
574.169	27510.71
574.367	27600.82
574.565	27719.6
574.763	27275.19
574.962	27375.54
575.16	26984.38
575.358	27207.61
575.556	26941.37
575.754	27209.65
575.952	26785.72
576.151	27088.82
576.349	26736.57
576.547	26773.44
576.745	26785.72
576.943	26994.62
577.141	26505.15
577.339	26613.7
577.537	26255.3
577.735	26150.85
577.933	26257.35
578.131	26429.38
578.329	26109.89
578.527	25909.19
578.725	25919.43
578.923	26224.58
579.121	25991.11
579.319	25726.92
579.516	25958.35
579.714	25966.54
579.912	25788.36
580.11	25722.83
580.308	25798.6
580.506	25468.88
580.704	25145.3
580.901	25528.27
581.099	25636.81
581.297	25139.16
581.495	25026.52
581.692	25415.63
581.89	24975.32
582.088	25169.88
582.285	25106.39
582.483	25044.95
582.681	24725.47
582.878	25223.12
583.076	24281.06
583.274	24856.54
583.471	24410.08
583.669	24514.53
583.866	24299.49
584.064	24397.79
584.262	24154.08
584.459	24416.22
584.657	23883.75
584.854	24248.29
585.052	23590.89
585.249	24285.15
585.447	23906.28
585.644	23850.99
585.841	23656.43
586.039	24188.9
586.236	23498.73
586.434	23574.51
586.631	23752.68
586.828	23468.02
587.026	23713.77
587.223	23427.06
587.42	23130.1
587.618	23134.2
587.815	23158.77
588.012	22976.5
588.21	23212.02
588.407	23109.62
588.604	23052.28
588.801	22839.29
588.999	22923.26
589.196	22704.12
589.393	22564.86
589.59	22669.31
589.787	22734.84
589.984	22484.99
590.182	22202.37
590.379	22634.49
590.576	22245.38
590.773	22272
590.97	21927.94
591.167	22106.12
591.364	21823.5
591.561	22028.29
591.758	21762.06
591.955	21817.35
592.152	21735.43
592.349	21872.65
592.546	21745.67
592.743	21688.33
592.94	21422.09
593.137	21712.91
593.334	21575.69
593.531	21303.31
593.727	21381.14
593.924	21286.93
594.121	20959.25
594.318	21467.15
594.515	21235.73
594.712	21243.92
594.908	20936.73
595.105	20955.16
595.302	20887.57
595.499	20764.7
595.696	20709.4
595.892	20400.16
596.089	20551.71
596.286	20709.4
596.482	20273.18
596.679	20555.8
596.876	20527.13
597.072	20232.22
597.269	19949.6
597.466	20191.27
597.662	20121.63
597.859	20127.78
598.055	20283.42
598.252	19996.71
598.448	20236.32
598.645	20066.34
598.841	19527.72
599.038	19722.28
599.234	19947.56
599.431	19648.55
599.627	19834.92
599.824	19732.52
600.02	19208.24
600.217	19415.09
600.413	19431.47
600.609	19331.12
600.806	19384.37
601.002	19005.49
601.198	19091.51
601.395	19048.5
601.591	19107.89
601.787	19146.8
601.984	18892.85
602.18	18993.2
602.376	18874.42
602.572	18536.51
602.769	18903.09
602.965	18483.26
603.161	18501.69
603.357	18450.49
603.553	18249.79
603.75	18577.47
603.946	18270.27
604.142	18569.27
604.338	18307.13
604.534	18348.09
604.73	18151.49
604.926	17952.84
605.122	18255.93
605.318	18004.03
605.514	17807.43
605.71	17823.81
605.906	17563.72
606.102	17870.92
606.298	17688.65
606.494	17694.79
606.69	17983.55
606.886	17623.11
607.082	17299.53
607.278	17743.94
607.474	17399.88
607.67	17549.39
607.866	17197.13
608.062	17340.49
608.257	17207.37
608.453	17496.14
608.649	17428.56
608.845	17111.12
609.041	17416.27
609.236	17156.18
609.432	17098.83
609.628	17219.66
609.824	17168.46
610.019	16844.88
610.215	16902.23
610.411	16875.6
610.606	17014.87
610.802	16994.39
610.998	16873.56
611.193	16715.86
611.389	16599.13
611.584	16414.81
611.78	16621.66
611.976	16724.05
612.171	16695.38
612.367	16640.09
612.562	16517.21
612.758	16314.46
612.953	16511.07
613.149	16363.61
613.344	16281.69
613.539	16539.74
613.735	16597.08
613.93	16615.51
614.126	16072.8
614.321	16533.59
614.517	16042.08
614.712	15982.69
614.907	16105.57
615.103	16171.1
615.298	16132.19
615.493	16183.39
615.688	16105.57
615.884	16238.69
616.079	15882.34
616.274	16101.47
616.47	15859.81
616.665	15779.94
616.86	15923.3
617.055	15835.24
617.25	15575.14
617.445	15796.32
617.641	15591.53
617.836	15960.16
618.031	15603.82
618.226	15769.7
618.421	15556.71
618.616	15759.46
618.811	15429.74
619.006	15313
619.201	15097.97
619.396	15130.73
619.591	15034.48
619.786	15282.28
619.981	14983.28
620.176	15104.11
620.371	14774.39
620.566	14975.09
620.761	14839.92
620.956	14733.43
621.151	14538.87
621.346	14596.21
621.541	14391.42
621.735	14696.57
621.93	14487.67
622.125	14182.52
622.32	14069.89
622.515	14121.09
622.709	14098.56
622.904	14100.61
623.099	13922.43
623.294	14065.79
623.488	13594.76
623.683	13627.53
623.878	13611.14
624.072	13734.02
624.267	13664.39
624.462	13564.04
624.656	13482.12
624.851	13553.8
625.046	13293.71
625.24	13189.26
625.435	13170.83
625.629	13066.38
625.824	13068.43
626.018	12894.35
626.213	12875.92
626.407	12982.42
626.602	12902.54
626.796	12714.13
626.991	12548.25
627.185	12353.69
627.38	12589.21
627.574	12345.5
627.768	12388.5
627.963	12312.73
628.157	12152.99
628.352	12325.02
628.546	12034.21
628.74	12157.08
628.935	11968.67
629.129	12015.77
629.323	11729.06
629.517	11792.55
629.712	11665.57
629.906	11593.89
630.1	11559.08
630.294	11630.76
630.489	11499.69
630.683	11618.47
630.877	11247.79
631.071	11221.16
631.265	11305.13
631.459	11186.35
631.653	10995.89
631.848	11075.76
632.042	11028.65
632.236	11092.14
632.43	10815.66
632.624	10803.38
632.818	10887.34
633.012	10643.63
633.206	10502.33
633.4	10723.51
633.594	10559.67
633.788	10494.13
633.982	10426.55
634.176	10389.69
634.369	10326.2
634.563	10387.64
634.757	10297.53
634.951	10395.83
635.145	10219.71
635.339	10105.02
635.533	10184.89
635.726	10070.2
635.92	9926.85
636.114	9863.36
636.308	9781.44
636.501	9750.72
636.695	9609.41
636.889	9668.8
637.083	9601.22
637.276	9597.12
637.47	9597.12
637.664	9459.91
637.857	9408.71
638.051	9513.16
638.244	9326.79
638.438	9398.47
638.632	9259.21
638.825	9210.06
639.019	9197.77
639.212	8906.96
639.406	9078.99
639.599	9111.75
639.793	8947.92
639.986	8927.44
640.18	9130.19
640.373	8825.04
640.567	8624.34
640.76	8767.7
640.954	8618.19
641.147	8820.94
641.34	8558.8
641.534	8343.77
641.727	8450.26
641.92	8382.68
642.114	8501.46
642.307	8474.84
642.5	8298.71
642.694	8050.91
642.887	7962.84
643.08	8235.22
643.273	8028.38
643.467	8081.63
643.66	7923.93
643.853	7999.71
644.046	7956.7
644.239	7940.32
644.432	7805.15
644.626	7762.14
644.819	7796.96
645.012	7747.81
645.205	7833.82
645.398	7653.6
645.591	7477.48
645.784	7596.26
645.977	7459.04
646.17	7559.39
646.363	7428.32
646.556	7233.77
646.749	7362.79
646.942	7444.71
647.135	7282.92
647.328	7123.18
647.521	7182.57
647.714	7055.59
647.907	7176.42
648.099	7104.74
648.292	7061.74
648.485	6971.63
648.678	6846.7
648.871	6883.56
649.064	6861.04
649.256	6875.37
649.449	6912.24
649.642	6605.04
649.835	6791.41
650.027	6703.34
650.22	6615.28
650.413	6678.77
650.605	6467.83
650.798	6576.37
650.991	6408.44
651.183	6416.63
651.376	6414.58
651.568	6455.54
651.761	6303.99
651.954	6328.56
652.146	6277.37
652.339	6318.32
652.531	6086.9
652.724	6166.78
652.916	6086.9
653.109	6031.61
653.301	6217.97
653.494	6308.09
653.686	5923.07
653.879	6052.09
654.071	5992.7
654.263	6076.66
654.456	5984.51
654.648	6031.61
654.84	5830.91
655.033	5884.16
655.225	5763.33
655.417	5792
655.61	5957.88
655.802	5865.72
655.994	5697.79
656.186	5636.35
656.379	5566.72
656.571	5675.26
656.763	5409.03
656.955	5656.83
657.148	5505.28
657.34	5374.21
657.532	5429.51
657.724	5294.34
657.916	5341.44
658.108	5411.07
658.3	5366.02
658.492	5226.76
658.684	5218.57
658.876	5277.96
659.068	5038.34
659.26	5183.75
659.452	5218.57
659.644	5136.65
659.836	5251.33
660.028	5116.17
660.22	5134.6
660.412	5095.69
660.604	5081.35
660.796	4954.38
660.988	4954.38
661.18	4927.75
661.372	4917.51
661.563	4937.99
661.755	4790.54
661.947	4700.43
662.139	4847.88
662.331	4647.18
662.522	4745.48
662.714	4798.73
662.906	4815.12
663.097	4542.74
663.289	4602.13
663.481	4600.08
663.673	4598.03
663.864	4563.22
664.056	4624.65
664.247	4552.98
664.439	4616.46
664.631	4571.41
664.822	4419.86
665.014	4374.8
665.205	4401.43
665.397	4354.32
665.588	4530.45
665.78	4374.8
665.971	4397.33
666.163	4335.89
666.354	4305.17
666.546	4210.97
666.737	4294.93
666.929	4319.51
667.12	4305.17
667.311	4188.44
667.503	4051.22
667.694	4157.72
667.885	4198.68
668.077	4131.09
668.268	4018.46
668.459	4155.67
668.651	4133.14
668.842	4004.12
669.033	3977.5
669.224	4186.39
669.416	3987.74
669.607	4030.74
669.798	3903.77
669.989	3997.98
670.18	4055.32
670.371	3911.96
670.563	3827.99
670.754	3875.1
670.945	3957.02
671.136	3907.87
671.327	3907.87
671.518	3948.83
671.709	3815.71
671.9	3877.15
672.091	3864.86
672.282	3651.87
672.473	3733.79
672.664	3807.52
672.855	3666.21
673.046	3838.23
673.237	3768.6
673.428	3627.29
673.619	3684.64
673.809	3553.57
674	3617.05
674.191	3672.35
674.382	3567.9
674.573	3565.85
674.764	3639.58
674.954	3485.98
675.145	3623.2
675.336	3547.42
675.527	3586.33
675.717	3539.23
675.908	3600.67
676.099	3412.26
676.289	3436.83
676.48	3543.33
676.671	3359.01
676.861	3371.3
677.052	3469.6
677.243	3526.94
677.433	3453.22
677.624	3686.69
677.814	3492.13
678.005	3342.63
678.195	3445.02
678.386	3522.85
678.576	3406.11
678.767	3381.54
678.957	3297.57
679.148	3447.07
679.338	3442.98
679.529	3408.16
679.719	3393.83
679.909	3227.94
680.1	3318.05
680.29	3313.95
680.481	3397.92
680.671	3246.37
680.861	3346.72
681.052	3399.97
681.242	3252.52
681.432	3397.92
681.622	3303.71
681.813	3320.1
682.003	3373.35
682.193	3299.62
682.383	3238.18
682.573	3244.32
682.764	3162.41
682.954	3184.93
683.144	3260.71
683.334	3162.41
683.524	3275.04
683.714	3023.14
683.904	3131.69
684.094	3182.88
684.284	3170.6
684.474	3246.37
684.664	3141.93
684.854	3234.08
685.044	3219.75
685.234	3225.89
685.424	3227.94
685.614	3078.44
685.804	3201.32
685.994	3135.78
686.184	3060.01
686.374	3014.95
686.564	3088.68
686.753	3031.34
686.943	2976.04
687.133	3158.31
687.323	2961.7
687.513	3033.38
687.702	2949.42
687.892	2894.12
688.082	2908.46
688.272	3070.25
688.461	2951.46
688.651	3047.72
688.841	2908.46
689.03	2883.88
689.22	2881.83
689.41	2859.31
689.599	3004.71
689.789	2726.19
689.979	2763.05
690.168	2775.34
690.358	2814.25
690.547	2859.31
690.737	2804.01
690.926	2732.33
691.116	2818.35
691.305	2812.2
691.495	2832.68
691.684	2826.54
691.874	2838.83
692.063	2672.94
692.252	2791.72
692.442	2750.76
692.631	2720.04
692.82	2761
693.01	2664.75
693.199	2769.2
693.388	2660.65
693.578	2640.17
693.767	2638.13
693.956	2572.59
694.146	2640.17
694.335	2724.14
694.524	2586.93
694.713	2636.08
694.902	2597.17
695.092	2574.64
695.281	2720.04
695.47	2619.69
695.659	2593.07
695.848	2611.5
696.037	2490.67
696.226	2515.25
696.415	2449.71
696.604	2629.93
696.793	2629.93
696.982	2474.29
697.171	2580.78
697.36	2572.59
697.549	2482.48
697.738	2412.85
697.927	2672.94
698.116	2597.17
698.305	2568.49
698.494	2482.48
698.683	2486.58
698.872	2500.91
699.061	2468.14
699.25	2470.19
699.438	2548.01
699.627	2410.8
699.816	2515.25
700.005	2537.77
700.193	2505.01
700.382	2445.62
700.571	2459.95
700.76	2484.53
700.948	2545.97
701.137	2445.62
701.326	2517.29
701.514	2521.39
701.703	2466.1
701.892	2408.75
702.08	2470.19
702.269	2517.29
702.457	2427.18
702.646	2517.29
702.834	2515.25
703.023	2369.84
703.212	2480.43
703.4	2355.51
703.589	2441.52
703.777	2554.16
703.965	2441.52
704.154	2550.06
704.342	2498.86
704.531	2392.37
704.719	2388.27
704.907	2423.09
705.096	2371.89
705.284	2482.48
705.472	2466.1
705.661	2519.34
705.849	2378.03
706.037	2502.96
706.226	2322.74
706.414	2423.09
706.602	2371.89
706.79	2375.99
706.979	2545.97
707.167	2480.43
707.355	2472.24
707.543	2289.97
707.731	2474.29
707.919	2449.71
708.107	2431.28
708.296	2384.18
708.484	2359.6
708.672	2484.53
708.86	2462
709.048	2384.18
709.236	2433.33
709.424	2447.66
709.612	2416.94
709.8	2382.13
709.988	2433.33
710.176	2353.46
710.364	2371.89
710.551	2533.68
710.739	2494.77
710.927	2431.28
711.115	2474.29
711.303	2414.9
711.491	2416.94
711.679	2363.7
711.866	2337.07
712.054	2470.19
712.242	2404.66
712.43	2482.48
712.617	2433.33
712.805	2447.66
712.993	2445.62
713.181	2359.6
713.368	2416.94
713.556	2347.31
713.744	2375.99
713.931	2408.75
714.119	2373.94
714.306	2447.66
714.494	2494.77
714.682	2437.42
714.869	2378.03
715.057	2404.66
715.244	2402.61
715.432	2486.58
715.619	2464.05
715.807	2400.56
715.994	2289.97
716.182	2324.79
716.369	2437.42
716.556	2335.03
716.744	2373.94
716.931	2281.78
717.119	2308.4
717.306	2367.79
717.493	2347.31
717.681	2416.94
717.868	2443.57
718.055	2375.99
718.242	2363.7
718.43	2431.28
718.617	2482.48
718.804	2353.46
718.991	2316.59
719.179	2361.65
719.366	2361.65
719.553	2343.22
719.74	2308.4
719.927	2382.13
720.114	2394.42
720.301	2384.18
720.488	2332.98
720.676	2300.21
720.863	2425.14
721.05	2521.39
721.237	2384.18
721.424	2244.92
721.611	2335.03
721.798	2375.99
721.985	2269.49
722.172	2361.65
722.358	2369.84
722.545	2431.28
722.732	2402.61
722.919	2314.55
723.106	2255.15
723.293	2308.4
723.48	2240.82
723.667	2382.13
723.853	2195.76
724.04	2433.33
724.227	2324.79
724.414	2341.17
724.6	2363.7
724.787	2298.16
724.974	2314.55
725.161	2359.6
725.347	2179.38
725.534	2447.66
725.72	2240.82
725.907	2330.93
726.094	2373.94
726.28	2294.07
726.467	2359.6
726.653	2275.63
726.84	2210.1
727.027	2404.66
727.213	2251.06
727.4	2332.98
727.586	2173.24
727.773	2345.27
727.959	2298.16
728.145	2314.55
728.332	2199.86
728.518	2351.41
728.705	2289.97
728.891	2185.52
729.077	2394.42
729.264	2275.63
729.45	2310.45
729.636	2249.01
729.823	2210.1
730.009	2427.18
730.195	2208.05
730.382	2228.53
730.568	2353.46
730.754	2341.17
730.94	2150.71
731.126	2294.07
731.313	2179.38
731.499	2228.53
731.685	2130.23
731.871	2287.92
732.057	2208.05
732.243	2298.16
732.429	2345.27
732.615	2277.68
732.801	2171.19
732.987	2156.85
733.173	2246.96
733.359	2228.53
733.545	2222.39
733.731	2203.96
733.917	2300.21
734.103	2199.86
734.289	2294.07
734.475	2218.29
734.661	2294.07
734.847	2206
735.033	2171.19
735.219	2236.72
735.404	2216.24
735.59	2117.94
735.776	2060.6
735.962	2195.76
736.148	2144.56
736.333	2136.37
736.519	2212.15
736.705	2130.23
736.89	2058.55
737.076	2203.96
737.262	2085.17
737.447	2062.65
737.633	2062.65
737.819	2226.48
738.004	2117.94
738.19	2128.18
738.375	2052.41
738.561	2216.24
738.747	2093.37
738.932	2005.3
739.118	2230.58
739.303	2095.41
739.489	1956.15
739.674	2036.02
739.859	1954.1
740.045	2048.31
740.23	2007.35
740.416	2017.59
740.601	2015.54
740.786	1986.87
740.972	1956.15
741.157	1921.34
741.342	1958.2
741.528	2029.88
741.713	1890.62
741.898	1931.58
742.084	1958.2
742.269	1917.24
742.454	1829.18
742.639	1913.14
742.824	1945.91
743.01	1958.2
743.195	1931.58
743.38	1886.52
743.565	1964.34
743.75	1876.28
743.935	1818.94
744.12	2003.25
744.305	1931.58
744.49	1861.94
744.675	1835.32
744.86	1804.6
745.045	1782.07
745.23	1784.12
745.415	1753.4
745.6	1759.55
745.785	1759.55
745.97	1831.23
746.155	1691.96
746.34	1782.07
746.525	1712.44
746.71	1792.31
746.895	1759.55
747.079	1648.96
747.264	1739.07
747.449	1782.07
747.634	1737.02
747.819	1767.74
748.003	1653.05
748.188	1671.48
748.373	1681.72
748.557	1659.2
748.742	1605.95
748.927	1677.63
749.111	1644.86
749.296	1509.69
749.481	1648.96
749.665	1519.93
749.85	1481.02
750.034	1599.8
750.219	1530.17
750.404	1478.97
750.588	1524.03
750.773	1564.99
750.957	1521.98
751.141	1474.88
751.326	1524.03
751.51	1458.5
751.695	1347.9
751.879	1370.43
752.064	1421.63
752.248	1446.21
752.432	1364.29
752.617	1454.4
752.801	1380.67
752.985	1452.35
753.17	1401.15
753.354	1376.58
753.538	1405.25
753.722	1278.27
753.907	1345.86
754.091	1362.24
754.275	1349.95
754.459	1188.16
754.643	1214.79
754.828	1294.66
755.012	1198.4
755.196	1245.51
755.38	1280.32
755.564	1237.31
755.748	1247.55
755.932	1214.79
756.116	1265.99
756.3	1308.99
756.484	1134.92
756.668	1157.44
756.852	1169.73
757.036	1218.88
757.22	1184.07
757.404	1126.72
757.588	1081.67
757.772	1245.51
757.956	1179.97
758.14	1098.05
758.323	1161.54
758.507	1085.76
758.691	1149.25
758.875	1104.2
759.059	1179.97
759.242	1061.19
759.426	1050.95
759.61	1038.66
759.794	1050.95
759.977	1182.02
760.161	1040.71
760.345	1073.48
760.528	1110.34
760.712	983.37
760.895	1110.34
761.079	1046.85
761.263	958.79
761.446	1063.24
761.63	1032.52
761.813	1030.47
761.997	1028.42
762.18	913.74
762.364	1075.52
762.547	930.12
762.731	897.35
762.914	973.13
763.098	995.65
763.281	987.46
763.464	954.69
763.648	909.64
763.831	936.26
764.015	866.63
764.198	932.17
764.381	860.49
764.564	889.16
764.748	954.69
764.931	948.55
765.114	928.07
765.297	819.53
765.481	823.62
765.664	860.49
765.847	833.86
766.03	895.3
766.213	885.06
766.397	870.73
766.58	831.82
766.763	928.07
766.946	868.68
767.129	840.01
767.312	858.44
767.495	827.72
767.678	844.1
767.861	872.78
768.044	809.29
768.227	827.72
768.41	819.53
768.593	825.67
768.776	840.01
768.959	852.3
769.142	960.84
769.324	792.91
769.507	745.8
769.69	835.91
769.873	698.7
770.056	735.56
770.239	778.57
770.421	737.61
770.604	710.99
770.787	803.15
770.97	721.23
771.152	688.46
771.335	758.09
771.518	756.04
771.7	807.24
771.883	807.24
772.066	725.32
772.248	694.6
772.431	803.15
772.613	710.99
772.796	749.9
772.978	721.23
773.161	811.34
773.343	676.17
773.526	719.18
773.708	731.47
773.891	758.09
774.073	694.6
774.256	592.2
774.438	665.93
774.621	694.6
774.803	729.42
774.985	631.12
775.168	694.6
775.35	618.83
775.532	684.36
775.715	561.48
775.897	667.98
776.079	651.6
776.261	649.55
776.444	629.07
776.626	608.59
776.808	545.1
776.99	629.07
777.173	637.26
777.355	606.54
777.537	616.78
777.719	596.3
777.901	575.82
778.083	557.39
778.265	543.05
778.447	577.87
778.629	541.01
778.811	516.43
778.993	672.08
779.175	577.87
779.357	545.1
779.539	487.76
779.721	473.42
779.903	579.92
780.085	528.72
780.267	579.92
780.449	549.2
780.631	563.53
780.812	424.27
780.994	506.19
781.176	477.52
781.358	508.24
781.54	536.91
781.721	524.62
781.903	467.28
782.085	444.75
782.267	485.71
782.448	465.23
782.63	454.99
782.812	457.04
782.993	477.52
783.175	473.42
783.357	393.55
783.538	485.71
783.72	487.76
783.901	438.61
784.083	434.51
784.264	518.48
784.446	442.7
784.627	323.92
784.809	430.41
784.99	381.26
785.172	442.7
785.353	397.65
785.535	450.89
785.716	403.79
785.897	393.55
786.079	391.5
786.26	399.7
786.441	457.04
786.623	358.74
786.804	381.26
786.985	397.65
787.167	487.76
787.348	358.74
787.529	442.7
787.71	305.49
787.891	354.64
788.073	418.13
788.254	354.64
788.435	403.79
788.616	323.92
788.797	381.26
788.978	383.31
789.159	285.01
789.34	317.78
789.522	289.1
789.703	356.69
789.884	346.45
790.065	328.02
790.246	360.78
790.427	301.39
790.607	293.2
790.788	344.4
790.969	248.15
791.15	274.77
791.331	328.02
791.512	336.21
791.693	285.01
791.874	264.53
792.054	330.06
792.235	366.93
792.416	325.97
792.597	289.1
792.778	287.06
792.958	297.3
793.139	338.26
793.32	311.63
793.5	254.29
793.681	416.08
793.862	332.11
794.042	328.02
794.223	280.91
794.404	254.29
794.584	239.95
794.765	250.19
794.945	131.41
795.126	287.06
795.306	303.44
795.487	198.99
795.667	164.18
795.848	282.96
796.028	289.1
796.209	317.78
796.389	272.72
796.57	285.01
796.75	227.67
796.93	297.3
797.111	215.38
797.291	244.05
797.471	235.86
797.652	262.48
797.832	274.77
798.012	278.87
798.192	162.13
798.373	162.13
798.553	215.38
798.733	168.27
798.913	244.05
799.093	221.52
799.274	244.05
799.454	289.1
799.634	285.01
799.814	229.71
799.994	217.43
800.174	307.54
800.354	254.29
800.534	184.66
800.714	258.39
800.894	184.66
801.074	221.52
801.254	268.63
801.434	278.87
801.614	180.56
801.794	196.95
801.974	840.01
802.154	180.56
802.334	219.47
802.514	309.58
802.693	217.43
802.873	188.75
803.053	155.99
803.233	285.01
803.413	180.56
803.592	186.71
803.772	203.09
803.952	237.91
804.131	211.28
804.311	207.19
804.491	196.95
804.67	180.56
804.85	213.33
805.03	237.91
805.209	244.05
805.389	176.47
805.568	162.13
805.748	135.51
805.928	209.23
806.107	196.95
806.287	229.71
806.466	260.43
806.646	176.47
806.825	196.95
807.004	168.27
807.184	223.57
807.363	213.33
807.543	170.32
807.722	160.08
807.901	162.13
808.081	123.22
808.26	108.88
808.439	188.75
808.619	145.75
808.798	164.18
808.977	188.75
809.156	180.56
809.336	135.51
809.515	205.14
809.694	131.41
809.873	186.71
810.052	194.9
810.231	194.9
810.411	147.8
810.59	225.62
810.769	158.03
810.948	160.08
811.127	86.36
811.306	98.64
811.485	123.22
811.664	137.56
811.843	100.69
812.022	180.56
812.201	151.89
812.38	125.27
812.559	166.23
812.737	155.99
812.916	129.36
813.095	57.68
813.274	98.64
813.453	176.47
813.632	174.42
813.811	110.93
813.989	125.27
814.168	119.12
814.347	125.27
814.526	100.69
814.704	147.8
814.883	168.27
815.062	100.69
815.24	164.18
815.419	90.45
815.598	76.12
815.776	100.69
815.955	143.7
816.133	43.35
816.312	139.6
816.49	141.65
816.669	121.17
816.847	106.84
817.026	53.59
817.204	94.55
817.383	92.5
817.561	110.93
817.74	139.6
817.918	110.93
818.097	119.12
818.275	80.21
818.453	123.22
818.632	172.37
818.81	78.16
818.988	37.2
819.167	145.75
819.345	57.68
819.523	47.44
819.701	72.02
819.879	176.47
820.058	104.79
820.236	106.84
820.414	115.03
820.592	127.32
820.77	135.51
820.948	147.8
821.127	69.97
821.305	82.26
821.483	65.88
821.661	143.7
821.839	86.36
822.017	86.36
822.195	106.84
822.373	145.75
822.551	72.02
822.729	94.55
822.907	92.5
823.085	115.03
823.262	104.79
823.44	117.08
823.618	106.84
823.796	94.55
823.974	51.54
824.152	94.55
824.329	168.27
824.507	135.51
824.685	96.6
824.863	84.31
825.04	112.98
825.218	135.51
825.396	139.6
825.574	74.07
825.751	194.9
825.929	133.46
826.107	112.98
826.284	59.73
826.462	78.16
826.639	24.92
826.817	67.92
826.994	141.65
827.172	106.84
827.349	145.75
827.527	37.2
827.704	18.77
827.882	76.12
828.059	37.2
828.237	94.55
828.414	24.92
828.591	8.53
828.769	55.64
828.946	135.51
829.124	86.36
829.301	51.54
829.478	96.6
829.655	69.97
829.833	67.92
830.01	90.45
830.187	106.84
830.364	135.51
830.542	24.92
830.719	133.46
830.896	33.11
831.073	102.74
831.25	90.45
831.427	61.78
831.604	37.2
831.782	119.12
831.959	104.79
832.136	61.78
832.313	100.69
832.49	65.88
832.667	24.92
832.844	14.68
833.021	88.4
833.198	98.64
833.374	94.55
833.551	117.08
833.728	96.6
833.905	57.68
834.082	74.07
834.259	47.44
834.436	74.07
834.612	125.27
834.789	12.63
834.966	41.3
835.143	59.73
835.319	76.12
835.496	131.41
835.673	123.22
835.85	61.78
836.026	69.97
836.203	127.32
836.38	69.97
836.556	82.26
836.733	106.84
836.909	53.59
837.086	24.92
837.262	-11.95
837.439	90.45
837.616	78.16
837.792	78.16
837.968	-9.9
838.145	31.06
838.321	14.68
838.498	-1.71
838.674	92.5
838.851	59.73
839.027	16.73
839.203	45.4
839.38	53.59
839.556	0.34
839.732	29.01
839.909	61.78
840.085	86.36
840.261	96.6
840.437	41.3
840.614	67.92
840.79	76.12
840.966	88.4
841.142	-1.71
841.318	-48.81
841.494	57.68
841.671	4.44
841.847	35.16
842.023	115.03
842.199	39.25
842.375	-7.85
842.551	-9.9
842.727	26.96
842.903	80.21
843.079	69.97
843.255	84.31
843.431	51.54
843.607	123.22
843.783	-46.76
843.959	100.69
844.134	49.49
844.31	123.22
844.486	-1.71
844.662	74.07
844.838	127.32
845.013	47.44
845.189	88.4
845.365	16.73
845.541	117.08
845.716	45.4
845.892	18.77
846.068	18.77
846.244	-18.09
846.419	-16.04
846.595	69.97
846.77	20.82
846.946	102.74
847.122	53.59
847.297	61.78
847.473	47.44
847.648	-32.43
847.824	57.68
847.999	-16.04
848.175	59.73
848.35	-16.04
848.526	100.69
848.701	53.59
848.876	-11.95
849.052	65.88
849.227	24.92
849.403	8.53
849.578	-24.23
849.753	67.92
849.929	35.16
850.104	-34.47
850.279	8.53
850.454	24.92
850.63	22.87
850.805	106.84
850.98	96.6
851.155	41.3
851.33	8.53
851.505	-13.99
851.681	-16.04
851.856	14.68
852.031	63.83
852.206	24.92
852.381	8.53
852.556	0.34
852.731	-28.33
852.906	31.06
853.081	106.84
853.256	51.54
853.431	24.92
853.606	-11.95
853.781	47.44
853.956	41.3
854.131	35.16
854.305	41.3
854.48	-48.81
854.655	74.07
854.83	57.68
855.005	-13.99
855.18	2.39
855.354	2.39
855.529	74.07
855.704	16.73
855.879	-3.75
856.053	-11.95
856.228	37.2
856.403	8.53
856.577	-9.9
856.752	49.49
856.926	-59.05
857.101	65.88
857.276	53.59
857.45	24.92
857.625	-7.85
857.799	41.3
857.974	20.82
858.148	-48.81
858.323	45.4
858.497	37.2
858.672	33.11
858.846	-7.85
859.02	65.88
859.195	49.49
859.369	-32.43
859.543	-32.43
859.718	63.83
859.892	-3.75
860.066	-18.09
860.241	-16.04
860.415	65.88
860.589	-24.23
860.763	61.78
860.938	12.63
861.112	-32.43
861.286	-54.95
861.46	16.73
861.634	-18.09
861.808	-18.09
861.982	-5.8
862.157	63.83
862.331	65.88
862.505	0.34
862.679	49.49
862.853	-69.29
863.027	0.34
863.201	78.16
863.375	-20.14
863.549	10.58
863.722	82.26
863.896	115.03
864.07	-28.33
864.244	-7.85
864.418	-32.43
864.592	-9.9
864.766	55.64
864.939	31.06
865.113	-36.52
865.287	80.21
865.461	-38.57
865.634	-5.8
865.808	8.53
865.982	96.6
866.156	-16.04
866.329	29.01
866.503	-34.47
866.676	61.78
866.85	-1.71
867.024	41.3
867.197	-7.85
867.371	115.03
867.544	37.2
867.718	-38.57
867.891	63.83
868.065	49.49
868.238	33.11
868.412	53.59
868.585	20.82
868.759	-3.75
868.932	41.3
869.105	-7.85
869.279	12.63
869.452	-54.95
869.625	106.84
869.799	33.11
869.972	-28.33
870.145	26.96
870.319	22.87
870.492	41.3
870.665	-36.52
870.838	31.06
871.011	12.63
871.185	0.34
871.358	-13.99
871.531	-9.9
871.704	37.2
871.877	90.45
872.05	22.87
872.223	-38.57
872.396	-16.04
872.569	22.87
872.742	16.73
872.915	-3.75
873.088	-9.9
873.261	10.58
873.434	49.49
873.607	26.96
873.78	31.06
873.953	-54.95
874.126	39.25
874.299	45.4
874.471	-18.09
874.644	41.3
874.817	-7.85
874.99	90.45
875.163	-7.85
875.335	51.54
875.508	-16.04
875.681	86.36
875.853	47.44
876.026	-40.62
876.199	-1.71
876.371	16.73
876.544	61.78
876.717	94.55
876.889	-7.85
877.062	59.73
877.234	-30.38
877.407	-26.28
877.579	2.39
877.752	78.16
877.924	12.63
878.097	41.3
878.269	16.73
878.442	10.58
878.614	-26.28
878.786	8.53
878.959	26.96
879.131	-40.62
879.303	-7.85
879.476	-54.95
879.648	49.49
879.82	18.77
879.993	10.58
880.165	-65.19
880.337	4.44
880.509	90.45
880.681	-9.9
880.854	-18.09
881.026	49.49
881.198	74.07
881.37	22.87
881.542	-36.52
881.714	8.53
881.886	31.06
882.058	24.92
882.23	-24.23
882.402	-42.67
882.574	-32.43
882.746	-28.33
882.918	72.02
883.09	41.3
883.262	41.3
883.434	14.68
883.606	2.39
883.778	39.25
883.95	69.97
884.122	-3.75
884.293	-13.99
884.465	-28.33
884.637	53.59
884.809	6.49
884.98	41.3
885.152	35.16
885.324	108.88
885.496	31.06
885.667	-32.43
885.839	0.34
886.011	76.12
886.182	33.11
886.354	26.96
886.525	16.73
886.697	18.77
886.869	43.35
887.04	20.82
887.212	98.64
887.383	47.44
887.555	8.53
887.726	-5.8
887.897	43.35
888.069	-5.8
888.24	24.92
888.412	-42.67
888.583	82.26
888.754	-22.19
888.926	-67.24
889.097	10.58
889.268	-81.58
889.44	-13.99
889.611	0.34
889.782	-16.04
889.953	-16.04
890.125	41.3
890.296	-32.43
890.467	16.73
890.638	-40.62
890.809	49.49
890.98	4.44
891.151	43.35
891.323	57.68
891.494	24.92
891.665	-11.95
891.836	22.87
892.007	33.11
892.178	4.44
892.349	14.68
892.52	-13.99
892.691	-11.95
892.862	2.39
893.032	14.68
893.203	-30.38
893.374	-24.23
893.545	31.06
893.716	18.77
893.887	39.25
894.057	-18.09
894.228	2.39
894.399	22.87
894.57	8.53
894.74	-3.75
894.911	20.82
895.082	57.68
895.253	-44.71
895.423	-9.9
895.594	39.25
895.764	-9.9
895.935	-59.05
896.106	-3.75
896.276	-3.75
896.447	-32.43
896.617	4.44
896.788	-38.57
896.958	-9.9
897.129	-16.04
897.299	-65.19
897.47	-5.8
897.64	-7.85
897.81	22.87
897.981	41.3
898.151	-3.75
898.322	16.73
898.492	63.83
898.662	24.92
898.832	24.92
899.003	-16.04
899.173	12.63
899.343	59.73
899.513	-44.71
