Data from USB4F104151__110__10-24-51-487.txt Node

Date: Wed Mar 12 10:24:51 EDT 2025
User: louis
Spectrometer: USB4F10415
Trigger mode: 4
Integration Time (sec): 3.000000E-2
Scans to average: 1
Electric dark correction enabled: true
Nonlinearity correction enabled: false
Boxcar width: 0
XAxis mode: Wavelengths
Number of Pixels in Spectrum: 3648
>>>>>Begin Spectral Data<<<<<
178.204	-139.94
178.424	-139.94
178.644	-139.94
178.864	-129.7
179.084	-62.12
179.304	1.37
179.524	-23.21
179.744	5.46
179.964	-39.59
180.184	-62.12
180.404	30.04
180.624	40.28
180.844	17.75
181.064	1.37
181.283	30.04
181.503	1.37
181.723	-2.73
181.943	-60.07
182.163	66.9
182.383	-15.02
182.602	25.94
182.822	32.08
183.042	-31.4
183.262	-29.35
183.482	34.13
183.701	25.94
183.921	-15.02
184.141	7.51
184.361	38.23
184.58	38.23
184.8	30.04
185.02	25.94
185.239	36.18
185.459	48.47
185.679	9.56
185.898	30.04
186.118	77.14
186.338	34.13
186.557	-58.03
186.777	50.52
186.997	19.8
187.216	-43.69
187.436	107.86
187.655	54.61
187.875	87.38
188.095	5.46
188.314	40.28
188.534	-19.11
188.753	-2.73
188.973	-0.68
189.192	46.42
189.412	-10.92
189.631	23.89
189.851	50.52
190.07	87.38
190.29	-51.88
190.509	68.95
190.729	40.28
190.948	87.38
191.168	122.2
191.387	38.23
191.607	105.81
191.826	-2.73
192.045	42.32
192.265	66.9
192.484	13.65
192.704	73.04
192.923	46.42
193.142	77.14
193.362	-31.4
193.581	77.14
193.8	30.04
194.02	1.37
194.239	-8.87
194.458	71
194.678	11.61
194.897	25.94
195.116	58.71
195.335	30.04
195.555	-10.92
195.774	11.61
195.993	23.89
196.212	17.75
196.432	21.85
196.651	89.43
196.87	5.46
197.089	66.9
197.308	9.56
197.528	48.47
197.747	-45.74
197.966	5.46
198.185	-33.45
198.404	38.23
198.623	7.51
198.842	-15.02
199.062	77.14
199.281	46.42
199.5	-19.11
199.719	62.8
199.938	-17.07
200.157	-27.31
200.376	77.14
200.595	21.85
200.814	17.75
201.033	36.18
201.252	75.09
201.471	-19.11
201.69	91.48
201.909	42.32
202.128	27.99
202.347	-23.21
202.566	-0.68
202.785	30.04
203.004	17.75
203.223	79.19
203.442	30.04
203.661	-41.64
203.879	34.13
204.098	34.13
204.317	25.94
204.536	93.52
204.755	50.52
204.974	60.76
205.193	38.23
205.411	54.61
205.63	66.9
205.849	54.61
206.068	34.13
206.287	73.04
206.505	9.56
206.724	58.71
206.943	32.08
207.162	9.56
207.381	15.7
207.599	42.32
207.818	40.28
208.037	17.75
208.255	34.13
208.474	40.28
208.693	19.8
208.911	103.76
209.13	-6.83
209.349	52.56
209.567	-17.07
209.786	93.52
210.005	58.71
210.223	7.51
210.442	-58.03
210.661	9.56
210.879	7.51
211.098	-39.59
211.316	42.32
211.535	44.37
211.753	48.47
211.972	25.94
212.191	5.46
212.409	81.24
212.628	124.24
212.846	42.32
213.065	75.09
213.283	21.85
213.502	-10.92
213.72	30.04
213.938	64.85
214.157	-0.68
214.375	-15.02
214.594	52.56
214.812	54.61
215.031	34.13
215.249	38.23
215.467	-49.83
215.686	-2.73
215.904	75.09
216.122	13.65
216.341	134.48
216.559	97.62
216.778	-15.02
216.996	25.94
217.214	87.38
217.432	1.37
217.651	50.52
217.869	-27.31
218.087	1.37
218.306	73.04
218.524	19.8
218.742	48.47
218.96	46.42
219.179	38.23
219.397	56.66
219.615	77.14
219.833	62.8
220.051	38.23
220.27	7.51
220.488	42.32
220.706	79.19
220.924	71
221.142	30.04
221.36	15.7
221.578	56.66
221.796	58.71
222.015	136.53
222.233	9.56
222.451	79.19
222.669	95.57
222.887	25.94
223.105	50.52
223.323	34.13
223.541	-39.59
223.759	56.66
223.977	64.85
224.195	83.28
224.413	46.42
224.631	19.8
224.849	-0.68
225.067	66.9
225.285	23.89
225.503	27.99
225.721	-88.75
225.939	1.37
226.157	21.85
226.375	44.37
226.592	25.94
226.81	54.61
227.028	13.65
227.246	99.67
227.464	15.7
227.682	54.61
227.9	-25.26
228.117	15.7
228.335	-8.87
228.553	19.8
228.771	25.94
228.989	-37.55
229.206	-15.02
229.424	17.75
229.642	-8.87
229.86	-45.74
230.077	64.85
230.295	107.86
230.513	23.89
230.731	105.81
230.948	93.52
231.166	116.05
231.384	54.61
231.601	5.46
231.819	52.56
232.037	46.42
232.254	-55.98
232.472	91.48
232.689	38.23
232.907	27.99
233.125	34.13
233.342	58.71
233.56	19.8
233.777	71
233.995	15.7
234.213	95.57
234.43	21.85
234.648	48.47
234.865	30.04
235.083	-33.45
235.3	-8.87
235.518	101.72
235.735	87.38
235.953	122.2
236.17	58.71
236.388	13.65
236.605	36.18
236.822	17.75
237.04	3.41
237.257	-17.07
237.475	23.89
237.692	25.94
237.909	66.9
238.127	62.8
238.344	66.9
238.562	83.28
238.779	62.8
238.996	-10.92
239.214	54.61
239.431	87.38
239.648	3.41
239.865	17.75
240.083	83.28
240.3	77.14
240.517	5.46
240.735	23.89
240.952	48.47
241.169	66.9
241.386	48.47
241.603	99.67
241.821	-51.88
242.038	105.81
242.255	66.9
242.472	-8.87
242.689	75.09
242.907	25.94
243.124	19.8
243.341	93.52
243.558	79.19
243.775	-0.68
243.992	-31.4
244.209	13.65
244.426	122.2
244.643	107.86
244.86	-15.02
245.078	99.67
245.295	-76.46
245.512	36.18
245.729	42.32
245.946	60.76
246.163	68.95
246.38	5.46
246.597	27.99
246.814	62.8
247.031	-4.78
247.248	23.89
247.464	126.29
247.681	34.13
247.898	89.43
248.115	21.85
248.332	21.85
248.549	93.52
248.766	105.81
248.983	15.7
249.2	81.24
249.417	21.85
249.633	11.61
249.85	-6.83
250.067	30.04
250.284	36.18
250.501	97.62
250.717	30.04
250.934	-21.16
251.151	-12.97
251.368	25.94
251.585	116.05
251.801	50.52
252.018	5.46
252.235	17.75
252.451	-33.45
252.668	5.46
252.885	23.89
253.102	11.61
253.318	-23.21
253.535	34.13
253.752	73.04
253.968	21.85
254.185	13.65
254.401	25.94
254.618	68.95
254.835	34.13
255.051	105.81
255.268	11.61
255.484	-2.73
255.701	71
255.917	111.96
256.134	81.24
256.351	58.71
256.567	52.56
256.784	73.04
257	-27.31
257.217	89.43
257.433	83.28
257.65	152.92
257.866	-31.4
258.082	-15.02
258.299	30.04
258.515	17.75
258.732	38.23
258.948	-17.07
259.165	79.19
259.381	32.08
259.597	44.37
259.814	-6.83
260.03	73.04
260.246	75.09
260.463	40.28
260.679	50.52
260.895	50.52
261.112	40.28
261.328	27.99
261.544	9.56
261.761	66.9
261.977	1.37
262.193	27.99
262.409	64.85
262.626	91.48
262.842	23.89
263.058	30.04
263.274	71
263.49	23.89
263.707	17.75
263.923	3.41
264.139	-15.02
264.355	62.8
264.571	75.09
264.787	32.08
265.004	71
265.22	111.96
265.436	34.13
265.652	5.46
265.868	75.09
266.084	-39.59
266.3	58.71
266.516	9.56
266.732	30.04
266.948	-8.87
267.164	9.56
267.38	36.18
267.596	-23.21
267.812	32.08
268.028	68.95
268.244	30.04
268.46	81.24
268.676	122.2
268.892	48.47
269.108	21.85
269.324	56.66
269.54	87.38
269.756	32.08
269.972	-64.17
270.188	-0.68
270.403	-0.68
270.619	7.51
270.835	1.37
271.051	-23.21
271.267	-10.92
271.483	71
271.698	46.42
271.914	38.23
272.13	-15.02
272.346	58.71
272.562	66.9
272.777	50.52
272.993	42.32
273.209	-41.64
273.425	97.62
273.64	-19.11
273.856	81.24
274.072	21.85
274.287	9.56
274.503	48.47
274.719	66.9
274.934	1.37
275.15	-12.97
275.366	85.33
275.581	-51.88
275.797	54.61
276.012	11.61
276.228	60.76
276.444	30.04
276.659	118.1
276.875	68.95
277.09	32.08
277.306	32.08
277.521	34.13
277.737	85.33
277.952	54.61
278.168	77.14
278.383	93.52
278.599	-8.87
278.814	99.67
279.03	-12.97
279.245	5.46
279.461	19.8
279.676	73.04
279.892	-55.98
280.107	-17.07
280.322	99.67
280.538	66.9
280.753	73.04
280.969	40.28
281.184	46.42
281.399	71
281.615	42.32
281.83	95.57
282.045	-27.31
282.26	27.99
282.476	9.56
282.691	62.8
282.906	75.09
283.122	152.92
283.337	9.56
283.552	34.13
283.767	30.04
283.983	9.56
284.198	48.47
284.413	116.05
284.628	54.61
284.843	68.95
285.058	3.41
285.274	38.23
285.489	-4.78
285.704	46.42
285.919	5.46
286.134	50.52
286.349	40.28
286.564	101.72
286.779	64.85
286.995	25.94
287.21	34.13
287.425	-12.97
287.64	34.13
287.855	-17.07
288.07	-39.59
288.285	116.05
288.5	7.51
288.715	75.09
288.93	68.95
289.145	-64.17
289.36	23.89
289.575	75.09
289.79	58.71
290.004	87.38
290.219	5.46
290.434	-4.78
290.649	105.81
290.864	19.8
291.079	101.72
291.294	-35.5
291.509	83.28
291.724	36.18
291.938	25.94
292.153	99.67
292.368	34.13
292.583	13.65
292.798	66.9
293.012	25.94
293.227	-4.78
293.442	25.94
293.657	42.32
293.871	95.57
294.086	-17.07
294.301	38.23
294.516	66.9
294.73	-17.07
294.945	25.94
295.16	23.89
295.374	48.47
295.589	71
295.804	9.56
296.018	25.94
296.233	99.67
296.447	15.7
296.662	19.8
296.877	50.52
297.091	9.56
297.306	73.04
297.52	9.56
297.735	38.23
297.949	50.52
298.164	13.65
298.378	21.85
298.593	81.24
298.807	62.8
299.022	83.28
299.236	71
299.451	40.28
299.665	34.13
299.88	-23.21
300.094	5.46
300.309	13.65
300.523	38.23
300.737	-27.31
300.952	-31.4
301.166	1.37
301.381	11.61
301.595	52.56
301.809	58.71
302.024	21.85
302.238	42.32
302.452	7.51
302.667	3.41
302.881	77.14
303.095	50.52
303.309	83.28
303.524	81.24
303.738	66.9
303.952	46.42
304.166	71
304.381	21.85
304.595	99.67
304.809	77.14
305.023	81.24
305.237	11.61
305.452	-15.02
305.666	79.19
305.88	64.85
306.094	13.65
306.308	-31.4
306.522	91.48
306.736	68.95
306.95	42.32
307.164	68.95
307.379	27.99
307.593	103.76
307.807	60.76
308.021	97.62
308.235	64.85
308.449	36.18
308.663	75.09
308.877	109.91
309.091	36.18
309.305	56.66
309.519	87.38
309.733	81.24
309.947	-35.5
310.161	-10.92
310.374	23.89
310.588	64.85
310.802	58.71
311.016	38.23
311.23	71
311.444	50.52
311.658	48.47
311.872	17.75
312.085	122.2
312.299	79.19
312.513	75.09
312.727	54.61
312.941	-51.88
313.154	85.33
313.368	-19.11
313.582	40.28
313.796	83.28
314.009	1.37
314.223	38.23
314.437	42.32
314.651	30.04
314.864	38.23
315.078	58.71
315.292	17.75
315.505	-8.87
315.719	73.04
315.933	99.67
316.146	3.41
316.36	32.08
316.573	40.28
316.787	46.42
317.001	58.71
317.214	13.65
317.428	46.42
317.641	71
317.855	19.8
318.068	91.48
318.282	30.04
318.495	111.96
318.709	54.61
318.922	15.7
319.136	103.76
319.349	87.38
319.563	9.56
319.776	64.85
319.99	13.65
320.203	30.04
320.417	99.67
320.63	99.67
320.843	44.37
321.057	58.71
321.27	58.71
321.483	75.09
321.697	17.75
321.91	-2.73
322.124	9.56
322.337	36.18
322.55	-6.83
322.763	-17.07
322.977	-2.73
323.19	21.85
323.403	50.52
323.617	27.99
323.83	79.19
324.043	32.08
324.256	50.52
324.469	-17.07
324.683	27.99
324.896	30.04
325.109	95.57
325.322	-25.26
325.535	42.32
325.748	38.23
325.962	52.56
326.175	58.71
326.388	50.52
326.601	116.05
326.814	105.81
327.027	17.75
327.24	79.19
327.453	11.61
327.666	165.2
327.879	132.44
328.092	120.15
328.305	-55.98
328.518	54.61
328.731	44.37
328.944	-10.92
329.157	66.9
329.37	9.56
329.583	105.81
329.796	120.15
330.009	1.37
330.222	99.67
330.435	40.28
330.648	5.46
330.861	48.47
331.073	3.41
331.286	75.09
331.499	56.66
331.712	17.75
331.925	107.86
332.138	124.24
332.35	105.81
332.563	50.52
332.776	77.14
332.989	-6.83
333.202	62.8
333.414	50.52
333.627	83.28
333.84	-6.83
334.053	54.61
334.265	9.56
334.478	23.89
334.691	-21.16
334.903	44.37
335.116	17.75
335.329	9.56
335.541	91.48
335.754	136.53
335.966	-39.59
336.179	77.14
336.392	-58.03
336.604	54.61
336.817	54.61
337.029	56.66
337.242	15.7
337.454	38.23
337.667	-2.73
337.88	138.58
338.092	56.66
338.305	17.75
338.517	71
338.729	128.34
338.942	50.52
339.154	118.1
339.367	27.99
339.579	-15.02
339.792	48.47
340.004	38.23
340.217	75.09
340.429	91.48
340.641	23.89
340.854	87.38
341.066	66.9
341.278	73.04
341.491	73.04
341.703	36.18
341.915	105.81
342.128	83.28
342.34	46.42
342.552	66.9
342.764	99.67
342.977	34.13
343.189	23.89
343.401	42.32
343.613	81.24
343.826	101.72
344.038	21.85
344.25	-19.11
344.462	-39.59
344.674	71
344.886	25.94
345.099	62.8
345.311	30.04
345.523	-12.97
345.735	54.61
345.947	58.71
346.159	66.9
346.371	60.76
346.583	64.85
346.795	97.62
347.007	32.08
347.219	75.09
347.431	62.8
347.643	60.76
347.855	19.8
348.067	66.9
348.279	95.57
348.491	73.04
348.703	71
348.915	7.51
349.127	107.86
349.339	42.32
349.551	83.28
349.763	48.47
349.975	128.34
350.187	73.04
350.399	95.57
350.61	17.75
350.822	75.09
351.034	42.32
351.246	48.47
351.458	50.52
351.669	25.94
351.881	50.52
352.093	77.14
352.305	85.33
352.517	58.71
352.728	66.9
352.94	9.56
353.152	-31.4
353.363	19.8
353.575	5.46
353.787	68.95
353.999	21.85
354.21	154.96
354.422	52.56
354.633	56.66
354.845	50.52
355.057	52.56
355.268	144.72
355.48	19.8
355.692	7.51
355.903	1.37
356.115	71
356.326	11.61
356.538	79.19
356.749	-19.11
356.961	13.65
357.172	9.56
357.384	9.56
357.595	73.04
357.807	105.81
358.018	66.9
358.23	66.9
358.441	58.71
358.653	21.85
358.864	7.51
359.075	13.65
359.287	87.38
359.498	91.48
359.709	38.23
359.921	107.86
360.132	-17.07
360.344	13.65
360.555	58.71
360.766	75.09
360.977	38.23
361.189	81.24
361.4	40.28
361.611	46.42
361.823	25.94
362.034	3.41
362.245	-49.83
362.456	62.8
362.667	91.48
362.879	-6.83
363.09	83.28
363.301	58.71
363.512	109.91
363.723	56.66
363.935	-0.68
364.146	83.28
364.357	64.85
364.568	111.96
364.779	77.14
364.99	66.9
365.201	-37.55
365.412	9.56
365.623	5.46
365.834	7.51
366.045	34.13
366.256	58.71
366.467	17.75
366.678	150.87
366.889	58.71
367.1	107.86
367.311	46.42
367.522	30.04
367.733	103.76
367.944	75.09
368.155	73.04
368.366	9.56
368.577	68.95
368.788	95.57
368.999	77.14
369.209	66.9
369.42	30.04
369.631	85.33
369.842	-10.92
370.053	36.18
370.264	99.67
370.474	7.51
370.685	40.28
370.896	77.14
371.107	111.96
371.317	34.13
371.528	11.61
371.739	165.2
371.95	32.08
372.16	23.89
372.371	40.28
372.582	77.14
372.792	120.15
373.003	66.9
373.214	44.37
373.424	5.46
373.635	66.9
373.846	71
374.056	71
374.267	95.57
374.477	19.8
374.688	-2.73
374.898	5.46
375.109	64.85
375.319	60.76
375.53	38.23
375.74	66.9
375.951	73.04
376.161	64.85
376.372	71
376.582	64.85
376.793	50.52
377.003	42.32
377.214	50.52
377.424	116.05
377.635	75.09
377.845	122.2
378.055	99.67
378.266	58.71
378.476	-68.27
378.686	25.94
378.897	87.38
379.107	34.13
379.317	107.86
379.528	-15.02
379.738	68.95
379.948	58.71
380.158	32.08
380.369	58.71
380.579	-15.02
380.789	25.94
380.999	130.39
381.21	81.24
381.42	97.62
381.63	5.46
381.84	83.28
382.05	99.67
382.261	93.52
382.471	107.86
382.681	64.85
382.891	95.57
383.101	34.13
383.311	13.65
383.521	13.65
383.731	-0.68
383.941	118.1
384.151	60.76
384.361	101.72
384.571	66.9
384.781	34.13
384.991	77.14
385.201	116.05
385.411	107.86
385.621	64.85
385.831	79.19
386.041	157.01
386.251	25.94
386.461	116.05
386.671	1.37
386.881	48.47
387.091	7.51
387.301	79.19
387.511	154.96
387.72	89.43
387.93	21.85
388.14	48.47
388.35	109.91
388.56	75.09
388.769	56.66
388.979	122.2
389.189	50.52
389.399	19.8
389.609	25.94
389.818	93.52
390.028	75.09
390.238	75.09
390.447	30.04
390.657	58.71
390.867	40.28
391.076	-8.87
391.286	120.15
391.496	44.37
391.705	91.48
391.915	42.32
392.125	146.77
392.334	101.72
392.544	111.96
392.753	97.62
392.963	66.9
393.172	25.94
393.382	40.28
393.591	99.67
393.801	30.04
394.01	114
394.22	23.89
394.429	87.38
394.639	13.65
394.848	109.91
395.058	116.05
395.267	25.94
395.477	34.13
395.686	99.67
395.895	138.58
396.105	34.13
396.314	148.82
396.524	144.72
396.733	73.04
396.942	124.24
397.152	144.72
397.361	105.81
397.57	109.91
397.78	138.58
397.989	107.86
398.198	212.31
398.407	173.39
398.617	122.2
398.826	185.68
399.035	60.76
399.244	99.67
399.453	52.56
399.663	111.96
399.872	187.73
400.081	36.18
400.29	136.53
400.499	83.28
400.708	128.34
400.917	130.39
401.127	157.01
401.336	66.9
401.545	197.97
401.754	124.24
401.963	167.25
402.172	75.09
402.381	124.24
402.59	107.86
402.799	152.92
403.008	64.85
403.217	148.82
403.426	148.82
403.635	111.96
403.844	136.53
404.053	103.76
404.262	99.67
404.471	175.44
404.68	128.34
404.888	150.87
405.097	128.34
405.306	144.72
405.515	230.74
405.724	122.2
405.933	179.54
406.142	183.63
406.35	197.97
406.559	218.45
406.768	226.64
406.977	202.07
407.185	165.2
407.394	222.55
407.603	253.27
407.812	232.79
408.02	238.93
408.229	259.41
408.438	224.59
408.646	275.79
408.855	240.98
409.064	208.21
409.272	326.99
409.481	341.33
409.69	195.92
409.898	292.18
410.107	347.47
410.315	286.03
410.524	279.89
410.733	408.91
410.941	386.38
411.15	372.05
411.358	417.1
411.567	492.88
411.775	433.49
411.984	456.01
412.192	443.73
412.401	464.21
412.609	464.21
412.818	509.26
413.026	480.59
413.234	533.84
413.443	476.49
413.651	646.48
413.86	607.56
414.068	646.48
414.276	714.06
414.485	619.85
414.693	677.19
414.901	771.4
415.11	662.86
415.318	601.42
415.526	781.64
415.734	793.93
415.943	836.94
416.151	867.66
416.359	873.8
416.567	896.33
416.776	927.05
416.984	1074.5
417.192	992.58
417.4	1006.92
417.608	976.2
417.817	1213.76
418.025	1148.23
418.233	1121.6
418.441	1189.19
418.649	1207.62
418.857	1303.87
419.065	1328.45
419.273	1379.65
419.481	1418.56
419.689	1490.24
419.897	1656.12
420.105	1590.59
420.313	1733.95
420.521	1707.32
420.729	1701.18
420.937	1801.53
421.145	1799.48
421.353	1942.84
421.561	2131.25
421.769	2028.85
421.977	2118.97
422.185	2000.18
422.393	2309.43
422.601	2417.97
422.809	2223.41
423.017	2473.26
423.224	2536.75
423.432	2538.8
423.64	2702.64
423.848	2735.4
424.056	2811.18
424.263	2983.21
424.471	2966.82
424.679	3020.07
424.887	3126.57
425.094	3382.56
425.302	3396.9
425.51	3415.33
425.718	3546.4
425.925	3620.13
426.133	3708.19
426.341	3906.84
426.548	4113.69
426.756	4220.18
426.964	4111.64
427.171	4392.21
427.379	4467.99
427.586	4631.82
427.794	4746.51
428.001	4859.15
428.209	5225.73
428.417	4965.64
428.624	5397.76
428.832	5405.95
429.039	5371.14
429.247	5254.41
429.454	5919.99
429.662	6391.03
429.869	5872.89
430.076	6305.01
430.284	6059.26
430.491	6370.55
430.699	6868.2
430.906	6841.58
431.114	6931.69
431.321	7093.48
431.528	7466.21
431.736	7734.5
431.943	8111.32
432.15	7718.11
432.358	7855.33
432.565	8123.61
432.772	8203.48
432.979	8668.37
433.187	8885.45
433.394	8926.41
433.601	9524.42
433.808	9503.94
434.016	9452.74
434.223	9862.33
434.43	10443.96
434.637	10288.31
434.844	10771.63
435.052	11183.27
435.259	11023.53
435.466	11150.51
435.673	10898.61
435.88	11803.81
436.087	12311.71
436.294	12174.49
436.501	11930.78
436.708	12319.9
436.915	12709.01
437.122	13155.47
437.329	13180.04
437.537	13722.76
437.743	13855.87
437.95	13776
438.157	14437.5
438.364	15000.69
438.571	14849.14
438.778	14875.76
438.985	16378.97
439.192	15713.38
439.399	16106.59
439.606	15785.06
439.813	16645.21
440.02	17888.32
440.227	17572.94
440.433	17370.19
440.64	17935.43
440.847	17591.37
441.054	18099.27
441.261	19498.03
441.467	19145.78
441.674	19502.12
441.881	20251.68
442.088	20157.47
442.294	20048.93
442.501	20587.55
442.708	21064.72
442.914	21720.07
443.121	23315.44
443.328	21888.01
443.534	23401.46
443.741	22758.39
443.948	22373.38
444.154	24347.62
444.361	24056.81
444.568	24161.25
444.774	24613.85
444.981	24282.08
445.187	25568.21
445.394	26254.28
445.6	25791.44
445.807	28386.21
446.013	27507.63
446.22	27722.67
446.426	28971.93
446.633	29008.79
446.839	29850.51
447.046	28668.83
447.252	30051.21
447.459	30247.82
447.665	30053.26
447.871	31480.69
448.078	33096.54
448.284	31163.26
448.491	32058.22
448.697	33209.18
448.903	33758.03
449.11	33715.03
449.316	33422.17
449.522	34040.65
449.728	34925.38
449.935	35162.94
450.141	34548.55
450.347	35490.62
450.553	34362.18
450.76	34814.79
450.966	35904.31
451.172	35601.21
451.378	36260.65
451.584	35676.98
451.791	36213.55
451.997	36363.05
452.203	36717.35
452.409	36877.09
452.615	36762.4
452.821	35302.2
453.027	34984.77
453.233	36823.84
453.44	35185.47
453.646	35666.74
453.852	35664.69
454.058	36338.47
454.264	34845.51
454.47	35973.94
454.676	35005.25
454.882	36174.64
455.088	33237.85
455.294	33438.55
455.5	33680.21
455.705	34462.54
455.911	33086.3
456.117	32172.91
456.323	32115.56
456.529	30440.32
456.735	31513.46
456.941	30727.04
457.147	30004.11
457.352	28976.03
457.558	28707.74
457.764	28664.74
457.97	28507.04
458.176	27737.01
458.381	27532.21
458.587	26057.67
458.793	26336.2
458.999	24933.34
459.204	26698.69
459.41	25875.4
459.616	24224.74
459.821	24519.65
460.027	24126.44
460.233	23540.72
460.438	22508.54
460.644	22795.26
460.85	21662.73
461.055	21486.61
461.261	21355.54
461.466	19854.37
461.672	19022.9
461.878	20747.29
462.083	19043.38
462.289	18945.08
462.494	18734.14
462.7	17945.67
462.905	17613.9
463.111	18144.32
463.316	18039.87
463.522	17771.59
463.727	17816.65
463.932	17644.62
464.138	17499.21
464.343	17615.94
464.549	17124.43
464.754	17984.58
464.959	17359.95
465.165	17130.58
465.37	16622.68
465.575	16252
465.781	16884.82
465.986	16915.54
466.191	16409.69
466.397	15678.57
466.602	15266.92
466.807	16055.39
467.012	15856.74
467.218	15746.15
467.423	15441
467.628	15656.04
467.833	16397.4
468.038	15567.98
468.244	15189.1
468.449	15692.9
468.654	15215.73
468.859	15318.12
469.064	15076.46
469.269	14666.87
469.474	14574.71
469.679	14967.92
469.885	14523.51
470.09	14648.44
470.295	14623.86
470.5	14347.39
470.705	14308.48
470.91	13988.99
471.115	13802.63
471.32	14161.02
471.525	13980.8
471.73	13552.77
471.935	13522.06
472.139	13210.76
472.344	13038.73
472.549	13206.67
472.754	13016.21
472.959	12846.23
473.164	12371.1
473.369	12485.78
473.574	12698.77
473.778	12526.74
473.983	12678.29
474.188	12522.65
474.393	11793.57
474.598	11830.43
474.802	11836.58
475.007	11697.31
475.212	11914.4
475.417	11230.38
475.621	11422.89
475.826	11347.11
476.031	11197.61
476.235	10970.29
476.44	11080.88
476.645	10914.99
476.849	10857.65
477.054	10783.92
477.259	10689.71
477.463	10755.25
477.668	10325.18
477.872	10566.84
478.077	10398.9
478.282	10067.13
478.486	10044.6
478.691	9897.15
478.895	10165.43
479.1	9958.59
479.304	9770.18
479.509	9692.35
479.713	9970.88
479.918	9641.15
480.122	9403.59
480.326	9516.23
480.531	9739.46
480.735	9346.25
480.94	9290.95
481.144	9694.4
481.348	9200.84
481.553	9413.83
481.757	9151.69
481.961	9364.68
482.166	9123.02
482.37	9317.58
482.574	9135.31
482.778	9247.94
482.983	9325.77
483.187	9276.62
483.391	9434.31
483.595	9098.44
483.8	8967.37
484.004	9080.01
484.208	9176.27
484.412	9010.38
484.616	9116.87
484.821	9174.22
485.025	8969.42
485.229	9129.16
485.433	9102.54
485.637	9141.45
485.841	9018.57
486.045	9168.07
486.249	9204.94
486.453	8838.35
486.657	9280.71
486.861	9092.3
487.065	8879.31
487.269	9278.66
487.473	9145.55
487.677	9235.66
487.881	9102.54
488.085	9225.42
488.289	9258.18
488.493	9155.79
488.697	9102.54
488.901	9159.88
489.105	9176.27
489.309	9235.66
489.512	9319.62
489.716	9309.38
489.92	9266.38
490.124	9118.92
490.328	9469.12
490.531	9280.71
490.735	9262.28
490.939	9293
491.143	9493.7
491.346	9407.69
491.55	9553.09
491.754	9487.56
491.958	9571.52
492.161	9610.43
492.365	9825.47
492.569	9663.68
492.772	9510.08
492.976	9712.83
493.18	9788.61
493.383	9872.57
493.587	9925.82
493.79	10157.24
493.994	9751.74
494.197	10020.03
494.401	10067.13
494.605	10159.29
494.808	10312.89
495.012	10441.91
495.215	10456.25
495.419	10575.03
495.622	10552.5
495.825	10634.42
496.029	10697.91
496.232	10960.05
496.436	10878.13
496.639	10960.05
496.843	11328.68
497.046	11257
497.249	11318.44
497.453	11467.94
497.656	11515.05
497.859	11635.88
498.063	11691.17
498.266	12256.41
498.469	12051.61
498.673	12092.57
498.876	12321.95
499.079	12340.38
499.282	12231.83
499.485	12932.24
499.689	12614.8
499.892	12960.91
500.095	13104.27
500.298	13343.88
500.501	13046.93
500.705	13702.28
500.908	13642.89
501.111	13620.36
501.314	14044.29
501.517	14361.72
501.72	14500.98
501.923	14148.73
502.126	14507.13
502.329	14746.74
502.532	14943.35
502.735	15058.03
502.938	15379.56
503.141	15101.04
503.344	15475.82
503.547	15574.12
503.75	15807.59
503.953	15981.67
504.156	16143.45
504.359	16272.48
504.562	16659.54
504.765	16903.25
504.968	17173.58
505.17	17118.29
505.373	17314.89
505.576	17460.3
505.779	17548.36
505.982	17802.31
506.185	18193.47
506.387	18041.92
506.59	18361.41
506.793	18553.91
506.996	18852.92
507.198	18934.84
507.401	19225.65
507.604	19295.28
507.807	19889.19
508.009	19940.39
508.212	19917.86
508.415	20419.61
508.617	20567.07
508.82	20724.76
509.022	20481.05
509.225	21300.24
509.428	21140.5
509.63	21388.3
509.833	21498.89
510.035	22369.28
510.238	21879.82
510.44	22215.68
510.643	22526.97
510.845	22576.12
511.048	22850.55
511.25	23010.29
511.453	23661.55
511.655	24214.5
511.858	23600.11
512.06	24054.76
512.262	24091.62
512.465	24361.95
512.667	25007.06
512.87	24855.51
513.072	25045.98
513.274	25301.97
513.477	25713.61
513.679	25822.16
513.881	26125.25
514.084	26571.71
514.286	26596.29
514.488	27057.08
514.69	27575.22
514.893	27554.74
515.095	27454.39
515.297	27710.38
515.499	28396.45
515.701	28185.51
515.904	28879.77
516.106	29219.74
516.308	29395.86
516.51	29825.93
516.712	29670.29
516.914	30215.05
517.116	30692.22
517.318	30512
517.52	30827.39
517.722	31089.53
517.925	31533.94
518.127	31908.72
518.329	32152.43
518.531	31554.42
518.733	32480.1
518.935	32707.43
519.136	32887.65
519.338	33485.65
519.54	33823.57
519.742	34110.28
519.944	34300.75
520.146	34597.7
520.348	34714.44
520.55	35068.73
520.752	34986.82
520.954	35752.76
521.155	35748.66
521.357	36399.91
521.559	36285.23
521.761	36913.95
521.963	36666.15
522.164	37174.05
522.366	37536.54
522.568	37690.13
522.77	37866.26
522.971	38288.14
523.173	38064.91
523.375	38601.48
523.576	38568.71
523.778	38963.97
523.98	39361.28
524.181	39490.3
524.383	39869.17
524.584	40127.22
524.786	40286.96
524.988	40202.99
525.189	40534.76
525.391	40796.9
525.592	41120.48
525.794	41005.8
525.995	40891.11
526.197	41186.02
526.398	41618.14
526.6	41818.84
526.801	42388.17
527.003	42136.27
527.204	42527.44
527.406	42973.89
527.607	43018.95
527.808	42805.96
528.01	42681.03
528.211	42951.37
528.412	44229.3
528.614	44231.35
528.815	43350.72
529.016	44124.85
529.218	44026.55
529.419	43696.83
529.62	43997.88
529.822	43905.72
530.023	44004.02
530.224	44233.39
530.425	44262.07
530.626	43950.77
530.828	44008.12
531.029	45255.33
531.23	44550.83
531.431	44731.05
531.632	45503.13
531.833	44798.63
532.035	45083.3
532.236	45271.71
532.437	45410.98
532.638	45255.33
532.839	45343.39
533.04	45378.21
533.241	45251.23
533.442	46183.06
533.643	45554.33
533.844	45406.88
534.045	45738.65
534.246	45181.6
534.447	45755.04
534.648	45832.86
534.849	45558.43
535.05	45193.89
535.251	45918.87
535.451	45591.2
535.652	46062.23
535.853	45742.75
536.054	46074.52
536.255	46000.79
536.456	45621.92
536.657	46248.6
536.857	45787.8
537.058	45386.4
537.259	45914.78
537.46	46164.63
537.66	45836.95
537.861	46019.22
538.062	45986.46
538.263	46246.55
538.463	45687.45
538.664	46148.25
538.865	45972.12
539.065	46275.22
539.266	45496.99
539.466	46207.64
539.667	46033.56
539.868	46394
540.068	45718.17
540.269	45984.41
540.469	46123.67
540.67	46246.55
540.87	45808.28
541.071	45693.6
541.271	46164.63
541.472	45894.3
541.672	46078.61
541.873	46006.94
542.073	45189.8
542.274	46133.91
542.474	45744.8
542.675	45646.49
542.875	46058.13
543.075	45566.62
543.276	45576.86
543.476	46144.15
543.676	45378.21
543.877	45836.95
544.077	45730.46
544.277	45800.09
544.478	45406.88
544.678	45798.04
544.878	45593.25
545.078	46092.95
545.279	45333.15
545.479	45507.23
545.679	46113.43
545.879	45716.12
546.079	45605.53
546.28	45583.01
546.48	45140.64
546.68	45839
546.88	45750.94
547.08	45587.1
547.28	45345.44
547.48	45607.58
547.68	45462.18
547.88	45296.29
548.081	45888.15
548.281	45404.83
548.481	45419.17
548.681	45822.62
548.881	45570.72
549.081	45413.02
549.28	45267.62
549.48	45632.16
549.68	45339.3
549.88	45826.71
550.08	45314.72
550.28	45513.37
550.48	45308.58
550.68	45380.26
550.88	45363.87
551.08	45169.32
551.279	45380.26
551.479	45073.06
551.679	45507.23
551.879	45085.35
552.079	45679.26
552.278	44853.93
552.478	45136.55
552.678	44972.71
552.878	45619.87
553.077	44972.71
553.277	44726.95
553.477	45689.5
553.676	44763.82
553.876	45060.77
554.076	44837.55
554.275	45193.89
554.475	44174
554.674	44591.79
554.874	44729
555.074	44583.6
555.273	44804.78
555.473	44821.16
555.672	44634.8
555.872	44427.95
556.071	44872.36
556.271	44886.7
556.47	44882.6
556.67	44131
556.869	44174
557.068	44552.88
557.268	44161.72
557.467	44155.57
557.667	44333.74
557.866	44436.14
558.065	44071.6
558.265	43756.22
558.464	43748.03
558.663	44147.38
558.863	43623.1
559.062	44112.56
559.261	43453.12
559.461	44137.14
559.66	43324.1
559.859	43037.38
560.058	43375.3
560.258	43510.46
560.457	42719.95
560.656	43559.61
560.855	42867.4
561.054	43365.06
561.253	42734.28
561.453	43186.88
561.652	43143.87
561.851	43403.97
562.05	42791.62
562.249	42625.74
562.448	42758.86
562.647	42470.09
562.846	42816.2
563.045	42455.76
563.244	41720.54
563.443	42980.04
563.642	41718.49
563.841	41980.63
564.04	41718.49
564.239	41999.06
564.438	41401.05
564.637	41478.88
564.836	41773.78
565.035	40954.6
565.234	41435.87
565.432	41458.4
565.631	41175.78
565.83	41155.3
566.029	40821.48
566.228	40770.28
566.427	40491.76
566.625	40440.56
566.824	40080.11
567.023	40680.17
567.222	40221.42
567.42	40674.02
567.619	40299.25
567.818	40008.43
568.016	39707.38
568.215	40375.02
568.414	39688.95
568.612	40184.56
568.811	39467.77
569.01	39602.94
569.208	39365.37
569.407	39645.94
569.605	38861.57
569.804	39275.26
570.002	38908.68
570.201	38867.72
570.4	38540.04
570.598	38679.3
570.797	38656.78
570.995	38587.14
571.193	37974.8
571.392	38333.2
571.59	38195.98
571.789	38355.72
571.987	37913.36
572.186	37813.01
572.384	37608.22
572.582	37640.98
572.781	37632.79
572.979	37106.46
573.177	37554.97
573.376	37380.89
573.574	37065.5
573.772	37194.53
573.971	37118.75
574.169	36754.21
574.367	36522.79
574.565	36852.51
574.763	36287.28
574.962	36336.43
575.16	36119.34
575.358	36346.67
575.556	35947.31
575.754	36256.56
575.952	36012.85
576.151	36016.94
576.349	35613.49
576.547	35859.25
576.745	35179.32
576.943	35650.36
577.141	35533.62
577.339	35642.17
577.537	34913.09
577.735	35017.53
577.933	34880.32
578.131	34755.39
578.329	34751.3
578.527	34128.72
578.725	34605.89
578.923	34845.51
579.121	34376.52
579.319	34450.25
579.516	34769.73
579.714	33999.69
579.912	33923.92
580.11	34325.32
580.308	33755.99
580.506	33846.1
580.704	33450.84
580.901	33477.46
581.099	33991.5
581.297	33162.08
581.495	33545.05
581.692	33710.93
581.89	33112.92
582.088	33342.3
582.285	32750.43
582.483	33360.73
582.681	32877.41
582.878	32746.34
583.076	32512.87
583.274	32947.04
583.471	32314.22
583.669	32287.59
583.866	32086.89
584.064	31951.73
584.262	32058.22
584.459	31982.45
584.657	31648.63
584.854	32031.6
585.052	31544.18
585.249	31619.95
585.447	31517.56
585.644	31398.77
585.841	31486.84
586.039	31959.92
586.236	30833.53
586.434	31296.38
586.631	30968.7
586.828	31028.09
587.026	31009.66
587.223	30686.08
587.42	30638.98
587.618	30675.84
587.815	30161.8
588.012	30518.15
588.21	30190.47
588.407	30591.87
588.604	30311.3
588.801	29883.28
588.999	29977.48
589.196	29737.87
589.393	29666.19
589.59	29232.02
589.787	29606.8
589.984	29725.58
590.182	29402
590.379	29545.36
590.576	29168.54
590.773	29412.24
590.97	28955.55
591.167	29418.39
591.364	28670.88
591.561	28611.49
591.758	28734.37
591.955	28785.57
592.152	28513.19
592.349	28322.73
592.546	28734.37
592.743	28398.5
592.94	27941.8
593.137	28347.3
593.334	28062.63
593.531	27952.04
593.727	28216.23
593.924	27982.76
594.121	27591.6
594.318	28025.77
594.515	27378.61
594.712	27732.91
594.908	27415.47
595.105	27597.74
595.302	27106.23
595.499	26921.91
595.696	27313.08
595.892	27145.14
596.089	26993.59
596.286	27087.8
596.482	27077.56
596.679	26745.79
596.876	26659.77
597.072	26811.32
597.269	26618.82
597.466	26432.45
597.662	26373.06
597.859	26622.91
598.055	26663.87
598.252	25930.7
598.448	25709.52
598.645	26155.97
598.841	25695.18
599.038	25965.51
599.234	25693.13
599.431	25326.55
599.627	25578.45
599.824	25506.77
600.02	25306.07
600.217	25091.03
600.413	25295.83
600.609	25099.22
600.806	24919
601.002	24986.58
601.198	24857.56
601.395	24675.29
601.591	24759.26
601.787	24753.12
601.984	24642.53
602.18	24779.74
602.376	24372.19
602.572	24497.12
602.769	24542.17
602.965	24050.66
603.161	24400.86
603.357	24126.44
603.553	24007.65
603.75	23778.28
603.946	24075.24
604.142	24005.61
604.338	23636.97
604.534	23516.14
604.73	23284.72
604.926	23563.25
605.122	23446.51
605.318	23282.67
605.514	23211
605.71	23088.12
605.906	23225.33
606.102	23202.8
606.298	23018.49
606.494	22877.18
606.69	23075.83
606.886	22975.48
607.082	22647.8
607.278	22881.27
607.474	22637.56
607.67	22844.41
607.866	22526.97
608.062	22850.55
608.257	22354.94
608.453	22397.95
608.649	22682.62
608.845	22037.51
609.041	22105.09
609.236	22436.86
609.432	22281.22
609.628	22199.3
609.824	21955.59
610.019	22057.99
610.215	22123.52
610.411	22129.67
610.606	21863.43
610.802	21900.3
610.998	21978.12
611.193	21689.35
611.389	21634.06
611.584	21720.07
611.78	21253.14
611.976	21638.16
612.171	21601.29
612.367	21273.62
612.562	21312.53
612.758	21056.53
612.953	21160.98
613.149	21658.63
613.344	21025.81
613.539	21599.24
613.735	21199.89
613.93	21267.47
614.126	20962.33
614.321	21330.96
614.517	20753.43
614.712	20937.75
614.907	20925.46
615.103	20902.93
615.298	20825.11
615.493	20775.96
615.688	20618.27
615.884	20995.09
616.079	20671.51
616.274	20866.07
616.47	20632.6
616.665	20423.71
616.86	20431.9
617.055	20249.63
617.25	20259.87
617.445	20624.41
617.641	19999.78
617.836	20247.58
618.031	19905.57
618.226	20012.07
618.421	19788.84
618.616	20325.41
618.811	19651.63
619.006	19960.87
619.201	19530.8
619.396	19874.85
619.591	19338.29
619.786	19803.18
619.981	19248.18
620.176	19457.07
620.371	19188.78
620.566	19424.3
620.761	19016.76
620.956	19233.84
621.151	18973.75
621.346	18983.99
621.541	18457.66
621.735	19153.97
621.93	18359.36
622.125	18766.9
622.32	18334.78
622.515	18392.12
622.709	18043.97
622.904	18242.62
623.099	18136.13
623.294	17978.43
623.488	18005.06
623.683	17937.48
623.878	17755.21
624.072	17833.03
624.267	17427.53
624.462	17376.33
624.656	17513.55
624.851	17495.11
625.046	17323.08
625.24	17161.3
625.435	16815.19
625.629	16991.31
625.824	16905.3
626.018	16729.17
626.213	16378.97
626.407	16618.58
626.602	16292.96
626.796	16585.82
626.991	16325.72
627.185	16452.7
627.38	16217.18
627.574	16084.06
627.768	15873.12
627.963	15871.08
628.157	15899.75
628.352	15762.53
628.546	15615.08
628.74	15690.85
628.935	15484.01
629.129	15512.68
629.323	15387.75
629.517	15379.56
629.712	15299.69
629.906	15107.18
630.1	14912.63
630.294	15139.95
630.489	14707.83
630.683	15064.18
630.877	14709.88
631.071	14752.88
631.265	14845.04
631.459	14507.13
631.653	14437.5
631.848	14543.99
632.042	14277.76
632.236	14380.15
632.43	13890.69
632.624	14062.72
632.818	13923.46
633.012	13661.32
633.206	13816.96
633.4	13790.34
633.594	13458.57
633.788	13436.04
633.982	13630.6
634.176	13577.35
634.369	13319.31
634.563	13223.05
634.757	13083.79
634.951	13180.04
635.145	13169.8
635.339	13059.21
635.533	12915.86
635.726	12973.2
635.92	12733.59
636.114	12766.35
636.308	12733.59
636.501	12688.53
636.695	12610.71
636.889	12543.13
637.083	12479.64
637.276	12444.82
637.47	12270.75
637.664	12356.76
637.857	12086.43
638.051	12188.83
638.244	12125.34
638.438	11730.08
638.632	11984.03
638.825	11844.77
639.019	11756.71
639.212	11637.92
639.406	11449.51
639.599	11697.31
639.793	11596.96
639.986	11472.04
640.18	11424.93
640.373	11310.25
640.567	11193.51
640.76	11027.63
640.954	11205.8
641.147	10820.78
641.34	11087.02
641.534	11166.89
641.727	10949.81
641.92	10839.22
642.114	10673.33
642.307	10798.26
642.5	10747.06
642.694	10642.61
642.887	10544.31
643.08	10769.58
643.273	10394.81
643.467	10368.18
643.66	10194.11
643.853	10218.68
644.046	9989.31
644.239	10073.28
644.432	9934.01
644.626	9856.19
644.819	9829.57
645.012	9872.57
645.205	9899.2
645.398	9934.01
645.591	9716.93
645.784	9700.55
645.977	9508.04
646.17	9759.94
646.363	9639.11
646.556	9544.9
646.749	9485.51
646.942	9356.49
647.135	9368.77
647.328	9458.89
647.521	9368.77
647.714	9116.87
647.907	9104.59
648.099	9116.87
648.292	9012.43
648.485	8989.9
648.678	8844.49
648.871	8787.15
649.064	8731.86
649.256	8885.45
649.449	8660.18
649.642	8631.51
649.835	8592.59
650.027	8703.18
650.22	8664.27
650.413	8635.6
650.605	8578.26
650.798	8559.83
650.991	8207.58
651.183	8547.54
651.376	8387.8
651.568	8273.11
651.761	8266.97
651.954	8053.98
652.146	8146.14
652.339	8176.86
652.531	8047.83
652.724	8185.05
652.916	7974.11
653.109	7986.4
653.301	7947.48
653.494	7861.47
653.686	7812.32
653.879	7834.85
654.071	7716.06
654.263	7673.06
654.456	7791.84
654.648	7814.37
654.84	7447.78
655.033	7472.36
655.225	7595.23
655.417	7476.45
655.61	7587.04
655.802	7601.38
655.994	7384.29
656.186	7408.87
656.379	7118.06
656.571	7398.63
656.763	7316.71
656.955	7156.97
657.148	7226.6
657.34	7185.64
657.532	6958.32
657.724	6989.03
657.916	7185.64
658.108	6880.49
658.3	6995.18
658.492	7046.38
658.684	6622.45
658.876	6847.72
659.068	6937.84
659.26	6769.9
659.452	6841.58
659.644	6751.47
659.836	6900.97
660.028	6819.05
660.22	6657.26
660.412	6667.5
660.604	6640.88
660.796	6479.09
660.988	6491.38
661.18	6458.61
661.372	6429.94
661.563	6356.21
661.755	6415.6
661.947	6286.58
662.139	6167.8
662.331	6380.79
662.522	6190.33
662.714	6149.37
662.906	6178.04
663.097	6038.78
663.289	6161.66
663.481	6020.35
663.673	6006.01
663.864	6051.06
664.056	6063.35
664.247	6044.92
664.439	5825.79
664.631	6014.2
664.822	5940.47
665.014	5950.71
665.205	5721.34
665.397	5760.25
665.588	5979.39
665.78	5715.2
665.971	5664
666.163	5649.66
666.354	5682.43
666.546	5666.05
666.737	5731.58
666.929	5715.2
667.12	5586.18
667.311	5465.35
667.503	5577.98
667.694	5469.44
667.885	5387.52
668.077	5461.25
668.268	5313.8
668.459	5453.06
668.651	5530.88
668.842	5516.55
669.033	5352.71
669.224	5410.05
669.416	5383.43
669.607	5383.43
669.798	5266.69
669.989	5242.12
670.18	5281.03
670.371	5250.31
670.563	5203.21
670.754	5346.56
670.945	5131.53
671.136	5258.5
671.327	5268.74
671.518	5166.34
671.709	4957.45
671.9	5070.09
672.091	5121.29
672.282	5039.37
672.473	5018.89
672.664	5176.58
672.855	5041.42
673.046	4996.36
673.237	5031.18
673.428	4924.68
673.619	5051.66
673.809	4930.83
674	5068.04
674.191	4820.24
674.382	4846.86
674.573	4912.39
674.764	5022.98
674.954	4932.87
675.145	4795.66
675.336	4734.22
675.527	4971.79
675.717	4939.02
675.908	4990.22
676.099	4711.69
676.289	4877.58
676.48	4932.87
676.671	4801.8
676.861	4801.8
677.052	4777.23
677.243	4875.53
677.433	4807.95
677.624	4846.86
677.814	4644.11
678.005	4736.27
678.195	4865.29
678.386	4713.74
678.576	4766.99
678.767	4748.56
678.957	4857.1
679.148	4793.61
679.338	4666.64
679.529	4764.94
679.719	4746.51
679.909	4865.29
680.1	4748.56
680.29	4756.75
680.481	4666.64
680.671	4683.02
680.861	4713.74
681.052	4687.12
681.242	4701.45
681.432	4801.8
681.622	4523.28
681.813	4644.11
682.003	4590.86
682.193	4609.3
682.383	4752.65
682.573	4683.02
682.764	4580.62
682.954	4803.85
683.144	4707.6
683.334	4625.68
683.524	4678.93
683.714	4676.88
683.904	4764.94
684.094	4603.15
684.284	4531.47
684.474	4531.47
684.664	4486.42
684.854	4572.43
685.044	4482.32
685.234	4525.33
685.424	4486.42
685.614	4465.94
685.804	4322.58
685.994	4523.28
686.184	4603.15
686.374	4365.59
686.564	4422.93
686.753	4574.48
686.943	4330.77
687.133	4332.82
687.323	4248.85
687.513	4465.94
687.702	4375.83
687.892	4359.44
688.082	4236.56
688.272	4420.88
688.461	4457.75
688.651	4197.65
688.841	4300.05
689.03	4271.38
689.22	4379.92
689.41	4287.76
689.599	4218.13
689.789	4035.86
689.979	4123.93
690.168	4158.74
690.358	3986.71
690.547	4146.45
690.737	4085.02
690.926	4072.73
691.116	4064.54
691.305	4177.17
691.495	4101.4
691.684	4064.54
691.874	4033.82
692.063	3867.93
692.252	3837.21
692.442	3980.57
692.631	3847.45
692.82	3917.08
693.01	3906.84
693.199	3841.31
693.388	3839.26
693.578	3878.17
693.767	3955.99
693.956	3906.84
694.146	3808.54
694.335	3829.02
694.524	3810.59
694.713	3745.05
694.902	3904.79
695.092	3749.15
695.281	3800.35
695.47	3749.15
695.659	3792.16
695.848	3757.34
696.037	3777.82
696.226	3548.45
696.415	3792.16
696.604	3845.4
696.793	3708.19
696.982	3775.77
697.171	3720.48
697.36	3681.57
697.549	3786.01
697.738	3669.28
697.927	3646.75
698.116	3689.76
698.305	3671.33
698.494	3837.21
698.683	3790.11
698.872	3732.76
699.061	3675.42
699.25	3663.13
699.438	3730.72
699.627	3652.89
699.816	3810.59
700.005	3687.71
700.193	3601.69
700.382	3642.65
700.571	3546.4
700.76	3599.65
700.948	3622.17
701.137	3622.17
701.326	3601.69
701.514	3546.4
701.703	3716.38
701.892	3589.41
702.08	3603.74
702.269	3720.48
702.457	3654.94
702.646	3605.79
702.834	3671.33
703.023	3642.65
703.212	3579.17
703.4	3663.13
703.589	3564.83
703.777	3679.52
703.965	3581.21
704.154	3652.89
704.342	3683.61
704.531	3554.59
704.719	3603.74
704.907	3548.45
705.096	3564.83
705.284	3487.01
705.472	3601.69
705.661	3513.63
705.849	3564.83
706.037	3613.98
706.226	3585.31
706.414	3628.32
706.602	3587.36
706.79	3675.42
706.979	3499.3
707.167	3577.12
707.355	3609.89
707.543	3480.86
707.731	3564.83
707.919	3603.74
708.107	3613.98
708.296	3630.37
708.484	3585.31
708.672	3636.51
708.86	3634.46
709.048	3538.21
709.236	3648.8
709.424	3515.68
709.612	3669.28
709.8	3478.82
709.988	3527.97
710.176	3669.28
710.364	3650.85
710.551	3663.13
710.739	3532.06
710.927	3530.02
711.115	3638.56
711.303	3556.64
711.491	3550.5
711.679	3591.45
711.866	3534.11
712.054	3609.89
712.242	3611.93
712.43	3673.37
712.617	3489.06
712.805	3532.06
712.993	3679.52
713.181	3679.52
713.368	3605.79
713.556	3759.39
713.744	3546.4
713.931	3650.85
714.119	3511.58
714.306	3634.46
714.494	3573.02
714.682	3702.04
714.869	3650.85
715.057	3714.33
715.244	3640.61
715.432	3712.28
715.619	3656.99
715.807	3638.56
715.994	3616.03
716.182	3644.7
716.369	3704.09
716.556	3654.94
716.744	3673.37
716.931	3613.98
717.119	3595.55
717.306	3679.52
717.493	3585.31
717.681	3663.13
717.868	3683.61
718.055	3628.32
718.242	3581.21
718.43	3650.85
718.617	3691.81
718.804	3677.47
718.991	3675.42
719.179	3749.15
719.366	3577.12
719.553	3599.65
719.74	3781.92
719.927	3646.75
720.114	3527.97
720.301	3712.28
720.488	3616.03
720.676	3681.57
720.863	3595.55
721.05	3728.67
721.237	3624.22
721.424	3831.07
721.611	3652.89
721.798	3650.85
721.985	3689.76
722.172	3589.41
722.358	3587.36
722.545	3671.33
722.732	3558.69
722.919	3671.33
723.106	3587.36
723.293	3585.31
723.48	3687.71
723.667	3609.89
723.853	3605.79
724.04	3597.6
724.227	3470.62
724.414	3544.35
724.6	3624.22
724.787	3573.02
724.974	3663.13
725.161	3515.68
725.347	3605.79
725.534	3812.64
725.72	3544.35
725.907	3632.41
726.094	3681.57
726.28	3491.1
726.467	3609.89
726.653	3609.89
726.84	3525.92
727.027	3640.61
727.213	3616.03
727.4	3611.93
727.586	3544.35
727.773	3593.5
727.959	3622.17
728.145	3622.17
728.332	3464.48
728.518	3691.81
728.705	3489.06
728.891	3556.64
729.077	3695.9
729.264	3624.22
729.45	3628.32
729.636	3509.54
729.823	3583.26
730.009	3622.17
730.195	3540.26
730.382	3532.06
730.568	3595.55
730.754	3468.58
730.94	3503.39
731.126	3534.11
731.313	3487.01
731.499	3392.8
731.685	3581.21
731.871	3476.77
732.057	3470.62
732.243	3487.01
732.429	3405.09
732.615	3540.26
732.801	3476.77
732.987	3552.54
733.173	3468.58
733.359	3548.45
733.545	3460.38
733.731	3448.1
733.917	3446.05
734.103	3390.75
734.289	3540.26
734.475	3480.86
734.661	3396.9
734.847	3454.24
735.033	3491.1
735.219	3345.7
735.404	3638.56
735.59	3491.1
735.776	3329.31
735.962	3390.75
736.148	3384.61
736.333	3349.79
736.519	3487.01
736.705	3444
736.89	3456.29
737.076	3384.61
737.262	3335.46
737.447	3390.75
737.633	3302.69
737.819	3425.57
738.004	3394.85
738.19	3226.92
738.375	3286.31
738.561	3278.12
738.747	3261.73
738.932	3179.81
739.118	3302.69
739.303	3249.44
739.489	3253.54
739.674	3249.44
739.859	3204.39
740.045	3308.83
740.23	3274.02
740.416	3083.56
740.601	3194.15
740.786	3167.53
740.972	3136.81
741.157	3210.53
741.342	3237.16
741.528	3159.33
741.713	3093.8
741.898	3126.57
742.084	3138.85
742.269	3210.53
742.454	3099.94
742.639	3222.82
742.824	2962.73
743.01	3128.61
743.195	3136.81
743.38	3067.17
743.565	3054.89
743.75	3044.65
743.935	2862.38
744.12	3065.13
744.305	3005.74
744.49	2829.61
744.675	2958.63
744.86	2972.97
745.045	2868.52
745.23	3007.78
745.415	2878.76
745.6	2876.71
745.785	2823.47
745.97	2868.52
746.155	2735.4
746.34	2739.5
746.525	2786.6
746.71	2893.1
746.895	2798.89
747.079	2807.08
747.264	2839.85
747.449	2821.42
747.634	2813.23
747.819	2647.34
748.003	2659.63
748.188	2606.38
748.373	2622.77
748.557	2506.03
748.742	2479.41
748.927	2610.48
749.111	2444.59
749.296	2483.5
749.481	2577.71
749.665	2651.44
749.85	2493.74
750.034	2446.64
750.219	2401.58
750.404	2393.39
750.588	2413.87
750.773	2370.87
750.957	2334
751.141	2383.15
751.326	2284.85
751.51	2352.43
751.695	2282.8
751.879	2336.05
752.064	2303.28
752.248	2262.32
752.432	2356.53
752.617	2256.18
752.801	2149.68
752.985	2342.19
753.17	2184.5
753.354	2110.77
753.538	2227.51
753.722	2147.64
753.907	2004.28
754.091	2202.93
754.275	2209.08
754.459	2061.62
754.643	1989.94
754.828	1983.8
755.012	1926.46
755.196	1983.8
755.38	1957.18
755.564	1924.41
755.748	1965.37
755.932	2032.95
756.116	1987.9
756.3	1951.03
756.484	1834.3
756.668	1815.87
756.852	1838.39
757.036	1916.22
757.22	1942.84
757.404	1815.87
757.588	1897.78
757.772	1807.67
757.956	1856.83
758.14	1834.3
758.323	1824.06
758.507	1854.78
758.691	1875.26
758.875	1754.43
759.059	1776.95
759.242	1772.86
759.426	1717.56
759.61	1725.75
759.794	1615.16
759.977	1686.84
760.161	1721.66
760.345	1760.57
760.528	1709.37
760.712	1572.16
760.895	1695.04
761.079	1537.34
761.263	1570.11
761.446	1568.06
761.63	1609.02
761.813	1652.03
761.997	1582.4
762.18	1537.34
762.364	1533.25
762.547	1541.44
762.731	1541.44
762.914	1516.86
763.098	1441.09
763.281	1396.03
763.464	1494.33
763.648	1504.57
763.831	1410.37
764.015	1436.99
764.198	1453.38
764.381	1502.53
764.564	1510.72
764.748	1353.02
764.931	1445.18
765.114	1432.9
765.297	1619.26
765.481	1328.45
765.664	1455.42
765.847	1500.48
766.03	1467.71
766.213	1389.89
766.397	1410.37
766.58	1350.98
766.763	1291.59
766.946	1369.41
767.129	1367.36
767.312	1283.39
767.495	1328.45
767.678	1334.59
767.861	1430.85
768.044	1252.67
768.227	1238.34
768.41	1269.06
768.593	1342.78
768.776	1299.78
768.959	1283.39
769.142	1258.82
769.324	1219.91
769.507	1217.86
769.69	1326.4
769.873	1228.1
770.056	1328.45
770.239	1236.29
770.421	1262.91
770.604	1160.52
770.787	1264.96
770.97	1275.2
771.152	1172.8
771.335	1146.18
771.518	1213.76
771.7	1168.71
771.883	1174.85
772.066	1152.32
772.248	1135.94
772.431	1109.32
772.613	1099.08
772.796	1156.42
772.978	1172.8
773.161	1105.22
773.343	1148.23
773.526	1021.25
773.708	1140.04
773.891	1066.31
774.073	1029.45
774.256	1097.03
774.438	1011.01
774.621	1113.41
774.803	1033.54
774.985	1000.77
775.168	976.2
775.35	1060.17
775.532	1072.45
775.715	918.86
775.897	1019.21
776.079	939.34
776.261	1062.21
776.444	1033.54
776.626	1037.64
776.808	949.57
776.99	931.14
777.173	982.34
777.355	947.53
777.537	986.44
777.719	857.42
777.901	947.53
778.083	931.14
778.265	881.99
778.447	855.37
778.629	861.51
778.811	879.94
778.993	937.29
779.175	904.52
779.357	855.37
779.539	881.99
779.721	877.9
779.903	820.55
780.085	836.94
780.267	724.3
780.449	851.27
780.631	814.41
780.812	800.07
780.994	812.36
781.176	755.02
781.358	718.15
781.54	783.69
781.721	836.94
781.903	834.89
782.085	736.59
782.267	761.16
782.448	703.82
782.63	752.97
782.812	701.77
782.993	755.02
783.175	716.11
783.357	644.43
783.538	619.85
783.72	634.19
783.901	767.31
784.083	707.91
784.264	673.1
784.446	681.29
784.627	642.38
784.809	709.96
784.99	685.39
785.172	609.61
785.353	650.57
785.535	744.78
785.716	566.6
785.897	675.15
786.079	587.08
786.26	638.28
786.441	654.67
786.623	593.23
786.804	505.17
786.985	525.65
787.167	566.6
787.348	636.24
787.529	574.8
787.71	593.23
787.891	623.95
788.073	585.04
788.254	513.36
788.435	527.69
788.616	562.51
788.797	542.03
788.978	517.45
789.159	537.93
789.34	580.94
789.522	441.68
789.703	441.68
789.884	542.03
790.065	537.93
790.246	597.32
790.427	415.06
790.607	605.52
790.788	582.99
790.969	476.49
791.15	386.38
791.331	478.54
791.512	464.21
791.693	417.1
791.874	427.34
792.054	523.6
792.235	488.78
792.416	400.72
792.597	423.25
792.778	470.35
792.958	453.97
793.139	449.87
793.32	439.63
793.5	429.39
793.681	439.63
793.862	429.39
794.042	433.49
794.223	365.9
794.404	423.25
794.584	443.73
794.765	521.55
794.945	439.63
795.126	394.58
795.306	470.35
795.487	361.81
795.667	398.67
795.848	386.38
796.028	392.53
796.209	349.52
796.389	378.19
796.57	345.42
796.75	419.15
796.93	374.1
797.111	333.14
797.291	392.53
797.471	464.21
797.652	451.92
797.832	335.18
798.012	382.29
798.192	359.76
798.373	359.76
798.553	372.05
798.733	386.38
798.913	363.86
799.093	253.27
799.274	361.81
799.454	415.06
799.634	300.37
799.814	410.96
799.994	290.13
800.174	353.62
800.354	292.18
800.534	277.84
800.714	251.22
800.894	353.62
801.074	267.6
801.254	374.1
801.434	429.39
801.614	306.51
801.794	312.66
801.974	804.17
802.154	294.22
802.334	331.09
802.514	347.47
802.693	359.76
802.873	261.46
803.053	410.96
803.233	296.27
803.413	353.62
803.592	343.38
803.772	300.37
803.952	335.18
804.131	349.52
804.311	259.41
804.491	339.28
804.67	283.99
804.85	210.26
805.03	384.34
805.209	322.9
805.389	316.75
805.568	255.31
805.748	292.18
805.928	296.27
806.107	263.51
806.287	273.75
806.466	294.22
806.646	304.46
806.825	255.31
807.004	277.84
807.184	255.31
807.363	232.79
807.543	275.79
807.722	337.23
807.901	304.46
808.081	275.79
808.26	243.03
808.439	208.21
808.619	253.27
808.798	261.46
808.977	263.51
809.156	212.31
809.336	290.13
809.515	302.42
809.694	206.16
809.873	251.22
810.052	189.78
810.231	204.11
810.411	218.45
810.59	273.75
810.769	251.22
810.948	249.17
811.127	208.21
811.306	208.21
811.485	189.78
811.664	253.27
811.843	195.92
812.022	238.93
812.201	197.97
812.38	292.18
812.559	200.02
812.737	261.46
812.916	220.5
813.095	218.45
813.274	218.45
813.453	210.26
813.632	218.45
813.811	259.41
813.989	152.92
814.168	236.88
814.347	169.3
814.526	148.82
814.704	234.83
814.883	218.45
815.062	240.98
815.24	191.83
815.419	214.35
815.598	165.2
815.776	154.96
815.955	236.88
816.133	187.73
816.312	234.83
816.49	226.64
816.669	181.59
816.847	249.17
817.026	277.84
817.204	234.83
817.383	206.16
817.561	230.74
817.74	165.2
817.918	224.59
818.097	232.79
818.275	189.78
818.453	187.73
818.632	212.31
818.81	152.92
818.988	171.35
819.167	124.24
819.345	128.34
819.523	116.05
819.701	179.54
819.879	189.78
820.058	191.83
820.236	175.44
820.414	163.15
820.592	185.68
820.77	138.58
820.948	140.63
821.127	185.68
821.305	224.59
821.483	157.01
821.661	136.53
821.839	91.48
822.017	202.07
822.195	202.07
822.373	128.34
822.551	152.92
822.729	193.87
822.907	230.74
823.085	91.48
823.262	163.15
823.44	161.11
823.618	206.16
823.796	128.34
823.974	177.49
824.152	218.45
824.329	132.44
824.507	101.72
824.685	185.68
824.863	118.1
825.04	116.05
825.218	275.79
825.396	120.15
825.574	197.97
825.751	210.26
825.929	124.24
826.107	101.72
826.284	163.15
826.462	197.97
826.639	105.81
826.817	126.29
826.994	154.96
827.172	73.04
827.349	132.44
827.527	122.2
827.704	152.92
827.882	132.44
828.059	175.44
828.237	111.96
828.414	97.62
828.591	99.67
828.769	126.29
828.946	152.92
829.124	152.92
829.301	107.86
829.478	95.57
829.655	105.81
829.833	150.87
830.01	93.52
830.187	132.44
830.364	111.96
830.542	154.96
830.719	175.44
830.896	130.39
831.073	146.77
831.25	122.2
831.427	124.24
831.604	140.63
831.782	163.15
831.959	79.19
832.136	105.81
832.313	93.52
832.49	89.43
832.667	118.1
832.844	60.76
833.021	109.91
833.198	46.42
833.374	200.02
833.551	130.39
833.728	103.76
833.905	111.96
834.082	83.28
834.259	79.19
834.436	120.15
834.612	42.32
834.789	105.81
834.966	81.24
835.143	89.43
835.319	130.39
835.496	105.81
835.673	103.76
835.85	150.87
836.026	81.24
836.203	138.58
836.38	81.24
836.556	107.86
836.733	105.81
836.909	189.78
837.086	56.66
837.262	48.47
837.439	66.9
837.616	83.28
837.792	124.24
837.968	56.66
838.145	58.71
838.321	83.28
838.498	124.24
838.674	187.73
838.851	95.57
839.027	38.23
839.203	89.43
839.38	42.32
839.556	19.8
839.732	83.28
839.909	48.47
840.085	167.25
840.261	77.14
840.437	154.96
840.614	132.44
840.79	89.43
840.966	95.57
841.142	97.62
841.318	93.52
841.494	107.86
841.671	144.72
841.847	111.96
842.023	64.85
842.199	85.33
842.375	75.09
842.551	30.04
842.727	111.96
842.903	103.76
843.079	9.56
843.255	83.28
843.431	34.13
843.607	111.96
843.783	-21.16
843.959	66.9
844.134	66.9
844.31	95.57
844.486	25.94
844.662	150.87
844.838	83.28
845.013	83.28
845.189	122.2
845.365	105.81
845.541	122.2
845.716	48.47
845.892	60.76
846.068	64.85
846.244	87.38
846.419	42.32
846.595	95.57
846.77	44.37
846.946	27.99
847.122	95.57
847.297	64.85
847.473	56.66
847.648	64.85
847.824	23.89
847.999	44.37
848.175	32.08
848.35	7.51
848.526	79.19
848.701	81.24
848.876	126.29
849.052	140.63
849.227	-6.83
849.403	30.04
849.578	111.96
849.753	13.65
849.929	87.38
850.104	56.66
850.279	19.8
850.454	111.96
850.63	93.52
850.805	116.05
850.98	99.67
851.155	189.78
851.33	73.04
851.505	25.94
851.681	60.76
851.856	25.94
852.031	36.18
852.206	73.04
852.381	30.04
852.556	42.32
852.731	140.63
852.906	-23.21
853.081	87.38
853.256	91.48
853.431	75.09
853.606	109.91
853.781	66.9
853.956	-10.92
854.131	142.68
854.305	38.23
854.48	73.04
854.655	-21.16
854.83	52.56
855.005	50.52
855.18	73.04
855.354	66.9
855.529	89.43
855.704	-0.68
855.879	1.37
856.053	118.1
856.228	105.81
856.403	56.66
856.577	34.13
856.752	-0.68
856.926	66.9
857.101	62.8
857.276	42.32
857.45	-8.87
857.625	87.38
857.799	118.1
857.974	48.47
858.148	66.9
858.323	32.08
858.497	126.29
858.672	81.24
858.846	-6.83
859.02	101.72
859.195	71
859.369	9.56
859.543	85.33
859.718	75.09
859.892	50.52
860.066	23.89
860.241	-23.21
860.415	64.85
860.589	44.37
860.763	91.48
860.938	40.28
861.112	107.86
861.286	118.1
861.46	81.24
861.634	19.8
861.808	13.65
861.982	38.23
862.157	-58.03
862.331	58.71
862.505	-2.73
862.679	-31.4
862.853	32.08
863.027	40.28
863.201	116.05
863.375	66.9
863.549	56.66
863.722	9.56
863.896	52.56
864.07	50.52
864.244	-17.07
864.418	64.85
864.592	9.56
864.766	30.04
864.939	50.52
865.113	34.13
865.287	-6.83
865.461	17.75
865.634	30.04
865.808	19.8
865.982	38.23
866.156	-49.83
866.329	-29.35
866.503	-0.68
866.676	50.52
866.85	1.37
867.024	-8.87
867.197	-47.79
867.371	-8.87
867.544	50.52
867.718	64.85
867.891	62.8
868.065	19.8
868.238	64.85
868.412	126.29
868.585	5.46
868.759	34.13
868.932	25.94
869.105	52.56
869.279	21.85
869.452	-12.97
869.625	79.19
869.799	21.85
869.972	36.18
870.145	13.65
870.319	44.37
870.492	-35.5
870.665	-19.11
870.838	44.37
871.011	25.94
871.185	75.09
871.358	-0.68
871.531	32.08
871.704	89.43
871.877	44.37
872.05	-10.92
872.223	30.04
872.396	17.75
872.569	-0.68
872.742	-66.22
872.915	79.19
873.088	42.32
873.261	32.08
873.434	97.62
873.607	38.23
873.78	81.24
873.953	-10.92
874.126	-10.92
874.299	34.13
874.471	21.85
874.644	-17.07
874.817	87.38
874.99	32.08
875.163	11.61
875.335	62.8
875.508	-10.92
875.681	42.32
875.853	58.71
876.026	60.76
876.199	87.38
876.371	40.28
876.544	19.8
876.717	23.89
876.889	-10.92
877.062	71
877.234	-41.64
877.407	30.04
877.579	-45.74
877.752	48.47
877.924	50.52
878.097	52.56
878.269	56.66
878.442	-33.45
878.614	3.41
878.786	-6.83
878.959	62.8
879.131	-2.73
879.303	-39.59
879.476	58.71
879.648	-4.78
879.82	21.85
879.993	30.04
880.165	21.85
880.337	-8.87
880.509	25.94
880.681	27.99
880.854	23.89
881.026	124.24
881.198	91.48
881.37	46.42
881.542	-53.93
881.714	9.56
881.886	1.37
882.058	-84.65
882.23	-27.31
882.402	5.46
882.574	66.9
882.746	-15.02
882.918	73.04
883.09	25.94
883.262	13.65
883.434	36.18
883.606	19.8
883.778	9.56
883.95	132.44
884.122	-39.59
884.293	46.42
884.465	1.37
884.637	32.08
884.809	9.56
884.98	42.32
885.152	17.75
885.324	27.99
885.496	34.13
885.667	-0.68
885.839	7.51
886.011	40.28
886.182	34.13
886.354	46.42
886.525	11.61
886.697	19.8
886.869	-15.02
887.04	25.94
887.212	-0.68
887.383	1.37
887.555	-37.55
887.726	-35.5
887.897	-2.73
888.069	-17.07
888.24	5.46
888.412	-6.83
888.583	-35.5
888.754	-47.79
888.926	-49.83
889.097	5.46
889.268	-19.11
889.44	-27.31
889.611	3.41
889.782	-17.07
889.953	34.13
890.125	36.18
890.296	-6.83
890.467	-8.87
890.638	23.89
890.809	40.28
890.98	-41.64
891.151	-35.5
891.323	-23.21
891.494	-6.83
891.665	-33.45
891.836	-0.68
892.007	48.47
892.178	25.94
892.349	-6.83
892.52	-10.92
892.691	36.18
892.862	21.85
893.032	-19.11
893.203	-8.87
893.374	-47.79
893.545	-47.79
893.716	1.37
893.887	-6.83
894.057	-19.11
894.228	5.46
894.399	-31.4
894.57	99.67
894.74	-27.31
894.911	40.28
895.082	5.46
895.253	79.19
895.423	15.7
895.594	107.86
895.764	38.23
895.935	9.56
896.106	-31.4
896.276	73.04
896.447	-47.79
896.617	15.7
896.788	105.81
896.958	50.52
897.129	11.61
897.299	-72.36
897.47	56.66
897.64	46.42
897.81	-8.87
897.981	46.42
898.151	-25.26
898.322	36.18
898.492	9.56
898.662	5.46
898.832	107.86
899.003	66.9
899.173	71
899.343	-58.03
899.513	-4.78
