Data from USB4F104151__262__10-40-18-895.txt Node

Date: Wed Mar 12 10:40:18 EDT 2025
User: louis
Spectrometer: USB4F10415
Trigger mode: 4
Integration Time (sec): 3.000000E-2
Scans to average: 1
Electric dark correction enabled: true
Nonlinearity correction enabled: false
Boxcar width: 0
XAxis mode: Wavelengths
Number of Pixels in Spectrum: 3648
>>>>>Begin Spectral Data<<<<<
178.204	-99.84
178.424	-99.84
178.644	-99.84
178.864	-56.83
179.084	-52.74
179.304	-5.63
179.524	45.57
179.744	35.33
179.964	-38.4
180.184	-24.06
180.404	10.75
180.624	-50.69
180.844	0.51
181.064	-83.45
181.283	41.47
181.503	23.04
181.723	45.57
181.943	-28.16
182.163	68.09
182.383	-46.59
182.602	61.95
182.822	59.9
183.042	84.48
183.262	53.76
183.482	68.09
183.701	8.7
183.921	0.51
184.141	25.09
184.361	29.18
184.58	29.18
184.8	66.05
185.02	31.23
185.239	61.95
185.459	82.43
185.679	39.42
185.898	-24.06
186.118	78.33
186.338	18.94
186.557	78.33
186.777	49.66
186.997	57.86
187.216	82.43
187.436	100.86
187.655	57.86
187.875	70.14
188.095	104.96
188.314	35.33
188.534	74.24
188.753	-42.5
188.973	35.33
189.192	125.44
189.412	72.19
189.631	-30.21
189.851	-7.68
190.07	82.43
190.29	0.51
190.509	0.51
190.729	33.28
190.948	33.28
191.168	102.91
191.387	61.95
191.607	10.75
191.826	12.8
192.045	37.38
192.265	-3.58
192.484	43.52
192.704	61.95
192.923	-3.58
193.142	88.57
193.362	53.76
193.581	94.72
193.8	55.81
194.02	-7.68
194.239	72.19
194.458	35.33
194.678	20.99
194.897	23.04
195.116	18.94
195.335	35.33
195.555	20.99
195.774	74.24
195.993	66.05
196.212	80.38
196.432	8.7
196.651	86.53
196.87	25.09
197.089	137.73
197.308	53.76
197.528	43.52
197.747	14.85
197.966	94.72
198.185	111.1
198.404	-5.63
198.623	45.57
198.842	80.38
199.062	59.9
199.281	90.62
199.5	74.24
199.719	94.72
199.938	-22.02
200.157	68.09
200.376	27.14
200.595	111.1
200.814	-9.73
201.033	102.91
201.252	66.05
201.471	8.7
201.69	119.29
201.909	41.47
202.128	72.19
202.347	115.2
202.566	72.19
202.785	107.01
203.004	6.66
203.223	166.4
203.442	82.43
203.661	29.18
203.879	64
204.098	78.33
204.317	6.66
204.536	23.04
204.755	18.94
204.974	117.25
205.193	64
205.411	143.87
205.63	47.62
205.849	72.19
206.068	55.81
206.287	66.05
206.505	45.57
206.724	57.86
206.943	-3.58
207.162	16.9
207.381	47.62
207.599	55.81
207.818	70.14
208.037	8.7
208.255	76.29
208.474	66.05
208.693	0.51
208.911	35.33
209.13	37.38
209.349	-7.68
209.567	98.81
209.786	74.24
210.005	104.96
210.223	-30.21
210.442	45.57
210.661	123.39
210.879	20.99
211.098	31.23
211.316	49.66
211.535	47.62
211.753	55.81
211.972	96.77
212.191	45.57
212.409	86.53
212.628	51.71
212.846	39.42
213.065	90.62
213.283	125.44
213.502	43.52
213.72	94.72
213.938	-56.83
214.157	82.43
214.375	-7.68
214.594	104.96
214.812	127.49
215.031	66.05
215.249	-11.78
215.467	-19.97
215.686	23.04
215.904	115.2
216.122	2.56
216.341	57.86
216.559	45.57
216.778	147.97
216.996	68.09
217.214	84.48
217.432	78.33
217.651	33.28
217.869	55.81
218.087	57.86
218.306	64
218.524	37.38
218.742	12.8
218.96	70.14
219.179	109.05
219.397	33.28
219.615	53.76
219.833	98.81
220.051	-48.64
220.27	96.77
220.488	145.92
220.706	23.04
220.924	55.81
221.142	20.99
221.36	0.51
221.578	115.2
221.796	6.66
222.015	-13.82
222.233	27.14
222.451	37.38
222.669	20.99
222.887	-11.78
223.105	20.99
223.323	23.04
223.541	-22.02
223.759	2.56
223.977	16.9
224.195	37.38
224.413	78.33
224.631	23.04
224.849	45.57
225.067	78.33
225.285	113.15
225.503	45.57
225.721	59.9
225.939	84.48
226.157	98.81
226.375	201.21
226.592	39.42
226.81	27.14
227.028	59.9
227.246	33.28
227.464	57.86
227.682	61.95
227.9	96.77
228.117	64
228.335	43.52
228.553	80.38
228.771	37.38
228.989	78.33
229.206	55.81
229.424	129.53
229.642	90.62
229.86	-32.26
230.077	74.24
230.295	64
230.513	35.33
230.731	41.47
230.948	104.96
231.166	6.66
231.384	20.99
231.601	16.9
231.819	98.81
232.037	29.18
232.254	25.09
232.472	74.24
232.689	53.76
232.907	31.23
233.125	84.48
233.342	104.96
233.56	57.86
233.777	45.57
233.995	70.14
234.213	160.25
234.43	23.04
234.648	94.72
234.865	53.76
235.083	74.24
235.3	123.39
235.518	113.15
235.735	96.77
235.953	100.86
236.17	113.15
236.388	137.73
236.605	88.57
236.822	127.49
237.04	88.57
237.257	29.18
237.475	10.75
237.692	121.34
237.909	47.62
238.127	0.51
238.344	76.29
238.562	78.33
238.779	-15.87
238.996	-52.74
239.214	92.67
239.431	78.33
239.648	78.33
239.865	92.67
240.083	8.7
240.3	4.61
240.517	37.38
240.735	41.47
240.952	29.18
241.169	102.91
241.386	82.43
241.603	98.81
241.821	-15.87
242.038	-28.16
242.255	25.09
242.472	-7.68
242.689	64
242.907	82.43
243.124	16.9
243.341	35.33
243.558	41.47
243.775	0.51
243.992	-7.68
244.209	72.19
244.426	107.01
244.643	129.53
244.86	57.86
245.078	14.85
245.295	107.01
245.512	94.72
245.729	25.09
245.946	135.68
246.163	49.66
246.38	-3.58
246.597	64
246.814	55.81
247.031	66.05
247.248	-7.68
247.464	82.43
247.681	111.1
247.898	57.86
248.115	61.95
248.332	39.42
248.549	43.52
248.766	88.57
248.983	143.87
249.2	137.73
249.417	107.01
249.633	80.38
249.85	80.38
250.067	59.9
250.284	59.9
250.501	72.19
250.717	37.38
250.934	-22.02
251.151	37.38
251.368	29.18
251.585	25.09
251.801	51.71
252.018	-44.54
252.235	74.24
252.451	0.51
252.668	-15.87
252.885	72.19
253.102	82.43
253.318	33.28
253.535	47.62
253.752	37.38
253.968	102.91
254.185	61.95
254.401	78.33
254.618	80.38
254.835	16.9
255.051	88.57
255.268	92.67
255.484	27.14
255.701	45.57
255.917	102.91
256.134	-32.26
256.351	39.42
256.567	59.9
256.784	72.19
257	104.96
257.217	117.25
257.433	90.62
257.65	61.95
257.866	92.67
258.082	98.81
258.299	8.7
258.515	27.14
258.732	45.57
258.948	53.76
259.165	14.85
259.381	35.33
259.597	41.47
259.814	57.86
260.03	88.57
260.246	115.2
260.463	55.81
260.679	80.38
260.895	18.94
261.112	39.42
261.328	109.05
261.544	33.28
261.761	8.7
261.977	-28.16
262.193	45.57
262.409	90.62
262.626	94.72
262.842	8.7
263.058	20.99
263.274	74.24
263.49	82.43
263.707	109.05
263.923	53.76
264.139	-112.13
264.355	57.86
264.571	115.2
264.787	68.09
265.004	100.86
265.22	8.7
265.436	14.85
265.652	74.24
265.868	125.44
266.084	-28.16
266.3	82.43
266.516	70.14
266.732	111.1
266.948	37.38
267.164	76.29
267.38	55.81
267.596	160.25
267.812	94.72
268.028	68.09
268.244	25.09
268.46	55.81
268.676	20.99
268.892	35.33
269.108	12.8
269.324	68.09
269.54	18.94
269.756	94.72
269.972	16.9
270.188	25.09
270.403	-3.58
270.619	156.16
270.835	53.76
271.051	-7.68
271.267	64
271.483	6.66
271.698	16.9
271.914	51.71
272.13	23.04
272.346	86.53
272.562	68.09
272.777	102.91
272.993	-52.74
273.209	-3.58
273.425	94.72
273.64	37.38
273.856	145.92
274.072	10.75
274.287	135.68
274.503	109.05
274.719	94.72
274.934	74.24
275.15	98.81
275.366	-9.73
275.581	31.23
275.797	39.42
276.012	41.47
276.228	70.14
276.444	0.51
276.659	57.86
276.875	68.09
277.09	102.91
277.306	16.9
277.521	86.53
277.737	-3.58
277.952	107.01
278.168	64
278.383	29.18
278.599	-30.21
278.814	168.45
279.03	39.42
279.245	107.01
279.461	78.33
279.676	190.97
279.892	-22.02
280.107	66.05
280.322	64
280.538	25.09
280.753	-5.63
280.969	47.62
281.184	43.52
281.399	78.33
281.615	53.76
281.83	143.87
282.045	8.7
282.26	-24.06
282.476	84.48
282.691	152.06
282.906	72.19
283.122	-26.11
283.337	47.62
283.552	113.15
283.767	-3.58
283.983	10.75
284.198	76.29
284.413	41.47
284.628	53.76
284.843	39.42
285.058	64
285.274	74.24
285.489	55.81
285.704	68.09
285.919	39.42
286.134	70.14
286.349	33.28
286.564	6.66
286.779	90.62
286.995	14.85
287.21	29.18
287.425	33.28
287.64	88.57
287.855	-3.58
288.07	-15.87
288.285	209.4
288.5	16.9
288.715	45.57
288.93	76.29
289.145	31.23
289.36	43.52
289.575	6.66
289.79	45.57
290.004	49.66
290.219	72.19
290.434	59.9
290.649	8.7
290.864	-32.26
291.079	61.95
291.294	147.97
291.509	74.24
291.724	37.38
291.938	57.86
292.153	102.91
292.368	-13.82
292.583	57.86
292.798	2.56
293.012	25.09
293.227	-15.87
293.442	72.19
293.657	125.44
293.871	88.57
294.086	49.66
294.301	86.53
294.516	25.09
294.73	117.25
294.945	23.04
295.16	64
295.374	76.29
295.589	113.15
295.804	61.95
296.018	29.18
296.233	70.14
296.447	-36.35
296.662	4.61
296.877	80.38
297.091	104.96
297.306	41.47
297.52	119.29
297.735	57.86
297.949	49.66
298.164	84.48
298.378	94.72
298.593	-62.98
298.807	16.9
299.022	131.58
299.236	78.33
299.451	16.9
299.665	72.19
299.88	45.57
300.094	29.18
300.309	100.86
300.523	104.96
300.737	35.33
300.952	74.24
301.166	43.52
301.381	-1.54
301.595	16.9
301.809	86.53
302.024	113.15
302.238	70.14
302.452	68.09
302.667	78.33
302.881	8.7
303.095	84.48
303.309	129.53
303.524	80.38
303.738	76.29
303.952	37.38
304.166	27.14
304.381	-36.35
304.595	43.52
304.809	55.81
305.023	84.48
305.237	23.04
305.452	109.05
305.666	55.81
305.88	100.86
306.094	86.53
306.308	49.66
306.522	98.81
306.736	57.86
306.95	100.86
307.164	86.53
307.379	14.85
307.593	152.06
307.807	64
308.021	43.52
308.235	6.66
308.449	53.76
308.663	0.51
308.877	84.48
309.091	72.19
309.305	147.97
309.519	-19.97
309.733	88.57
309.947	107.01
310.161	127.49
310.374	45.57
310.588	94.72
310.802	86.53
311.016	82.43
311.23	125.44
311.444	6.66
311.658	12.8
311.872	53.76
312.085	39.42
312.299	39.42
312.513	64
312.727	37.38
312.941	78.33
313.154	78.33
313.368	113.15
313.582	33.28
313.796	90.62
314.009	27.14
314.223	57.86
314.437	102.91
314.651	49.66
314.864	4.61
315.078	10.75
315.292	90.62
315.505	0.51
315.719	107.01
315.933	123.39
316.146	16.9
316.36	57.86
316.573	88.57
316.787	72.19
317.001	123.39
317.214	74.24
317.428	115.2
317.641	18.94
317.855	92.67
318.068	61.95
318.282	109.05
318.495	82.43
318.709	129.53
318.922	70.14
319.136	76.29
319.349	82.43
319.563	90.62
319.776	-32.26
319.99	51.71
320.203	94.72
320.417	53.76
320.63	57.86
320.843	164.35
321.057	33.28
321.27	66.05
321.483	70.14
321.697	123.39
321.91	111.1
322.124	107.01
322.337	70.14
322.55	64
322.763	72.19
322.977	70.14
323.19	70.14
323.403	72.19
323.617	135.68
323.83	33.28
324.043	0.51
324.256	104.96
324.469	35.33
324.683	49.66
324.896	59.9
325.109	131.58
325.322	72.19
325.535	72.19
325.748	35.33
325.962	100.86
326.175	4.61
326.388	29.18
326.601	107.01
326.814	117.25
327.027	-7.68
327.24	107.01
327.453	-28.16
327.666	78.33
327.879	31.23
328.092	70.14
328.305	92.67
328.518	61.95
328.731	86.53
328.944	80.38
329.157	29.18
329.37	31.23
329.583	82.43
329.796	47.62
330.009	49.66
330.222	25.09
330.435	109.05
330.648	145.92
330.861	55.81
331.073	66.05
331.286	109.05
331.499	104.96
331.712	18.94
331.925	88.57
332.138	113.15
332.35	135.68
332.563	14.85
332.776	53.76
332.989	-7.68
333.202	154.11
333.414	119.29
333.627	51.71
333.84	80.38
334.053	98.81
334.265	29.18
334.478	66.05
334.691	78.33
334.903	47.62
335.116	18.94
335.329	78.33
335.541	88.57
335.754	109.05
335.966	102.91
336.179	33.28
336.392	90.62
336.604	8.7
336.817	94.72
337.029	57.86
337.242	115.2
337.454	98.81
337.667	82.43
337.88	111.1
338.092	156.16
338.305	78.33
338.517	49.66
338.729	82.43
338.942	80.38
339.154	16.9
339.367	45.57
339.579	37.38
339.792	14.85
340.004	68.09
340.217	90.62
340.429	86.53
340.641	43.52
340.854	92.67
341.066	102.91
341.278	139.77
341.491	119.29
341.703	119.29
341.915	0.51
342.128	125.44
342.34	84.48
342.552	80.38
342.764	49.66
342.977	55.81
343.189	45.57
343.401	139.77
343.613	86.53
343.826	74.24
344.038	98.81
344.25	102.91
344.462	49.66
344.674	78.33
344.886	0.51
345.099	53.76
345.311	78.33
345.523	66.05
345.735	39.42
345.947	39.42
346.159	66.05
346.371	57.86
346.583	90.62
346.795	139.77
347.007	41.47
347.219	96.77
347.431	29.18
347.643	121.34
347.855	49.66
348.067	100.86
348.279	57.86
348.491	94.72
348.703	131.58
348.915	61.95
349.127	12.8
349.339	64
349.551	-9.73
349.763	39.42
349.975	55.81
350.187	86.53
350.399	129.53
350.61	98.81
350.822	-3.58
351.034	80.38
351.246	35.33
351.458	100.86
351.669	57.86
351.881	43.52
352.093	51.71
352.305	57.86
352.517	49.66
352.728	107.01
352.94	109.05
353.152	25.09
353.363	96.77
353.575	84.48
353.787	49.66
353.999	35.33
354.21	45.57
354.422	57.86
354.633	53.76
354.845	64
355.057	72.19
355.268	74.24
355.48	115.2
355.692	68.09
355.903	4.61
356.115	53.76
356.326	57.86
356.538	66.05
356.749	29.18
356.961	94.72
357.172	-58.88
357.384	10.75
357.595	156.16
357.807	23.04
358.018	131.58
358.23	35.33
358.441	158.21
358.653	45.57
358.864	109.05
359.075	12.8
359.287	0.51
359.498	98.81
359.709	61.95
359.921	61.95
360.132	39.42
360.344	88.57
360.555	25.09
360.766	145.92
360.977	29.18
361.189	90.62
361.4	-11.78
361.611	72.19
361.823	96.77
362.034	51.71
362.245	33.28
362.456	70.14
362.667	104.96
362.879	2.56
363.09	117.25
363.301	80.38
363.512	37.38
363.723	80.38
363.935	113.15
364.146	29.18
364.357	55.81
364.568	76.29
364.779	41.47
364.99	143.87
365.201	84.48
365.412	129.53
365.623	35.33
365.834	131.58
366.045	72.19
366.256	74.24
366.467	121.34
366.678	72.19
366.889	109.05
367.1	158.21
367.311	156.16
367.522	51.71
367.733	127.49
367.944	82.43
368.155	39.42
368.366	131.58
368.577	125.44
368.788	74.24
368.999	76.29
369.209	51.71
369.42	176.64
369.631	125.44
369.842	43.52
370.053	10.75
370.264	129.53
370.474	25.09
370.685	74.24
370.896	18.94
371.107	109.05
371.317	90.62
371.528	86.53
371.739	86.53
371.95	94.72
372.16	133.63
372.371	66.05
372.582	139.77
372.792	94.72
373.003	86.53
373.214	129.53
373.424	74.24
373.635	16.9
373.846	102.91
374.056	94.72
374.267	127.49
374.477	109.05
374.688	51.71
374.898	37.38
375.109	72.19
375.319	88.57
375.53	129.53
375.74	33.28
375.951	-15.87
376.161	115.2
376.372	141.82
376.582	4.61
376.793	115.2
377.003	23.04
377.214	182.78
377.424	160.25
377.635	61.95
377.845	0.51
378.055	76.29
378.266	-1.54
378.476	55.81
378.686	47.62
378.897	80.38
379.107	137.73
379.317	131.58
379.528	12.8
379.738	121.34
379.948	70.14
380.158	125.44
380.369	39.42
380.579	174.59
380.789	115.2
380.999	66.05
381.21	147.97
381.42	147.97
381.63	72.19
381.84	113.15
382.05	94.72
382.261	98.81
382.471	16.9
382.681	100.86
382.891	109.05
383.101	57.86
383.311	55.81
383.521	57.86
383.731	123.39
383.941	123.39
384.151	94.72
384.361	121.34
384.571	55.81
384.781	168.45
384.991	51.71
385.201	156.16
385.411	107.01
385.621	102.91
385.831	66.05
386.041	170.49
386.251	72.19
386.461	111.1
386.671	64
386.881	188.93
387.091	10.75
387.301	80.38
387.511	121.34
387.72	96.77
387.93	53.76
388.14	-24.06
388.35	72.19
388.56	102.91
388.769	68.09
388.979	121.34
389.189	29.18
389.399	51.71
389.609	100.86
389.818	82.43
390.028	45.57
390.238	141.82
390.447	117.25
390.657	147.97
390.867	47.62
391.076	2.56
391.286	115.2
391.496	109.05
391.705	104.96
391.915	133.63
392.125	80.38
392.334	147.97
392.544	156.16
392.753	57.86
392.963	107.01
393.172	53.76
393.382	98.81
393.591	107.01
393.801	74.24
394.01	121.34
394.22	119.29
394.429	133.63
394.639	147.97
394.848	125.44
395.058	139.77
395.267	143.87
395.477	102.91
395.686	86.53
395.895	150.01
396.105	158.21
396.314	152.06
396.524	37.38
396.733	72.19
396.942	154.11
397.152	195.07
397.361	211.45
397.57	115.2
397.78	162.3
397.989	150.01
398.198	164.35
398.407	64
398.617	78.33
398.826	135.68
399.035	160.25
399.244	152.06
399.453	123.39
399.663	207.36
399.872	154.11
400.081	137.73
400.29	164.35
400.499	104.96
400.708	176.64
400.917	170.49
401.127	123.39
401.336	115.2
401.545	170.49
401.754	129.53
401.963	176.64
402.172	78.33
402.381	180.73
402.59	152.06
402.799	162.3
403.008	186.88
403.217	197.12
403.426	197.12
403.635	219.64
403.844	176.64
404.053	266.75
404.262	137.73
404.471	197.12
404.68	176.64
404.888	104.96
405.097	176.64
405.306	221.69
405.515	272.89
405.724	172.54
405.933	231.93
406.142	199.16
406.35	254.46
406.559	201.21
406.768	254.46
406.977	324.09
407.185	336.38
407.394	223.74
407.603	268.8
407.812	279.04
408.02	358.91
408.229	279.04
408.438	295.42
408.646	242.17
408.855	287.23
409.064	289.28
409.272	328.19
409.481	354.81
409.69	344.57
409.898	352.76
410.107	444.92
410.315	344.57
410.524	344.57
410.733	449.02
410.941	422.39
411.15	449.02
411.358	500.22
411.567	578.04
411.775	461.3
411.984	543.22
412.192	631.29
412.401	541.18
412.609	530.94
412.818	639.48
413.026	702.97
413.234	518.65
413.443	487.93
413.651	657.91
413.86	694.77
414.068	696.82
414.276	825.84
414.485	702.97
414.693	741.88
414.901	809.46
415.11	928.24
415.318	860.66
415.526	852.47
415.734	991.73
415.943	946.67
416.151	987.63
416.359	1032.69
416.567	1069.55
416.776	1174
416.984	1176.05
417.192	1204.72
417.4	1178.09
417.608	1208.81
417.817	1286.64
418.025	1294.83
418.233	1417.71
418.441	1343.98
418.649	1481.19
418.857	1548.78
419.065	1530.34
419.273	1532.39
419.481	1647.08
419.689	1786.34
419.897	1772
420.105	1845.73
420.313	1819.11
420.521	1968.61
420.729	2077.15
420.937	2099.68
421.145	2105.82
421.353	2275.81
421.561	2327
421.769	2271.71
421.977	2525.66
422.185	2472.41
422.393	2505.18
422.601	2701.78
422.809	2703.83
423.017	2816.47
423.224	2943.44
423.432	2853.33
423.64	3072.47
423.848	3375.56
424.056	3168.72
424.263	3459.53
424.471	3566.03
424.679	3394
424.887	3688.9
425.094	3701.19
425.302	3860.93
425.51	4037.06
425.718	4108.74
425.925	4200.9
426.133	4202.94
426.341	4487.61
426.548	4710.84
426.756	4628.92
426.964	4903.35
427.171	5145.01
427.379	5171.63
427.586	5231.02
427.794	5566.89
428.001	5869.99
428.209	6019.49
428.417	5831.08
428.624	6324.64
428.832	6259.1
429.039	6330.78
429.247	6134.18
429.454	6865.3
429.662	7131.54
429.869	6627.74
430.076	7254.42
430.284	7131.54
430.491	7602.57
430.699	7821.7
430.906	7797.13
431.114	8001.93
431.321	8245.63
431.528	8497.53
431.736	8855.93
431.943	9298.29
432.15	9148.79
432.358	9191.8
432.565	9767.27
432.772	9697.64
432.979	10262.88
433.187	10408.29
433.394	10461.54
433.601	11120.98
433.808	11323.73
434.016	10981.72
434.223	11608.4
434.43	12349.76
434.637	12081.48
434.844	12654.91
435.052	13013.31
435.259	12833.08
435.466	13050.17
435.673	12972.35
435.88	13779.25
436.087	14481.7
436.294	14455.08
436.501	14354.72
436.708	14440.74
436.915	14752.03
437.122	15833.36
437.329	15497.49
437.537	16048.4
437.743	16357.64
437.95	16101.64
438.157	17268.98
438.364	17807.6
438.571	17606.9
438.778	17670.39
438.985	19321.05
439.192	18841.82
439.399	19275.99
439.606	18819.3
439.813	19921.1
440.02	21057.73
440.227	20773.06
440.433	20596.93
440.64	21328.06
440.847	20867.27
441.054	21674.17
441.261	22784.16
441.467	22450.35
441.674	23314.59
441.881	23900.31
442.088	23883.92
442.294	24000.66
442.501	24549.51
442.708	24887.43
442.914	26194.03
443.121	26794.09
443.328	26376.3
443.534	28127.31
443.741	27625.56
443.948	26937.44
444.154	29227.07
444.361	28948.55
444.568	29032.52
444.774	28844.1
444.981	29440.06
445.187	30015.54
445.394	31440.93
445.6	31336.48
445.807	33951.74
446.013	32528.4
446.22	33167.37
446.426	34187.25
446.633	34525.17
446.839	35794.91
447.046	34347
447.252	36341.72
447.459	36194.26
447.665	36055
447.871	37691.33
448.078	39311.27
448.284	37146.57
448.491	38305.72
448.697	39675.81
448.903	40593.3
449.11	40667.03
449.316	39751.59
449.522	40501.14
449.728	41781.12
449.935	41992.06
450.141	41822.08
450.347	42882.93
450.553	40980.37
450.76	42006.4
450.966	42848.11
451.172	42751.86
451.378	43759.46
451.584	42528.63
451.791	44048.22
451.997	43390.83
452.203	44195.68
452.409	44257.12
452.615	43841.38
452.821	42332.03
453.027	41842.56
453.233	43933.54
453.44	42039.17
453.646	42790.77
453.852	42657.65
454.058	43222.89
454.264	41791.36
454.47	42868.59
454.676	42071.93
454.882	43026.29
455.088	39364.52
455.294	39839.65
455.5	40427.42
455.705	40523.67
455.911	39028.65
456.117	38264.76
456.323	37844.93
456.529	35844.06
456.735	37222.34
456.941	35932.12
457.147	35874.78
457.352	34666.48
457.558	34203.64
457.764	34168.82
457.97	33529.86
458.176	32821.26
458.381	32862.22
458.587	31227.94
458.793	30935.08
458.999	29327.42
459.204	31655.96
459.41	30631.98
459.616	28733.51
459.821	28813.38
460.027	28287.06
460.233	28055.64
460.438	26402.93
460.644	27142.24
460.85	25659.51
461.055	25163.9
461.261	25139.33
461.466	23554.2
461.672	22562.98
461.878	24223.89
462.083	22714.53
462.289	22331.56
462.494	22112.43
462.7	21059.77
462.905	20383.94
463.111	21395.64
463.316	21389.5
463.522	21010.62
463.727	20928.7
463.932	21063.87
464.138	20689.09
464.343	20754.63
464.549	20160.72
464.754	20725.96
464.959	20502.73
465.165	20654.28
465.37	19865.81
465.575	18901.22
465.781	19992.78
465.986	20160.72
466.191	18981.09
466.397	19106.01
466.602	18047.21
466.807	18718.95
467.012	18657.51
467.218	18645.22
467.423	18168.04
467.628	18395.37
467.833	19140.83
468.038	18497.77
468.244	18090.22
468.449	18882.78
468.654	18149.61
468.859	18077.93
469.064	17996.01
469.269	17377.53
469.474	17228.03
469.679	17723.63
469.885	17072.38
470.09	17363.19
470.295	17295.61
470.5	16980.22
470.705	16877.82
470.91	16445.7
471.115	16437.51
471.32	16525.57
471.525	16552.2
471.73	16130.31
471.935	16056.59
472.139	15249.69
472.344	15771.92
472.549	15423.76
472.754	15282.45
472.959	15024.41
473.164	14817.57
473.369	14596.39
473.574	15016.22
473.778	14741.79
473.983	14848.29
474.188	14776.61
474.393	14367.01
474.598	13955.37
474.802	14068.01
475.007	13650.22
475.212	13730.09
475.417	13322.55
475.621	13259.06
475.826	13500.72
476.031	13044.02
476.235	12880.19
476.44	12974.39
476.645	12806.46
476.849	12788.03
477.054	12861.76
477.259	12656.96
477.463	12476.74
477.668	12097.86
477.872	12132.68
478.077	12007.75
478.282	11829.58
478.486	11610.45
478.691	11696.46
478.895	11592.02
479.1	11764.04
479.304	11612.49
479.509	11006.3
479.713	11325.78
479.918	11278.68
480.122	11217.24
480.326	11264.34
480.531	11047.26
480.735	11043.16
480.94	10811.74
481.144	11106.65
481.348	10842.46
481.553	10848.6
481.757	10625.37
481.961	10860.89
482.166	11002.2
482.37	10996.06
482.574	10764.64
482.778	10817.88
482.983	10973.53
483.187	10723.68
483.391	10805.6
483.595	10582.37
483.8	10617.18
484.004	10799.45
484.208	10867.03
484.412	10754.4
484.616	10934.62
484.821	10717.53
485.025	10625.37
485.229	10944.86
485.433	10680.67
485.637	10948.95
485.841	10568.03
486.045	10867.03
486.249	10682.72
486.453	10738.01
486.657	10821.98
486.861	10756.44
487.065	10537.31
487.269	10641.76
487.473	10604.89
487.677	10877.27
487.881	10826.07
488.085	10707.29
488.289	10879.32
488.493	10707.29
488.697	10881.37
488.901	10826.07
489.105	11026.78
489.309	10801.5
489.512	10830.17
489.716	10893.66
489.92	10811.74
490.124	10754.4
490.328	11067.74
490.531	10781.02
490.735	10946.9
490.939	11024.73
491.143	11039.06
491.346	10883.42
491.55	11266.39
491.754	11233.62
491.958	11434.32
492.161	11319.64
492.365	11376.98
492.569	11495.76
492.772	11352.4
492.976	11549.01
493.18	11610.45
493.383	11696.46
493.587	11841.87
493.79	11897.16
493.994	11596.11
494.197	11837.77
494.401	12110.15
494.605	12077.38
494.808	12357.96
495.012	12067.14
495.215	12280.13
495.419	12546.37
495.622	12329.28
495.825	12644.67
496.029	12519.74
496.232	13007.16
496.436	12757.31
496.639	13287.73
496.843	13205.81
497.046	13412.66
497.249	13588.78
497.453	13373.75
497.656	13754.67
497.859	13760.81
498.063	13818.16
498.266	14272.81
498.469	14246.18
498.673	14289.19
498.876	14403.88
499.079	14887.2
499.282	14774.56
499.485	15042.84
499.689	15210.78
499.892	15163.67
500.095	15425.81
500.298	15921.42
500.501	15855.89
500.705	16056.59
500.908	16226.57
501.111	16193.8
501.314	16619.78
501.517	16578.82
501.72	17078.52
501.923	16771.33
502.126	17252.6
502.329	17486.07
502.532	17592.56
502.735	17688.82
502.938	17899.76
503.141	18182.38
503.344	18532.58
503.547	18634.98
503.75	18700.51
503.953	19001.57
504.156	19151.07
504.359	19437.78
504.562	19706.07
504.765	20023.5
504.968	20168.91
505.17	20232.4
505.373	20537.54
505.576	20689.09
505.779	21043.39
505.982	21049.53
506.185	21452.98
506.387	21792.95
506.59	21698.74
506.793	22239.4
506.996	21942.45
507.198	22853.8
507.401	22708.39
507.604	22966.43
507.807	23240.86
508.009	23378.08
508.212	23685.27
508.415	23865.49
508.617	24492.17
508.82	24418.44
509.022	24379.53
509.225	25034.88
509.428	24967.3
509.63	25200.77
509.833	25833.59
510.035	26060.91
510.238	25796.73
510.44	26419.31
510.643	26605.67
510.845	26796.14
511.048	26789.99
511.25	27580.51
511.453	27547.74
511.655	28674.12
511.858	28258.38
512.06	28782.66
512.262	28852.3
512.465	28661.83
512.667	29030.47
512.87	29677.63
513.072	29849.66
513.274	30107.7
513.477	30623.79
513.679	30472.24
513.881	31252.52
514.084	31279.14
514.286	31610.91
514.488	31744.03
514.69	32360.47
514.893	32585.74
515.095	32937.99
515.297	33335.3
515.499	33157.13
515.701	33589.25
515.904	34084.86
516.106	34211.83
516.308	34510.83
516.51	34383.86
516.712	35147.75
516.914	35481.57
517.116	35379.17
517.318	36044.76
517.52	36423.64
517.722	36345.81
517.925	36693.97
518.127	37306.31
518.329	37611.46
518.531	37277.64
518.733	38461.37
518.935	38692.79
519.136	38533.04
519.338	39253.93
519.54	39126.95
519.742	39643.04
519.944	39880.61
520.146	40892.3
520.348	40812.43
520.55	40904.59
520.752	41101.2
520.954	41754.5
521.155	41684.87
521.357	42268.54
521.559	42299.26
521.761	42829.68
521.963	43267.95
522.164	43214.7
522.366	43255.66
522.568	43812.71
522.77	44181.34
522.971	44875.6
523.173	44592.98
523.375	44996.43
523.576	45139.79
523.778	45266.77
523.98	46065.47
524.181	45907.78
524.383	46208.83
524.584	46626.62
524.786	46661.43
524.988	46413.63
525.189	47370.03
525.391	47058.74
525.592	47544.11
525.794	48070.43
525.995	48023.33
526.197	47851.3
526.398	48103.2
526.6	48473.88
526.801	48688.92
527.003	49213.2
527.204	49055.51
527.406	49661.71
527.607	49366.8
527.808	50038.53
528.01	49381.13
528.211	49917.7
528.412	50804.47
528.614	50548.48
528.815	50429.69
529.016	51169.01
529.218	50403.07
529.419	50687.74
529.62	51058.42
529.822	50573.05
530.023	51177.2
530.224	51279.6
530.425	51154.68
530.626	51334.9
530.828	51099.38
531.029	52082.41
531.23	51425.01
531.431	51744.49
531.632	51551.98
531.833	52072.17
532.035	52213.48
532.236	52008.68
532.437	52440.8
532.638	52299.49
532.839	52389.6
533.04	52539.1
533.241	51701.48
533.442	53053.14
533.643	52489.95
533.844	52795.1
534.045	52553.44
534.246	52537.05
534.447	52924.12
534.648	52807.39
534.849	52967.13
535.05	52725.47
535.251	52627.16
535.451	52651.74
535.652	53176.02
535.853	52936.41
536.054	53173.97
536.255	53456.59
536.456	52883.16
536.657	53575.37
536.857	52643.55
537.058	52987.61
537.259	53149.4
537.46	53151.44
537.66	52989.66
537.861	53012.18
538.062	52797.15
538.263	52811.48
538.463	52813.53
538.664	52930.26
538.865	53096.15
539.065	53276.37
539.266	52946.65
539.466	53409.49
539.667	52719.32
539.868	53593.81
540.068	52952.79
540.269	53219.03
540.469	53317.33
540.67	52930.26
540.87	53503.7
541.071	53028.57
541.271	53206.74
541.472	53085.91
541.672	52930.26
541.873	52713.18
542.073	52360.93
542.274	53382.87
542.474	52741.85
542.675	52489.95
542.875	53280.47
543.075	53094.1
543.276	52547.29
543.476	53200.6
543.676	52608.73
543.877	53016.28
544.077	52989.66
544.277	52745.95
544.478	52645.6
544.678	53106.39
544.878	52444.9
545.078	52969.18
545.279	52545.25
545.479	52381.41
545.679	52960.98
545.879	52735.71
546.079	52819.67
546.28	52831.96
546.48	52328.16
546.68	53159.64
546.88	53034.71
547.08	53278.42
547.28	52530.91
547.48	52401.89
547.68	52834.01
547.88	51951.34
548.081	52932.31
548.281	52401.89
548.481	52489.95
548.681	52866.78
548.881	52649.69
549.081	52487.9
549.28	52426.46
549.48	53126.87
549.68	52465.38
549.88	53284.56
550.08	52106.98
550.28	52420.32
550.48	52446.94
550.68	52917.98
550.88	52266.72
551.08	52553.44
551.279	52498.14
551.479	52283.11
551.679	52602.59
551.879	52029.16
552.079	52840.15
552.278	52315.87
552.478	52522.72
552.678	52367.07
552.878	52063.97
553.077	52238.05
553.277	51599.08
553.477	52864.73
553.676	52143.84
553.876	52479.71
554.076	51957.48
554.275	52018.92
554.475	51529.45
554.674	52080.36
554.874	52051.69
555.074	51920.62
555.273	52184.8
555.473	52193
555.672	51547.89
555.872	51453.68
556.071	51611.37
556.271	51431.15
556.47	50929.4
556.67	51021.56
556.869	51429.1
557.068	51588.84
557.268	51230.45
557.467	51330.8
557.667	51111.67
557.866	51218.16
558.065	51351.28
558.265	50747.13
558.464	50829.05
558.663	51234.55
558.863	50423.55
559.062	51504.88
559.261	50794.23
559.461	50960.12
559.66	50112.26
559.859	50702.07
560.058	50269.95
560.258	50452.22
560.457	50069.25
560.656	50495.23
560.855	50001.67
561.054	50847.48
561.253	49733.39
561.453	50147.07
561.652	49856.26
561.851	50071.3
562.05	49573.64
562.249	49608.46
562.448	50024.2
562.647	49735.43
562.846	49096.47
563.045	49620.75
563.244	49024.79
563.443	49710.86
563.642	48600.86
563.841	49104.66
564.04	48727.83
564.239	48824.09
564.438	48318.24
564.637	48772.89
564.836	48850.71
565.035	47746.86
565.234	48146.21
565.432	48074.53
565.631	47949.6
565.83	48013.09
566.029	47572.78
566.228	48152.35
566.427	47695.66
566.625	47247.15
566.824	46956.34
567.023	47566.63
567.222	46614.33
567.42	47417.13
567.619	46829.37
567.818	46907.19
568.016	46608.18
568.215	47449.9
568.414	46567.23
568.612	47206.19
568.811	46393.15
569.01	46597.94
569.208	45793.09
569.407	46270.27
569.605	45877.06
569.804	46106.43
570.002	45545.29
570.201	46044.99
570.4	45907.78
570.598	45154.13
570.797	45238.09
570.995	45260.62
571.193	44564.31
571.392	45025.1
571.59	44705.62
571.789	44848.98
571.987	44435.29
572.186	44683.09
572.384	44474.2
572.582	44191.58
572.781	44185.44
572.979	43960.16
573.177	43980.64
573.376	43874.15
573.574	43685.73
573.772	43966.31
573.971	43503.46
574.169	43044.72
574.367	43157.36
574.565	43310.96
574.763	42856.31
574.962	43028.34
575.16	42821.49
575.358	43130.73
575.556	42481.53
575.754	42801.01
575.952	42534.77
576.151	42641.27
576.349	41781.12
576.547	41920.38
576.745	42182.52
576.943	41842.56
577.141	41889.66
577.339	41889.66
577.537	41531.27
577.735	41527.17
577.933	40857.49
578.131	41596.81
578.329	41258.89
578.527	40515.48
578.725	40920.98
578.923	41076.62
579.121	40736.66
579.319	40462.23
579.516	40613.78
579.714	40613.78
579.912	39976.86
580.11	40009.63
580.308	40069.02
580.506	40009.63
580.704	39215.02
580.901	40058.78
581.099	40046.49
581.297	39671.71
581.495	39370.66
581.692	39499.69
581.89	39157.67
582.088	39323.56
582.285	39004.08
582.483	39425.96
582.681	38844.34
582.878	38848.43
583.076	38422.45
583.274	38930.35
583.471	38275
583.669	38469.56
583.866	37957.56
584.064	38211.51
584.262	37689.28
584.459	37763.01
584.657	37738.43
584.854	38393.78
585.052	37937.09
585.249	37599.17
585.447	37275.59
585.644	37144.52
585.841	37128.14
586.039	37330.89
586.236	36929.48
586.434	36911.05
586.631	36628.43
586.828	36411.35
587.026	36624.34
587.223	36599.76
587.42	36083.67
587.618	36399.06
587.815	35792.86
588.012	35991.51
588.21	35923.93
588.407	36124.63
588.604	35819.49
588.801	35665.89
588.999	35602.4
589.196	34961.39
589.393	35506.15
589.59	35112.94
589.787	35135.46
589.984	34744.3
590.182	34961.39
590.379	34805.74
590.576	34510.83
590.773	34641.9
590.97	34437.11
591.167	34858.99
591.364	33859.58
591.561	33959.93
591.758	33662.97
591.955	33908.73
592.152	33835
592.349	33959.93
592.546	33927.16
592.743	34082.81
592.94	32978.95
593.137	33544.19
593.334	33286.15
593.531	32911.37
593.727	33323.01
593.924	32927.75
594.121	32940.04
594.318	32884.75
594.515	32305.17
594.712	33019.91
594.908	32544.78
595.105	32405.52
595.302	32387.09
595.499	32387.09
595.696	32249.88
595.892	31889.43
596.089	31981.59
596.286	31873.05
596.482	32124.95
596.679	31842.33
596.876	31633.44
597.072	31356.96
597.269	31420.45
597.466	31180.84
597.662	30937.13
597.859	31109.16
598.055	31105.06
598.252	30679.08
598.448	30664.75
598.645	30746.67
598.841	30337.07
599.038	30951.46
599.234	30556.21
599.431	30275.63
599.627	30158.9
599.824	30509.1
600.02	29986.87
600.217	30072.89
600.413	29775.93
600.609	29784.12
600.806	29272.13
601.002	29534.27
601.198	29587.52
601.395	29452.35
601.591	29272.13
601.787	29542.46
601.984	29083.72
602.18	29542.46
602.376	29306.94
602.572	29382.72
602.769	29003.85
602.965	28571.72
603.161	28729.42
603.357	28604.49
603.553	28432.46
603.75	28385.36
603.946	28246.1
604.142	28350.54
604.338	28020.82
604.534	28266.58
604.73	27922.52
604.926	27897.94
605.122	27795.54
605.318	27738.2
605.514	27482.2
605.71	27506.78
605.906	27291.74
606.102	27351.13
606.298	27258.98
606.494	27187.3
606.69	27156.58
606.886	27410.53
607.082	26828.9
607.278	27451.49
607.474	26425.45
607.67	27000.93
607.866	26445.93
608.062	26855.53
608.257	26570.86
608.453	26718.31
608.649	26865.77
608.845	26265.71
609.041	26267.76
609.236	26257.52
609.432	26153.07
609.628	26427.5
609.824	26075.25
610.019	26071.15
610.215	26044.53
610.411	26259.57
610.606	25753.72
610.802	25800.82
610.998	26083.44
611.193	25952.37
611.389	25591.93
611.584	25821.3
611.78	25440.38
611.976	25827.45
612.171	25602.17
612.367	25358.46
612.562	25493.63
612.758	25251.97
612.953	25190.53
613.149	25444.48
613.344	25307.26
613.539	25247.87
613.735	25141.38
613.93	25510.01
614.126	25036.93
614.321	25221.25
614.517	25014.4
614.712	24633.48
614.907	24893.57
615.103	24862.85
615.298	24864.9
615.493	24989.83
615.688	24383.63
615.884	25131.14
616.079	24227.98
616.274	24746.12
616.47	24746.12
616.665	24805.51
616.86	24174.74
617.055	24426.64
617.25	24111.25
617.445	24383.63
617.641	23785.62
617.836	24277.13
618.031	23836.82
618.226	23789.72
618.421	23810.2
618.616	23861.4
618.811	23455.9
619.006	24012.95
619.201	23220.38
619.396	23251.1
619.591	23120.03
619.786	23535.77
619.981	22747.3
620.176	23169.18
620.371	22980.77
620.566	22866.08
620.761	22935.71
620.956	22837.41
621.151	22587.56
621.346	22558.89
621.541	22393
621.735	22567.08
621.93	22225.07
622.125	22370.47
622.32	21905.59
622.515	21960.88
622.709	21698.74
622.904	21854.39
623.099	21721.27
623.294	21813.43
623.488	21483.7
623.683	21483.7
623.878	20885.7
624.072	21006.53
624.267	21104.83
624.462	20871.36
624.656	20467.91
624.851	20414.66
625.046	20441.29
625.24	20592.84
625.435	20398.28
625.629	20115.66
625.824	20093.13
626.018	20238.54
626.213	19865.81
626.407	19863.76
626.602	19409.11
626.796	19658.96
626.991	19693.78
627.185	19736.79
627.38	19433.69
627.574	19212.51
627.768	18886.88
627.963	18843.87
628.157	18553.06
628.352	18727.14
628.546	18452.71
628.74	18608.36
628.935	18118.89
629.129	18352.36
629.323	18116.84
629.517	18094.32
629.712	18180.33
629.906	17891.57
630.1	17600.76
630.294	17930.48
630.489	17565.94
630.683	17543.41
630.877	17297.66
631.071	17131.77
631.265	17352.95
631.459	17404.15
631.653	17064.19
631.848	17178.87
632.042	16939.26
632.236	16867.58
632.43	16777.47
632.624	16730.37
632.818	16580.87
633.012	16425.22
633.206	16421.13
633.4	16316.68
633.594	16075.02
633.788	16111.88
633.982	16251.14
634.176	16044.3
634.369	15954.19
634.563	15892.75
634.757	15747.34
634.951	15925.52
635.145	15610.13
635.339	15636.75
635.533	15472.92
635.726	15311.13
635.92	15380.76
636.114	15005.98
636.308	15106.33
636.501	15143.19
636.695	15091.99
636.889	14727.46
637.083	14741.79
637.276	14661.92
637.47	14569.76
637.664	14635.3
637.857	14573.86
638.051	14375.2
638.244	14471.46
638.438	14377.25
638.632	14096.68
638.825	13984.04
639.019	13812.01
639.212	13934.89
639.406	14201.13
639.599	13914.41
639.793	13676.85
639.986	13672.75
640.18	13699.37
640.373	13234.49
640.567	13254.97
640.76	13476.15
640.954	13265.21
641.147	13306.16
641.34	13336.88
641.534	13121.85
641.727	12968.25
641.92	12955.96
642.114	12880.19
642.307	12980.54
642.5	12753.21
642.694	12441.92
642.887	12593.47
643.08	12783.93
643.273	12554.56
643.467	12507.46
643.66	12482.88
643.853	12257.6
644.046	12165.45
644.239	12536.13
644.432	12022.09
644.626	12022.09
644.819	12081.48
645.012	11831.63
645.205	11952.46
645.398	11874.63
645.591	11723.09
645.784	11788.62
645.977	11462.99
646.17	11743.56
646.363	11393.36
646.556	11436.37
646.749	11356.5
646.942	11452.75
647.135	11135.32
647.328	11075.93
647.521	11086.17
647.714	11143.51
647.907	10994.01
648.099	10873.18
648.292	10971.48
648.485	10752.35
648.678	10641.76
648.871	10766.68
649.064	10615.13
649.256	10746.2
649.449	10565.98
649.642	10441.06
649.835	10539.36
650.027	10406.24
650.22	10256.74
650.413	10324.32
650.605	10357.09
650.798	10230.12
650.991	10004.84
651.183	10406.24
651.376	9951.59
651.568	10015.08
651.761	10002.79
651.954	9984.36
652.146	9851.24
652.339	9918.82
652.531	9947.5
652.724	9699.69
652.916	9550.19
653.109	9757.04
653.301	9757.04
653.494	9423.22
653.686	9281.91
653.879	9470.32
654.071	9380.21
654.263	9175.41
654.456	9367.92
654.648	9267.57
654.84	9378.16
655.033	9062.77
655.225	9038.2
655.417	9052.53
655.61	9105.78
655.802	9060.73
655.994	8802.68
656.186	8847.74
656.379	8976.76
656.571	8659.32
656.763	8735.1
656.955	8757.63
657.148	8675.71
657.34	8644.99
657.532	8444.29
657.724	8595.84
657.916	8751.48
658.108	8610.17
658.3	8526.21
658.492	8536.45
658.684	8407.42
658.876	8309.12
659.068	8278.4
659.26	8075.65
659.452	8190.34
659.644	8137.09
659.836	7930.25
660.028	8135.04
660.22	7831.94
660.412	7926.15
660.604	8010.12
660.796	7860.62
660.988	7977.35
661.18	7700.87
661.372	7762.31
661.563	7928.2
661.755	7715.21
661.947	7793.03
662.139	7459.21
662.331	7692.68
662.522	7442.83
662.714	7524.75
662.906	7391.63
663.097	7426.45
663.289	7354.77
663.481	7319.95
663.673	7319.95
663.864	7149.97
664.056	7184.79
664.247	7350.67
664.439	7262.61
664.631	7297.42
664.822	7121.3
665.014	6988.18
665.205	7035.28
665.397	6971.8
665.588	7174.55
665.78	6896.02
665.971	6928.79
666.163	7104.92
666.354	6955.41
666.546	6828.44
666.737	6699.42
666.929	6846.87
667.12	6893.97
667.311	6680.99
667.503	6592.92
667.694	6689.18
667.885	6474.14
668.077	6652.31
668.268	6461.85
668.459	6537.63
668.651	6455.71
668.842	6640.03
669.033	6332.83
669.224	6513.05
669.416	6566.3
669.607	6322.59
669.798	6298.02
669.989	6371.74
670.18	6312.35
670.371	6381.98
670.563	6201.76
670.754	6328.74
670.945	6060.45
671.136	6300.06
671.327	6285.73
671.518	6125.99
671.709	6128.03
671.9	6093.22
672.091	6103.46
672.282	6197.67
672.473	5933.48
672.664	6195.62
672.855	5857.7
673.046	6035.88
673.237	6062.5
673.428	5851.56
673.619	6140.32
673.809	5829.03
674	5790.12
674.191	5736.87
674.382	5915.05
674.573	5863.85
674.764	5904.81
674.954	5765.54
675.145	5738.92
675.336	5771.69
675.527	5704.1
675.717	5765.54
675.908	5638.57
676.099	5632.43
676.289	5716.39
676.48	5736.87
676.671	5552.56
676.861	5704.1
677.052	5560.75
677.243	5585.32
677.433	5401.01
677.624	5603.75
677.814	5501.36
678.005	5640.62
678.195	5603.75
678.386	5478.83
678.576	5519.79
678.767	5525.93
678.957	5568.94
679.148	5478.83
679.338	5538.22
679.529	5503.4
679.719	5478.83
679.909	5509.55
680.1	5489.07
680.29	5237.17
680.481	5429.68
680.671	5478.83
680.861	5368.24
681.052	5423.53
681.242	5505.45
681.432	5525.93
681.622	5276.08
681.813	5306.8
682.003	5312.94
682.193	5386.67
682.383	5290.42
682.573	5519.79
682.764	5327.28
682.954	5298.61
683.144	5310.89
683.334	5312.94
683.524	5370.29
683.714	5251.5
683.904	5267.89
684.094	5386.67
684.284	5228.98
684.474	5050.8
684.664	5040.56
684.854	5126.58
685.044	5048.75
685.234	5079.47
685.424	5185.97
685.614	5071.28
685.804	5022.13
685.994	4977.08
686.184	5067.19
686.374	5071.28
686.564	5128.63
686.753	5085.62
686.943	4932.02
687.133	4950.45
687.323	4960.69
687.513	4848.05
687.702	5085.62
687.892	4964.79
688.082	5020.08
688.272	4925.88
688.461	4911.54
688.651	4899.25
688.841	4864.44
689.03	4919.73
689.22	4944.31
689.41	4915.64
689.599	4821.43
689.789	4794.81
689.979	4743.61
690.168	4637.11
690.358	4641.21
690.547	4678.07
690.737	4645.31
690.926	4676.02
691.116	4653.5
691.305	4610.49
691.495	4532.67
691.684	4571.58
691.874	4612.54
692.063	4547
692.252	4395.45
692.442	4434.36
692.631	4432.32
692.82	4415.93
693.01	4338.11
693.199	4377.02
693.388	4223.42
693.578	4362.69
693.767	4356.54
693.956	4231.62
694.146	4196.8
694.335	4346.3
694.524	4184.51
694.713	4159.94
694.902	4342.21
695.092	4307.39
695.281	4121.03
695.47	4227.52
695.659	4125.12
695.848	4143.55
696.037	4268.48
696.226	4266.43
696.415	4190.66
696.604	4325.82
696.793	4049.35
696.982	4125.12
697.171	4202.94
697.36	4145.6
697.549	4133.31
697.738	4065.73
697.927	4141.5
698.116	4145.6
698.305	4016.58
698.494	4088.26
698.683	4213.18
698.872	4149.7
699.061	4137.41
699.25	4043.2
699.438	4075.97
699.627	4235.71
699.816	4061.63
700.005	4069.83
700.193	4129.22
700.382	4155.84
700.571	4159.94
700.76	4057.54
700.948	4012.48
701.137	4108.74
701.326	4059.59
701.514	4248
701.703	4039.11
701.892	3955.14
702.08	3953.09
702.269	4094.4
702.457	3932.61
702.646	3979.72
702.834	3922.37
703.023	3963.33
703.212	3992
703.4	4020.67
703.589	4106.69
703.777	3940.8
703.965	3959.24
704.154	4047.3
704.342	3994.05
704.531	4069.83
704.719	4059.59
704.907	3899.84
705.096	3891.65
705.284	3944.9
705.472	3893.7
705.661	3914.18
705.849	3889.6
706.037	4016.58
706.226	3891.65
706.414	3965.38
706.602	3809.73
706.79	4096.45
706.979	3903.94
707.167	3879.36
707.355	3918.28
707.543	3916.23
707.731	3987.91
707.919	3899.84
708.107	3813.83
708.296	4028.87
708.484	3860.93
708.672	3987.91
708.86	3924.42
709.048	3989.96
709.236	3846.6
709.424	3836.36
709.612	3858.89
709.8	3992
709.988	3875.27
710.176	4008.39
710.364	4037.06
710.551	3860.93
710.739	3942.85
710.927	3959.24
711.115	3905.99
711.303	3936.71
711.491	4006.34
711.679	3912.13
711.866	3805.64
712.054	3895.75
712.242	3850.69
712.43	4004.29
712.617	3973.57
712.805	4063.68
712.993	4020.67
713.181	3877.32
713.368	3918.28
713.556	3928.52
713.744	3979.72
713.931	4045.25
714.119	3959.24
714.306	4067.78
714.494	3996.1
714.682	3922.37
714.869	3983.81
715.057	3951.04
715.244	3785.16
715.432	3944.9
715.619	3940.8
715.807	4028.87
715.994	3944.9
716.182	3809.73
716.369	3985.86
716.556	3918.28
716.744	3959.24
716.931	3899.84
717.119	3973.57
717.306	3901.89
717.493	3899.84
717.681	3987.91
717.868	3922.37
718.055	3914.18
718.242	3949
718.43	3996.1
718.617	3867.08
718.804	3998.15
718.991	3910.08
719.179	3953.09
719.366	3930.56
719.553	4043.2
719.74	3846.6
719.927	3807.69
720.114	3987.91
720.301	3873.22
720.488	3985.86
720.676	3965.38
720.863	3908.04
721.05	3953.09
721.237	3936.71
721.424	4047.3
721.611	3803.59
721.798	3946.95
721.985	3924.42
722.172	3916.23
722.358	3805.64
722.545	3838.41
722.732	3875.27
722.919	3912.13
723.106	3908.04
723.293	3908.04
723.48	3932.61
723.667	3740.1
723.853	3838.41
724.04	3953.09
724.227	3860.93
724.414	3875.27
724.6	3981.76
724.787	3897.8
724.974	3973.57
725.161	3803.59
725.347	3809.73
725.534	3928.52
725.72	3793.35
725.907	3973.57
726.094	3801.54
726.28	3779.01
726.467	3836.36
726.653	3797.45
726.84	4047.3
727.027	4035.01
727.213	3791.3
727.4	3850.69
727.586	3873.22
727.773	3905.99
727.959	3838.41
728.145	3742.15
728.332	3875.27
728.518	3824.07
728.705	3819.97
728.891	3819.97
729.077	3813.83
729.264	3879.36
729.45	3797.45
729.636	3891.65
729.823	3748.29
730.009	3768.77
730.195	3781.06
730.382	3742.15
730.568	3762.63
730.754	3826.12
730.94	3684.81
731.126	3860.93
731.313	3670.47
731.499	3774.92
731.685	3824.07
731.871	3828.17
732.057	3750.34
732.243	3779.01
732.429	3586.51
732.615	3850.69
732.801	3680.71
732.987	3709.38
733.173	3619.27
733.359	3760.58
733.545	3705.29
733.731	3668.42
733.917	3590.6
734.103	3684.81
734.289	3711.43
734.475	3731.91
734.661	3711.43
734.847	3588.55
735.033	3682.76
735.219	3740.1
735.404	3672.52
735.59	3731.91
735.776	3563.98
735.962	3615.18
736.148	3602.89
736.333	3645.9
736.519	3547.59
736.705	3727.82
736.89	3615.18
737.076	3506.63
737.262	3672.52
737.447	3625.42
737.633	3627.46
737.819	3574.22
738.004	3537.35
738.19	3555.79
738.375	3535.31
738.561	3551.69
738.747	3426.76
738.932	3527.11
739.118	3449.29
739.303	3551.69
739.489	3488.2
739.674	3396.04
739.859	3453.39
740.045	3422.67
740.23	3525.07
740.416	3318.22
740.601	3529.16
740.786	3355.08
740.972	3303.89
741.157	3500.49
741.342	3334.61
741.528	3400.14
741.713	3289.55
741.898	3324.37
742.084	3254.73
742.269	3367.37
742.454	3211.73
742.639	3314.13
742.824	3271.12
743.01	3228.11
743.195	3305.93
743.38	3307.98
743.565	3135.95
743.75	3189.2
743.935	3131.86
744.12	3129.81
744.305	3064.27
744.49	3068.37
744.675	2972.11
744.86	3017.17
745.045	3228.11
745.23	3064.27
745.415	2968.02
745.6	3105.23
745.785	2961.87
745.97	2978.26
746.155	2914.77
746.34	2976.21
746.525	2965.97
746.71	2886.1
746.895	2873.81
747.079	2957.78
747.264	2822.61
747.449	2892.24
747.634	2798.04
747.819	2945.49
748.003	2808.28
748.188	2873.81
748.373	2781.65
748.557	2863.57
748.742	2810.33
748.927	2611.67
749.111	2728.41
749.296	2703.83
749.481	2787.8
749.665	2587.1
749.85	2601.43
750.034	2666.97
750.219	2642.39
750.404	2572.76
750.588	2652.63
750.773	2601.43
750.957	2499.03
751.141	2429.4
751.326	2513.37
751.51	2523.61
751.695	2507.23
751.879	2482.65
752.064	2628.06
752.248	2431.45
752.432	2458.07
752.617	2384.35
752.801	2331.1
752.985	2316.76
753.17	2355.68
753.354	2281.95
753.538	2359.77
753.722	2314.72
753.907	2365.92
754.091	2251.23
754.275	2228.7
754.459	2167.26
754.643	2114.02
754.828	2179.55
755.012	2134.5
755.196	2085.34
755.38	2134.5
755.564	2161.12
755.748	2206.17
755.932	2019.81
756.116	2034.14
756.3	2060.77
756.484	1960.42
756.668	2019.81
756.852	1855.97
757.036	2056.67
757.22	2030.05
757.404	2030.05
757.588	2013.67
757.772	2052.58
757.956	1827.3
758.14	2023.91
758.323	1874.4
758.507	1989.09
758.691	1823.2
758.875	1786.34
759.059	1878.5
759.242	1671.65
759.426	1855.97
759.61	1815.01
759.794	1837.54
759.977	1798.63
760.161	1735.14
760.345	1917.41
760.528	1739.24
760.712	1788.39
760.895	1782.24
761.079	1726.95
761.263	1720.81
761.446	1780.2
761.63	1667.56
761.813	1769.96
761.997	1675.75
762.18	1634.79
762.364	1696.23
762.547	1591.78
762.731	1575.4
762.914	1548.78
763.098	1653.22
763.281	1679.85
763.464	1669.61
763.648	1655.27
763.831	1503.72
764.015	1464.81
764.198	1585.64
764.381	1538.54
764.564	1556.97
764.748	1548.78
764.931	1509.86
765.114	1518.06
765.297	1663.46
765.481	1462.76
765.664	1440.23
765.847	1452.52
766.03	1518.06
766.213	1452.52
766.397	1513.96
766.58	1481.19
766.763	1528.3
766.946	1405.42
767.129	1376.75
767.312	1427.95
767.495	1509.86
767.678	1491.43
767.861	1479.15
768.044	1405.42
768.227	1405.42
768.41	1411.56
768.593	1360.36
768.776	1343.98
768.959	1423.85
769.142	1407.47
769.324	1446.38
769.507	1317.36
769.69	1456.62
769.873	1442.28
770.056	1372.65
770.239	1356.27
770.421	1393.13
770.604	1288.68
770.787	1317.36
770.97	1210.86
771.152	1294.83
771.335	1421.8
771.518	1319.4
771.7	1333.74
771.883	1317.36
772.066	1171.95
772.248	1233.39
772.431	1372.65
772.613	1204.72
772.796	1233.39
772.978	1276.4
773.161	1278.44
773.343	1085.94
773.526	1112.56
773.708	1104.37
773.891	1159.66
774.073	1247.72
774.256	1139.18
774.438	1163.76
774.621	1069.55
774.803	1096.18
774.985	1169.9
775.168	1155.57
775.35	1036.78
775.532	1171.95
775.715	1155.57
775.897	1020.4
776.079	1038.83
776.261	1094.13
776.444	1065.46
776.626	1034.74
776.808	1087.98
776.99	981.49
777.173	1049.07
777.355	1012.21
777.537	1053.17
777.719	1071.6
777.901	958.96
778.083	866.8
778.265	1018.35
778.447	1006.06
778.629	883.19
778.811	928.24
778.993	942.58
779.175	969.2
779.357	897.52
779.539	967.15
779.721	889.33
779.903	874.99
780.085	911.86
780.267	805.36
780.449	918
780.631	872.95
780.812	874.99
780.994	825.84
781.176	883.19
781.358	969.2
781.54	877.04
781.721	913.91
781.903	885.23
782.085	758.26
782.267	893.43
782.448	811.51
782.63	899.57
782.812	776.69
782.993	852.47
783.175	758.26
783.357	715.25
783.538	784.88
783.72	741.88
783.901	797.17
784.083	754.16
784.264	743.92
784.446	709.11
784.627	768.5
784.809	793.08
784.99	795.12
785.172	860.66
785.353	621.05
785.535	662.01
785.716	793.08
785.897	647.67
786.079	721.4
786.26	584.18
786.441	602.61
786.623	635.38
786.804	680.44
786.985	657.91
787.167	713.21
787.348	657.91
787.529	674.29
787.71	666.1
787.891	627.19
788.073	676.34
788.254	588.28
788.435	657.91
788.616	680.44
788.797	580.09
788.978	549.37
789.159	614.9
789.34	645.62
789.522	565.75
789.703	469.5
789.884	610.81
790.065	627.19
790.246	633.33
790.427	565.75
790.607	541.18
790.788	500.22
790.969	508.41
791.15	526.84
791.331	623.09
791.512	518.65
791.693	514.55
791.874	500.22
792.054	569.85
792.235	494.07
792.416	496.12
792.597	483.83
792.778	467.45
792.958	580.09
793.139	483.83
793.32	477.69
793.5	504.31
793.681	446.97
793.862	522.74
794.042	512.5
794.223	455.16
794.404	526.84
794.584	455.16
794.765	526.84
794.945	516.6
795.126	487.93
795.306	418.3
795.487	479.74
795.667	473.59
795.848	500.22
796.028	487.93
796.209	526.84
796.389	500.22
796.57	399.87
796.75	383.48
796.93	422.39
797.111	459.26
797.291	383.48
797.471	410.11
797.652	387.58
797.832	322.04
798.012	463.35
798.192	373.24
798.373	365.05
798.553	311.8
798.733	451.07
798.913	365.05
799.093	383.48
799.274	406.01
799.454	430.59
799.634	367.1
799.814	444.92
799.994	348.67
800.174	328.19
800.354	375.29
800.534	389.63
800.714	391.67
800.894	379.39
801.074	352.76
801.254	330.23
801.434	352.76
801.614	336.38
801.794	408.06
801.974	922.1
802.154	360.95
802.334	356.86
802.514	367.1
802.693	410.11
802.873	391.67
803.053	383.48
803.233	315.9
803.413	283.13
803.592	328.19
803.772	358.91
803.952	322.04
804.131	313.85
804.311	324.09
804.491	440.83
804.67	305.66
804.85	297.47
805.03	262.65
805.209	383.48
805.389	340.47
805.568	256.51
805.748	334.33
805.928	303.61
806.107	320
806.287	373.24
806.466	328.19
806.646	272.89
806.825	322.04
807.004	324.09
807.184	336.38
807.363	352.76
807.543	295.42
807.722	221.69
807.901	315.9
808.081	250.36
808.26	276.99
808.439	252.41
808.619	250.36
808.798	293.37
808.977	283.13
809.156	313.85
809.336	244.22
809.515	303.61
809.694	336.38
809.873	301.56
810.052	320
810.231	360.95
810.411	219.64
810.59	274.94
810.769	250.36
810.948	170.49
811.127	246.27
811.306	289.28
811.485	303.61
811.664	320
811.843	219.64
812.022	242.17
812.201	242.17
812.38	246.27
812.559	225.79
812.737	256.51
812.916	127.49
813.095	225.79
813.274	221.69
813.453	291.32
813.632	266.75
813.811	229.88
813.989	205.31
814.168	268.8
814.347	225.79
814.526	264.7
814.704	313.85
814.883	260.6
815.062	193.02
815.24	317.95
815.419	147.97
815.598	264.7
815.776	219.64
815.955	215.55
816.133	203.26
816.312	313.85
816.49	240.12
816.669	182.78
816.847	186.88
817.026	217.6
817.204	213.5
817.383	209.4
817.561	139.77
817.74	176.64
817.918	238.08
818.097	260.6
818.275	119.29
818.453	199.16
818.632	231.93
818.81	240.12
818.988	236.03
819.167	231.93
819.345	141.82
819.523	195.07
819.701	186.88
819.879	229.88
820.058	145.92
820.236	221.69
820.414	166.4
820.592	188.93
820.77	162.3
820.948	207.36
821.127	174.59
821.305	195.07
821.483	125.44
821.661	213.5
821.839	186.88
822.017	141.82
822.195	225.79
822.373	213.5
822.551	170.49
822.729	205.31
822.907	137.73
823.085	242.17
823.262	184.83
823.44	150.01
823.618	137.73
823.796	186.88
823.974	117.25
824.152	166.4
824.329	123.39
824.507	164.35
824.685	227.84
824.863	143.87
825.04	170.49
825.218	211.45
825.396	279.04
825.574	135.68
825.751	244.22
825.929	172.54
826.107	135.68
826.284	147.97
826.462	233.98
826.639	133.63
826.817	160.25
826.994	260.6
827.172	119.29
827.349	213.5
827.527	203.26
827.704	188.93
827.882	195.07
828.059	137.73
828.237	90.62
828.414	160.25
828.591	135.68
828.769	170.49
828.946	90.62
829.124	164.35
829.301	158.21
829.478	115.2
829.655	174.59
829.833	78.33
830.01	113.15
830.187	242.17
830.364	164.35
830.542	186.88
830.719	258.56
830.896	111.1
831.073	117.25
831.25	133.63
831.427	115.2
831.604	172.54
831.782	147.97
831.959	193.02
832.136	80.38
832.313	154.11
832.49	145.92
832.667	117.25
832.844	127.49
833.021	127.49
833.198	94.72
833.374	111.1
833.551	135.68
833.728	143.87
833.905	129.53
834.082	72.19
834.259	170.49
834.436	193.02
834.612	164.35
834.789	88.57
834.966	96.77
835.143	201.21
835.319	74.24
835.496	164.35
835.673	178.69
835.85	150.01
836.026	145.92
836.203	193.02
836.38	98.81
836.556	156.16
836.733	133.63
836.909	236.03
837.086	84.48
837.262	72.19
837.439	86.53
837.616	90.62
837.792	121.34
837.968	-5.63
838.145	145.92
838.321	82.43
838.498	35.33
838.674	188.93
838.851	180.73
839.027	100.86
839.203	123.39
839.38	223.74
839.556	66.05
839.732	145.92
839.909	68.09
840.085	102.91
840.261	137.73
840.437	47.62
840.614	168.45
840.79	170.49
840.966	164.35
841.142	139.77
841.318	92.67
841.494	150.01
841.671	51.71
841.847	72.19
842.023	94.72
842.199	186.88
842.375	147.97
842.551	119.29
842.727	111.1
842.903	102.91
843.079	100.86
843.255	147.97
843.431	47.62
843.607	158.21
843.783	143.87
843.959	129.53
844.134	39.42
844.31	37.38
844.486	80.38
844.662	86.53
844.838	143.87
845.013	55.81
845.189	121.34
845.365	55.81
845.541	109.05
845.716	72.19
845.892	64
846.068	156.16
846.244	117.25
846.419	156.16
846.595	14.85
846.77	33.28
846.946	68.09
847.122	18.94
847.297	39.42
847.473	137.73
847.648	39.42
847.824	98.81
847.999	-32.26
848.175	55.81
848.35	127.49
848.526	133.63
848.701	55.81
848.876	135.68
849.052	133.63
849.227	68.09
849.403	66.05
849.578	64
849.753	29.18
849.929	180.73
850.104	4.61
850.279	47.62
850.454	131.58
850.63	64
850.805	86.53
850.98	55.81
851.155	66.05
851.33	35.33
851.505	70.14
851.681	66.05
851.856	41.47
852.031	121.34
852.206	86.53
852.381	57.86
852.556	61.95
852.731	119.29
852.906	49.66
853.081	143.87
853.256	57.86
853.431	-7.68
853.606	53.76
853.781	78.33
853.956	84.48
854.131	-7.68
854.305	78.33
854.48	55.81
854.655	53.76
854.83	76.29
855.005	74.24
855.18	45.57
855.354	66.05
855.529	59.9
855.704	66.05
855.879	107.01
856.053	-7.68
856.228	127.49
856.403	51.71
856.577	70.14
856.752	-69.12
856.926	78.33
857.101	64
857.276	43.52
857.45	47.62
857.625	125.44
857.799	16.9
857.974	111.1
858.148	53.76
858.323	109.05
858.497	82.43
858.672	10.75
858.846	41.47
859.02	143.87
859.195	-24.06
859.369	100.86
859.543	43.52
859.718	37.38
859.892	129.53
860.066	59.9
860.241	39.42
860.415	18.94
860.589	61.95
860.763	64
860.938	74.24
861.112	84.48
861.286	88.57
861.46	29.18
861.634	25.09
861.808	82.43
861.982	31.23
862.157	-1.54
862.331	57.86
862.505	49.66
862.679	16.9
862.853	18.94
863.027	80.38
863.201	111.1
863.375	100.86
863.549	119.29
863.722	88.57
863.896	74.24
864.07	47.62
864.244	33.28
864.418	104.96
864.592	92.67
864.766	61.95
864.939	74.24
865.113	16.9
865.287	20.99
865.461	37.38
865.634	74.24
865.808	74.24
865.982	53.76
866.156	49.66
866.329	31.23
866.503	90.62
866.676	35.33
866.85	78.33
867.024	68.09
867.197	37.38
867.371	107.01
867.544	90.62
867.718	31.23
867.891	57.86
868.065	25.09
868.238	49.66
868.412	109.05
868.585	98.81
868.759	8.7
868.932	20.99
869.105	74.24
869.279	64
869.452	25.09
869.625	55.81
869.799	82.43
869.972	-9.73
870.145	45.57
870.319	-15.87
870.492	2.56
870.665	107.01
870.838	66.05
871.011	-36.35
871.185	66.05
871.358	102.91
871.531	82.43
871.704	94.72
871.877	-32.26
872.05	25.09
872.223	92.67
872.396	18.94
872.569	109.05
872.742	33.28
872.915	49.66
873.088	16.9
873.261	-1.54
873.434	45.57
873.607	29.18
873.78	90.62
873.953	25.09
874.126	61.95
874.299	51.71
874.471	49.66
874.644	-19.97
874.817	125.44
874.99	49.66
875.163	2.56
875.335	61.95
875.508	20.99
875.681	68.09
875.853	29.18
876.026	37.38
876.199	98.81
876.371	53.76
876.544	33.28
876.717	39.42
876.889	35.33
877.062	78.33
877.234	8.7
877.407	-11.78
877.579	111.1
877.752	66.05
877.924	94.72
878.097	33.28
878.269	74.24
878.442	16.9
878.614	98.81
878.786	66.05
878.959	16.9
879.131	37.38
879.303	0.51
879.476	-15.87
879.648	74.24
879.82	94.72
879.993	0.51
880.165	49.66
880.337	14.85
880.509	43.52
880.681	43.52
880.854	-38.4
881.026	31.23
881.198	20.99
881.37	33.28
881.542	74.24
881.714	-9.73
881.886	39.42
882.058	-50.69
882.23	74.24
882.402	-7.68
882.574	45.57
882.746	29.18
882.918	31.23
883.09	133.63
883.262	45.57
883.434	-46.59
883.606	20.99
883.778	14.85
883.95	33.28
884.122	-3.58
884.293	29.18
884.465	-15.87
884.637	127.49
884.809	102.91
884.98	45.57
885.152	-5.63
885.324	166.4
885.496	10.75
885.667	-1.54
885.839	49.66
886.011	80.38
886.182	33.28
886.354	70.14
886.525	53.76
886.697	78.33
886.869	4.61
887.04	45.57
887.212	72.19
887.383	6.66
887.555	2.56
887.726	20.99
887.897	43.52
888.069	35.33
888.24	45.57
888.412	41.47
888.583	41.47
888.754	43.52
888.926	-15.87
889.097	39.42
889.268	12.8
889.44	25.09
889.611	57.86
889.782	49.66
889.953	45.57
890.125	90.62
890.296	45.57
890.467	0.51
890.638	0.51
890.809	10.75
890.98	37.38
891.151	82.43
891.323	-5.63
891.494	102.91
891.665	18.94
891.836	4.61
892.007	16.9
892.178	-22.02
892.349	78.33
892.52	25.09
892.691	14.85
892.862	113.15
893.032	-38.4
893.203	16.9
893.374	84.48
893.545	107.01
893.716	-19.97
893.887	92.67
894.057	33.28
894.228	104.96
894.399	39.42
894.57	76.29
894.74	20.99
894.911	59.9
895.082	41.47
895.253	14.85
895.423	27.14
895.594	70.14
895.764	-5.63
895.935	6.66
896.106	-54.78
896.276	23.04
896.447	4.61
896.617	41.47
896.788	-42.5
896.958	10.75
897.129	-5.63
897.299	20.99
897.47	41.47
897.64	16.9
897.81	37.38
897.981	96.77
898.151	-7.68
898.322	25.09
898.492	92.67
898.662	-54.78
898.832	4.61
899.003	43.52
899.173	41.47
899.343	18.94
899.513	27.14
