Data from USB4F104151__60__10-23-54-042.txt Node

Date: Wed Mar 12 10:23:54 EDT 2025
User: louis
Spectrometer: USB4F10415
Trigger mode: 4
Integration Time (sec): 3.000000E-2
Scans to average: 1
Electric dark correction enabled: true
Nonlinearity correction enabled: false
Boxcar width: 0
XAxis mode: Wavelengths
Number of Pixels in Spectrum: 3648
>>>>>Begin Spectral Data<<<<<
178.204	-69.97
178.424	-69.97
178.644	-69.97
178.864	-84.31
179.084	-94.55
179.304	-37.2
179.524	-65.88
179.744	52.91
179.964	38.57
180.184	-12.63
180.404	-53.59
180.624	48.81
180.844	46.76
181.064	-49.49
181.283	-16.73
181.503	7.85
181.723	40.62
181.943	22.19
182.163	73.39
182.383	26.28
182.602	36.52
182.822	40.62
183.042	48.81
183.262	42.67
183.482	-4.44
183.701	97.96
183.921	28.33
184.141	30.38
184.361	48.81
184.58	44.71
184.8	1.71
185.02	38.57
185.239	-33.11
185.459	57
185.679	145.06
185.898	87.72
186.118	28.33
186.338	32.43
186.557	28.33
186.777	-8.53
186.997	36.52
187.216	46.76
187.436	89.77
187.655	-24.92
187.875	18.09
188.095	-16.73
188.314	30.38
188.534	102.06
188.753	22.19
188.973	69.29
189.192	87.72
189.412	52.91
189.631	73.39
189.851	30.38
190.07	89.77
190.29	42.67
190.509	42.67
190.729	79.53
190.948	73.39
191.168	126.63
191.387	-0.34
191.607	40.62
191.826	22.19
192.045	30.38
192.265	26.28
192.484	44.71
192.704	7.85
192.923	20.14
193.142	97.96
193.362	-51.54
193.581	102.06
193.8	34.47
194.02	110.25
194.239	32.43
194.458	89.77
194.678	77.48
194.897	48.81
195.116	11.95
195.335	79.53
195.555	61.1
195.774	3.75
195.993	87.72
196.212	20.14
196.432	63.15
196.651	38.57
196.87	30.38
197.089	28.33
197.308	40.62
197.528	24.23
197.747	-41.3
197.966	65.19
198.185	126.63
198.404	48.81
198.623	57
198.842	57
199.062	48.81
199.281	69.29
199.5	3.75
199.719	30.38
199.938	102.06
200.157	46.76
200.376	120.49
200.595	-4.44
200.814	61.1
201.033	-29.01
201.252	89.77
201.471	63.15
201.69	54.95
201.909	54.95
202.128	7.85
202.347	81.58
202.566	50.86
202.785	22.19
203.004	-4.44
203.223	57
203.442	81.58
203.661	11.95
203.879	32.43
204.098	69.29
204.317	5.8
204.536	71.34
204.755	28.33
204.974	67.24
205.193	95.91
205.411	102.06
205.63	11.95
205.849	1.71
206.068	-4.44
206.287	65.19
206.505	20.14
206.724	32.43
206.943	32.43
207.162	28.33
207.381	52.91
207.599	-49.49
207.818	61.1
208.037	24.23
208.255	-2.39
208.474	7.85
208.693	40.62
208.911	30.38
209.13	-4.44
209.349	106.15
209.567	20.14
209.786	69.29
210.005	95.91
210.223	-4.44
210.442	32.43
210.661	83.63
210.879	54.95
211.098	32.43
211.316	48.81
211.535	9.9
211.753	-35.16
211.972	57
212.191	48.81
212.409	36.52
212.628	75.43
212.846	28.33
213.065	38.57
213.283	100.01
213.502	9.9
213.72	38.57
213.938	65.19
214.157	38.57
214.375	136.87
214.594	3.75
214.812	1.71
215.031	57
215.249	13.99
215.467	63.15
215.686	11.95
215.904	85.67
216.122	59.05
216.341	79.53
216.559	42.67
216.778	81.58
216.996	18.09
217.214	22.19
217.432	3.75
217.651	-10.58
217.869	50.86
218.087	-47.44
218.306	-18.77
218.524	67.24
218.742	57
218.96	7.85
219.179	46.76
219.397	71.34
219.615	100.01
219.833	24.23
220.051	59.05
220.27	-33.11
220.488	3.75
220.706	77.48
220.924	40.62
221.142	48.81
221.36	-20.82
221.578	89.77
221.796	93.87
222.015	-57.68
222.233	32.43
222.451	50.86
222.669	9.9
222.887	30.38
223.105	42.67
223.323	13.99
223.541	-12.63
223.759	63.15
223.977	-6.49
224.195	97.96
224.413	-8.53
224.631	59.05
224.849	32.43
225.067	95.91
225.285	57
225.503	16.04
225.721	-29.01
225.939	81.58
226.157	52.91
226.375	138.92
226.592	32.43
226.81	104.11
227.028	89.77
227.246	54.95
227.464	18.09
227.682	73.39
227.9	65.19
228.117	-14.68
228.335	18.09
228.553	-8.53
228.771	50.86
228.989	-14.68
229.206	24.23
229.424	7.85
229.642	7.85
229.86	-8.53
230.077	30.38
230.295	81.58
230.513	71.34
230.731	54.95
230.948	52.91
231.166	52.91
231.384	-8.53
231.601	59.05
231.819	81.58
232.037	-0.34
232.254	46.76
232.472	87.72
232.689	57
232.907	77.48
233.125	26.28
233.342	65.19
233.56	-16.73
233.777	-43.35
233.995	-67.92
234.213	124.58
234.43	-8.53
234.648	-61.78
234.865	34.47
235.083	59.05
235.3	22.19
235.518	-2.39
235.735	26.28
235.953	97.96
236.17	42.67
236.388	46.76
236.605	120.49
236.822	38.57
237.04	46.76
237.257	44.71
237.475	-26.96
237.692	44.71
237.909	79.53
238.127	-33.11
238.344	-0.34
238.562	91.82
238.779	13.99
238.996	46.76
239.214	16.04
239.431	5.8
239.648	46.76
239.865	40.62
240.083	36.52
240.3	71.34
240.517	13.99
240.735	-37.2
240.952	63.15
241.169	95.91
241.386	44.71
241.603	132.78
241.821	22.19
242.038	77.48
242.255	89.77
242.472	-26.96
242.689	61.1
242.907	93.87
243.124	16.04
243.341	91.82
243.558	-33.11
243.775	61.1
243.992	61.1
244.209	30.38
244.426	93.87
244.643	93.87
244.86	-35.16
245.078	16.04
245.295	63.15
245.512	34.47
245.729	1.71
245.946	83.63
246.163	22.19
246.38	-31.06
246.597	7.85
246.814	50.86
247.031	54.95
247.248	114.34
247.464	34.47
247.681	79.53
247.898	54.95
248.115	52.91
248.332	73.39
248.549	73.39
248.766	73.39
248.983	13.99
249.2	-4.44
249.417	77.48
249.633	16.04
249.85	44.71
250.067	52.91
250.284	75.43
250.501	-35.16
250.717	75.43
250.934	61.1
251.151	-57.68
251.368	65.19
251.585	61.1
251.801	69.29
252.018	28.33
252.235	61.1
252.451	30.38
252.668	48.81
252.885	54.95
253.102	38.57
253.318	16.04
253.535	57
253.752	24.23
253.968	-29.01
254.185	77.48
254.401	-2.39
254.618	20.14
254.835	52.91
255.051	104.11
255.268	97.96
255.484	77.48
255.701	22.19
255.917	89.77
256.134	85.67
256.351	46.76
256.567	-29.01
256.784	-20.82
257	40.62
257.217	95.91
257.433	52.91
257.65	69.29
257.866	3.75
258.082	59.05
258.299	-0.34
258.515	87.72
258.732	-10.58
258.948	26.28
259.165	81.58
259.381	52.91
259.597	48.81
259.814	61.1
260.03	-39.25
260.246	44.71
260.463	26.28
260.679	16.04
260.895	5.8
261.112	54.95
261.328	9.9
261.544	32.43
261.761	114.34
261.977	32.43
262.193	36.52
262.409	93.87
262.626	18.09
262.842	30.38
263.058	36.52
263.274	52.91
263.49	69.29
263.707	22.19
263.923	79.53
264.139	63.15
264.355	24.23
264.571	149.16
264.787	3.75
265.004	126.63
265.22	30.38
265.436	5.8
265.652	81.58
265.868	44.71
266.084	9.9
266.3	97.96
266.516	48.81
266.732	34.47
266.948	36.52
267.164	20.14
267.38	38.57
267.596	54.95
267.812	81.58
268.028	26.28
268.244	18.09
268.46	18.09
268.676	52.91
268.892	16.04
269.108	32.43
269.324	-0.34
269.54	18.09
269.756	106.15
269.972	44.71
270.188	-6.49
270.403	73.39
270.619	69.29
270.835	77.48
271.051	22.19
271.267	20.14
271.483	-45.4
271.698	22.19
271.914	16.04
272.13	13.99
272.346	69.29
272.562	61.1
272.777	93.87
272.993	5.8
273.209	-2.39
273.425	67.24
273.64	38.57
273.856	91.82
274.072	93.87
274.287	34.47
274.503	36.52
274.719	20.14
274.934	-74.07
275.15	-8.53
275.366	52.91
275.581	24.23
275.797	36.52
276.012	120.49
276.228	22.19
276.444	16.04
276.659	134.82
276.875	38.57
277.09	-51.54
277.306	42.67
277.521	114.34
277.737	1.71
277.952	48.81
278.168	79.53
278.383	110.25
278.599	24.23
278.814	95.91
279.03	57
279.245	81.58
279.461	112.3
279.676	69.29
279.892	-16.73
280.107	1.71
280.322	65.19
280.538	50.86
280.753	83.63
280.969	28.33
281.184	-18.77
281.399	87.72
281.615	46.76
281.83	22.19
282.045	-51.54
282.26	59.05
282.476	5.8
282.691	73.39
282.906	59.05
283.122	44.71
283.337	28.33
283.552	79.53
283.767	-20.82
283.983	81.58
284.198	65.19
284.413	87.72
284.628	91.82
284.843	38.57
285.058	28.33
285.274	75.43
285.489	89.77
285.704	87.72
285.919	48.81
286.134	65.19
286.349	69.29
286.564	77.48
286.779	89.77
286.995	24.23
287.21	-26.96
287.425	44.71
287.64	42.67
287.855	54.95
288.07	44.71
288.285	36.52
288.5	38.57
288.715	48.81
288.93	5.8
289.145	-6.49
289.36	16.04
289.575	93.87
289.79	65.19
290.004	32.43
290.219	114.34
290.434	38.57
290.649	18.09
290.864	89.77
291.079	7.85
291.294	-0.34
291.509	32.43
291.724	104.11
291.938	-24.92
292.153	61.1
292.368	44.71
292.583	9.9
292.798	63.15
293.012	24.23
293.227	79.53
293.442	3.75
293.657	114.34
293.871	34.47
294.086	104.11
294.301	36.52
294.516	46.76
294.73	114.34
294.945	83.63
295.16	61.1
295.374	159.4
295.589	30.38
295.804	42.67
296.018	-12.63
296.233	100.01
296.447	11.95
296.662	3.75
296.877	50.86
297.091	85.67
297.306	-10.58
297.52	-14.68
297.735	63.15
297.949	102.06
298.164	65.19
298.378	46.76
298.593	-33.11
298.807	46.76
299.022	24.23
299.236	-4.44
299.451	-10.58
299.665	-33.11
299.88	36.52
300.094	77.48
300.309	3.75
300.523	93.87
300.737	26.28
300.952	73.39
301.166	32.43
301.381	36.52
301.595	118.44
301.809	24.23
302.024	73.39
302.238	48.81
302.452	69.29
302.667	9.9
302.881	132.78
303.095	85.67
303.309	81.58
303.524	61.1
303.738	48.81
303.952	38.57
304.166	116.39
304.381	52.91
304.595	63.15
304.809	-22.87
305.023	59.05
305.237	13.99
305.452	-53.59
305.666	34.47
305.88	75.43
306.094	63.15
306.308	97.96
306.522	50.86
306.736	104.11
306.95	1.71
307.164	97.96
307.379	85.67
307.593	79.53
307.807	38.57
308.021	65.19
308.235	-10.58
308.449	44.71
308.663	5.8
308.877	97.96
309.091	87.72
309.305	89.77
309.519	-8.53
309.733	71.34
309.947	3.75
310.161	24.23
310.374	48.81
310.588	44.71
310.802	28.33
311.016	16.04
311.23	38.57
311.444	63.15
311.658	118.44
311.872	44.71
312.085	54.95
312.299	40.62
312.513	116.39
312.727	81.58
312.941	18.09
313.154	30.38
313.368	110.25
313.582	32.43
313.796	7.85
314.009	20.14
314.223	120.49
314.437	16.04
314.651	7.85
314.864	3.75
315.078	54.95
315.292	18.09
315.505	20.14
315.719	20.14
315.933	71.34
316.146	30.38
316.36	77.48
316.573	50.86
316.787	57
317.001	89.77
317.214	26.28
317.428	50.86
317.641	71.34
317.855	-18.77
318.068	-0.34
318.282	69.29
318.495	46.76
318.709	85.67
318.922	106.15
319.136	48.81
319.349	44.71
319.563	26.28
319.776	-12.63
319.99	18.09
320.203	44.71
320.417	57
320.63	38.57
320.843	128.68
321.057	36.52
321.27	16.04
321.483	-51.54
321.697	179.88
321.91	-0.34
322.124	65.19
322.337	18.09
322.55	13.99
322.763	36.52
322.977	52.91
323.19	24.23
323.403	77.48
323.617	77.48
323.83	-16.73
324.043	1.71
324.256	48.81
324.469	-0.34
324.683	-0.34
324.896	104.11
325.109	34.47
325.322	-18.77
325.535	32.43
325.748	69.29
325.962	108.2
326.175	-39.25
326.388	1.71
326.601	81.58
326.814	71.34
327.027	97.96
327.24	102.06
327.453	-8.53
327.666	65.19
327.879	22.19
328.092	75.43
328.305	73.39
328.518	69.29
328.731	61.1
328.944	36.52
329.157	57
329.37	69.29
329.583	120.49
329.796	77.48
330.009	81.58
330.222	93.87
330.435	71.34
330.648	52.91
330.861	77.48
331.073	100.01
331.286	-4.44
331.499	13.99
331.712	30.38
331.925	20.14
332.138	-0.34
332.35	124.58
332.563	50.86
332.776	28.33
332.989	83.63
333.202	30.38
333.414	-6.49
333.627	81.58
333.84	75.43
334.053	100.01
334.265	71.34
334.478	24.23
334.691	28.33
334.903	95.91
335.116	22.19
335.329	44.71
335.541	52.91
335.754	81.58
335.966	40.62
336.179	18.09
336.392	32.43
336.604	71.34
336.817	122.54
337.029	110.25
337.242	83.63
337.454	114.34
337.667	24.23
337.88	16.04
338.092	54.95
338.305	5.8
338.517	13.99
338.729	57
338.942	77.48
339.154	67.24
339.367	65.19
339.579	46.76
339.792	42.67
340.004	16.04
340.217	32.43
340.429	24.23
340.641	-6.49
340.854	52.91
341.066	61.1
341.278	7.85
341.491	52.91
341.703	122.54
341.915	-16.73
342.128	44.71
342.34	81.58
342.552	81.58
342.764	38.57
342.977	71.34
343.189	108.2
343.401	75.43
343.613	-24.92
343.826	38.57
344.038	38.57
344.25	85.67
344.462	11.95
344.674	38.57
344.886	75.43
345.099	54.95
345.311	44.71
345.523	44.71
345.735	79.53
345.947	34.47
346.159	34.47
346.371	89.77
346.583	-0.34
346.795	95.91
347.007	65.19
347.219	112.3
347.431	40.62
347.643	50.86
347.855	93.87
348.067	100.01
348.279	-10.58
348.491	67.24
348.703	104.11
348.915	63.15
349.127	30.38
349.339	130.73
349.551	-26.96
349.763	85.67
349.975	3.75
350.187	102.06
350.399	40.62
350.61	95.91
350.822	13.99
351.034	61.1
351.246	61.1
351.458	57
351.669	73.39
351.881	48.81
352.093	57
352.305	81.58
352.517	40.62
352.728	93.87
352.94	-35.16
353.152	134.82
353.363	-12.63
353.575	71.34
353.787	93.87
353.999	61.1
354.21	102.06
354.422	30.38
354.633	16.04
354.845	1.71
355.057	87.72
355.268	87.72
355.48	106.15
355.692	-37.2
355.903	114.34
356.115	63.15
356.326	18.09
356.538	149.16
356.749	20.14
356.961	52.91
357.172	40.62
357.384	11.95
357.595	44.71
357.807	75.43
358.018	65.19
358.23	11.95
358.441	97.96
358.653	134.82
358.864	3.75
359.075	63.15
359.287	30.38
359.498	79.53
359.709	65.19
359.921	36.52
360.132	57
360.344	106.15
360.555	61.1
360.766	69.29
360.977	20.14
361.189	34.47
361.4	63.15
361.611	69.29
361.823	22.19
362.034	46.76
362.245	-102.74
362.456	-8.53
362.667	114.34
362.879	63.15
363.09	85.67
363.301	28.33
363.512	91.82
363.723	73.39
363.935	69.29
364.146	20.14
364.357	63.15
364.568	54.95
364.779	-0.34
364.99	73.39
365.201	44.71
365.412	102.06
365.623	83.63
365.834	73.39
366.045	79.53
366.256	93.87
366.467	77.48
366.678	85.67
366.889	63.15
367.1	28.33
367.311	46.76
367.522	-2.39
367.733	57
367.944	81.58
368.155	28.33
368.366	57
368.577	83.63
368.788	28.33
368.999	26.28
369.209	11.95
369.42	81.58
369.631	134.82
369.842	120.49
370.053	9.9
370.264	104.11
370.474	52.91
370.685	30.38
370.896	85.67
371.107	93.87
371.317	75.43
371.528	24.23
371.739	122.54
371.95	42.67
372.16	44.71
372.371	42.67
372.582	28.33
372.792	40.62
373.003	52.91
373.214	73.39
373.424	9.9
373.635	22.19
373.846	104.11
374.056	100.01
374.267	61.1
374.477	38.57
374.688	57
374.898	136.87
375.109	120.49
375.319	89.77
375.53	132.78
375.74	11.95
375.951	110.25
376.161	73.39
376.372	118.44
376.582	89.77
376.793	77.48
377.003	16.04
377.214	-8.53
377.424	130.73
377.635	69.29
377.845	24.23
378.055	112.3
378.266	-2.39
378.476	67.24
378.686	79.53
378.897	85.67
379.107	97.96
379.317	44.71
379.528	97.96
379.738	57
379.948	81.58
380.158	112.3
380.369	46.76
380.579	81.58
380.789	69.29
380.999	79.53
381.21	32.43
381.42	138.92
381.63	97.96
381.84	50.86
382.05	-16.73
382.261	54.95
382.471	112.3
382.681	26.28
382.891	81.58
383.101	-22.87
383.311	32.43
383.521	24.23
383.731	126.63
383.941	95.91
384.151	79.53
384.361	69.29
384.571	61.1
384.781	30.38
384.991	69.29
385.201	87.72
385.411	93.87
385.621	87.72
385.831	28.33
386.041	89.77
386.251	40.62
386.461	71.34
386.671	65.19
386.881	57
387.091	44.71
387.301	212.65
387.511	114.34
387.72	48.81
387.93	79.53
388.14	63.15
388.35	-16.73
388.56	65.19
388.769	106.15
388.979	108.2
389.189	124.58
389.399	73.39
389.609	116.39
389.818	106.15
390.028	61.1
390.238	89.77
390.447	73.39
390.657	97.96
390.867	91.82
391.076	22.19
391.286	69.29
391.496	34.47
391.705	36.52
391.915	63.15
392.125	126.63
392.334	48.81
392.544	130.73
392.753	48.81
392.963	77.48
393.172	77.48
393.382	81.58
393.591	104.11
393.801	151.21
394.01	87.72
394.22	97.96
394.429	108.2
394.639	38.57
394.848	134.82
395.058	87.72
395.267	112.3
395.477	175.78
395.686	145.06
395.895	245.41
396.105	161.45
396.314	95.91
396.524	145.06
396.733	104.11
396.942	36.52
397.152	102.06
397.361	192.17
397.57	97.96
397.78	116.39
397.989	54.95
398.198	202.41
398.407	126.63
398.617	116.39
398.826	73.39
399.035	122.54
399.244	97.96
399.453	126.63
399.663	140.97
399.872	93.87
400.081	44.71
400.29	163.5
400.499	138.92
400.708	167.59
400.917	188.07
401.127	147.11
401.336	122.54
401.545	196.26
401.754	71.34
401.963	183.98
402.172	122.54
402.381	136.87
402.59	112.3
402.799	192.17
403.008	212.65
403.217	210.6
403.426	147.11
403.635	128.68
403.844	130.73
404.053	130.73
404.262	106.15
404.471	186.02
404.68	231.08
404.888	106.15
405.097	208.55
405.306	200.36
405.515	220.84
405.724	138.92
405.933	198.31
406.142	161.45
406.35	251.56
406.559	110.25
406.768	186.02
406.977	253.61
407.185	200.36
407.394	265.89
407.603	210.6
407.812	267.94
408.02	253.61
408.229	224.94
408.438	286.37
408.646	251.56
408.855	276.13
409.064	374.44
409.272	263.85
409.481	286.37
409.69	282.28
409.898	378.53
410.107	337.57
410.315	409.25
410.524	399.01
410.733	409.25
410.941	388.77
411.15	413.35
411.358	431.78
411.567	513.7
411.775	444.07
411.984	495.27
412.192	446.12
412.401	577.19
412.609	562.85
412.818	612
413.026	708.26
413.234	558.75
413.443	622.24
413.651	622.24
413.86	671.39
414.068	765.6
414.276	714.4
414.485	730.78
414.693	741.02
414.901	728.74
415.11	796.32
415.318	808.61
415.526	841.37
415.734	956.06
415.943	888.48
416.151	994.97
416.359	1009.31
416.567	1003.16
416.776	1027.74
416.984	1142.43
417.192	1130.14
417.4	1080.99
417.608	1126.04
417.817	1101.47
418.025	1232.54
418.233	1324.69
418.441	1267.35
418.649	1330.84
418.857	1488.53
419.065	1535.64
419.273	1517.2
419.481	1537.68
419.689	1570.45
419.897	1777.3
420.105	1695.38
420.313	1732.24
420.521	1926.8
420.729	1941.13
420.937	1986.19
421.145	1998.48
421.353	2000.52
421.561	2160.27
421.769	2252.42
421.977	2326.15
422.185	2383.49
422.393	2545.28
422.601	2637.44
422.809	2686.59
423.017	2602.63
423.224	2614.91
423.432	2866.81
423.64	2858.62
423.848	3120.76
424.056	2977.41
424.263	3309.18
424.471	3292.79
424.679	3288.7
424.887	3475.06
425.094	3579.51
425.302	3632.76
425.51	3767.92
425.718	3993.2
425.925	3884.66
426.133	4028.01
426.341	4189.8
426.548	4324.97
426.756	4437.61
426.964	4548.2
427.171	4732.51
427.379	4992.61
427.586	4970.08
427.794	5097.05
428.001	5394.01
428.209	5717.59
428.417	5508.69
428.624	5858.9
428.832	5873.23
429.039	6069.84
429.247	5910.1
429.454	6368.84
429.662	6774.34
429.869	6463.05
430.076	6870.59
430.284	6680.13
430.491	6958.66
430.699	7335.48
430.906	7581.24
431.114	7372.35
431.321	7761.46
431.528	7908.91
431.736	8281.64
431.943	8736.29
432.15	8437.29
432.358	8670.76
432.565	9059.87
432.772	9084.45
432.979	9586.2
433.187	9797.14
433.394	9776.66
433.601	10530.31
433.808	10495.5
434.016	10341.9
434.223	10812.93
434.43	11623.93
434.637	11105.79
434.844	12029.43
435.052	12078.58
435.259	12238.32
435.466	12266.99
435.673	12035.57
435.88	12807.66
436.087	13497.82
436.294	13667.8
436.501	13184.48
436.708	13293.02
436.915	14034.39
437.122	14708.17
437.329	14642.64
437.537	14953.93
437.743	15455.68
437.95	14986.69
438.157	15914.42
438.364	16502.19
438.571	16489.9
438.778	16604.59
438.985	17878.43
439.192	17149.35
439.399	18167.19
439.606	17460.64
439.813	18187.67
440.02	19670.4
440.227	19160.45
440.433	19135.88
440.64	20047.22
440.847	19352.96
441.054	20153.72
441.261	21413.22
441.467	21153.13
441.674	21693.79
441.881	22472.02
442.088	22429.01
442.294	22078.81
442.501	22482.26
442.708	23143.75
442.914	24126.78
443.121	24683.83
443.328	23981.37
443.534	25933.09
443.741	25060.65
443.948	25210.15
444.154	26756.37
444.361	26281.24
444.568	26590.48
444.774	26631.44
444.981	27120.91
445.187	27903.23
445.394	29086.96
445.6	28431.61
445.807	31163.6
446.013	29713.64
446.22	30258.4
446.426	31552.71
446.633	31786.18
446.839	33045.68
447.046	31673.54
447.252	33449.13
447.459	33537.19
447.665	33256.62
447.871	34682.01
448.078	35945.61
448.284	34038.95
448.491	35251.34
448.697	36578.43
448.903	36772.99
449.11	36742.27
449.316	36166.79
449.522	36988.02
449.728	38098.02
449.935	38356.07
450.141	38270.05
450.347	38968.41
450.553	37842.03
450.76	38057.06
450.966	39601.23
451.172	39130.2
451.378	39711.82
451.584	39359.57
451.791	39986.25
451.997	39822.41
452.203	40639.55
452.409	39828.55
452.615	40152.13
452.821	38945.88
453.027	38388.83
453.233	40526.91
453.44	38554.72
453.646	38700.12
453.852	39515.22
454.058	40154.18
454.264	38335.59
454.47	39183.44
454.676	38431.84
454.882	39312.47
455.088	36306.05
455.294	36627.58
455.5	37237.87
455.705	37008.5
455.911	36189.31
456.117	35411.09
456.323	34770.07
456.529	33182.9
456.735	34366.62
456.941	33311.92
457.147	33033.39
457.352	32029.89
457.558	31493.32
457.764	31655.11
457.97	31315.15
458.176	30227.68
458.381	30586.07
458.587	28710.13
458.793	28890.35
458.999	27311.37
459.204	29359.34
459.41	28568.82
459.616	26789.14
459.821	27129.1
460.027	26682.64
460.233	26017.05
460.438	24620.34
460.644	25060.65
460.85	23776.58
461.055	23502.15
461.261	23670.08
461.466	21826.91
461.672	21169.51
461.878	22652.24
462.083	20761.97
462.289	20704.62
462.494	20708.72
462.7	19660.16
462.905	18980.23
463.111	19731.84
463.316	19787.13
463.522	19219.85
463.727	19479.94
463.932	19228.04
464.138	19174.79
464.343	19142.02
464.549	18802.06
464.754	19275.14
464.959	19187.08
465.165	19086.73
465.37	18437.52
465.575	17796.51
465.781	18392.47
465.986	18707.85
466.191	17919.39
466.397	17675.68
466.602	16723.37
466.807	17391.01
467.012	17456.54
467.218	17423.78
467.423	17077.67
467.628	17141.16
467.833	17755.55
468.038	17251.75
468.244	16672.17
468.449	17272.23
468.654	16692.65
468.859	16807.34
469.064	16711.08
469.269	16223.67
469.474	16049.59
469.679	16647.6
469.885	15834.55
470.09	16072.12
470.295	15922.62
470.5	15642.04
470.705	15807.93
470.91	15138.24
471.115	15185.35
471.32	15465.92
471.525	15498.69
471.73	15017.41
471.935	15074.76
472.139	14542.28
472.344	14745.03
472.549	14611.92
472.754	14282.19
472.959	14306.77
473.164	13635.03
473.369	13532.64
473.574	13991.38
473.778	13923.8
473.983	13440.48
474.188	13802.97
474.393	12963.3
474.598	13221.34
474.802	12969.44
475.007	12987.88
475.212	13104.61
475.417	12443.12
475.621	12512.75
475.826	12561.9
476.031	12318.19
476.235	12369.39
476.44	12144.11
476.645	12021.24
476.849	12211.7
477.054	12117.49
477.259	11705.85
477.463	11687.42
477.668	11531.77
477.872	11658.74
478.077	11394.56
478.282	11181.57
478.486	11017.73
478.691	11144.7
478.895	11011.59
479.1	10948.1
479.304	10749.45
479.509	10573.32
479.713	10810.89
479.918	10589.71
480.122	10438.16
480.326	10620.42
480.531	10538.51
480.735	10671.62
480.94	10200.59
481.144	10636.81
481.348	10212.88
481.553	10518.03
481.757	10128.91
481.961	10307.09
482.166	10403.34
482.37	10391.05
482.574	10120.72
482.778	10161.68
482.983	10421.77
483.187	10038.8
483.391	10446.35
483.595	10133.01
483.8	10006.03
484.004	10167.82
484.208	10384.91
484.412	9932.31
484.616	10075.66
484.821	10253.84
485.025	10071.57
485.229	10339.85
485.433	10069.52
485.637	10386.96
485.841	10067.47
486.045	10145.3
486.249	10165.78
486.453	10028.56
486.657	10057.23
486.861	10245.65
487.065	9854.48
487.269	10094.1
487.473	9774.61
487.677	10288.65
487.881	10339.85
488.085	10313.23
488.289	10249.74
488.493	10128.91
488.697	10141.2
488.901	10280.46
489.105	10126.86
489.309	10296.85
489.512	10354.19
489.716	10405.39
489.92	10133.01
490.124	10219.02
490.328	10491.4
490.531	10401.29
490.735	10479.11
490.939	10595.85
491.143	10405.39
491.346	10509.83
491.55	10769.93
491.754	10741.25
491.958	10784.26
492.161	10655.24
492.365	10884.61
492.569	10761.73
492.772	10843.65
492.976	10974.72
493.18	10837.51
493.383	11075.07
493.587	11292.16
493.79	11361.79
493.994	11148.8
494.197	11599.35
494.401	11492.86
494.605	11298.3
494.808	11824.63
495.012	11601.4
495.215	11963.89
495.419	11707.9
495.622	11826.68
495.825	12086.77
496.029	12051.95
496.232	12393.97
496.436	12166.64
496.639	12557.8
496.843	12453.36
497.046	12762.6
497.249	12824.04
497.453	12850.66
497.656	13188.58
497.859	13041.12
498.063	13247.97
498.266	13555.16
498.469	13434.33
498.673	13432.29
498.876	13575.64
499.079	13874.65
499.282	13837.78
499.485	14216.66
499.689	14407.12
499.892	14835.14
500.095	14667.21
500.298	14951.88
500.501	14865.86
500.705	15263.17
500.908	15580.6
501.111	15650.24
501.314	15805.88
501.517	15723.96
501.72	16143.8
501.923	16201.14
502.126	16375.22
502.329	16799.15
502.532	16694.7
502.735	16905.64
502.938	17100.2
503.141	17202.6
503.344	17622.43
503.547	17614.24
503.75	18001.3
503.953	18048.41
504.156	18210.2
504.359	18492.82
504.562	18236.82
504.765	19008.9
504.968	19021.19
505.17	19240.33
505.373	19350.92
505.576	19674.49
505.779	19950.97
505.982	20051.32
506.185	20567.41
506.387	20569.46
506.59	20712.81
506.793	21015.91
506.996	21116.26
507.198	21757.28
507.401	21456.23
507.604	22007.13
507.807	22390.1
508.009	22414.68
508.212	22476.12
508.415	22863.18
508.617	23364.93
508.82	23453
509.022	23287.11
509.225	23919.93
509.428	23952.7
509.63	24096.06
509.833	24165.69
510.035	24743.22
510.238	24786.22
510.44	25216.3
510.643	25814.3
510.845	25539.88
511.048	25820.45
511.25	26150.17
511.453	26275.1
511.655	27180.3
511.858	26492.18
512.06	27084.05
512.262	27491.59
512.465	27364.62
512.667	27450.63
512.87	28333.31
513.072	27899.14
513.274	28749.04
513.477	28851.44
513.679	28869.87
513.881	29293.8
514.084	29662.44
514.286	30102.75
514.488	29988.07
514.69	30745.81
514.893	30909.65
515.095	30872.79
515.297	31546.57
515.499	31231.18
515.701	32003.27
515.904	32392.38
516.106	32453.82
516.308	32728.25
516.51	32990.39
516.712	33365.17
516.914	33739.94
517.116	34292.9
517.318	34497.69
517.52	34460.83
517.722	34557.08
517.925	34997.4
518.127	35382.41
518.329	35902.6
518.531	35687.56
518.733	36680.83
518.935	36734.07
519.136	36836.47
519.338	37358.7
519.54	37434.48
519.742	37813.35
519.944	38243.43
520.146	38747.23
520.348	38919.26
520.55	38870.11
520.752	38851.67
520.954	40047.69
521.155	39789.64
521.357	40283.2
521.559	40361.03
521.761	41253.94
521.963	40760.38
522.164	41108.54
522.366	41886.76
522.568	42032.17
522.77	41800.75
522.971	42877.98
523.173	42343.46
523.375	43017.24
523.576	42904.6
523.778	42908.7
523.98	43643.92
524.181	43822.09
524.383	43865.1
524.584	44080.14
524.786	44471.3
524.988	44575.75
525.189	44747.78
525.391	45231.1
525.592	45499.38
525.794	45874.16
525.995	45665.27
526.197	45958.13
526.398	45835.25
526.6	46726.11
526.801	46466.02
527.003	46734.31
527.204	47266.78
527.406	47367.13
527.607	46875.62
527.808	47576.02
528.01	46865.38
528.211	47731.67
528.412	48427.98
528.614	48010.19
528.815	48010.19
529.016	48704.45
529.218	48100.3
529.419	48667.59
529.62	48718.79
529.822	48309.19
530.023	48657.35
530.224	49101.76
530.425	48788.42
530.626	48219.08
530.828	48602.05
531.029	49583.03
531.23	48958.4
531.431	49427.38
531.632	49546.17
531.833	49623.99
532.035	49292.22
532.236	49644.47
532.437	49793.97
532.638	49503.16
532.839	49687.48
533.04	49853.36
533.241	49843.12
533.442	50437.03
533.643	49824.69
533.844	49746.87
534.045	50101.17
534.246	49953.71
534.447	50160.56
534.648	50066.35
534.849	50009.01
535.05	50228.14
535.251	50123.69
535.451	50072.49
535.652	50109.36
535.853	50203.56
536.054	50070.45
536.255	50414.51
536.456	50154.41
536.657	50774.95
536.857	49912.75
537.058	49656.76
537.259	50647.97
537.46	50324.39
537.66	50084.78
537.861	50242.48
538.062	50402.22
538.263	50385.83
538.463	50111.41
538.664	50394.03
538.865	50373.55
539.065	50379.69
539.266	50164.65
539.466	50609.06
539.667	49947.57
539.868	50713.51
540.068	50574.25
540.269	50037.68
540.469	50654.12
540.67	50324.39
540.87	50363.31
541.071	49646.52
541.271	50389.93
541.472	50645.93
541.672	50293.68
541.873	50279.34
542.073	49808.31
542.274	50600.87
542.474	50226.09
542.675	49603.51
542.875	50611.11
543.075	50273.2
543.276	49431.48
543.476	50068.4
543.676	50150.32
543.877	50406.31
544.077	50295.72
544.277	50047.92
544.478	50119.6
544.678	50336.68
544.878	50119.6
545.078	50344.87
545.279	50176.94
545.479	49712.05
545.679	50119.6
545.879	49959.86
546.079	50260.91
546.28	49767.35
546.48	49355.71
546.68	49818.55
546.88	50373.55
547.08	49654.71
547.28	49922.99
547.48	49320.89
547.68	49949.62
547.88	49697.72
548.081	49601.46
548.281	49980.34
548.481	49654.71
548.681	50541.48
548.881	49695.67
549.081	49759.16
549.28	49736.63
549.48	50379.69
549.68	49435.58
549.88	50140.08
550.08	49423.29
550.28	49693.62
550.48	49388.47
550.68	49808.31
550.88	49710
551.08	49466.3
551.279	49601.46
551.479	49466.3
551.679	49390.52
551.879	49312.7
552.079	49916.85
552.278	49472.44
552.478	49075.13
552.678	49537.97
552.878	49791.92
553.077	49560.5
553.277	49034.17
553.477	49916.85
553.676	48958.4
553.876	49474.49
554.076	48997.31
554.275	48808.9
554.475	48458.7
554.674	49521.59
554.874	48976.83
555.074	48890.82
555.273	49408.95
555.473	49214.4
555.672	48876.48
555.872	48925.63
556.071	48966.59
556.271	49165.24
556.47	48694.21
556.67	48462.79
556.869	48862.15
557.068	48862.15
557.268	48513.99
557.467	48477.13
557.667	48352.2
557.866	48309.19
558.065	48567.24
558.265	48286.67
558.464	48276.43
558.663	48677.83
558.863	47676.37
559.062	48649.16
559.261	47915.98
559.461	48401.35
559.66	47268.83
559.859	47612.88
560.058	47590.36
560.258	47731.67
560.457	47055.84
560.656	47633.36
560.855	47440.85
561.054	47268.83
561.253	47305.69
561.453	47113.18
561.652	47363.03
561.851	47074.27
562.05	47002.59
562.249	46605.28
562.448	47309.78
562.647	47256.54
562.846	47143.9
563.045	47104.99
563.244	46136.3
563.443	47010.78
563.642	45872.11
563.841	46334.95
564.04	45974.51
564.239	46220.27
564.438	46064.62
564.637	46375.91
564.836	46044.14
565.035	45237.24
565.234	45589.49
565.432	45646.83
565.631	45507.57
565.83	45554.68
566.029	45652.98
566.228	45673.46
566.427	45040.64
566.625	45052.92
566.824	44964.86
567.023	44944.38
567.222	44164.1
567.42	45249.53
567.619	44565.51
567.818	44426.24
568.016	43854.86
568.215	44665.86
568.414	44090.38
568.612	44092.43
568.811	44084.23
569.01	44196.87
569.208	43475.99
569.407	44164.1
569.605	43607.06
569.804	44209.16
570.002	43312.15
570.201	43576.34
570.4	43414.55
570.598	42771.49
570.797	42789.92
570.995	43308.05
571.193	42538.02
571.392	43086.87
571.59	42591.26
571.789	42714.14
571.987	42265.64
572.186	42615.84
572.384	41956.39
572.582	42472.48
572.781	42095.66
572.979	41782.32
573.177	41821.23
573.376	41940.01
573.574	41434.16
573.772	41821.23
573.971	41047.1
574.169	41370.68
574.367	40977.47
574.565	41395.25
574.763	40940.6
574.962	40528.96
575.16	40291.4
575.358	40686.65
575.556	40254.53
575.754	40760.38
575.952	40150.09
576.151	40584.26
576.349	39666.77
576.547	40004.68
576.745	40193.09
576.943	40180.81
577.141	39930.95
577.339	40113.22
577.537	39486.54
577.735	39638.09
577.933	39455.82
578.131	39189.59
578.329	38767.71
578.527	38876.25
578.725	39255.12
578.923	39138.39
579.121	38696.03
579.319	38851.67
579.516	39054.42
579.714	38747.23
579.912	38268
580.11	37956.71
580.308	38526.05
580.506	38038.63
580.704	37805.16
580.901	37872.74
581.099	38079.59
581.297	37823.59
581.495	37672.04
581.692	37952.62
581.89	37379.18
582.088	37487.73
582.285	37457.01
582.483	37651.56
582.681	37201.01
582.878	37293.17
583.076	36807.8
583.274	37018.74
583.471	37000.31
583.669	37229.68
583.866	36461.69
584.064	36629.63
584.262	36504.7
584.459	36600.96
584.657	36041.86
584.854	36320.38
585.052	35617.93
585.249	36181.12
585.447	35914.89
585.644	35781.77
585.841	35892.36
586.039	35796.1
586.236	35316.88
586.434	35218.58
586.631	34882.71
586.828	35308.69
587.026	35194
587.223	35097.75
587.42	34692.25
587.618	35378.32
587.815	34909.33
588.012	34366.62
588.21	34835.61
588.407	34976.92
588.604	34489.5
588.801	34012.32
588.999	34516.12
589.196	34010.28
589.393	34438.3
589.59	33662.12
589.787	33809.57
589.984	33449.13
590.182	33414.32
590.379	33610.92
590.576	33438.89
590.773	33432.75
590.97	33234.1
591.167	33567.91
591.364	33105.07
591.561	32920.76
591.758	32842.93
591.955	32748.73
592.152	32771.25
592.349	32466.11
592.546	32937.14
592.743	32400.57
592.94	32081.09
593.137	32294.08
593.334	32416.96
593.531	32048.32
593.727	32220.35
593.924	31993.03
594.121	31843.52
594.318	32103.62
594.515	31493.32
594.712	31993.03
594.908	31302.86
595.105	31993.03
595.302	31292.62
595.499	31397.07
595.696	31089.87
595.892	31024.34
596.089	31288.53
596.286	31026.39
596.482	30960.85
596.679	31136.98
596.876	30999.76
597.072	30598.36
597.269	30276.83
597.466	30614.74
597.662	30309.6
597.859	30352.6
598.055	30299.36
598.252	30250.21
598.448	29854.95
598.645	29971.68
598.841	29691.11
599.038	29641.96
599.234	29781.22
599.431	29590.76
599.627	29349.1
599.824	29412.59
600.02	29213.93
600.217	29420.78
600.413	29183.21
600.609	29064.43
600.806	29107.44
601.002	29115.63
601.198	28517.62
601.395	28247.29
601.591	29017.33
601.787	28763.38
601.984	28271.87
602.18	28589.3
602.376	28017.92
602.572	28275.96
602.769	28380.41
602.965	27925.76
603.161	27950.34
603.357	28083.45
603.553	27819.27
603.75	27964.67
603.946	27649.28
604.142	27733.25
604.338	27198.73
604.534	27526.41
604.73	27327.75
604.926	27405.58
605.122	27458.82
605.318	26813.71
605.514	27004.17
605.71	26756.37
605.906	26989.84
606.102	26844.43
606.298	26918.16
606.494	26729.75
606.69	26428.7
606.886	26985.74
607.082	26361.11
607.278	26713.36
607.474	26129.69
607.67	26291.48
607.866	26035.49
608.062	26606.87
608.257	25711.91
608.453	26277.15
608.649	26264.86
608.845	25890.08
609.041	26281.24
609.236	26082.59
609.432	25793.83
609.628	25861.41
609.824	25793.83
610.019	25711.91
610.215	25746.72
610.411	25672.99
610.606	25494.82
610.802	25558.31
610.998	25488.68
611.193	25247.02
611.389	25341.22
611.584	25173.29
611.78	25183.53
611.976	25218.35
612.171	24909.1
612.367	25048.36
612.562	24896.81
612.758	24595.76
612.953	24712.5
613.149	25050.41
613.344	24888.62
613.539	25173.29
613.735	24720.69
613.93	24827.18
614.126	24636.72
614.321	24708.4
614.517	24542.52
614.712	24466.74
614.907	24472.89
615.103	24519.99
615.298	24100.15
615.493	24403.25
615.688	24155.45
615.884	24419.64
616.079	23625.03
616.274	24171.83
616.47	24124.73
616.665	24102.2
616.86	23891.26
617.055	23858.49
617.25	23754.05
617.445	23838.01
617.641	23323.97
617.836	23641.41
618.031	23268.68
618.226	23375.17
618.421	23194.95
618.616	23430.47
618.811	22924.62
619.006	23475.52
619.201	22693.2
619.396	22922.57
619.591	22773.07
619.786	23065.93
619.981	22525.27
620.176	22598.99
620.371	22410.58
620.566	22574.42
620.761	22144.34
620.956	22535.51
621.151	21919.07
621.346	22328.66
621.541	21587.3
621.735	22039.9
621.93	21495.14
622.125	21945.69
622.32	21474.66
622.515	21822.81
622.709	21302.63
622.904	21060.97
623.099	20802.93
623.294	21065.07
623.488	20911.47
623.683	21171.56
623.878	20704.62
624.072	20737.39
624.267	20448.63
624.462	20628.85
624.656	20346.23
624.851	20454.77
625.046	20200.82
625.24	19963.26
625.435	19570.05
625.629	19948.92
625.824	19770.75
626.018	19735.93
626.213	19441.03
626.407	19363.2
626.602	18789.77
626.796	19307.91
626.991	19119.49
627.185	18824.59
627.38	18765.2
627.574	18609.55
627.768	18621.84
627.963	18636.17
628.157	18761.1
628.352	18490.77
628.546	17991.06
628.74	18247.06
628.935	18124.18
629.129	17976.73
629.323	17726.88
629.517	17946.01
629.712	17620.38
629.906	17702.3
630.1	17339.81
630.294	17434.02
630.489	17348
630.683	17409.44
630.877	17104.29
631.071	17171.88
631.265	17171.88
631.459	16942.5
631.653	16745.9
631.848	16741.8
632.042	16606.64
632.236	16686.51
632.43	16450.99
632.624	16332.21
632.818	16223.67
633.012	16483.76
633.206	16139.7
633.4	16166.32
633.594	15834.55
633.788	15859.13
633.982	16039.35
634.176	15967.67
634.369	15666.62
634.563	15547.84
634.757	15293.89
634.951	15472.06
635.145	15482.3
635.339	15238.59
635.533	15250.88
635.726	15316.42
635.92	15250.88
636.114	14990.79
636.308	14800.33
636.501	14718.41
636.695	14921.16
636.889	14407.12
637.083	14540.24
637.276	14400.97
637.47	14351.82
637.664	14245.33
637.857	14417.36
638.051	14378.45
638.244	14325.2
638.438	14376.4
638.632	14030.29
638.825	13682.14
639.019	13651.42
639.212	13827.54
639.406	13569.5
639.599	13573.6
639.793	13542.88
639.986	13295.07
640.18	13397.47
640.373	13256.16
640.567	13102.56
640.76	13217.25
640.954	12967.4
641.147	12869.09
641.34	12910.05
641.534	12803.56
641.727	13010.4
641.92	12756.46
642.114	12766.7
642.307	12451.31
642.5	12729.83
642.694	12365.29
642.887	12412.4
643.08	12418.54
643.273	12436.97
643.467	12213.74
643.66	12166.64
643.853	12088.82
644.046	11847.16
644.239	11820.53
644.432	11906.55
644.626	11570.68
644.819	11617.79
645.012	11658.74
645.205	11621.88
645.398	11484.67
645.591	11685.37
645.784	11539.96
645.977	11230.72
646.17	11255.29
646.363	11255.29
646.556	11030.02
646.749	11042.31
646.942	11122.18
647.135	10819.08
647.328	11007.49
647.521	10806.79
647.714	10741.25
647.907	10669.58
648.099	10595.85
648.292	10817.03
648.485	10567.18
648.678	10407.44
648.871	10466.83
649.064	10434.06
649.256	10302.99
649.449	10165.78
649.642	10081.81
649.835	10237.45
650.027	10006.03
650.22	9995.79
650.413	10069.52
650.605	9807.38
650.798	9885.2
650.991	9780.76
651.183	9659.93
651.376	9676.31
651.568	9819.67
651.761	9612.82
651.954	9508.38
652.146	9637.4
652.339	9504.28
652.531	9383.45
652.724	9387.55
652.916	9246.24
653.109	9389.6
653.301	9389.6
653.494	9182.75
653.686	9084.45
653.879	9395.74
654.071	9023.01
654.263	8916.51
654.456	8885.8
654.648	9008.67
654.84	8683.05
655.033	8689.19
655.225	8883.75
655.417	8607.27
655.61	8578.6
655.802	8646.18
655.994	8629.8
656.186	8558.12
656.379	8486.44
656.571	8476.2
656.763	8312.36
656.955	8273.45
657.148	8369.71
657.34	8343.08
657.532	8123.95
657.724	8128.05
657.916	8101.42
658.108	8093.23
658.3	8035.89
658.492	8101.42
658.684	7953.97
658.876	7945.78
659.068	7900.72
659.26	7878.19
659.452	7693.88
659.644	7638.58
659.836	7628.34
660.028	7724.6
660.22	7501.37
660.412	7605.81
660.604	7560.76
660.796	7589.43
660.988	7550.52
661.18	7503.42
661.372	7407.16
661.563	7437.88
661.755	7179.84
661.947	7155.26
662.139	7192.12
662.331	7198.27
662.522	7181.89
662.714	7243.32
662.906	7130.69
663.097	7372.35
663.289	7114.3
663.481	6940.22
663.673	6954.56
663.864	6819.39
664.056	6835.78
664.247	6741.57
664.439	6766.15
664.631	6884.93
664.822	6764.1
665.014	6749.76
665.205	6618.69
665.397	6536.77
665.588	6569.54
665.78	6655.56
665.971	6661.7
666.163	6567.49
666.354	6542.92
666.546	6604.36
666.737	6383.18
666.929	6485.58
667.12	6338.12
667.311	6360.65
667.503	6389.32
667.694	6256.2
667.885	6229.58
668.077	6164.04
668.268	6258.25
668.459	6209.1
668.651	6188.62
668.842	6237.77
669.033	6082.13
669.224	5922.38
669.416	6045.26
669.607	6059.6
669.798	5846.61
669.989	6028.88
670.18	6008.4
670.371	5836.37
670.563	5834.32
670.754	5946.96
670.945	5875.28
671.136	5906
671.327	5750.35
671.518	5838.42
671.709	5742.16
671.9	5740.12
672.091	5756.5
672.282	5701.2
672.473	5666.39
672.664	5623.38
672.855	5717.59
673.046	5615.19
673.237	5731.92
673.428	5666.39
673.619	5574.23
673.809	5443.16
674	5348.95
674.191	5557.85
674.382	5459.54
674.573	5500.5
674.764	5463.64
674.954	5527.13
675.145	5387.86
675.336	5453.4
675.527	5410.39
675.717	5387.86
675.908	5385.82
676.099	5125.72
676.289	5467.74
676.48	5320.28
676.671	5389.91
676.861	5305.95
677.052	5135.96
677.243	5181.02
677.433	5234.27
677.624	5144.16
677.814	5121.63
678.005	5174.88
678.195	5095
678.386	5170.78
678.576	5129.82
678.767	5267.03
678.957	5084.77
679.148	5174.88
679.338	5172.83
679.529	5113.44
679.719	5181.02
679.909	5080.67
680.1	5023.33
680.29	5207.64
680.481	5109.34
680.671	5076.57
680.861	5049.95
681.052	5062.24
681.242	5052
681.432	5164.64
681.622	5090.91
681.813	5037.66
682.003	4945.5
682.193	4685.41
682.383	4822.63
682.573	5064.29
682.764	4916.83
682.954	5015.13
683.144	4937.31
683.334	4941.41
683.524	4861.54
683.714	4908.64
683.904	4800.1
684.094	4882.02
684.284	4847.2
684.474	4906.59
684.664	4783.71
684.854	4767.33
685.044	4660.84
685.234	4855.39
685.424	4771.43
685.614	4744.8
685.804	4742.75
685.994	4556.39
686.184	4707.94
686.374	4660.84
686.564	4738.66
686.753	4779.62
686.943	4671.08
687.133	4580.96
687.323	4578.92
687.513	4429.42
687.702	4517.48
687.892	4574.82
688.082	4554.34
688.272	4394.6
688.461	4247.15
688.651	4456.04
688.841	4542.05
689.03	4404.84
689.22	4300.39
689.41	4472.42
689.599	4480.61
689.789	4421.22
689.979	4322.92
690.168	4191.85
690.358	4300.39
690.547	4202.09
690.737	4431.46
690.926	4204.14
691.116	4247.15
691.305	4363.88
691.495	4142.7
691.684	4347.5
691.874	4089.45
692.063	4263.53
692.252	4105.84
692.442	4136.56
692.631	4073.07
692.82	4066.92
693.01	4064.88
693.199	4136.56
693.388	4028.01
693.578	4030.06
693.767	4087.4
693.956	3972.72
694.146	3925.61
694.335	4066.92
694.524	3909.23
694.713	3925.61
694.902	3901.04
695.092	4089.45
695.281	3964.53
695.47	4042.35
695.659	3888.75
695.848	3864.18
696.037	3919.47
696.226	3870.32
696.415	3710.58
696.604	3970.67
696.793	3853.94
696.982	3833.46
697.171	3980.91
697.36	3911.28
697.549	3794.54
697.738	3913.33
697.927	3761.78
698.116	3892.85
698.305	3825.26
698.494	3761.78
698.683	3694.19
698.872	3978.86
699.061	3677.81
699.25	3714.67
699.438	3794.54
699.627	3755.63
699.816	3808.88
700.005	3622.52
700.193	3763.83
700.382	3655.28
700.571	3753.59
700.76	3817.07
700.948	3753.59
701.137	3741.3
701.326	3817.07
701.514	3511.93
701.703	3815.02
701.892	3677.81
702.08	3667.57
702.269	3704.43
702.457	3716.72
702.646	3833.46
702.834	3706.48
703.023	3747.44
703.212	3643
703.4	3700.34
703.589	3649.14
703.777	3698.29
703.965	3501.69
704.154	3696.24
704.342	3538.55
704.531	3595.89
704.719	3737.2
704.907	3737.2
705.096	3704.43
705.284	3782.26
705.472	3481.21
705.661	3593.84
705.849	3835.5
706.037	3784.3
706.226	3626.61
706.414	3653.23
706.602	3569.27
706.79	3784.3
706.979	3645.04
707.167	3663.47
707.355	3585.65
707.543	3567.22
707.731	3579.51
707.919	3661.43
708.107	3526.26
708.296	3526.26
708.484	3675.76
708.672	3624.56
708.86	3468.92
709.048	3595.89
709.236	3599.99
709.424	3636.85
709.612	3638.9
709.8	3552.88
709.988	3591.8
710.176	3614.32
710.364	3470.97
710.551	3552.88
710.739	3485.3
710.927	3577.46
711.115	3556.98
711.303	3581.56
711.491	3518.07
711.679	3448.44
711.866	3577.46
712.054	3626.61
712.242	3569.27
712.43	3622.52
712.617	3593.84
712.805	3567.22
712.993	3647.09
713.181	3624.56
713.368	3565.17
713.556	3595.89
713.744	3503.73
713.931	3567.22
714.119	3452.53
714.306	3505.78
714.494	3511.93
714.682	3522.16
714.869	3409.53
715.057	3536.5
715.244	3581.56
715.432	3602.04
715.619	3536.5
715.807	3628.66
715.994	3454.58
716.182	3561.08
716.369	3571.32
716.556	3569.27
716.744	3405.43
716.931	3438.2
717.119	3556.98
717.306	3489.4
717.493	3503.73
717.681	3614.32
717.868	3546.74
718.055	3450.49
718.242	3434.1
718.43	3501.69
718.617	3509.88
718.804	3343.99
718.991	3509.88
719.179	3532.4
719.366	3329.66
719.553	3495.54
719.74	3540.6
719.927	3511.93
720.114	3571.32
720.301	3393.14
720.488	3352.18
720.676	3526.26
720.863	3450.49
721.05	3362.42
721.237	3546.74
721.424	3432.05
721.611	3477.11
721.798	3231.35
721.985	3356.28
722.172	3448.44
722.358	3513.97
722.545	3409.53
722.732	3403.38
722.919	3407.48
723.106	3434.1
723.293	3358.33
723.48	3282.55
723.667	3335.8
723.853	3423.86
724.04	3487.35
724.227	3493.49
724.414	3329.66
724.6	3409.53
724.787	3374.71
724.974	3391.09
725.161	3270.26
725.347	3305.08
725.534	3432.05
725.72	3511.93
725.907	3368.57
726.094	3405.43
726.28	3284.6
726.467	3350.14
726.653	3276.41
726.84	3374.71
727.027	3448.44
727.213	3247.74
727.4	3311.22
727.586	3395.19
727.773	3368.57
727.959	3419.77
728.145	3395.19
728.332	3315.32
728.518	3337.85
728.705	3225.21
728.891	3260.02
729.077	3280.5
729.264	3272.31
729.45	3219.07
729.636	3280.5
729.823	3415.67
730.009	3231.35
730.195	3196.54
730.382	3333.75
730.568	3360.38
730.754	3292.79
730.94	3233.4
731.126	3155.58
731.313	3200.63
731.499	3251.83
731.685	3108.48
731.871	3176.06
732.057	3257.98
732.243	3323.51
732.429	3159.67
732.615	3202.68
732.801	3317.37
732.987	3135.1
733.173	3145.34
733.359	3186.3
733.545	3262.07
733.731	3133.05
733.917	3231.35
734.103	3264.12
734.289	3128.95
734.475	3212.92
734.661	3260.02
734.847	3094.14
735.033	3243.64
735.219	3081.85
735.404	3171.96
735.59	3196.54
735.776	3034.75
735.962	3151.48
736.148	3227.26
736.333	3128.95
736.519	3102.33
736.705	3063.42
736.89	3028.6
737.076	3047.04
737.262	3008.12
737.447	3069.56
737.633	3063.42
737.819	3126.91
738.004	3149.43
738.19	3022.46
738.375	3061.37
738.561	3221.11
738.747	2997.88
738.932	2963.07
739.118	2967.17
739.303	2936.45
739.489	3010.17
739.674	2870.91
739.859	2893.44
740.045	3047.04
740.23	2920.06
740.416	2954.88
740.601	2954.88
740.786	2903.68
740.972	2905.73
741.157	2850.43
741.342	2891.39
741.528	2870.91
741.713	2829.95
741.898	2938.49
742.084	2752.13
742.269	2776.7
742.454	2793.09
742.639	2842.24
742.824	2858.62
743.01	2832
743.195	2756.22
743.38	2764.42
743.565	2662.02
743.75	2684.55
743.935	2834.05
744.12	2832
744.305	2776.7
744.49	2627.2
744.675	2582.15
744.86	2707.07
745.045	2641.54
745.23	2621.06
745.415	2510.47
745.6	2571.91
745.785	2535.04
745.97	2576
746.155	2551.43
746.34	2455.17
746.525	2459.27
746.71	2504.32
746.895	2442.89
747.079	2481.8
747.264	2467.46
747.449	2418.31
747.634	2502.28
747.819	2420.36
748.003	2377.35
748.188	2363.01
748.373	2457.22
748.557	2438.79
748.742	2354.82
748.927	2391.69
749.111	2242.18
749.296	2289.29
749.481	2330.25
749.665	2158.22
749.85	2207.37
750.034	2258.57
750.219	2260.62
750.404	2168.46
750.588	2129.55
750.773	2102.92
750.957	2160.27
751.141	2100.87
751.326	2252.42
751.51	2061.96
751.695	2127.5
751.879	2102.92
752.064	2162.31
752.248	1998.48
752.432	2115.21
752.617	2082.44
752.801	2072.2
752.985	2055.82
753.17	2000.52
753.354	2008.72
753.538	2051.72
753.722	1857.17
753.907	2021
754.091	1793.68
754.275	1820.3
754.459	1773.2
754.643	1830.54
754.828	1898.13
755.012	1953.42
755.196	1838.73
755.38	1777.3
755.564	1801.87
755.748	1658.51
755.932	1724.05
756.116	1678.99
756.3	1695.38
756.484	1691.28
756.668	1699.47
756.852	1654.42
757.036	1668.75
757.22	1773.2
757.404	1752.72
757.588	1670.8
757.772	1650.32
757.956	1689.23
758.14	1765.01
758.323	1502.87
758.507	1552.02
758.691	1570.45
758.875	1580.69
759.059	1576.59
759.242	1558.16
759.426	1609.36
759.61	1543.83
759.794	1633.94
759.977	1552.02
760.161	1451.67
760.345	1552.02
760.528	1597.07
760.712	1486.48
760.895	1515.16
761.079	1470.1
761.263	1492.63
761.446	1519.25
761.63	1437.33
761.813	1420.95
761.997	1447.57
762.18	1433.24
762.364	1455.76
762.547	1406.61
762.731	1449.62
762.914	1441.43
763.098	1339.03
763.281	1357.46
763.464	1273.5
763.648	1463.96
763.831	1412.76
764.015	1345.17
764.198	1371.8
764.381	1355.41
764.564	1281.69
764.748	1322.65
764.931	1310.36
765.114	1291.93
765.297	1205.91
765.481	1302.17
765.664	1351.32
765.847	1212.06
766.03	1293.97
766.213	1142.43
766.397	1355.41
766.58	1171.1
766.763	1306.26
766.946	1171.1
767.129	1312.41
767.312	1244.82
767.495	1246.87
767.678	1201.82
767.861	1269.4
768.044	1173.14
768.227	1210.01
768.41	1244.82
768.593	1236.63
768.776	1187.48
768.959	1222.3
769.142	1175.19
769.324	1068.7
769.507	1113.75
769.69	1158.81
769.873	1126.04
770.056	1146.52
770.239	1179.29
770.421	1189.53
770.604	1156.76
770.787	1089.18
770.97	1171.1
771.152	1119.9
771.335	1164.95
771.518	1130.14
771.7	1052.31
771.883	1052.31
772.066	1097.37
772.248	1046.17
772.431	986.78
772.613	1025.69
772.796	990.88
772.978	1064.6
773.161	1068.7
773.343	1031.83
773.526	1040.03
773.708	1023.64
773.891	984.73
774.073	1044.12
774.256	968.35
774.438	1019.55
774.621	1044.12
774.803	974.49
774.985	970.4
775.168	982.68
775.35	972.44
775.532	925.34
775.715	966.3
775.897	911
776.079	888.48
776.261	954.01
776.444	923.29
776.626	855.71
776.808	921.24
776.99	870.05
777.173	861.85
777.355	806.56
777.537	859.81
777.719	863.9
777.901	956.06
778.083	902.81
778.265	865.95
778.447	822.94
778.629	849.57
778.811	798.37
778.993	765.6
779.175	855.71
779.357	898.72
779.539	822.94
779.721	806.56
779.903	761.5
780.085	790.17
780.267	753.31
780.449	775.84
780.631	794.27
780.812	779.93
780.994	759.46
781.176	704.16
781.358	765.6
781.54	741.02
781.721	726.69
781.903	714.4
782.085	706.21
782.267	693.92
782.448	663.2
782.63	657.06
782.812	726.69
782.993	736.93
783.175	650.91
783.357	636.58
783.538	673.44
783.72	634.53
783.901	687.78
784.083	638.62
784.264	652.96
784.446	626.34
784.627	612
784.809	667.3
784.99	648.86
785.172	681.63
785.353	636.58
785.535	593.57
785.716	593.57
785.897	536.23
786.079	661.15
786.26	562.85
786.441	575.14
786.623	591.52
786.804	626.34
786.985	560.8
787.167	636.58
787.348	564.9
787.529	536.23
787.71	515.75
787.891	521.89
788.073	450.21
788.254	564.9
788.435	589.47
788.616	497.32
788.797	480.93
788.978	460.45
789.159	499.36
789.34	419.49
789.522	548.51
789.703	462.5
789.884	470.69
790.065	523.94
790.246	564.9
790.427	470.69
790.607	472.74
790.788	534.18
790.969	460.45
791.15	528.03
791.331	433.83
791.512	401.06
791.693	437.92
791.874	413.35
792.054	480.93
792.235	431.78
792.416	499.36
792.597	439.97
792.778	401.06
792.958	417.44
793.139	380.58
793.32	460.45
793.5	399.01
793.681	378.53
793.862	386.72
794.042	362.15
794.223	370.34
794.404	439.97
794.584	425.64
794.765	394.92
794.945	480.93
795.126	421.54
795.306	366.25
795.487	439.97
795.667	306.85
795.848	378.53
796.028	380.58
796.209	345.77
796.389	378.53
796.57	456.36
796.75	405.16
796.93	374.44
797.111	364.2
797.291	413.35
797.471	317.09
797.652	335.53
797.832	333.48
798.012	362.15
798.192	442.02
798.373	351.91
798.553	280.23
798.733	415.4
798.913	319.14
799.093	319.14
799.274	298.66
799.454	392.87
799.634	386.72
799.814	401.06
799.994	274.09
800.174	290.47
800.354	323.24
800.534	341.67
800.714	349.86
800.894	298.66
801.074	276.13
801.254	284.33
801.434	339.62
801.614	325.29
801.794	343.72
801.974	904.86
802.154	290.47
802.334	349.86
802.514	276.13
802.693	315.05
802.873	280.23
803.053	362.15
803.233	286.37
803.413	298.66
803.592	353.96
803.772	274.09
803.952	235.18
804.131	282.28
804.311	257.7
804.491	360.1
804.67	261.8
804.85	202.41
805.03	304.81
805.209	417.44
805.389	292.52
805.568	294.57
805.748	245.41
805.928	272.04
806.107	245.41
806.287	282.28
806.466	302.76
806.646	255.65
806.825	239.27
807.004	196.26
807.184	241.32
807.363	226.98
807.543	241.32
807.722	239.27
807.901	327.33
808.081	222.89
808.26	202.41
808.439	255.65
808.619	276.13
808.798	274.09
808.977	220.84
809.156	220.84
809.336	241.32
809.515	278.18
809.694	173.74
809.873	224.94
810.052	216.74
810.231	245.41
810.411	226.98
810.59	188.07
810.769	204.46
810.948	208.55
811.127	194.22
811.306	147.11
811.485	226.98
811.664	296.61
811.843	216.74
812.022	171.69
812.201	149.16
812.38	171.69
812.559	153.26
812.737	245.41
812.916	204.46
813.095	218.79
813.274	245.41
813.453	177.83
813.632	206.5
813.811	257.7
813.989	138.92
814.168	175.78
814.347	196.26
814.526	167.59
814.704	247.46
814.883	132.78
815.062	198.31
815.24	173.74
815.419	151.21
815.598	210.6
815.776	155.3
815.955	218.79
816.133	128.68
816.312	255.65
816.49	202.41
816.669	214.7
816.847	175.78
817.026	222.89
817.204	163.5
817.383	169.64
817.561	237.22
817.74	173.74
817.918	167.59
818.097	224.94
818.275	196.26
818.453	153.26
818.632	143.02
818.81	138.92
818.988	108.2
819.167	177.83
819.345	229.03
819.523	237.22
819.701	181.93
819.879	179.88
820.058	181.93
820.236	210.6
820.414	140.97
820.592	202.41
820.77	116.39
820.948	206.5
821.127	102.06
821.305	183.98
821.483	143.02
821.661	224.94
821.839	147.11
822.017	165.54
822.195	138.92
822.373	163.5
822.551	155.3
822.729	202.41
822.907	138.92
823.085	163.5
823.262	192.17
823.44	157.35
823.618	157.35
823.796	210.6
823.974	188.07
824.152	181.93
824.329	104.11
824.507	114.34
824.685	165.54
824.863	179.88
825.04	151.21
825.218	165.54
825.396	173.74
825.574	116.39
825.751	114.34
825.929	145.06
826.107	63.15
826.284	65.19
826.462	149.16
826.639	155.3
826.817	108.2
826.994	110.25
827.172	73.39
827.349	159.4
827.527	212.65
827.704	122.54
827.882	175.78
828.059	126.63
828.237	63.15
828.414	188.07
828.591	114.34
828.769	110.25
828.946	106.15
829.124	75.43
829.301	147.11
829.478	163.5
829.655	95.91
829.833	106.15
830.01	95.91
830.187	169.64
830.364	130.73
830.542	126.63
830.719	130.73
830.896	93.87
831.073	126.63
831.25	138.92
831.427	175.78
831.604	44.71
831.782	118.44
831.959	100.01
832.136	61.1
832.313	210.6
832.49	48.81
832.667	75.43
832.844	50.86
833.021	159.4
833.198	50.86
833.374	116.39
833.551	40.62
833.728	138.92
833.905	120.49
834.082	93.87
834.259	83.63
834.436	136.87
834.612	87.72
834.789	128.68
834.966	136.87
835.143	102.06
835.319	59.05
835.496	87.72
835.673	63.15
835.85	106.15
836.026	26.28
836.203	147.11
836.38	46.76
836.556	128.68
836.733	145.06
836.909	159.4
837.086	48.81
837.262	97.96
837.439	48.81
837.616	63.15
837.792	97.96
837.968	116.39
838.145	77.48
838.321	167.59
838.498	77.48
838.674	89.77
838.851	106.15
839.027	81.58
839.203	52.91
839.38	147.11
839.556	114.34
839.732	108.2
839.909	106.15
840.085	138.92
840.261	65.19
840.437	81.58
840.614	104.11
840.79	114.34
840.966	81.58
841.142	97.96
841.318	122.54
841.494	138.92
841.671	93.87
841.847	48.81
842.023	143.02
842.199	132.78
842.375	73.39
842.551	63.15
842.727	-8.53
842.903	122.54
843.079	52.91
843.255	114.34
843.431	85.67
843.607	93.87
843.783	46.76
843.959	97.96
844.134	112.3
844.31	108.2
844.486	97.96
844.662	16.04
844.838	32.43
845.013	71.34
845.189	50.86
845.365	48.81
845.541	122.54
845.716	93.87
845.892	75.43
846.068	48.81
846.244	54.95
846.419	114.34
846.595	-29.01
846.77	85.67
846.946	140.97
847.122	65.19
847.297	24.23
847.473	100.01
847.648	79.53
847.824	114.34
847.999	-8.53
848.175	120.49
848.35	7.85
848.526	61.1
848.701	36.52
848.876	167.59
849.052	110.25
849.227	71.34
849.403	32.43
849.578	69.29
849.753	-10.58
849.929	108.2
850.104	54.95
850.279	32.43
850.454	57
850.63	106.15
850.805	79.53
850.98	81.58
851.155	71.34
851.33	130.73
851.505	50.86
851.681	104.11
851.856	9.9
852.031	50.86
852.206	81.58
852.381	59.05
852.556	46.76
852.731	11.95
852.906	97.96
853.081	67.24
853.256	32.43
853.431	140.97
853.606	85.67
853.781	52.91
853.956	24.23
854.131	77.48
854.305	-43.35
854.48	59.05
854.655	91.82
854.83	-29.01
855.005	36.52
855.18	120.49
855.354	57
855.529	75.43
855.704	34.47
855.879	7.85
856.053	-18.77
856.228	9.9
856.403	38.57
856.577	97.96
856.752	52.91
856.926	73.39
857.101	40.62
857.276	44.71
857.45	18.09
857.625	77.48
857.799	7.85
857.974	13.99
858.148	-8.53
858.323	-10.58
858.497	-37.2
858.672	65.19
858.846	18.09
859.02	73.39
859.195	48.81
859.369	54.95
859.543	54.95
859.718	-4.44
859.892	20.14
860.066	79.53
860.241	32.43
860.415	65.19
860.589	-2.39
860.763	79.53
860.938	13.99
861.112	-8.53
861.286	1.71
861.46	48.81
861.634	93.87
861.808	22.19
861.982	-6.49
862.157	34.47
862.331	-0.34
862.505	26.28
862.679	48.81
862.853	85.67
863.027	11.95
863.201	97.96
863.375	32.43
863.549	57
863.722	89.77
863.896	89.77
864.07	32.43
864.244	1.71
864.418	3.75
864.592	59.05
864.766	-26.96
864.939	-16.73
865.113	11.95
865.287	38.57
865.461	52.91
865.634	-26.96
865.808	18.09
865.982	-2.39
866.156	3.75
866.329	-35.16
866.503	54.95
866.676	24.23
866.85	73.39
867.024	48.81
867.197	48.81
867.371	73.39
867.544	20.14
867.718	69.29
867.891	97.96
868.065	36.52
868.238	38.57
868.412	89.77
868.585	36.52
868.759	32.43
868.932	48.81
869.105	-8.53
869.279	34.47
869.452	20.14
869.625	1.71
869.799	-26.96
869.972	-35.16
870.145	91.82
870.319	71.34
870.492	-6.49
870.665	-45.4
870.838	7.85
871.011	11.95
871.185	28.33
871.358	46.76
871.531	-2.39
871.704	42.67
871.877	77.48
872.05	-14.68
872.223	3.75
872.396	11.95
872.569	18.09
872.742	26.28
872.915	-16.73
873.088	28.33
873.261	20.14
873.434	26.28
873.607	-6.49
873.78	57
873.953	9.9
874.126	-18.77
874.299	9.9
874.471	52.91
874.644	-8.53
874.817	-20.82
874.99	36.52
875.163	42.67
875.335	-2.39
875.508	38.57
875.681	28.33
875.853	5.8
876.026	-0.34
876.199	46.76
876.371	42.67
876.544	11.95
876.717	67.24
876.889	-45.4
877.062	9.9
877.234	-61.78
877.407	34.47
877.579	-16.73
877.752	40.62
877.924	11.95
878.097	63.15
878.269	69.29
878.442	69.29
878.614	32.43
878.786	-22.87
878.959	34.47
879.131	-4.44
879.303	-10.58
879.476	13.99
879.648	-6.49
879.82	28.33
879.993	-29.01
880.165	42.67
880.337	11.95
880.509	16.04
880.681	-84.31
880.854	26.28
881.026	-24.92
881.198	7.85
881.37	13.99
881.542	102.06
881.714	1.71
881.886	-4.44
882.058	20.14
882.23	22.19
882.402	11.95
882.574	54.95
882.746	106.15
882.918	24.23
883.09	32.43
883.262	7.85
883.434	13.99
883.606	67.24
883.778	34.47
883.95	100.01
884.122	40.62
884.293	28.33
884.465	36.52
884.637	36.52
884.809	67.24
884.98	22.19
885.152	30.38
885.324	36.52
885.496	7.85
885.667	-29.01
885.839	75.43
886.011	-12.63
886.182	-4.44
886.354	40.62
886.525	7.85
886.697	-0.34
886.869	-24.92
887.04	-12.63
887.212	-12.63
887.383	48.81
887.555	-35.16
887.726	20.14
887.897	13.99
888.069	65.19
888.24	22.19
888.412	73.39
888.583	59.05
888.754	97.96
888.926	9.9
889.097	7.85
889.268	18.09
889.44	50.86
889.611	67.24
889.782	-0.34
889.953	46.76
890.125	20.14
890.296	-0.34
890.467	-22.87
890.638	7.85
890.809	32.43
890.98	-16.73
891.151	-0.34
891.323	-12.63
891.494	93.87
891.665	1.71
891.836	61.1
892.007	32.43
892.178	24.23
892.349	110.25
892.52	28.33
892.691	28.33
892.862	-2.39
893.032	18.09
893.203	-45.4
893.374	32.43
893.545	34.47
893.716	9.9
893.887	32.43
894.057	-8.53
894.228	11.95
894.399	97.96
894.57	16.04
894.74	11.95
894.911	65.19
895.082	-18.77
895.253	-8.53
895.423	-47.44
895.594	52.91
895.764	48.81
895.935	32.43
896.106	57
896.276	-0.34
896.447	110.25
896.617	-35.16
896.788	24.23
896.958	-78.16
897.129	57
897.299	-2.39
897.47	16.04
897.64	-49.49
897.81	38.57
897.981	38.57
898.151	-18.77
898.322	57
898.492	36.52
898.662	26.28
898.832	38.57
899.003	16.04
899.173	50.86
899.343	32.43
899.513	54.95
