Data from USB4F104151__101__10-24-43-928.txt Node

Date: Wed Mar 12 10:24:43 EDT 2025
User: louis
Spectrometer: USB4F10415
Trigger mode: 4
Integration Time (sec): 3.000000E-2
Scans to average: 1
Electric dark correction enabled: true
Nonlinearity correction enabled: false
Boxcar width: 0
XAxis mode: Wavelengths
Number of Pixels in Spectrum: 3648
>>>>>Begin Spectral Data<<<<<
178.204	-84.65
178.424	-84.65
178.644	-84.65
178.864	-141.99
179.084	-98.99
179.304	-64.17
179.524	3.41
179.744	-2.73
179.964	52.56
180.184	27.99
180.404	68.95
180.624	-21.16
180.844	-49.83
181.064	13.65
181.283	32.08
181.503	-23.21
181.723	-37.55
181.943	-105.13
182.163	54.61
182.383	-39.59
182.602	46.42
182.822	17.75
183.042	66.9
183.262	19.8
183.482	-10.92
183.701	1.37
183.921	17.75
184.141	-29.35
184.361	36.18
184.58	42.32
184.8	68.95
185.02	-21.16
185.239	23.89
185.459	15.7
185.679	19.8
185.898	-8.87
186.118	40.28
186.338	-60.07
186.557	27.99
186.777	-8.87
186.997	17.75
187.216	36.18
187.436	21.85
187.655	95.57
187.875	5.46
188.095	15.7
188.314	48.47
188.534	-4.78
188.753	-21.16
188.973	58.71
189.192	23.89
189.412	58.71
189.631	9.56
189.851	34.13
190.07	19.8
190.29	-49.83
190.509	-6.83
190.729	-17.07
190.948	15.7
191.168	171.35
191.387	124.24
191.607	64.85
191.826	68.95
192.045	64.85
192.265	15.7
192.484	36.18
192.704	-12.97
192.923	15.7
193.142	13.65
193.362	58.71
193.581	36.18
193.8	73.04
194.02	44.37
194.239	-2.73
194.458	75.09
194.678	46.42
194.897	-35.5
195.116	3.41
195.335	87.38
195.555	-15.02
195.774	52.56
195.993	27.99
196.212	-25.26
196.432	34.13
196.651	3.41
196.87	30.04
197.089	95.57
197.308	97.62
197.528	-2.73
197.747	-33.45
197.966	15.7
198.185	73.04
198.404	71
198.623	81.24
198.842	52.56
199.062	109.91
199.281	71
199.5	52.56
199.719	19.8
199.938	-27.31
200.157	107.86
200.376	-0.68
200.595	68.95
200.814	17.75
201.033	-8.87
201.252	32.08
201.471	89.43
201.69	99.67
201.909	81.24
202.128	-8.87
202.347	85.33
202.566	62.8
202.785	30.04
203.004	85.33
203.223	79.19
203.442	1.37
203.661	-25.26
203.879	36.18
204.098	60.76
204.317	-70.31
204.536	11.61
204.755	56.66
204.974	13.65
205.193	19.8
205.411	38.23
205.63	-4.78
205.849	75.09
206.068	-29.35
206.287	81.24
206.505	60.76
206.724	-21.16
206.943	60.76
207.162	44.37
207.381	-23.21
207.599	27.99
207.818	54.61
208.037	38.23
208.255	-0.68
208.474	-17.07
208.693	11.61
208.911	-21.16
209.13	107.86
209.349	21.85
209.567	40.28
209.786	-23.21
210.005	-49.83
210.223	73.04
210.442	-17.07
210.661	44.37
210.879	23.89
211.098	3.41
211.316	36.18
211.535	73.04
211.753	9.56
211.972	-21.16
212.191	-37.55
212.409	-6.83
212.628	-55.98
212.846	-12.97
213.065	44.37
213.283	5.46
213.502	25.94
213.72	-25.26
213.938	68.95
214.157	77.14
214.375	52.56
214.594	34.13
214.812	62.8
215.031	17.75
215.249	95.57
215.467	13.65
215.686	27.99
215.904	95.57
216.122	-10.92
216.341	21.85
216.559	7.51
216.778	64.85
216.996	27.99
217.214	-0.68
217.432	17.75
217.651	32.08
217.869	85.33
218.087	13.65
218.306	17.75
218.524	-23.21
218.742	58.71
218.96	103.76
219.179	42.32
219.397	-0.68
219.615	120.15
219.833	11.61
220.051	52.56
220.27	75.09
220.488	3.41
220.706	-8.87
220.924	-19.11
221.142	-0.68
221.36	-0.68
221.578	36.18
221.796	44.37
222.015	109.91
222.233	68.95
222.451	-0.68
222.669	68.95
222.887	77.14
223.105	-41.64
223.323	58.71
223.541	48.47
223.759	36.18
223.977	13.65
224.195	38.23
224.413	58.71
224.631	58.71
224.849	27.99
225.067	-8.87
225.285	42.32
225.503	79.19
225.721	40.28
225.939	-0.68
226.157	15.7
226.375	75.09
226.592	19.8
226.81	58.71
227.028	21.85
227.246	85.33
227.464	58.71
227.682	91.48
227.9	-10.92
228.117	91.48
228.335	-2.73
228.553	75.09
228.771	66.9
228.989	68.95
229.206	107.86
229.424	27.99
229.642	13.65
229.86	1.37
230.077	50.52
230.295	7.51
230.513	-17.07
230.731	58.71
230.948	1.37
231.166	25.94
231.384	32.08
231.601	-53.93
231.819	87.38
232.037	130.39
232.254	25.94
232.472	87.38
232.689	40.28
232.907	54.61
233.125	23.89
233.342	97.62
233.56	75.09
233.777	-0.68
233.995	23.89
234.213	54.61
234.43	3.41
234.648	60.76
234.865	81.24
235.083	56.66
235.3	32.08
235.518	132.44
235.735	27.99
235.953	148.82
236.17	-21.16
236.388	58.71
236.605	-12.97
236.822	34.13
237.04	89.43
237.257	25.94
237.475	64.85
237.692	-12.97
237.909	56.66
238.127	1.37
238.344	68.95
238.562	7.51
238.779	9.56
238.996	-21.16
239.214	27.99
239.431	-29.35
239.648	27.99
239.865	60.76
240.083	44.37
240.3	34.13
240.517	32.08
240.735	73.04
240.952	44.37
241.169	93.52
241.386	-21.16
241.603	-35.5
241.821	-8.87
242.038	27.99
242.255	30.04
242.472	34.13
242.689	27.99
242.907	114
243.124	17.75
243.341	56.66
243.558	25.94
243.775	56.66
243.992	46.42
244.209	95.57
244.426	134.48
244.643	11.61
244.86	-12.97
245.078	66.9
245.295	103.76
245.512	3.41
245.729	25.94
245.946	11.61
246.163	21.85
246.38	44.37
246.597	-31.4
246.814	120.15
247.031	38.23
247.248	34.13
247.464	34.13
247.681	-10.92
247.898	17.75
248.115	48.47
248.332	-25.26
248.549	1.37
248.766	107.86
248.983	99.67
249.2	3.41
249.417	120.15
249.633	-0.68
249.85	9.56
250.067	-2.73
250.284	48.47
250.501	44.37
250.717	79.19
250.934	-27.31
251.151	38.23
251.368	44.37
251.585	68.95
251.801	60.76
252.018	13.65
252.235	3.41
252.451	56.66
252.668	23.89
252.885	56.66
253.102	54.61
253.318	-29.35
253.535	-0.68
253.752	27.99
253.968	17.75
254.185	19.8
254.401	60.76
254.618	9.56
254.835	17.75
255.051	83.28
255.268	-0.68
255.484	66.9
255.701	64.85
255.917	114
256.134	-15.02
256.351	109.91
256.567	23.89
256.784	3.41
257	-25.26
257.217	36.18
257.433	-21.16
257.65	46.42
257.866	40.28
258.082	-12.97
258.299	-47.79
258.515	52.56
258.732	73.04
258.948	54.61
259.165	36.18
259.381	15.7
259.597	19.8
259.814	19.8
260.03	27.99
260.246	19.8
260.463	75.09
260.679	58.71
260.895	32.08
261.112	64.85
261.328	13.65
261.544	21.85
261.761	60.76
261.977	11.61
262.193	-0.68
262.409	62.8
262.626	99.67
262.842	38.23
263.058	-31.4
263.274	27.99
263.49	66.9
263.707	118.1
263.923	73.04
264.139	-4.78
264.355	50.52
264.571	114
264.787	13.65
265.004	64.85
265.22	17.75
265.436	85.33
265.652	64.85
265.868	-33.45
266.084	38.23
266.3	23.89
266.516	38.23
266.732	42.32
266.948	81.24
267.164	-6.83
267.38	50.52
267.596	52.56
267.812	81.24
268.028	52.56
268.244	23.89
268.46	73.04
268.676	-0.68
268.892	48.47
269.108	7.51
269.324	27.99
269.54	-4.78
269.756	79.19
269.972	-21.16
270.188	9.56
270.403	15.7
270.619	60.76
270.835	32.08
271.051	66.9
271.267	3.41
271.483	44.37
271.698	95.57
271.914	40.28
272.13	11.61
272.346	87.38
272.562	97.62
272.777	23.89
272.993	56.66
273.209	128.34
273.425	68.95
273.64	62.8
273.856	42.32
274.072	27.99
274.287	27.99
274.503	46.42
274.719	105.81
274.934	17.75
275.15	23.89
275.366	97.62
275.581	25.94
275.797	85.33
276.012	81.24
276.228	48.47
276.444	-37.55
276.659	73.04
276.875	21.85
277.09	-58.03
277.306	36.18
277.521	56.66
277.737	27.99
277.952	83.28
278.168	21.85
278.383	50.52
278.599	23.89
278.814	68.95
279.03	-15.02
279.245	87.38
279.461	36.18
279.676	56.66
279.892	17.75
280.107	-6.83
280.322	17.75
280.538	109.91
280.753	7.51
280.969	13.65
281.184	42.32
281.399	126.29
281.615	42.32
281.83	-19.11
282.045	-6.83
282.26	-0.68
282.476	25.94
282.691	105.81
282.906	71
283.122	68.95
283.337	62.8
283.552	-6.83
283.767	-12.97
283.983	30.04
284.198	13.65
284.413	48.47
284.628	-21.16
284.843	62.8
285.058	62.8
285.274	103.76
285.489	-37.55
285.704	34.13
285.919	27.99
286.134	34.13
286.349	64.85
286.564	25.94
286.779	48.47
286.995	15.7
287.21	-8.87
287.425	103.76
287.64	3.41
287.855	44.37
288.07	-41.64
288.285	25.94
288.5	34.13
288.715	97.62
288.93	-12.97
289.145	56.66
289.36	95.57
289.575	32.08
289.79	54.61
290.004	-6.83
290.219	52.56
290.434	77.14
290.649	-23.21
290.864	71
291.079	-15.02
291.294	62.8
291.509	85.33
291.724	11.61
291.938	66.9
292.153	7.51
292.368	32.08
292.583	44.37
292.798	101.72
293.012	5.46
293.227	73.04
293.442	58.71
293.657	40.28
293.871	79.19
294.086	19.8
294.301	19.8
294.516	95.57
294.73	101.72
294.945	-25.26
295.16	27.99
295.374	36.18
295.589	85.33
295.804	19.8
296.018	9.56
296.233	105.81
296.447	5.46
296.662	62.8
296.877	7.51
297.091	77.14
297.306	34.13
297.52	34.13
297.735	-10.92
297.949	58.71
298.164	48.47
298.378	19.8
298.593	101.72
298.807	25.94
299.022	15.7
299.236	111.96
299.451	-15.02
299.665	68.95
299.88	81.24
300.094	-4.78
300.309	42.32
300.523	56.66
300.737	62.8
300.952	-4.78
301.166	83.28
301.381	68.95
301.595	58.71
301.809	-25.26
302.024	-10.92
302.238	-10.92
302.452	48.47
302.667	58.71
302.881	91.48
303.095	93.52
303.309	23.89
303.524	27.99
303.738	-49.83
303.952	38.23
304.166	56.66
304.381	-53.93
304.595	77.14
304.809	23.89
305.023	23.89
305.237	19.8
305.452	1.37
305.666	-19.11
305.88	-17.07
306.094	-4.78
306.308	77.14
306.522	75.09
306.736	103.76
306.95	66.9
307.164	36.18
307.379	68.95
307.593	169.3
307.807	105.81
308.021	77.14
308.235	44.37
308.449	-37.55
308.663	27.99
308.877	81.24
309.091	71
309.305	50.52
309.519	25.94
309.733	73.04
309.947	-49.83
310.161	75.09
310.374	-31.4
310.588	54.61
310.802	-12.97
311.016	32.08
311.23	81.24
311.444	85.33
311.658	36.18
311.872	93.52
312.085	-19.11
312.299	81.24
312.513	81.24
312.727	44.37
312.941	71
313.154	66.9
313.368	-0.68
313.582	-68.27
313.796	62.8
314.009	-2.73
314.223	50.52
314.437	11.61
314.651	62.8
314.864	54.61
315.078	48.47
315.292	-0.68
315.505	-10.92
315.719	103.76
315.933	38.23
316.146	27.99
316.36	25.94
316.573	48.47
316.787	77.14
317.001	75.09
317.214	34.13
317.428	56.66
317.641	-64.17
317.855	11.61
318.068	52.56
318.282	40.28
318.495	34.13
318.709	85.33
318.922	56.66
319.136	93.52
319.349	64.85
319.563	3.41
319.776	79.19
319.99	7.51
320.203	87.38
320.417	99.67
320.63	75.09
320.843	105.81
321.057	48.47
321.27	66.9
321.483	126.29
321.697	68.95
321.91	73.04
322.124	120.15
322.337	36.18
322.55	-0.68
322.763	85.33
322.977	-6.83
323.19	30.04
323.403	62.8
323.617	54.61
323.83	93.52
324.043	9.56
324.256	40.28
324.469	-10.92
324.683	64.85
324.896	60.76
325.109	93.52
325.322	-45.74
325.535	75.09
325.748	93.52
325.962	99.67
326.175	-41.64
326.388	23.89
326.601	93.52
326.814	42.32
327.027	83.28
327.24	68.95
327.453	-17.07
327.666	3.41
327.879	77.14
328.092	77.14
328.305	36.18
328.518	11.61
328.731	50.52
328.944	85.33
329.157	36.18
329.37	36.18
329.583	142.68
329.796	58.71
330.009	23.89
330.222	136.53
330.435	68.95
330.648	66.9
330.861	25.94
331.073	11.61
331.286	68.95
331.499	54.61
331.712	89.43
331.925	89.43
332.138	36.18
332.35	64.85
332.563	58.71
332.776	48.47
332.989	-88.75
333.202	64.85
333.414	7.51
333.627	73.04
333.84	-12.97
334.053	71
334.265	3.41
334.478	30.04
334.691	75.09
334.903	-31.4
335.116	25.94
335.329	68.95
335.541	71
335.754	48.47
335.966	-21.16
336.179	-19.11
336.392	48.47
336.604	27.99
336.817	44.37
337.029	77.14
337.242	32.08
337.454	75.09
337.667	13.65
337.88	58.71
338.092	66.9
338.305	68.95
338.517	66.9
338.729	105.81
338.942	48.47
339.154	75.09
339.367	-8.87
339.579	15.7
339.792	9.56
340.004	50.52
340.217	83.28
340.429	-0.68
340.641	-6.83
340.854	42.32
341.066	17.75
341.278	103.76
341.491	-29.35
341.703	-12.97
341.915	64.85
342.128	32.08
342.34	73.04
342.552	56.66
342.764	42.32
342.977	101.72
343.189	50.52
343.401	75.09
343.613	21.85
343.826	64.85
344.038	7.51
344.25	-6.83
344.462	7.51
344.674	64.85
344.886	42.32
345.099	75.09
345.311	11.61
345.523	15.7
345.735	54.61
345.947	62.8
346.159	1.37
346.371	85.33
346.583	89.43
346.795	105.81
347.007	5.46
347.219	38.23
347.431	73.04
347.643	-27.31
347.855	58.71
348.067	73.04
348.279	11.61
348.491	40.28
348.703	32.08
348.915	36.18
349.127	19.8
349.339	52.56
349.551	52.56
349.763	73.04
349.975	77.14
350.187	25.94
350.399	150.87
350.61	118.1
350.822	66.9
351.034	46.42
351.246	34.13
351.458	150.87
351.669	93.52
351.881	38.23
352.093	15.7
352.305	62.8
352.517	15.7
352.728	38.23
352.94	60.76
353.152	3.41
353.363	23.89
353.575	32.08
353.787	40.28
353.999	36.18
354.21	44.37
354.422	11.61
354.633	75.09
354.845	17.75
355.057	-0.68
355.268	95.57
355.48	85.33
355.692	40.28
355.903	32.08
356.115	48.47
356.326	44.37
356.538	87.38
356.749	52.56
356.961	58.71
357.172	48.47
357.384	38.23
357.595	109.91
357.807	101.72
358.018	42.32
358.23	-8.87
358.441	32.08
358.653	75.09
358.864	19.8
359.075	60.76
359.287	95.57
359.498	93.52
359.709	87.38
359.921	36.18
360.132	17.75
360.344	-8.87
360.555	32.08
360.766	54.61
360.977	32.08
361.189	64.85
361.4	17.75
361.611	101.72
361.823	15.7
362.034	62.8
362.245	17.75
362.456	93.52
362.667	27.99
362.879	-0.68
363.09	77.14
363.301	50.52
363.512	68.95
363.723	75.09
363.935	40.28
364.146	42.32
364.357	-53.93
364.568	38.23
364.779	11.61
364.99	66.9
365.201	17.75
365.412	148.82
365.623	-15.02
365.834	126.29
366.045	71
366.256	138.58
366.467	60.76
366.678	42.32
366.889	-41.64
367.1	81.24
367.311	36.18
367.522	25.94
367.733	75.09
367.944	40.28
368.155	60.76
368.366	15.7
368.577	87.38
368.788	62.8
368.999	32.08
369.209	32.08
369.42	111.96
369.631	81.24
369.842	105.81
370.053	36.18
370.264	68.95
370.474	15.7
370.685	81.24
370.896	56.66
371.107	75.09
371.317	64.85
371.528	17.75
371.739	66.9
371.95	68.95
372.16	109.91
372.371	27.99
372.582	30.04
372.792	111.96
373.003	40.28
373.214	91.48
373.424	68.95
373.635	27.99
373.846	66.9
374.056	-10.92
374.267	56.66
374.477	58.71
374.688	21.85
374.898	36.18
375.109	56.66
375.319	-6.83
375.53	89.43
375.74	87.38
375.951	42.32
376.161	101.72
376.372	34.13
376.582	91.48
376.793	42.32
377.003	93.52
377.214	99.67
377.424	23.89
377.635	107.86
377.845	-10.92
378.055	116.05
378.266	38.23
378.476	42.32
378.686	58.71
378.897	7.51
379.107	58.71
379.317	71
379.528	27.99
379.738	54.61
379.948	64.85
380.158	38.23
380.369	77.14
380.579	107.86
380.789	25.94
380.999	68.95
381.21	73.04
381.42	85.33
381.63	64.85
381.84	58.71
382.05	152.92
382.261	58.71
382.471	9.56
382.681	50.52
382.891	130.39
383.101	50.52
383.311	38.23
383.521	77.14
383.731	34.13
383.941	95.57
384.151	-35.5
384.361	73.04
384.571	81.24
384.781	83.28
384.991	128.34
385.201	75.09
385.411	85.33
385.621	46.42
385.831	99.67
386.041	107.86
386.251	75.09
386.461	44.37
386.671	32.08
386.881	58.71
387.091	-45.74
387.301	58.71
387.511	77.14
387.72	93.52
387.93	60.76
388.14	15.7
388.35	48.47
388.56	52.56
388.769	83.28
388.979	105.81
389.189	40.28
389.399	109.91
389.609	77.14
389.818	56.66
390.028	50.52
390.238	42.32
390.447	13.65
390.657	91.48
390.867	-21.16
391.076	83.28
391.286	60.76
391.496	40.28
391.705	58.71
391.915	101.72
392.125	68.95
392.334	50.52
392.544	111.96
392.753	95.57
392.963	-2.73
393.172	7.51
393.382	5.46
393.591	130.39
393.801	-37.55
394.01	146.77
394.22	81.24
394.429	140.63
394.639	36.18
394.848	109.91
395.058	107.86
395.267	56.66
395.477	89.43
395.686	44.37
395.895	103.76
396.105	109.91
396.314	93.52
396.524	64.85
396.733	25.94
396.942	116.05
397.152	128.34
397.361	93.52
397.57	13.65
397.78	68.95
397.989	85.33
398.198	134.48
398.407	122.2
398.617	120.15
398.826	58.71
399.035	66.9
399.244	126.29
399.453	81.24
399.663	128.34
399.872	122.2
400.081	95.57
400.29	138.58
400.499	64.85
400.708	152.92
400.917	58.71
401.127	122.2
401.336	132.44
401.545	214.35
401.754	146.77
401.963	175.44
402.172	144.72
402.381	56.66
402.59	60.76
402.799	77.14
403.008	154.96
403.217	152.92
403.426	111.96
403.635	134.48
403.844	107.86
404.053	97.62
404.262	124.24
404.471	159.06
404.68	175.44
404.888	68.95
405.097	138.58
405.306	157.01
405.515	138.58
405.724	208.21
405.933	169.3
406.142	103.76
406.35	159.06
406.559	122.2
406.768	140.63
406.977	189.78
407.185	210.26
407.394	171.35
407.603	85.33
407.812	251.22
408.02	126.29
408.229	222.55
408.438	171.35
408.646	154.96
408.855	212.31
409.064	306.51
409.272	206.16
409.481	288.08
409.69	286.03
409.898	234.83
410.107	345.42
410.315	312.66
410.524	259.41
410.733	261.46
410.941	277.84
411.15	382.29
411.358	372.05
411.567	363.86
411.775	320.85
411.984	361.81
412.192	404.82
412.401	394.58
412.609	423.25
412.818	478.54
413.026	460.11
413.234	437.58
413.443	527.69
413.651	451.92
413.86	503.12
414.068	556.36
414.276	630.09
414.485	564.56
414.693	593.23
414.901	574.8
415.11	709.96
415.318	605.52
415.526	687.43
415.734	712.01
415.943	728.39
416.151	742.73
416.359	767.31
416.567	705.87
416.776	771.4
416.984	820.55
417.192	892.23
417.4	920.9
417.608	816.46
417.817	912.71
418.025	957.77
418.233	1117.51
418.441	980.29
418.649	1029.45
418.857	1133.89
419.065	1162.56
419.273	1105.22
419.481	1170.76
419.689	1312.07
419.897	1310.02
420.105	1312.07
420.313	1346.88
420.521	1441.09
420.729	1420.61
420.937	1531.2
421.145	1504.57
421.353	1764.67
421.561	1766.71
421.769	1705.28
421.977	1897.78
422.185	1768.76
422.393	1793.34
422.601	1951.03
422.809	1953.08
423.017	1994.04
423.224	2121.01
423.432	2258.23
423.64	2182.45
423.848	2493.74
424.056	2309.43
424.263	2469.17
424.471	2420.02
424.679	2596.14
424.887	2575.66
425.094	2807.08
425.302	2911.53
425.51	2934.06
425.718	3046.69
425.925	3089.7
426.133	3165.48
426.341	3347.75
426.548	3396.9
426.756	3339.55
426.964	3493.15
427.171	3611.93
427.379	3878.17
427.586	3874.07
427.794	3992.86
428.001	4316.44
428.209	4392.21
428.417	4222.23
428.624	4601.1
428.832	4459.79
429.039	4490.51
429.247	4574.48
429.454	4992.27
429.662	5285.12
429.869	4961.55
430.076	5315.84
430.284	5018.89
430.491	5430.53
430.699	5811.45
430.906	5737.73
431.114	5616.9
431.321	6143.22
431.528	5967.1
431.736	6376.69
431.943	6604.02
432.15	6567.15
432.358	6714.61
432.565	6882.54
432.772	6749.42
432.979	7122.15
433.187	7378.15
433.394	7646.43
433.601	7914.72
433.808	8121.56
434.016	7961.82
434.223	8400.09
434.43	8750.29
434.637	8629.46
434.844	9233.61
435.052	9446.6
435.259	9260.23
435.466	9293
435.673	9301.19
435.88	9874.62
436.087	10316.98
436.294	10368.18
436.501	10273.98
436.708	10273.98
436.915	10661.04
437.122	11318.44
437.329	11039.92
437.537	11490.47
437.743	11574.44
437.95	11463.85
438.157	12123.29
438.364	12461.21
438.571	12526.74
438.778	12582.04
438.985	14130.3
439.192	13169.8
439.399	13651.08
439.606	13319.31
439.813	14191.74
440.02	14832.75
440.227	14711.92
440.433	14689.4
440.64	15158.38
440.847	14820.47
441.054	15201.39
441.261	16325.72
441.467	15715.43
441.674	16397.4
441.881	16807
442.088	16970.83
442.294	16731.22
442.501	17044.56
442.708	17630.28
442.914	18027.59
443.121	19119.15
443.328	18584.63
443.534	20071.46
443.741	19352.62
443.948	18916.4
444.154	20661.27
444.361	20331.55
444.568	20509.72
444.774	20210.72
444.981	20362.27
445.187	21249.04
445.394	22412.29
445.6	21795.85
445.807	23890.92
446.013	22914.04
446.22	23297.01
446.426	24007.65
446.633	24335.33
446.839	25414.61
447.046	23976.94
447.252	25387.99
447.459	25457.62
447.665	25396.18
447.871	26571.71
448.078	27487.15
448.284	26440.64
448.491	26770.36
448.697	28220.33
448.903	28885.92
449.11	28345.25
449.316	27810.73
449.522	28586.91
449.728	29191.06
449.935	29723.54
450.141	29170.58
450.347	29889.42
450.553	29381.53
450.76	29379.48
450.966	30323.59
451.172	29907.85
451.378	30466.95
451.584	30311.3
451.791	30708.61
451.997	30636.93
452.203	31048.57
452.409	31150.97
452.615	30921.6
452.821	29985.68
453.027	29451.16
453.233	31333.24
453.44	29684.62
453.646	30319.49
453.852	30057.35
454.058	30317.45
454.264	29676.43
454.47	30073.74
454.676	29555.6
454.882	30665.6
455.088	27923.37
455.294	28140.46
455.5	28650.4
455.705	29004.7
455.911	27268.02
456.117	27163.57
456.323	26633.15
456.529	25422.8
456.735	26328
456.941	25924.55
457.147	25490.38
457.352	24892.38
457.558	24320.99
457.764	24312.8
457.97	23845.87
458.176	23274.48
458.381	23477.23
458.587	22244.35
458.793	22127.62
458.999	20935.7
459.204	22651.9
459.41	22115.33
459.616	20479
459.821	20765.72
460.027	20648.99
460.233	20007.97
460.438	19078.19
460.644	19405.87
460.85	18512.95
461.055	17935.43
461.261	18107.46
461.466	16708.69
461.672	16217.18
461.878	17343.56
462.083	16360.54
462.289	15981.67
462.494	15907.94
462.7	15142
462.905	14763.12
463.111	15375.47
463.316	15367.27
463.522	14781.56
463.727	15039.6
463.932	14898.29
464.138	14752.88
464.343	14865.52
464.549	14505.08
464.754	15051.89
464.959	14693.49
465.165	14759.03
465.37	13968.51
465.575	13646.98
465.781	14029.95
465.986	14335.1
466.191	13665.41
466.397	13552.77
466.602	12778.64
466.807	13440.14
467.012	13350.03
467.218	13339.79
467.423	13171.85
467.628	13354.12
467.833	13800.58
468.038	13225.1
468.244	13067.41
468.449	13264.01
468.654	12993.68
468.859	13003.92
469.064	13003.92
469.269	12264.6
469.474	12387.48
469.679	12795.03
469.885	12231.83
470.09	12410.01
470.295	12244.12
470.5	12002.46
470.705	11994.27
470.91	11846.82
471.115	11642.02
471.32	11879.58
471.525	11979.93
471.73	11699.36
471.935	11459.75
472.139	10984.62
472.344	11310.25
472.549	11228.33
472.754	10802.35
472.959	10824.88
473.164	10605.75
473.369	10476.73
473.574	10900.65
473.778	10495.16
473.983	10587.32
474.188	10562.74
474.393	10261.69
474.598	10177.72
474.802	9981.12
475.007	10093.76
475.212	10044.6
475.417	9671.87
475.621	9694.4
475.826	9608.39
476.031	9518.28
476.235	9358.53
476.44	9315.53
476.645	9032.91
476.849	9184.46
477.054	9116.87
477.259	9051.34
477.463	9260.23
477.668	8854.73
477.872	8973.52
478.077	8459.48
478.282	8340.69
478.486	8621.27
478.691	8420.56
478.895	8377.56
479.1	8408.28
479.304	8563.92
479.509	8199.38
479.713	8320.21
479.918	8037.59
480.122	7802.08
480.326	8150.23
480.531	8164.57
480.735	7836.89
480.94	7970.01
481.144	8101.08
481.348	7779.55
481.553	7884
481.757	7824.61
481.961	7662.82
482.166	7851.23
482.37	7871.71
482.574	7744.74
482.778	7775.45
482.983	7879.9
483.187	7793.89
483.391	7900.38
483.595	7728.35
483.8	7748.83
484.004	7759.07
484.208	7908.57
484.412	7748.83
484.616	8006.88
484.821	7906.52
485.025	7554.27
485.229	7851.23
485.433	8015.07
485.637	7769.31
485.841	7728.35
486.045	7650.53
486.249	7820.51
486.453	7701.73
486.657	7767.26
486.861	7857.37
487.065	7685.34
487.269	7736.54
487.473	7630.05
487.677	7800.03
487.881	8002.78
488.085	7625.95
488.289	7826.65
488.493	7726.3
488.697	7787.74
488.901	7836.89
489.105	7992.54
489.309	7793.89
489.512	7955.68
489.716	7804.13
489.92	7826.65
490.124	7851.23
490.328	8006.88
490.531	7896.28
490.735	7974.11
490.939	7904.48
491.143	8029.4
491.346	8076.51
491.55	7927
491.754	8025.31
491.958	8336.6
492.161	8078.55
492.365	8305.88
492.569	8205.53
492.772	8178.9
492.976	8242.39
493.18	8533.2
493.383	8508.63
493.587	8496.34
493.79	8682.7
493.994	8328.41
494.197	8389.85
494.401	8711.38
494.605	8664.27
494.808	8785.1
495.012	8832.21
495.215	8875.21
495.419	9063.63
495.622	8948.94
495.825	9112.78
496.029	9159.88
496.232	9157.83
496.436	9417.93
496.639	9354.44
496.843	9456.84
497.046	9493.7
497.249	9643.2
497.453	9632.96
497.656	9657.54
497.859	9848
498.063	9970.88
498.266	10101.95
498.469	10169.53
498.673	10347.7
498.876	10472.63
499.079	10425.53
499.282	10675.38
499.485	10902.7
499.689	10980.53
499.892	10937.52
500.095	11148.46
500.298	11314.34
500.501	11281.58
500.705	11332.78
500.908	11584.68
501.111	11730.08
501.314	11738.27
501.517	11918.5
501.72	12250.27
501.923	12211.35
502.126	12432.54
502.329	12600.47
502.532	12606.61
502.735	12682.39
502.938	13081.74
503.141	12997.77
503.344	13307.02
503.547	13167.76
503.75	13513.86
503.953	13845.63
504.156	13921.41
504.359	13833.35
504.562	13978.75
504.765	14222.46
504.968	14447.74
505.17	14554.23
505.373	14607.48
505.576	14941.3
505.779	15123.57
505.982	14972.02
506.185	15354.99
506.387	15342.7
506.59	15631.46
506.793	15944.8
506.996	15758.44
507.198	16315.48
507.401	16301.15
507.604	16417.88
507.807	16530.52
508.009	16839.76
508.212	16899.16
508.415	17118.29
508.617	17396.81
508.82	17362
509.022	17484.87
509.225	18078.79
509.428	17927.24
509.63	18293.82
509.833	18326.59
510.035	18971.7
510.238	18783.29
510.44	18799.67
510.643	19270.7
510.845	19299.37
511.048	19326
511.25	19754.02
511.453	19665.96
511.655	20440.09
511.858	19987.49
512.06	20458.53
512.262	20642.84
512.465	20743.19
512.667	20988.95
512.87	21525.52
513.072	21132.31
513.274	21756.94
513.477	21806.09
513.679	22375.42
513.881	22348.8
514.084	22764.54
514.286	22580.22
514.488	22836.22
514.69	23483.38
514.893	23266.29
515.095	23565.29
515.297	23778.28
515.499	23841.77
515.701	24255.46
515.904	24712.16
516.106	24724.44
516.308	24814.55
516.51	25322.45
516.712	25140.18
516.914	25744.33
517.116	26098.63
517.318	26194.89
517.52	26233.8
517.722	26436.55
517.925	26876.86
518.127	27220.92
518.329	27132.86
518.531	27358.13
518.733	27638.7
518.935	27931.56
519.136	27974.57
519.338	28511.14
519.54	28488.61
519.742	29037.47
519.944	29129.62
520.146	29600.66
520.348	29490.07
520.55	29858.7
520.752	30047.11
520.954	30114.7
521.155	30319.49
521.357	30692.22
521.559	31138.68
521.761	31189.88
521.963	31552.37
522.164	31712.11
522.366	31978.35
522.568	32076.65
522.77	32355.18
522.971	32594.79
523.173	32621.41
523.375	33035.1
523.576	33139.55
523.778	33383.26
523.98	33801.04
524.181	33944.4
524.383	33549.14
524.584	34118.48
524.786	34014.03
524.988	34251.59
525.189	34620.23
525.391	34796.35
525.592	35187.52
525.794	35308.35
525.995	35277.63
526.197	35556.15
526.398	35812.15
526.6	35812.15
526.801	36168.49
527.003	36483.88
527.204	36041.52
527.406	36692.77
527.607	36655.91
527.808	36916
528.01	36541.22
528.211	36920.1
528.412	36870.95
528.614	37016.35
528.815	37380.89
529.016	37638.93
529.218	37806.87
529.419	37774.1
529.62	37600.02
529.822	37704.47
530.023	37618.46
530.224	38011.67
530.425	38099.73
530.626	37937.94
530.828	37925.65
531.029	38744.84
531.23	38279.95
531.431	38269.71
531.632	38581
531.833	38621.96
532.035	38812.42
532.236	38812.42
532.437	38816.52
532.638	38853.38
532.839	38992.64
533.04	38902.53
533.241	38384.4
533.442	39435
533.643	39174.91
533.844	39127.81
534.045	39133.95
534.246	39119.62
534.447	39156.48
534.648	38992.64
534.849	39414.52
535.05	39482.11
535.251	39389.95
535.451	39138.05
535.652	39342.85
535.853	39369.47
536.054	39488.25
536.255	39529.21
536.456	39555.83
536.657	39856.89
536.857	39033.6
537.058	39318.27
537.259	39312.13
537.46	39207.68
537.66	39396.09
537.861	39246.59
538.062	38910.72
538.263	39463.68
538.463	39295.74
538.664	39205.63
538.865	39297.79
539.065	39801.59
539.266	39738.1
539.466	40092.4
539.667	39125.76
539.868	39899.89
540.068	39600.89
540.269	39062.27
540.469	39807.73
540.67	39090.94
540.87	39684.86
541.071	39097.09
541.271	39592.7
541.472	39355.13
541.672	39246.59
541.873	38974.21
542.073	38888.2
542.274	39768.82
542.474	39228.16
542.675	39250.69
542.875	39961.33
543.075	39607.03
543.276	39162.62
543.476	39555.83
543.676	39195.39
543.877	39547.64
544.077	39602.94
544.277	39387.9
544.478	39316.22
544.678	39359.23
544.878	39101.18
545.078	39056.13
545.279	39211.78
545.479	38882.05
545.679	39549.69
545.879	39154.43
546.079	39049.99
546.28	39457.53
546.48	39273.21
546.68	38908.68
546.88	39113.47
547.08	39244.54
547.28	39402.24
547.48	39174.91
547.68	39260.93
547.88	38875.91
548.081	39545.59
548.281	39047.94
548.481	38933.25
548.681	39248.64
548.881	39015.17
549.081	39394.04
549.28	39037.7
549.48	39238.4
549.68	38873.86
549.88	39850.74
550.08	39000.83
550.28	39271.17
550.48	38597.38
550.68	39463.68
550.88	38664.97
551.08	38990.59
551.279	39273.21
551.479	38828.8
551.679	38957.83
551.879	38927.11
552.079	38695.69
552.278	38802.18
552.478	38976.26
552.678	38716.17
552.878	38855.43
553.077	38699.78
553.277	38458.12
553.477	39201.54
553.676	38943.49
553.876	38675.21
554.076	38470.41
554.275	38744.84
554.475	38126.35
554.674	38820.61
554.874	38650.63
555.074	38519.56
555.273	38544.14
555.473	38503.18
555.672	38433.55
555.872	38382.35
556.071	38351.63
556.271	38667.02
556.47	38357.77
556.67	38081.3
556.869	38038.29
557.068	38185.74
557.268	37755.67
557.467	37923.6
557.667	37788.44
557.866	37620.5
558.065	37962.51
558.265	37503.77
558.464	37432.09
558.663	38318.86
558.863	37360.41
559.062	37692.18
559.261	37278.49
559.461	38161.17
559.66	37020.45
559.859	37421.85
560.058	37194.53
560.258	37231.39
560.457	36850.47
560.656	37327.64
560.855	37128.99
561.054	37196.57
561.253	36950.82
561.453	37245.72
561.652	36872.99
561.851	37079.84
562.05	36328.24
562.249	36524.84
562.448	37169.95
562.647	36567.85
562.846	36221.74
563.045	36698.92
563.244	35781.43
563.443	36514.6
563.642	35777.33
563.841	35703.6
564.04	35820.34
564.239	36113.2
564.438	35611.45
564.637	35787.57
564.836	35926.83
565.035	35351.35
565.234	35636.02
565.432	35574.58
565.631	34919.23
565.83	35793.72
566.029	35271.48
566.228	34730.82
566.427	34786.11
566.625	34749.25
566.824	34220.88
567.023	35091.26
567.222	34022.22
567.42	35060.54
567.619	34538.31
567.818	34751.3
568.016	34353.99
568.215	34728.77
568.414	34106.19
568.612	34437.96
568.811	34143.05
569.01	34218.83
569.208	33545.05
569.407	34114.38
569.605	33395.54
569.804	33862.48
570.002	33620.82
570.201	33592.15
570.4	33112.92
570.598	32928.61
570.797	32686.95
570.995	33182.56
571.193	32320.36
571.392	32883.55
571.59	32541.54
571.789	32854.88
571.987	32775.01
572.186	32471.91
572.384	32486.25
572.582	32428.9
572.781	32379.75
572.979	31826.8
573.177	32072.56
573.376	32113.52
573.574	31480.69
573.772	31757.17
573.971	31535.99
574.169	31511.41
574.367	31150.97
574.565	31601.52
574.763	31234.94
574.962	31026.04
575.16	30929.79
575.358	31030.14
575.556	30661.51
575.754	31392.63
575.952	30745.47
576.151	30780.29
576.349	30497.67
576.547	30333.83
576.745	30714.75
576.943	30180.23
577.141	30413.7
577.339	30411.65
577.537	29926.28
577.735	30047.11
577.933	29801.36
578.131	29827.98
578.329	29651.86
578.527	29639.57
578.725	29813.65
578.923	29727.63
579.121	29549.46
579.319	29465.49
579.516	29639.57
579.714	29653.9
579.912	29268.89
580.11	29156.25
580.308	29094.81
580.506	28834.72
580.704	28593.06
580.901	28670.88
581.099	28883.87
581.297	28769.18
581.495	28396.45
581.692	28683.17
581.89	28320.68
582.088	28236.71
582.285	28365.73
582.483	28509.09
582.681	28134.31
582.878	27884.46
583.076	27796.4
583.274	27902.89
583.471	27274.17
583.669	27880.36
583.866	27673.52
584.064	27683.76
584.262	27261.88
584.459	27556.78
584.657	27317.17
584.854	27603.89
585.052	26710.97
585.249	27098.04
585.447	27005.88
585.644	26913.72
585.841	26835.9
586.039	26829.76
586.236	26680.25
586.434	26788.8
586.631	26383.3
586.828	26575.81
587.026	26631.1
587.223	26233.8
587.42	26188.74
587.618	26237.89
587.815	26119.11
588.012	26018.76
588.21	25787.34
588.407	26168.26
588.604	25768.91
588.801	25553.87
588.999	25613.26
589.196	25578.45
589.393	25322.45
589.59	25299.92
589.787	25299.92
589.984	25095.13
590.182	24941.53
590.379	25220.05
590.576	24994.78
590.773	25068.5
590.97	24900.57
591.167	25080.79
591.364	24462.3
591.561	24976.34
591.758	24513.5
591.955	24652.77
592.152	24431.58
592.349	24171.49
592.546	24333.28
592.743	24353.76
592.94	24105.96
593.137	24247.27
593.334	24046.57
593.531	23831.53
593.727	23825.39
593.924	23878.63
594.121	23636.97
594.318	24099.81
594.515	23473.14
594.712	23688.17
594.908	23239.67
595.105	23290.87
595.302	23139.32
595.499	23280.63
595.696	23196.66
595.892	22817.79
596.089	23186.42
596.286	23290.87
596.482	22856.7
596.679	22957.05
596.876	22744.06
597.072	22680.57
597.269	22692.86
597.466	22522.88
597.662	22332.42
597.859	22262.79
598.055	22672.38
598.252	22184.96
598.448	22199.3
598.645	22074.37
598.841	22092.8
599.038	21951.49
599.234	21855.24
599.431	21828.62
599.627	21933.06
599.824	21742.6
600.02	21683.21
600.217	21660.68
600.413	21677.07
600.609	21464.08
600.806	21619.72
601.002	21363.73
601.198	20913.17
601.395	21259.28
601.591	20917.27
601.787	21230.61
601.984	20888.6
602.18	21015.57
602.376	20907.03
602.572	20714.52
602.769	20972.57
602.965	20759.58
603.161	20577.31
603.357	20823.06
603.553	20491.29
603.75	20829.21
603.946	20251.68
604.142	20522.01
604.338	20239.39
604.534	20253.73
604.73	20083.75
604.926	20102.18
605.122	20108.32
605.318	19837.99
605.514	19821.61
605.71	19932.2
605.906	19997.73
606.102	19975.2
606.298	19735.59
606.494	19668.01
606.69	19897.38
606.886	19573.8
607.082	19219.5
607.278	19711.02
607.474	19063.86
607.67	19446.83
607.866	19074.1
608.062	19424.3
608.257	19225.65
608.453	19244.08
608.649	19176.5
608.845	18844.73
609.041	18920.5
609.236	19299.37
609.432	18818.1
609.628	18859.06
609.824	18732.09
610.019	18689.08
610.215	18594.87
610.411	18590.78
610.606	18744.38
610.802	18734.14
610.998	18977.84
611.193	18625.59
611.389	18549.82
611.584	18390.08
611.78	18226.24
611.976	18484.28
612.171	18295.87
612.367	18254.91
612.562	17994.82
612.758	18000.96
612.953	18293.82
613.149	17980.48
613.344	18064.45
613.539	18132.03
613.735	17929.28
613.93	17886.28
614.126	17851.46
614.321	18304.06
614.517	17964.1
614.712	18140.22
614.907	17728.58
615.103	17640.52
615.298	17732.68
615.493	17792.07
615.688	17480.78
615.884	17941.57
616.079	17509.45
616.274	17722.44
616.47	17450.06
616.665	17568.84
616.86	17380.43
617.055	17169.49
617.25	17181.78
617.445	17620.04
617.641	17054.8
617.836	17220.69
618.031	16940.11
618.226	17222.73
618.421	16944.21
618.616	17015.89
618.811	16897.11
619.006	17019.99
619.201	16559.19
619.396	16733.27
619.591	16567.38
619.786	16720.98
619.981	16321.63
620.176	16847.96
620.371	16446.55
620.566	16315.48
620.761	16323.68
620.956	16557.14
621.151	16069.73
621.346	16303.2
621.541	15744.1
621.735	16258.14
621.93	15744.1
622.125	15934.56
622.32	15641.7
622.515	15926.37
622.709	15514.73
622.904	15674.47
623.099	15602.79
623.294	15277.16
623.488	15187.05
623.683	15324.27
623.878	15211.63
624.072	15082.61
624.267	14726.26
624.462	14828.66
624.656	14742.64
624.851	14812.28
625.046	14746.74
625.24	14724.21
625.435	14443.64
625.629	14472.31
625.824	14560.38
626.018	14081.15
626.213	13964.42
626.407	13970.56
626.602	13663.36
626.796	14064.77
626.991	13812.87
627.185	14058.62
627.38	13829.25
627.574	13665.41
627.768	13429.9
627.963	13745.28
628.157	13370.51
628.352	13669.51
628.546	13245.58
628.74	13440.14
628.935	13098.13
629.129	13081.74
629.323	12971.15
629.517	13128.84
629.712	13126.8
629.906	12954.77
630.1	12663.96
630.294	12604.56
630.489	12786.83
630.683	12819.6
630.877	12375.19
631.071	12442.78
631.265	12334.23
631.459	12332.19
631.653	12317.85
631.848	12078.24
632.042	12043.42
632.236	12254.36
632.43	11979.93
632.624	11871.39
632.818	12008.61
633.012	11674.79
633.206	11689.12
633.4	11611.3
633.594	11592.87
633.788	11504.81
633.982	11527.33
634.176	11662.5
634.369	11314.34
634.563	11257
634.757	11207.85
634.951	11103.4
635.145	11222.19
635.339	11222.19
635.533	10939.57
635.726	10855.6
635.92	11066.54
636.114	10839.22
636.308	10710.19
636.501	10855.6
636.695	10753.2
636.889	10499.25
637.083	10493.11
637.276	10615.99
637.47	10280.12
637.664	10382.52
637.857	10362.04
638.051	10278.07
638.244	10120.38
638.438	10071.23
638.632	10149.05
638.825	9977.02
639.019	10089.66
639.212	9796.8
639.406	9893.05
639.599	9909.44
639.793	9680.07
639.986	9651.39
640.18	9815.23
640.373	9682.11
640.567	9397.45
640.76	9784.51
640.954	9264.33
641.147	9559.24
641.34	9303.24
641.534	9415.88
641.727	9276.62
641.92	9055.44
642.114	9147.59
642.307	9163.98
642.5	9116.87
642.694	9069.77
642.887	8967.37
643.08	8875.21
643.273	8811.73
643.467	8811.73
643.66	8684.75
643.853	8719.57
644.046	8676.56
644.239	8621.27
644.432	8555.73
644.626	8654.03
644.819	8283.35
645.012	8365.27
645.205	8516.82
645.398	8535.25
645.591	8277.21
645.784	8144.09
645.977	8275.16
646.17	8252.63
646.363	8119.51
646.556	7816.41
646.749	8105.18
646.942	7843.04
647.135	7955.68
647.328	7828.7
647.521	7845.09
647.714	7683.3
647.907	7761.12
648.099	7740.64
648.292	7595.23
648.485	7658.72
648.678	7611.62
648.871	7625.95
649.064	7374.05
649.256	7619.81
649.449	7404.77
649.642	7394.53
649.835	7318.76
650.027	7439.59
650.22	7263.46
650.413	7208.17
650.605	7226.6
650.798	7019.75
650.991	7179.5
651.183	7236.84
651.376	6923.5
651.568	7079.15
651.761	6962.41
651.954	6888.68
652.146	7005.42
652.339	6872.3
652.531	6993.13
652.724	6847.72
652.916	6882.54
653.109	6905.07
653.301	6739.18
653.494	6806.77
653.686	6720.75
653.879	6561.01
654.071	6569.2
654.263	6685.94
654.456	6499.57
654.648	6638.83
654.84	6364.4
655.033	6479.09
655.225	6292.73
655.417	6487.28
655.61	6388.98
655.802	6286.58
655.994	6245.62
656.186	6290.68
656.379	6286.58
656.571	6235.38
656.763	6186.23
656.955	6137.08
657.148	6186.23
657.34	6204.66
657.532	6063.35
657.724	5913.85
657.916	6010.11
658.108	6057.21
658.3	5936.38
658.492	5827.84
658.684	5760.25
658.876	5827.84
659.068	5743.87
659.26	5684.48
659.452	5696.77
659.644	5694.72
659.836	5641.47
660.028	5694.72
660.22	5612.8
660.412	5571.84
660.604	5500.16
660.796	5491.97
660.988	5502.21
661.18	5553.41
661.372	5268.74
661.563	5467.39
661.755	5399.81
661.947	5352.71
662.139	5348.61
662.331	5305.6
662.522	5113.1
662.714	5268.74
662.906	5139.72
663.097	5258.5
663.289	5147.91
663.481	5127.43
663.673	5240.07
663.864	5047.56
664.056	5047.56
664.247	5106.95
664.439	5047.56
664.631	5188.87
664.822	5109
665.014	4959.5
665.205	5070.09
665.397	5057.8
665.588	5018.89
665.78	4984.07
665.971	4904.2
666.163	4943.11
666.354	4816.14
666.546	4795.66
666.737	4807.95
666.929	4640.01
667.12	4719.89
667.311	4799.76
667.503	4775.18
667.694	4492.56
667.885	4592.91
668.077	4609.3
668.268	4689.17
668.459	4590.86
668.651	4506.9
668.842	4416.79
669.033	4474.13
669.224	4535.57
669.416	4685.07
669.607	4484.37
669.798	4451.6
669.989	4543.76
670.18	4633.87
670.371	4457.75
670.563	4541.71
670.754	4478.23
670.945	4361.49
671.136	4621.58
671.327	4416.79
671.518	4259.09
671.709	4306.2
671.9	4408.59
672.091	4418.83
672.282	4310.29
672.473	4177.17
672.664	4349.2
672.855	4320.53
673.046	4494.61
673.237	4347.16
673.428	4230.42
673.619	4248.85
673.809	4181.27
674	4140.31
674.191	4171.03
674.382	4074.78
674.573	4252.95
674.764	4132.12
674.954	4144.41
675.145	4283.67
675.336	4199.7
675.527	4214.04
675.717	4226.32
675.908	4021.53
676.099	4211.99
676.289	4226.32
676.48	4164.89
676.671	4125.97
676.861	4240.66
677.052	4144.41
677.243	4101.4
677.433	4121.88
677.624	4023.58
677.814	4185.37
678.005	4154.65
678.195	4136.21
678.386	4076.82
678.576	4050.2
678.767	4093.21
678.957	4140.31
679.148	4140.31
679.338	4144.41
679.529	3978.52
679.719	4046.1
679.909	4050.2
680.1	3937.56
680.29	4085.02
680.481	4228.37
680.671	4042.01
680.861	4019.48
681.052	3992.86
681.242	3878.17
681.432	4001.05
681.622	4130.07
681.813	4072.73
682.003	4005.14
682.193	4082.97
682.383	4039.96
682.573	4128.02
682.764	4076.82
682.954	4109.59
683.144	4093.21
683.334	3966.23
683.524	3904.79
683.714	3970.33
683.904	3980.57
684.094	4011.29
684.284	4005.14
684.474	4009.24
684.664	4085.02
684.854	4011.29
685.044	3964.18
685.234	3906.84
685.424	3802.4
685.614	3925.27
685.804	3892.51
685.994	3937.56
686.184	3962.14
686.374	3964.18
686.564	3888.41
686.753	3814.68
686.943	3824.92
687.133	3925.27
687.323	3937.56
687.513	3992.86
687.702	3822.88
687.892	3652.89
688.082	3831.07
688.272	3812.64
688.461	3845.4
688.651	3745.05
688.841	3792.16
689.03	3728.67
689.22	3732.76
689.41	3853.59
689.599	3691.81
689.789	3734.81
689.979	3745.05
690.168	3693.85
690.358	3591.45
690.547	3472.67
690.737	3425.57
690.926	3628.32
691.116	3564.83
691.305	3581.21
691.495	3501.34
691.684	3400.99
691.874	3360.03
692.063	3439.9
692.252	3476.77
692.442	3466.53
692.631	3247.4
692.82	3540.26
693.01	3382.56
693.199	3433.76
693.388	3366.18
693.578	3431.71
693.767	3386.66
693.956	3282.21
694.146	3329.31
694.335	3280.16
694.524	3202.34
694.713	3304.74
694.902	3374.37
695.092	3419.43
695.281	3190.05
695.47	3271.97
695.659	3175.72
695.848	3206.44
696.037	3153.19
696.226	3200.29
696.415	3265.83
696.604	3341.6
696.793	3165.48
696.982	3118.37
697.171	3249.44
697.36	3243.3
697.549	3194.15
697.738	3022.12
697.927	3149.09
698.116	3161.38
698.305	3200.29
698.494	3034.41
698.683	3282.21
698.872	3124.52
699.061	3097.89
699.25	3036.45
699.438	3091.75
699.627	3145
699.816	2993.45
700.005	3132.71
700.193	3173.67
700.382	3106.09
700.571	3177.76
700.76	3122.47
700.948	2934.06
701.137	3157.29
701.326	3093.8
701.514	3122.47
701.703	3159.33
701.892	3134.76
702.08	3226.92
702.269	3130.66
702.457	3097.89
702.646	3075.37
702.834	3202.34
703.023	3179.81
703.212	3089.7
703.4	3163.43
703.589	2882.86
703.777	3171.62
703.965	2936.1
704.154	3157.29
704.342	3110.18
704.531	3114.28
704.719	3167.53
704.907	3067.17
705.096	3114.28
705.284	3147.05
705.472	2960.68
705.661	3030.31
705.849	3042.6
706.037	3159.33
706.226	3149.09
706.414	3159.33
706.602	3042.6
706.79	2991.4
706.979	3085.61
707.167	3196.2
707.355	2956.58
707.543	3015.98
707.731	3093.8
707.919	3157.29
708.107	3124.52
708.296	3095.85
708.484	3108.13
708.672	3173.67
708.86	3126.57
709.048	3075.37
709.236	3138.85
709.424	3165.48
709.612	3210.53
709.8	3069.22
709.988	3231.01
710.176	3136.81
710.364	3226.92
710.551	3106.09
710.739	3271.97
710.927	3171.62
711.115	3089.7
711.303	3114.28
711.491	3177.76
711.679	2995.5
711.866	3032.36
712.054	3073.32
712.242	3036.45
712.43	3081.51
712.617	3155.24
712.805	3136.81
712.993	3161.38
713.181	3073.32
713.368	3243.3
713.556	3200.29
713.744	3122.47
713.931	3183.91
714.119	3087.65
714.306	3075.37
714.494	3188
714.682	3052.84
714.869	3061.03
715.057	3259.68
715.244	3075.37
715.432	3179.81
715.619	3218.72
715.807	3183.91
715.994	3280.16
716.182	3089.7
716.369	3120.42
716.556	3222.82
716.744	3161.38
716.931	3136.81
717.119	3188
717.306	3202.34
717.493	3226.92
717.681	3269.92
717.868	3245.35
718.055	3097.89
718.242	3126.57
718.43	3188
718.617	3188
718.804	3022.12
718.991	3093.8
719.179	3231.01
719.366	3212.58
719.553	3233.06
719.74	3063.08
719.927	3235.11
720.114	3095.85
720.301	3081.51
720.488	3071.27
720.676	3108.13
720.863	3239.2
721.05	3163.43
721.237	3138.85
721.424	3048.74
721.611	3169.57
721.798	3239.2
721.985	3169.57
722.172	3173.67
722.358	3093.8
722.545	3239.2
722.732	3122.47
722.919	3214.63
723.106	3169.57
723.293	3134.76
723.48	3216.68
723.667	3132.71
723.853	3155.24
724.04	3288.36
724.227	3153.19
724.414	3171.62
724.6	3032.36
724.787	3224.87
724.974	3280.16
725.161	3073.32
725.347	3142.95
725.534	3267.88
725.72	3120.42
725.907	2944.3
726.094	3265.83
726.28	3071.27
726.467	3042.6
726.653	3054.89
726.84	3073.32
727.027	3200.29
727.213	3231.01
727.4	3091.75
727.586	2989.35
727.773	3132.71
727.959	3085.61
728.145	3118.37
728.332	3054.89
728.518	3048.74
728.705	3095.85
728.891	3036.45
729.077	3073.32
729.264	3214.63
729.45	3040.55
729.636	3198.24
729.823	3030.31
730.009	3112.23
730.195	2997.54
730.382	3081.51
730.568	3079.46
730.754	3095.85
730.94	3089.7
731.126	3022.12
731.313	3161.38
731.499	3077.41
731.685	3095.85
731.871	3058.98
732.057	2968.87
732.243	3194.15
732.429	2962.73
732.615	3026.22
732.801	3067.17
732.987	3079.46
733.173	2944.3
733.359	3118.37
733.545	3145
733.731	3097.89
733.917	2938.15
734.103	3009.83
734.289	2991.4
734.475	3015.98
734.661	3110.18
734.847	3071.27
735.033	3061.03
735.219	2874.67
735.404	3024.17
735.59	2944.3
735.776	2987.3
735.962	3061.03
736.148	2975.02
736.333	2985.26
736.519	2909.48
736.705	2868.52
736.89	3009.83
737.076	2952.49
737.262	2921.77
737.447	2905.39
737.633	2983.21
737.819	2921.77
738.004	2950.44
738.19	2948.39
738.375	2970.92
738.561	3007.78
738.747	2841.9
738.932	2925.86
739.118	2960.68
739.303	2936.1
739.489	2852.14
739.674	2884.91
739.859	2776.36
740.045	2915.62
740.23	2868.52
740.416	2768.17
740.601	2772.27
740.786	2911.53
740.972	2577.71
741.157	2886.95
741.342	2772.27
741.528	2745.64
741.713	2794.79
741.898	2721.07
742.084	2612.53
742.269	2694.44
742.454	2733.36
742.639	2786.6
742.824	2583.85
743.01	2698.54
743.195	2704.68
743.38	2710.83
743.565	2682.16
743.75	2694.44
743.935	2657.58
744.12	2770.22
744.305	2549.04
744.49	2604.33
744.675	2653.48
744.86	2598.19
745.045	2469.17
745.23	2473.26
745.415	2530.61
745.6	2522.41
745.785	2389.3
745.97	2483.5
746.155	2495.79
746.34	2448.69
746.525	2442.54
746.71	2520.37
746.895	2321.71
747.079	2434.35
747.264	2344.24
747.449	2305.33
747.634	2321.71
747.819	2428.21
748.003	2295.09
748.188	2444.59
748.373	2243.89
748.557	2334
748.742	2317.62
748.927	2295.09
749.111	2192.69
749.296	2264.37
749.481	2297.14
749.665	2282.8
749.85	2174.26
750.034	2133.3
750.219	2182.45
750.404	2129.2
750.588	2157.88
750.773	2090.29
750.957	1983.8
751.141	2123.06
751.326	2090.29
751.51	2020.66
751.695	2028.85
751.879	1946.94
752.064	2116.92
752.248	2073.91
752.432	2049.33
752.617	1860.92
752.801	2006.33
752.985	1965.37
753.17	1916.22
753.354	1854.78
753.538	1848.63
753.722	1871.16
753.907	1791.29
754.091	1862.97
754.275	1819.96
754.459	1887.54
754.643	1905.98
754.828	1772.86
755.012	1758.52
755.196	1701.18
755.38	1764.67
755.564	1729.85
755.748	1721.66
755.932	1625.4
756.116	1770.81
756.3	1719.61
756.484	1717.56
756.668	1658.17
756.852	1647.93
757.036	1647.93
757.22	1574.21
757.404	1549.63
757.588	1539.39
757.772	1684.8
757.956	1596.73
758.14	1480
758.323	1615.16
758.507	1525.05
758.691	1543.49
758.875	1502.53
759.059	1555.77
759.242	1516.86
759.426	1361.22
759.61	1543.49
759.794	1471.81
759.977	1436.99
760.161	1574.21
760.345	1441.09
760.528	1424.7
760.712	1363.26
760.895	1461.57
761.079	1326.4
761.263	1404.22
761.446	1465.66
761.63	1387.84
761.813	1406.27
761.997	1340.74
762.18	1291.59
762.364	1328.45
762.547	1363.26
762.731	1334.59
762.914	1334.59
763.098	1275.2
763.281	1330.5
763.464	1301.83
763.648	1301.83
763.831	1299.78
764.015	1301.83
764.198	1232.19
764.381	1279.3
764.564	1256.77
764.748	1324.35
764.931	1252.67
765.114	1267.01
765.297	1236.29
765.481	1260.87
765.664	1375.55
765.847	1228.1
766.03	1297.73
766.213	1219.91
766.397	1142.08
766.58	1181
766.763	1131.84
766.946	1158.47
767.129	1191.24
767.312	1176.9
767.495	1158.47
767.678	1123.65
767.861	1199.43
768.044	1203.52
768.227	1105.22
768.41	1115.46
768.593	1219.91
768.776	1039.69
768.959	1158.47
769.142	1140.04
769.324	1090.88
769.507	1035.59
769.69	1150.28
769.873	1115.46
770.056	1084.74
770.239	1049.93
770.421	1127.75
770.604	1105.22
770.787	1084.74
770.97	1113.41
771.152	1068.36
771.335	1023.3
771.518	1002.82
771.7	1011.01
771.883	1092.93
772.066	1041.73
772.248	1099.08
772.431	1064.26
772.613	990.53
772.796	984.39
772.978	1013.06
773.161	1041.73
773.343	904.52
773.526	925
773.708	929.1
773.891	867.66
774.073	865.61
774.256	951.62
774.438	898.38
774.621	900.42
774.803	849.22
774.985	931.14
775.168	877.9
775.35	896.33
775.532	976.2
775.715	922.95
775.897	845.13
776.079	838.98
776.261	836.94
776.444	922.95
776.626	787.79
776.808	836.94
776.99	791.88
777.173	841.03
777.355	707.91
777.537	822.6
777.719	781.64
777.901	777.55
778.083	781.64
778.265	752.97
778.447	720.2
778.629	740.68
778.811	748.87
778.993	748.87
779.175	738.63
779.357	732.49
779.539	677.2
779.721	730.44
779.903	818.5
780.085	787.79
780.267	703.82
780.449	673.1
780.631	705.87
780.812	709.96
780.994	662.86
781.176	689.48
781.358	683.34
781.54	648.52
781.721	605.52
781.903	712.01
782.085	650.57
782.267	642.38
782.448	660.81
782.63	613.71
782.812	669
782.993	654.67
783.175	707.91
783.357	560.46
783.538	591.18
783.72	648.52
783.901	615.76
784.083	605.52
784.264	642.38
784.446	564.56
784.627	564.56
784.809	574.8
784.99	576.84
785.172	582.99
785.353	542.03
785.535	507.21
785.716	527.69
785.897	558.41
786.079	527.69
786.26	544.08
786.441	515.41
786.623	535.89
786.804	529.74
786.985	517.45
787.167	587.08
787.348	476.49
787.529	437.58
787.71	525.65
787.891	558.41
788.073	460.11
788.254	490.83
788.435	478.54
788.616	505.17
788.797	492.88
788.978	517.45
789.159	445.77
789.34	523.6
789.522	404.82
789.703	445.77
789.884	421.2
790.065	423.25
790.246	503.12
790.427	415.06
790.607	464.21
790.788	427.34
790.969	396.62
791.15	445.77
791.331	372.05
791.512	433.49
791.693	474.45
791.874	466.25
792.054	462.16
792.235	451.92
792.416	427.34
792.597	404.82
792.778	396.62
792.958	453.97
793.139	427.34
793.32	396.62
793.5	398.67
793.681	378.19
793.862	343.38
794.042	347.47
794.223	359.76
794.404	339.28
794.584	324.94
794.765	355.66
794.945	378.19
795.126	408.91
795.306	402.77
795.487	353.62
795.667	302.42
795.848	388.43
796.028	341.33
796.209	410.96
796.389	351.57
796.57	353.62
796.75	380.24
796.93	345.42
797.111	261.46
797.291	335.18
797.471	435.53
797.652	372.05
797.832	314.7
798.012	329.04
798.192	361.81
798.373	341.33
798.553	300.37
798.733	357.71
798.913	302.42
799.093	253.27
799.274	345.42
799.454	320.85
799.634	322.9
799.814	370
799.994	343.38
800.174	335.18
800.354	331.09
800.534	288.08
800.714	300.37
800.894	240.98
801.074	294.22
801.254	300.37
801.434	335.18
801.614	296.27
801.794	216.4
801.974	714.06
802.154	363.86
802.334	335.18
802.514	251.22
802.693	273.75
802.873	322.9
803.053	253.27
803.233	339.28
803.413	302.42
803.592	308.56
803.772	161.11
803.952	320.85
804.131	267.6
804.311	329.04
804.491	277.84
804.67	257.36
804.85	240.98
805.03	269.65
805.209	245.07
805.389	232.79
805.568	279.89
805.748	206.16
805.928	220.5
806.107	331.09
806.287	228.69
806.466	200.02
806.646	277.84
806.825	240.98
807.004	195.92
807.184	187.73
807.363	185.68
807.543	212.31
807.722	204.11
807.901	234.83
808.081	273.75
808.26	228.69
808.439	247.12
808.619	238.93
808.798	226.64
808.977	218.45
809.156	189.78
809.336	261.46
809.515	236.88
809.694	152.92
809.873	169.3
810.052	220.5
810.231	304.46
810.411	255.31
810.59	183.63
810.769	281.94
810.948	255.31
811.127	220.5
811.306	191.83
811.485	159.06
811.664	183.63
811.843	191.83
812.022	245.07
812.201	179.54
812.38	202.07
812.559	257.36
812.737	224.59
812.916	159.06
813.095	148.82
813.274	249.17
813.453	183.63
813.632	163.15
813.811	193.87
813.989	224.59
814.168	253.27
814.347	175.44
814.526	157.01
814.704	286.03
814.883	157.01
815.062	185.68
815.24	259.41
815.419	126.29
815.598	204.11
815.776	243.03
815.955	154.96
816.133	167.25
816.312	179.54
816.49	154.96
816.669	206.16
816.847	118.1
817.026	85.33
817.204	142.68
817.383	165.2
817.561	122.2
817.74	85.33
817.918	251.22
818.097	134.48
818.275	142.68
818.453	204.11
818.632	118.1
818.81	116.05
818.988	191.83
819.167	251.22
819.345	105.81
819.523	138.58
819.701	181.59
819.879	324.94
820.058	79.19
820.236	189.78
820.414	161.11
820.592	13.65
820.77	118.1
820.948	142.68
821.127	159.06
821.305	142.68
821.483	154.96
821.661	154.96
821.839	173.39
822.017	169.3
822.195	165.2
822.373	124.24
822.551	109.91
822.729	222.55
822.907	122.2
823.085	120.15
823.262	197.97
823.44	91.48
823.618	200.02
823.796	101.72
823.974	68.95
824.152	167.25
824.329	167.25
824.507	169.3
824.685	204.11
824.863	73.04
825.04	50.52
825.218	97.62
825.396	87.38
825.574	105.81
825.751	130.39
825.929	101.72
826.107	165.2
826.284	103.76
826.462	134.48
826.639	120.15
826.817	109.91
826.994	111.96
827.172	87.38
827.349	103.76
827.527	175.44
827.704	146.77
827.882	42.32
828.059	97.62
828.237	81.24
828.414	146.77
828.591	97.62
828.769	77.14
828.946	140.63
829.124	165.2
829.301	124.24
829.478	142.68
829.655	146.77
829.833	85.33
830.01	75.09
830.187	107.86
830.364	77.14
830.542	77.14
830.719	163.15
830.896	146.77
831.073	87.38
831.25	105.81
831.427	109.91
831.604	95.57
831.782	11.61
831.959	169.3
832.136	136.53
832.313	138.58
832.49	75.09
832.667	120.15
832.844	85.33
833.021	109.91
833.198	142.68
833.374	109.91
833.551	75.09
833.728	136.53
833.905	157.01
834.082	36.18
834.259	185.68
834.436	64.85
834.612	81.24
834.789	130.39
834.966	124.24
835.143	167.25
835.319	-39.59
835.496	107.86
835.673	144.72
835.85	44.37
836.026	126.29
836.203	105.81
836.38	9.56
836.556	40.28
836.733	118.1
836.909	62.8
837.086	60.76
837.262	75.09
837.439	89.43
837.616	44.37
837.792	122.2
837.968	81.24
838.145	60.76
838.321	85.33
838.498	36.18
838.674	83.28
838.851	50.52
839.027	107.86
839.203	83.28
839.38	109.91
839.556	87.38
839.732	73.04
839.909	93.52
840.085	32.08
840.261	48.47
840.437	109.91
840.614	52.56
840.79	89.43
840.966	34.13
841.142	95.57
841.318	120.15
841.494	134.48
841.671	54.61
841.847	11.61
842.023	58.71
842.199	89.43
842.375	93.52
842.551	17.75
842.727	134.48
842.903	89.43
843.079	36.18
843.255	122.2
843.431	85.33
843.607	130.39
843.783	7.51
843.959	85.33
844.134	44.37
844.31	58.71
844.486	83.28
844.662	25.94
844.838	44.37
845.013	50.52
845.189	60.76
845.365	97.62
845.541	34.13
845.716	85.33
845.892	66.9
846.068	42.32
846.244	36.18
846.419	75.09
846.595	66.9
846.77	38.23
846.946	71
847.122	81.24
847.297	23.89
847.473	68.95
847.648	-25.26
847.824	15.7
847.999	-8.87
848.175	138.58
848.35	85.33
848.526	109.91
848.701	40.28
848.876	21.85
849.052	101.72
849.227	48.47
849.403	9.56
849.578	85.33
849.753	9.56
849.929	105.81
850.104	36.18
850.279	27.99
850.454	91.48
850.63	9.56
850.805	87.38
850.98	46.42
851.155	9.56
851.33	68.95
851.505	42.32
851.681	132.44
851.856	73.04
852.031	79.19
852.206	132.44
852.381	-19.11
852.556	64.85
852.731	66.9
852.906	34.13
853.081	101.72
853.256	71
853.431	-19.11
853.606	44.37
853.781	34.13
853.956	91.48
854.131	77.14
854.305	48.47
854.48	36.18
854.655	44.37
854.83	66.9
855.005	109.91
855.18	9.56
855.354	83.28
855.529	15.7
855.704	9.56
855.879	11.61
856.053	-33.45
856.228	-0.68
856.403	19.8
856.577	50.52
856.752	3.41
856.926	85.33
857.101	-4.78
857.276	15.7
857.45	58.71
857.625	25.94
857.799	-2.73
857.974	27.99
858.148	34.13
858.323	114
858.497	11.61
858.672	56.66
858.846	40.28
859.02	81.24
859.195	54.61
859.369	36.18
859.543	19.8
859.718	25.94
859.892	44.37
860.066	21.85
860.241	42.32
860.415	19.8
860.589	54.61
860.763	-47.79
860.938	-6.83
861.112	60.76
861.286	-12.97
861.46	25.94
861.634	89.43
861.808	66.9
861.982	107.86
862.157	50.52
862.331	15.7
862.505	-0.68
862.679	-8.87
862.853	40.28
863.027	62.8
863.201	75.09
863.375	62.8
863.549	77.14
863.722	50.52
863.896	50.52
864.07	13.65
864.244	23.89
864.418	36.18
864.592	-17.07
864.766	34.13
864.939	50.52
865.113	-21.16
865.287	75.09
865.461	9.56
865.634	-12.97
865.808	11.61
865.982	-41.64
866.156	42.32
866.329	23.89
866.503	-4.78
866.676	48.47
866.85	-8.87
867.024	5.46
867.197	36.18
867.371	15.7
867.544	-4.78
867.718	50.52
867.891	38.23
868.065	44.37
868.238	-8.87
868.412	40.28
868.585	73.04
868.759	81.24
868.932	-23.21
869.105	-19.11
869.279	-8.87
869.452	-0.68
869.625	46.42
869.799	-19.11
869.972	-4.78
870.145	52.56
870.319	64.85
870.492	19.8
870.665	5.46
870.838	85.33
871.011	-41.64
871.185	50.52
871.358	3.41
871.531	93.52
871.704	-2.73
871.877	7.51
872.05	5.46
872.223	23.89
872.396	120.15
872.569	17.75
872.742	-47.79
872.915	-25.26
873.088	-41.64
873.261	21.85
873.434	75.09
873.607	52.56
873.78	-4.78
873.953	50.52
874.126	-4.78
874.299	-8.87
874.471	-17.07
874.644	13.65
874.817	15.7
874.99	42.32
875.163	42.32
875.335	58.71
875.508	-6.83
875.681	134.48
875.853	25.94
876.026	25.94
876.199	34.13
876.371	23.89
876.544	-43.69
876.717	40.28
876.889	23.89
877.062	-12.97
877.234	-17.07
877.407	38.23
877.579	17.75
877.752	64.85
877.924	44.37
878.097	-4.78
878.269	-0.68
878.442	-39.59
878.614	101.72
878.786	71
878.959	-21.16
879.131	66.9
879.303	-29.35
879.476	-35.5
879.648	-23.21
879.82	15.7
879.993	23.89
880.165	-15.02
880.337	15.7
880.509	19.8
880.681	-4.78
880.854	15.7
881.026	34.13
881.198	32.08
881.37	34.13
881.542	27.99
881.714	9.56
881.886	-17.07
882.058	27.99
882.23	30.04
882.402	-31.4
882.574	44.37
882.746	42.32
882.918	34.13
883.09	42.32
883.262	7.51
883.434	3.41
883.606	-2.73
883.778	-10.92
883.95	58.71
884.122	-62.12
884.293	81.24
884.465	-29.35
884.637	48.47
884.809	-53.93
884.98	25.94
885.152	-27.31
885.324	19.8
885.496	-21.16
885.667	-33.45
885.839	64.85
886.011	3.41
886.182	34.13
886.354	68.95
886.525	64.85
886.697	-25.26
886.869	52.56
887.04	52.56
887.212	5.46
887.383	17.75
887.555	-10.92
887.726	50.52
887.897	50.52
888.069	-12.97
888.24	11.61
888.412	-43.69
888.583	107.86
888.754	7.51
888.926	15.7
889.097	40.28
889.268	30.04
889.44	32.08
889.611	-53.93
889.782	-15.02
889.953	11.61
890.125	93.52
890.296	-10.92
890.467	-2.73
890.638	-45.74
890.809	19.8
890.98	52.56
891.151	38.23
891.323	-8.87
891.494	3.41
891.665	23.89
891.836	-49.83
892.007	-4.78
892.178	-39.59
892.349	130.39
892.52	-74.41
892.691	19.8
892.862	36.18
893.032	-80.55
893.203	34.13
893.374	64.85
893.545	83.28
893.716	68.95
893.887	32.08
894.057	-29.35
894.228	62.8
894.399	54.61
894.57	68.95
894.74	44.37
894.911	34.13
895.082	-58.03
895.253	-64.17
895.423	71
895.594	50.52
895.764	44.37
895.935	13.65
896.106	64.85
896.276	-19.11
896.447	17.75
896.617	19.8
896.788	9.56
896.958	-10.92
897.129	52.56
897.299	-25.26
897.47	5.46
897.64	44.37
897.81	-39.59
897.981	21.85
898.151	-62.12
898.322	79.19
898.492	34.13
898.662	-2.73
898.832	40.28
899.003	11.61
899.173	-15.02
899.343	-17.07
899.513	-39.59
