Data from USB4F104151__205__10-29-36-875.txt Node

Date: Wed Mar 12 10:29:36 EDT 2025
User: louis
Spectrometer: USB4F10415
Trigger mode: 4
Integration Time (sec): 3.000000E-2
Scans to average: 1
Electric dark correction enabled: true
Nonlinearity correction enabled: false
Boxcar width: 0
XAxis mode: Wavelengths
Number of Pixels in Spectrum: 3648
>>>>>Begin Spectral Data<<<<<
178.204	-104.79
178.424	-104.79
178.644	-104.79
178.864	-72.02
179.084	13.99
179.304	-8.53
179.524	9.9
179.744	-14.68
179.964	40.62
180.184	20.14
180.404	-14.68
180.624	20.14
180.844	40.62
181.064	-47.44
181.283	-16.73
181.503	-43.35
181.723	13.99
181.943	-20.82
182.163	190.12
182.383	89.77
182.602	36.52
182.822	36.52
183.042	132.78
183.262	-2.39
183.482	48.81
183.701	24.23
183.921	126.63
184.141	67.24
184.361	52.91
184.58	57
184.8	91.82
185.02	-41.3
185.239	40.62
185.459	67.24
185.679	87.72
185.898	32.43
186.118	13.99
186.338	50.86
186.557	30.38
186.777	79.53
186.997	63.15
187.216	108.2
187.436	87.72
187.655	59.05
187.875	145.06
188.095	77.48
188.314	57
188.534	149.16
188.753	54.95
188.973	67.24
189.192	54.95
189.412	32.43
189.631	71.34
189.851	34.47
190.07	75.43
190.29	71.34
190.509	22.19
190.729	57
190.948	122.54
191.168	155.3
191.387	85.67
191.607	75.43
191.826	26.28
192.045	61.1
192.265	63.15
192.484	40.62
192.704	-2.39
192.923	1.71
193.142	108.2
193.362	65.19
193.581	108.2
193.8	59.05
194.02	153.26
194.239	40.62
194.458	-26.96
194.678	-35.16
194.897	87.72
195.116	30.38
195.335	102.06
195.555	87.72
195.774	140.97
195.993	26.28
196.212	-2.39
196.432	54.95
196.651	40.62
196.87	57
197.089	100.01
197.308	77.48
197.528	-14.68
197.747	18.09
197.966	67.24
198.185	65.19
198.404	24.23
198.623	110.25
198.842	75.43
199.062	36.52
199.281	22.19
199.5	42.67
199.719	38.57
199.938	5.8
200.157	71.34
200.376	54.95
200.595	48.81
200.814	30.38
201.033	57
201.252	24.23
201.471	57
201.69	50.86
201.909	26.28
202.128	89.77
202.347	81.58
202.566	89.77
202.785	48.81
203.004	52.91
203.223	75.43
203.442	108.2
203.661	-16.73
203.879	75.43
204.098	40.62
204.317	-10.58
204.536	61.1
204.755	24.23
204.974	81.58
205.193	54.95
205.411	153.26
205.63	120.49
205.849	61.1
206.068	20.14
206.287	9.9
206.505	75.43
206.724	-16.73
206.943	34.47
207.162	3.75
207.381	67.24
207.599	30.38
207.818	22.19
208.037	106.15
208.255	44.71
208.474	5.8
208.693	134.82
208.911	22.19
209.13	36.52
209.349	42.67
209.567	44.71
209.786	34.47
210.005	87.72
210.223	-8.53
210.442	67.24
210.661	132.78
210.879	73.39
211.098	61.1
211.316	13.99
211.535	81.58
211.753	79.53
211.972	75.43
212.191	26.28
212.409	83.63
212.628	3.75
212.846	71.34
213.065	71.34
213.283	67.24
213.502	20.14
213.72	95.91
213.938	104.11
214.157	65.19
214.375	38.57
214.594	59.05
214.812	40.62
215.031	42.67
215.249	48.81
215.467	13.99
215.686	95.91
215.904	97.96
216.122	87.72
216.341	87.72
216.559	18.09
216.778	81.58
216.996	-18.77
217.214	22.19
217.432	3.75
217.651	46.76
217.869	112.3
218.087	57
218.306	73.39
218.524	63.15
218.742	38.57
218.96	81.58
219.179	34.47
219.397	42.67
219.615	112.3
219.833	46.76
220.051	38.57
220.27	59.05
220.488	122.54
220.706	59.05
220.924	65.19
221.142	-22.87
221.36	1.71
221.578	42.67
221.796	91.82
222.015	110.25
222.233	9.9
222.451	102.06
222.669	69.29
222.887	122.54
223.105	40.62
223.323	50.86
223.541	59.05
223.759	11.95
223.977	50.86
224.195	40.62
224.413	1.71
224.631	128.68
224.849	112.3
225.067	65.19
225.285	-39.25
225.503	79.53
225.721	46.76
225.939	89.77
226.157	108.2
226.375	104.11
226.592	-12.63
226.81	59.05
227.028	11.95
227.246	161.45
227.464	57
227.682	20.14
227.9	65.19
228.117	42.67
228.335	73.39
228.553	77.48
228.771	65.19
228.989	83.63
229.206	18.09
229.424	16.04
229.642	89.77
229.86	-10.58
230.077	122.54
230.295	52.91
230.513	91.82
230.731	91.82
230.948	108.2
231.166	73.39
231.384	46.76
231.601	69.29
231.819	116.39
232.037	46.76
232.254	-2.39
232.472	73.39
232.689	42.67
232.907	112.3
233.125	34.47
233.342	32.43
233.56	46.76
233.777	63.15
233.995	42.67
234.213	110.25
234.43	69.29
234.648	100.01
234.865	1.71
235.083	91.82
235.3	16.04
235.518	77.48
235.735	93.87
235.953	124.58
236.17	91.82
236.388	32.43
236.605	75.43
236.822	38.57
237.04	61.1
237.257	77.48
237.475	44.71
237.692	42.67
237.909	26.28
238.127	20.14
238.344	16.04
238.562	34.47
238.779	44.71
238.996	32.43
239.214	97.96
239.431	42.67
239.648	24.23
239.865	67.24
240.083	136.87
240.3	28.33
240.517	48.81
240.735	63.15
240.952	138.92
241.169	61.1
241.386	71.34
241.603	-2.39
241.821	59.05
242.038	73.39
242.255	73.39
242.472	114.34
242.689	59.05
242.907	95.91
243.124	-8.53
243.341	130.73
243.558	1.71
243.775	71.34
243.992	36.52
244.209	38.57
244.426	118.44
244.643	114.34
244.86	11.95
245.078	153.26
245.295	46.76
245.512	63.15
245.729	48.81
245.946	85.67
246.163	42.67
246.38	114.34
246.597	79.53
246.814	85.67
247.031	61.1
247.248	22.19
247.464	52.91
247.681	93.87
247.898	85.67
248.115	34.47
248.332	-10.58
248.549	110.25
248.766	159.4
248.983	108.2
249.2	-63.83
249.417	126.63
249.633	54.95
249.85	83.63
250.067	-39.25
250.284	69.29
250.501	59.05
250.717	59.05
250.934	-26.96
251.151	-31.06
251.368	95.91
251.585	52.91
251.801	16.04
252.018	-4.44
252.235	13.99
252.451	-31.06
252.668	-12.63
252.885	102.06
253.102	38.57
253.318	65.19
253.535	54.95
253.752	106.15
253.968	18.09
254.185	7.85
254.401	77.48
254.618	46.76
254.835	46.76
255.051	124.58
255.268	11.95
255.484	132.78
255.701	-2.39
255.917	81.58
256.134	57
256.351	97.96
256.567	77.48
256.784	87.72
257	57
257.217	42.67
257.433	149.16
257.65	95.91
257.866	50.86
258.082	-2.39
258.299	-2.39
258.515	26.28
258.732	75.43
258.948	73.39
259.165	108.2
259.381	-2.39
259.597	34.47
259.814	-6.49
260.03	73.39
260.246	136.87
260.463	34.47
260.679	65.19
260.895	24.23
261.112	122.54
261.328	67.24
261.544	91.82
261.761	165.54
261.977	104.11
262.193	1.71
262.409	95.91
262.626	83.63
262.842	50.86
263.058	-6.49
263.274	83.63
263.49	95.91
263.707	97.96
263.923	71.34
264.139	52.91
264.355	48.81
264.571	95.91
264.787	153.26
265.004	100.01
265.22	85.67
265.436	59.05
265.652	24.23
265.868	77.48
266.084	50.86
266.3	79.53
266.516	46.76
266.732	-0.34
266.948	77.48
267.164	40.62
267.38	18.09
267.596	73.39
267.812	91.82
268.028	81.58
268.244	65.19
268.46	71.34
268.676	89.77
268.892	89.77
269.108	75.43
269.324	5.8
269.54	50.86
269.756	-18.77
269.972	46.76
270.188	26.28
270.403	65.19
270.619	57
270.835	42.67
271.051	57
271.267	28.33
271.483	34.47
271.698	59.05
271.914	30.38
272.13	30.38
272.346	3.75
272.562	79.53
272.777	75.43
272.993	22.19
273.209	52.91
273.425	83.63
273.64	24.23
273.856	91.82
274.072	48.81
274.287	46.76
274.503	120.49
274.719	69.29
274.934	73.39
275.15	48.81
275.366	1.71
275.581	1.71
275.797	95.91
276.012	20.14
276.228	18.09
276.444	71.34
276.659	73.39
276.875	77.48
277.09	61.1
277.306	67.24
277.521	73.39
277.737	89.77
277.952	100.01
278.168	20.14
278.383	81.58
278.599	42.67
278.814	122.54
279.03	71.34
279.245	132.78
279.461	87.72
279.676	136.87
279.892	46.76
280.107	-16.73
280.322	1.71
280.538	22.19
280.753	77.48
280.969	24.23
281.184	54.95
281.399	112.3
281.615	114.34
281.83	91.82
282.045	63.15
282.26	28.33
282.476	97.96
282.691	93.87
282.906	110.25
283.122	69.29
283.337	124.58
283.552	52.91
283.767	73.39
283.983	20.14
284.198	-6.49
284.413	85.67
284.628	73.39
284.843	36.52
285.058	38.57
285.274	20.14
285.489	46.76
285.704	155.3
285.919	50.86
286.134	77.48
286.349	159.4
286.564	61.1
286.779	116.39
286.995	108.2
287.21	46.76
287.425	128.68
287.64	65.19
287.855	147.11
288.07	-33.11
288.285	83.63
288.5	124.58
288.715	108.2
288.93	46.76
289.145	65.19
289.36	118.44
289.575	59.05
289.79	50.86
290.004	65.19
290.219	100.01
290.434	-8.53
290.649	81.58
290.864	108.2
291.079	75.43
291.294	40.62
291.509	24.23
291.724	5.8
291.938	110.25
292.153	87.72
292.368	89.77
292.583	22.19
292.798	48.81
293.012	102.06
293.227	50.86
293.442	40.62
293.657	30.38
293.871	153.26
294.086	116.39
294.301	11.95
294.516	83.63
294.73	77.48
294.945	28.33
295.16	26.28
295.374	89.77
295.589	38.57
295.804	97.96
296.018	54.95
296.233	24.23
296.447	138.92
296.662	20.14
296.877	108.2
297.091	77.48
297.306	95.91
297.52	89.77
297.735	95.91
297.949	134.82
298.164	104.11
298.378	7.85
298.593	38.57
298.807	79.53
299.022	73.39
299.236	120.49
299.451	9.9
299.665	112.3
299.88	65.19
300.094	46.76
300.309	-6.49
300.523	77.48
300.737	54.95
300.952	-10.58
301.166	38.57
301.381	7.85
301.595	-14.68
301.809	1.71
302.024	-35.16
302.238	140.97
302.452	87.72
302.667	85.67
302.881	54.95
303.095	26.28
303.309	106.15
303.524	30.38
303.738	26.28
303.952	63.15
304.166	28.33
304.381	22.19
304.595	89.77
304.809	59.05
305.023	54.95
305.237	13.99
305.452	79.53
305.666	-8.53
305.88	116.39
306.094	91.82
306.308	22.19
306.522	102.06
306.736	91.82
306.95	46.76
307.164	69.29
307.379	-29.01
307.593	106.15
307.807	110.25
308.021	79.53
308.235	120.49
308.449	34.47
308.663	97.96
308.877	134.82
309.091	108.2
309.305	112.3
309.519	32.43
309.733	124.58
309.947	24.23
310.161	97.96
310.374	79.53
310.588	126.63
310.802	50.86
311.016	81.58
311.23	34.47
311.444	40.62
311.658	54.95
311.872	95.91
312.085	18.09
312.299	122.54
312.513	124.58
312.727	57
312.941	38.57
313.154	57
313.368	102.06
313.582	130.73
313.796	106.15
314.009	100.01
314.223	85.67
314.437	42.67
314.651	46.76
314.864	-41.3
315.078	63.15
315.292	91.82
315.505	83.63
315.719	46.76
315.933	52.91
316.146	75.43
316.36	69.29
316.573	65.19
316.787	71.34
317.001	73.39
317.214	83.63
317.428	91.82
317.641	73.39
317.855	100.01
318.068	42.67
318.282	102.06
318.495	104.11
318.709	83.63
318.922	59.05
319.136	79.53
319.349	91.82
319.563	118.44
319.776	79.53
319.99	11.95
320.203	77.48
320.417	40.62
320.63	100.01
320.843	44.71
321.057	95.91
321.27	36.52
321.483	116.39
321.697	112.3
321.91	71.34
322.124	40.62
322.337	7.85
322.55	61.1
322.763	52.91
322.977	40.62
323.19	108.2
323.403	87.72
323.617	91.82
323.83	67.24
324.043	73.39
324.256	54.95
324.469	-8.53
324.683	138.92
324.896	83.63
325.109	-4.44
325.322	1.71
325.535	97.96
325.748	36.52
325.962	11.95
326.175	61.1
326.388	77.48
326.601	61.1
326.814	34.47
327.027	61.1
327.24	126.63
327.453	116.39
327.666	126.63
327.879	24.23
328.092	69.29
328.305	40.62
328.518	104.11
328.731	54.95
328.944	104.11
329.157	95.91
329.37	95.91
329.583	124.58
329.796	130.73
330.009	67.24
330.222	95.91
330.435	50.86
330.648	65.19
330.861	18.09
331.073	122.54
331.286	100.01
331.499	50.86
331.712	89.77
331.925	48.81
332.138	77.48
332.35	79.53
332.563	87.72
332.776	122.54
332.989	75.43
333.202	75.43
333.414	91.82
333.627	77.48
333.84	63.15
334.053	87.72
334.265	44.71
334.478	93.87
334.691	40.62
334.903	128.68
335.116	40.62
335.329	79.53
335.541	48.81
335.754	145.06
335.966	18.09
336.179	24.23
336.392	112.3
336.604	46.76
336.817	63.15
337.029	46.76
337.242	34.47
337.454	50.86
337.667	83.63
337.88	132.78
338.092	28.33
338.305	120.49
338.517	26.28
338.729	83.63
338.942	108.2
339.154	20.14
339.367	24.23
339.579	50.86
339.792	73.39
340.004	95.91
340.217	102.06
340.429	118.44
340.641	59.05
340.854	24.23
341.066	40.62
341.278	128.68
341.491	97.96
341.703	108.2
341.915	114.34
342.128	112.3
342.34	87.72
342.552	59.05
342.764	81.58
342.977	22.19
343.189	81.58
343.401	91.82
343.613	24.23
343.826	50.86
344.038	38.57
344.25	118.44
344.462	132.78
344.674	81.58
344.886	116.39
345.099	54.95
345.311	59.05
345.523	50.86
345.735	9.9
345.947	71.34
346.159	83.63
346.371	87.72
346.583	52.91
346.795	128.68
347.007	22.19
347.219	157.35
347.431	26.28
347.643	93.87
347.855	87.72
348.067	145.06
348.279	61.1
348.491	97.96
348.703	112.3
348.915	91.82
349.127	57
349.339	95.91
349.551	1.71
349.763	122.54
349.975	46.76
350.187	128.68
350.399	110.25
350.61	120.49
350.822	83.63
351.034	-4.44
351.246	81.58
351.458	87.72
351.669	147.11
351.881	50.86
352.093	91.82
352.305	143.02
352.517	5.8
352.728	118.44
352.94	140.97
353.152	104.11
353.363	106.15
353.575	48.81
353.787	108.2
353.999	134.82
354.21	91.82
354.422	18.09
354.633	73.39
354.845	38.57
355.057	106.15
355.268	95.91
355.48	34.47
355.692	11.95
355.903	40.62
356.115	63.15
356.326	79.53
356.538	38.57
356.749	30.38
356.961	83.63
357.172	63.15
357.384	36.52
357.595	128.68
357.807	95.91
358.018	79.53
358.23	67.24
358.441	173.74
358.653	61.1
358.864	71.34
359.075	89.77
359.287	85.67
359.498	61.1
359.709	108.2
359.921	69.29
360.132	48.81
360.344	59.05
360.555	18.09
360.766	124.58
360.977	91.82
361.189	77.48
361.4	34.47
361.611	126.63
361.823	128.68
362.034	32.43
362.245	-22.87
362.456	91.82
362.667	132.78
362.879	87.72
363.09	104.11
363.301	100.01
363.512	63.15
363.723	50.86
363.935	73.39
364.146	77.48
364.357	30.38
364.568	104.11
364.779	48.81
364.99	116.39
365.201	-16.73
365.412	95.91
365.623	54.95
365.834	106.15
366.045	116.39
366.256	175.78
366.467	120.49
366.678	77.48
366.889	50.86
367.1	104.11
367.311	108.2
367.522	71.34
367.733	106.15
367.944	69.29
368.155	143.02
368.366	124.58
368.577	161.45
368.788	48.81
368.999	89.77
369.209	93.87
369.42	179.88
369.631	104.11
369.842	38.57
370.053	54.95
370.264	196.26
370.474	24.23
370.685	120.49
370.896	124.58
371.107	149.16
371.317	128.68
371.528	57
371.739	102.06
371.95	97.96
372.16	112.3
372.371	9.9
372.582	67.24
372.792	120.49
373.003	91.82
373.214	118.44
373.424	157.35
373.635	138.92
373.846	112.3
374.056	128.68
374.267	87.72
374.477	79.53
374.688	77.48
374.898	75.43
375.109	83.63
375.319	161.45
375.53	147.11
375.74	106.15
375.951	22.19
376.161	16.04
376.372	13.99
376.582	18.09
376.793	48.81
377.003	40.62
377.214	97.96
377.424	108.2
377.635	77.48
377.845	122.54
378.055	108.2
378.266	34.47
378.476	106.15
378.686	114.34
378.897	24.23
379.107	100.01
379.317	13.99
379.528	34.47
379.738	126.63
379.948	67.24
380.158	106.15
380.369	95.91
380.579	130.73
380.789	120.49
380.999	116.39
381.21	97.96
381.42	77.48
381.63	65.19
381.84	108.2
382.05	157.35
382.261	77.48
382.471	97.96
382.681	34.47
382.891	120.49
383.101	147.11
383.311	83.63
383.521	97.96
383.731	108.2
383.941	145.06
384.151	177.83
384.361	69.29
384.571	81.58
384.781	114.34
384.991	104.11
385.201	118.44
385.411	136.87
385.621	134.82
385.831	77.48
386.041	18.09
386.251	102.06
386.461	48.81
386.671	116.39
386.881	165.54
387.091	106.15
387.301	108.2
387.511	104.11
387.72	118.44
387.93	89.77
388.14	3.75
388.35	130.73
388.56	120.49
388.769	186.02
388.979	110.25
389.189	108.2
389.399	81.58
389.609	42.67
389.818	126.63
390.028	157.35
390.238	118.44
390.447	136.87
390.657	97.96
390.867	61.1
391.076	13.99
391.286	91.82
391.496	-0.34
391.705	102.06
391.915	79.53
392.125	106.15
392.334	116.39
392.544	161.45
392.753	89.77
392.963	122.54
393.172	75.43
393.382	118.44
393.591	165.54
393.801	159.4
394.01	204.46
394.22	171.69
394.429	59.05
394.639	118.44
394.848	192.17
395.058	130.73
395.267	54.95
395.477	106.15
395.686	100.01
395.895	167.59
396.105	188.07
396.314	54.95
396.524	138.92
396.733	167.59
396.942	192.17
397.152	120.49
397.361	179.88
397.57	145.06
397.78	145.06
397.989	157.35
398.198	222.89
398.407	155.3
398.617	114.34
398.826	102.06
399.035	192.17
399.244	149.16
399.453	106.15
399.663	136.87
399.872	200.36
400.081	132.78
400.29	169.64
400.499	145.06
400.708	149.16
400.917	108.2
401.127	159.4
401.336	173.74
401.545	159.4
401.754	175.78
401.963	210.6
402.172	171.69
402.381	145.06
402.59	171.69
402.799	153.26
403.008	183.98
403.217	214.7
403.426	190.12
403.635	161.45
403.844	229.03
404.053	218.79
404.262	210.6
404.471	210.6
404.68	247.46
404.888	190.12
405.097	206.5
405.306	239.27
405.515	198.31
405.724	231.08
405.933	276.13
406.142	224.94
406.35	280.23
406.559	358.05
406.768	321.19
406.977	249.51
407.185	298.66
407.394	333.48
407.603	321.19
407.812	364.2
408.02	362.15
408.229	286.37
408.438	337.57
408.646	345.77
408.855	390.82
409.064	302.76
409.272	304.81
409.481	460.45
409.69	386.72
409.898	347.81
410.107	419.49
410.315	351.91
410.524	411.3
410.733	431.78
410.941	460.45
411.15	560.8
411.358	513.7
411.567	491.17
411.775	560.8
411.984	540.32
412.192	589.47
412.401	609.95
412.609	628.39
412.818	689.82
413.026	648.86
413.234	763.55
413.443	712.35
413.651	745.12
413.86	724.64
414.068	736.93
414.276	804.51
414.485	745.12
414.693	804.51
414.901	829.09
415.11	851.61
415.318	880.29
415.526	908.96
415.734	1001.12
415.943	1009.31
416.151	1089.18
416.359	972.44
416.567	1119.9
416.776	1070.75
416.984	1334.93
417.192	1324.69
417.4	1246.87
417.608	1296.02
417.817	1408.66
418.025	1371.8
418.233	1533.59
418.441	1414.81
418.649	1511.06
418.857	1611.41
419.065	1631.89
419.273	1611.41
419.481	1711.76
419.689	1826.45
419.897	1865.36
420.105	1908.37
420.313	1978
420.521	2078.35
420.729	2080.39
420.937	2223.75
421.145	2139.79
421.353	2344.58
421.561	2434.69
421.769	2543.24
421.977	2668.16
422.185	2623.11
422.393	2729.6
422.601	2834.05
422.809	2885.25
423.017	2875.01
423.224	2971.26
423.432	3169.91
423.64	3112.57
423.848	3384.95
424.056	3438.2
424.263	3526.26
424.471	3618.42
424.679	3626.61
424.887	3774.07
425.094	4081.26
425.302	3974.77
425.51	4138.6
425.718	4376.17
425.925	4230.76
426.133	4636.26
426.341	4757.09
426.548	4996.7
426.756	4884.06
426.964	5017.18
427.171	5389.91
427.379	5525.08
427.586	5463.64
427.794	5600.85
428.001	6032.97
428.209	6159.95
428.417	6141.52
428.624	6501.96
428.832	6567.49
429.039	6489.67
429.247	6542.92
429.454	6944.32
429.662	7665.21
429.869	7104.06
430.076	7616.05
430.284	7411.26
430.491	7740.98
430.699	8091.18
430.906	8134.19
431.114	8201.77
431.321	8693.29
431.528	8648.23
431.736	9258.53
431.943	9606.68
432.15	9580.06
432.358	9578.01
432.565	10010.13
432.772	9987.6
432.979	10597.9
433.187	10874.37
433.394	10542.6
433.601	11548.15
433.808	11613.69
434.016	11513.34
434.223	12191.22
434.43	12748.26
434.637	12428.78
434.844	13034.98
435.052	13524.44
435.259	13313.5
435.466	13514.2
435.673	13567.45
435.88	14534.09
436.087	14882.25
436.294	14960.07
436.501	14435.79
436.708	15166.92
436.915	15459.77
437.122	16088.5
437.329	16016.82
437.537	16647.6
437.743	16694.7
437.95	16655.79
438.157	17515.94
438.364	18017.69
438.571	18290.07
438.778	18171.29
438.985	19817.85
439.192	19164.55
439.399	19543.42
439.606	19432.83
439.813	20301.17
440.02	21656.93
440.227	21374.31
440.433	21233
440.64	21701.98
440.847	21661.02
441.054	22205.78
441.261	23682.37
441.467	23465.28
441.674	23919.93
441.881	24419.64
442.088	24481.08
442.294	23958.85
442.501	25070.89
442.708	25345.32
442.914	26524.95
443.121	27567.37
443.328	26817.81
443.534	28560.63
443.741	27710.72
443.948	27456.78
444.154	29422.83
444.361	29093.1
444.568	29443.31
444.774	29385.96
444.981	29979.87
445.187	30790.87
445.394	31876.29
445.6	31485.13
445.807	34485.4
446.013	32783.54
446.22	33770.66
446.426	35042.45
446.633	35009.68
446.839	35968.13
447.046	34696.35
447.252	36598.91
447.459	36484.22
447.665	36766.84
447.871	38079.59
448.078	39496.78
448.284	37999.72
448.491	38792.28
448.697	40238.15
448.903	41245.75
449.11	40676.41
449.316	40465.47
449.522	40420.42
449.728	41724.97
449.935	42433.57
450.141	42492.96
450.347	43422.74
450.553	41741.36
450.76	42478.63
450.966	43482.13
451.172	43641.87
451.378	44028.94
451.584	43371.54
451.791	44401.67
451.997	44231.69
452.203	45054.97
452.409	44477.44
452.615	44794.88
452.821	42671.14
453.027	42193.96
453.233	44628.99
453.44	42683.42
453.646	42939.42
453.852	43545.62
454.058	43914.25
454.264	42304.55
454.47	43688.98
454.676	42437.67
454.882	44047.37
455.088	40260.68
455.294	40907.83
455.5	41233.46
455.705	41749.55
455.911	40295.49
456.117	39165.01
456.323	38550.62
456.529	36566.14
456.735	38036.58
456.941	37051.51
457.147	36519.04
457.352	35505.29
457.558	35064.98
457.764	35116.18
457.97	34405.53
458.176	33914.02
458.381	33881.25
458.587	31970.5
458.793	31888.58
458.999	30278.88
459.204	32713.91
459.41	31605.96
459.616	30112.99
459.821	29842.66
460.027	29588.71
460.233	29062.38
460.438	27643.14
460.644	28022.02
460.85	26443.03
461.055	26320.15
461.261	26295.58
461.466	23975.23
461.672	23377.22
461.878	25021.74
462.083	23512.39
462.289	23311.69
462.494	22519.12
462.7	22175.06
462.905	21423.46
463.111	21788
463.316	22199.64
463.522	21775.71
463.727	21517.67
463.932	21677.41
464.138	21380.45
464.343	21630.3
464.549	20792.69
464.754	21734.75
464.959	21499.23
465.165	21474.66
465.37	20243.83
465.575	20004.22
465.781	20714.86
465.986	20956.52
466.191	20178.29
466.397	19805.56
466.602	18812.3
466.807	19686.78
467.012	19467.65
467.218	19420.55
467.423	19461.51
467.628	19602.82
467.833	19979.64
468.038	19180.93
468.244	18937.23
468.449	19934.59
468.654	18654.61
468.859	18722.19
469.064	18920.84
469.269	18062.74
469.474	18109.85
469.679	18441.62
469.885	17986.97
470.09	17995.16
470.295	17976.73
470.5	17556.89
470.705	17503.65
470.91	17335.71
471.115	16838.06
471.32	17237.41
471.525	17362.34
471.73	16868.78
471.935	16973.22
472.139	16100.79
472.344	16307.63
472.549	16278.96
472.754	16207.28
472.959	15672.76
473.164	15556.03
473.369	15730.11
473.574	15791.55
473.778	15443.39
473.983	15408.58
474.188	15418.82
474.393	14540.24
474.598	14675.4
474.802	14730.7
475.007	14593.48
475.212	14896.58
475.417	14067.16
475.621	14106.07
475.826	14398.93
476.031	13723.1
476.235	13710.81
476.44	13753.82
476.645	13589.98
476.849	13571.55
477.054	13415.9
477.259	13333.98
477.463	13172.19
477.668	12940.77
477.872	13182.43
478.077	12756.46
478.282	12625.39
478.486	12633.58
478.691	12555.76
478.895	12334.57
479.1	12398.06
479.304	12330.48
479.509	11904.5
479.713	12191.22
479.918	11963.89
480.122	11924.98
480.326	12047.86
480.531	12043.76
480.735	11898.36
480.94	11546.11
481.144	12215.79
481.348	11488.76
481.553	11630.07
481.757	11492.86
481.961	11578.87
482.166	11603.45
482.37	11810.29
482.574	11388.41
482.778	11445.76
482.983	12015.09
483.187	11333.12
483.391	11664.89
483.595	11490.81
483.8	11380.22
484.004	11476.48
484.208	11523.58
484.412	11503.1
484.616	11793.91
484.821	11623.93
485.025	11449.85
485.229	11625.98
485.433	11222.53
485.637	11183.62
485.841	11621.88
486.045	11378.17
486.249	11415.04
486.453	11486.72
486.657	11587.07
486.861	11652.6
487.065	11054.59
487.269	11386.36
487.473	11390.46
487.677	11513.34
487.881	11714.04
488.085	11410.94
488.289	11615.74
488.493	11638.27
488.697	11646.46
488.901	11787.77
489.105	11503.1
489.309	11855.35
489.512	11994.61
489.716	11566.59
489.92	11724.28
490.124	11576.83
490.328	11886.07
490.531	11920.88
490.735	11976.18
490.939	11957.75
491.143	11621.88
491.346	12045.81
491.55	12279.28
491.754	12121.59
491.958	12135.92
492.161	11998.71
492.365	12244.46
492.569	12211.7
492.772	12006.9
492.976	12379.63
493.18	12221.94
493.383	12633.58
493.587	12543.47
493.79	12535.28
493.994	12580.33
494.197	12719.59
494.401	13039.08
494.605	12750.31
494.808	13020.64
495.012	13202.91
495.215	13411.81
495.419	13346.27
495.622	13428.19
495.825	13475.29
496.029	13436.38
496.232	14013.91
496.436	13686.23
496.639	13936.09
496.843	14015.96
497.046	14317.01
497.249	14452.17
497.453	14589.39
497.656	14740.94
497.859	14886.34
498.063	14781.9
498.266	15140.29
498.469	15109.57
498.673	15271.36
498.876	15500.73
499.079	15646.14
499.282	15617.47
499.485	15971.77
499.689	16051.64
499.892	16215.48
500.095	16299.44
500.298	16876.97
500.501	16537.01
500.705	17008.04
500.908	17221.03
501.111	17221.03
501.314	17560.99
501.517	17759.64
501.72	17929.63
501.923	17773.98
502.126	18261.4
502.329	18595.21
502.532	18617.74
502.735	18642.32
502.938	19193.22
503.141	19117.45
503.344	19621.25
503.547	19434.88
503.75	19787.13
503.953	20071.8
504.156	20340.08
504.359	20456.82
504.562	20698.48
504.765	20852.08
504.968	21187.94
505.17	21579.11
505.373	21458.28
505.576	22017.37
505.779	22125.91
505.982	22121.82
506.185	22570.32
506.387	22760.78
506.59	22719.82
506.793	23307.59
506.996	23246.15
507.198	24053.05
507.401	23833.92
507.604	23991.61
507.807	24624.43
508.009	24597.81
508.212	24825.14
508.415	25158.95
508.617	25468.2
508.82	25406.76
509.022	25775.39
509.225	26225.95
509.428	26316.06
509.63	26684.69
509.833	26719.51
510.035	27141.39
510.238	27219.21
510.44	27505.93
510.643	27684.1
510.845	28105.98
511.048	27852.03
511.25	28601.59
511.453	28433.66
511.655	29705.45
511.858	29132.01
512.06	29965.54
512.262	30031.07
512.465	30010.59
512.667	30375.13
512.87	30737.62
513.072	30301.4
513.274	31585.48
513.477	31886.53
513.679	31743.17
513.881	32220.35
514.084	32339.13
514.286	32773.3
514.488	32863.41
514.69	33852.58
514.893	33744.04
515.095	33852.58
515.297	34335.9
515.499	34509.98
515.701	34567.32
515.904	34862.23
516.106	35460.24
516.308	35423.37
516.51	35714.19
516.712	35890.31
516.914	36584.57
517.116	37182.58
517.318	37381.23
517.52	37370.99
517.722	37551.21
517.925	37827.69
518.127	38284.39
518.329	38308.96
518.531	38392.93
518.733	39261.27
518.935	39552.08
519.136	39484.5
519.338	39871.56
519.54	40043.59
519.742	40453.19
519.944	40746.04
520.146	41401.39
520.348	41530.42
520.55	41499.7
520.752	41772.08
520.954	42779.68
521.155	42521.63
521.357	43174.94
521.559	42826.78
521.761	43906.06
521.963	43269.14
522.164	44305.41
522.366	44373
522.568	44416
522.77	44612.61
522.971	45247.48
523.173	44880.89
523.375	45575.16
523.576	45495.28
523.778	45904.88
523.98	46201.83
524.181	46156.78
524.383	46527.46
524.584	47250.39
524.786	46775.26
524.988	47072.22
525.189	47616.98
525.391	47926.22
525.592	48131.02
525.794	48108.49
525.995	48286.67
526.197	48253.9
526.398	48274.38
526.6	49038.27
526.801	48913.34
527.003	49005.5
527.204	49028.03
527.406	49521.59
527.607	49646.52
527.808	50115.5
528.01	48989.12
528.211	49726.39
528.412	50967.46
528.614	50312.11
528.815	50518.95
529.016	51137.44
529.218	49941.42
529.419	51073.95
529.62	51084.19
529.822	50682.79
530.023	50809.76
530.224	50946.98
530.425	50926.5
530.626	51381.15
530.828	51049.38
531.029	51913.62
531.23	51096.48
531.431	51651.48
531.632	51645.33
531.833	51874.71
532.035	51409.82
532.236	51884.95
532.437	51985.3
532.638	51688.34
532.839	51796.88
533.04	52374.41
533.241	51495.83
533.442	52489.1
533.643	52149.13
533.844	51973.01
534.045	52288.4
534.246	52210.57
534.447	52448.14
534.648	51934.1
534.849	52394.89
535.05	51977.11
535.251	52202.38
535.451	52081.55
535.652	52530.06
535.853	52251.53
536.054	52302.73
536.255	52620.17
536.456	51811.22
536.657	53042.05
536.857	52495.24
537.058	52046.74
537.259	52765.57
537.46	52761.48
537.66	52243.34
537.861	52302.73
538.062	52220.81
538.263	52054.93
538.463	52056.98
538.664	52071.31
538.865	52331.4
539.065	53130.11
539.266	51977.11
539.466	52898.69
539.667	51794.84
539.868	53037.95
540.068	52706.18
540.269	52575.11
540.469	52589.45
540.67	52210.57
540.87	52489.1
541.071	52116.37
541.271	52669.32
541.472	52296.59
541.672	52102.03
541.873	52106.13
542.073	51372.95
542.274	52861.83
542.474	52439.95
542.675	51579.8
542.875	52636.55
543.075	52409.23
543.276	51551.13
543.476	52738.95
543.676	52011.92
543.877	52374.41
544.077	52403.08
544.277	52382.6
544.478	52149.13
544.678	52337.55
544.878	52276.11
545.078	52452.23
545.279	51960.72
545.479	52247.44
545.679	52550.54
545.879	52362.12
546.079	52603.78
546.28	52067.22
546.48	52099.98
546.68	52261.77
546.88	51936.15
547.08	52165.52
547.28	52040.59
547.48	51811.22
547.68	52507.53
547.88	52020.11
548.081	52579.21
548.281	52036.5
548.481	51719.06
548.681	52614.02
548.881	52163.47
549.081	52267.92
549.28	51901.33
549.48	52153.23
549.68	51489.69
549.88	52697.99
550.08	52063.12
550.28	52263.82
550.48	51811.22
550.68	52489.1
550.88	51915.67
551.08	51874.71
551.279	52186
551.479	51479.45
551.679	51755.92
551.879	52282.25
552.079	52018.06
552.278	51612.57
552.478	51823.51
552.678	52235.15
552.878	51870.61
553.077	52147.09
553.277	51565.46
553.477	52337.55
553.676	51442.59
553.876	51964.82
554.076	50938.79
554.275	51659.67
554.475	51119.01
554.674	51755.92
554.874	51516.31
555.074	51559.32
555.273	51540.89
555.473	51719.06
555.672	51303.32
555.872	51307.42
556.071	51461.02
556.271	51923.86
556.47	51133.34
556.67	50809.76
556.869	51155.87
557.068	51301.28
557.268	50920.35
557.467	51137.44
557.667	51383.19
557.866	50846.63
558.065	51227.55
558.265	50873.25
558.464	50473.9
558.663	51213.21
558.863	50357.16
559.062	51301.28
559.261	50344.87
559.461	50752.42
559.66	50019.25
559.859	50486.18
560.058	50453.42
560.258	50451.37
560.457	50254.76
560.656	50688.93
560.855	50283.44
561.054	50176.94
561.253	50072.49
561.453	50359.21
561.652	50314.15
561.851	50209.71
562.05	49597.37
562.249	49175.48
562.448	50391.98
562.647	49834.93
562.846	49576.89
563.045	49785.78
563.244	49032.13
563.443	49777.59
563.642	49095.61
563.841	49243.07
564.04	48573.38
564.239	49707.96
564.438	48606.15
564.637	49214.4
564.836	48964.54
565.035	48436.17
565.234	48868.29
565.432	49032.13
565.631	48688.07
565.83	48845.76
566.029	48513.99
566.228	48122.83
566.427	48204.75
566.625	47885.26
566.824	47700.95
567.023	48126.92
567.222	47328.22
567.42	48094.16
567.619	47737.81
567.818	47487.96
568.016	47344.6
568.215	48106.44
568.414	47055.84
568.612	47754.19
568.811	46603.24
569.01	47440.85
569.208	46808.03
569.407	47115.23
569.605	46398.44
569.804	47606.74
570.002	46652.39
570.201	47117.28
570.4	46328.81
570.598	46259.18
570.797	46156.78
570.995	46529.51
571.193	45689.84
571.392	46388.2
571.59	45951.98
571.789	46011.37
571.987	45960.17
572.186	45931.5
572.384	44948.48
572.582	45421.56
572.781	45663.22
572.979	45046.78
573.177	45405.17
573.376	45439.99
573.574	45061.12
573.772	45306.87
573.971	45294.58
574.169	44876.8
574.367	44407.81
574.565	44643.33
574.763	44712.96
574.962	43965.45
575.16	43846.67
575.358	44534.79
575.556	43850.77
575.754	44162.06
575.952	43564.05
576.151	43799.57
576.349	43301.91
576.547	43166.74
576.745	43678.74
576.943	43639.82
577.141	43422.74
577.339	43432.98
577.537	43023.39
577.735	43197.46
577.933	42777.63
578.131	43043.87
578.329	42718.24
578.527	42527.78
578.725	42781.73
578.923	42880.03
579.121	42685.47
579.319	42591.26
579.516	42492.96
579.714	42009.64
579.912	42175.53
580.11	42085.42
580.308	42122.28
580.506	41729.07
580.704	41309.24
580.901	41946.15
581.099	42021.93
581.297	41233.46
581.495	41313.33
581.692	41376.82
581.89	41004.09
582.088	41495.6
582.285	41016.38
582.483	41229.37
582.681	40533.06
582.878	40160.33
583.076	40496.19
583.274	40746.04
583.471	39965.77
583.669	40223.81
583.866	39992.39
584.064	40340.55
584.262	39318.61
584.459	40096.84
584.657	39595.09
584.854	39834.7
585.052	39353.43
585.249	39230.55
585.447	39431.25
585.644	39187.54
585.841	39244.88
586.039	39515.22
586.236	38761.56
586.434	38763.61
586.631	38810.71
586.828	39027.8
587.026	38452.32
587.223	38521.95
587.42	38055.01
587.618	38149.22
587.815	38093.93
588.012	37921.9
588.21	37821.55
588.407	38390.88
588.604	37467.25
588.801	37569.65
588.999	37647.47
589.196	37037.17
589.393	37213.3
589.59	37160.05
589.787	37098.61
589.984	37182.58
590.182	36453.5
590.379	37108.85
590.576	36473.98
590.773	36478.08
590.97	36543.61
591.167	36473.98
591.364	36254.85
591.561	36246.66
591.758	35662.99
591.955	35953.8
592.152	36310.14
592.349	35871.88
592.546	36080.77
592.743	36013.19
592.94	34960.53
593.137	34987.16
593.334	35603.6
593.531	34884.76
593.727	35433.61
593.924	35073.17
594.121	34858.13
594.318	35054.74
594.515	34167.97
594.712	34667.67
594.908	34385.05
595.105	34860.18
595.302	34208.93
595.499	34147.49
595.696	34057.38
595.892	33987.75
596.089	33989.8
596.286	34041
596.482	33791.14
596.679	33604.78
596.876	33768.62
597.072	33371.31
597.269	33551.53
597.466	32679.1
597.662	32992.44
597.859	33311.92
598.055	32877.75
598.252	32847.03
598.448	32863.41
598.645	32521.4
598.841	32519.35
599.038	32703.67
599.234	32738.49
599.431	31909.06
599.627	32271.55
599.824	32261.31
600.02	31941.83
600.217	31874.24
600.413	31837.38
600.609	31634.63
600.806	31591.62
601.002	31827.14
601.198	31452.36
601.395	31325.39
601.591	31280.33
601.787	31349.96
601.984	30895.32
602.18	31562.95
602.376	30639.32
602.572	30751.96
602.769	30768.34
602.965	30295.26
603.161	30397.66
603.357	30289.12
603.553	30168.29
603.75	30250.21
603.946	29797.6
604.142	30395.61
604.338	29760.74
604.534	29545.7
604.73	29664.49
604.926	29603.05
605.122	29705.45
605.318	29275.37
605.514	29250.8
605.71	29449.45
605.906	29304.04
606.102	29041.9
606.298	29175.02
606.494	28941.55
606.69	28923.12
606.886	28636.41
607.082	28542.2
607.278	28536.06
607.474	28202.24
607.67	28708.08
607.866	28259.58
608.062	28560.63
608.257	28179.71
608.453	28312.83
608.649	28714.23
608.845	28216.57
609.041	28120.32
609.236	28122.37
609.432	28060.93
609.628	27798.79
609.824	27761.92
610.019	27825.41
610.215	27899.14
610.411	27835.65
610.606	27741.44
610.802	27559.17
610.998	27391.24
611.193	27505.93
611.389	27254.03
611.584	27301.13
611.78	27254.03
611.976	27432.2
612.171	27094.29
612.367	26881.3
612.562	26832.15
612.758	26631.44
612.953	26711.32
613.149	27022.61
613.344	26770.71
613.539	27114.76
613.735	26699.03
613.93	26875.15
614.126	26250.52
614.321	26696.98
614.517	26768.66
614.712	26402.07
614.907	26594.58
615.103	26514.71
615.298	26088.73
615.493	26479.89
615.688	25474.34
615.884	26451.22
616.079	25726.24
616.274	26060.06
616.47	25703.71
616.665	26084.64
616.86	25441.57
617.055	25615.65
617.25	25662.76
617.445	25802.02
617.641	25359.66
617.836	25498.92
618.031	25187.63
618.226	25707.81
618.421	25150.76
618.616	25310.5
618.811	24995.12
619.006	25314.6
619.201	24563
619.396	25115.95
619.591	24440.12
619.786	24548.66
619.981	24333.62
620.176	24538.42
620.371	24145.21
620.566	24315.19
620.761	24032.57
620.956	24134.97
621.151	23952.7
621.346	23856.45
621.541	23313.73
621.735	23684.42
621.93	23248.2
622.125	23539.01
622.32	23174.47
622.515	23231.82
622.709	22902.09
622.904	23102.79
623.099	22740.3
623.294	22803.79
623.488	22521.17
623.683	22631.76
623.878	22123.87
624.072	22461.78
624.267	22148.44
624.462	22072.67
624.656	21792.09
624.851	22015.32
625.046	21421.41
625.24	21458.28
625.435	21183.85
625.629	21435.75
625.824	21206.38
626.018	21005.67
626.213	20784.49
626.407	21013.87
626.602	20780.4
626.796	20874.6
626.991	20890.99
627.185	20417.91
627.38	20309.36
627.574	20217.21
627.768	20032.89
627.963	19889.53
628.157	19795.32
628.352	20008.31
628.546	19434.88
628.74	19793.28
628.935	19293.57
629.129	19146.12
629.323	19187.08
629.517	19258.76
629.712	19037.58
629.906	19099.02
630.1	18769.29
630.294	18677.13
630.489	18482.58
630.683	18718.09
630.877	18230.68
631.071	17845.66
631.265	18361.75
631.459	18236.82
631.653	17857.95
631.848	18001.3
632.042	17821.08
632.236	17753.5
632.43	17501.6
632.624	17874.33
632.818	17536.42
633.012	17055.14
633.206	17397.15
633.4	17276.32
633.594	16987.56
633.788	17098.15
633.982	16999.85
634.176	17049
634.369	16901.54
634.563	16530.86
634.757	16491.95
634.951	16506.29
635.145	16682.41
635.339	16426.42
635.533	16242.1
635.726	16319.92
635.92	15949.24
636.114	16276.91
636.308	16143.8
636.501	16059.83
636.695	15793.59
636.889	16068.02
637.083	15541.69
637.276	15586.75
637.47	15754.68
637.664	15371.71
637.857	15574.46
638.051	15220.16
638.244	15125.96
638.438	15140.29
638.632	15101.38
638.825	14792.14
639.019	14802.38
639.212	14796.23
639.406	14495.18
639.599	14714.31
639.793	14454.22
639.986	14403.02
640.18	14376.4
640.373	14382.54
640.567	14036.44
640.76	14220.75
640.954	14163.41
641.147	13991.38
641.34	13823.45
641.534	13794.78
641.727	14144.98
641.92	13747.67
642.114	13549.02
642.307	13696.47
642.5	13434.33
642.694	13186.53
642.887	13483.48
643.08	13438.43
643.273	13186.53
643.467	13065.7
643.66	13024.74
643.853	12883.43
644.046	12856.81
644.239	12920.29
644.432	12899.81
644.626	12883.43
644.819	12602.86
645.012	12588.52
645.205	12660.2
645.398	12385.77
645.591	12539.37
645.784	12555.76
645.977	12146.16
646.17	12273.14
646.363	12353.01
646.556	12066.29
646.749	12160.5
646.942	12242.42
647.135	11867.64
647.328	11867.64
647.521	11697.66
647.714	11836.92
647.907	11849.21
648.099	11544.06
648.292	11480.57
648.485	11476.48
648.678	11279.87
648.871	11320.83
649.064	11234.82
649.256	11318.78
649.449	11306.49
649.642	11324.93
649.835	10987.01
650.027	10995.2
650.22	11032.07
650.413	10829.32
650.605	10839.56
650.798	10855.94
650.991	10522.12
651.183	10667.53
651.376	10583.56
651.568	10483.21
651.761	10653.19
651.954	10528.27
652.146	10466.83
652.339	10466.83
652.531	10227.21
652.724	10139.15
652.916	9928.21
653.109	10094.1
653.301	9926.16
653.494	10151.44
653.686	9727.51
653.879	10122.77
654.071	9834
654.263	9881.11
654.456	9774.61
654.648	9874.96
654.84	9608.73
655.033	9664.02
655.225	9809.43
655.417	9637.4
655.61	9532.95
655.802	9451.03
655.994	9352.73
656.186	9426.46
656.379	9360.92
656.571	9201.18
656.763	9106.98
656.955	9113.12
657.148	9199.13
657.34	9121.31
657.532	8967.71
657.724	9029.15
657.916	8816.16
658.108	8904.23
658.3	8799.78
658.492	8867.36
658.684	8689.19
658.876	8668.71
659.068	8468.01
659.26	8504.87
659.452	8689.19
659.644	8640.04
659.836	8394.28
660.028	8441.39
660.22	8326.7
660.412	8212.01
660.604	8095.28
660.796	8177.2
660.988	8345.13
661.18	8242.73
661.372	7886.39
661.563	8191.53
661.755	8166.96
661.947	8023.6
662.139	8027.7
662.331	7988.78
662.522	7859.76
662.714	8021.55
662.906	7775.8
663.097	7919.15
663.289	7691.83
663.481	7634.49
663.673	7638.58
663.864	7521.85
664.056	7538.23
664.247	7534.14
664.439	7538.23
664.631	7536.18
664.822	7321.15
665.014	7497.27
665.205	7321.15
665.397	7269.95
665.588	7147.07
665.78	7253.56
665.971	7276.09
666.163	7317.05
666.354	7222.84
666.546	7093.82
666.737	7192.12
666.929	7163.45
667.12	7099.97
667.311	6897.22
667.503	6991.42
667.694	6964.8
667.885	6757.96
668.077	6929.98
668.268	6884.93
668.459	7034.43
668.651	6698.56
668.842	6907.46
669.033	6751.81
669.224	6676.04
669.416	6800.96
669.607	6626.89
669.798	6667.84
669.989	6600.26
670.18	6413.9
670.371	6446.66
670.563	6602.31
670.754	6538.82
670.945	6514.25
671.136	6364.75
671.327	6501.96
671.518	6559.3
671.709	6481.48
671.9	6278.73
672.091	6286.92
672.282	6356.55
672.473	6098.51
672.664	6342.22
672.855	6262.35
673.046	6227.53
673.237	6250.06
673.428	6207.05
673.619	6108.75
673.809	6137.42
674	6153.8
674.191	6080.08
674.382	6067.79
674.573	6166.09
674.764	6053.45
674.954	6164.04
675.145	5932.62
675.336	6002.26
675.527	5932.62
675.717	5953.1
675.908	5725.78
676.099	5822.03
676.289	5932.62
676.48	6008.4
676.671	5744.21
676.861	5807.7
677.052	5699.16
677.243	5705.3
677.433	5850.71
677.624	5836.37
677.814	5584.47
678.005	5811.79
678.195	5799.51
678.386	5760.59
678.576	5607
678.767	5580.37
678.957	5600.85
679.148	5432.92
679.338	5561.94
679.529	5586.52
679.719	5637.72
679.909	5613.14
680.1	5486.17
680.29	5551.7
680.481	5641.81
680.671	5408.34
680.861	5600.85
681.052	5506.65
681.242	5506.65
681.432	5359.19
681.622	5430.87
681.813	5330.52
682.003	5471.83
682.193	5351
682.383	5303.9
682.573	5523.03
682.764	5168.73
682.954	5269.08
683.144	5381.72
683.334	5371.48
683.524	5189.21
683.714	5234.27
683.904	5178.97
684.094	5082.72
684.284	5170.78
684.474	5269.08
684.664	5244.51
684.854	5256.79
685.044	5281.37
685.234	5207.64
685.424	5092.96
685.614	5047.9
685.804	5052
685.994	5113.44
686.184	5035.61
686.374	4988.51
686.564	4931.17
686.753	5097.05
686.943	4929.12
687.133	4916.83
687.323	4990.56
687.513	4709.99
687.702	5008.99
687.892	4873.82
688.082	4728.42
688.272	4879.97
688.461	4820.58
688.651	4734.56
688.841	4601.44
689.03	4822.63
689.22	4669.03
689.41	4716.13
689.599	4705.89
689.789	4574.82
689.979	4638.31
690.168	4564.58
690.358	4548.2
690.547	4572.77
690.737	4595.3
690.926	4529.77
691.116	4453.99
691.305	4466.28
691.495	4466.28
691.684	4507.24
691.874	4367.98
692.063	4507.24
692.252	4511.33
692.442	4443.75
692.631	4316.78
692.82	4286.06
693.01	4302.44
693.199	4290.15
693.388	4249.19
693.578	4451.94
693.767	4331.11
693.956	4060.78
694.146	4202.09
694.335	4236.91
694.524	4189.8
694.713	4232.81
694.902	3931.76
695.092	4161.13
695.281	4087.4
695.47	4193.9
695.659	4095.6
695.848	4040.3
696.037	4150.89
696.226	4075.12
696.415	4034.16
696.604	4132.46
696.793	3927.66
696.982	4062.83
697.171	4007.53
697.36	4001.39
697.549	3896.94
697.738	3917.42
697.927	3923.57
698.116	3956.33
698.305	4052.59
698.494	3860.08
698.683	3944.05
698.872	4025.97
699.061	3933.81
699.25	3907.18
699.438	3788.4
699.627	3860.08
699.816	3847.79
700.005	3712.63
700.193	3896.94
700.382	3917.42
700.571	3864.18
700.76	3698.29
700.948	3860.08
701.137	3747.44
701.326	3815.02
701.514	3788.4
701.703	3720.82
701.892	3829.36
702.08	3827.31
702.269	3774.07
702.457	3540.6
702.646	3694.19
702.834	3587.7
703.023	3692.15
703.212	3741.3
703.4	3696.24
703.589	3690.1
703.777	3733.11
703.965	3747.44
704.154	3704.43
704.342	3651.19
704.531	3726.96
704.719	3563.12
704.907	3591.8
705.096	3645.04
705.284	3679.86
705.472	3686
705.661	3708.53
705.849	3530.36
706.037	3696.24
706.226	3702.39
706.414	3673.71
706.602	3604.08
706.79	3671.67
706.979	3540.6
707.167	3612.28
707.355	3645.04
707.543	3718.77
707.731	3708.53
707.919	3593.84
708.107	3509.88
708.296	3501.69
708.484	3536.5
708.672	3561.08
708.86	3546.74
709.048	3530.36
709.236	3544.69
709.424	3575.41
709.612	3540.6
709.8	3571.32
709.988	3479.16
710.176	3655.28
710.364	3501.69
710.551	3569.27
710.739	3460.73
710.927	3602.04
711.115	3538.55
711.303	3483.25
711.491	3645.04
711.679	3495.54
711.866	3542.64
712.054	3444.34
712.242	3481.21
712.43	3565.17
712.617	3499.64
712.805	3493.49
712.993	3536.5
713.181	3491.45
713.368	3612.28
713.556	3464.82
713.744	3417.72
713.931	3569.27
714.119	3436.15
714.306	3526.26
714.494	3413.62
714.682	3507.83
714.869	3538.55
715.057	3483.25
715.244	3356.28
715.432	3530.36
715.619	3475.06
715.807	3423.86
715.994	3522.16
716.182	3407.48
716.369	3612.28
716.556	3311.22
716.744	3458.68
716.931	3475.06
717.119	3524.21
717.306	3430.01
717.493	3389.05
717.681	3536.5
717.868	3446.39
718.055	3481.21
718.242	3503.73
718.43	3464.82
718.617	3384.95
718.804	3503.73
718.991	3399.29
719.179	3421.81
719.366	3466.87
719.553	3356.28
719.74	3440.25
719.927	3425.91
720.114	3366.52
720.301	3397.24
720.488	3294.84
720.676	3374.71
720.863	3409.53
721.05	3339.9
721.237	3352.18
721.424	3389.05
721.611	3356.28
721.798	3294.84
721.985	3325.56
722.172	3217.02
722.358	3274.36
722.545	3212.92
722.732	3202.68
722.919	3339.9
723.106	3421.81
723.293	3270.26
723.48	3407.48
723.667	3262.07
723.853	3276.41
724.04	3313.27
724.227	3352.18
724.414	3180.15
724.6	3382.9
724.787	3327.61
724.974	3274.36
725.161	3241.59
725.347	3212.92
725.534	3362.42
725.72	3217.02
725.907	3305.08
726.094	3407.48
726.28	3223.16
726.467	3141.24
726.653	3165.82
726.84	3032.7
727.027	3368.57
727.213	3243.64
727.4	3251.83
727.586	3186.3
727.773	3171.96
727.959	3307.13
728.145	3161.72
728.332	3075.71
728.518	3268.22
728.705	3290.74
728.891	3321.46
729.077	3243.64
729.264	3112.57
729.45	3243.64
729.636	3305.08
729.823	3221.11
730.009	3167.87
730.195	3096.19
730.382	3036.8
730.568	3049.08
730.754	3106.43
730.94	3065.47
731.126	3165.82
731.313	3188.35
731.499	3126.91
731.685	3014.27
731.871	3114.62
732.057	3079.8
732.243	3165.82
732.429	2961.02
732.615	3012.22
732.801	3067.52
732.987	3028.6
733.173	2983.55
733.359	3036.8
733.545	2989.69
733.731	3137.15
733.917	3026.56
734.103	3032.7
734.289	2973.31
734.475	2979.45
734.661	3049.08
734.847	2842.24
735.033	3202.68
735.219	3053.18
735.404	2905.73
735.59	2981.5
735.776	2879.1
735.962	2918.01
736.148	2893.44
736.333	2975.36
736.519	2901.63
736.705	2887.29
736.89	2872.96
737.076	2995.84
737.262	2877.05
737.447	2963.07
737.633	2883.2
737.819	2897.53
738.004	2823.81
738.19	2991.74
738.375	2768.51
738.561	2899.58
738.747	2868.86
738.932	2748.03
739.118	2733.7
739.303	2795.14
739.489	2805.38
739.674	2768.51
739.859	2776.7
740.045	2807.42
740.23	2709.12
740.416	2688.64
740.601	2895.49
740.786	2844.29
740.972	2715.27
741.157	2717.31
741.342	2692.74
741.528	2713.22
741.713	2723.46
741.898	2561.67
742.084	2684.55
742.269	2666.11
742.454	2653.83
742.639	2743.94
742.824	2596.48
743.01	2535.04
743.195	2657.92
743.38	2614.91
743.565	2578.05
743.75	2764.42
743.935	2557.57
744.12	2647.68
744.305	2459.27
744.49	2637.44
744.675	2438.79
744.86	2489.99
745.045	2627.2
745.23	2342.53
745.415	2444.93
745.6	2590.34
745.785	2422.41
745.97	2508.42
746.155	2375.3
746.34	2498.18
746.525	2381.45
746.71	2403.97
746.895	2285.19
747.079	2242.18
747.264	2406.02
747.449	2311.82
747.634	2207.37
747.819	2326.15
748.003	2285.19
748.188	2287.24
748.373	2152.07
748.557	2375.3
748.742	2244.23
748.927	2145.93
749.111	2100.87
749.296	2154.12
749.481	2029.2
749.665	2172.55
749.85	2096.78
750.034	2084.49
750.219	2014.86
750.404	2131.59
750.588	2068.11
750.773	2033.29
750.957	1975.95
751.141	1996.43
751.326	1934.99
751.51	1918.61
751.695	2066.06
751.879	1932.94
752.064	2010.76
752.248	1902.22
752.432	1904.27
752.617	1928.85
752.801	1834.64
752.985	1881.74
753.17	1836.69
753.354	1861.26
753.538	1840.78
753.722	1744.53
753.907	1783.44
754.091	1834.64
754.275	1783.44
754.459	1730.19
754.643	1756.82
754.828	1900.17
755.012	1734.29
755.196	1777.3
755.38	1797.78
755.564	1597.07
755.748	1681.04
755.932	1695.38
756.116	1652.37
756.3	1623.7
756.484	1529.49
756.668	1670.8
756.852	1492.63
757.036	1627.79
757.22	1496.72
757.404	1629.84
757.588	1566.35
757.772	1597.07
757.956	1490.58
758.14	1588.88
758.323	1494.68
758.507	1635.99
758.691	1498.77
758.875	1500.82
759.059	1531.54
759.242	1494.68
759.426	1519.25
759.61	1435.28
759.794	1414.81
759.977	1468.05
760.161	1486.48
760.345	1414.81
760.528	1502.87
760.712	1449.62
760.895	1511.06
761.079	1486.48
761.263	1435.28
761.446	1478.29
761.63	1400.47
761.813	1437.33
761.997	1277.59
762.18	1296.02
762.364	1330.84
762.547	1312.41
762.731	1318.55
762.914	1367.7
763.098	1336.98
763.281	1334.93
763.464	1250.97
763.648	1199.77
763.831	1289.88
764.015	1265.3
764.198	1334.93
764.381	1324.69
764.564	1283.74
764.748	1351.32
764.931	1242.78
765.114	1226.39
765.297	1244.82
765.481	1238.68
765.664	1169.05
765.847	1138.33
766.03	1283.74
766.213	1076.89
766.397	1117.85
766.58	1195.67
766.763	1253.02
766.946	1132.19
767.129	1140.38
767.312	1203.86
767.495	1216.15
767.678	1138.33
767.861	1156.76
768.044	1154.71
768.227	1191.58
768.41	1072.79
768.593	1195.67
768.776	1189.53
768.959	1173.14
769.142	1130.14
769.324	1103.51
769.507	1037.98
769.69	1080.99
769.873	1058.46
770.056	1253.02
770.239	1148.57
770.421	999.07
770.604	1027.74
770.787	1107.61
770.97	999.07
771.152	1107.61
771.335	1132.19
771.518	1058.46
771.7	1027.74
771.883	1056.41
772.066	1013.4
772.248	1031.83
772.431	951.96
772.613	1080.99
772.796	997.02
772.978	1101.47
773.161	939.68
773.343	1011.36
773.526	1007.26
773.708	954.01
773.891	960.16
774.073	997.02
774.256	1017.5
774.438	1029.79
774.621	896.67
774.803	992.92
774.985	941.72
775.168	1029.79
775.35	917.15
775.532	925.34
775.715	851.61
775.897	859.81
776.079	810.65
776.261	816.8
776.444	771.74
776.626	806.56
776.808	812.7
776.99	792.22
777.173	933.53
777.355	917.15
777.537	773.79
777.719	861.85
777.901	788.13
778.083	802.46
778.265	814.75
778.447	822.94
778.629	812.7
778.811	804.51
778.993	878.24
779.175	777.89
779.357	777.89
779.539	749.22
779.721	779.93
779.903	796.32
780.085	714.4
780.267	679.58
780.449	738.98
780.631	673.44
780.812	747.17
780.994	706.21
781.176	792.22
781.358	714.4
781.54	612
781.721	716.45
781.903	698.02
782.085	669.34
782.267	741.02
782.448	669.34
782.63	599.71
782.812	652.96
782.993	652.96
783.175	599.71
783.357	648.86
783.538	648.86
783.72	612
783.901	657.06
784.083	663.2
784.264	585.38
784.446	523.94
784.627	556.71
784.809	571.04
784.99	546.47
785.172	652.96
785.353	669.34
785.535	581.28
785.716	566.95
785.897	546.47
786.079	599.71
786.26	536.23
786.441	489.12
786.623	591.52
786.804	577.19
786.985	517.79
787.167	579.23
787.348	566.95
787.529	513.7
787.71	607.91
787.891	566.95
788.073	532.13
788.254	429.73
788.435	568.99
788.616	468.64
788.797	528.03
788.978	480.93
789.159	589.47
789.34	509.6
789.522	450.21
789.703	493.22
789.884	538.27
790.065	497.32
790.246	501.41
790.427	437.92
790.607	493.22
790.788	396.96
790.969	497.32
791.15	530.08
791.331	450.21
791.512	487.08
791.693	415.4
791.874	458.4
792.054	444.07
792.235	521.89
792.416	394.92
792.597	401.06
792.778	460.45
792.958	501.41
793.139	425.64
793.32	403.11
793.5	380.58
793.681	534.18
793.862	388.77
794.042	425.64
794.223	392.87
794.404	335.53
794.584	507.55
794.765	333.48
794.945	425.64
795.126	427.68
795.306	360.1
795.487	409.25
795.667	401.06
795.848	364.2
796.028	364.2
796.209	411.3
796.389	399.01
796.57	358.05
796.75	374.44
796.93	351.91
797.111	439.97
797.291	425.64
797.471	325.29
797.652	345.77
797.832	333.48
798.012	431.78
798.192	347.81
798.373	313
798.553	308.9
798.733	360.1
798.913	321.19
799.093	368.29
799.274	384.68
799.454	323.24
799.634	337.57
799.814	313
799.994	298.66
800.174	399.01
800.354	327.33
800.534	315.05
800.714	317.09
800.894	337.57
801.074	296.61
801.254	310.95
801.434	351.91
801.614	337.57
801.794	333.48
801.974	765.6
802.154	313
802.334	374.44
802.514	233.13
802.693	202.41
802.873	345.77
803.053	257.7
803.233	278.18
803.413	372.39
803.592	280.23
803.772	233.13
803.952	261.8
804.131	243.37
804.311	265.89
804.491	341.67
804.67	255.65
804.85	222.89
805.03	290.47
805.209	335.53
805.389	272.04
805.568	292.52
805.748	323.24
805.928	245.41
806.107	267.94
806.287	251.56
806.466	247.46
806.646	208.55
806.825	198.31
807.004	280.23
807.184	319.14
807.363	214.7
807.543	272.04
807.722	214.7
807.901	237.22
808.081	208.55
808.26	181.93
808.439	235.18
808.619	239.27
808.798	231.08
808.977	306.85
809.156	247.46
809.336	296.61
809.515	269.99
809.694	265.89
809.873	202.41
810.052	226.98
810.231	274.09
810.411	214.7
810.59	265.89
810.769	212.65
810.948	296.61
811.127	282.28
811.306	196.26
811.485	202.41
811.664	208.55
811.843	222.89
812.022	280.23
812.201	243.37
812.38	183.98
812.559	143.02
812.737	188.07
812.916	222.89
813.095	210.6
813.274	163.5
813.453	216.74
813.632	249.51
813.811	214.7
813.989	214.7
814.168	269.99
814.347	161.45
814.526	165.54
814.704	218.79
814.883	233.13
815.062	161.45
815.24	212.65
815.419	181.93
815.598	341.67
815.776	173.74
815.955	163.5
816.133	126.63
816.312	204.46
816.49	173.74
816.669	284.33
816.847	251.56
817.026	167.59
817.204	173.74
817.383	222.89
817.561	140.97
817.74	216.74
817.918	196.26
818.097	224.94
818.275	71.34
818.453	188.07
818.632	190.12
818.81	229.03
818.988	132.78
819.167	171.69
819.345	206.5
819.523	177.83
819.701	171.69
819.879	179.88
820.058	218.79
820.236	235.18
820.414	132.78
820.592	112.3
820.77	196.26
820.948	198.31
821.127	153.26
821.305	145.06
821.483	175.78
821.661	173.74
821.839	181.93
822.017	179.88
822.195	165.54
822.373	206.5
822.551	110.25
822.729	204.46
822.907	210.6
823.085	112.3
823.262	210.6
823.44	159.4
823.618	159.4
823.796	149.16
823.974	177.83
824.152	177.83
824.329	130.73
824.507	112.3
824.685	196.26
824.863	186.02
825.04	118.44
825.218	169.64
825.396	143.02
825.574	134.82
825.751	169.64
825.929	183.98
826.107	161.45
826.284	108.2
826.462	130.73
826.639	120.49
826.817	163.5
826.994	102.06
827.172	130.73
827.349	202.41
827.527	186.02
827.704	220.84
827.882	138.92
828.059	175.78
828.237	67.24
828.414	165.54
828.591	108.2
828.769	140.97
828.946	79.53
829.124	163.5
829.301	147.11
829.478	114.34
829.655	175.78
829.833	188.07
830.01	50.86
830.187	120.49
830.364	116.39
830.542	177.83
830.719	202.41
830.896	116.39
831.073	157.35
831.25	159.4
831.427	175.78
831.604	167.59
831.782	118.44
831.959	130.73
832.136	106.15
832.313	112.3
832.49	71.34
832.667	65.19
832.844	171.69
833.021	87.72
833.198	132.78
833.374	83.63
833.551	63.15
833.728	124.58
833.905	100.01
834.082	36.52
834.259	163.5
834.436	136.87
834.612	79.53
834.789	124.58
834.966	181.93
835.143	104.11
835.319	46.76
835.496	89.77
835.673	145.06
835.85	179.88
836.026	130.73
836.203	149.16
836.38	81.58
836.556	177.83
836.733	91.82
836.909	165.54
837.086	114.34
837.262	77.48
837.439	100.01
837.616	143.02
837.792	136.87
837.968	153.26
838.145	132.78
838.321	157.35
838.498	114.34
838.674	106.15
838.851	126.63
839.027	110.25
839.203	59.05
839.38	81.58
839.556	63.15
839.732	50.86
839.909	120.49
840.085	42.67
840.261	83.63
840.437	128.68
840.614	69.29
840.79	118.44
840.966	75.43
841.142	108.2
841.318	67.24
841.494	130.73
841.671	93.87
841.847	89.77
842.023	100.01
842.199	153.26
842.375	85.67
842.551	87.72
842.727	42.67
842.903	112.3
843.079	104.11
843.255	114.34
843.431	63.15
843.607	112.3
843.783	-2.39
843.959	81.58
844.134	102.06
844.31	85.67
844.486	48.81
844.662	77.48
844.838	130.73
845.013	106.15
845.189	87.72
845.365	77.48
845.541	91.82
845.716	28.33
845.892	95.91
846.068	91.82
846.244	75.43
846.419	134.82
846.595	100.01
846.77	65.19
846.946	130.73
847.122	50.86
847.297	63.15
847.473	54.95
847.648	18.09
847.824	147.11
847.999	50.86
848.175	73.39
848.35	42.67
848.526	93.87
848.701	87.72
848.876	110.25
849.052	83.63
849.227	7.85
849.403	57
849.578	110.25
849.753	89.77
849.929	120.49
850.104	24.23
850.279	81.58
850.454	34.47
850.63	159.4
850.805	95.91
850.98	91.82
851.155	79.53
851.33	100.01
851.505	42.67
851.681	140.97
851.856	91.82
852.031	147.11
852.206	44.71
852.381	54.95
852.556	71.34
852.731	108.2
852.906	91.82
853.081	48.81
853.256	57
853.431	32.43
853.606	63.15
853.781	-0.34
853.956	-6.49
854.131	100.01
854.305	34.47
854.48	16.04
854.655	48.81
854.83	128.68
855.005	83.63
855.18	46.76
855.354	75.43
855.529	128.68
855.704	5.8
855.879	77.48
856.053	83.63
856.228	87.72
856.403	11.95
856.577	108.2
856.752	140.97
856.926	57
857.101	79.53
857.276	42.67
857.45	32.43
857.625	89.77
857.799	46.76
857.974	42.67
858.148	-6.49
858.323	7.85
858.497	73.39
858.672	77.48
858.846	50.86
859.02	155.3
859.195	50.86
859.369	-2.39
859.543	46.76
859.718	-0.34
859.892	87.72
860.066	75.43
860.241	30.38
860.415	128.68
860.589	18.09
860.763	65.19
860.938	40.62
861.112	110.25
861.286	-39.25
861.46	81.58
861.634	42.67
861.808	118.44
861.982	69.29
862.157	7.85
862.331	57
862.505	16.04
862.679	100.01
862.853	9.9
863.027	65.19
863.201	91.82
863.375	-6.49
863.549	75.43
863.722	104.11
863.896	122.54
864.07	104.11
864.244	83.63
864.418	42.67
864.592	-2.39
864.766	69.29
864.939	32.43
865.113	79.53
865.287	81.58
865.461	13.99
865.634	61.1
865.808	44.71
865.982	32.43
866.156	61.1
866.329	-43.35
866.503	67.24
866.676	32.43
866.85	69.29
867.024	71.34
867.197	65.19
867.371	147.11
867.544	46.76
867.718	59.05
867.891	40.62
868.065	89.77
868.238	132.78
868.412	34.47
868.585	-0.34
868.759	18.09
868.932	54.95
869.105	59.05
869.279	9.9
869.452	-10.58
869.625	1.71
869.799	38.57
869.972	59.05
870.145	30.38
870.319	77.48
870.492	28.33
870.665	38.57
870.838	-18.77
871.011	-22.87
871.185	44.71
871.358	91.82
871.531	87.72
871.704	16.04
871.877	85.67
872.05	-18.77
872.223	50.86
872.396	57
872.569	67.24
872.742	5.8
872.915	-35.16
873.088	50.86
873.261	-20.82
873.434	52.91
873.607	73.39
873.78	63.15
873.953	59.05
874.126	-12.63
874.299	24.23
874.471	-29.01
874.644	93.87
874.817	112.3
874.99	22.19
875.163	26.28
875.335	93.87
875.508	32.43
875.681	61.1
875.853	24.23
876.026	-20.82
876.199	71.34
876.371	89.77
876.544	30.38
876.717	42.67
876.889	81.58
877.062	57
877.234	48.81
877.407	13.99
877.579	65.19
877.752	5.8
877.924	57
878.097	126.63
878.269	32.43
878.442	85.67
878.614	44.71
878.786	100.01
878.959	79.53
879.131	-14.68
879.303	-51.54
879.476	-2.39
879.648	63.15
879.82	-2.39
879.993	38.57
880.165	-72.02
880.337	18.09
880.509	77.48
880.681	-33.11
880.854	79.53
881.026	40.62
881.198	32.43
881.37	112.3
881.542	79.53
881.714	18.09
881.886	-10.58
882.058	112.3
882.23	7.85
882.402	30.38
882.574	-24.92
882.746	73.39
882.918	46.76
883.09	1.71
883.262	48.81
883.434	-31.06
883.606	1.71
883.778	28.33
883.95	77.48
884.122	-6.49
884.293	87.72
884.465	-26.96
884.637	50.86
884.809	59.05
884.98	44.71
885.152	-10.58
885.324	77.48
885.496	67.24
885.667	46.76
885.839	9.9
886.011	93.87
886.182	22.19
886.354	30.38
886.525	42.67
886.697	108.2
886.869	42.67
887.04	34.47
887.212	124.58
887.383	54.95
887.555	32.43
887.726	59.05
887.897	-55.64
888.069	102.06
888.24	75.43
888.412	-6.49
888.583	-63.83
888.754	59.05
888.926	40.62
889.097	89.77
889.268	-33.11
889.44	122.54
889.611	16.04
889.782	1.71
889.953	-10.58
890.125	97.96
890.296	26.28
890.467	46.76
890.638	5.8
890.809	57
890.98	67.24
891.151	22.19
891.323	77.48
891.494	50.86
891.665	24.23
891.836	81.58
892.007	75.43
892.178	36.52
892.349	26.28
892.52	-6.49
892.691	-4.44
892.862	44.71
893.032	-8.53
893.203	59.05
893.374	71.34
893.545	71.34
893.716	-39.25
893.887	24.23
894.057	95.91
894.228	9.9
894.399	1.71
894.57	145.06
894.74	97.96
894.911	7.85
895.082	26.28
895.253	-39.25
895.423	9.9
895.594	59.05
895.764	93.87
895.935	38.57
896.106	26.28
896.276	-10.58
896.447	-2.39
896.617	67.24
896.788	-63.83
896.958	-80.21
897.129	13.99
897.299	50.86
897.47	91.82
897.64	112.3
897.81	22.19
897.981	-20.82
898.151	30.38
898.322	69.29
898.492	-47.44
898.662	-12.63
898.832	67.24
899.003	-10.58
899.173	50.86
899.343	26.28
899.513	46.76
