Data from USB4F104151__32__10-21-53-216.txt Node

Date: Wed Mar 12 10:21:53 EDT 2025
User: louis
Spectrometer: USB4F10415
Trigger mode: 4
Integration Time (sec): 3.000000E-2
Scans to average: 1
Electric dark correction enabled: true
Nonlinearity correction enabled: false
Boxcar width: 0
XAxis mode: Wavelengths
Number of Pixels in Spectrum: 3648
>>>>>Begin Spectral Data<<<<<
178.204	-116.73
178.424	-116.73
178.644	-116.73
178.864	-124.93
179.084	-129.02
179.304	14.34
179.524	-38.91
179.744	12.29
179.964	38.91
180.184	14.34
180.404	-28.67
180.624	-2.05
180.844	-16.38
181.064	30.72
181.283	28.67
181.503	-34.82
181.723	-18.43
181.943	-96.25
182.163	92.16
182.383	47.1
182.602	18.43
182.822	-10.24
183.042	40.96
183.262	-12.29
183.482	53.25
183.701	51.2
183.921	57.34
184.141	88.06
184.361	-32.77
184.58	12.29
184.8	8.19
185.02	90.11
185.239	126.97
185.459	63.49
185.679	-12.29
185.898	0
186.118	118.78
186.338	16.38
186.557	26.62
186.777	73.73
186.997	-16.38
187.216	53.25
187.436	81.92
187.655	6.14
187.875	-2.05
188.095	38.91
188.314	139.26
188.534	77.82
188.753	6.14
188.973	30.72
189.192	81.92
189.412	34.82
189.631	71.68
189.851	10.24
190.07	36.86
190.29	43.01
190.509	55.3
190.729	-6.14
190.948	36.86
191.168	210.94
191.387	47.1
191.607	22.53
191.826	102.4
192.045	-10.24
192.265	61.44
192.484	67.58
192.704	34.82
192.923	22.53
193.142	14.34
193.362	-59.39
193.581	71.68
193.8	30.72
194.02	55.3
194.239	67.58
194.458	83.97
194.678	-38.91
194.897	34.82
195.116	-34.82
195.335	73.73
195.555	38.91
195.774	34.82
195.993	129.02
196.212	36.86
196.432	26.62
196.651	53.25
196.87	77.82
197.089	24.58
197.308	55.3
197.528	122.88
197.747	-4.1
197.966	18.43
198.185	57.34
198.404	53.25
198.623	108.54
198.842	30.72
199.062	38.91
199.281	71.68
199.5	2.05
199.719	102.4
199.938	38.91
200.157	53.25
200.376	12.29
200.595	49.15
200.814	22.53
201.033	-53.25
201.252	-2.05
201.471	-8.19
201.69	79.87
201.909	4.1
202.128	51.2
202.347	90.11
202.566	14.34
202.785	40.96
203.004	22.53
203.223	59.39
203.442	8.19
203.661	2.05
203.879	22.53
204.098	57.34
204.317	4.1
204.536	69.63
204.755	73.73
204.974	57.34
205.193	71.68
205.411	83.97
205.63	-4.1
205.849	18.43
206.068	34.82
206.287	79.87
206.505	47.1
206.724	10.24
206.943	38.91
207.162	-38.91
207.381	30.72
207.599	40.96
207.818	61.44
208.037	-2.05
208.255	24.58
208.474	53.25
208.693	57.34
208.911	71.68
209.13	55.3
209.349	135.17
209.567	57.34
209.786	6.14
210.005	94.21
210.223	18.43
210.442	-6.14
210.661	61.44
210.879	4.1
211.098	20.48
211.316	53.25
211.535	22.53
211.753	14.34
211.972	73.73
212.191	53.25
212.409	18.43
212.628	40.96
212.846	-14.34
213.065	55.3
213.283	51.2
213.502	-2.05
213.72	22.53
213.938	63.49
214.157	0
214.375	16.38
214.594	45.06
214.812	26.62
215.031	-18.43
215.249	79.87
215.467	96.25
215.686	88.06
215.904	6.14
216.122	-53.25
216.341	71.68
216.559	2.05
216.778	112.64
216.996	8.19
217.214	43.01
217.432	6.14
217.651	53.25
217.869	18.43
218.087	0
218.306	86.01
218.524	67.58
218.742	18.43
218.96	45.06
219.179	75.77
219.397	6.14
219.615	63.49
219.833	45.06
220.051	26.62
220.27	114.69
220.488	69.63
220.706	63.49
220.924	45.06
221.142	-6.14
221.36	67.58
221.578	10.24
221.796	96.25
222.015	4.1
222.233	6.14
222.451	26.62
222.669	63.49
222.887	98.3
223.105	12.29
223.323	6.14
223.541	-77.82
223.759	75.77
223.977	16.38
224.195	98.3
224.413	51.2
224.631	86.01
224.849	20.48
225.067	133.12
225.285	-36.86
225.503	-12.29
225.721	30.72
225.939	43.01
226.157	18.43
226.375	77.82
226.592	28.67
226.81	57.34
227.028	16.38
227.246	90.11
227.464	16.38
227.682	43.01
227.9	65.53
228.117	18.43
228.335	83.97
228.553	63.49
228.771	83.97
228.989	47.1
229.206	71.68
229.424	126.97
229.642	81.92
229.86	43.01
230.077	63.49
230.295	45.06
230.513	67.58
230.731	22.53
230.948	51.2
231.166	126.97
231.384	57.34
231.601	79.87
231.819	102.4
232.037	-20.48
232.254	22.53
232.472	67.58
232.689	12.29
232.907	81.92
233.125	28.67
233.342	28.67
233.56	-49.15
233.777	47.1
233.995	79.87
234.213	83.97
234.43	20.48
234.648	8.19
234.865	51.2
235.083	28.67
235.3	55.3
235.518	63.49
235.735	45.06
235.953	116.73
236.17	24.58
236.388	22.53
236.605	75.77
236.822	55.3
237.04	63.49
237.257	100.35
237.475	10.24
237.692	6.14
237.909	14.34
238.127	53.25
238.344	28.67
238.562	18.43
238.779	22.53
238.996	14.34
239.214	30.72
239.431	86.01
239.648	-6.14
239.865	120.83
240.083	75.77
240.3	49.15
240.517	12.29
240.735	45.06
240.952	61.44
241.169	8.19
241.386	96.25
241.603	57.34
241.821	49.15
242.038	108.54
242.255	116.73
242.472	67.58
242.689	16.38
242.907	100.35
243.124	20.48
243.341	28.67
243.558	28.67
243.775	34.82
243.992	-18.43
244.209	51.2
244.426	79.87
244.643	71.68
244.86	94.21
245.078	34.82
245.295	110.59
245.512	102.4
245.729	34.82
245.946	98.3
246.163	53.25
246.38	-2.05
246.597	6.14
246.814	32.77
247.031	24.58
247.248	-8.19
247.464	75.77
247.681	32.77
247.898	126.97
248.115	141.31
248.332	26.62
248.549	167.93
248.766	28.67
248.983	94.21
249.2	-6.14
249.417	96.25
249.633	22.53
249.85	124.93
250.067	38.91
250.284	116.73
250.501	47.1
250.717	40.96
250.934	47.1
251.151	77.82
251.368	83.97
251.585	112.64
251.801	20.48
252.018	147.45
252.235	28.67
252.451	-22.53
252.668	-51.2
252.885	36.86
253.102	34.82
253.318	14.34
253.535	36.86
253.752	92.16
253.968	63.49
254.185	18.43
254.401	-16.38
254.618	36.86
254.835	86.01
255.051	40.96
255.268	43.01
255.484	30.72
255.701	24.58
255.917	18.43
256.134	16.38
256.351	-67.58
256.567	96.25
256.784	24.58
257	2.05
257.217	69.63
257.433	26.62
257.65	28.67
257.866	55.3
258.082	-43.01
258.299	-4.1
258.515	53.25
258.732	83.97
258.948	61.44
259.165	73.73
259.381	65.53
259.597	14.34
259.814	112.64
260.03	79.87
260.246	38.91
260.463	77.82
260.679	30.72
260.895	75.77
261.112	61.44
261.328	32.77
261.544	0
261.761	135.17
261.977	26.62
262.193	-22.53
262.409	-4.1
262.626	47.1
262.842	92.16
263.058	6.14
263.274	108.54
263.49	34.82
263.707	57.34
263.923	73.73
264.139	-67.58
264.355	20.48
264.571	0
264.787	34.82
265.004	94.21
265.22	38.91
265.436	14.34
265.652	34.82
265.868	34.82
266.084	83.97
266.3	38.91
266.516	47.1
266.732	55.3
266.948	96.25
267.164	51.2
267.38	61.44
267.596	90.11
267.812	32.77
268.028	90.11
268.244	49.15
268.46	18.43
268.676	16.38
268.892	65.53
269.108	6.14
269.324	51.2
269.54	-38.91
269.756	32.77
269.972	55.3
270.188	-14.34
270.403	73.73
270.619	30.72
270.835	8.19
271.051	43.01
271.267	-22.53
271.483	18.43
271.698	79.87
271.914	6.14
272.13	75.77
272.346	75.77
272.562	75.77
272.777	-4.1
272.993	22.53
273.209	14.34
273.425	65.53
273.64	43.01
273.856	4.1
274.072	26.62
274.287	36.86
274.503	32.77
274.719	40.96
274.934	34.82
275.15	79.87
275.366	77.82
275.581	55.3
275.797	108.54
276.012	-14.34
276.228	26.62
276.444	30.72
276.659	98.3
276.875	20.48
277.09	-55.3
277.306	88.06
277.521	110.59
277.737	-2.05
277.952	43.01
278.168	55.3
278.383	-20.48
278.599	22.53
278.814	34.82
279.03	77.82
279.245	32.77
279.461	55.3
279.676	49.15
279.892	73.73
280.107	0
280.322	38.91
280.538	67.58
280.753	-47.1
280.969	96.25
281.184	51.2
281.399	36.86
281.615	63.49
281.83	34.82
282.045	-47.1
282.26	36.86
282.476	26.62
282.691	67.58
282.906	16.38
283.122	49.15
283.337	-75.77
283.552	2.05
283.767	12.29
283.983	63.49
284.198	22.53
284.413	10.24
284.628	26.62
284.843	59.39
285.058	104.45
285.274	14.34
285.489	32.77
285.704	63.49
285.919	18.43
286.134	102.4
286.349	38.91
286.564	-18.43
286.779	8.19
286.995	4.1
287.21	16.38
287.425	135.17
287.64	-14.34
287.855	83.97
288.07	-6.14
288.285	67.58
288.5	88.06
288.715	49.15
288.93	2.05
289.145	-10.24
289.36	55.3
289.575	47.1
289.79	96.25
290.004	34.82
290.219	53.25
290.434	22.53
290.649	6.14
290.864	34.82
291.079	30.72
291.294	49.15
291.509	49.15
291.724	-75.77
291.938	-34.82
292.153	24.58
292.368	-34.82
292.583	53.25
292.798	36.86
293.012	-14.34
293.227	26.62
293.442	0
293.657	79.87
293.871	61.44
294.086	63.49
294.301	40.96
294.516	90.11
294.73	151.55
294.945	108.54
295.16	59.39
295.374	59.39
295.589	4.1
295.804	75.77
296.018	49.15
296.233	55.3
296.447	22.53
296.662	-10.24
296.877	18.43
297.091	14.34
297.306	116.73
297.52	36.86
297.735	100.35
297.949	12.29
298.164	63.49
298.378	30.72
298.593	24.58
298.807	26.62
299.022	71.68
299.236	96.25
299.451	6.14
299.665	59.39
299.88	18.43
300.094	6.14
300.309	96.25
300.523	-2.05
300.737	67.58
300.952	92.16
301.166	61.44
301.381	18.43
301.595	30.72
301.809	-30.72
302.024	45.06
302.238	22.53
302.452	81.92
302.667	55.3
302.881	116.73
303.095	67.58
303.309	12.29
303.524	40.96
303.738	63.49
303.952	43.01
304.166	88.06
304.381	16.38
304.595	47.1
304.809	2.05
305.023	61.44
305.237	92.16
305.452	75.77
305.666	30.72
305.88	65.53
306.094	133.12
306.308	112.64
306.522	94.21
306.736	28.67
306.95	22.53
307.164	-26.62
307.379	71.68
307.593	79.87
307.807	63.49
308.021	120.83
308.235	26.62
308.449	47.1
308.663	43.01
308.877	71.68
309.091	47.1
309.305	16.38
309.519	18.43
309.733	83.97
309.947	-4.1
310.161	26.62
310.374	47.1
310.588	47.1
310.802	22.53
311.016	79.87
311.23	28.67
311.444	67.58
311.658	75.77
311.872	49.15
312.085	4.1
312.299	149.5
312.513	47.1
312.727	94.21
312.941	30.72
313.154	-26.62
313.368	53.25
313.582	86.01
313.796	102.4
314.009	51.2
314.223	124.93
314.437	108.54
314.651	86.01
314.864	69.63
315.078	69.63
315.292	18.43
315.505	79.87
315.719	16.38
315.933	59.39
316.146	92.16
316.36	36.86
316.573	83.97
316.787	63.49
317.001	92.16
317.214	51.2
317.428	118.78
317.641	24.58
317.855	100.35
318.068	61.44
318.282	12.29
318.495	102.4
318.709	81.92
318.922	83.97
319.136	77.82
319.349	51.2
319.563	53.25
319.776	51.2
319.99	59.39
320.203	51.2
320.417	67.58
320.63	55.3
320.843	71.68
321.057	59.39
321.27	26.62
321.483	73.73
321.697	34.82
321.91	55.3
322.124	63.49
322.337	30.72
322.55	2.05
322.763	86.01
322.977	81.92
323.19	77.82
323.403	10.24
323.617	2.05
323.83	43.01
324.043	71.68
324.256	59.39
324.469	38.91
324.683	65.53
324.896	53.25
325.109	-10.24
325.322	-2.05
325.535	96.25
325.748	118.78
325.962	92.16
326.175	36.86
326.388	73.73
326.601	43.01
326.814	51.2
327.027	53.25
327.24	120.83
327.453	28.67
327.666	71.68
327.879	49.15
328.092	98.3
328.305	34.82
328.518	88.06
328.731	-20.48
328.944	34.82
329.157	-6.14
329.37	55.3
329.583	141.31
329.796	137.21
330.009	-28.67
330.222	-34.82
330.435	81.92
330.648	61.44
330.861	112.64
331.073	104.45
331.286	120.83
331.499	49.15
331.712	12.29
331.925	28.67
332.138	14.34
332.35	38.91
332.563	32.77
332.776	94.21
332.989	-22.53
333.202	120.83
333.414	161.79
333.627	-10.24
333.84	38.91
334.053	30.72
334.265	45.06
334.478	-8.19
334.691	53.25
334.903	28.67
335.116	77.82
335.329	38.91
335.541	16.38
335.754	-18.43
335.966	53.25
336.179	75.77
336.392	-12.29
336.604	47.1
336.817	133.12
337.029	36.86
337.242	49.15
337.454	-14.34
337.667	133.12
337.88	51.2
338.092	86.01
338.305	71.68
338.517	45.06
338.729	55.3
338.942	22.53
339.154	102.4
339.367	108.54
339.579	24.58
339.792	81.92
340.004	53.25
340.217	71.68
340.429	71.68
340.641	61.44
340.854	-14.34
341.066	36.86
341.278	75.77
341.491	112.64
341.703	63.49
341.915	75.77
342.128	61.44
342.34	88.06
342.552	47.1
342.764	-30.72
342.977	47.1
343.189	79.87
343.401	-4.1
343.613	43.01
343.826	96.25
344.038	30.72
344.25	45.06
344.462	79.87
344.674	96.25
344.886	63.49
345.099	55.3
345.311	55.3
345.523	-2.05
345.735	30.72
345.947	88.06
346.159	8.19
346.371	67.58
346.583	81.92
346.795	180.22
347.007	-36.86
347.219	45.06
347.431	71.68
347.643	71.68
347.855	100.35
348.067	49.15
348.279	4.1
348.491	26.62
348.703	81.92
348.915	47.1
349.127	32.77
349.339	75.77
349.551	30.72
349.763	137.21
349.975	38.91
350.187	55.3
350.399	71.68
350.61	81.92
350.822	96.25
351.034	63.49
351.246	57.34
351.458	92.16
351.669	98.3
351.881	77.82
352.093	47.1
352.305	45.06
352.517	55.3
352.728	114.69
352.94	71.68
353.152	63.49
353.363	53.25
353.575	65.53
353.787	59.39
353.999	124.93
354.21	110.59
354.422	110.59
354.633	59.39
354.845	36.86
355.057	4.1
355.268	69.63
355.48	139.26
355.692	38.91
355.903	75.77
356.115	55.3
356.326	2.05
356.538	53.25
356.749	75.77
356.961	135.17
357.172	71.68
357.384	67.58
357.595	124.93
357.807	88.06
358.018	14.34
358.23	-20.48
358.441	96.25
358.653	77.82
358.864	55.3
359.075	71.68
359.287	137.21
359.498	137.21
359.709	77.82
359.921	92.16
360.132	28.67
360.344	55.3
360.555	137.21
360.766	137.21
360.977	-6.14
361.189	67.58
361.4	129.02
361.611	112.64
361.823	102.4
362.034	114.69
362.245	34.82
362.456	43.01
362.667	10.24
362.879	32.77
363.09	57.34
363.301	69.63
363.512	30.72
363.723	57.34
363.935	55.3
364.146	14.34
364.357	79.87
364.568	51.2
364.779	0
364.99	131.07
365.201	2.05
365.412	116.73
365.623	14.34
365.834	4.1
366.045	51.2
366.256	116.73
366.467	38.91
366.678	22.53
366.889	6.14
367.1	65.53
367.311	47.1
367.522	55.3
367.733	45.06
367.944	61.44
368.155	55.3
368.366	88.06
368.577	96.25
368.788	120.83
368.999	10.24
369.209	96.25
369.42	153.6
369.631	114.69
369.842	34.82
370.053	4.1
370.264	104.45
370.474	-43.01
370.685	165.89
370.896	40.96
371.107	71.68
371.317	106.49
371.528	77.82
371.739	129.02
371.95	83.97
372.16	96.25
372.371	28.67
372.582	69.63
372.792	81.92
373.003	47.1
373.214	86.01
373.424	83.97
373.635	49.15
373.846	59.39
374.056	63.49
374.267	20.48
374.477	71.68
374.688	88.06
374.898	61.44
375.109	73.73
375.319	92.16
375.53	28.67
375.74	79.87
375.951	135.17
376.161	22.53
376.372	55.3
376.582	8.19
376.793	96.25
377.003	118.78
377.214	0
377.424	102.4
377.635	92.16
377.845	53.25
378.055	67.58
378.266	47.1
378.476	6.14
378.686	88.06
378.897	49.15
379.107	106.49
379.317	133.12
379.528	36.86
379.738	26.62
379.948	47.1
380.158	77.82
380.369	88.06
380.579	38.91
380.789	108.54
380.999	79.87
381.21	79.87
381.42	100.35
381.63	51.2
381.84	129.02
382.05	53.25
382.261	26.62
382.471	118.78
382.681	96.25
382.891	83.97
383.101	135.17
383.311	38.91
383.521	14.34
383.731	176.13
383.941	106.49
384.151	126.97
384.361	143.36
384.571	43.01
384.781	49.15
384.991	77.82
385.201	108.54
385.411	69.63
385.621	102.4
385.831	45.06
386.041	106.49
386.251	55.3
386.461	34.82
386.671	114.69
386.881	63.49
387.091	75.77
387.301	118.78
387.511	49.15
387.72	57.34
387.93	100.35
388.14	20.48
388.35	135.17
388.56	102.4
388.769	112.64
388.979	94.21
389.189	22.53
389.399	10.24
389.609	145.41
389.818	124.93
390.028	55.3
390.238	92.16
390.447	26.62
390.657	63.49
390.867	8.19
391.076	10.24
391.286	153.6
391.496	51.2
391.705	83.97
391.915	124.93
392.125	53.25
392.334	59.39
392.544	133.12
392.753	137.21
392.963	79.87
393.172	75.77
393.382	22.53
393.591	98.3
393.801	75.77
394.01	145.41
394.22	79.87
394.429	63.49
394.639	133.12
394.848	63.49
395.058	77.82
395.267	129.02
395.477	137.21
395.686	126.97
395.895	153.6
396.105	120.83
396.314	53.25
396.524	137.21
396.733	28.67
396.942	116.73
397.152	90.11
397.361	120.83
397.57	96.25
397.78	161.79
397.989	141.31
398.198	169.98
398.407	55.3
398.617	61.44
398.826	225.28
399.035	120.83
399.244	163.84
399.453	108.54
399.663	86.01
399.872	149.5
400.081	90.11
400.29	106.49
400.499	104.45
400.708	135.17
400.917	116.73
401.127	133.12
401.336	151.55
401.545	145.41
401.754	104.45
401.963	108.54
402.172	73.73
402.381	147.45
402.59	90.11
402.799	202.75
403.008	112.64
403.217	139.26
403.426	143.36
403.635	110.59
403.844	145.41
404.053	190.46
404.262	206.84
404.471	200.7
404.68	178.17
404.888	133.12
405.097	143.36
405.306	192.51
405.515	139.26
405.724	180.22
405.933	124.93
406.142	245.76
406.35	270.33
406.559	241.66
406.768	227.32
406.977	245.76
407.185	235.52
407.394	233.47
407.603	219.13
407.812	249.85
408.02	305.15
408.229	256
408.438	229.37
408.646	278.52
408.855	235.52
409.064	360.44
409.272	272.38
409.481	319.48
409.69	284.67
409.898	313.34
410.107	294.91
410.315	405.5
410.524	280.57
410.733	299
410.941	337.91
411.15	436.22
411.358	325.63
411.567	405.5
411.775	413.69
411.984	393.21
412.192	430.07
412.401	419.83
412.609	423.93
412.818	462.84
413.026	487.42
413.234	610.29
413.443	522.23
413.651	473.08
413.86	571.38
414.068	563.19
414.276	634.87
414.485	587.77
414.693	655.35
414.901	659.45
415.11	649.21
415.318	669.69
415.526	706.55
415.734	831.48
415.943	745.46
416.151	819.19
416.359	915.44
416.567	937.97
416.776	872.43
416.984	1030.13
417.192	1032.18
417.4	1007.6
417.608	1001.46
417.817	1136.62
418.025	1153.01
418.233	1226.73
418.441	1232.88
418.649	1230.83
418.857	1390.57
419.065	1376.23
419.273	1290.22
419.481	1378.28
419.689	1398.76
419.897	1476.59
420.105	1454.06
420.313	1562.6
420.521	1562.6
420.729	1753.06
420.937	1716.2
421.145	1722.34
421.353	1888.23
421.561	2023.39
421.769	2039.78
421.977	2113.5
422.185	2021.35
422.393	2131.94
422.601	2224.09
422.809	2359.26
423.017	2398.17
423.224	2445.27
423.432	2592.73
423.64	2492.38
423.848	2768.85
424.056	2658.26
424.263	2791.38
424.471	2725.85
424.679	3041.23
424.887	3164.11
425.094	3225.55
425.302	3166.16
425.51	3438.54
425.718	3327.95
425.925	3520.46
426.133	3436.49
426.341	3846.09
426.548	3798.98
426.756	3952.58
426.964	3981.25
427.171	4134.85
427.379	4345.79
427.586	4526.01
427.794	4618.17
428.001	4667.32
428.209	4896.69
428.417	4919.22
428.624	5146.55
428.832	5152.69
429.039	5310.38
429.247	5224.37
429.454	5603.24
429.662	6037.41
429.869	5466.03
430.076	6088.61
430.284	5953.45
430.491	6258.59
430.699	6467.49
430.906	6559.64
431.114	6582.17
431.321	6666.14
431.528	6956.95
431.736	7376.78
431.943	7784.33
432.15	7546.76
432.358	7581.58
432.565	8050.57
432.772	7929.74
432.979	8454.01
433.187	8505.21
433.394	8458.11
433.601	9154.42
433.808	9115.51
434.016	8986.49
434.223	9467.76
434.43	9846.63
434.637	9805.67
434.844	10266.47
435.052	10461.02
435.259	10680.16
435.466	10727.26
435.673	10643.29
435.88	11308.88
436.087	11841.36
436.294	11792.2
436.501	11544.4
436.708	11812.68
436.915	12238.66
437.122	12627.78
437.329	12508.99
437.537	13023.03
437.743	13242.17
437.95	13201.21
438.157	13973.29
438.364	14380.84
438.571	14034.73
438.778	14372.64
438.985	15877.9
439.192	14925.6
439.399	15656.72
439.606	15021.85
439.813	15951.63
440.02	17037.05
440.227	16533.25
440.433	16596.74
440.64	17147.64
440.847	16973.56
441.054	17325.82
441.261	18859.74
441.467	18396.9
441.674	18835.17
441.881	19246.81
442.088	19420.89
442.294	19019.49
442.501	19785.43
442.708	20287.18
442.914	20883.14
443.121	21911.22
443.328	21188.28
443.534	22587.05
443.741	22068.91
443.948	21767.86
444.154	23176.86
444.361	23111.33
444.568	23307.93
444.774	23164.57
444.981	23639.7
445.187	24172.18
445.394	25577.08
445.6	24940.16
445.807	27254.37
446.013	26150.51
446.22	26678.89
446.426	27270.75
446.633	27692.63
446.839	28716.62
447.046	27457.12
447.252	28825.16
447.459	28892.74
447.665	28913.22
447.871	30551.6
448.078	31356.45
448.284	29765.18
448.491	30801.45
448.697	32038.42
448.903	32540.18
449.11	32550.42
449.316	32003.61
449.522	32488.98
449.728	33111.56
449.935	33482.24
450.141	33433.09
450.347	34242.04
450.553	33080.84
450.76	33156.61
450.966	34555.38
451.172	33940.99
451.378	35010.03
451.584	34373.11
451.791	35098.09
451.997	34901.48
452.203	35540.45
452.409	35294.69
452.615	35415.52
452.821	33676.8
453.027	33578.5
453.233	35233.25
453.44	33881.6
453.646	34399.73
453.852	34674.16
454.058	34842.09
454.264	33684.99
454.47	34141.69
454.676	33629.69
454.882	34665.97
455.088	32013.85
455.294	32136.73
455.5	32501.26
455.705	32826.89
455.911	31780.38
456.117	30846.51
456.323	30432.82
456.529	28945.99
456.735	29898.3
456.941	29150.79
457.147	28747.34
457.352	27885.14
457.558	27731.54
457.764	27934.29
457.97	27106.91
458.176	26484.33
458.381	26582.63
458.587	25220.74
458.793	25263.74
458.999	23959.19
459.204	25486.97
459.41	24798.85
459.616	23334.56
459.821	23195.29
460.027	23164.57
460.233	22671.01
460.438	21659.32
460.644	21796.53
460.85	20592.33
461.055	20573.89
461.261	20518.6
461.466	18755.3
461.672	18577.12
461.878	19885.78
462.083	18433.77
462.289	18036.46
462.494	17964.78
462.7	17129.21
462.905	16654.08
463.111	17311.48
463.316	17458.93
463.522	17063.68
463.727	17221.37
463.932	16983.8
464.138	16789.25
464.343	16705.28
464.549	16328.45
464.754	16992
464.959	16789.25
465.165	16662.27
465.37	16111.37
465.575	15345.43
465.781	16129.8
465.986	16416.52
466.191	15746.83
466.397	15617.81
466.602	14690.08
466.807	15210.26
467.012	15161.11
467.218	15228.7
467.423	14911.26
467.628	14933.79
467.833	15566.61
468.038	15163.16
468.244	14884.64
468.449	15281.94
468.654	14780.19
468.859	14763.81
469.064	14460.71
469.269	14341.93
469.474	14112.55
469.679	14360.36
469.885	14010.15
470.09	14186.28
470.295	14282.53
470.5	13786.93
470.705	13717.29
470.91	13481.78
471.115	13580.08
471.32	13616.94
471.525	13485.87
471.73	13422.39
471.935	13285.17
472.139	12668.73
472.344	12695.36
472.549	12785.47
472.754	12558.14
472.959	12564.29
473.164	12142.41
473.369	12105.54
473.574	12169.03
473.778	12117.83
473.983	12085.06
474.188	12040.01
474.393	11247.44
474.598	11589.46
474.802	11657.04
475.007	11468.62
475.212	11331.41
475.417	11042.65
475.621	10960.73
475.826	11108.18
476.031	10692.44
476.235	10747.74
476.44	10870.62
476.645	10368.87
476.849	10540.9
477.054	10549.09
477.259	10426.21
477.463	10323.81
477.668	10184.55
477.872	10200.93
478.077	10065.77
478.282	9758.57
478.486	9889.64
478.691	9717.61
478.895	9658.22
479.1	9611.12
479.304	9504.62
479.509	9375.6
479.713	9545.58
479.918	9353.07
480.122	9152.37
480.326	9344.88
480.531	9363.31
480.735	9197.43
480.94	8961.91
481.144	9375.6
481.348	8925.05
481.553	9158.52
481.757	9037.69
481.961	9025.4
482.166	9273.2
482.37	9176.95
482.574	8697.72
482.778	8992.63
482.983	9238.39
483.187	8984.44
483.391	8986.49
483.595	9076.6
483.8	8904.57
484.004	8972.15
484.208	9043.83
484.412	9068.41
484.616	9095.03
484.821	9006.97
485.025	8714.11
485.229	8855.42
485.433	8789.88
485.637	9021.3
485.841	8802.17
486.045	8867.7
486.249	8933.24
486.453	8902.52
486.657	8925.05
486.861	8943.48
487.065	8615.8
487.269	8906.62
487.473	8959.86
487.677	8951.67
487.881	9127.8
488.085	8957.82
488.289	8980.34
488.493	8961.91
488.697	8935.29
488.901	9039.73
489.105	9058.17
489.309	9181.04
489.512	9009.01
489.716	8949.62
489.92	9043.83
490.124	8994.68
490.328	9082.74
490.531	9332.59
490.735	9174.9
490.939	9101.17
491.143	9152.37
491.346	9162.61
491.55	9561.97
491.754	9369.46
491.958	9367.41
492.161	9308.02
492.365	9389.94
492.569	9299.83
492.772	9234.29
492.976	9445.23
493.18	9705.32
493.383	9795.43
493.587	9953.13
493.79	9899.88
493.994	9801.58
494.197	9774.95
494.401	9959.27
494.605	9736.04
494.808	9955.18
495.012	10166.12
495.215	10252.13
495.419	10178.4
495.622	10325.86
495.825	10372.96
496.029	10577.76
496.232	10800.99
496.436	10637.15
496.639	10884.95
496.843	10659.68
497.046	11239.25
497.249	11040.6
497.453	11278.16
497.656	11519.82
497.859	11460.43
498.063	11521.87
498.266	11652.94
498.469	11720.53
498.673	11730.76
498.876	12060.49
499.079	12119.88
499.282	12109.64
499.485	12508.99
499.689	12339.01
499.892	12580.67
500.095	12623.68
500.298	13129.53
500.501	12717.89
500.705	13231.93
500.908	13322.04
501.111	13559.6
501.314	13311.8
501.517	13762.35
501.72	13725.49
501.923	13795.12
502.126	14335.78
502.329	14376.74
502.532	14346.02
502.735	14503.71
502.938	14819.1
503.141	14817.05
503.344	14935.84
503.547	15468.31
503.75	15398.68
503.953	15388.44
504.156	15865.61
504.359	16070.41
504.562	15968.01
504.765	16461.57
504.968	16551.68
505.17	16742.14
505.373	16944.89
505.576	17131.26
505.779	17114.87
505.982	17393.4
506.185	17749.75
506.387	17700.59
506.59	17753.84
506.793	18497.25
506.996	18243.31
507.198	18669.28
507.401	18429.67
507.604	18757.35
507.807	19291.87
508.009	19293.91
508.212	19306.2
508.415	19844.82
508.617	19850.96
508.82	20158.16
509.022	19889.87
509.225	20524.74
509.428	20555.46
509.63	20842.18
509.833	20862.66
510.035	21571.25
510.238	21296.83
510.44	21550.78
510.643	21714.61
510.845	22095.53
511.048	21886.64
511.25	22333.1
511.453	22519.46
511.655	23183.01
511.858	22972.07
512.06	23199.39
512.262	23461.53
512.465	23428.76
512.667	23942.8
512.87	24497.8
513.072	24188.56
513.274	24704.65
513.477	24657.54
513.679	25331.33
513.881	25435.77
514.084	25435.77
514.286	25656.95
514.488	25886.32
514.69	26394.22
514.893	26435.18
515.095	26619.5
515.297	27033.19
515.499	27221.6
515.701	27549.28
515.904	27565.66
516.106	28098.13
516.308	28249.68
516.51	29011.53
516.712	28483.15
516.914	29066.82
517.116	29824.57
517.318	29324.86
517.52	29390.4
517.722	29783.61
517.925	30135.86
518.127	30740.01
518.329	30832.17
518.531	30742.06
518.733	31125.03
518.935	31301.15
519.136	31546.91
519.338	32136.73
519.54	32032.28
519.742	32534.03
519.944	32767.5
520.146	33287.68
520.348	33283.59
520.55	33609.22
520.752	33744.38
520.954	34149.88
521.155	33836.54
521.357	34674.16
521.559	34809.32
521.761	35253.73
521.963	35245.54
522.164	35388.9
522.366	35448.29
522.568	36111.83
522.77	36273.62
522.971	36838.86
523.173	36699.6
523.375	37187.02
523.576	36881.87
523.778	37072.33
523.98	37705.15
524.181	37772.74
524.383	37881.28
524.584	38006.2
524.786	38735.28
524.988	38501.81
525.189	38962.61
525.391	38946.22
525.592	39314.86
525.794	39241.13
525.995	39400.87
526.197	39794.08
526.398	39779.75
526.6	39859.62
526.801	40148.38
527.003	40689.04
527.204	40353.18
527.406	41180.56
527.607	40945.04
527.808	40967.57
528.01	40267.16
528.211	40910.22
528.412	41815.43
528.614	41241.99
528.815	41377.16
529.016	42016.13
529.218	41764.23
529.419	41717.12
529.62	41862.53
529.822	41938.3
530.023	41960.83
530.224	42016.13
530.425	42229.12
530.626	41708.93
530.828	42028.41
531.029	43367.79
531.23	42564.98
531.431	42679.67
531.632	42866.03
531.833	43244.91
532.035	42777.97
532.236	43007.34
532.437	43162.99
532.638	43216.24
532.839	43396.46
533.04	43418.99
533.241	42777.97
533.442	43939.17
533.643	43507.05
533.844	43394.41
534.045	43296.11
534.246	43167.09
534.447	43591.01
534.648	43068.78
534.849	43408.75
535.05	43267.44
535.251	43580.78
535.451	43804
535.652	43695.46
535.853	43887.97
536.054	43822.44
536.255	43795.81
536.456	43498.86
536.657	44045.66
536.857	43425.13
537.058	43328.87
537.259	43652.45
537.46	44041.57
537.66	43648.36
537.861	43793.76
538.062	43869.54
538.263	43900.26
538.463	43793.76
538.664	43523.43
538.865	43922.79
539.065	44066.14
539.266	43451.75
539.466	43838.82
539.667	43662.69
539.868	44354.91
540.068	44100.96
540.269	43720.04
540.469	44016.99
540.67	43584.87
540.87	43674.98
541.071	43580.78
541.271	43642.21
541.472	43787.62
541.672	43324.78
541.873	43558.25
542.073	43167.09
542.274	44381.53
542.474	43574.63
542.675	43466.09
542.875	43961.7
543.075	43566.44
543.276	43148.65
543.476	43908.45
543.676	43132.27
543.877	44279.13
544.077	43847.01
544.277	43681.13
544.478	43539.82
544.678	43634.02
544.878	43246.96
545.078	43799.91
545.279	43281.77
545.479	43457.9
545.679	43564.39
545.879	44111.2
546.079	43765.09
546.28	43558.25
546.48	43357.55
546.68	43605.35
546.88	43849.06
547.08	43564.39
547.28	43384.17
547.48	43277.68
547.68	43642.21
547.88	43373.93
548.081	43711.85
548.281	43287.92
548.481	43312.49
548.681	43654.5
548.881	43373.93
549.081	43543.91
549.28	43126.13
549.48	43359.59
549.68	43337.07
549.88	44000.61
550.08	43353.45
550.28	43619.69
550.48	43482.47
550.68	43767.14
550.88	43761
551.08	43437.42
551.279	43619.69
551.479	42958.19
551.679	43273.58
551.879	43101.55
552.079	43437.42
552.278	42974.58
552.478	43236.72
552.678	43375.98
552.878	43414.89
553.077	43097.45
553.277	43228.52
553.477	43832.68
553.676	43185.52
553.876	43418.99
554.076	42765.68
554.275	42827.12
554.475	42745.2
554.674	43253.1
554.874	43414.89
555.074	43011.44
555.273	42970.48
555.473	43267.44
555.672	42601.85
555.872	42800.5
556.071	42732.92
556.271	43255.15
556.47	42448.25
556.67	42700.15
556.869	42386.81
557.068	42757.49
557.268	42014.08
557.467	42855.79
557.667	42704.24
557.866	42634.61
558.065	42415.48
558.265	42343.8
558.464	41758.08
558.663	42356.09
558.863	41827.71
559.062	42536.31
559.261	41475.46
559.461	42653.05
559.66	41784.71
559.859	41516.42
560.058	41604.49
560.258	41887.1
560.457	41606.53
560.656	41893.25
560.855	41581.96
561.054	41991.55
561.253	41297.29
561.453	41362.82
561.652	41846.15
561.851	41545.09
562.05	41299.34
562.249	41016.72
562.448	41590.15
562.647	41590.15
562.846	41338.25
563.045	41074.06
563.244	40895.89
563.443	41205.13
563.642	40426.9
563.841	40598.93
564.04	40258.97
564.239	40920.46
564.438	40082.84
564.637	40580.5
564.836	40054.17
565.035	40279.45
565.234	40168.86
565.432	40261.02
565.631	39843.23
565.83	39962.01
566.029	39650.72
566.228	39294.38
566.427	39718.31
566.625	39466.41
566.824	38827.44
567.023	39894.43
567.222	38694.32
567.42	39062.96
567.619	39443.88
567.818	38673.84
568.016	38610.35
568.215	39323.05
568.414	38835.63
568.612	39206.31
568.811	38753.71
569.01	38514.1
569.208	38272.44
569.407	39026.09
569.605	37856.7
569.804	38729.14
570.002	38100.41
570.201	37920.19
570.4	37903.81
570.598	38028.73
570.797	37379.53
570.995	37553.6
571.193	37436.87
571.392	37557.7
571.59	37363.14
571.789	37367.24
571.987	37320.13
572.186	37268.94
572.384	36910.54
572.582	37266.89
572.781	37033.42
572.979	36621.78
573.177	36765.14
573.376	36726.22
573.574	36519.38
573.772	36771.28
573.971	36120.02
574.169	36238.81
574.367	35927.52
574.565	36222.42
574.763	36077.02
574.962	36044.25
575.16	35673.57
575.358	36007.39
575.556	35491.3
575.754	35978.71
575.952	34883.05
576.151	35589.6
576.349	35206.63
576.547	35075.56
576.745	35112.42
576.943	35220.97
577.141	35112.42
577.339	35030.51
577.537	34993.64
577.735	34639.34
577.933	34622.96
578.131	34592.24
578.329	34444.79
578.527	34260.47
578.725	34072.06
578.923	34285.04
579.121	33725.95
579.319	34168.31
579.516	33986.04
579.714	34072.06
579.912	34127.35
580.11	33533.44
580.308	34110.97
580.506	33500.67
580.704	32925.19
580.901	33185.29
581.099	33582.59
581.297	33164.81
581.495	33009.16
581.692	33195.53
581.89	32685.58
582.088	32806.41
582.285	32861.71
582.483	33066.5
582.681	32839.18
582.878	32431.63
583.076	32210.45
583.274	32726.54
583.471	31770.14
583.669	32194.07
583.866	31686.17
584.064	32433.68
584.262	31614.49
584.459	31696.41
584.657	31688.22
584.854	31972.89
585.052	31209
585.249	31600.16
585.447	31393.31
585.644	31243.81
585.841	31358.5
586.039	31809.05
586.236	30998.05
586.434	30899.75
586.631	30871.08
586.828	30977.58
587.026	30785.07
587.223	30672.43
587.42	30166.58
587.618	30553.65
587.815	30365.23
588.012	30455.34
588.21	30254.64
588.407	30561.84
588.604	30027.32
588.801	30195.25
588.999	29924.92
589.196	29677.12
589.393	29791.8
589.59	29797.95
589.787	29335.1
589.984	29560.38
590.182	29038.15
590.379	29220.42
590.576	29167.17
590.773	29126.21
590.97	28689.99
591.167	29103.68
591.364	28702.28
591.561	29040.2
591.758	28624.46
591.955	28495.44
592.152	28761.67
592.349	28558.92
592.546	28597.84
592.743	28362.32
592.94	27897.43
593.137	28526.16
593.334	27762.26
593.531	27725.4
593.727	28008.02
593.924	27614.81
594.121	27883.09
594.318	28003.92
594.515	27698.78
594.712	27764.31
594.908	27256.42
595.105	27485.79
595.302	26975.84
595.499	27539.04
595.696	27305.57
595.892	26836.58
596.089	26988.13
596.286	26898.02
596.482	26631.79
596.679	26648.17
596.876	26539.63
597.072	26695.27
597.269	26510.96
597.466	26314.35
597.662	26162.8
597.859	26685.03
598.055	26099.31
598.252	25996.92
598.448	26340.97
598.645	26121.84
598.841	26025.59
599.038	25704.06
599.234	25665.14
599.431	25538.17
599.627	25261.69
599.824	25673.34
600.02	25384.57
600.217	25628.28
600.413	25368.19
600.609	25222.78
600.806	24927.88
601.002	24868.48
601.198	24999.55
601.395	24837.76
601.591	24833.67
601.787	24764.04
601.984	24426.12
602.18	24811.14
602.376	24311.44
602.572	24379.02
602.769	24270.48
602.965	24227.47
603.161	24229.52
603.357	23914.13
603.553	24145.55
603.75	23936.66
603.946	23840.4
604.142	24051.34
604.338	23422.62
604.534	23864.98
604.73	23291.55
604.926	23576.22
605.122	23570.07
605.318	23365.28
605.514	23250.59
605.71	23076.51
605.906	23135.9
606.102	23174.81
606.298	22996.64
606.494	23017.12
606.69	23158.43
606.886	22877.86
607.082	22793.89
607.278	22994.59
607.474	22498.98
607.67	22781.6
607.866	22351.53
608.062	22707.88
608.257	22206.13
608.453	22298.28
608.649	22136.49
608.845	22232.75
609.041	22324.91
609.236	22374.06
609.432	22208.17
609.628	22281.9
609.824	21946.03
610.019	21782.2
610.215	22130.35
610.411	21927.6
610.606	21716.66
610.802	21616.31
610.998	21708.47
611.193	21888.69
611.389	21808.82
611.584	21460.66
611.78	21421.75
611.976	21659.32
612.171	21348.03
612.367	21470.9
612.562	21132.99
612.758	21323.45
612.953	21421.75
613.149	21507.77
613.344	21171.9
613.539	21188.28
613.735	21169.85
613.93	21206.72
614.126	21241.53
614.321	21411.51
614.517	20907.71
614.712	20950.72
614.907	20737.73
615.103	20885.19
615.298	20676.29
615.493	20983.49
615.688	20430.54
615.884	20780.74
616.079	20086.48
616.274	20729.54
616.47	20326.09
616.665	20600.52
616.86	20039.37
617.055	20010.7
617.25	20235.98
617.445	20252.36
617.641	19939.02
617.836	20426.44
618.031	19728.08
618.226	19906.26
618.421	20022.99
618.616	20174.54
618.811	19490.52
619.006	19965.65
619.201	19480.28
619.396	19750.61
619.591	19093.21
619.786	19140.32
619.981	19281.63
620.176	19476.18
620.371	18966.24
620.566	19058.4
620.761	18878.18
620.956	19074.78
621.151	18499.3
621.346	18904.8
621.541	18517.73
621.735	18554.6
621.93	18134.76
622.125	18454.25
622.32	18233.07
622.515	18474.73
622.709	17934.06
622.904	18241.26
623.099	17950.45
623.294	17985.26
623.488	17653.49
623.683	17704.69
623.878	17577.72
624.072	17536.76
624.267	17450.74
624.462	17469.17
624.656	16987.9
624.851	17004.28
625.046	17082.11
625.24	16707.33
625.435	17028.86
625.629	16854.78
625.824	16598.79
626.018	16752.38
626.213	16209.67
626.407	16310.02
626.602	16080.65
626.796	16338.69
626.991	16277.26
627.185	16279.3
627.38	15914.77
627.574	15701.78
627.768	15738.64
627.963	15650.58
628.157	15404.82
628.352	15580.95
628.546	15189.78
628.74	15441.68
628.935	15275.8
629.129	15355.67
629.323	14925.6
629.517	14956.32
629.712	14722.85
629.906	14841.63
630.1	14741.28
630.294	14817.05
630.489	14534.43
630.683	14626.59
630.877	14210.86
631.071	14522.15
631.265	14415.65
631.459	14096.17
631.653	14219.05
631.848	14178.09
632.042	13965.1
632.236	13825.84
632.43	13793.07
632.624	13784.88
632.818	13764.4
633.012	13543.22
633.206	13344.56
633.4	13420.34
633.594	13496.11
633.788	13258.55
633.982	13188.92
634.176	13256.5
634.369	13193.01
634.563	13059.9
634.757	12752.7
634.951	13066.04
635.145	12799.8
635.339	12781.37
635.533	12832.57
635.726	12689.21
635.92	12578.62
636.114	12515.14
636.308	12478.27
636.501	12199.75
636.695	12304.2
636.889	12431.17
637.083	12185.41
637.276	12136.26
637.47	11997
637.664	12089.16
637.857	12021.58
638.051	11790.16
638.244	11773.77
638.438	11704.14
638.632	11513.68
638.825	11566.93
639.019	11425.62
639.212	11450.19
639.406	11562.83
639.599	11495.25
639.793	11360.08
639.986	11030.36
640.18	10901.34
640.373	11358.03
640.567	10917.72
640.76	11218.77
640.954	10774.36
641.147	10954.58
641.34	11026.26
641.534	10893.15
641.727	10639.2
641.92	10512.22
642.114	10489.7
642.307	10454.88
642.5	10538.85
642.694	10295.14
642.887	10186.6
643.08	10291.04
643.273	10104.68
643.467	10088.29
643.66	10078.05
643.853	10049.38
644.046	9912.17
644.239	9897.83
644.432	9989.99
644.626	9783.15
644.819	9867.11
645.012	9820.01
645.205	9607.02
645.398	9496.43
645.591	9549.68
645.784	9459.57
645.977	9340.79
646.17	9402.22
646.363	9332.59
646.556	9391.98
646.749	9172.85
646.942	9287.54
647.135	9254.77
647.328	8953.72
647.521	9031.54
647.714	8851.32
647.907	8908.66
648.099	9064.31
648.292	9025.4
648.485	8894.33
648.678	8734.59
648.871	8603.52
649.064	8753.02
649.256	8677.24
649.449	8529.79
649.642	8460.16
649.835	8353.66
650.027	8544.13
650.22	8497.02
650.413	8435.58
650.605	8189.83
650.798	8318.85
650.991	8284.03
651.183	8144.77
651.376	7958.41
651.568	8099.72
651.761	8062.85
651.954	7948.17
652.146	7813
652.339	7894.92
652.531	8046.47
652.724	7661.45
652.916	7583.63
653.109	7769.99
653.301	7864.2
653.494	7640.97
653.686	7374.74
653.879	7669.64
654.071	7499.66
654.263	7362.45
654.456	7450.51
654.648	7851.91
654.84	7559.05
655.033	7266.19
655.225	7219.09
655.417	7282.58
655.61	7368.59
655.802	7124.88
655.994	7348.11
656.186	7249.81
656.379	7045.01
656.571	6965.14
656.763	6883.22
656.955	7045.01
657.148	6971.29
657.34	6901.65
657.532	6866.84
657.724	6797.21
657.916	6868.89
658.108	6897.56
658.3	6674.33
658.492	6674.33
658.684	6602.65
658.876	6559.64
659.068	6543.26
659.26	6592.41
659.452	6619.03
659.644	6420.38
659.836	6383.52
660.028	6555.55
660.22	6410.14
660.412	6289.31
660.604	6311.84
660.796	6303.65
660.988	6305.7
661.18	6221.73
661.372	6338.46
661.563	6148
661.755	6213.54
661.947	6053.8
662.139	6016.93
662.331	5853.09
662.522	6066.08
662.714	6010.79
662.906	5943.21
663.097	5953.45
663.289	5980.07
663.481	5722.02
663.673	5797.8
663.864	5898.15
664.056	5818.28
664.247	5773.22
664.439	5756.84
664.631	5744.55
664.822	5828.52
665.014	5711.78
665.205	5601.19
665.397	5660.59
665.588	5560.24
665.78	5566.38
665.971	5670.83
666.163	5636.01
666.354	5547.95
666.546	5543.85
666.737	5425.07
666.929	5449.64
667.12	5367.73
667.311	5533.61
667.503	5429.17
667.694	5316.53
667.885	5253.04
668.077	5316.53
668.268	5291.95
668.459	5326.77
668.651	5124.02
668.842	5044.15
669.033	5244.85
669.224	5210.03
669.416	5132.21
669.607	5103.54
669.798	5142.45
669.989	5115.83
670.18	5183.41
670.371	5105.59
670.563	4921.27
670.754	5056.43
670.945	5132.21
671.136	4964.28
671.327	5072.82
671.518	4999.09
671.709	4923.32
671.9	4921.27
672.091	4863.93
672.282	4978.61
672.473	4960.18
672.664	4673.46
672.855	4870.07
673.046	4892.6
673.237	4919.22
673.428	4790.2
673.619	4859.83
673.809	4679.61
674	4650.94
674.191	4839.35
674.382	4673.46
674.573	4790.2
674.764	4722.62
674.954	4622.27
675.145	4624.31
675.336	4667.32
675.527	4556.73
675.717	4583.35
675.908	4521.91
676.099	4614.07
676.289	4534.2
676.48	4663.22
676.671	4577.21
676.861	4698.04
677.052	4577.21
677.243	4536.25
677.433	4593.59
677.624	4542.39
677.814	4435.9
678.005	4534.2
678.195	4607.93
678.386	4509.63
678.576	4544.44
678.767	4384.7
678.957	4435.9
679.148	4538.3
679.338	4298.69
679.529	4378.56
679.719	4392.89
679.909	4470.72
680.1	4405.18
680.29	4552.63
680.481	4483
680.671	4337.6
680.861	4413.37
681.052	4419.52
681.242	4403.13
681.432	4360.13
681.622	4323.26
681.813	4317.12
682.003	4255.68
682.193	4345.79
682.383	4368.32
682.573	4495.29
682.764	4384.7
682.954	4288.45
683.144	4413.37
683.334	4474.81
683.524	4466.62
683.714	4339.65
683.904	4511.68
684.094	4319.17
684.284	4282.3
684.474	4227.01
684.664	4353.98
684.854	4315.07
685.044	4218.82
685.234	4155.33
685.424	4241.34
685.614	4310.97
685.804	4294.59
685.994	4274.11
686.184	4259.77
686.374	4272.06
686.564	4212.67
686.753	4270.01
686.943	4100.03
687.133	4110.27
687.323	4161.47
687.513	4059.07
687.702	4122.56
687.892	4032.45
688.082	3971.01
688.272	4001.73
688.461	4020.16
688.651	4128.7
688.841	3921.86
689.03	4011.97
689.22	3971.01
689.41	3856.33
689.599	3758.02
689.789	3887.04
689.979	3889.09
690.168	4003.78
690.358	3821.51
690.547	3712.97
690.737	3692.49
690.926	3717.06
691.116	3758.02
691.305	3764.17
691.495	3715.02
691.684	3741.64
691.874	3737.54
692.063	3618.76
692.252	3704.78
692.442	3792.84
692.631	3727.3
692.82	3624.9
693.01	3723.21
693.199	3643.34
693.388	3565.51
693.578	3506.12
693.767	3624.9
693.956	3549.13
694.146	3569.61
694.335	3534.79
694.524	3561.42
694.713	3588.04
694.902	3465.16
695.092	3557.32
695.281	3438.54
695.47	3487.69
695.659	3416.01
695.848	3530.7
696.037	3512.27
696.226	3495.88
696.415	3373
696.604	3418.06
696.793	3436.49
696.982	3454.92
697.171	3526.6
697.36	3463.12
697.549	3336.14
697.738	3385.29
697.927	3303.37
698.116	3477.45
698.305	3469.26
698.494	3446.73
698.683	3438.54
698.872	3436.49
699.061	3413.96
699.25	3385.29
699.438	3358.67
699.627	3321.81
699.816	3444.68
700.005	3409.87
700.193	3186.64
700.382	3307.47
700.571	3379.15
700.76	3344.33
700.948	3448.78
701.137	3534.79
701.326	3381.2
701.514	3289.04
701.703	3405.77
701.892	3309.52
702.08	3397.58
702.269	3295.18
702.457	3370.96
702.646	3364.81
702.834	3422.16
703.023	3332.05
703.212	3383.24
703.4	3299.28
703.589	3250.13
703.777	3311.57
703.965	3172.3
704.154	3272.65
704.342	3270.61
704.531	3299.28
704.719	3178.45
704.907	3325.9
705.096	3272.65
705.284	3340.24
705.472	3190.74
705.661	3368.91
705.849	3276.75
706.037	3260.37
706.226	3338.19
706.414	3258.32
706.602	3184.59
706.79	3262.41
706.979	3403.72
707.167	3332.05
707.355	3301.33
707.543	3291.09
707.731	3268.56
707.919	3305.42
708.107	3284.94
708.296	3151.82
708.484	3284.94
708.672	3192.78
708.86	3286.99
709.048	3319.76
709.236	3258.32
709.424	3393.48
709.612	3133.39
709.8	3387.34
709.988	3164.11
710.176	3360.72
710.364	3276.75
710.551	3246.03
710.739	3362.76
710.927	3332.05
711.115	3286.99
711.303	3309.52
711.491	3321.81
711.679	3174.35
711.866	3262.41
712.054	3336.14
712.242	3110.86
712.43	3350.48
712.617	3332.05
712.805	3190.74
712.993	3317.71
713.181	3356.62
713.368	3311.57
713.556	3192.78
713.744	3403.72
713.931	3262.41
714.119	3409.87
714.306	3307.47
714.494	3246.03
714.682	3274.7
714.869	3231.69
715.057	3315.66
715.244	3293.13
715.432	3198.93
715.619	3286.99
715.807	3336.14
715.994	3280.85
716.182	3217.36
716.369	3373
716.556	3237.84
716.744	3268.56
716.931	3297.23
717.119	3207.12
717.306	3295.18
717.493	3301.33
717.681	3311.57
717.868	3282.89
718.055	3352.52
718.242	3246.03
718.43	3403.72
718.617	3166.16
718.804	3241.93
718.991	3368.91
719.179	3250.13
719.366	3270.61
719.553	3344.33
719.74	3215.31
719.927	3209.17
720.114	3203.02
720.301	3307.47
720.488	3309.52
720.676	3289.04
720.863	3184.59
721.05	3325.9
721.237	3194.83
721.424	3262.41
721.611	3278.8
721.798	3235.79
721.985	3299.28
722.172	3227.6
722.358	3323.85
722.545	3303.37
722.732	3170.26
722.919	3231.69
723.106	3198.93
723.293	3319.76
723.48	3282.89
723.667	3252.17
723.853	3086.29
724.04	3184.59
724.227	3268.56
724.414	3350.48
724.6	3192.78
724.787	3346.38
724.974	3303.37
725.161	3176.4
725.347	3002.32
725.534	3276.75
725.72	3069.91
725.907	3172.3
726.094	3274.7
726.28	3270.61
726.467	3143.63
726.653	3143.63
726.84	3350.48
727.027	3356.62
727.213	3250.13
727.4	3180.5
727.586	3215.31
727.773	3203.02
727.959	3143.63
728.145	3172.3
728.332	3170.26
728.518	3278.8
728.705	3231.69
728.891	3149.78
729.077	2987.99
729.264	3067.86
729.45	3241.93
729.636	3299.28
729.823	3133.39
730.009	3305.42
730.195	3104.72
730.382	3309.52
730.568	3063.76
730.754	3114.96
730.94	3071.95
731.126	3291.09
731.313	3151.82
731.499	3131.34
731.685	3114.96
731.871	3061.71
732.057	3076.05
732.243	3286.99
732.429	3174.35
732.615	3168.21
732.801	3028.95
732.987	3194.83
733.173	3084.24
733.359	3200.98
733.545	3053.52
733.731	3030.99
733.917	3088.34
734.103	3172.3
734.289	3020.75
734.475	3043.28
734.661	3205.07
734.847	3094.48
735.033	3127.25
735.219	3018.71
735.404	3194.83
735.59	2985.94
735.776	3028.95
735.962	2994.13
736.148	3010.51
736.333	3100.62
736.519	3063.76
736.705	3028.95
736.89	2906.07
737.076	2787.29
737.262	3012.56
737.447	2938.84
737.633	3065.81
737.819	3012.56
738.004	2971.6
738.19	2899.92
738.375	2947.03
738.561	3018.71
738.747	2936.79
738.932	2883.54
739.118	2983.89
739.303	2844.63
739.489	2813.91
739.674	2787.29
739.859	2877.4
740.045	2889.68
740.23	2901.97
740.416	2832.34
740.601	2858.96
740.786	2877.4
740.972	2942.93
741.157	2815.96
741.342	2799.57
741.528	2807.77
741.713	2820.05
741.898	2703.32
742.084	2785.24
742.269	2758.61
742.454	2684.89
742.639	2705.37
742.824	2744.28
743.01	2758.61
743.195	2777.05
743.38	2635.74
743.565	2656.22
743.75	2701.27
743.935	2572.25
744.12	2713.56
744.305	2578.39
744.49	2529.24
744.675	2570.2
744.86	2562.01
745.045	2455.51
745.23	2543.58
745.415	2549.72
745.6	2484.19
745.785	2557.91
745.97	2467.8
746.155	2457.56
746.34	2437.08
746.525	2496.47
746.71	2488.28
746.895	2430.94
747.079	2349.02
747.264	2473.95
747.449	2416.6
747.634	2396.12
747.819	2349.02
748.003	2314.2
748.188	2277.34
748.373	2248.67
748.557	2398.17
748.742	2361.31
748.927	2199.52
749.111	2322.4
749.296	2164.7
749.481	2224.09
749.665	2150.37
749.85	2125.79
750.034	2164.7
750.219	2207.71
750.404	2078.69
750.588	2191.33
750.773	2111.46
750.957	2189.28
751.141	1980.39
751.326	2099.17
751.51	2023.39
751.695	2095.07
751.879	2033.63
752.064	1992.67
752.248	1959.91
752.432	2056.16
752.617	1996.77
752.801	1951.71
752.985	1920.99
753.17	1957.86
753.354	1923.04
753.538	1920.99
753.722	2004.96
753.907	1822.69
754.091	1882.08
754.275	1890.28
754.459	1890.28
754.643	1761.25
754.828	1781.73
755.012	1834.98
755.196	1830.88
755.38	1753.06
755.564	1697.77
755.748	1718.25
755.932	1742.82
756.116	1734.63
756.3	1626.09
756.484	1757.16
756.668	1626.09
756.852	1681.38
757.036	1726.44
757.22	1654.76
757.404	1697.77
757.588	1611.75
757.772	1660.9
757.956	1538.02
758.14	1572.84
758.323	1548.26
758.507	1652.71
758.691	1613.8
758.875	1583.08
759.059	1527.78
759.242	1599.46
759.426	1513.45
759.61	1587.18
759.794	1546.22
759.977	1437.67
760.161	1507.31
760.345	1411.05
760.528	1513.45
760.712	1429.48
760.895	1484.78
761.079	1429.48
761.263	1384.43
761.446	1314.8
761.63	1417.19
761.813	1472.49
761.997	1359.85
762.18	1310.7
762.364	1421.29
762.547	1325.04
762.731	1353.71
762.914	1251.31
763.098	1318.89
763.281	1361.9
763.464	1372.14
763.648	1234.93
763.831	1275.88
764.015	1331.18
764.198	1429.48
764.381	1204.21
764.564	1396.71
764.748	1345.52
764.931	1316.84
765.114	1243.12
765.297	1191.92
765.481	1325.04
765.664	1249.26
765.847	1245.16
766.03	1284.08
766.213	1259.5
766.397	1191.92
766.58	1163.25
766.763	1294.32
766.946	1214.45
767.129	1198.06
767.312	1314.8
767.495	1179.63
767.678	1200.11
767.861	1214.45
768.044	1226.73
768.227	1159.15
768.41	1257.45
768.593	1198.06
768.776	1193.97
768.959	1155.05
769.142	1159.15
769.324	1044.46
769.507	1175.53
769.69	1077.23
769.873	1044.46
770.056	1136.62
770.239	1136.62
770.421	1146.86
770.604	1140.72
770.787	1079.28
770.97	1085.42
771.152	1032.18
771.335	1050.61
771.518	1028.08
771.7	1066.99
771.883	1085.42
772.066	1095.66
772.248	1028.08
772.431	1095.66
772.613	1101.81
772.796	1015.79
772.978	987.12
773.161	1114.1
773.343	878.58
773.526	1005.55
773.708	894.96
773.891	960.5
774.073	972.79
774.256	983.02
774.438	946.16
774.621	987.12
774.803	995.31
774.985	935.92
775.168	937.97
775.35	884.72
775.532	880.63
775.715	985.07
775.897	958.45
776.079	937.97
776.261	903.15
776.444	808.95
776.626	915.44
776.808	856.05
776.99	837.62
777.173	911.35
777.355	847.86
777.537	833.52
777.719	806.9
777.901	804.85
778.083	770.04
778.265	933.87
778.447	858.1
778.629	849.91
778.811	792.56
778.993	845.81
779.175	796.66
779.357	800.76
779.539	778.23
779.721	675.83
779.903	790.52
780.085	737.27
780.267	800.76
780.449	716.79
780.631	808.95
780.812	792.56
780.994	788.47
781.176	743.41
781.358	755.7
781.54	763.89
781.721	712.69
781.903	767.99
782.085	690.17
782.267	630.77
782.448	647.16
782.63	733.17
782.812	636.92
782.993	692.21
783.175	632.82
783.357	749.56
783.538	718.84
783.72	684.02
783.901	636.92
784.083	593.91
784.264	673.78
784.446	645.11
784.627	618.49
784.809	593.91
784.99	563.19
785.172	602.1
785.353	636.92
785.535	534.52
785.716	567.29
785.897	540.66
786.079	548.86
786.26	514.04
786.441	585.72
786.623	536.57
786.804	583.67
786.985	540.66
787.167	561.14
787.348	569.34
787.529	561.14
787.71	536.57
787.891	503.8
788.073	600.05
788.254	489.46
788.435	514.04
788.616	464.89
788.797	563.19
788.978	448.51
789.159	413.69
789.34	493.56
789.522	456.7
789.703	452.6
789.884	428.03
790.065	415.74
790.246	456.7
790.427	440.31
790.607	555
790.788	462.84
790.969	446.46
791.15	505.85
791.331	477.18
791.512	505.85
791.693	464.89
791.874	460.79
792.054	483.32
792.235	421.88
792.416	421.88
792.597	397.31
792.778	456.7
792.958	503.8
793.139	493.56
793.32	438.27
793.5	364.54
793.681	448.51
793.862	409.59
794.042	337.91
794.223	448.51
794.404	438.27
794.584	354.3
794.765	368.63
794.945	344.06
795.126	376.83
795.306	333.82
795.487	360.44
795.667	391.16
795.848	481.27
796.028	315.39
796.209	399.35
796.389	335.87
796.57	313.34
796.75	327.67
796.93	299
797.111	378.87
797.291	333.82
797.471	364.54
797.652	376.83
797.832	325.63
798.012	473.08
798.192	290.81
798.373	288.76
798.553	253.95
798.733	372.73
798.913	350.2
799.093	378.87
799.274	421.88
799.454	348.15
799.634	344.06
799.814	346.11
799.994	333.82
800.174	313.34
800.354	290.81
800.534	239.61
800.714	299
800.894	296.96
801.074	356.35
801.254	208.89
801.434	346.11
801.614	319.48
801.794	311.29
801.974	720.88
802.154	342.01
802.334	342.01
802.514	270.33
802.693	208.89
802.873	249.85
803.053	278.52
803.233	253.95
803.413	352.25
803.592	233.47
803.772	282.62
803.952	335.87
804.131	309.24
804.311	268.28
804.491	364.54
804.67	264.19
804.85	256
805.03	303.1
805.209	225.28
805.389	202.75
805.568	307.2
805.748	270.33
805.928	313.34
806.107	288.76
806.287	276.48
806.466	235.52
806.646	249.85
806.825	204.8
807.004	233.47
807.184	264.19
807.363	190.46
807.543	309.24
807.722	233.47
807.901	282.62
808.081	223.23
808.26	225.28
808.439	239.61
808.619	212.99
808.798	249.85
808.977	182.27
809.156	342.01
809.336	176.13
809.515	249.85
809.694	227.32
809.873	278.52
810.052	258.04
810.231	262.14
810.411	258.04
810.59	247.8
810.769	260.09
810.948	241.66
811.127	129.02
811.306	284.67
811.485	178.17
811.664	231.42
811.843	174.08
812.022	212.99
812.201	227.32
812.38	147.45
812.559	196.61
812.737	280.57
812.916	206.84
813.095	159.74
813.274	192.51
813.453	208.89
813.632	262.14
813.811	184.32
813.989	188.41
814.168	172.03
814.347	233.47
814.526	153.6
814.704	239.61
814.883	137.21
815.062	167.93
815.24	274.43
815.419	206.84
815.598	157.69
815.776	210.94
815.955	198.65
816.133	202.75
816.312	227.32
816.49	145.41
816.669	178.17
816.847	212.99
817.026	182.27
817.204	229.37
817.383	309.24
817.561	116.73
817.74	198.65
817.918	198.65
818.097	215.04
818.275	155.65
818.453	133.12
818.632	221.18
818.81	169.98
818.988	92.16
819.167	151.55
819.345	202.75
819.523	163.84
819.701	190.46
819.879	120.83
820.058	155.65
820.236	223.23
820.414	167.93
820.592	153.6
820.77	165.89
820.948	92.16
821.127	202.75
821.305	96.25
821.483	141.31
821.661	153.6
821.839	157.69
822.017	118.78
822.195	157.69
822.373	178.17
822.551	155.65
822.729	174.08
822.907	202.75
823.085	190.46
823.262	112.64
823.44	239.61
823.618	112.64
823.796	178.17
823.974	145.41
824.152	124.93
824.329	124.93
824.507	145.41
824.685	116.73
824.863	112.64
825.04	174.08
825.218	126.97
825.396	194.56
825.574	174.08
825.751	145.41
825.929	204.8
826.107	118.78
826.284	137.21
826.462	176.13
826.639	172.03
826.817	120.83
826.994	192.51
827.172	133.12
827.349	83.97
827.527	161.79
827.704	126.97
827.882	161.79
828.059	186.37
828.237	129.02
828.414	88.06
828.591	43.01
828.769	61.44
828.946	169.98
829.124	176.13
829.301	129.02
829.478	100.35
829.655	186.37
829.833	69.63
830.01	88.06
830.187	188.41
830.364	53.25
830.542	137.21
830.719	174.08
830.896	88.06
831.073	77.82
831.25	96.25
831.427	96.25
831.604	118.78
831.782	106.49
831.959	145.41
832.136	55.3
832.313	77.82
832.49	133.12
832.667	86.01
832.844	104.45
833.021	145.41
833.198	108.54
833.374	73.73
833.551	100.35
833.728	147.45
833.905	104.45
834.082	79.87
834.259	184.32
834.436	96.25
834.612	116.73
834.789	126.97
834.966	124.93
835.143	147.45
835.319	40.96
835.496	133.12
835.673	129.02
835.85	143.36
836.026	83.97
836.203	45.06
836.38	165.89
836.556	47.1
836.733	116.73
836.909	137.21
837.086	122.88
837.262	141.31
837.439	61.44
837.616	131.07
837.792	139.26
837.968	118.78
838.145	32.77
838.321	110.59
838.498	73.73
838.674	75.77
838.851	63.49
839.027	55.3
839.203	135.17
839.38	75.77
839.556	110.59
839.732	114.69
839.909	120.83
840.085	178.17
840.261	106.49
840.437	47.1
840.614	69.63
840.79	77.82
840.966	92.16
841.142	36.86
841.318	79.87
841.494	102.4
841.671	114.69
841.847	86.01
842.023	67.58
842.199	129.02
842.375	63.49
842.551	47.1
842.727	94.21
842.903	110.59
843.079	-2.05
843.255	79.87
843.431	124.93
843.607	75.77
843.783	90.11
843.959	155.65
844.134	88.06
844.31	151.55
844.486	34.82
844.662	43.01
844.838	75.77
845.013	145.41
845.189	51.2
845.365	77.82
845.541	77.82
845.716	92.16
845.892	114.69
846.068	43.01
846.244	20.48
846.419	59.39
846.595	40.96
846.77	69.63
846.946	34.82
847.122	65.53
847.297	55.3
847.473	92.16
847.648	79.87
847.824	57.34
847.999	55.3
848.175	145.41
848.35	65.53
848.526	149.5
848.701	86.01
848.876	81.92
849.052	51.2
849.227	106.49
849.403	45.06
849.578	86.01
849.753	40.96
849.929	100.35
850.104	-26.62
850.279	79.87
850.454	94.21
850.63	96.25
850.805	40.96
850.98	63.49
851.155	43.01
851.33	178.17
851.505	79.87
851.681	63.49
851.856	40.96
852.031	71.68
852.206	53.25
852.381	47.1
852.556	20.48
852.731	2.05
852.906	55.3
853.081	90.11
853.256	69.63
853.431	43.01
853.606	47.1
853.781	14.34
853.956	4.1
854.131	61.44
854.305	73.73
854.48	-22.53
854.655	75.77
854.83	-10.24
855.005	43.01
855.18	106.49
855.354	14.34
855.529	22.53
855.704	67.58
855.879	75.77
856.053	43.01
856.228	51.2
856.403	69.63
856.577	100.35
856.752	-26.62
856.926	43.01
857.101	38.91
857.276	69.63
857.45	120.83
857.625	129.02
857.799	49.15
857.974	6.14
858.148	14.34
858.323	59.39
858.497	51.2
858.672	22.53
858.846	4.1
859.02	100.35
859.195	-20.48
859.369	65.53
859.543	43.01
859.718	-2.05
859.892	43.01
860.066	40.96
860.241	30.72
860.415	69.63
860.589	79.87
860.763	102.4
860.938	18.43
861.112	57.34
861.286	-2.05
861.46	43.01
861.634	20.48
861.808	124.93
861.982	47.1
862.157	-6.14
862.331	69.63
862.505	83.97
862.679	-55.3
862.853	20.48
863.027	53.25
863.201	43.01
863.375	36.86
863.549	86.01
863.722	73.73
863.896	120.83
864.07	22.53
864.244	120.83
864.418	92.16
864.592	40.96
864.766	38.91
864.939	38.91
865.113	-2.05
865.287	40.96
865.461	24.58
865.634	53.25
865.808	-28.67
865.982	61.44
866.156	69.63
866.329	22.53
866.503	53.25
866.676	47.1
866.85	38.91
867.024	61.44
867.197	63.49
867.371	63.49
867.544	10.24
867.718	24.58
867.891	71.68
868.065	-2.05
868.238	92.16
868.412	88.06
868.585	47.1
868.759	16.38
868.932	45.06
869.105	12.29
869.279	49.15
869.452	51.2
869.625	47.1
869.799	51.2
869.972	-14.34
870.145	-38.91
870.319	8.19
870.492	22.53
870.665	47.1
870.838	14.34
871.011	18.43
871.185	88.06
871.358	-14.34
871.531	108.54
871.704	10.24
871.877	55.3
872.05	71.68
872.223	71.68
872.396	-18.43
872.569	79.87
872.742	6.14
872.915	94.21
873.088	-4.1
873.261	-14.34
873.434	-16.38
873.607	47.1
873.78	61.44
873.953	16.38
874.126	43.01
874.299	8.19
874.471	77.82
874.644	8.19
874.817	77.82
874.99	114.69
875.163	-2.05
875.335	12.29
875.508	22.53
875.681	71.68
875.853	55.3
876.026	65.53
876.199	67.58
876.371	83.97
876.544	0
876.717	43.01
876.889	26.62
877.062	75.77
877.234	6.14
877.407	-26.62
877.579	0
877.752	-2.05
877.924	36.86
878.097	67.58
878.269	-8.19
878.442	-34.82
878.614	96.25
878.786	71.68
878.959	20.48
879.131	-40.96
879.303	-10.24
879.476	22.53
879.648	98.3
879.82	28.67
879.993	104.45
880.165	2.05
880.337	-4.1
880.509	67.58
880.681	-12.29
880.854	14.34
881.026	71.68
881.198	110.59
881.37	38.91
881.542	63.49
881.714	49.15
881.886	63.49
882.058	24.58
882.23	-4.1
882.402	63.49
882.574	77.82
882.746	45.06
882.918	45.06
883.09	77.82
883.262	51.2
883.434	-34.82
883.606	6.14
883.778	77.82
883.95	2.05
884.122	26.62
884.293	51.2
884.465	86.01
884.637	90.11
884.809	30.72
884.98	6.14
885.152	55.3
885.324	12.29
885.496	10.24
885.667	20.48
885.839	28.67
886.011	18.43
886.182	30.72
886.354	14.34
886.525	4.1
886.697	24.58
886.869	10.24
887.04	2.05
887.212	79.87
887.383	20.48
887.555	10.24
887.726	10.24
887.897	10.24
888.069	106.49
888.24	14.34
888.412	36.86
888.583	-6.14
888.754	51.2
888.926	8.19
889.097	38.91
889.268	-20.48
889.44	63.49
889.611	16.38
889.782	2.05
889.953	10.24
890.125	67.58
890.296	26.62
890.467	34.82
890.638	20.48
890.809	88.06
890.98	86.01
891.151	10.24
891.323	28.67
891.494	83.97
891.665	-6.14
891.836	6.14
892.007	0
892.178	10.24
892.349	10.24
892.52	-14.34
892.691	-10.24
892.862	28.67
893.032	47.1
893.203	-26.62
893.374	-14.34
893.545	51.2
893.716	-8.19
893.887	36.86
894.057	-51.2
894.228	71.68
894.399	14.34
894.57	43.01
894.74	18.43
894.911	40.96
895.082	49.15
895.253	55.3
895.423	14.34
895.594	100.35
895.764	63.49
895.935	-38.91
896.106	53.25
896.276	-2.05
896.447	10.24
896.617	-49.15
896.788	57.34
896.958	28.67
897.129	-2.05
897.299	-8.19
897.47	30.72
897.64	-6.14
897.81	26.62
897.981	63.49
898.151	22.53
898.322	26.62
898.492	61.44
898.662	-75.77
898.832	-55.3
899.003	-12.29
899.173	22.53
899.343	-69.63
899.513	-81.92
