Data from USB4F104151__88__10-24-23-290.txt Node

Date: Wed Mar 12 10:24:23 EDT 2025
User: louis
Spectrometer: USB4F10415
Trigger mode: 4
Integration Time (sec): 3.000000E-2
Scans to average: 1
Electric dark correction enabled: true
Nonlinearity correction enabled: false
Boxcar width: 0
XAxis mode: Wavelengths
Number of Pixels in Spectrum: 3648
>>>>>Begin Spectral Data<<<<<
178.204	-59.9
178.424	-59.9
178.644	-59.9
178.864	-137.73
179.084	-84.48
179.304	-23.04
179.524	28.16
179.744	1.54
179.964	-12.8
180.184	-16.9
180.404	-16.9
180.624	26.11
180.844	3.58
181.064	11.78
181.283	-6.66
181.503	-12.8
181.723	17.92
181.943	-72.19
182.163	101.89
182.383	-31.23
182.602	87.55
182.822	91.65
183.042	24.06
183.262	67.07
183.482	-18.94
183.701	22.02
183.921	52.74
184.141	-45.57
184.361	-0.51
184.58	-25.09
184.8	11.78
185.02	-25.09
185.239	62.98
185.459	40.45
185.679	120.32
185.898	-20.99
186.118	62.98
186.338	-37.38
186.557	85.5
186.777	54.78
186.997	17.92
187.216	-12.8
187.436	95.74
187.655	93.69
187.875	-18.94
188.095	-27.14
188.314	34.3
188.534	71.17
188.753	7.68
188.973	60.93
189.192	108.03
189.412	-4.61
189.631	105.98
189.851	19.97
190.07	130.56
190.29	-23.04
190.509	3.58
190.729	40.45
190.948	71.17
191.168	173.57
191.387	3.58
191.607	-23.04
191.826	65.02
192.045	19.97
192.265	7.68
192.484	-25.09
192.704	-0.51
192.923	42.5
193.142	118.27
193.362	65.02
193.581	46.59
193.8	-25.09
194.02	130.56
194.239	-14.85
194.458	85.5
194.678	-31.23
194.897	28.16
195.116	110.08
195.335	-4.61
195.555	62.98
195.774	62.98
195.993	60.93
196.212	42.5
196.432	11.78
196.651	32.26
196.87	46.59
197.089	75.26
197.308	60.93
197.528	15.87
197.747	-29.18
197.966	32.26
198.185	52.74
198.404	1.54
198.623	11.78
198.842	46.59
199.062	93.69
199.281	91.65
199.5	40.45
199.719	5.63
199.938	58.88
200.157	73.21
200.376	32.26
200.595	79.36
200.814	169.47
201.033	22.02
201.252	15.87
201.471	114.17
201.69	44.54
201.909	30.21
202.128	87.55
202.347	11.78
202.566	-29.18
202.785	13.82
203.004	-8.7
203.223	103.93
203.442	87.55
203.661	1.54
203.879	-0.51
204.098	77.31
204.317	42.5
204.536	50.69
204.755	38.4
204.974	9.73
205.193	42.5
205.411	71.17
205.63	83.45
205.849	9.73
206.068	46.59
206.287	15.87
206.505	26.11
206.724	77.31
206.943	52.74
207.162	1.54
207.381	77.31
207.599	69.12
207.818	81.41
208.037	32.26
208.255	-2.56
208.474	110.08
208.693	65.02
208.911	11.78
209.13	-57.86
209.349	-25.09
209.567	40.45
209.786	36.35
210.005	-20.99
210.223	-0.51
210.442	-12.8
210.661	54.78
210.879	-2.56
211.098	9.73
211.316	36.35
211.535	44.54
211.753	22.02
211.972	22.02
212.191	26.11
212.409	89.6
212.628	58.88
212.846	67.07
213.065	9.73
213.283	73.21
213.502	40.45
213.72	85.5
213.938	40.45
214.157	26.11
214.375	65.02
214.594	50.69
214.812	118.27
215.031	17.92
215.249	-74.24
215.467	11.78
215.686	9.73
215.904	103.93
216.122	26.11
216.341	101.89
216.559	46.59
216.778	81.41
216.996	58.88
217.214	-27.14
217.432	-12.8
217.651	-23.04
217.869	24.06
218.087	11.78
218.306	40.45
218.524	1.54
218.742	79.36
218.96	77.31
219.179	26.11
219.397	-10.75
219.615	77.31
219.833	1.54
220.051	56.83
220.27	54.78
220.488	60.93
220.706	52.74
220.924	73.21
221.142	77.31
221.36	-18.94
221.578	3.58
221.796	91.65
222.015	108.03
222.233	-4.61
222.451	30.21
222.669	3.58
222.887	19.97
223.105	34.3
223.323	-0.51
223.541	44.54
223.759	17.92
223.977	17.92
224.195	48.64
224.413	67.07
224.631	26.11
224.849	52.74
225.067	91.65
225.285	105.98
225.503	34.3
225.721	3.58
225.939	15.87
226.157	9.73
226.375	24.06
226.592	-10.75
226.81	50.69
227.028	26.11
227.246	148.99
227.464	9.73
227.682	83.45
227.9	30.21
228.117	52.74
228.335	85.5
228.553	40.45
228.771	81.41
228.989	40.45
229.206	93.69
229.424	5.63
229.642	-20.99
229.86	34.3
230.077	42.5
230.295	34.3
230.513	38.4
230.731	-41.47
230.948	36.35
231.166	15.87
231.384	26.11
231.601	89.6
231.819	-6.66
232.037	85.5
232.254	-2.56
232.472	-39.42
232.689	9.73
232.907	32.26
233.125	54.78
233.342	-25.09
233.56	44.54
233.777	42.5
233.995	52.74
234.213	7.68
234.43	7.68
234.648	56.83
234.865	-20.99
235.083	-20.99
235.3	75.26
235.518	54.78
235.735	165.37
235.953	34.3
236.17	11.78
236.388	50.69
236.605	52.74
236.822	24.06
237.04	38.4
237.257	52.74
237.475	13.82
237.692	-16.9
237.909	38.4
238.127	1.54
238.344	65.02
238.562	1.54
238.779	15.87
238.996	19.97
239.214	75.26
239.431	19.97
239.648	-20.99
239.865	75.26
240.083	11.78
240.3	48.64
240.517	26.11
240.735	-0.51
240.952	85.5
241.169	67.07
241.386	11.78
241.603	58.88
241.821	79.36
242.038	99.84
242.255	32.26
242.472	17.92
242.689	99.84
242.907	134.65
243.124	83.45
243.341	46.59
243.558	-47.62
243.775	9.73
243.992	-4.61
244.209	105.98
244.426	103.93
244.643	32.26
244.86	11.78
245.078	52.74
245.295	58.88
245.512	75.26
245.729	22.02
245.946	26.11
246.163	65.02
246.38	85.5
246.597	11.78
246.814	17.92
247.031	-29.18
247.248	-25.09
247.464	34.3
247.681	32.26
247.898	44.54
248.115	103.93
248.332	-31.23
248.549	48.64
248.766	77.31
248.983	58.88
249.2	-4.61
249.417	73.21
249.633	19.97
249.85	56.83
250.067	28.16
250.284	118.27
250.501	9.73
250.717	67.07
250.934	-10.75
251.151	67.07
251.368	22.02
251.585	42.5
251.801	24.06
252.018	103.93
252.235	69.12
252.451	22.02
252.668	-12.8
252.885	101.89
253.102	67.07
253.318	38.4
253.535	-45.57
253.752	-2.56
253.968	-23.04
254.185	32.26
254.401	19.97
254.618	-14.85
254.835	44.54
255.051	52.74
255.268	69.12
255.484	46.59
255.701	120.32
255.917	69.12
256.134	28.16
256.351	36.35
256.567	40.45
256.784	48.64
257	9.73
257.217	11.78
257.433	103.93
257.65	34.3
257.866	19.97
258.082	50.69
258.299	3.58
258.515	75.26
258.732	101.89
258.948	83.45
259.165	71.17
259.381	-12.8
259.597	11.78
259.814	140.8
260.03	52.74
260.246	11.78
260.463	67.07
260.679	38.4
260.895	-37.38
261.112	71.17
261.328	-8.7
261.544	97.79
261.761	77.31
261.977	-16.9
262.193	-16.9
262.409	112.13
262.626	44.54
262.842	62.98
263.058	22.02
263.274	-20.99
263.49	9.73
263.707	97.79
263.923	95.74
264.139	13.82
264.355	22.02
264.571	19.97
264.787	13.82
265.004	124.41
265.22	50.69
265.436	7.68
265.652	75.26
265.868	85.5
266.084	3.58
266.3	50.69
266.516	3.58
266.732	128.51
266.948	5.63
267.164	11.78
267.38	79.36
267.596	28.16
267.812	75.26
268.028	40.45
268.244	-33.28
268.46	-41.47
268.676	22.02
268.892	-6.66
269.108	-35.33
269.324	79.36
269.54	13.82
269.756	67.07
269.972	11.78
270.188	13.82
270.403	60.93
270.619	58.88
270.835	85.5
271.051	91.65
271.267	22.02
271.483	56.83
271.698	3.58
271.914	17.92
272.13	73.21
272.346	28.16
272.562	32.26
272.777	67.07
272.993	-20.99
273.209	13.82
273.425	67.07
273.64	60.93
273.856	-25.09
274.072	-4.61
274.287	-16.9
274.503	48.64
274.719	85.5
274.934	-25.09
275.15	15.87
275.366	26.11
275.581	-4.61
275.797	81.41
276.012	-37.38
276.228	40.45
276.444	52.74
276.659	50.69
276.875	3.58
277.09	32.26
277.306	19.97
277.521	34.3
277.737	-29.18
277.952	50.69
278.168	9.73
278.383	44.54
278.599	99.84
278.814	42.5
279.03	36.35
279.245	101.89
279.461	13.82
279.676	38.4
279.892	1.54
280.107	32.26
280.322	44.54
280.538	-6.66
280.753	-12.8
280.969	-49.66
281.184	-25.09
281.399	48.64
281.615	48.64
281.83	17.92
282.045	-94.72
282.26	42.5
282.476	38.4
282.691	32.26
282.906	-20.99
283.122	15.87
283.337	161.28
283.552	105.98
283.767	-20.99
283.983	40.45
284.198	60.93
284.413	26.11
284.628	48.64
284.843	-14.85
285.058	116.22
285.274	65.02
285.489	62.98
285.704	130.56
285.919	-27.14
286.134	-0.51
286.349	60.93
286.564	-10.75
286.779	134.65
286.995	-55.81
287.21	32.26
287.425	93.69
287.64	34.3
287.855	34.3
288.07	-25.09
288.285	32.26
288.5	50.69
288.715	95.74
288.93	91.65
289.145	110.08
289.36	52.74
289.575	-51.71
289.79	42.5
290.004	11.78
290.219	48.64
290.434	5.63
290.649	38.4
290.864	40.45
291.079	50.69
291.294	22.02
291.509	75.26
291.724	83.45
291.938	67.07
292.153	46.59
292.368	75.26
292.583	110.08
292.798	5.63
293.012	44.54
293.227	132.61
293.442	54.78
293.657	-6.66
293.871	93.69
294.086	62.98
294.301	114.17
294.516	114.17
294.73	-6.66
294.945	36.35
295.16	1.54
295.374	52.74
295.589	58.88
295.804	69.12
296.018	-4.61
296.233	-43.52
296.447	24.06
296.662	34.3
296.877	71.17
297.091	15.87
297.306	56.83
297.52	9.73
297.735	-20.99
297.949	52.74
298.164	40.45
298.378	-20.99
298.593	32.26
298.807	69.12
299.022	48.64
299.236	140.8
299.451	38.4
299.665	46.59
299.88	46.59
300.094	38.4
300.309	71.17
300.523	-12.8
300.737	28.16
300.952	120.32
301.166	95.74
301.381	34.3
301.595	124.41
301.809	-4.61
302.024	95.74
302.238	15.87
302.452	17.92
302.667	34.3
302.881	81.41
303.095	67.07
303.309	62.98
303.524	87.55
303.738	48.64
303.952	-37.38
304.166	38.4
304.381	-39.42
304.595	116.22
304.809	114.17
305.023	69.12
305.237	67.07
305.452	56.83
305.666	75.26
305.88	30.21
306.094	62.98
306.308	105.98
306.522	89.6
306.736	75.26
306.95	15.87
307.164	38.4
307.379	-16.9
307.593	153.09
307.807	26.11
308.021	30.21
308.235	56.83
308.449	11.78
308.663	-47.62
308.877	67.07
309.091	52.74
309.305	40.45
309.519	77.31
309.733	75.26
309.947	44.54
310.161	83.45
310.374	65.02
310.588	-0.51
310.802	87.55
311.016	52.74
311.23	48.64
311.444	-23.04
311.658	36.35
311.872	132.61
312.085	163.33
312.299	46.59
312.513	58.88
312.727	28.16
312.941	52.74
313.154	58.88
313.368	-25.09
313.582	22.02
313.796	65.02
314.009	101.89
314.223	132.61
314.437	83.45
314.651	97.79
314.864	28.16
315.078	3.58
315.292	36.35
315.505	56.83
315.719	91.65
315.933	75.26
316.146	7.68
316.36	19.97
316.573	48.64
316.787	40.45
317.001	48.64
317.214	15.87
317.428	65.02
317.641	65.02
317.855	30.21
318.068	85.5
318.282	48.64
318.495	144.89
318.709	60.93
318.922	24.06
319.136	17.92
319.349	62.98
319.563	48.64
319.776	93.69
319.99	58.88
320.203	42.5
320.417	42.5
320.63	-12.8
320.843	44.54
321.057	62.98
321.27	24.06
321.483	56.83
321.697	9.73
321.91	93.69
322.124	5.63
322.337	81.41
322.55	44.54
322.763	56.83
322.977	56.83
323.19	58.88
323.403	67.07
323.617	97.79
323.83	62.98
324.043	69.12
324.256	-43.52
324.469	44.54
324.683	54.78
324.896	52.74
325.109	52.74
325.322	-4.61
325.535	54.78
325.748	83.45
325.962	44.54
326.175	69.12
326.388	91.65
326.601	110.08
326.814	-6.66
327.027	75.26
327.24	50.69
327.453	-25.09
327.666	9.73
327.879	146.94
328.092	-0.51
328.305	75.26
328.518	-35.33
328.731	-2.56
328.944	99.84
329.157	46.59
329.37	110.08
329.583	77.31
329.796	128.51
330.009	15.87
330.222	46.59
330.435	50.69
330.648	99.84
330.861	38.4
331.073	75.26
331.286	38.4
331.499	-2.56
331.712	-55.81
331.925	52.74
332.138	85.5
332.35	93.69
332.563	3.58
332.776	110.08
332.989	50.69
333.202	5.63
333.414	9.73
333.627	34.3
333.84	9.73
334.053	52.74
334.265	32.26
334.478	118.27
334.691	11.78
334.903	134.65
335.116	28.16
335.329	120.32
335.541	73.21
335.754	89.6
335.966	13.82
336.179	83.45
336.392	89.6
336.604	3.58
336.817	73.21
337.029	-18.94
337.242	44.54
337.454	48.64
337.667	126.46
337.88	7.68
338.092	69.12
338.305	99.84
338.517	46.59
338.729	67.07
338.942	200.19
339.154	15.87
339.367	67.07
339.579	118.27
339.792	7.68
340.004	52.74
340.217	11.78
340.429	62.98
340.641	3.58
340.854	52.74
341.066	-14.85
341.278	93.69
341.491	73.21
341.703	95.74
341.915	-23.04
342.128	99.84
342.34	15.87
342.552	17.92
342.764	11.78
342.977	77.31
343.189	56.83
343.401	101.89
343.613	15.87
343.826	3.58
344.038	11.78
344.25	54.78
344.462	36.35
344.674	99.84
344.886	56.83
345.099	15.87
345.311	103.93
345.523	15.87
345.735	3.58
345.947	9.73
346.159	69.12
346.371	65.02
346.583	17.92
346.795	210.43
347.007	60.93
347.219	50.69
347.431	87.55
347.643	126.46
347.855	11.78
348.067	13.82
348.279	97.79
348.491	89.6
348.703	60.93
348.915	50.69
349.127	26.11
349.339	132.61
349.551	132.61
349.763	85.5
349.975	36.35
350.187	120.32
350.399	44.54
350.61	91.65
350.822	30.21
351.034	-25.09
351.246	81.41
351.458	87.55
351.669	105.98
351.881	81.41
352.093	52.74
352.305	48.64
352.517	89.6
352.728	122.37
352.94	69.12
353.152	87.55
353.363	24.06
353.575	93.69
353.787	122.37
353.999	105.98
354.21	124.41
354.422	65.02
354.633	36.35
354.845	79.36
355.057	69.12
355.268	91.65
355.48	-0.51
355.692	7.68
355.903	26.11
356.115	85.5
356.326	-31.23
356.538	79.36
356.749	-2.56
356.961	116.22
357.172	112.13
357.384	-0.51
357.595	101.89
357.807	44.54
358.018	65.02
358.23	95.74
358.441	146.94
358.653	65.02
358.864	-0.51
359.075	34.3
359.287	56.83
359.498	77.31
359.709	40.45
359.921	34.3
360.132	99.84
360.344	69.12
360.555	58.88
360.766	-4.61
360.977	36.35
361.189	-4.61
361.4	26.11
361.611	85.5
361.823	116.22
362.034	3.58
362.245	157.18
362.456	110.08
362.667	58.88
362.879	124.41
363.09	19.97
363.301	32.26
363.512	60.93
363.723	128.51
363.935	75.26
364.146	110.08
364.357	7.68
364.568	28.16
364.779	9.73
364.99	110.08
365.201	26.11
365.412	108.03
365.623	-29.18
365.834	24.06
366.045	60.93
366.256	52.74
366.467	40.45
366.678	93.69
366.889	73.21
367.1	85.5
367.311	91.65
367.522	-20.99
367.733	28.16
367.944	75.26
368.155	54.78
368.366	60.93
368.577	24.06
368.788	44.54
368.999	56.83
369.209	56.83
369.42	151.04
369.631	95.74
369.842	79.36
370.053	-0.51
370.264	22.02
370.474	85.5
370.685	5.63
370.896	93.69
371.107	103.93
371.317	46.59
371.528	58.88
371.739	112.13
371.95	105.98
372.16	77.31
372.371	48.64
372.582	81.41
372.792	101.89
373.003	73.21
373.214	58.88
373.424	44.54
373.635	132.61
373.846	85.5
374.056	50.69
374.267	19.97
374.477	146.94
374.688	124.41
374.898	56.83
375.109	46.59
375.319	44.54
375.53	144.89
375.74	95.74
375.951	3.58
376.161	-29.18
376.372	62.98
376.582	-8.7
376.793	9.73
377.003	1.54
377.214	32.26
377.424	77.31
377.635	54.78
377.845	81.41
378.055	60.93
378.266	38.4
378.476	7.68
378.686	153.09
378.897	71.17
379.107	44.54
379.317	157.18
379.528	87.55
379.738	126.46
379.948	-16.9
380.158	67.07
380.369	91.65
380.579	116.22
380.789	32.26
380.999	153.09
381.21	44.54
381.42	167.42
381.63	34.3
381.84	108.03
382.05	52.74
382.261	146.94
382.471	77.31
382.681	85.5
382.891	140.8
383.101	67.07
383.311	153.09
383.521	50.69
383.731	77.31
383.941	62.98
384.151	75.26
384.361	26.11
384.571	60.93
384.781	128.51
384.991	126.46
385.201	75.26
385.411	69.12
385.621	60.93
385.831	-4.61
386.041	-18.94
386.251	83.45
386.461	44.54
386.671	87.55
386.881	-23.04
387.091	81.41
387.301	73.21
387.511	46.59
387.72	52.74
387.93	50.69
388.14	3.58
388.35	75.26
388.56	42.5
388.769	44.54
388.979	17.92
389.189	26.11
389.399	62.98
389.609	56.83
389.818	140.8
390.028	91.65
390.238	73.21
390.447	56.83
390.657	105.98
390.867	30.21
391.076	54.78
391.286	62.98
391.496	40.45
391.705	87.55
391.915	32.26
392.125	142.85
392.334	81.41
392.544	134.65
392.753	155.13
392.963	60.93
393.172	52.74
393.382	60.93
393.591	126.46
393.801	40.45
394.01	114.17
394.22	118.27
394.429	110.08
394.639	42.5
394.848	60.93
395.058	101.89
395.267	148.99
395.477	171.52
395.686	138.75
395.895	140.8
396.105	159.23
396.314	146.94
396.524	69.12
396.733	93.69
396.942	114.17
397.152	103.93
397.361	202.24
397.57	163.33
397.78	103.93
397.989	85.5
398.198	200.19
398.407	132.61
398.617	140.8
398.826	97.79
399.035	171.52
399.244	97.79
399.453	126.46
399.663	157.18
399.872	175.61
400.081	52.74
400.29	67.07
400.499	120.32
400.708	165.37
400.917	124.41
401.127	140.8
401.336	134.65
401.545	130.56
401.754	124.41
401.963	144.89
402.172	91.65
402.381	167.42
402.59	126.46
402.799	163.33
403.008	189.95
403.217	110.08
403.426	181.76
403.635	187.9
403.844	151.04
404.053	192
404.262	216.57
404.471	179.71
404.68	171.52
404.888	173.57
405.097	189.95
405.306	192
405.515	200.19
405.724	210.43
405.933	204.28
406.142	237.05
406.35	198.14
406.559	228.86
406.768	251.39
406.977	359.93
407.185	187.9
407.394	189.95
407.603	165.37
407.812	192
408.02	310.78
408.229	335.35
408.438	269.82
408.646	288.25
408.855	275.96
409.064	331.26
409.272	353.79
409.481	341.5
409.69	337.4
409.898	288.25
410.107	380.41
410.315	376.31
410.524	351.74
410.733	382.46
410.941	407.03
411.15	482.81
411.358	450.04
411.567	491
411.775	536.06
411.984	472.57
412.192	527.86
412.401	572.92
412.609	652.79
412.818	552.44
413.026	658.93
413.234	634.36
413.443	609.78
413.651	736.76
413.86	622.07
414.068	740.85
414.276	744.95
414.485	663.03
414.693	767.48
414.901	845.3
415.11	830.96
415.318	810.48
415.526	912.88
415.734	1013.23
415.943	986.61
416.151	1000.94
416.359	1013.23
416.567	1058.29
416.776	1119.73
416.984	1152.49
417.192	1189.36
417.4	1201.65
417.608	1283.56
417.817	1205.74
418.025	1351.15
418.233	1408.49
418.441	1285.61
418.649	1453.55
418.857	1564.14
419.065	1648.1
419.273	1641.96
419.481	1650.15
419.689	1695.21
419.897	1826.28
420.105	1813.99
420.313	1910.24
420.521	1932.77
420.729	1983.97
420.937	2026.98
421.145	2215.39
421.353	2237.92
421.561	2295.26
421.769	2561.5
421.977	2504.15
422.185	2534.87
422.393	2620.89
422.601	2803.16
422.809	2837.97
423.017	2803.16
423.224	2928.08
423.432	2942.42
423.64	3147.22
423.848	3229.13
424.056	3231.18
424.263	3483.08
424.471	3483.08
424.679	3593.67
424.887	3673.54
425.094	3874.24
425.302	3847.62
425.51	4085.19
425.718	4074.95
425.925	4226.5
426.133	4369.85
426.341	4578.75
426.548	4660.66
426.756	4791.73
426.964	4988.34
427.171	5227.95
427.379	5340.59
427.586	5385.65
427.794	5486
428.001	5803.43
428.209	6086.05
428.417	6182.31
428.624	6499.74
428.832	6356.38
429.039	6253.98
429.247	6440.35
429.454	6987.16
429.662	7357.84
429.869	6901.14
430.076	7507.34
430.284	7173.52
430.491	7470.48
430.699	7923.08
430.906	7941.51
431.114	8121.73
431.321	8349.06
431.528	8498.56
431.736	9117.04
431.943	9297.27
432.15	9217.4
432.358	9352.56
432.565	9721.2
432.772	9805.16
432.979	10362.21
433.187	10362.21
433.394	10480.99
433.601	11146.58
433.808	11111.77
434.016	11070.81
434.223	11619.66
434.43	12346.69
434.637	12029.26
434.844	12676.41
435.052	12993.85
435.259	13073.72
435.466	13167.93
435.673	12893.5
435.88	13894.96
436.087	14820.64
436.294	14646.56
436.501	14224.68
436.708	14282.02
436.915	14859.55
437.122	15713.55
437.329	15471.89
437.537	16082.19
437.743	16272.65
437.95	16211.21
438.157	17120.51
438.364	17538.29
438.571	17433.85
438.778	17798.38
438.985	19320.03
439.192	18459.88
439.399	19029.21
439.606	19027.17
439.813	19549.4
440.02	20921.54
440.227	20149.45
440.433	20391.11
440.64	21046.46
440.847	20853.95
441.054	21302.46
441.261	23039.14
441.467	22611.11
441.674	23061.66
441.881	23714.97
442.088	23717.01
442.294	23577.75
442.501	24048.79
442.708	24695.94
442.914	25691.26
443.121	26356.85
443.328	25902.2
443.534	27536.48
443.741	26844.26
443.948	26313.84
444.154	28329.04
444.361	28431.44
444.568	28417.1
444.774	28623.95
444.981	28515.4
445.187	29740.09
445.394	30782.51
445.6	30542.89
445.807	33250.31
446.013	31818.78
446.22	32687.12
446.426	33944.57
446.633	33940.47
446.839	35042.28
447.046	33752.06
447.252	35541.99
447.459	35763.17
447.665	35312.61
447.871	36936.65
448.078	38425.53
448.284	36492.24
448.491	38024.12
448.697	39398.31
448.903	39338.92
449.11	39549.86
449.316	39068.59
449.522	39723.94
449.728	40889.23
449.935	40883.09
450.141	40737.68
450.347	41972.61
450.553	40670.1
450.76	40633.24
450.966	42128.25
451.172	41939.84
451.378	42582.9
451.584	41976.7
451.791	42480.5
451.997	42431.35
452.203	43617.13
452.409	43201.39
452.615	42566.52
452.821	41612.17
453.027	41268.11
453.233	42926.96
453.44	41016.21
453.646	41933.7
453.852	41784.19
454.058	42468.22
454.264	40856.46
454.47	41716.61
454.676	40840.08
454.882	42163.07
455.088	38728.63
455.294	39246.76
455.5	39467.94
455.705	40244.12
455.911	38118.33
456.117	37723.07
456.323	37004.24
456.529	35025.9
456.735	36740.05
456.941	35728.35
457.147	34939.88
457.352	33993.72
457.558	33379.33
457.764	33498.11
457.97	32951.31
458.176	32199.7
458.381	32187.41
458.587	30764.07
458.793	30651.44
458.999	29142.08
459.204	30915.62
459.41	30135.35
459.616	28429.39
459.821	28660.81
460.027	28040.28
460.233	27481.18
460.438	26182.77
460.644	26848.36
460.85	25427.07
461.055	24962.18
461.261	24812.68
461.466	23112.86
461.672	22488.23
461.878	23874.71
462.083	22338.73
462.289	21961.9
462.494	21605.56
462.7	20757.7
462.905	20370.63
463.111	21150.91
463.316	20915.39
463.522	20716.74
463.727	20665.54
463.932	20344.01
464.138	20391.11
464.343	20303.05
464.549	19739.86
464.754	20909.25
464.959	20321.48
465.165	20194.51
465.37	19424.47
465.575	19061.98
465.781	19688.66
465.986	19739.86
466.191	19176.67
466.397	18742.5
466.602	17900.78
466.807	18390.25
467.012	18666.72
467.218	18320.62
467.423	18207.98
467.628	18492.65
467.833	19102.94
468.038	18242.79
468.244	17945.84
468.449	18207.98
468.654	17888.5
468.859	17595.64
469.064	17544.44
469.269	16940.29
469.474	16895.23
469.679	17526
469.885	16739.58
470.09	17171.71
470.295	16968.96
470.5	16753.92
470.705	16876.8
470.91	16291.08
471.115	16379.14
471.32	16602.37
471.525	16338.18
471.73	15713.55
471.935	15891.73
472.139	15459.6
472.344	15437.08
472.549	15324.44
472.754	14957.85
472.959	14734.62
473.164	14529.83
473.369	14376.23
473.574	14822.69
473.778	14595.36
473.983	14314.79
474.188	14535.97
474.393	13841.71
474.598	14130.47
474.802	13741.36
475.007	13839.66
475.212	13794.61
475.417	13165.88
475.621	13342
475.826	13262.13
476.031	12813.63
476.235	13028.67
476.44	13065.53
476.645	12770.62
476.849	12672.32
477.054	12561.73
477.259	12506.43
477.463	12367.17
477.668	12107.08
477.872	12303.68
478.077	11998.54
478.282	11734.35
478.486	11599.18
478.691	11752.78
478.895	11662.67
479.1	11447.63
479.304	11525.46
479.509	11314.52
479.713	11306.32
479.918	11085.14
480.122	10995.03
480.326	11222.36
480.531	11144.53
480.735	11093.33
480.94	10906.97
481.144	11220.31
481.348	10689.88
481.553	11023.7
481.757	10581.34
481.961	10782.04
482.166	10964.31
482.37	10784.09
482.574	10511.71
482.778	10818.91
482.983	10751.32
483.187	10698.08
483.391	10863.96
483.595	10810.72
483.8	10730.84
484.004	10706.27
484.208	10863.96
484.412	10702.17
484.616	10792.28
484.821	11029.85
485.025	10556.77
485.229	10669.41
485.433	10607.97
485.637	10544.48
485.841	10546.53
486.045	10704.22
486.249	10663.26
486.453	10489.18
486.657	10696.03
486.861	10622.3
487.065	10399.07
487.269	10569.05
487.473	10468.7
487.677	10816.86
487.881	10640.73
488.085	10620.25
488.289	10886.49
488.493	10630.49
488.697	10775.9
488.901	10673.5
489.105	10749.28
489.309	10874.2
489.512	10841.43
489.716	10902.87
489.92	10751.32
490.124	10519.9
490.328	11146.58
490.531	10831.19
490.735	10878.3
490.939	10952.02
491.143	11079
491.346	10784.09
491.55	11040.09
491.754	11124.05
491.958	11001.18
492.161	11007.32
492.365	11441.49
492.569	11230.55
492.772	11222.36
492.976	11414.87
493.18	11412.82
493.383	11500.88
493.587	11648.33
493.79	11674.96
493.994	11738.44
494.197	11644.24
494.401	12016.97
494.605	11803.98
494.808	12049.74
495.012	12160.33
495.215	12143.94
495.419	12461.38
495.622	12391.75
495.825	12301.64
496.029	12346.69
496.232	12739.9
496.436	12639.55
496.639	13192.5
496.843	12913.98
497.046	13327.67
497.249	13268.28
497.453	13299
497.656	13710.64
497.859	13536.56
498.063	13729.07
498.266	14066.99
498.469	13987.11
498.673	14099.75
498.876	14216.49
499.079	14390.56
499.282	14365.99
499.485	14601.51
499.689	14853.41
499.892	15045.91
500.095	15064.35
500.298	15398.17
500.501	15400.21
500.705	15650.07
500.908	15957.26
501.111	15834.38
501.314	16123.15
501.517	16231.69
501.72	16514.31
501.923	16575.75
502.126	16968.96
502.329	17140.99
502.532	17183.99
502.735	17247.48
502.938	17392.89
503.141	17667.31
503.344	18115.82
503.547	17900.78
503.75	18631.91
503.953	18803.94
504.156	18812.13
504.359	19082.46
504.562	19096.8
504.765	19518.68
504.968	19657.94
505.17	19805.39
505.373	19936.46
505.576	20184.27
505.779	20462.79
505.982	20452.55
506.185	21193.92
506.387	21247.16
506.59	21310.65
506.793	21775.54
506.996	21720.24
507.198	22238.38
507.401	22017.2
507.604	22369.45
507.807	22811.81
508.009	22981.79
508.212	22887.59
508.415	23534.74
508.617	23940.24
508.82	23891.09
509.022	23901.33
509.225	24571.02
509.428	24388.75
509.63	24816.77
509.833	24923.27
510.035	25404.54
510.238	25490.56
510.44	25769.08
510.643	26219.63
510.845	26442.86
511.048	26190.96
511.25	26430.57
511.453	26770.54
511.655	27724.89
511.858	27303.01
512.06	27849.82
512.262	28181.59
512.465	27935.83
512.667	28189.78
512.87	28730.44
513.072	28744.78
513.274	29250.63
513.477	29436.99
513.679	30272.56
513.881	30641.2
514.084	30655.53
514.286	30747.69
514.488	30989.35
514.69	31622.17
514.893	31628.32
515.095	31544.35
515.297	32332.82
515.499	32306.2
515.701	32994.31
515.904	32986.12
516.106	33256.45
516.308	33944.57
516.51	33840.12
516.712	34061.3
516.914	34393.08
517.116	35085.29
517.318	34841.58
517.52	35455.97
517.722	35050.47
517.925	35781.6
518.127	36164.57
518.329	36496.34
518.531	36484.05
518.733	37184.46
518.935	37518.28
519.136	37598.15
519.338	38212.54
519.54	38476.72
519.742	38706.1
519.944	38775.73
520.146	39375.78
520.348	39799.71
520.55	39490.47
520.752	39990.17
520.954	40608.66
521.155	40178.59
521.357	41225.1
521.559	41087.89
521.761	41991.04
521.963	41726.85
522.164	42109.82
522.366	42097.53
522.568	42572.66
522.77	42279.8
522.971	43899.75
523.173	43086.7
523.375	43533.16
523.576	43842.4
523.778	44004.19
523.98	44325.72
524.181	44536.66
524.383	44933.97
524.584	45472.59
524.786	45089.62
524.988	45003.6
525.189	45779.78
525.391	46478.14
525.592	45974.34
525.794	46363.45
525.995	46541.63
526.197	46400.32
526.398	46367.55
526.6	47131.44
526.801	47274.8
527.003	47543.08
527.204	47907.62
527.406	47917.86
527.607	47866.66
527.808	48249.63
528.01	47745.83
528.211	48210.72
528.412	48995.09
528.614	48489.24
528.815	48993.04
529.016	49257.23
529.218	48669.47
529.419	49074.96
529.62	49457.93
529.822	49312.53
530.023	49052.44
530.224	49472.27
530.425	49576.72
530.626	49148.69
530.828	49304.34
531.029	50279.17
531.23	49597.2
531.431	49869.58
531.632	50197.25
531.833	50344.7
532.035	50318.08
532.236	50266.88
532.437	50148.1
532.638	49883.91
532.839	50524.93
533.04	50662.14
533.241	50168.58
533.442	51127.03
533.643	50864.89
533.844	50350.85
534.045	50885.37
534.246	50336.51
534.447	50823.93
534.648	50838.26
534.849	50934.52
535.05	50434.81
535.251	50664.19
535.451	51020.53
535.652	51057.4
535.853	50871.03
536.054	51014.39
536.255	50856.7
536.456	51006.2
536.657	51135.22
536.857	51065.59
537.058	50676.47
537.259	50909.94
537.46	51292.91
537.66	50678.52
537.861	51047.16
538.062	50543.36
538.263	51360.5
538.463	50406.14
538.664	50936.57
538.865	50868.98
539.065	51307.25
539.266	50879.22
539.466	51280.63
539.667	50608.89
539.868	51407.6
540.068	51018.49
540.269	50868.98
540.469	51038.97
540.67	51073.78
540.87	51049.21
541.071	51167.99
541.271	51213.04
541.472	51184.37
541.672	50625.28
541.873	50600.7
542.073	50420.48
542.274	51544.81
542.474	51038.97
542.675	50541.31
542.875	51270.39
543.075	51018.49
543.276	50258.69
543.476	51102.45
543.676	50690.81
543.877	51016.44
544.077	51143.41
544.277	51073.78
544.478	50619.13
544.678	50961.14
544.878	50707.19
545.078	50629.37
545.279	50348.8
545.479	50492.16
545.679	50754.3
545.879	50871.03
546.079	50811.64
546.28	50950.9
546.48	50463.49
546.68	50866.94
546.88	50668.28
547.08	50973.43
547.28	50086.66
547.48	49894.15
547.68	50397.95
547.88	49836.81
548.081	51057.4
548.281	50451.2
548.481	50301.7
548.681	51069.68
548.881	50320.13
549.081	50602.75
549.28	50004.74
549.48	50946.81
549.68	50144
549.88	50838.26
550.08	50053.89
550.28	50721.53
550.48	50443.01
550.68	50246.4
550.88	49845
551.08	49955.59
551.279	50387.71
551.479	50219.78
551.679	50014.98
551.879	50225.92
552.079	50221.83
552.278	49611.53
552.478	49824.52
552.678	49976.07
552.878	50365.18
553.077	50113.28
553.277	49281.81
553.477	50246.4
553.676	49771.27
553.876	49695.5
554.076	49828.62
554.275	49607.44
554.475	49416.97
554.674	49666.83
554.874	49869.58
555.074	49419.02
555.273	49949.45
555.473	49910.53
555.672	49232.66
555.872	49509.13
556.071	49507.08
556.271	49959.69
556.47	49369.87
556.67	48904.98
556.869	49253.14
557.068	49263.38
557.268	48575.26
557.467	49214.23
557.667	49052.44
557.866	48837.4
558.065	48935.7
558.265	48778.01
558.464	48544.54
558.663	49083.16
558.863	48390.94
559.062	49285.9
559.261	48239.39
559.461	48833.3
559.66	48026.4
559.859	48454.43
560.058	47739.69
560.258	48362.27
560.457	47911.72
560.656	48284.45
560.855	47727.4
561.054	48087.84
561.253	47725.35
561.453	48186.14
561.652	47770.41
561.851	47647.53
562.05	47766.31
562.249	47502.12
562.448	47627.05
562.647	47567.66
562.846	47272.75
563.045	47233.84
563.244	47098.67
563.443	47479.6
563.642	46525.24
563.841	46883.64
564.04	46822.2
564.239	46936.88
564.438	46295.87
564.637	46908.21
564.836	46596.92
565.035	46136.13
565.234	45900.61
565.432	46488.38
565.631	45581.13
565.83	46023.49
566.029	45794.12
566.228	46070.59
566.427	45749.06
566.625	45235.02
566.824	44870.48
567.023	45867.84
567.222	44901.2
567.42	45486.92
567.619	45241.17
567.818	44954.45
568.016	45036.37
568.215	45296.46
568.414	44807
568.612	45034.32
568.811	44585.82
569.01	44602.2
569.208	44055.39
569.407	44618.58
569.605	43631.46
569.804	44467.03
570.002	43952.99
570.201	44151.65
570.4	43461.48
570.598	43209.58
570.797	43256.68
570.995	43512.68
571.193	42832.75
571.392	43504.49
571.59	43213.68
571.789	43119.47
571.987	42984.3
572.186	42953.58
572.384	42621.81
572.582	42769.27
572.781	42554.23
572.979	42306.43
573.177	42482.55
573.376	42357.63
573.574	41890.69
573.772	42204.03
573.971	42134.4
574.169	41563.01
574.367	41182.09
574.565	41608.07
574.763	41325.45
574.962	41178
575.16	40835.98
575.358	41300.87
575.556	40395.67
575.754	41159.56
575.952	40532.89
576.151	41137.04
576.349	40395.67
576.547	40833.94
576.745	40389.53
576.943	40317.85
577.141	40018.85
577.339	40278.94
577.537	39670.69
577.735	40004.51
577.933	39914.4
578.131	39988.13
578.329	39666.59
578.527	39809.95
578.725	39519.14
578.923	39799.71
579.121	38945.71
579.319	39039.92
579.516	39238.57
579.714	39093.16
579.912	39015.34
580.11	39033.77
580.308	39082.92
580.506	38966.19
580.704	38089.66
580.901	38446.01
581.099	38783.92
581.297	38190.01
581.495	38204.35
581.692	37852.09
581.89	37622.72
582.088	37964.73
582.285	37505.99
582.483	37931.97
582.681	37725.12
582.878	37268.42
583.076	37084.11
583.274	37442.5
583.471	36877.26
583.669	37159.88
583.866	36895.69
584.064	36842.45
584.262	36025.31
584.459	36955.08
584.657	36551.63
584.854	36973.52
585.052	35947.48
585.249	36475.86
585.447	36529.11
585.644	35894.24
585.841	35777.5
586.039	36350.93
586.236	35298.28
586.434	35402.72
586.631	35666.91
586.828	35599.33
587.026	35603.42
587.223	35351.52
587.42	35437.54
587.618	35093.48
587.815	34782.19
588.012	35015.66
588.21	34956.27
588.407	35427.3
588.604	34417.65
588.801	34411.51
588.999	34329.59
589.196	34466.8
589.393	34444.27
589.59	33872.89
589.787	33905.66
589.984	33989.63
590.182	33694.72
590.379	33764.35
590.576	33567.74
590.773	33571.84
590.97	33354.76
591.167	33575.94
591.364	33065.99
591.561	33580.03
591.758	32955.4
591.955	32928.78
592.152	33360.9
592.349	32920.59
592.546	33276.93
592.743	32953.35
592.94	32175.13
593.137	32637.97
593.334	32930.83
593.531	32232.47
593.727	32289.81
593.924	32199.7
594.121	32164.89
594.318	32658.45
594.515	31548.45
594.712	31917.08
594.908	31681.56
595.105	31695.9
595.302	31575.07
595.499	31616.03
595.696	31384.61
595.892	31364.13
596.089	31505.44
596.286	31331.36
596.482	30792.75
596.679	30643.24
596.876	30755.88
597.072	30735.4
597.269	30524.46
597.466	30370.86
597.662	30329.91
597.859	30374.96
598.055	30501.93
598.252	30223.41
598.448	30424.11
598.645	30028.85
598.841	29830.2
599.038	29799.48
599.234	29819.96
599.431	29406.27
599.627	29271.11
599.824	29729.85
600.02	29264.96
600.217	29590.59
600.413	29117.51
600.609	29021.25
600.806	29084.74
601.002	29441.09
601.198	28884.04
601.395	28570.7
601.591	28779.59
601.787	28910.66
601.984	28415.05
602.18	28566.6
602.376	28478.54
602.572	28408.91
602.769	28308.56
602.965	28027.99
603.161	28116.05
603.357	27999.32
603.553	27933.78
603.75	28167.25
603.946	27706.46
604.142	27970.65
604.338	27153.51
604.534	27391.07
604.73	27485.28
604.926	27249.76
605.122	27223.14
605.318	26907.75
605.514	26963.04
605.71	26946.66
605.906	27079.78
606.102	26803.3
606.298	26989.67
606.494	26942.56
606.69	26788.97
606.886	26813.54
607.082	26711.14
607.278	26930.28
607.474	26027.12
607.67	26580.07
607.866	26023.03
608.062	26530.92
608.257	26514.54
608.453	26453.1
608.649	26217.58
608.845	25857.14
609.041	25826.42
609.236	25838.71
609.432	25910.39
609.628	25986.16
609.824	25668.73
610.019	25717.88
610.215	25764.98
610.411	25541.75
610.606	25480.32
610.802	25756.79
610.998	25748.6
611.193	25339.01
611.389	25185.41
611.584	25425.02
611.78	25052.29
611.976	25152.64
612.171	25261.18
612.367	25349.25
612.562	24988.8
612.758	24753.29
612.953	24837.25
613.149	25150.59
613.344	24855.68
613.539	24968.32
613.735	24919.17
613.93	24996.99
614.126	24392.84
614.321	24716.42
614.517	24542.35
614.712	24667.27
614.907	24720.52
615.103	24151.18
615.298	24513.67
615.493	24632.46
615.688	24102.03
615.884	24702.09
616.079	23856.28
616.274	24329.36
616.47	24188.05
616.665	24112.27
616.86	23858.32
617.055	24061.07
617.25	23837.84
617.445	24116.37
617.641	23567.51
617.836	23807.12
618.031	23235.74
618.226	23823.51
618.421	23403.67
618.616	23430.3
618.811	22969.51
619.006	23665.81
619.201	23051.42
619.396	23450.78
619.591	22652.07
619.786	23252.13
619.981	22707.37
620.176	22860.96
620.371	22613.16
620.566	22791.33
620.761	22551.72
620.956	22750.37
621.151	22240.43
621.346	22228.14
621.541	22002.86
621.735	22443.18
621.93	21697.72
622.125	21771.44
622.32	21564.6
622.515	21886.13
622.709	21568.69
622.904	21468.34
623.099	21245.12
623.294	21359.8
623.488	21165.25
623.683	20892.87
623.878	20626.63
624.072	20796.61
624.267	21003.46
624.462	20483.27
624.656	20561.09
624.851	20532.42
625.046	20350.15
625.24	20167.88
625.435	20020.43
625.629	20184.27
625.824	19760.34
626.018	19887.31
626.213	19133.66
626.407	19690.71
626.602	19150.04
626.796	19451.1
626.991	19315.93
627.185	19324.12
627.38	19109.08
627.574	18902.24
627.768	18935.01
627.963	18789.6
628.157	18650.34
628.352	18595.04
628.546	18343.14
628.74	18402.54
628.935	18154.73
629.129	17874.16
629.323	17865.97
629.517	18124.01
629.712	17978.61
629.906	17904.88
630.1	17738.99
630.294	17816.82
630.489	17431.8
630.683	17425.65
630.877	17419.51
631.071	17294.58
631.265	17638.64
631.459	17097.98
631.653	17067.26
631.848	16866.56
632.042	16778.5
632.236	16352.52
632.43	16510.21
632.624	16868.61
632.818	16538.88
633.012	16432.39
633.206	16205.06
633.4	16373
633.594	16131.34
633.788	16426.25
633.982	15959.31
634.176	16176.39
634.369	15699.22
634.563	15586.58
634.757	15592.72
634.951	15613.2
635.145	15527.19
635.339	15463.7
635.533	15342.87
635.726	15400.21
635.92	15133.98
636.114	15213.85
636.308	15078.68
636.501	14955.8
636.695	14912.8
636.889	14738.72
637.083	14648.61
637.276	14716.19
637.47	14429.48
637.664	14603.55
637.857	14363.94
638.051	14302.5
638.244	14277.93
638.438	14105.9
638.632	14161.19
638.825	14017.83
639.019	13999.4
639.212	13614.38
639.406	13729.07
639.599	13782.32
639.793	13862.19
639.986	13372.72
640.18	13540.66
640.373	13700.4
640.567	13458.74
640.76	13301.05
640.954	13030.71
641.147	13069.62
641.34	13059.38
641.534	12950.84
641.727	13028.67
641.92	13016.38
642.114	12698.94
642.307	12713.28
642.5	12670.27
642.694	12594.5
642.887	12469.57
643.08	12586.3
643.273	12434.75
643.467	12258.63
643.66	12358.98
643.853	12387.65
644.046	12045.64
644.239	12004.68
644.432	12111.18
644.626	11840.84
644.819	11664.72
645.012	11824.46
645.205	12002.63
645.398	11791.69
645.591	11582.8
645.784	11595.09
645.977	11613.52
646.17	11670.86
646.363	11382.1
646.556	11373.91
646.749	11236.69
646.942	11068.76
647.135	11130.2
647.328	10995.03
647.521	10947.93
647.714	10988.89
647.907	10898.78
648.099	10800.48
648.292	10947.93
648.485	10792.28
648.678	10581.34
648.871	10556.77
649.064	10460.51
649.256	10472.8
649.449	10478.94
649.642	10460.51
649.835	10370.4
650.027	10425.7
650.22	10448.22
650.413	10437.98
650.605	10315.11
650.798	10102.12
650.991	9751.92
651.183	10089.83
651.376	9868.65
651.568	9848.17
651.761	9780.59
651.954	9616.75
652.146	9774.44
652.339	9721.2
652.531	9686.38
652.724	9489.78
652.916	9551.21
653.109	9561.45
653.301	9387.38
653.494	9272.69
653.686	9368.95
653.879	9362.8
654.071	9139.57
654.263	9299.31
654.456	9250.16
654.648	9133.43
654.84	9022.84
655.033	9108.85
655.225	9000.31
655.417	8883.58
655.61	8910.2
655.802	8906.1
655.994	8805.75
656.186	8875.38
656.379	8811.9
656.571	8709.5
656.763	8715.64
656.955	8588.67
657.148	8572.29
657.34	8555.9
657.532	8492.41
657.724	8396.16
657.916	8246.66
658.108	8588.67
658.3	8121.73
658.492	8260.99
658.684	8093.06
658.876	8017.29
659.068	8248.71
659.26	7957.89
659.452	7980.42
659.644	7892.36
659.836	8015.24
660.028	7765.39
660.22	7802.25
660.412	7849.35
660.604	7714.19
660.796	7804.3
660.988	7761.29
661.18	7585.16
661.372	7589.26
661.563	7697.8
661.755	7564.68
661.947	7533.97
662.139	7708.04
662.331	7521.68
662.522	7384.46
662.714	7275.92
662.906	7380.37
663.097	7466.38
663.289	7120.28
663.481	7198.1
663.673	7265.68
663.864	6989.21
664.056	7138.71
664.247	7224.72
664.439	6929.81
664.631	6782.36
664.822	7085.46
665.014	6839.7
665.205	7153.04
665.397	6725.02
665.588	6847.9
665.78	6684.06
665.971	6626.71
666.163	6774.17
666.354	6765.98
666.546	6669.72
666.737	6491.55
666.929	6776.22
667.12	6569.37
667.311	6571.42
667.503	6509.98
667.694	6606.24
667.885	6552.99
668.077	6634.91
668.268	6417.82
668.459	6340
668.651	6362.53
668.842	6243.74
669.033	6376.86
669.224	6206.88
669.416	6296.99
669.607	6256.03
669.798	6045.09
669.989	6219.17
670.18	6221.22
670.371	6167.97
670.563	6000.04
670.754	6190.5
670.945	6028.71
671.136	6073.76
671.327	5875.11
671.518	5934.5
671.709	6131.11
671.9	5987.75
672.091	5793.19
672.282	5905.83
672.473	5744.04
672.664	5807.53
672.855	5823.91
673.046	5782.95
673.237	6008.23
673.428	5844.39
673.619	5782.95
673.809	5811.62
674	5741.99
674.191	5604.78
674.382	5721.51
674.573	5660.07
674.764	5682.6
674.954	5660.07
675.145	5637.55
675.336	5625.26
675.527	5680.55
675.717	5682.6
675.908	5467.56
676.099	5469.61
676.289	5709.22
676.48	5555.63
676.671	5520.81
676.861	5473.71
677.052	5520.81
677.243	5553.58
677.433	5250.48
677.624	5463.47
677.814	5309.87
678.005	5352.88
678.195	5367.21
678.386	5410.22
678.576	5326.25
678.767	5254.58
678.957	5230
679.148	5432.75
679.338	5436.85
679.529	5352.88
679.719	5373.36
679.909	5385.65
680.1	5340.59
680.29	5264.82
680.481	5166.51
680.671	5291.44
680.861	5242.29
681.052	5287.34
681.242	5113.27
681.432	5338.54
681.622	5250.48
681.813	5260.72
682.003	5207.47
682.193	5127.6
682.383	5166.51
682.573	5246.38
682.764	5119.41
682.954	5092.79
683.144	5217.71
683.334	5023.16
683.524	5068.21
683.714	4998.58
683.904	5051.83
684.094	5107.12
684.284	5186.99
684.474	4994.48
684.664	4988.34
684.854	4939.19
685.044	4951.48
685.234	4994.48
685.424	4863.41
685.614	4820.41
685.804	4978.1
685.994	5033.4
686.184	4941.24
686.374	4853.17
686.564	4904.37
686.753	4881.85
686.943	4765.11
687.133	4865.46
687.323	4842.93
687.513	4795.83
687.702	4681.14
687.892	4763.06
688.082	4603.32
688.272	4707.77
688.461	4726.2
688.651	4631.99
688.841	4515.26
689.03	4658.62
689.22	4509.12
689.41	4562.36
689.599	4474.3
689.789	4695.48
689.979	4498.88
690.168	4433.34
690.358	4537.79
690.547	4378.05
690.737	4603.32
690.926	4371.9
691.116	4435.39
691.305	4492.73
691.495	4408.76
691.684	4439.48
691.874	4502.97
692.063	4404.67
692.252	4273.6
692.442	4083.14
692.631	4179.39
692.82	4140.48
693.01	4236.74
693.199	4089.28
693.388	4087.23
693.578	4251.07
693.767	4208.06
693.956	4167.1
694.146	4113.86
694.335	4027.84
694.524	4246.98
694.713	4087.23
694.902	4169.15
695.092	4058.56
695.281	4206.02
695.47	4066.75
695.659	3958.21
695.848	4038.08
696.037	3980.74
696.226	3845.57
696.415	3909.06
696.604	3896.77
696.793	4087.23
696.982	4027.84
697.171	3954.12
697.36	3861.96
697.549	3882.44
697.738	3898.82
697.927	3970.5
698.116	3886.53
698.305	3798.47
698.494	3931.59
698.683	3837.38
698.872	3870.15
699.061	3712.46
699.25	3882.44
699.438	3821
699.627	3933.64
699.816	3849.67
700.005	3755.46
700.193	3691.98
700.382	3866.05
700.571	3808.71
700.76	3917.25
700.948	3837.38
701.137	3804.61
701.326	3667.4
701.514	3730.89
701.703	3630.54
701.892	3831.24
702.08	3741.13
702.269	3722.7
702.457	3612.1
702.646	3790.28
702.834	3722.7
703.023	3632.58
703.212	3771.85
703.4	3745.22
703.589	3724.74
703.777	3714.5
703.965	3689.93
704.154	3726.79
704.342	3468.75
704.531	3700.17
704.719	3575.24
704.907	3726.79
705.096	3694.02
705.284	3743.17
705.472	3816.9
705.661	3575.24
705.849	3726.79
706.037	3640.78
706.226	3665.35
706.414	3540.43
706.602	3677.64
706.79	3646.92
706.979	3646.92
707.167	3663.3
707.355	3573.19
707.543	3722.7
707.731	3702.22
707.919	3698.12
708.107	3677.64
708.296	3702.22
708.484	3739.08
708.672	3528.14
708.86	3665.35
709.048	3585.48
709.236	3689.93
709.424	3673.54
709.612	3601.87
709.8	3528.14
709.988	3530.19
710.176	3698.12
710.364	3663.3
710.551	3698.12
710.739	3546.57
710.927	3595.72
711.115	3597.77
711.303	3517.9
711.491	3493.32
711.679	3526.09
711.866	3591.63
712.054	3708.36
712.242	3526.09
712.43	3657.16
712.617	3583.43
712.805	3517.9
712.993	3497.42
713.181	3526.09
713.368	3440.08
713.556	3661.26
713.744	3444.17
713.931	3589.58
714.119	3521.99
714.306	3548.62
714.494	3405.26
714.682	3417.55
714.869	3464.65
715.057	3626.44
715.244	3532.23
715.432	3632.58
715.619	3589.58
715.807	3478.99
715.994	3605.96
716.182	3358.16
716.369	3485.13
716.556	3409.36
716.744	3354.06
716.931	3532.23
717.119	3571.15
717.306	3507.66
717.493	3446.22
717.681	3538.38
717.868	3509.71
718.055	3614.15
718.242	3511.75
718.43	3548.62
718.617	3577.29
718.804	3499.47
718.991	3556.81
719.179	3519.95
719.366	3524.04
719.553	3505.61
719.74	3438.03
719.927	3495.37
720.114	3558.86
720.301	3513.8
720.488	3268.05
720.676	3347.92
720.863	3399.12
721.05	3515.85
721.237	3493.32
721.424	3454.41
721.611	3399.12
721.798	3440.08
721.985	3466.7
722.172	3341.77
722.358	3458.51
722.545	3419.6
722.732	3593.67
722.919	3646.92
723.106	3329.49
723.293	3501.51
723.48	3317.2
723.667	3218.89
723.853	3397.07
724.04	3253.71
724.227	3476.94
724.414	3364.3
724.6	3341.77
724.787	3319.25
724.974	3261.9
725.161	3362.25
725.347	3272.14
725.534	3280.33
725.72	3468.75
725.907	3384.78
726.094	3309.01
726.28	3395.02
726.467	3358.16
726.653	3360.2
726.84	3374.54
727.027	3409.36
727.213	3362.25
727.4	3339.73
727.586	3464.65
727.773	3362.25
727.959	3331.53
728.145	3411.4
728.332	3263.95
728.518	3233.23
728.705	3259.85
728.891	3296.72
729.077	3382.73
729.264	3280.33
729.45	3341.77
729.636	3253.71
729.823	3304.91
730.009	3155.41
730.195	3198.42
730.382	3300.81
730.568	3161.55
730.754	3268.05
730.94	3286.48
731.126	3296.72
731.313	3227.09
731.499	3132.88
731.685	3206.61
731.871	3220.94
732.057	3272.14
732.243	3214.8
732.429	3161.55
732.615	3306.96
732.801	3204.56
732.987	3067.35
733.173	3182.03
733.359	3200.46
733.545	3038.67
733.731	3292.62
733.917	3171.79
734.103	3132.88
734.289	3151.31
734.475	3282.38
734.661	3354.06
734.847	3218.89
735.033	3222.99
735.219	3143.12
735.404	3247.57
735.59	3124.69
735.776	3222.99
735.962	3126.74
736.148	3167.7
736.333	3151.31
736.519	3141.07
736.705	3130.83
736.89	3022.29
737.076	3108.3
737.262	3020.24
737.447	2975.19
737.633	2966.99
737.819	3149.26
738.004	3053.01
738.19	3040.72
738.375	2975.19
738.561	3042.77
738.747	2936.28
738.932	2899.41
739.118	3165.65
739.303	2907.6
739.489	2932.18
739.674	2909.65
739.859	2870.74
740.045	2981.33
740.23	2938.32
740.416	2874.84
740.601	2977.23
740.786	2878.93
740.972	2598.36
741.157	2893.27
741.342	2887.12
741.528	2940.37
741.713	2948.56
741.898	2846.16
742.084	2948.56
742.269	2889.17
742.454	2940.37
742.639	2850.26
742.824	2848.21
743.01	2784.73
743.195	2792.92
743.38	2821.59
743.565	2784.73
743.75	2801.11
743.935	2774.49
744.12	2727.38
744.305	2661.85
744.49	2657.75
744.675	2715.09
744.86	2661.85
745.045	2604.5
745.23	2696.66
745.415	2645.46
745.6	2686.42
745.785	2649.56
745.97	2606.55
746.155	2670.04
746.34	2522.59
746.525	2575.83
746.71	2522.59
746.895	2434.52
747.079	2366.94
747.264	2430.43
747.449	2624.98
747.634	2409.95
747.819	2463.19
748.003	2334.17
748.188	2285.02
748.373	2307.55
748.557	2289.12
748.742	2280.93
748.927	2328.03
749.111	2252.25
749.296	2350.56
749.481	2301.4
749.665	2342.36
749.85	2325.98
750.034	2199.01
750.219	2196.96
750.404	2176.48
750.588	2092.51
750.773	2192.86
750.957	2149.86
751.141	2141.66
751.326	2215.39
751.51	2024.93
751.695	2059.74
751.879	2035.17
752.064	2125.28
752.248	2049.5
752.432	2104.8
752.617	2117.09
752.801	2012.64
752.985	2014.69
753.17	2072.03
753.354	2002.4
753.538	1918.43
753.722	1902.05
753.907	1891.81
754.091	1889.76
754.275	1818.08
754.459	1840.61
754.643	1846.76
754.828	1912.29
755.012	1779.17
755.196	1775.08
755.38	1846.76
755.564	1820.13
755.748	1715.69
755.932	1924.58
756.116	1713.64
756.3	1828.32
756.484	1662.44
756.668	1756.65
756.852	1637.86
757.036	1697.25
757.22	1715.69
757.404	1641.96
757.588	1713.64
757.772	1740.26
757.956	1613.29
758.14	1557.99
758.323	1644.01
758.507	1598.95
758.691	1572.33
758.875	1627.62
759.059	1545.7
759.242	1570.28
759.426	1533.42
759.61	1478.12
759.794	1500.65
759.977	1564.14
760.161	1576.42
760.345	1555.94
760.528	1363.44
760.712	1521.13
760.895	1510.89
761.079	1508.84
761.263	1474.03
761.446	1373.68
761.63	1416.68
761.813	1394.15
761.997	1404.39
762.18	1445.35
762.364	1347.05
762.547	1365.48
762.731	1381.87
762.914	1439.21
763.098	1363.44
763.281	1322.48
763.464	1385.96
763.648	1347.05
763.831	1345
764.015	1293.8
764.198	1285.61
764.381	1324.52
764.564	1263.08
764.748	1228.27
764.931	1367.53
765.114	1275.37
765.297	1265.13
765.481	1299.95
765.664	1185.26
765.847	1324.52
766.03	1285.61
766.213	1242.61
766.397	1269.23
766.58	1240.56
766.763	1209.84
766.946	1289.71
767.129	1185.26
767.312	1261.04
767.495	1326.57
767.678	1213.93
767.861	1357.29
768.044	1172.97
768.227	1279.47
768.41	1224.17
768.593	1222.13
768.776	1254.89
768.959	1117.68
769.142	1218.03
769.324	1224.17
769.507	1076.72
769.69	1164.78
769.873	1107.44
770.056	1179.12
770.239	1166.83
770.421	1156.59
770.604	1002.99
770.787	1078.77
770.97	1158.64
771.152	1119.73
771.335	1191.41
771.518	1029.62
771.7	1097.2
771.883	1134.06
772.066	1080.82
772.248	962.03
772.431	1181.17
772.613	1136.11
772.796	1031.66
772.978	1107.44
773.161	1103.34
773.343	992.75
773.526	1017.33
773.708	943.6
773.891	955.89
774.073	861.68
774.256	1007.09
774.438	1021.42
774.621	959.99
774.803	959.99
774.985	865.78
775.168	990.7
775.35	910.83
775.532	943.6
775.715	943.6
775.897	923.12
776.079	921.07
776.261	1011.18
776.444	835.06
776.626	843.25
776.808	923.12
776.99	847.35
777.173	947.7
777.355	763.38
777.537	859.63
777.719	949.75
777.901	830.96
778.083	863.73
778.265	804.34
778.447	925.17
778.629	765.43
778.811	849.4
778.993	847.35
779.175	781.81
779.357	810.48
779.539	701.94
779.721	755.19
779.903	830.96
780.085	777.72
780.267	767.48
780.449	730.61
780.631	783.86
780.812	810.48
780.994	710.13
781.176	714.23
781.358	712.18
781.54	691.7
781.721	757.24
781.903	611.83
782.085	734.71
782.267	749.04
782.448	749.04
782.63	683.51
782.812	617.97
782.993	673.27
783.175	671.22
783.357	650.74
783.538	640.5
783.72	622.07
783.901	609.78
784.083	652.79
784.264	636.41
784.446	607.73
784.627	585.21
784.809	632.31
784.99	558.58
785.172	646.65
785.353	523.77
785.535	609.78
785.716	523.77
785.897	687.61
786.079	544.25
786.26	656.89
786.441	523.77
786.623	546.3
786.804	493.05
786.985	626.17
787.167	548.34
787.348	570.87
787.529	597.49
787.71	484.86
787.891	595.45
788.073	441.85
788.254	466.42
788.435	493.05
788.616	585.21
788.797	515.58
788.978	468.47
789.159	462.33
789.34	544.25
789.522	474.62
789.703	435.71
789.884	493.05
790.065	474.62
790.246	425.47
790.427	474.62
790.607	482.81
790.788	478.71
790.969	450.04
791.15	472.57
791.331	396.79
791.512	462.33
791.693	433.66
791.874	345.59
792.054	503.29
792.235	521.72
792.416	454.14
792.597	366.07
792.778	478.71
792.958	409.08
793.139	431.61
793.32	433.66
793.5	374.27
793.681	423.42
793.862	462.33
794.042	402.94
794.223	290.3
794.404	400.89
794.584	384.51
794.765	388.6
794.945	372.22
795.126	413.18
795.306	456.19
795.487	445.95
795.667	452.09
795.848	452.09
796.028	339.45
796.209	368.12
796.389	380.41
796.57	359.93
796.75	409.08
796.93	318.97
797.111	323.07
797.291	404.99
797.471	331.26
797.652	407.03
797.832	325.12
798.012	345.59
798.192	321.02
798.373	316.92
798.553	359.93
798.733	409.08
798.913	308.73
799.093	351.74
799.274	331.26
799.454	312.83
799.634	333.31
799.814	331.26
799.994	341.5
800.174	298.49
800.354	278.01
800.534	335.35
800.714	316.92
800.894	312.83
801.074	302.59
801.254	251.39
801.434	355.83
801.614	265.72
801.794	271.87
801.974	810.48
802.154	224.76
802.334	269.82
802.514	359.93
802.693	273.92
802.873	245.24
803.053	265.72
803.233	259.58
803.413	318.97
803.592	321.02
803.772	273.92
803.952	312.83
804.131	253.44
804.311	259.58
804.491	318.97
804.67	286.2
804.85	237.05
805.03	351.74
805.209	294.4
805.389	241.15
805.568	214.52
805.748	329.21
805.928	275.96
806.107	232.96
806.287	335.35
806.466	249.34
806.646	235
806.825	206.33
807.004	273.92
807.184	251.39
807.363	257.53
807.543	208.38
807.722	228.86
807.901	265.72
808.081	241.15
808.26	218.62
808.439	249.34
808.619	226.81
808.798	232.96
808.977	226.81
809.156	241.15
809.336	241.15
809.515	298.49
809.694	183.81
809.873	189.95
810.052	278.01
810.231	296.44
810.411	249.34
810.59	210.43
810.769	232.96
810.948	294.4
811.127	214.52
811.306	241.15
811.485	271.87
811.664	243.2
811.843	142.85
812.022	118.27
812.201	210.43
812.38	185.85
812.559	214.52
812.737	267.77
812.916	157.18
813.095	222.72
813.274	257.53
813.453	282.11
813.632	232.96
813.811	263.68
813.989	144.89
814.168	216.57
814.347	210.43
814.526	189.95
814.704	163.33
814.883	241.15
815.062	167.42
815.24	224.76
815.419	130.56
815.598	181.76
815.776	157.18
815.955	192
816.133	120.32
816.312	128.51
816.49	157.18
816.669	249.34
816.847	146.94
817.026	157.18
817.204	146.94
817.383	179.71
817.561	181.76
817.74	210.43
817.918	97.79
818.097	216.57
818.275	67.07
818.453	138.75
818.632	171.52
818.81	146.94
818.988	218.62
819.167	128.51
819.345	138.75
819.523	179.71
819.701	159.23
819.879	157.18
820.058	224.76
820.236	222.72
820.414	220.67
820.592	148.99
820.77	171.52
820.948	103.93
821.127	124.41
821.305	148.99
821.483	77.31
821.661	179.71
821.839	177.66
822.017	138.75
822.195	138.75
822.373	146.94
822.551	171.52
822.729	87.55
822.907	142.85
823.085	177.66
823.262	130.56
823.44	116.22
823.618	161.28
823.796	138.75
823.974	151.04
824.152	128.51
824.329	56.83
824.507	222.72
824.685	179.71
824.863	161.28
825.04	167.42
825.218	163.33
825.396	108.03
825.574	140.8
825.751	126.46
825.929	189.95
826.107	58.88
826.284	148.99
826.462	179.71
826.639	118.27
826.817	122.37
826.994	126.46
827.172	128.51
827.349	177.66
827.527	251.39
827.704	87.55
827.882	142.85
828.059	126.46
828.237	130.56
828.414	138.75
828.591	124.41
828.769	128.51
828.946	126.46
829.124	101.89
829.301	189.95
829.478	110.08
829.655	142.85
829.833	144.89
830.01	38.4
830.187	187.9
830.364	140.8
830.542	83.45
830.719	99.84
830.896	183.81
831.073	130.56
831.25	155.13
831.427	91.65
831.604	93.69
831.782	52.74
831.959	118.27
832.136	97.79
832.313	163.33
832.49	126.46
832.667	161.28
832.844	138.75
833.021	126.46
833.198	114.17
833.374	110.08
833.551	79.36
833.728	159.23
833.905	28.16
834.082	89.6
834.259	151.04
834.436	101.89
834.612	58.88
834.789	110.08
834.966	126.46
835.143	52.74
835.319	73.21
835.496	54.78
835.673	69.12
835.85	110.08
836.026	108.03
836.203	103.93
836.38	134.65
836.556	-0.51
836.733	114.17
836.909	11.78
837.086	85.5
837.262	36.35
837.439	81.41
837.616	-2.56
837.792	138.75
837.968	-8.7
838.145	48.64
838.321	77.31
838.498	77.31
838.674	114.17
838.851	116.22
839.027	65.02
839.203	101.89
839.38	75.26
839.556	52.74
839.732	58.88
839.909	77.31
840.085	122.37
840.261	34.3
840.437	30.21
840.614	101.89
840.79	87.55
840.966	81.41
841.142	77.31
841.318	75.26
841.494	85.5
841.671	58.88
841.847	128.51
842.023	28.16
842.199	83.45
842.375	73.21
842.551	99.84
842.727	77.31
842.903	67.07
843.079	19.97
843.255	69.12
843.431	60.93
843.607	42.5
843.783	7.68
843.959	116.22
844.134	58.88
844.31	40.45
844.486	93.69
844.662	46.59
844.838	101.89
845.013	120.32
845.189	91.65
845.365	54.78
845.541	17.92
845.716	58.88
845.892	58.88
846.068	-10.75
846.244	42.5
846.419	32.26
846.595	69.12
846.77	48.64
846.946	32.26
847.122	46.59
847.297	81.41
847.473	69.12
847.648	73.21
847.824	169.47
847.999	-4.61
848.175	140.8
848.35	17.92
848.526	126.46
848.701	124.41
848.876	11.78
849.052	103.93
849.227	34.3
849.403	91.65
849.578	95.74
849.753	69.12
849.929	130.56
850.104	5.63
850.279	56.83
850.454	73.21
850.63	89.6
850.805	69.12
850.98	50.69
851.155	99.84
851.33	93.69
851.505	77.31
851.681	105.98
851.856	15.87
852.031	77.31
852.206	122.37
852.381	83.45
852.556	1.54
852.731	124.41
852.906	30.21
853.081	62.98
853.256	83.45
853.431	9.73
853.606	81.41
853.781	52.74
853.956	28.16
854.131	67.07
854.305	24.06
854.48	32.26
854.655	-23.04
854.83	60.93
855.005	30.21
855.18	130.56
855.354	44.54
855.529	134.65
855.704	56.83
855.879	91.65
856.053	22.02
856.228	89.6
856.403	58.88
856.577	-8.7
856.752	60.93
856.926	-23.04
857.101	60.93
857.276	-0.51
857.45	52.74
857.625	50.69
857.799	46.59
857.974	128.51
858.148	110.08
858.323	73.21
858.497	34.3
858.672	-2.56
858.846	62.98
859.02	67.07
859.195	-39.42
859.369	17.92
859.543	62.98
859.718	44.54
859.892	67.07
860.066	22.02
860.241	-20.99
860.415	9.73
860.589	19.97
860.763	34.3
860.938	58.88
861.112	56.83
861.286	65.02
861.46	3.58
861.634	7.68
861.808	75.26
861.982	75.26
862.157	13.82
862.331	36.35
862.505	-2.56
862.679	24.06
862.853	40.45
863.027	1.54
863.201	65.02
863.375	11.78
863.549	36.35
863.722	22.02
863.896	67.07
864.07	7.68
864.244	-0.51
864.418	54.78
864.592	15.87
864.766	-16.9
864.939	75.26
865.113	26.11
865.287	44.54
865.461	-14.85
865.634	56.83
865.808	30.21
865.982	19.97
866.156	-12.8
866.329	62.98
866.503	62.98
866.676	7.68
866.85	138.75
867.024	46.59
867.197	75.26
867.371	15.87
867.544	108.03
867.718	71.17
867.891	11.78
868.065	34.3
868.238	3.58
868.412	73.21
868.585	32.26
868.759	11.78
868.932	58.88
869.105	24.06
869.279	15.87
869.452	28.16
869.625	91.65
869.799	48.64
869.972	-27.14
870.145	-23.04
870.319	15.87
870.492	-4.61
870.665	36.35
870.838	75.26
871.011	-31.23
871.185	22.02
871.358	-20.99
871.531	161.28
871.704	65.02
871.877	19.97
872.05	52.74
872.223	1.54
872.396	13.82
872.569	-12.8
872.742	-6.66
872.915	24.06
873.088	13.82
873.261	-39.42
873.434	-43.52
873.607	58.88
873.78	52.74
873.953	42.5
874.126	89.6
874.299	138.75
874.471	-53.76
874.644	48.64
874.817	32.26
874.99	60.93
875.163	-14.85
875.335	24.06
875.508	60.93
875.681	146.94
875.853	-4.61
876.026	22.02
876.199	13.82
876.371	38.4
876.544	40.45
876.717	40.45
876.889	3.58
877.062	-6.66
877.234	-45.57
877.407	19.97
877.579	36.35
877.752	79.36
877.924	3.58
878.097	60.93
878.269	52.74
878.442	97.79
878.614	-10.75
878.786	-6.66
878.959	71.17
879.131	11.78
879.303	-55.81
879.476	-20.99
879.648	-49.66
879.82	-27.14
879.993	17.92
880.165	19.97
880.337	32.26
880.509	87.55
880.681	-10.75
880.854	-23.04
881.026	56.83
881.198	36.35
881.37	-20.99
881.542	50.69
881.714	-29.18
881.886	65.02
882.058	28.16
882.23	3.58
882.402	28.16
882.574	73.21
882.746	62.98
882.918	126.46
883.09	-35.33
883.262	-37.38
883.434	60.93
883.606	34.3
883.778	42.5
883.95	69.12
884.122	65.02
884.293	9.73
884.465	11.78
884.637	1.54
884.809	73.21
884.98	30.21
885.152	71.17
885.324	83.45
885.496	60.93
885.667	-4.61
885.839	-8.7
886.011	91.65
886.182	-66.05
886.354	-10.75
886.525	-4.61
886.697	15.87
886.869	32.26
887.04	3.58
887.212	28.16
887.383	91.65
887.555	65.02
887.726	50.69
887.897	-16.9
888.069	91.65
888.24	42.5
888.412	7.68
888.583	15.87
888.754	73.21
888.926	28.16
889.097	-29.18
889.268	36.35
889.44	36.35
889.611	-6.66
889.782	44.54
889.953	26.11
890.125	48.64
890.296	13.82
890.467	81.41
890.638	24.06
890.809	-0.51
890.98	-80.38
891.151	50.69
891.323	24.06
891.494	22.02
891.665	-29.18
891.836	-10.75
892.007	-14.85
892.178	-14.85
892.349	54.78
892.52	1.54
892.691	-25.09
892.862	-51.71
893.032	-6.66
893.203	52.74
893.374	-45.57
893.545	46.59
893.716	-8.7
893.887	32.26
894.057	-78.33
894.228	-12.8
894.399	13.82
894.57	120.32
894.74	-23.04
894.911	62.98
895.082	38.4
895.253	11.78
895.423	-23.04
895.594	91.65
895.764	22.02
895.935	15.87
896.106	50.69
896.276	52.74
896.447	3.58
896.617	-8.7
896.788	24.06
896.958	-55.81
897.129	-70.14
897.299	69.12
897.47	40.45
897.64	67.07
897.81	-47.62
897.981	69.12
898.151	28.16
898.322	34.3
898.492	54.78
898.662	11.78
898.832	-31.23
899.003	11.78
899.173	48.64
899.343	-10.75
899.513	28.16
