Data from USB4F104151__125__10-25-17-164.txt Node

Date: Wed Mar 12 10:25:17 EDT 2025
User: louis
Spectrometer: USB4F10415
Trigger mode: 4
Integration Time (sec): 3.000000E-2
Scans to average: 1
Electric dark correction enabled: true
Nonlinearity correction enabled: false
Boxcar width: 0
XAxis mode: Wavelengths
Number of Pixels in Spectrum: 3648
>>>>>Begin Spectral Data<<<<<
178.204	-132.44
178.424	-132.44
178.644	-132.44
178.864	-136.53
179.084	-44.37
179.304	-11.61
179.524	12.97
179.744	-40.28
179.964	58.03
180.184	-32.08
180.404	33.45
180.624	53.93
180.844	-60.76
181.064	-101.72
181.283	8.87
181.503	33.45
181.723	45.74
181.943	0.68
182.163	76.46
182.383	29.35
182.602	6.83
182.822	68.27
183.042	33.45
183.262	49.83
183.482	51.88
183.701	39.59
183.921	6.83
184.141	35.5
184.361	6.83
184.58	-7.51
184.8	62.12
185.02	47.79
185.239	-1.37
185.459	25.26
185.679	31.4
185.898	62.12
186.118	6.83
186.338	60.07
186.557	92.84
186.777	45.74
186.997	39.59
187.216	8.87
187.436	49.83
187.655	2.73
187.875	27.31
188.095	107.18
188.314	51.88
188.534	60.07
188.753	-19.8
188.973	47.79
189.192	74.41
189.412	4.78
189.631	25.26
189.851	70.31
190.07	27.31
190.29	47.79
190.509	68.27
190.729	0.68
190.948	29.35
191.168	86.7
191.387	15.02
191.607	12.97
191.826	-23.89
192.045	98.99
192.265	76.46
192.484	37.55
192.704	21.16
192.923	-11.61
193.142	4.78
193.362	29.35
193.581	84.65
193.8	27.31
194.02	64.17
194.239	29.35
194.458	80.55
194.678	39.59
194.897	-40.28
195.116	29.35
195.335	55.98
195.555	47.79
195.774	-3.41
195.993	12.97
196.212	51.88
196.432	-54.61
196.651	23.21
196.87	47.79
197.089	-3.41
197.308	35.5
197.528	60.07
197.747	15.02
197.966	39.59
198.185	58.03
198.404	41.64
198.623	8.87
198.842	74.41
199.062	66.22
199.281	62.12
199.5	2.73
199.719	-34.13
199.938	47.79
200.157	53.93
200.376	96.94
200.595	148.14
200.814	45.74
201.033	53.93
201.252	6.83
201.471	111.27
201.69	94.89
201.909	17.07
202.128	37.55
202.347	2.73
202.566	-44.37
202.785	-7.51
203.004	-13.65
203.223	66.22
203.442	-40.28
203.661	8.87
203.879	92.84
204.098	84.65
204.317	27.31
204.536	64.17
204.755	51.88
204.974	45.74
205.193	-1.37
205.411	70.31
205.63	68.27
205.849	2.73
206.068	49.83
206.287	43.69
206.505	84.65
206.724	60.07
206.943	45.74
207.162	-11.61
207.381	86.7
207.599	-7.51
207.818	-9.56
208.037	58.03
208.255	-9.56
208.474	86.7
208.693	80.55
208.911	43.69
209.13	6.83
209.349	37.55
209.567	21.16
209.786	62.12
210.005	-21.84
210.223	80.55
210.442	-38.23
210.661	109.23
210.879	-44.37
211.098	-23.89
211.316	84.65
211.535	43.69
211.753	37.55
211.972	72.36
212.191	27.31
212.409	47.79
212.628	66.22
212.846	-7.51
213.065	-5.46
213.283	53.93
213.502	6.83
213.72	25.26
213.938	86.7
214.157	-25.94
214.375	55.98
214.594	70.31
214.812	43.69
215.031	53.93
215.249	-7.51
215.467	21.16
215.686	55.98
215.904	60.07
216.122	70.31
216.341	58.03
216.559	137.9
216.778	6.83
216.996	27.31
217.214	8.87
217.432	29.35
217.651	43.69
217.869	-13.65
218.087	70.31
218.306	-5.46
218.524	27.31
218.742	23.21
218.96	127.66
219.179	35.5
219.397	47.79
219.615	45.74
219.833	29.35
220.051	-32.08
220.27	78.51
220.488	80.55
220.706	21.16
220.924	23.21
221.142	-7.51
221.36	27.31
221.578	90.79
221.796	0.68
222.015	21.16
222.233	82.6
222.451	80.55
222.669	55.98
222.887	109.23
223.105	10.92
223.323	21.16
223.541	51.88
223.759	-7.51
223.977	43.69
224.195	31.4
224.413	96.94
224.631	72.36
224.849	-3.41
225.067	90.79
225.285	53.93
225.503	90.79
225.721	21.16
225.939	-23.89
226.157	66.22
226.375	45.74
226.592	-38.23
226.81	19.11
227.028	90.79
227.246	135.85
227.464	49.83
227.682	68.27
227.9	51.88
228.117	4.78
228.335	70.31
228.553	35.5
228.771	37.55
228.989	43.69
229.206	21.16
229.424	72.36
229.642	60.07
229.86	4.78
230.077	35.5
230.295	10.92
230.513	62.12
230.731	88.75
230.948	103.08
231.166	31.4
231.384	-7.51
231.601	12.97
231.819	94.89
232.037	43.69
232.254	-48.47
232.472	74.41
232.689	2.73
232.907	127.66
233.125	27.31
233.342	19.11
233.56	-13.65
233.777	-3.41
233.995	49.83
234.213	60.07
234.43	131.75
234.648	-17.75
234.865	53.93
235.083	94.89
235.3	33.45
235.518	0.68
235.735	152.23
235.953	74.41
236.17	39.59
236.388	-15.7
236.605	74.41
236.822	84.65
237.04	37.55
237.257	58.03
237.475	62.12
237.692	49.83
237.909	49.83
238.127	6.83
238.344	70.31
238.562	86.7
238.779	80.55
238.996	23.21
239.214	60.07
239.431	64.17
239.648	47.79
239.865	74.41
240.083	60.07
240.3	4.78
240.517	-25.94
240.735	-48.47
240.952	39.59
241.169	58.03
241.386	86.7
241.603	27.31
241.821	-13.65
242.038	92.84
242.255	70.31
242.472	-11.61
242.689	58.03
242.907	-5.46
243.124	72.36
243.341	29.35
243.558	-34.13
243.775	39.59
243.992	29.35
244.209	31.4
244.426	123.56
244.643	62.12
244.86	117.42
245.078	41.64
245.295	62.12
245.512	12.97
245.729	82.6
245.946	84.65
246.163	66.22
246.38	-60.76
246.597	8.87
246.814	4.78
247.031	10.92
247.248	-17.75
247.464	76.46
247.681	33.45
247.898	29.35
248.115	31.4
248.332	-5.46
248.549	47.79
248.766	70.31
248.983	121.51
249.2	-21.84
249.417	55.98
249.633	6.83
249.85	58.03
250.067	-7.51
250.284	31.4
250.501	-11.61
250.717	101.03
250.934	21.16
251.151	66.22
251.368	8.87
251.585	23.21
251.801	17.07
252.018	-36.18
252.235	27.31
252.451	60.07
252.668	43.69
252.885	78.51
253.102	45.74
253.318	86.7
253.535	82.6
253.752	-32.08
253.968	35.5
254.185	0.68
254.401	53.93
254.618	55.98
254.835	-30.04
255.051	74.41
255.268	-1.37
255.484	-36.18
255.701	53.93
255.917	21.16
256.134	78.51
256.351	74.41
256.567	-19.8
256.784	12.97
257	-19.8
257.217	111.27
257.433	29.35
257.65	-9.56
257.866	10.92
258.082	-1.37
258.299	4.78
258.515	78.51
258.732	15.02
258.948	39.59
259.165	0.68
259.381	31.4
259.597	43.69
259.814	21.16
260.03	0.68
260.246	35.5
260.463	19.11
260.679	66.22
260.895	29.35
261.112	-17.75
261.328	60.07
261.544	88.75
261.761	103.08
261.977	2.73
262.193	-60.76
262.409	37.55
262.626	6.83
262.842	39.59
263.058	-27.99
263.274	76.46
263.49	55.98
263.707	53.93
263.923	21.16
264.139	17.07
264.355	41.64
264.571	152.23
264.787	17.07
265.004	41.64
265.22	58.03
265.436	72.36
265.652	35.5
265.868	60.07
266.084	29.35
266.3	12.97
266.516	39.59
266.732	29.35
266.948	29.35
267.164	78.51
267.38	25.26
267.596	70.31
267.812	111.27
268.028	41.64
268.244	60.07
268.46	94.89
268.676	58.03
268.892	-17.75
269.108	74.41
269.324	2.73
269.54	68.27
269.756	84.65
269.972	-15.7
270.188	62.12
270.403	21.16
270.619	49.83
270.835	101.03
271.051	27.31
271.267	-48.47
271.483	-25.94
271.698	19.11
271.914	17.07
272.13	98.99
272.346	-1.37
272.562	15.02
272.777	35.5
272.993	43.69
273.209	15.02
273.425	70.31
273.64	43.69
273.856	101.03
274.072	-44.37
274.287	39.59
274.503	90.79
274.719	47.79
274.934	35.5
275.15	-68.95
275.366	98.99
275.581	-27.99
275.797	41.64
276.012	-1.37
276.228	33.45
276.444	84.65
276.659	125.61
276.875	-5.46
277.09	-1.37
277.306	72.36
277.521	80.55
277.737	70.31
277.952	45.74
278.168	76.46
278.383	27.31
278.599	-42.32
278.814	94.89
279.03	39.59
279.245	21.16
279.461	123.56
279.676	8.87
279.892	8.87
280.107	15.02
280.322	6.83
280.538	33.45
280.753	45.74
280.969	70.31
281.184	29.35
281.399	94.89
281.615	12.97
281.83	76.46
282.045	12.97
282.26	39.59
282.476	-36.18
282.691	37.55
282.906	72.36
283.122	84.65
283.337	-19.8
283.552	39.59
283.767	37.55
283.983	41.64
284.198	-87.38
284.413	117.42
284.628	62.12
284.843	70.31
285.058	53.93
285.274	49.83
285.489	10.92
285.704	33.45
285.919	47.79
286.134	68.27
286.349	60.07
286.564	55.98
286.779	43.69
286.995	49.83
287.21	-9.56
287.425	60.07
287.64	82.6
287.855	37.55
288.07	33.45
288.285	51.88
288.5	41.64
288.715	80.55
288.93	-23.89
289.145	8.87
289.36	82.6
289.575	84.65
289.79	21.16
290.004	66.22
290.219	45.74
290.434	45.74
290.649	47.79
290.864	-54.61
291.079	84.65
291.294	0.68
291.509	70.31
291.724	55.98
291.938	0.68
292.153	86.7
292.368	-42.32
292.583	51.88
292.798	74.41
293.012	115.37
293.227	21.16
293.442	0.68
293.657	94.89
293.871	80.55
294.086	53.93
294.301	107.18
294.516	17.07
294.73	47.79
294.945	43.69
295.16	19.11
295.374	96.94
295.589	68.27
295.804	23.21
296.018	64.17
296.233	37.55
296.447	-21.84
296.662	-11.61
296.877	37.55
297.091	51.88
297.306	33.45
297.52	105.13
297.735	15.02
297.949	-3.41
298.164	27.31
298.378	21.16
298.593	4.78
298.807	2.73
299.022	-11.61
299.236	53.93
299.451	19.11
299.665	70.31
299.88	66.22
300.094	80.55
300.309	35.5
300.523	107.18
300.737	17.07
300.952	76.46
301.166	-1.37
301.381	-30.04
301.595	4.78
301.809	72.36
302.024	37.55
302.238	12.97
302.452	39.59
302.667	2.73
302.881	84.65
303.095	45.74
303.309	0.68
303.524	90.79
303.738	37.55
303.952	2.73
304.166	41.64
304.381	-64.85
304.595	127.66
304.809	15.02
305.023	-1.37
305.237	-21.84
305.452	-36.18
305.666	66.22
305.88	58.03
306.094	113.32
306.308	88.75
306.522	29.35
306.736	53.93
306.95	43.69
307.164	60.07
307.379	33.45
307.593	103.08
307.807	45.74
308.021	35.5
308.235	68.27
308.449	39.59
308.663	-46.42
308.877	60.07
309.091	53.93
309.305	25.26
309.519	60.07
309.733	92.84
309.947	12.97
310.161	103.08
310.374	-3.41
310.588	76.46
310.802	19.11
311.016	35.5
311.23	-21.84
311.444	49.83
311.658	27.31
311.872	45.74
312.085	43.69
312.299	53.93
312.513	53.93
312.727	105.13
312.941	72.36
313.154	10.92
313.368	125.61
313.582	43.69
313.796	23.21
314.009	33.45
314.223	129.7
314.437	98.99
314.651	35.5
314.864	76.46
315.078	35.5
315.292	-13.65
315.505	62.12
315.719	98.99
315.933	27.31
316.146	-40.28
316.36	15.02
316.573	74.41
316.787	45.74
317.001	76.46
317.214	-15.7
317.428	70.31
317.641	8.87
317.855	88.75
318.068	74.41
318.282	10.92
318.495	12.97
318.709	33.45
318.922	64.17
319.136	2.73
319.349	168.62
319.563	45.74
319.776	49.83
319.99	-5.46
320.203	88.75
320.417	74.41
320.63	-68.95
320.843	21.16
321.057	64.17
321.27	35.5
321.483	66.22
321.697	133.8
321.91	33.45
322.124	105.13
322.337	29.35
322.55	35.5
322.763	37.55
322.977	41.64
323.19	94.89
323.403	107.18
323.617	-25.94
323.83	47.79
324.043	109.23
324.256	117.42
324.469	-15.7
324.683	58.03
324.896	49.83
325.109	88.75
325.322	-17.75
325.535	51.88
325.748	68.27
325.962	49.83
326.175	43.69
326.388	90.79
326.601	107.18
326.814	60.07
327.027	27.31
327.24	41.64
327.453	10.92
327.666	88.75
327.879	23.21
328.092	49.83
328.305	43.69
328.518	58.03
328.731	15.02
328.944	92.84
329.157	-21.84
329.37	117.42
329.583	43.69
329.796	94.89
330.009	-17.75
330.222	15.02
330.435	45.74
330.648	86.7
330.861	-11.61
331.073	45.74
331.286	133.8
331.499	66.22
331.712	98.99
331.925	84.65
332.138	-1.37
332.35	66.22
332.563	23.21
332.776	107.18
332.989	-19.8
333.202	12.97
333.414	4.78
333.627	45.74
333.84	-11.61
334.053	12.97
334.265	10.92
334.478	113.32
334.691	21.16
334.903	4.78
335.116	49.83
335.329	33.45
335.541	60.07
335.754	107.18
335.966	29.35
336.179	84.65
336.392	27.31
336.604	21.16
336.817	60.07
337.029	68.27
337.242	33.45
337.454	66.22
337.667	35.5
337.88	80.55
338.092	31.4
338.305	45.74
338.517	27.31
338.729	103.08
338.942	-17.75
339.154	25.26
339.367	-36.18
339.579	53.93
339.792	4.78
340.004	103.08
340.217	127.66
340.429	115.37
340.641	58.03
340.854	68.27
341.066	53.93
341.278	92.84
341.491	101.03
341.703	66.22
341.915	10.92
342.128	10.92
342.34	35.5
342.552	60.07
342.764	53.93
342.977	8.87
343.189	121.51
343.401	70.31
343.613	-5.46
343.826	66.22
344.038	-1.37
344.25	58.03
344.462	23.21
344.674	49.83
344.886	33.45
345.099	101.03
345.311	92.84
345.523	37.55
345.735	-3.41
345.947	148.14
346.159	53.93
346.371	45.74
346.583	29.35
346.795	103.08
347.007	10.92
347.219	53.93
347.431	49.83
347.643	45.74
347.855	53.93
348.067	109.23
348.279	47.79
348.491	27.31
348.703	-25.94
348.915	76.46
349.127	35.5
349.339	39.59
349.551	-23.89
349.763	29.35
349.975	4.78
350.187	35.5
350.399	29.35
350.61	111.27
350.822	41.64
351.034	49.83
351.246	33.45
351.458	-3.41
351.669	105.13
351.881	-7.51
352.093	178.86
352.305	98.99
352.517	92.84
352.728	131.75
352.94	12.97
353.152	105.13
353.363	19.11
353.575	39.59
353.787	103.08
353.999	60.07
354.21	107.18
354.422	21.16
354.633	27.31
354.845	78.51
355.057	60.07
355.268	27.31
355.48	96.94
355.692	12.97
355.903	39.59
356.115	92.84
356.326	17.07
356.538	107.18
356.749	98.99
356.961	68.27
357.172	96.94
357.384	21.16
357.595	25.26
357.807	117.42
358.018	4.78
358.23	35.5
358.441	150.18
358.653	90.79
358.864	82.6
359.075	101.03
359.287	103.08
359.498	103.08
359.709	86.7
359.921	119.46
360.132	70.31
360.344	35.5
360.555	68.27
360.766	84.65
360.977	154.28
361.189	109.23
361.4	43.69
361.611	94.89
361.823	49.83
362.034	80.55
362.245	29.35
362.456	66.22
362.667	51.88
362.879	17.07
363.09	64.17
363.301	4.78
363.512	78.51
363.723	6.83
363.935	-50.52
364.146	90.79
364.357	45.74
364.568	62.12
364.779	39.59
364.99	12.97
365.201	2.73
365.412	88.75
365.623	37.55
365.834	58.03
366.045	92.84
366.256	84.65
366.467	105.13
366.678	27.31
366.889	60.07
367.1	62.12
367.311	62.12
367.522	53.93
367.733	90.79
367.944	90.79
368.155	10.92
368.366	123.56
368.577	55.98
368.788	60.07
368.999	-3.41
369.209	41.64
369.42	129.7
369.631	94.89
369.842	82.6
370.053	-13.65
370.264	98.99
370.474	-36.18
370.685	70.31
370.896	37.55
371.107	107.18
371.317	76.46
371.528	70.31
371.739	82.6
371.95	72.36
372.16	39.59
372.371	0.68
372.582	62.12
372.792	8.87
373.003	96.94
373.214	119.46
373.424	94.89
373.635	8.87
373.846	62.12
374.056	10.92
374.267	111.27
374.477	60.07
374.688	51.88
374.898	60.07
375.109	31.4
375.319	29.35
375.53	74.41
375.74	60.07
375.951	45.74
376.161	43.69
376.372	62.12
376.582	53.93
376.793	111.27
377.003	43.69
377.214	70.31
377.424	60.07
377.635	78.51
377.845	45.74
378.055	60.07
378.266	68.27
378.476	64.17
378.686	62.12
378.897	90.79
379.107	25.26
379.317	109.23
379.528	82.6
379.738	70.31
379.948	60.07
380.158	92.84
380.369	84.65
380.579	127.66
380.789	84.65
380.999	90.79
381.21	109.23
381.42	55.98
381.63	45.74
381.84	84.65
382.05	62.12
382.261	94.89
382.471	80.55
382.681	96.94
382.891	103.08
383.101	70.31
383.311	-11.61
383.521	58.03
383.731	90.79
383.941	12.97
384.151	60.07
384.361	-11.61
384.571	-11.61
384.781	127.66
384.991	70.31
385.201	141.99
385.411	74.41
385.621	49.83
385.831	88.75
386.041	41.64
386.251	25.26
386.461	82.6
386.671	62.12
386.881	66.22
387.091	-11.61
387.301	27.31
387.511	70.31
387.72	64.17
387.93	109.23
388.14	25.26
388.35	37.55
388.56	158.38
388.769	113.32
388.979	37.55
389.189	39.59
389.399	98.99
389.609	74.41
389.818	150.18
390.028	53.93
390.238	33.45
390.447	92.84
390.657	86.7
390.867	94.89
391.076	33.45
391.286	58.03
391.496	127.66
391.705	66.22
391.915	62.12
392.125	64.17
392.334	31.4
392.544	94.89
392.753	164.52
392.963	115.37
393.172	51.88
393.382	68.27
393.591	70.31
393.801	10.92
394.01	103.08
394.22	98.99
394.429	35.5
394.639	64.17
394.848	117.42
395.058	119.46
395.267	92.84
395.477	101.03
395.686	94.89
395.895	152.23
396.105	170.66
396.314	82.6
396.524	193.19
396.733	72.36
396.942	94.89
397.152	92.84
397.361	92.84
397.57	86.7
397.78	88.75
397.989	172.71
398.198	139.94
398.407	135.85
398.617	70.31
398.826	125.61
399.035	82.6
399.244	62.12
399.453	168.62
399.663	148.14
399.872	144.04
400.081	96.94
400.29	43.69
400.499	125.61
400.708	115.37
400.917	185
401.127	182.95
401.336	103.08
401.545	150.18
401.754	72.36
401.963	164.52
402.172	47.79
402.381	131.75
402.59	113.32
402.799	92.84
403.008	133.8
403.217	146.09
403.426	113.32
403.635	96.94
403.844	176.81
404.053	82.6
404.262	152.23
404.471	201.38
404.68	162.47
404.888	225.96
405.097	127.66
405.306	117.42
405.515	189.1
405.724	148.14
405.933	139.94
406.142	176.81
406.35	209.58
406.559	189.1
406.768	205.48
406.977	185
407.185	256.68
407.394	221.86
407.603	213.67
407.812	275.11
408.02	350.89
408.229	228.01
408.438	199.34
408.646	287.4
408.855	291.49
409.064	279.21
409.272	281.25
409.481	383.65
409.69	326.31
409.898	332.45
410.107	348.84
410.315	307.88
410.524	397.99
410.733	332.45
410.941	426.66
411.15	389.8
411.358	357.03
411.567	418.47
411.775	400.04
411.984	402.08
412.192	453.28
412.401	430.76
412.609	516.77
412.818	543.39
413.026	531.11
413.234	477.86
413.443	549.54
413.651	457.38
413.86	602.79
414.068	658.08
414.276	676.51
414.485	709.28
414.693	664.22
414.901	625.31
415.11	776.86
415.318	735.9
415.526	696.99
415.734	766.62
415.943	768.67
416.151	856.73
416.359	895.65
416.567	914.08
416.776	1026.72
416.984	1045.15
417.192	1012.38
417.4	1043.1
417.608	1079.96
417.817	1184.41
418.025	1086.11
418.233	1274.52
418.441	1151.64
418.649	1225.37
418.857	1401.49
419.065	1319.57
419.273	1335.96
419.481	1485.46
419.689	1575.57
419.897	1669.78
420.105	1557.14
420.313	1626.77
420.521	1716.88
420.729	1901.2
420.937	1757.84
421.145	1761.94
421.353	2026.12
421.561	2056.84
421.769	2071.18
421.977	2099.85
422.185	2093.71
422.393	2345.61
422.601	2493.06
422.809	2300.55
423.017	2364.04
423.224	2468.49
423.432	2577.03
423.64	2744.96
423.848	2777.73
424.056	2671.23
424.263	3072.64
424.471	3142.27
424.679	3115.64
424.887	3326.58
425.094	3459.7
425.302	3357.3
425.51	3541.62
425.718	3572.34
425.925	3584.63
426.133	3768.95
426.341	4008.56
426.548	4049.52
426.756	4239.98
426.964	4133.48
427.171	4399.72
427.379	4463.21
427.586	4655.72
427.794	4792.93
428.001	4956.77
428.209	5302.87
428.417	5024.35
428.624	5313.11
428.832	5470.81
429.039	5313.11
429.247	5452.38
429.454	5861.97
429.662	6402.63
429.869	5999.18
430.076	6308.43
430.284	6220.36
430.491	6343.24
430.699	6816.32
430.906	6785.6
431.114	6865.47
431.321	7322.17
431.528	7338.55
431.736	7647.8
431.943	8155.69
432.15	7733.81
432.358	7934.51
432.565	8178.22
432.772	8229.42
432.979	8686.12
433.187	9013.79
433.394	8978.98
433.601	9630.23
433.808	9617.94
434.016	9423.39
434.223	9847.32
434.43	10426.89
434.637	10164.75
434.844	11008.51
435.052	11129.34
435.259	11039.23
435.466	11100.67
435.673	11053.57
435.88	11889.14
436.087	12548.59
436.294	12454.38
436.501	12345.84
436.708	12343.79
436.915	12698.09
437.122	13386.21
437.329	13201.89
437.537	13601.24
437.743	14043.6
437.95	13785.56
438.157	14299.6
438.364	15071.68
438.571	15090.12
438.778	15212.99
438.985	16613.81
439.192	15888.82
439.399	16523.69
439.606	15796.67
439.813	16783.79
440.02	17754.52
440.227	17541.53
440.433	17521.06
440.64	18170.26
440.847	17820.06
441.054	18602.38
441.261	19382.66
441.467	19171.72
441.674	19362.18
441.881	20259.19
442.088	20400.5
442.294	19941.75
442.501	20593.01
442.708	21262.69
442.914	22077.79
443.121	23089.48
443.328	22378.84
443.534	23589.19
443.741	23134.54
443.948	22802.77
444.154	24344.89
444.361	24045.88
444.568	24269.11
444.774	24475.96
444.981	24766.77
445.187	25575.72
445.394	26249.5
445.6	26288.41
445.807	28481.78
446.013	27343.11
446.22	27797.76
446.426	28895.47
446.633	29178.09
446.839	30066.91
447.046	28692.72
447.252	30259.42
447.459	30185.69
447.665	30142.69
447.871	31637.7
448.078	33200.3
448.284	31262.93
448.491	32311.49
448.697	33568.94
448.903	33892.52
449.11	34427.04
449.316	33458.35
449.522	34408.61
449.728	34824.34
449.935	35164.31
450.141	35135.63
450.347	36051.08
450.553	34750.62
450.76	34918.55
450.966	36360.32
451.172	35915.91
451.378	36993.14
451.584	35752.07
451.791	36964.47
451.997	36509.82
452.203	37087.35
452.409	36987
452.615	37103.73
452.821	35315.86
453.027	35231.89
453.233	36999.29
453.44	35227.79
453.646	35913.86
453.852	36010.12
454.058	36759.67
454.264	35418.25
454.47	36171.91
454.676	35063.96
454.882	36456.57
455.088	33126.58
455.294	33835.17
455.5	34273.44
455.705	34615.45
455.911	33241.26
456.117	32624.82
456.323	31781.06
456.529	30425.31
456.735	31576.26
456.941	30759.13
457.147	30255.32
457.352	29544.68
457.558	28670.2
457.764	28858.61
457.97	28643.57
458.176	27764.99
458.381	28012.8
458.587	26442.01
458.793	26425.62
458.999	25053.48
459.204	27066.64
459.41	26009.89
459.616	24262.97
459.821	24684.85
460.027	24566.07
460.233	23916.86
460.438	23161.16
460.644	23066.95
460.85	21789.02
461.055	21877.08
461.261	21330.28
461.466	20042.1
461.672	19353.99
461.878	20896.11
462.083	19802.49
462.289	19141
462.494	18704.78
462.7	18028.95
462.905	17643.93
463.111	18284.95
463.316	18262.42
463.522	17596.83
463.727	17930.65
463.932	17840.54
464.138	17535.39
464.343	17693.08
464.549	17168.8
464.754	17916.31
464.959	17613.21
465.165	17338.79
465.37	16845.23
465.575	16312.75
465.781	16974.25
465.986	17101.22
466.191	16363.95
466.397	16220.6
466.602	15446.46
466.807	16056.76
467.012	15739.32
467.218	15804.86
467.423	15655.36
467.628	16036.28
467.833	16361.9
468.038	15882.68
468.244	15555.01
468.449	15923.64
468.654	15477.18
468.859	15399.36
469.064	15188.42
469.269	14606.8
469.474	14631.37
469.679	14922.18
469.885	14340.56
470.09	14887.37
470.295	14961.09
470.5	14266.83
470.705	14588.36
470.91	14006.74
471.115	14090.71
471.32	13990.36
471.525	14133.71
471.73	13791.7
471.935	13937.11
472.139	13171.17
472.344	13564.38
472.549	13218.27
472.754	13255.14
472.959	12863.97
473.164	12644.84
473.369	12433.9
473.574	12937.7
473.778	12698.09
473.983	12698.09
474.188	12751.34
474.393	11776.5
474.598	11944.44
474.802	11735.54
475.007	11766.26
475.212	11809.27
475.417	11457.02
475.621	11311.61
475.826	11532.79
476.031	11336.19
476.235	11125.25
476.44	11108.87
476.645	10930.69
476.849	11106.82
477.054	10629.64
477.259	10701.32
477.463	10754.57
477.668	10504.71
477.872	10723.85
478.077	10406.41
478.282	10105.36
478.486	10033.68
478.691	9908.76
478.895	10033.68
479.1	9880.08
479.304	9814.55
479.509	9728.53
479.713	10009.11
479.918	9521.69
480.122	9331.23
480.326	9708.05
480.531	9413.15
480.735	9554.46
480.94	9540.12
481.144	9914.9
481.348	9407
481.553	9355.8
481.757	9259.55
481.961	9472.54
482.166	9384.48
482.37	9361.95
482.574	9187.87
482.778	9208.35
482.983	9404.96
483.187	9234.97
483.391	9431.58
483.595	9335.32
483.8	9302.56
484.004	9183.77
484.208	9325.08
484.412	9353.76
484.616	9173.53
484.821	9267.74
485.025	9060.9
485.229	9486.87
485.433	9110.05
485.637	9323.04
485.841	9013.79
486.045	9245.21
486.249	9105.95
486.453	9132.58
486.657	9173.53
486.861	9230.88
487.065	9126.43
487.269	9194.01
487.473	9136.67
487.677	9296.41
487.881	9384.48
488.085	9030.18
488.289	9318.94
488.493	9071.14
488.697	9323.04
488.901	9257.5
489.105	9245.21
489.309	9364
489.512	9433.63
489.716	9384.48
489.92	9445.91
490.124	9466.39
490.328	9513.5
490.531	9482.78
490.735	9552.41
490.939	9607.7
491.143	9546.26
491.346	9400.86
491.55	9630.23
491.754	9624.09
491.958	9589.27
492.161	9687.57
492.365	9728.53
492.569	9884.18
492.772	9830.93
492.976	9914.9
493.18	9878.04
493.383	9955.86
493.587	10037.78
493.79	10326.54
493.994	10080.78
494.197	10177.04
494.401	10387.98
494.605	10281.49
494.808	10471.95
495.012	10490.38
495.215	10674.7
495.419	10727.94
495.622	10770.95
495.825	10676.74
496.029	10654.22
496.232	10969.6
496.436	10863.11
496.639	11237.89
496.843	11260.41
497.046	11446.78
497.249	11708.92
497.453	11672.06
497.656	11739.64
497.859	11866.61
498.063	11721.21
498.266	12241.39
498.469	12073.46
498.673	12044.79
498.876	12417.52
499.079	12489.2
499.282	12587.5
499.485	12925.41
499.689	12988.9
499.892	13156.83
500.095	12849.64
500.298	13394.4
500.501	13515.23
500.705	13619.67
500.908	13857.24
501.111	13947.35
501.314	14105.04
501.517	14348.75
501.72	14492.11
501.923	14395.85
502.126	14772.68
502.329	14977.48
502.532	15055.3
502.735	15131.08
502.938	15497.66
503.141	15530.43
503.344	15706.56
503.547	15845.82
503.75	16112.05
503.953	16343.47
504.156	16435.63
504.359	16466.35
504.562	16675.24
504.765	16982.44
504.968	17471.9
505.17	17435.04
505.373	17285.54
505.576	17732
505.779	17650.08
505.982	18076.05
506.185	18356.63
506.387	18327.95
506.59	18579.86
506.793	18844.04
506.996	18733.45
507.198	19523.97
507.401	19501.44
507.604	19861.88
507.807	20062.58
508.009	20128.12
508.212	20183.41
508.415	20576.62
508.617	20506.99
508.82	20951.4
509.022	20679.02
509.225	21690.72
509.428	21631.33
509.63	21834.08
509.833	21510.5
510.035	22378.84
510.238	22434.13
510.44	22595.92
510.643	23066.95
510.845	23566.66
511.048	23386.44
511.25	23525.7
511.453	23650.63
511.655	24553.78
511.858	24176.95
512.06	24439.09
512.262	24846.64
512.465	24469.81
512.667	25076.01
512.87	25248.04
513.072	25608.48
513.274	26231.07
513.477	26364.18
513.679	26513.69
513.881	26681.62
514.084	26978.57
514.286	27322.63
514.488	27369.74
514.69	28279.04
514.893	28113.15
515.095	28315.9
515.297	28528.89
515.499	28487.93
515.701	28969.2
515.904	29235.44
516.106	29694.18
516.308	29894.88
516.51	30019.81
516.712	30578.9
516.914	30867.67
517.116	31172.81
517.318	31264.97
517.52	31475.91
517.722	31545.55
517.925	32100.54
518.127	32342.21
518.329	32694.46
518.531	32422.08
518.733	33314.99
518.935	33573.03
519.136	33667.24
519.338	33982.63
519.54	34511
519.742	34664.6
519.944	34979.99
520.146	35283.09
520.348	35537.04
520.55	35811.46
520.752	36366.46
520.954	36829.3
521.155	36182.15
521.357	36616.32
521.559	37165.17
521.761	37898.34
521.963	37554.29
522.164	37605.48
522.366	38223.97
522.568	38598.75
522.77	38471.78
522.971	39211.09
523.173	38953.05
523.375	39688.27
523.576	39714.89
523.778	39522.38
523.98	40542.27
524.181	40433.73
524.383	40589.38
524.584	41080.89
524.786	41082.94
524.988	41437.23
525.189	41424.95
525.391	42039.34
525.592	42072.1
525.794	42205.22
525.995	42442.79
526.197	42698.78
526.398	42608.67
526.6	43091.99
526.801	43034.65
527.003	43358.23
527.204	43509.78
527.406	43661.33
527.607	44015.63
527.808	43991.05
528.01	43591.7
528.211	44328.97
528.412	44783.62
528.614	44865.53
528.815	44472.32
529.016	45410.29
529.218	44845.05
529.419	45209.59
529.62	45029.37
529.822	44812.29
530.023	45424.63
530.224	45774.83
530.425	45758.45
530.626	45217.78
530.828	45533.17
531.029	46331.88
531.23	45512.69
531.431	45989.87
531.632	46028.78
531.833	46610.4
532.035	46544.87
532.236	46460.9
532.437	46999.52
532.638	46204.91
532.839	46536.68
533.04	46764
533.241	46295.02
533.442	47163.35
533.643	46962.65
533.844	47271.9
534.045	47024.09
534.246	46569.44
534.447	47192.03
534.648	47032.28
534.849	46901.21
535.05	47032.28
535.251	47388.63
535.451	46964.7
535.652	47298.52
535.853	47372.25
536.054	47474.65
536.255	47368.15
536.456	47134.68
536.657	47284.19
536.857	47271.9
537.058	47368.15
537.259	47458.26
537.46	47454.17
537.66	47232.99
537.861	47417.3
538.062	47425.49
538.263	47194.07
538.463	47136.73
538.664	47618
538.865	47319
539.065	47130.59
539.266	46815.2
539.466	47781.84
539.667	46905.31
539.868	47669.2
540.068	47009.76
540.269	47503.32
540.469	47937.49
540.67	47034.33
540.87	47415.26
541.071	47339.48
541.271	47142.88
541.472	47171.55
541.672	46809.06
541.873	47015.9
542.073	46757.86
542.274	47359.96
542.474	46952.41
542.675	47263.71
542.875	47466.45
543.075	46952.41
543.276	46364.65
543.476	47482.84
543.676	46987.23
543.877	47345.62
544.077	47171.55
544.277	46884.83
544.478	47124.44
544.678	47177.69
544.878	47153.12
545.078	46860.26
545.279	46770.14
545.479	46780.38
545.679	47044.57
545.879	47040.48
546.079	47284.19
546.28	46972.89
546.48	46622.69
546.68	46866.4
546.88	47337.43
547.08	47030.24
547.28	46680.03
547.48	46475.24
547.68	47208.41
547.88	46852.06
548.081	47024.09
548.281	46751.71
548.481	46829.54
548.681	46917.6
548.881	46821.34
549.081	46954.46
549.28	46710.75
549.48	46958.56
549.68	46737.38
549.88	47304.66
550.08	46335.98
550.28	46673.89
550.48	46663.65
550.68	47425.49
550.88	46161.9
551.08	46440.42
551.279	46798.82
551.479	45897.71
551.679	46026.73
551.879	46487.53
552.079	46639.07
552.278	46458.85
552.478	46499.81
552.678	46237.67
552.878	46893.02
553.077	46446.57
553.277	46233.58
553.477	46684.13
553.676	46063.6
553.876	46272.49
554.076	46202.86
554.275	45854.7
554.475	45817.84
554.674	46239.72
554.874	46122.99
555.074	45866.99
555.273	46059.5
555.473	46069.74
555.672	45707.25
555.872	46235.63
556.071	45398.01
556.271	46213.1
556.47	45596.66
556.67	45359.09
556.869	45449.21
557.068	45721.58
557.268	45242.36
557.467	45590.51
557.667	45242.36
557.866	45455.35
558.065	44853.25
558.265	45039.61
558.464	45314.04
558.663	45395.96
558.863	44892.16
559.062	45660.15
559.261	44773.38
559.461	45246.46
559.66	44165.13
559.859	44890.11
560.058	44015.63
560.258	44505.09
560.457	44212.23
560.656	44476.42
560.855	44371.97
561.054	44548.1
561.253	44142.6
561.453	44320.77
561.652	43935.76
561.851	44253.19
562.05	44070.92
562.249	43520.02
562.448	44206.09
562.647	44085.26
562.846	43270.17
563.045	43751.44
563.244	43274.26
563.443	43501.59
563.642	42625.06
563.841	43147.29
564.04	43005.98
564.239	43427.86
564.438	42745.89
564.637	43022.36
564.836	42817.57
565.035	42072.1
565.234	42580
565.432	42250.28
565.631	42324
565.83	42393.64
566.029	42029.1
566.228	41912.36
566.427	41838.64
566.625	41947.18
566.824	41271.35
567.023	41824.3
567.222	40704.06
567.42	41443.38
567.619	41496.63
567.818	41343.03
568.016	41162.81
568.215	41269.3
568.414	40704.06
568.612	40998.97
568.811	40429.63
569.01	40484.93
569.208	39931.98
569.407	40689.73
569.605	40319.04
569.804	40452.16
570.002	39733.32
570.201	40159.3
570.4	39762
570.598	39356.5
570.797	39452.75
570.995	39487.57
571.193	39037.01
571.392	39462.99
571.59	39102.55
571.789	39157.85
571.987	38725.72
572.186	38877.27
572.384	38410.34
572.582	38885.47
572.781	38967.38
572.979	38006.89
573.177	38000.74
573.376	38203.49
573.574	37851.24
573.772	38174.82
573.971	37754.99
574.169	37726.31
574.367	37079.16
574.565	37828.71
574.763	37320.82
574.962	37730.41
575.16	36759.67
575.358	36974.71
575.556	36327.55
575.754	37111.92
575.952	36345.98
576.151	37013.62
576.349	36194.43
576.547	36300.93
576.745	35967.11
576.943	36399.23
577.141	36153.47
577.339	36446.33
577.537	36049.03
577.735	35838.09
577.933	35428.49
578.131	35999.88
578.329	35680.39
578.527	35516.56
578.725	35629.19
578.923	35330.19
579.121	34750.62
579.319	35231.89
579.516	35037.33
579.714	34900.12
579.912	34943.13
580.11	34779.29
580.308	34597.02
580.506	34695.32
580.704	34128.03
580.901	34545.82
581.099	34480.28
581.297	34293.92
581.495	34158.75
581.692	34162.85
581.89	33913
582.088	34128.03
582.285	33603.75
582.483	33650.86
582.681	33570.99
582.878	33335.47
583.076	33177.78
583.274	33368.24
583.471	32866.49
583.669	32917.68
583.866	32729.27
584.064	32958.64
584.262	32383.16
584.459	32743.61
584.657	32749.75
584.854	32854.2
585.052	31799.49
585.249	32262.33
585.447	32370.88
585.644	31977.67
585.841	31815.88
586.039	32166.08
586.236	32053.44
586.434	31736.01
586.631	31453.39
586.828	31848.64
587.026	31326.41
587.223	31310.03
587.42	31056.08
587.618	31213.77
587.815	31076.56
588.012	30955.73
588.21	30662.87
588.407	31217.87
588.604	30568.66
588.801	30613.72
588.999	30417.11
589.196	30224.61
589.393	30144.73
589.59	30200.03
589.787	29989.09
589.984	29993.18
590.182	29798.63
590.379	30269.66
590.576	29860.07
590.773	29503.72
590.97	29446.38
591.167	29634.79
591.364	29114.61
591.561	29329.64
591.758	29085.93
591.955	29153.52
592.152	29292.78
592.349	29221.1
592.546	29196.53
592.743	28879.09
592.94	28467.45
593.137	28770.55
593.334	28692.72
593.531	28305.66
593.727	28684.53
593.924	28475.64
594.121	27910.4
594.318	28481.78
594.515	27701.51
594.712	27902.21
594.908	27689.22
595.105	27887.87
595.302	27746.56
595.499	27566.34
595.696	27752.71
595.892	27549.96
596.089	27672.84
596.286	27572.49
596.482	27220.24
596.679	27420.94
596.876	27558.15
597.072	26865.94
597.269	27183.37
597.466	26585.36
597.662	26876.18
597.859	26751.25
598.055	26568.98
598.252	26450.2
598.448	26575.13
598.645	26462.49
598.841	26122.52
599.038	26108.19
599.234	26294.55
599.431	26278.17
599.627	25764.13
599.824	26048.8
600.02	25764.13
600.217	25930.01
600.413	25393.45
600.609	25592.1
600.806	25321.77
601.002	25661.73
601.198	25114.92
601.395	25082.16
601.591	25327.91
601.787	25391.4
601.984	25057.58
602.18	24930.61
602.376	24805.68
602.572	24944.94
602.769	25061.68
602.965	24383.8
603.161	24150.33
603.357	24369.46
603.553	24449.33
603.75	24623.41
603.946	23978.3
604.142	24391.99
604.338	23929.15
604.534	24019.26
604.73	23781.7
604.926	23785.79
605.122	23957.82
605.318	24127.8
605.514	23517.51
605.71	23640.39
605.906	23834.94
606.102	23599.43
606.298	23267.66
606.494	23433.54
606.69	23376.2
606.886	23173.45
607.082	23062.86
607.278	23337.29
607.474	22966.6
607.67	23019.85
607.866	22661.46
608.062	23451.97
608.257	22851.92
608.453	22948.17
608.649	22919.5
608.845	22671.7
609.041	22509.91
609.236	22446.42
609.432	22618.45
609.628	22509.91
609.824	22393.17
610.019	22221.14
610.215	22401.36
610.411	22419.8
610.606	22092.12
610.802	22098.27
610.998	22180.18
611.193	22161.75
611.389	21948.76
611.584	22081.88
611.78	21870.94
611.976	21791.07
612.171	21547.36
612.367	22112.6
612.562	21612.9
612.758	21567.84
612.953	21553.51
613.149	21934.43
613.344	21395.81
613.539	21522.79
613.735	21557.6
613.93	21496.16
614.126	21195.11
614.321	21606.75
614.517	21254.5
614.712	21125.48
614.907	21074.28
615.103	21379.43
615.298	21037.42
615.493	21336.42
615.688	20687.22
615.884	21334.37
616.079	20701.55
616.274	21240.17
616.47	20652.4
616.665	20707.69
616.86	20490.61
617.055	20629.87
617.25	20484.47
617.445	20816.24
617.641	20263.29
617.836	20535.67
618.031	20349.3
618.226	20351.35
618.421	20146.55
618.616	20478.32
618.811	20035.96
619.006	20230.52
619.201	19937.66
619.396	20222.33
619.591	19730.81
619.786	19792.25
619.981	19411.33
620.176	19825.02
620.371	19261.83
620.566	19607.94
620.761	19427.71
620.956	19485.06
621.151	19151.24
621.346	19259.78
621.541	18837.9
621.735	19276.16
621.93	18870.67
622.125	18831.76
622.32	18489.74
622.515	18657.68
622.709	18416.02
622.904	18663.82
623.099	18252.18
623.294	18334.1
623.488	17830.3
623.683	18432.4
623.878	17863.07
624.072	18092.44
624.267	17707.42
624.462	17805.72
624.656	17494.43
624.851	17525.15
625.046	17238.44
625.24	17598.88
625.435	17093.03
625.629	17185.19
625.824	17162.66
626.018	17086.89
626.213	16476.59
626.407	16638.38
626.602	16665
626.796	16675.24
626.991	16642.48
627.185	16689.58
627.38	16347.57
627.574	16263.6
627.768	16204.21
627.963	15856.06
628.157	16034.23
628.352	16023.99
628.546	15569.34
628.74	15882.68
628.935	15735.23
629.129	15512
629.323	15196.61
629.517	15321.54
629.712	15202.75
629.906	15372.74
630.1	15075.78
630.294	15108.55
630.489	14887.37
630.683	15163.84
630.877	14625.23
631.071	14682.57
631.265	14944.71
631.459	14668.23
631.653	14633.42
631.848	14641.61
632.042	14307.79
632.236	14315.98
632.43	14297.55
632.624	14025.17
632.818	13939.16
633.012	14047.7
633.206	13742.55
633.4	13990.36
633.594	13736.41
633.788	13928.92
633.982	13636.06
634.176	13799.9
634.369	13470.17
634.563	13572.57
634.757	13486.56
634.951	13423.07
635.145	13234.66
635.339	13130.21
635.533	13355.49
635.726	13130.21
635.92	13044.2
636.114	12769.77
636.308	12876.26
636.501	12892.65
636.695	12476.91
636.889	12616.17
637.083	12548.59
637.276	12351.98
637.47	12534.25
637.664	12335.6
637.857	12311.02
638.051	12257.78
638.244	12200.43
638.438	12128.75
638.632	12075.51
638.825	11774.45
639.019	12026.36
639.212	11823.61
639.406	11762.17
639.599	11735.54
639.793	11538.94
639.986	11448.83
640.18	11538.94
640.373	11346.43
640.567	11330.05
640.76	11383.29
640.954	11080.19
641.147	11026.95
641.34	11086.34
641.534	11055.62
641.727	10871.3
641.92	10965.51
642.114	10719.75
642.307	10793.48
642.5	10662.41
642.694	10584.59
642.887	10697.22
643.08	10484.23
643.273	10512.91
643.467	10252.81
643.66	10396.17
643.853	10435.08
644.046	10005.01
644.239	10111.5
644.432	10174.99
644.626	9941.52
644.819	10068.5
645.012	10107.41
645.205	9914.9
645.398	9843.22
645.591	9708.05
645.784	9828.88
645.977	9769.49
646.17	9656.86
646.363	9519.64
646.556	9667.1
646.749	9624.09
646.942	9450.01
647.135	9368.09
647.328	9392.67
647.521	9364
647.714	9243.17
647.907	9222.69
648.099	9019.94
648.292	9155.1
648.485	9103.9
648.678	8927.78
648.871	8974.88
649.064	8944.16
649.256	8856.1
649.449	8833.57
649.642	8757.8
649.835	8708.65
650.027	8729.13
650.22	8626.73
650.413	8753.7
650.605	8563.24
650.798	8450.6
650.991	8503.85
651.183	8491.56
651.376	8540.71
651.568	8413.74
651.761	8426.03
651.954	8311.34
652.146	8278.57
652.339	8190.51
652.531	8094.26
652.724	8155.69
652.916	8118.83
653.109	7934.51
653.301	8026.67
653.494	7963.19
653.686	7860.79
653.879	7983.66
654.071	7864.88
654.263	7850.55
654.456	7766.58
654.648	7797.3
654.84	7569.98
655.033	7598.65
655.225	7645.75
655.417	7668.28
655.61	7440.95
655.802	7275.07
655.994	7207.48
656.186	7365.18
656.379	7369.27
656.571	7385.66
656.763	7160.38
656.955	7146.05
657.148	7092.8
657.34	7359.03
657.532	7098.94
657.724	7131.71
657.916	7031.36
658.108	6986.3
658.3	7086.65
658.492	6996.54
658.684	7037.5
658.876	6894.15
659.068	6830.66
659.26	6793.8
659.452	6750.79
659.644	6689.35
659.836	6572.61
660.028	6681.16
660.22	6773.32
660.412	6629.96
660.604	6554.18
660.796	6705.73
660.988	6537.8
661.18	6527.56
661.372	6394.44
661.563	6335.05
661.755	6545.99
661.947	6400.59
662.139	6380.11
662.331	6296.14
662.522	6275.66
662.714	6107.73
662.906	6017.61
663.097	6234.7
663.289	5829.2
663.481	5997.14
663.673	5974.61
663.864	5982.8
664.056	5943.89
664.247	6017.61
664.439	5739.09
664.631	5935.7
664.822	6142.54
665.014	5845.59
665.205	5829.2
665.397	5706.32
665.588	5868.11
665.78	5892.69
665.971	5747.28
666.163	5706.32
666.354	5622.36
666.546	5665.36
666.737	5626.45
666.929	5634.64
667.12	5673.56
667.311	5405.27
667.503	5491.29
667.694	5579.35
667.885	5452.38
668.077	5591.64
668.268	5427.8
668.459	5460.57
668.651	5468.76
668.842	5435.99
669.033	5300.83
669.224	5333.59
669.416	5403.22
669.607	5257.82
669.798	5317.21
669.989	5306.97
670.18	5282.39
670.371	5345.88
670.563	5157.47
670.754	5157.47
670.945	5229.15
671.136	5147.23
671.327	5198.43
671.518	5061.21
671.709	5065.31
671.9	5243.48
672.091	5130.84
672.282	5112.41
672.473	5042.78
672.664	4983.39
672.855	4936.29
673.046	5014.11
673.237	4981.34
673.428	5093.98
673.619	4999.77
673.809	4962.91
674	4833.89
674.191	4964.96
674.382	4850.27
674.573	5048.93
674.764	5059.17
674.954	4880.99
675.145	4977.25
675.336	4856.42
675.527	4837.98
675.717	4944.48
675.908	4731.49
676.099	4907.62
676.289	4762.21
676.48	4852.32
676.671	4817.51
676.861	4797.03
677.052	4653.67
677.243	4739.68
677.433	4721.25
677.624	4766.31
677.814	4823.65
678.005	4772.45
678.195	4645.48
678.386	4790.88
678.576	4625
678.767	4741.73
678.957	4754.02
679.148	4641.38
679.338	4829.79
679.529	4756.07
679.719	4622.95
679.909	4721.25
680.1	4684.39
680.29	4524.65
680.481	4704.87
680.671	4770.4
680.861	4698.72
681.052	4706.91
681.242	4647.52
681.432	4815.46
681.622	4579.94
681.813	4538.98
682.003	4581.99
682.193	4395.62
682.383	4473.45
682.573	4563.56
682.764	4682.34
682.954	4715.11
683.144	4612.71
683.334	4588.13
683.524	4522.6
683.714	4575.84
683.904	4538.98
684.094	4563.56
684.284	4516.45
684.474	4510.31
684.664	4465.25
684.854	4520.55
685.044	4510.31
685.234	4536.93
685.424	4452.97
685.614	4455.01
685.804	4430.44
685.994	4440.68
686.184	4416.1
686.374	4405.86
686.564	4467.3
686.753	4477.54
686.943	4407.91
687.133	4356.71
687.323	4133.48
687.513	4403.82
687.702	4248.17
687.892	4256.36
688.082	4328.04
688.272	4319.85
688.461	4276.84
688.651	4416.1
688.841	4182.63
689.03	4051.56
689.22	4282.99
689.41	4123.24
689.599	4285.03
689.789	4141.68
689.979	4133.48
690.168	4201.07
690.358	4172.4
690.547	4182.63
690.737	4149.87
690.926	4125.29
691.116	4168.3
691.305	4084.33
691.495	4055.66
691.684	4125.29
691.874	3963.5
692.063	4010.61
692.252	4016.75
692.442	4043.37
692.631	3826.29
692.82	3902.06
693.01	3857.01
693.199	3820.14
693.388	3943.02
693.578	3986.03
693.767	4035.18
693.956	4018.8
694.146	3789.42
694.335	3865.2
694.524	3807.86
694.713	3887.73
694.902	3768.95
695.092	3826.29
695.281	3814
695.47	3785.33
695.659	3744.37
695.848	3811.95
696.037	3719.79
696.226	3789.42
696.415	3748.47
696.604	3756.66
696.793	3689.07
696.982	3785.33
697.171	3867.25
697.36	3736.18
697.549	3707.51
697.738	3547.76
697.927	3738.23
698.116	3730.03
698.305	3674.74
698.494	3639.92
698.683	3582.58
698.872	3787.38
699.061	3744.37
699.25	3601.01
699.438	3770.99
699.627	3531.38
699.816	3635.83
700.005	3596.92
700.193	3693.17
700.382	3660.4
700.571	3580.53
700.76	3617.4
700.948	3699.31
701.137	3564.15
701.326	3601.01
701.514	3644.02
701.703	3734.13
701.892	3701.36
702.08	3738.23
702.269	3619.44
702.457	3707.51
702.646	3625.59
702.834	3609.2
703.023	3609.2
703.212	3574.39
703.4	3629.68
703.589	3666.55
703.777	3658.35
703.965	3676.79
704.154	3617.4
704.342	3680.88
704.531	3588.72
704.719	3543.67
704.907	3711.6
705.096	3644.02
705.284	3680.88
705.472	3633.78
705.661	3615.35
705.849	3588.72
706.037	3691.12
706.226	3580.53
706.414	3740.27
706.602	3515
706.79	3691.12
706.979	3691.12
707.167	3627.64
707.355	3519.09
707.543	3682.93
707.731	3672.69
707.919	3711.6
708.107	3709.55
708.296	3564.15
708.484	3777.14
708.672	3621.49
708.86	3568.24
709.048	3646.07
709.236	3558
709.424	3607.16
709.612	3601.01
709.8	3625.59
709.988	3570.29
710.176	3664.5
710.364	3703.41
710.551	3674.74
710.739	3596.92
710.927	3719.79
711.115	3641.97
711.303	3670.64
711.491	3744.37
711.679	3660.4
711.866	3826.29
712.054	3740.27
712.242	3670.64
712.43	3664.5
712.617	3558
712.805	3639.92
712.993	3631.73
713.181	3617.4
713.368	3609.2
713.556	3633.78
713.744	3590.77
713.931	3799.66
714.119	3613.3
714.306	3672.69
714.494	3691.12
714.682	3603.06
714.869	3609.2
715.057	3684.98
715.244	3781.23
715.432	3699.31
715.619	3615.35
715.807	3789.42
715.994	3744.37
716.182	3656.31
716.369	3641.97
716.556	3713.65
716.744	3592.82
716.931	3695.22
717.119	3641.97
717.306	3758.71
717.493	3697.27
717.681	3672.69
717.868	3727.99
718.055	3674.74
718.242	3623.54
718.43	3678.83
718.617	3547.76
718.804	3678.83
718.991	3684.98
719.179	3521.14
719.366	3670.64
719.553	3666.55
719.74	3596.92
719.927	3664.5
720.114	3519.09
720.301	3582.58
720.488	3633.78
720.676	3504.76
720.863	3637.88
721.05	3713.65
721.237	3678.83
721.424	3711.6
721.611	3689.07
721.798	3695.22
721.985	3637.88
722.172	3576.44
722.358	3531.38
722.545	3555.96
722.732	3578.48
722.919	3646.07
723.106	3576.44
723.293	3738.23
723.48	3588.72
723.667	3625.59
723.853	3576.44
724.04	3666.55
724.227	3680.88
724.414	3586.68
724.6	3621.49
724.787	3629.68
724.974	3639.92
725.161	3596.92
725.347	3535.48
725.534	3551.86
725.72	3662.45
725.907	3564.15
726.094	3631.73
726.28	3570.29
726.467	3469.94
726.653	3601.01
726.84	3623.54
727.027	3633.78
727.213	3476.09
727.4	3447.41
727.586	3486.33
727.773	3687.03
727.959	3402.36
728.145	3465.85
728.332	3527.28
728.518	3689.07
728.705	3418.74
728.891	3482.23
729.077	3586.68
729.264	3476.09
729.45	3396.21
729.636	3558
729.823	3484.28
730.009	3619.44
730.195	3535.48
730.382	3404.41
730.568	3543.67
730.754	3584.63
730.94	3404.41
731.126	3533.43
731.313	3570.29
731.499	3371.64
731.685	3486.33
731.871	3392.12
732.057	3410.55
732.243	3523.19
732.429	3330.68
732.615	3533.43
732.801	3553.91
732.987	3398.26
733.173	3492.47
733.359	3402.36
733.545	3416.69
733.731	3494.52
733.917	3392.12
734.103	3453.56
734.289	3437.17
734.475	3324.54
734.661	3502.71
734.847	3420.79
735.033	3461.75
735.219	3302.01
735.404	3357.3
735.59	3406.45
735.776	3277.43
735.962	3318.39
736.148	3349.11
736.333	3314.3
736.519	3340.92
736.705	3375.74
736.89	3365.5
737.076	3289.72
737.262	3250.81
737.447	3254.91
737.633	3285.62
737.819	3183.23
738.004	3326.58
738.19	3373.69
738.375	3222.14
738.561	3261.05
738.747	3281.53
738.932	3222.14
739.118	3273.34
739.303	3412.6
739.489	3381.88
739.674	3195.51
739.859	3160.7
740.045	3166.84
740.23	3168.89
740.416	3113.6
740.601	3097.21
740.786	3197.56
740.972	3095.16
741.157	3148.41
741.342	3072.64
741.528	3113.6
741.713	3080.83
741.898	3052.16
742.084	3023.48
742.269	3029.63
742.454	3175.03
742.639	3003
742.824	3093.12
743.01	3099.26
743.195	3074.68
743.38	3000.96
743.565	2869.89
743.75	2927.23
743.935	2900.61
744.12	2966.14
744.305	2841.22
744.49	2876.03
744.675	2851.46
744.86	2886.27
745.045	2798.21
745.23	2841.22
745.415	2740.86
745.6	2812.54
745.785	2755.2
745.97	2841.22
746.155	2695.81
746.34	2736.77
746.525	2706.05
746.71	2720.39
746.895	2701.95
747.079	2544.26
747.264	2683.52
747.449	2611.84
747.634	2605.7
747.819	2595.46
748.003	2638.47
748.188	2546.31
748.373	2652.8
748.557	2448.01
748.742	2568.84
748.927	2564.74
749.111	2503.3
749.296	2566.79
749.481	2460.29
749.665	2435.72
749.85	2427.53
750.034	2427.53
750.219	2376.33
750.404	2462.34
750.588	2370.18
750.773	2384.52
750.957	2267.78
751.141	2310.79
751.326	2298.5
751.51	2243.21
751.695	2298.5
751.879	2337.41
752.064	2269.83
752.248	2312.84
752.432	2349.7
752.617	2294.41
752.801	2185.87
752.985	2161.29
753.17	2130.57
753.354	2140.81
753.538	2114.19
753.722	2095.75
753.907	1995.4
754.091	2060.94
754.275	2040.46
754.459	2105.99
754.643	2101.9
754.828	1976.97
755.012	1972.88
755.196	1954.44
755.38	2015.88
755.564	1979.02
755.748	1991.31
755.932	1872.53
756.116	1929.87
756.3	1868.43
756.484	1772.18
756.668	1909.39
756.852	1766.03
757.036	1899.15
757.22	1845.9
757.404	1772.18
757.588	1673.87
757.772	1708.69
757.956	1776.27
758.14	1733.26
758.323	1675.92
758.507	1751.7
758.691	1876.62
758.875	1723.02
759.059	1825.42
759.242	1690.26
759.426	1659.54
759.61	1700.5
759.794	1667.73
759.977	1620.63
760.161	1770.13
760.345	1682.07
760.528	1569.43
760.712	1581.71
760.895	1594
761.079	1520.28
761.263	1569.43
761.446	1456.79
761.63	1503.89
761.813	1522.32
761.997	1589.91
762.18	1510.04
762.364	1567.38
762.547	1575.57
762.731	1618.58
762.914	1536.66
763.098	1434.26
763.281	1495.7
763.464	1372.82
763.648	1505.94
763.831	1460.88
764.015	1493.65
764.198	1448.6
764.381	1458.84
764.564	1479.32
764.748	1460.88
764.931	1344.15
765.114	1456.79
765.297	1415.83
765.481	1356.44
765.664	1333.91
765.847	1383.06
766.03	1372.82
766.213	1290.9
766.397	1368.73
766.58	1370.77
766.763	1331.86
766.946	1401.49
767.129	1340.05
767.312	1309.33
767.495	1278.62
767.678	1243.8
767.861	1344.15
768.044	1272.47
768.227	1376.92
768.41	1233.56
768.593	1282.71
768.776	1354.39
768.959	1276.57
769.142	1385.11
769.324	1233.56
769.507	1235.61
769.69	1266.33
769.873	1311.38
770.056	1229.46
770.239	1163.93
770.421	1221.27
770.604	1174.17
770.787	1219.22
770.97	1159.83
771.152	1176.22
771.335	1127.07
771.518	1153.69
771.7	1215.13
771.883	1227.42
772.066	1159.83
772.248	1135.26
772.431	1141.4
772.613	1118.87
772.796	1102.49
772.978	1143.45
773.161	1061.53
773.343	1004.19
773.526	948.89
773.708	1047.19
773.891	1092.25
774.073	1075.87
774.256	1053.34
774.438	1106.59
774.621	985.76
774.803	1034.91
774.985	1022.62
775.168	928.41
775.35	1006.24
775.532	1008.28
775.715	1129.11
775.897	959.13
776.079	1049.24
776.261	987.8
776.444	1008.28
776.626	1008.28
776.808	948.89
776.99	893.6
777.173	895.65
777.355	889.5
777.537	899.74
777.719	909.98
777.901	893.6
778.083	922.27
778.265	836.25
778.447	869.02
778.629	844.45
778.811	840.35
778.993	862.88
779.175	877.21
779.357	840.35
779.539	828.06
779.721	815.77
779.903	938.65
780.085	838.3
780.267	817.82
780.449	699.04
780.631	785.05
780.812	731.81
780.994	813.73
781.176	840.35
781.358	742.05
781.54	651.94
781.721	787.1
781.903	692.9
782.085	694.94
782.267	721.57
782.448	715.42
782.63	744.1
782.812	696.99
782.993	719.52
783.175	711.33
783.357	690.85
783.538	774.81
783.72	686.75
783.901	699.04
784.083	699.04
784.264	649.89
784.446	619.17
784.627	602.79
784.809	623.27
784.99	590.5
785.172	656.03
785.353	623.27
785.535	604.83
785.716	533.15
785.897	592.55
786.079	676.51
786.26	623.27
786.441	639.65
786.623	543.39
786.804	488.1
786.985	578.21
787.167	582.31
787.348	547.49
787.529	600.74
787.71	647.84
787.891	508.58
788.073	510.63
788.254	520.87
788.435	623.27
788.616	535.2
788.797	553.63
788.978	488.1
789.159	488.1
789.34	451.24
789.522	537.25
789.703	508.58
789.884	510.63
790.065	496.29
790.246	549.54
790.427	434.85
790.607	477.86
790.788	539.3
790.969	459.43
791.15	477.86
791.331	422.56
791.512	484
791.693	492.2
791.874	461.48
792.054	578.21
792.235	428.71
792.416	371.37
792.597	447.14
792.778	502.44
792.958	383.65
793.139	438.95
793.32	457.38
793.5	463.52
793.681	471.72
793.862	420.52
794.042	457.38
794.223	443.04
794.404	457.38
794.584	361.13
794.765	385.7
794.945	428.71
795.126	412.32
795.306	467.62
795.487	352.93
795.667	373.41
795.848	404.13
796.028	357.03
796.209	383.65
796.389	455.33
796.57	393.89
796.75	385.7
796.93	432.8
797.111	334.5
797.291	441
797.471	397.99
797.652	332.45
797.832	387.75
798.012	379.56
798.192	369.32
798.373	342.69
798.553	381.6
798.733	330.41
798.913	397.99
799.093	291.49
799.274	297.64
799.454	342.69
799.634	381.6
799.814	361.13
799.994	322.21
800.174	332.45
800.354	381.6
800.534	373.41
800.714	348.84
800.894	377.51
801.074	342.69
801.254	285.35
801.434	330.41
801.614	260.77
801.794	260.77
801.974	879.26
802.154	311.97
802.334	402.08
802.514	275.11
802.693	275.11
802.873	283.3
803.053	340.65
803.233	299.69
803.413	391.84
803.592	295.59
803.772	238.25
803.952	240.3
804.131	242.34
804.311	414.37
804.491	266.92
804.67	314.02
804.85	254.63
805.03	264.87
805.209	275.11
805.389	271.01
805.568	279.21
805.748	271.01
805.928	271.01
806.107	303.78
806.287	273.06
806.466	283.3
806.646	242.34
806.825	273.06
807.004	324.26
807.184	273.06
807.363	346.79
807.543	262.82
807.722	262.82
807.901	357.03
808.081	281.25
808.26	244.39
808.439	293.54
808.619	303.78
808.798	256.68
808.977	256.68
809.156	217.77
809.336	195.24
809.515	223.91
809.694	230.06
809.873	242.34
810.052	225.96
810.231	299.69
810.411	299.69
810.59	338.6
810.769	246.44
810.948	258.73
811.127	213.67
811.306	205.48
811.485	213.67
811.664	299.69
811.843	172.71
812.022	266.92
812.201	164.52
812.38	266.92
812.559	295.59
812.737	207.53
812.916	141.99
813.095	217.77
813.274	215.72
813.453	209.58
813.632	174.76
813.811	185
813.989	182.95
814.168	215.72
814.347	283.3
814.526	211.62
814.704	240.3
814.883	262.82
815.062	209.58
815.24	238.25
815.419	225.96
815.598	152.23
815.776	139.94
815.955	213.67
816.133	131.75
816.312	160.42
816.49	180.9
816.669	203.43
816.847	201.38
817.026	217.77
817.204	195.24
817.383	182.95
817.561	207.53
817.74	258.73
817.918	215.72
818.097	201.38
818.275	180.9
818.453	170.66
818.632	185
818.81	193.19
818.988	109.23
819.167	121.51
819.345	221.86
819.523	199.34
819.701	168.62
819.879	172.71
820.058	232.1
820.236	193.19
820.414	121.51
820.592	111.27
820.77	170.66
820.948	176.81
821.127	117.42
821.305	158.38
821.483	141.99
821.661	228.01
821.839	133.8
822.017	141.99
822.195	213.67
822.373	150.18
822.551	172.71
822.729	94.89
822.907	225.96
823.085	182.95
823.262	144.04
823.44	90.79
823.618	166.57
823.796	135.85
823.974	158.38
824.152	107.18
824.329	101.03
824.507	189.1
824.685	180.9
824.863	154.28
825.04	103.08
825.218	78.51
825.396	148.14
825.574	92.84
825.751	152.23
825.929	123.56
826.107	135.85
826.284	168.62
826.462	150.18
826.639	144.04
826.817	207.53
826.994	172.71
827.172	152.23
827.349	205.48
827.527	170.66
827.704	160.42
827.882	135.85
828.059	96.94
828.237	86.7
828.414	211.62
828.591	88.75
828.769	189.1
828.946	115.37
829.124	119.46
829.301	144.04
829.478	94.89
829.655	174.76
829.833	74.41
830.01	49.83
830.187	98.99
830.364	105.13
830.542	174.76
830.719	168.62
830.896	129.7
831.073	111.27
831.25	139.94
831.427	101.03
831.604	119.46
831.782	109.23
831.959	150.18
832.136	37.55
832.313	139.94
832.49	111.27
832.667	141.99
832.844	109.23
833.021	94.89
833.198	113.32
833.374	113.32
833.551	60.07
833.728	109.23
833.905	166.57
834.082	150.18
834.259	123.56
834.436	49.83
834.612	131.75
834.789	98.99
834.966	84.65
835.143	174.76
835.319	12.97
835.496	180.9
835.673	53.93
835.85	135.85
836.026	90.79
836.203	86.7
836.38	101.03
836.556	94.89
836.733	107.18
836.909	135.85
837.086	2.73
837.262	82.6
837.439	96.94
837.616	43.69
837.792	64.17
837.968	105.13
838.145	37.55
838.321	72.36
838.498	107.18
838.674	78.51
838.851	125.61
839.027	117.42
839.203	144.04
839.38	98.99
839.556	66.22
839.732	105.13
839.909	58.03
840.085	141.99
840.261	8.87
840.437	103.08
840.614	70.31
840.79	92.84
840.966	111.27
841.142	76.46
841.318	68.27
841.494	121.51
841.671	131.75
841.847	68.27
842.023	37.55
842.199	62.12
842.375	78.51
842.551	27.31
842.727	139.94
842.903	105.13
843.079	60.07
843.255	105.13
843.431	74.41
843.607	115.37
843.783	37.55
843.959	119.46
844.134	74.41
844.31	43.69
844.486	45.74
844.662	21.16
844.838	51.88
845.013	123.56
845.189	86.7
845.365	90.79
845.541	109.23
845.716	66.22
845.892	86.7
846.068	49.83
846.244	113.32
846.419	84.65
846.595	94.89
846.77	41.64
846.946	35.5
847.122	31.4
847.297	-3.41
847.473	19.11
847.648	70.31
847.824	35.5
847.999	43.69
848.175	94.89
848.35	-7.51
848.526	119.46
848.701	58.03
848.876	60.07
849.052	90.79
849.227	82.6
849.403	55.98
849.578	45.74
849.753	107.18
849.929	103.08
850.104	119.46
850.279	72.36
850.454	27.31
850.63	103.08
850.805	86.7
850.98	35.5
851.155	53.93
851.33	135.85
851.505	39.59
851.681	66.22
851.856	-9.56
852.031	68.27
852.206	45.74
852.381	27.31
852.556	53.93
852.731	31.4
852.906	113.32
853.081	107.18
853.256	70.31
853.431	62.12
853.606	-3.41
853.781	53.93
853.956	-19.8
854.131	29.35
854.305	21.16
854.48	51.88
854.655	-17.75
854.83	33.45
855.005	144.04
855.18	43.69
855.354	45.74
855.529	94.89
855.704	19.11
855.879	53.93
856.053	-109.91
856.228	60.07
856.403	76.46
856.577	66.22
856.752	37.55
856.926	45.74
857.101	45.74
857.276	21.16
857.45	17.07
857.625	82.6
857.799	39.59
857.974	39.59
858.148	55.98
858.323	70.31
858.497	45.74
858.672	29.35
858.846	62.12
859.02	82.6
859.195	51.88
859.369	10.92
859.543	37.55
859.718	66.22
859.892	-71
860.066	68.27
860.241	37.55
860.415	-17.75
860.589	41.64
860.763	17.07
860.938	-3.41
861.112	49.83
861.286	90.79
861.46	31.4
861.634	15.02
861.808	76.46
861.982	21.16
862.157	47.79
862.331	78.51
862.505	58.03
862.679	58.03
862.853	35.5
863.027	29.35
863.201	107.18
863.375	17.07
863.549	80.55
863.722	78.51
863.896	29.35
864.07	33.45
864.244	-17.75
864.418	144.04
864.592	29.35
864.766	68.27
864.939	55.98
865.113	68.27
865.287	113.32
865.461	-13.65
865.634	51.88
865.808	60.07
865.982	-1.37
866.156	39.59
866.329	-17.75
866.503	33.45
866.676	55.98
866.85	35.5
867.024	37.55
867.197	-36.18
867.371	27.31
867.544	-3.41
867.718	-3.41
867.891	8.87
868.065	27.31
868.238	49.83
868.412	49.83
868.585	-36.18
868.759	29.35
868.932	4.78
869.105	60.07
869.279	33.45
869.452	82.6
869.625	60.07
869.799	51.88
869.972	-9.56
870.145	92.84
870.319	43.69
870.492	-5.46
870.665	17.07
870.838	17.07
871.011	35.5
871.185	37.55
871.358	96.94
871.531	68.27
871.704	-42.32
871.877	49.83
872.05	76.46
872.223	0.68
872.396	80.55
872.569	4.78
872.742	25.26
872.915	107.18
873.088	4.78
873.261	2.73
873.434	43.69
873.607	119.46
873.78	64.17
873.953	4.78
874.126	62.12
874.299	62.12
874.471	66.22
874.644	-11.61
874.817	15.02
874.99	82.6
875.163	-79.19
875.335	10.92
875.508	27.31
875.681	-5.46
875.853	-32.08
876.026	0.68
876.199	62.12
876.371	-21.84
876.544	10.92
876.717	0.68
876.889	45.74
877.062	33.45
877.234	-30.04
877.407	39.59
877.579	6.83
877.752	37.55
877.924	55.98
878.097	66.22
878.269	53.93
878.442	37.55
878.614	-17.75
878.786	37.55
878.959	-19.8
879.131	117.42
879.303	-68.95
879.476	66.22
879.648	17.07
879.82	39.59
879.993	62.12
880.165	10.92
880.337	-87.38
880.509	76.46
880.681	27.31
880.854	0.68
881.026	45.74
881.198	127.66
881.37	-11.61
881.542	23.21
881.714	-1.37
881.886	2.73
882.058	12.97
882.23	31.4
882.402	62.12
882.574	0.68
882.746	-19.8
882.918	43.69
883.09	33.45
883.262	-3.41
883.434	25.26
883.606	-21.84
883.778	25.26
883.95	86.7
884.122	4.78
884.293	53.93
884.465	10.92
884.637	76.46
884.809	27.31
884.98	-44.37
885.152	53.93
885.324	76.46
885.496	41.64
885.667	62.12
885.839	58.03
886.011	86.7
886.182	70.31
886.354	78.51
886.525	94.89
886.697	6.83
886.869	29.35
887.04	4.78
887.212	4.78
887.383	53.93
887.555	35.5
887.726	6.83
887.897	-11.61
888.069	66.22
888.24	0.68
888.412	43.69
888.583	19.11
888.754	2.73
888.926	-5.46
889.097	8.87
889.268	33.45
889.44	98.99
889.611	-3.41
889.782	-30.04
889.953	-116.05
890.125	29.35
890.296	27.31
890.467	82.6
890.638	-5.46
890.809	-30.04
890.98	92.84
891.151	47.79
891.323	49.83
891.494	37.55
891.665	4.78
891.836	-7.51
892.007	21.16
892.178	62.12
892.349	27.31
892.52	-11.61
892.691	45.74
892.862	-48.47
893.032	-52.56
893.203	-48.47
893.374	43.69
893.545	-13.65
893.716	-5.46
893.887	-17.75
894.057	-32.08
894.228	60.07
894.399	17.07
894.57	10.92
894.74	51.88
894.911	49.83
895.082	-46.42
895.253	29.35
895.423	-11.61
895.594	17.07
895.764	-27.99
895.935	-5.46
896.106	17.07
896.276	37.55
896.447	55.98
896.617	-7.51
896.788	62.12
896.958	47.79
897.129	-15.7
897.299	-5.46
897.47	60.07
897.64	49.83
897.81	-15.7
897.981	60.07
898.151	-30.04
898.322	-23.89
898.492	-21.84
898.662	12.97
898.832	19.11
899.003	21.16
899.173	17.07
899.343	66.22
899.513	-46.42
