Data from USB4F104151__224__10-30-13-195.txt Node

Date: Wed Mar 12 10:30:13 EDT 2025
User: louis
Spectrometer: USB4F10415
Trigger mode: 4
Integration Time (sec): 3.000000E-2
Scans to average: 1
Electric dark correction enabled: true
Nonlinearity correction enabled: false
Boxcar width: 0
XAxis mode: Wavelengths
Number of Pixels in Spectrum: 3648
>>>>>Begin Spectral Data<<<<<
178.204	-94.89
178.424	-94.89
178.644	-94.89
178.864	-101.03
179.084	-150.18
179.304	-8.87
179.524	-72.36
179.744	-47.79
179.964	7.51
180.184	60.76
180.404	7.51
180.624	23.89
180.844	13.65
181.064	-41.64
181.283	40.28
181.503	3.41
181.723	13.65
181.943	-19.11
182.163	13.65
182.383	50.52
182.602	7.51
182.822	36.18
183.042	-23.21
183.262	91.48
183.482	66.9
183.701	25.94
183.921	5.46
184.141	32.08
184.361	23.89
184.58	-6.83
184.8	-10.92
185.02	-10.92
185.239	30.04
185.459	-6.83
185.679	42.32
185.898	-47.79
186.118	87.38
186.338	-51.88
186.557	54.61
186.777	-8.87
186.997	56.66
187.216	3.41
187.436	140.63
187.655	50.52
187.875	89.43
188.095	3.41
188.314	124.24
188.534	-0.68
188.753	68.95
188.973	99.67
189.192	60.76
189.412	17.75
189.631	60.76
189.851	-12.97
190.07	50.52
190.29	36.18
190.509	42.32
190.729	-15.02
190.948	91.48
191.168	132.44
191.387	105.81
191.607	-35.5
191.826	-25.26
192.045	-15.02
192.265	9.56
192.484	19.8
192.704	23.89
192.923	19.8
193.142	58.71
193.362	50.52
193.581	40.28
193.8	44.37
194.02	5.46
194.239	-49.83
194.458	-19.11
194.678	17.75
194.897	40.28
195.116	-0.68
195.335	-72.36
195.555	60.76
195.774	11.61
195.993	25.94
196.212	-12.97
196.432	15.7
196.651	21.84
196.87	-31.4
197.089	134.48
197.308	23.89
197.528	87.38
197.747	-23.21
197.966	19.8
198.185	75.09
198.404	34.13
198.623	-43.69
198.842	32.08
199.062	64.85
199.281	-31.4
199.5	48.47
199.719	62.8
199.938	87.38
200.157	46.42
200.376	21.84
200.595	81.24
200.814	-27.31
201.033	-76.46
201.252	62.8
201.471	68.95
201.69	66.9
201.909	52.56
202.128	-0.68
202.347	17.75
202.566	-47.79
202.785	1.37
203.004	-72.36
203.223	68.95
203.442	-10.92
203.661	56.66
203.879	38.23
204.098	52.56
204.317	-15.02
204.536	97.62
204.755	50.52
204.974	38.23
205.193	-33.45
205.411	126.29
205.63	1.37
205.849	34.13
206.068	-12.97
206.287	-6.83
206.505	114
206.724	21.84
206.943	46.42
207.162	15.7
207.381	34.13
207.599	50.52
207.818	36.18
208.037	19.8
208.255	32.08
208.474	44.37
208.693	-4.78
208.911	17.75
209.13	-12.97
209.349	1.37
209.567	15.7
209.786	34.13
210.005	38.23
210.223	5.46
210.442	-68.27
210.661	-17.07
210.879	77.14
211.098	62.8
211.316	9.56
211.535	93.52
211.753	-64.17
211.972	-0.68
212.191	-6.83
212.409	17.75
212.628	34.13
212.846	66.9
213.065	56.66
213.283	54.61
213.502	-39.59
213.72	3.41
213.938	13.65
214.157	17.75
214.375	-60.07
214.594	58.71
214.812	21.84
215.031	15.7
215.249	36.18
215.467	-41.64
215.686	50.52
215.904	21.84
216.122	-2.73
216.341	85.33
216.559	19.8
216.778	50.52
216.996	62.8
217.214	34.13
217.432	30.04
217.651	21.84
217.869	-10.92
218.087	60.76
218.306	40.28
218.524	-10.92
218.742	50.52
218.96	27.99
219.179	-82.6
219.397	-6.83
219.615	66.9
219.833	3.41
220.051	17.75
220.27	75.09
220.488	52.56
220.706	42.32
220.924	-15.02
221.142	36.18
221.36	34.13
221.578	-6.83
221.796	-23.21
222.015	-2.73
222.233	38.23
222.451	60.76
222.669	15.7
222.887	-53.93
223.105	13.65
223.323	-27.31
223.541	50.52
223.759	58.71
223.977	58.71
224.195	120.15
224.413	1.37
224.631	38.23
224.849	32.08
225.067	7.51
225.285	-17.07
225.503	30.04
225.721	-53.93
225.939	60.76
226.157	-2.73
226.375	44.37
226.592	30.04
226.81	46.42
227.028	60.76
227.246	79.19
227.464	30.04
227.682	23.89
227.9	-19.11
228.117	83.28
228.335	19.8
228.553	48.47
228.771	81.24
228.989	25.94
229.206	13.65
229.424	54.61
229.642	13.65
229.86	36.18
230.077	91.48
230.295	36.18
230.513	58.71
230.731	17.75
230.948	44.37
231.166	5.46
231.384	46.42
231.601	19.8
231.819	1.37
232.037	30.04
232.254	75.09
232.472	38.23
232.689	9.56
232.907	21.84
233.125	-17.07
233.342	23.89
233.56	-43.69
233.777	13.65
233.995	46.42
234.213	42.32
234.43	50.52
234.648	11.61
234.865	-6.83
235.083	73.04
235.3	38.23
235.518	27.99
235.735	-31.4
235.953	-2.73
236.17	25.94
236.388	5.46
236.605	56.66
236.822	62.8
237.04	15.7
237.257	56.66
237.475	-66.22
237.692	46.42
237.909	1.37
238.127	27.99
238.344	42.32
238.562	30.04
238.779	-41.64
238.996	-17.07
239.214	21.84
239.431	-2.73
239.648	50.52
239.865	32.08
240.083	-39.59
240.3	73.04
240.517	5.46
240.735	66.9
240.952	107.86
241.169	13.65
241.386	-2.73
241.603	-6.83
241.821	-15.02
242.038	32.08
242.255	-4.78
242.472	-8.87
242.689	50.52
242.907	46.42
243.124	34.13
243.341	32.08
243.558	21.84
243.775	44.37
243.992	27.99
244.209	5.46
244.426	107.86
244.643	-47.79
244.86	46.42
245.078	3.41
245.295	116.05
245.512	17.75
245.729	7.51
245.946	-8.87
246.163	73.04
246.38	107.86
246.597	-35.5
246.814	46.42
247.031	15.7
247.248	42.32
247.464	-2.73
247.681	-6.83
247.898	81.24
248.115	32.08
248.332	1.37
248.549	30.04
248.766	132.44
248.983	52.56
249.2	38.23
249.417	27.99
249.633	23.89
249.85	32.08
250.067	27.99
250.284	-2.73
250.501	15.7
250.717	52.56
250.934	30.04
251.151	-2.73
251.368	-25.26
251.585	79.19
251.801	-10.92
252.018	30.04
252.235	52.56
252.451	5.46
252.668	7.51
252.885	5.46
253.102	-55.98
253.318	109.91
253.535	42.32
253.752	66.9
253.968	-2.73
254.185	-64.17
254.401	15.7
254.618	50.52
254.835	91.48
255.051	38.23
255.268	15.7
255.484	30.04
255.701	34.13
255.917	52.56
256.134	38.23
256.351	81.24
256.567	21.84
256.784	95.57
257	3.41
257.217	-0.68
257.433	17.75
257.65	116.05
257.866	30.04
258.082	21.84
258.299	-17.07
258.515	75.09
258.732	7.51
258.948	79.19
259.165	32.08
259.381	-41.64
259.597	27.99
259.814	38.23
260.03	-27.31
260.246	21.84
260.463	13.65
260.679	71
260.895	91.48
261.112	64.85
261.328	30.04
261.544	11.61
261.761	126.29
261.977	25.94
262.193	42.32
262.409	46.42
262.626	9.56
262.842	-10.92
263.058	21.84
263.274	-33.45
263.49	48.47
263.707	30.04
263.923	9.56
264.139	1.37
264.355	30.04
264.571	7.51
264.787	83.28
265.004	48.47
265.22	23.89
265.436	9.56
265.652	46.42
265.868	-2.73
266.084	-25.26
266.3	103.76
266.516	-10.92
266.732	66.9
266.948	15.7
267.164	21.84
267.38	109.91
267.596	97.62
267.812	11.61
268.028	132.44
268.244	7.51
268.46	68.95
268.676	-19.11
268.892	3.41
269.108	23.89
269.324	30.04
269.54	66.9
269.756	17.75
269.972	-12.97
270.188	48.47
270.403	52.56
270.619	36.18
270.835	66.9
271.051	-35.5
271.267	60.76
271.483	34.13
271.698	66.9
271.914	91.48
272.13	23.89
272.346	15.7
272.562	40.28
272.777	64.85
272.993	40.28
273.209	11.61
273.425	75.09
273.64	32.08
273.856	71
274.072	79.19
274.287	62.8
274.503	68.95
274.719	-15.02
274.934	30.04
275.15	-17.07
275.366	36.18
275.581	44.37
275.797	62.8
276.012	79.19
276.228	81.24
276.444	23.89
276.659	62.8
276.875	9.56
277.09	60.76
277.306	68.95
277.521	-0.68
277.737	9.56
277.952	34.13
278.168	17.75
278.383	32.08
278.599	105.81
278.814	83.28
279.03	15.7
279.245	46.42
279.461	54.61
279.676	58.71
279.892	-58.03
280.107	89.43
280.322	38.23
280.538	85.33
280.753	-23.21
280.969	34.13
281.184	-21.16
281.399	75.09
281.615	5.46
281.83	40.28
282.045	9.56
282.26	56.66
282.476	9.56
282.691	81.24
282.906	40.28
283.122	-17.07
283.337	1.37
283.552	27.99
283.767	23.89
283.983	-29.35
284.198	21.84
284.413	44.37
284.628	1.37
284.843	9.56
285.058	27.99
285.274	48.47
285.489	30.04
285.704	15.7
285.919	-6.83
286.134	17.75
286.349	50.52
286.564	17.75
286.779	30.04
286.995	-2.73
287.21	23.89
287.425	58.71
287.64	30.04
287.855	34.13
288.07	-21.16
288.285	44.37
288.5	23.89
288.715	79.19
288.93	17.75
289.145	5.46
289.36	56.66
289.575	68.95
289.79	17.75
290.004	44.37
290.219	48.47
290.434	-8.87
290.649	-19.11
290.864	89.43
291.079	75.09
291.294	42.32
291.509	157.01
291.724	-15.02
291.938	30.04
292.153	42.32
292.368	-6.83
292.583	27.99
292.798	-8.87
293.012	17.75
293.227	38.23
293.442	-8.87
293.657	50.52
293.871	58.71
294.086	30.04
294.301	60.76
294.516	56.66
294.73	107.86
294.945	-0.68
295.16	71
295.374	36.18
295.589	81.24
295.804	-47.79
296.018	71
296.233	85.33
296.447	64.85
296.662	1.37
296.877	52.56
297.091	5.46
297.306	-2.73
297.52	42.32
297.735	85.33
297.949	5.46
298.164	132.44
298.378	23.89
298.593	27.99
298.807	91.48
299.022	54.61
299.236	48.47
299.451	3.41
299.665	25.94
299.88	60.76
300.094	5.46
300.309	9.56
300.523	48.47
300.737	46.42
300.952	103.76
301.166	15.7
301.381	-8.87
301.595	56.66
301.809	64.85
302.024	54.61
302.238	17.75
302.452	34.13
302.667	17.75
302.881	34.13
303.095	73.04
303.309	120.15
303.524	34.13
303.738	-10.92
303.952	54.61
304.166	25.94
304.381	75.09
304.595	38.23
304.809	36.18
305.023	19.8
305.237	13.65
305.452	44.37
305.666	66.9
305.88	54.61
306.094	1.37
306.308	54.61
306.522	-19.11
306.736	1.37
306.95	36.18
307.164	34.13
307.379	17.75
307.593	107.86
307.807	50.52
308.021	93.52
308.235	48.47
308.449	-15.02
308.663	-12.97
308.877	109.91
309.091	132.44
309.305	38.23
309.519	7.51
309.733	91.48
309.947	25.94
310.161	120.15
310.374	103.76
310.588	50.52
310.802	30.04
311.016	71
311.23	81.24
311.444	56.66
311.658	-2.73
311.872	54.61
312.085	105.81
312.299	109.91
312.513	17.75
312.727	7.51
312.941	-41.64
313.154	77.14
313.368	56.66
313.582	-39.59
313.796	52.56
314.009	19.8
314.223	89.43
314.437	54.61
314.651	-15.02
314.864	1.37
315.078	79.19
315.292	87.38
315.505	-25.26
315.719	109.91
315.933	75.09
316.146	126.29
316.36	-29.35
316.573	5.46
316.787	-25.26
317.001	3.41
317.214	21.84
317.428	-60.07
317.641	34.13
317.855	120.15
318.068	103.76
318.282	25.94
318.495	114
318.709	13.65
318.922	54.61
319.136	68.95
319.349	-6.83
319.563	66.9
319.776	5.46
319.99	66.9
320.203	152.91
320.417	71
320.63	50.52
320.843	44.37
321.057	44.37
321.27	58.71
321.483	48.47
321.697	77.14
321.91	130.39
322.124	50.52
322.337	21.84
322.55	-2.73
322.763	-25.26
322.977	71
323.19	32.08
323.403	-23.21
323.617	7.51
323.83	87.38
324.043	17.75
324.256	50.52
324.469	7.51
324.683	56.66
324.896	91.48
325.109	50.52
325.322	-15.02
325.535	7.51
325.748	73.04
325.962	79.19
326.175	27.99
326.388	60.76
326.601	97.62
326.814	11.61
327.027	25.94
327.24	60.76
327.453	-15.02
327.666	62.8
327.879	111.96
328.092	34.13
328.305	-8.87
328.518	91.48
328.731	-10.92
328.944	30.04
329.157	19.8
329.37	-10.92
329.583	103.76
329.796	107.86
330.009	-31.4
330.222	116.05
330.435	13.65
330.648	38.23
330.861	58.71
331.073	58.71
331.286	-8.87
331.499	15.7
331.712	83.28
331.925	-2.73
332.138	-17.07
332.35	75.09
332.563	40.28
332.776	58.71
332.989	-6.83
333.202	17.75
333.414	30.04
333.627	30.04
333.84	40.28
334.053	13.65
334.265	-6.83
334.478	60.76
334.691	13.65
334.903	71
335.116	19.8
335.329	46.42
335.541	81.24
335.754	73.04
335.966	25.94
336.179	-2.73
336.392	25.94
336.604	11.61
336.817	-27.31
337.029	30.04
337.242	25.94
337.454	1.37
337.667	58.71
337.88	17.75
338.092	36.18
338.305	-6.83
338.517	17.75
338.729	-8.87
338.942	95.57
339.154	17.75
339.367	42.32
339.579	40.28
339.792	27.99
340.004	71
340.217	-29.35
340.429	-2.73
340.641	-19.11
340.854	-41.64
341.066	62.8
341.278	87.38
341.491	111.96
341.703	79.19
341.915	9.56
342.128	-6.83
342.34	23.89
342.552	25.94
342.764	-58.03
342.977	103.76
343.189	23.89
343.401	17.75
343.613	-15.02
343.826	79.19
344.038	13.65
344.25	-6.83
344.462	-8.87
344.674	38.23
344.886	50.52
345.099	-2.73
345.311	40.28
345.523	66.9
345.735	44.37
345.947	52.56
346.159	99.67
346.371	42.32
346.583	32.08
346.795	120.15
347.007	9.56
347.219	58.71
347.431	7.51
347.643	79.19
347.855	62.8
348.067	15.7
348.279	-39.59
348.491	25.94
348.703	48.47
348.915	34.13
349.127	17.75
349.339	44.37
349.551	17.75
349.763	79.19
349.975	40.28
350.187	60.76
350.399	103.76
350.61	7.51
350.822	48.47
351.034	30.04
351.246	-37.55
351.458	38.23
351.669	79.19
351.881	11.61
352.093	79.19
352.305	124.24
352.517	-25.26
352.728	73.04
352.94	36.18
353.152	89.43
353.363	40.28
353.575	93.52
353.787	34.13
353.999	66.9
354.21	30.04
354.422	58.71
354.633	66.9
354.845	-35.5
355.057	15.7
355.268	109.91
355.48	38.23
355.692	9.56
355.903	42.32
356.115	15.7
356.326	-35.5
356.538	36.18
356.749	75.09
356.961	36.18
357.172	-88.75
357.384	64.85
357.595	101.72
357.807	-2.73
358.018	83.28
358.23	46.42
358.441	64.85
358.653	107.86
358.864	-15.02
359.075	-43.69
359.287	99.67
359.498	91.48
359.709	1.37
359.921	54.61
360.132	-58.03
360.344	50.52
360.555	-43.69
360.766	58.71
360.977	89.43
361.189	38.23
361.4	-43.69
361.611	77.14
361.823	46.42
362.034	75.09
362.245	-15.02
362.456	21.84
362.667	62.8
362.879	-0.68
363.09	60.76
363.301	38.23
363.512	50.52
363.723	-27.31
363.935	34.13
364.146	91.48
364.357	91.48
364.568	9.56
364.779	48.47
364.99	62.8
365.201	52.56
365.412	68.95
365.623	21.84
365.834	32.08
366.045	44.37
366.256	95.57
366.467	38.23
366.678	132.44
366.889	-2.73
367.1	93.52
367.311	-17.07
367.522	40.28
367.733	46.42
367.944	66.9
368.155	71
368.366	46.42
368.577	103.76
368.788	89.43
368.999	124.24
369.209	52.56
369.42	99.67
369.631	62.8
369.842	40.28
370.053	50.52
370.264	15.7
370.474	56.66
370.685	46.42
370.896	99.67
371.107	32.08
371.317	13.65
371.528	87.38
371.739	124.24
371.95	77.14
372.16	56.66
372.371	-15.02
372.582	56.66
372.792	142.68
373.003	71
373.214	42.32
373.424	99.67
373.635	116.05
373.846	42.32
374.056	-2.73
374.267	13.65
374.477	-4.78
374.688	23.89
374.898	64.85
375.109	36.18
375.319	116.05
375.53	46.42
375.74	34.13
375.951	138.58
376.161	50.52
376.372	126.29
376.582	60.76
376.793	89.43
377.003	136.53
377.214	-10.92
377.424	62.8
377.635	50.52
377.845	54.61
378.055	114
378.266	15.7
378.476	58.71
378.686	48.47
378.897	118.1
379.107	38.23
379.317	50.52
379.528	-0.68
379.738	75.09
379.948	15.7
380.158	103.76
380.369	81.24
380.579	13.65
380.789	21.84
380.999	89.43
381.21	89.43
381.42	30.04
381.63	103.76
381.84	25.94
382.05	-2.73
382.261	56.66
382.471	83.28
382.681	19.8
382.891	54.61
383.101	25.94
383.311	-12.97
383.521	87.38
383.731	95.57
383.941	48.47
384.151	50.52
384.361	64.85
384.571	-29.35
384.781	150.87
384.991	68.95
385.201	157.01
385.411	27.99
385.621	-27.31
385.831	64.85
386.041	46.42
386.251	54.61
386.461	136.53
386.671	56.66
386.881	66.9
387.091	77.14
387.301	54.61
387.511	19.8
387.72	81.24
387.93	48.47
388.14	68.95
388.35	71
388.56	126.29
388.769	77.14
388.979	54.61
389.189	58.71
389.399	97.62
389.609	85.33
389.818	-6.83
390.028	13.65
390.238	52.56
390.447	56.66
390.657	87.38
390.867	75.09
391.076	46.42
391.286	62.8
391.496	87.38
391.705	21.84
391.915	36.18
392.125	122.2
392.334	-23.21
392.544	44.37
392.753	66.9
392.963	83.28
393.172	34.13
393.382	50.52
393.591	132.44
393.801	58.71
394.01	89.43
394.22	109.91
394.429	120.15
394.639	21.84
394.848	-0.68
395.058	60.76
395.267	75.09
395.477	99.67
395.686	46.42
395.895	83.28
396.105	132.44
396.314	97.62
396.524	77.14
396.733	83.28
396.942	118.1
397.152	165.2
397.361	152.91
397.57	83.28
397.78	50.52
397.989	144.72
398.198	185.68
398.407	144.72
398.617	87.38
398.826	93.52
399.035	71
399.244	154.96
399.453	159.06
399.663	171.35
399.872	157.01
400.081	111.96
400.29	75.09
400.499	85.33
400.708	138.58
400.917	138.58
401.127	154.96
401.336	87.38
401.545	169.3
401.754	107.86
401.963	179.54
402.172	136.53
402.381	75.09
402.59	103.76
402.799	124.24
403.008	193.87
403.217	171.35
403.426	124.24
403.635	120.15
403.844	148.82
404.053	152.91
404.262	118.1
404.471	251.22
404.68	144.72
404.888	208.21
405.097	208.21
405.306	134.48
405.515	183.63
405.724	222.55
405.933	169.3
406.142	187.73
406.35	191.83
406.559	179.54
406.768	238.93
406.977	214.35
407.185	275.79
407.394	206.16
407.603	189.78
407.812	171.35
408.02	243.03
408.229	318.8
408.438	251.22
408.646	228.69
408.855	220.5
409.064	267.6
409.272	267.6
409.481	343.38
409.69	329.04
409.898	335.18
410.107	380.24
410.315	347.47
410.524	370
410.733	329.04
410.941	443.73
411.15	402.77
411.358	427.34
411.567	468.3
411.775	415.05
411.984	492.88
412.192	437.58
412.401	466.25
412.609	566.6
412.818	591.18
413.026	597.32
413.234	546.12
413.443	492.88
413.651	660.81
413.86	611.66
414.068	673.1
414.276	750.92
414.485	697.67
414.693	773.45
414.901	763.21
415.11	892.23
415.318	824.65
415.526	832.84
415.734	892.23
415.943	804.17
416.151	861.51
416.359	972.1
416.567	904.52
416.776	1058.12
416.984	1076.55
417.192	1137.99
417.4	1146.18
417.608	1094.98
417.817	1189.19
418.025	1154.37
418.233	1416.51
418.441	1234.24
418.649	1320.26
418.857	1430.85
419.065	1561.92
419.273	1424.7
419.481	1647.93
419.689	1598.78
419.897	1629.5
420.105	1658.17
420.313	1803.58
420.521	1822.01
420.729	1961.27
420.937	1928.5
421.145	1932.6
421.353	2092.34
421.561	2151.73
421.769	2286.9
421.977	2442.54
422.185	2391.34
422.393	2348.34
422.601	2590
422.809	2516.27
423.017	2512.17
423.224	2608.43
423.432	2712.88
423.64	2893.1
423.848	3200.29
424.056	3005.74
424.263	3317.03
424.471	3265.83
424.679	3245.35
424.887	3452.19
425.094	3534.11
425.302	3581.21
425.51	3718.43
425.718	3753.24
425.925	3931.42
426.133	4064.54
426.341	4347.15
426.548	4554
426.756	4597.01
426.964	4523.28
427.171	4781.32
427.379	4754.7
427.586	4898.06
427.794	5037.32
428.001	5461.25
428.209	5461.25
428.417	5666.05
428.624	5905.66
428.832	5940.47
429.039	5967.1
429.247	5876.99
429.454	6526.19
429.662	6817.01
429.869	6417.65
430.076	6927.6
430.284	6579.44
430.491	6796.53
430.699	7408.87
430.906	7189.74
431.114	7494.88
431.321	7759.07
431.528	7845.09
431.736	8393.94
431.943	8760.53
432.15	8522.96
432.358	8537.3
432.565	9178.31
432.772	8959.18
432.979	9481.41
433.187	9485.51
433.394	9704.64
433.601	10347.7
433.808	10478.77
434.016	10489.01
434.223	10550.45
434.43	11355.3
434.637	11156.65
434.844	11910.3
435.052	12006.56
435.259	11713.7
435.466	12201.12
435.673	12022.94
435.88	12776.59
436.087	13274.25
436.294	13524.1
436.501	13073.55
436.708	13528.2
436.915	13876.35
437.122	14328.95
437.329	14484.6
437.537	15176.81
437.743	15109.23
437.95	15051.89
438.157	15658.09
438.364	16448.6
438.571	16364.64
438.778	16241.76
438.985	17927.24
439.192	17007.7
439.399	17712.2
439.606	17169.49
439.813	18363.45
440.02	19264.56
440.227	18916.4
440.433	18727.99
440.64	19549.23
440.847	19309.61
441.054	19698.73
441.261	21353.49
441.467	20839.45
441.674	21341.2
441.881	22152.2
442.088	21720.07
442.294	21668.87
442.501	22379.52
442.708	22918.14
442.914	23843.82
443.121	24523.74
443.328	24148.96
443.534	25875.4
443.741	25123.8
443.948	24644.57
444.154	26629.05
444.361	26371.01
444.568	26166.21
444.774	26540.99
444.981	26758.08
445.187	27489.2
445.394	28672.93
445.6	28328.87
445.807	31099.77
446.013	29582.23
446.22	30065.55
446.426	31437.69
446.633	31517.56
446.839	32377.7
447.046	31239.03
447.252	33340.25
447.459	33035.1
447.665	32914.27
447.871	34360.14
448.078	35265.34
448.284	33860.43
448.491	34980.67
448.697	36455.21
448.903	36762.4
449.11	36883.23
449.316	36633.38
449.522	37088.03
449.728	37729.05
449.935	37888.79
450.141	37987.09
450.347	38705.93
450.553	37649.17
450.76	38116.11
450.966	39488.25
451.172	38853.38
451.378	39488.25
451.584	38963.97
451.791	40112.88
451.997	39406.33
452.203	40291.05
452.409	40049.39
452.615	40180.46
452.821	38494.99
453.027	38087.44
453.233	40348.4
453.44	38525.71
453.646	38857.48
453.852	38855.43
454.058	39422.72
454.264	38015.76
454.47	39222.01
454.676	38376.2
454.882	39381.76
455.088	36176.69
455.294	36588.33
455.5	36834.08
455.705	37491.48
455.911	36027.18
456.117	35111.74
456.323	35052.35
456.529	32846.69
456.735	34267.98
456.941	33577.81
457.147	33024.86
457.352	32136.04
457.558	31689.59
457.764	31279.99
457.97	31013.76
458.176	30126.99
458.381	30133.13
458.587	28699.55
458.793	28695.46
458.999	27497.39
459.204	28984.22
459.41	28799.9
459.616	26651.58
459.821	26739.65
460.027	26352.58
460.233	25988.04
460.438	24708.06
460.644	25005.02
460.85	23661.55
461.055	23354.35
461.261	23309.3
461.466	21703.69
461.672	21378.06
461.878	22496.25
462.083	21001.24
462.289	20835.35
462.494	20585.5
462.7	19557.42
462.905	19409.97
463.111	19829.8
463.316	19668.01
463.522	19383.34
463.727	19479.6
463.932	19293.23
464.138	19080.24
464.343	19229.74
464.549	18605.11
464.754	19424.3
464.959	19268.66
465.165	19070
465.37	18158.66
465.575	17728.58
465.781	18197.57
465.986	18562.11
466.191	18195.52
466.397	17673.29
466.602	16794.71
466.807	17417.29
467.012	17544.27
467.218	17103.95
467.423	17194.06
467.628	17175.63
467.833	17796.17
468.038	17097.81
468.244	16845.91
468.449	17359.95
468.654	16694.36
468.859	16796.76
469.064	16391.26
469.269	16129.12
469.474	16026.72
469.679	16446.55
469.885	15838.31
470.09	16153.69
470.295	15965.28
470.5	15496.3
470.705	15537.26
470.91	15508.58
471.115	15086.7
471.32	15672.42
471.525	15139.95
471.73	14779.51
471.935	14910.58
472.139	14462.07
472.344	14273.66
472.549	14435.45
472.754	14341.24
472.959	14042.24
473.164	13673.6
473.369	13620.36
473.574	13900.93
473.778	13757.57
473.983	13626.5
474.188	13626.5
474.393	13206.67
474.598	13294.73
474.802	13077.65
475.007	12946.58
475.212	12960.91
475.417	12498.07
475.621	12536.98
475.826	12657.81
476.031	12053.66
476.235	12027.04
476.44	12242.07
476.645	12047.52
476.849	12149.92
477.054	11895.97
477.259	11709.6
477.463	11689.12
477.668	11451.56
477.872	11607.2
478.077	11361.45
478.282	11074.73
478.486	11029.68
478.691	10855.6
478.895	10902.7
479.1	10826.93
479.304	11035.82
479.509	10403
479.713	10628.28
479.918	10388.66
480.122	10656.95
480.326	10613.94
480.531	10359.99
480.735	10417.33
480.94	10155.19
481.144	10491.06
481.348	10380.47
481.553	10134.71
481.757	10095.8
481.961	10167.48
482.166	10388.66
482.37	10085.56
482.574	10085.56
482.778	10097.85
482.983	10269.88
483.187	10116.28
483.391	10226.87
483.595	9831.62
483.8	9772.22
484.004	10386.61
484.208	10390.71
484.412	10097.85
484.616	10278.07
484.821	10218.68
485.025	9956.54
485.229	10060.99
485.433	10034.36
485.637	10130.62
485.841	9854.14
486.045	9804.99
486.249	10101.95
486.453	9987.26
486.657	9921.73
486.861	10091.71
487.065	9790.66
487.269	10116.28
487.473	9958.59
487.677	10245.3
487.881	10249.4
488.085	9843.9
488.289	10017.98
488.493	9938.11
488.697	10407.09
488.901	10233.02
489.105	9852.09
489.309	10265.78
489.512	10224.83
489.716	10175.67
489.92	10253.5
490.124	10259.64
490.328	10501.3
490.531	10282.17
490.735	10390.71
490.939	10536.12
491.143	10255.54
491.346	10538.16
491.55	10515.64
491.754	10474.68
491.958	10615.99
492.161	10521.78
492.365	10579.12
492.569	10630.32
492.772	10624.18
492.976	10755.25
493.18	10855.6
493.383	11064.49
493.587	11031.72
493.79	11056.3
493.994	11044.01
494.197	10951.85
494.401	11199.66
494.605	11261.1
494.808	11533.48
495.012	11447.46
495.215	11500.71
495.419	11740.32
495.622	11492.52
495.825	11812
496.029	11678.88
496.232	11830.43
496.436	11961.5
496.639	12293.27
496.843	12305.56
497.046	12625.04
497.249	12709.01
497.453	12563.61
497.656	12668.05
497.859	12960.91
498.063	13040.78
498.266	13059.21
498.469	13198.48
498.673	13233.29
498.876	13628.55
499.079	13526.15
499.282	13642.89
499.485	14146.69
499.689	14056.57
499.892	14218.36
500.095	14068.86
500.298	14644.34
500.501	14541.94
500.705	15121.52
500.908	15090.8
501.111	15035.5
501.314	15522.92
501.517	15707.24
501.72	15955.04
501.923	15737.96
502.126	16157.79
502.329	16149.6
502.532	16499.8
502.735	16374.88
502.938	17044.56
503.141	16923.73
503.344	16888.92
503.547	17253.45
503.75	17708.1
503.953	18037.83
504.156	18048.07
504.359	18154.56
504.562	18127.94
504.765	18652.22
504.968	18605.11
505.17	18940.98
505.373	18918.45
505.576	19532.84
505.779	19383.34
505.982	19674.15
506.185	20190.24
506.387	20274.21
506.59	20266.02
506.793	20325.41
506.996	20687.9
507.198	21279.76
507.401	20810.78
507.604	21308.43
507.807	21949.45
508.009	21873.67
508.212	21978.12
508.415	22443.01
508.617	22608.89
508.82	22877.18
509.022	22539.26
509.225	23446.51
509.428	23632.88
509.63	23804.91
509.833	23882.73
510.035	24206.31
510.238	24273.89
510.44	24597.47
510.643	24765.4
510.845	25213.91
511.048	24890.33
511.25	25514.96
511.453	26151.88
511.655	26358.72
511.858	26461.12
512.06	26481.6
512.262	26950.59
512.465	26721.21
512.667	27282.36
512.87	27567.02
513.072	27356.08
513.274	28281.77
513.477	28404.64
513.679	28636.06
513.881	28994.46
514.084	29496.21
514.286	29217.69
514.488	29776.78
514.69	30217.1
514.893	30198.66
515.095	30802.82
515.297	30612.35
515.499	31148.92
515.701	31398.77
515.904	31591.28
516.106	31728.5
516.308	32357.22
516.51	32738.15
516.712	32883.55
516.914	32887.65
517.116	33393.5
517.318	33594.2
517.52	33545.05
517.722	33973.07
517.925	34466.63
518.127	34569.03
518.329	35369.79
518.531	35371.83
518.733	35777.33
518.935	36139.82
519.136	35902.26
519.338	36887.33
519.54	36752.16
519.742	37169.95
519.944	37251.87
520.146	37671.7
520.348	37817.11
520.55	38069.01
520.752	38382.35
520.954	38968.07
521.155	38865.67
521.357	39555.83
521.559	39471.87
521.761	40377.07
521.963	39748.34
522.164	40217.33
522.366	40860.39
522.568	41044.71
522.77	41218.78
522.971	42056.4
523.173	41650.91
523.375	41937.62
523.576	41990.87
523.778	42455.76
523.98	43242.18
524.181	42748.62
524.383	43139.78
524.584	43528.89
524.786	43735.74
524.988	43471.55
525.189	43997.88
525.391	44755.63
525.592	44972.71
525.794	45124.26
525.995	45247.14
526.197	44841.64
526.398	45130.4
526.6	45886.11
526.801	45879.96
527.003	46017.18
527.204	46113.43
527.406	46201.49
527.607	46725.77
527.808	47057.54
528.01	46224.02
528.211	46815.88
528.412	47450.75
528.614	47475.33
528.815	47716.99
529.016	47794.81
529.218	47471.23
529.419	47776.38
529.62	48300.66
529.822	47917.69
530.023	47874.68
530.224	48671.34
530.425	48173.69
530.626	47977.08
530.828	48622.19
531.029	49164.9
531.23	48509.55
531.431	48462.45
531.632	48843.37
531.833	49132.14
532.035	49074.79
532.236	48906.86
532.437	49363.56
532.638	48953.96
532.839	49130.09
533.04	49367.65
533.241	49212.01
533.442	49861.21
533.643	49551.97
533.844	49521.25
534.045	49850.97
534.246	49298.02
534.447	49416.8
534.648	49384.04
534.849	49760.86
535.05	49568.35
535.251	49758.81
535.451	49662.56
535.652	49705.57
535.853	49644.13
536.054	50049.63
536.255	49994.33
536.456	49637.98
536.657	50252.37
536.857	49547.87
537.058	50137.69
537.259	50434.64
537.46	50203.22
537.66	49425
537.861	49853.02
538.062	49977.95
538.263	50158.17
538.463	49922.65
538.664	49904.22
538.865	49984.09
539.065	49676.9
539.266	49764.96
539.466	50139.74
539.667	49807.97
539.868	50438.74
540.068	50063.96
540.269	49846.88
540.469	50436.69
540.67	50125.4
540.87	49916.51
541.071	50035.29
541.271	49982.04
541.472	49912.41
541.672	49625.7
541.873	49850.97
542.073	49474.15
542.274	50383.44
542.474	50137.69
542.675	49549.92
542.875	50125.4
543.075	49941.08
543.276	49289.83
543.476	50342.49
543.676	49955.42
543.877	50152.02
544.077	49986.14
544.277	49916.51
544.478	49588.83
544.678	50131.54
544.878	49902.17
545.078	49402.47
545.279	49433.19
545.479	49826.4
545.679	49789.53
545.879	49705.57
546.079	49715.81
546.28	49494.63
546.48	48847.47
546.68	49662.56
546.88	50002.52
547.08	49801.82
547.28	49521.25
547.48	49341.03
547.68	49867.36
547.88	49164.9
548.081	49818.21
548.281	49695.33
548.481	49597.02
548.681	50188.89
548.881	49793.63
549.081	49551.97
549.28	49545.83
549.48	49748.57
549.68	49056.36
549.88	49863.26
550.08	49007.21
550.28	49492.58
550.48	49425
550.68	49584.74
550.88	49359.46
551.08	49240.68
551.279	49437.28
551.479	48820.84
551.679	49107.56
551.879	49113.7
552.079	49486.43
552.278	49109.61
552.478	49375.84
552.678	48996.97
552.878	49031.79
553.077	49132.14
553.277	48915.05
553.477	49685.09
553.676	48824.94
553.876	48867.95
554.076	48921.19
554.275	49109.61
554.475	48310.9
554.674	49011.31
554.874	48884.33
555.074	48736.88
555.273	48726.64
555.473	48988.78
555.672	48179.83
555.872	48409.2
556.071	48556.66
556.271	48890.48
556.47	48536.18
556.67	48194.17
556.869	48460.4
557.068	48355.96
557.268	48347.76
557.467	48331.38
557.667	48263.8
557.866	48616.05
558.065	48145.01
558.265	47938.17
558.464	47897.21
558.663	48222.84
558.863	47241.86
559.062	48171.64
559.261	47776.38
559.461	48466.55
559.66	47395.46
559.859	47323.78
560.058	47184.52
560.258	47297.16
560.457	46996.1
560.656	47770.24
560.855	47205
561.054	47280.77
561.253	47041.16
561.453	47133.32
561.652	47170.18
561.851	46953.1
562.05	46615.18
562.249	46271.12
562.448	46758.54
562.647	46779.02
562.846	46373.52
563.045	46490.26
563.244	45664.92
563.443	46592.65
563.642	45492.9
563.841	45693.6
564.04	45691.55
564.239	46590.61
564.438	45714.08
564.637	45963.93
564.836	45609.63
565.035	45128.36
565.234	45474.46
565.432	44720.81
565.631	44724.91
565.83	45429.41
566.029	44735.15
566.228	44964.52
566.427	44743.34
566.625	44985
566.824	44206.77
567.023	44927.66
567.222	43811.51
567.42	44305.07
567.619	44339.89
567.818	44352.18
568.016	43784.89
568.215	44262.07
568.414	43580.09
568.612	43875
568.811	43293.38
569.01	43598.52
569.208	43236.03
569.407	43827.9
569.605	42973.89
569.804	43365.06
570.002	42736.33
570.201	42875.59
570.4	42689.23
570.598	42791.62
570.797	42177.23
570.995	42461.9
571.193	41319.13
571.392	42525.39
571.59	41911
571.789	42181.33
571.987	41636.57
572.186	41888.47
572.384	41734.87
572.582	41898.71
572.781	41356
572.979	41138.91
573.177	41118.43
573.376	41175.78
573.574	40764.14
573.772	41257.7
573.971	40504.04
574.169	40717.03
574.367	40147.7
574.565	40553.19
574.763	40190.7
574.962	40528.62
575.16	39764.73
575.358	40145.65
575.556	39541.5
575.754	40233.71
575.952	39408.38
576.151	39658.23
576.349	39164.67
576.547	39375.61
576.745	39564.03
576.943	39641.85
577.141	39105.28
577.339	39197.44
577.537	39072.51
577.735	38982.4
577.933	38474.51
578.131	38845.19
578.329	38699.78
578.527	37866.26
578.725	38241.04
578.923	38456.07
579.121	38222.61
579.319	38079.25
579.516	38345.48
579.714	37534.49
579.912	37804.82
580.11	37364.51
580.308	37894.93
580.506	37364.51
580.704	36967.2
580.901	37360.41
581.099	37632.79
581.297	36563.75
581.495	36696.87
581.692	37200.67
581.89	36617
582.088	37073.7
582.285	36641.57
582.483	36586.28
582.681	36461.35
582.878	35912.5
583.076	35967.79
583.274	36608.81
583.471	35672.89
583.669	36098.86
583.866	35355.45
584.064	35953.46
584.262	35797.81
584.459	35511.1
584.657	35466.04
584.854	35892.02
585.052	34732.87
585.249	35314.49
585.447	35121.98
585.644	34878.27
585.841	34890.56
586.039	34999.1
586.236	34540.36
586.434	34763.59
586.631	34675.52
586.828	34562.89
587.026	34399.05
587.223	34274.12
587.42	33815.38
587.618	34095.95
587.815	33491.8
588.012	33555.29
588.21	33706.83
588.407	34032.46
588.604	33467.22
588.801	33586
588.999	33327.96
589.196	33454.93
589.393	33114.97
589.59	33004.38
589.787	32885.6
589.984	33020.77
590.182	32260.97
590.379	33168.22
590.576	32502.63
590.773	32504.68
590.97	32220.01
591.167	32549.73
591.364	31689.59
591.561	32308.07
591.758	31943.53
591.955	31970.16
592.152	31927.15
592.349	31495.03
592.546	31763.31
592.743	31660.91
592.94	31128.44
593.137	31241.08
593.334	31370.1
593.531	31003.52
593.727	31230.84
593.924	31028.09
594.121	30630.79
594.318	31660.91
594.515	30722.94
594.712	30884.73
594.908	30837.63
595.105	30794.62
595.302	30368.65
595.499	30270.34
595.696	30321.54
595.892	30059.4
596.089	30409.61
596.286	30014.35
596.482	29961.1
596.679	29860.75
596.876	29782.93
597.072	29582.23
597.269	29647.76
597.466	29090.71
597.662	29754.26
597.859	29279.13
598.055	29387.67
598.252	29326.23
598.448	28947.36
598.645	29006.75
598.841	28760.99
599.038	28896.16
599.234	28619.68
599.431	28595.1
599.627	28398.5
599.824	28654.5
600.02	28519.33
600.217	28269.48
600.413	28466.08
600.609	28193.7
600.806	28134.31
601.002	28158.89
601.198	27577.26
601.395	27628.46
601.591	27460.53
601.787	27949.99
601.984	27677.61
602.18	27923.37
602.376	27272.12
602.572	27515.83
602.769	27300.79
602.965	26932.15
603.161	26995.64
603.357	26995.64
603.553	26819.52
603.75	26815.42
603.946	26506.18
604.142	26579.9
604.338	26434.5
604.534	26311.62
604.73	26317.76
604.926	26254.28
605.122	26330.05
605.318	26106.82
605.514	25969.61
605.71	25934.79
605.906	25883.59
606.102	26139.59
606.298	25975.75
606.494	25627.6
606.69	25793.48
606.886	25672.65
607.082	25226.2
607.278	25547.73
607.474	25103.32
607.67	25623.5
607.866	25158.61
608.062	25498.58
608.257	25254.87
608.453	25164.76
608.649	25111.51
608.845	25109.46
609.041	24882.14
609.236	25334.74
609.432	24988.63
609.628	24861.66
609.824	24706.01
610.019	24310.75
610.215	24841.18
610.411	24462.3
610.606	24148.96
610.802	24570.85
610.998	24228.84
611.193	24679.39
611.389	24185.83
611.584	24140.77
611.78	23972.84
611.976	23978.98
612.171	23991.27
612.367	24024.04
612.562	23800.81
612.758	23536.62
612.953	23587.82
613.149	23989.22
613.344	23548.91
613.539	23555.05
613.735	23471.09
613.93	23651.31
614.126	23575.53
614.321	23663.6
614.517	23282.67
614.712	23536.62
614.907	22979.57
615.103	23462.9
615.298	22969.33
615.493	23311.35
615.688	22932.47
615.884	23254
616.079	23043.06
616.274	23286.77
616.47	22946.81
616.665	23196.66
616.86	22672.38
617.055	23059.45
617.25	22588.41
617.445	22735.87
617.641	22215.68
617.836	22762.49
618.031	22365.18
618.226	22643.71
618.421	22295.55
618.616	22596.6
618.811	21771.27
619.006	22375.42
619.201	22027.27
619.396	21963.78
619.591	21394.45
619.786	22000.65
619.981	21642.25
620.176	21773.32
620.371	21484.56
620.566	21478.41
620.761	21425.17
620.956	21474.32
621.151	20773.91
621.346	21007.38
621.541	20792.34
621.735	21156.88
621.93	20522.01
622.125	20827.16
622.32	20274.21
622.515	20556.83
622.709	20513.82
622.904	20198.43
623.099	19940.39
623.294	20165.67
623.488	19852.33
623.683	20012.07
623.878	19733.54
624.072	19729.45
624.267	19729.45
624.462	19364.91
624.656	19409.97
624.851	19246.13
625.046	19180.59
625.24	18975.8
625.435	18863.16
625.629	19041.33
625.824	18805.81
626.018	18504.76
626.213	18373.69
626.407	18574.39
626.602	18269.25
626.796	18308.16
626.991	18582.59
627.185	18140.22
627.38	17880.13
627.574	17769.54
627.768	17724.49
627.963	17669.19
628.157	17476.68
628.352	17531.98
628.546	17302.61
628.74	17378.38
628.935	16970.83
629.129	17298.51
629.323	16763.99
629.517	16807
629.712	16852.05
629.906	16985.17
630.1	16526.43
630.294	16505.95
630.489	16503.9
630.683	16739.41
630.877	16122.98
631.071	16000.1
631.265	16475.23
631.459	15819.88
631.653	16329.82
631.848	15848.55
632.042	15731.81
632.236	15864.93
632.43	15488.1
632.624	15578.22
632.818	15535.21
633.012	15469.67
633.206	15479.91
633.4	15297.64
633.594	15098.99
633.788	15256.68
633.982	15234.16
634.176	14842.99
634.369	14877.81
634.563	14953.59
634.757	14752.88
634.951	14863.47
635.145	14834.8
635.339	14781.56
635.533	14472.31
635.726	14406.78
635.92	14220.41
636.114	14165.12
636.308	14075.01
636.501	14249.08
636.695	13894.79
636.889	13939.84
637.083	13962.37
637.276	13896.83
637.47	13644.93
637.664	13673.6
637.857	13624.45
638.051	13319.31
638.244	13272.2
638.438	13239.44
638.632	13268.11
638.825	13145.23
639.019	13128.84
639.212	13065.36
639.406	13329.55
639.599	12821.65
639.793	12655.76
639.986	12788.88
640.18	12770.45
640.373	12612.76
640.567	12653.72
640.76	12326.04
640.954	12479.64
641.147	12389.53
641.34	12213.4
641.534	12219.55
641.727	12123.29
641.92	11986.08
642.114	12143.77
642.307	11799.71
642.5	11893.92
642.694	11650.21
642.887	11474.09
643.08	11662.5
643.273	11455.65
643.467	11758.75
643.66	11439.27
643.853	11236.52
644.046	11271.34
644.239	11349.16
644.432	11242.67
644.626	11173.03
644.819	11230.38
645.012	10943.66
645.205	11144.36
645.398	10874.03
645.591	11041.96
645.784	10955.95
645.977	10523.83
646.17	10740.91
646.363	10695.86
646.556	10679.47
646.749	10441.91
646.942	10443.96
647.135	10423.48
647.328	10355.9
647.521	10304.7
647.714	10257.59
647.907	10112.19
648.099	10085.56
648.292	10069.18
648.485	9934.01
648.678	9727.17
648.871	9893.05
649.064	9886.91
649.256	9995.45
649.449	9696.45
649.642	9622.72
649.835	9598.15
650.027	9657.54
650.22	9452.74
650.413	9417.93
650.605	9462.98
650.798	9448.65
650.991	9430.21
651.183	9348.29
651.376	9110.73
651.568	9047.24
651.761	9151.69
651.954	9069.77
652.146	8967.37
652.339	8895.69
652.531	8963.28
652.724	8670.42
652.916	8824.01
653.109	8809.68
653.301	8735.95
653.494	8715.47
653.686	8803.53
653.879	8676.56
654.071	8463.57
654.263	8586.45
654.456	8443.09
654.648	8494.29
654.84	8287.45
655.033	8436.95
655.225	8449.24
655.417	8215.77
655.61	8254.68
655.802	8338.65
655.994	8113.37
656.186	8105.18
656.379	8113.37
656.571	8045.79
656.763	8000.73
656.955	7990.49
657.148	7890.14
657.34	7902.43
657.532	7830.75
657.724	7675.1
657.916	7763.17
658.108	7644.38
658.3	7787.74
658.492	7767.26
658.684	7517.41
658.876	7501.03
659.068	7488.74
659.26	7447.78
659.452	7396.58
659.644	7425.25
659.836	7306.47
660.028	7167.21
660.22	7277.8
660.412	7273.7
660.604	7181.54
660.796	7159.02
660.988	7159.02
661.18	7171.3
661.372	7060.71
661.563	7136.49
661.755	6915.31
661.947	6984.94
662.139	7007.47
662.331	6956.27
662.522	6722.8
662.714	6800.62
662.906	6644.98
663.097	6714.61
663.289	6782.19
663.481	6771.95
663.673	6690.03
663.864	6391.03
664.056	6620.4
664.247	6403.32
664.439	6386.93
664.631	6556.91
664.822	6569.2
665.014	6403.32
665.205	6417.65
665.397	6399.22
665.588	6262.01
665.78	6429.94
665.971	6280.44
666.163	6350.07
666.354	6264.05
666.546	6171.9
666.737	6135.03
666.929	6141.18
667.12	6214.9
667.311	6022.39
667.503	6042.87
667.694	6006.01
667.885	5874.94
668.077	6049.02
668.268	5801.21
668.459	5852.41
668.651	5813.5
668.842	5887.23
669.033	5862.65
669.224	5881.08
669.416	5879.04
669.607	5891.32
669.798	5649.66
669.989	5790.97
670.18	5858.56
670.371	5780.73
670.563	5635.33
670.754	5537.02
670.945	5645.57
671.136	5627.14
671.327	5618.94
671.518	5537.02
671.709	5600.51
671.9	5606.66
672.091	5477.63
672.282	5438.72
672.473	5487.87
672.664	5321.99
672.855	5352.71
673.046	5424.39
673.237	5397.76
673.428	5428.48
673.619	5393.67
673.809	5369.09
674	5434.63
674.191	5313.8
674.382	5281.03
674.573	5272.84
674.764	5156.1
674.954	5311.75
675.145	5162.25
675.336	5270.79
675.527	5287.17
675.717	5270.79
675.908	5104.9
676.099	5096.71
676.289	5274.88
676.48	5018.89
676.671	5190.92
676.861	5293.32
677.052	5072.14
677.243	5217.54
677.433	5145.86
677.624	5045.51
677.814	5027.08
678.005	5061.9
678.195	5113.1
678.386	4986.12
678.576	5049.61
678.767	4963.59
678.957	4992.27
679.148	5027.08
679.338	5076.23
679.529	5051.66
679.719	5016.84
679.909	5104.9
680.1	4945.16
680.29	4857.1
680.481	4816.14
680.671	4973.83
680.861	4955.4
681.052	4971.79
681.242	4957.45
681.432	5031.18
681.622	4883.72
681.813	4822.28
682.003	4924.68
682.193	4752.65
682.383	5010.7
682.573	4977.93
682.764	5029.13
682.954	4928.78
683.144	4826.38
683.334	4752.65
683.524	4879.63
683.714	4738.32
683.904	4953.35
684.094	4795.66
684.284	4891.91
684.474	4988.17
684.664	4818.19
684.854	4824.33
685.044	4814.09
685.234	4592.91
685.424	4867.34
685.614	4824.33
685.804	4867.34
685.994	4711.69
686.184	4726.03
686.374	4664.59
686.564	4619.53
686.753	4820.24
686.943	4631.82
687.133	4791.56
687.323	4539.66
687.513	4590.86
687.702	4625.68
687.892	4572.43
688.082	4494.61
688.272	4537.62
688.461	4449.55
688.651	4670.73
688.841	4525.33
689.03	4396.31
689.22	4449.55
689.41	4384.02
689.599	4506.9
689.789	4277.52
689.979	4267.28
690.168	4367.63
690.358	4291.86
690.547	4355.35
690.737	4420.88
690.926	4379.92
691.116	4177.17
691.305	4375.83
691.495	4285.72
691.684	4207.89
691.874	4185.37
692.063	4101.4
692.252	4162.84
692.442	4109.59
692.631	4224.28
692.82	4119.83
693.01	4115.73
693.199	4119.83
693.388	4109.59
693.578	4201.75
693.767	3974.42
693.956	4048.15
694.146	4058.39
694.335	4003.1
694.524	3843.35
694.713	3962.14
694.902	3953.94
695.092	3908.89
695.281	3888.41
695.47	3955.99
695.659	3958.04
695.848	3943.71
696.037	3796.25
696.226	3953.94
696.415	3847.45
696.604	3845.4
696.793	3831.07
696.982	3900.7
697.171	3947.8
697.36	3900.7
697.549	3841.31
697.738	3804.44
697.927	3808.54
698.116	3732.76
698.305	3775.77
698.494	3869.98
698.683	3865.88
698.872	3890.46
699.061	3669.28
699.25	3767.58
699.438	3867.93
699.627	3951.9
699.816	3853.59
700.005	3812.64
700.193	3794.2
700.382	3867.93
700.571	3779.87
700.76	3910.94
700.948	3814.68
701.137	3779.87
701.326	3702.04
701.514	3826.97
701.703	3763.48
701.892	3810.59
702.08	3888.41
702.269	3689.76
702.457	3761.44
702.646	3775.77
702.834	3679.52
703.023	3798.3
703.212	3679.52
703.4	3661.09
703.589	3700
703.777	3679.52
703.965	3720.48
704.154	3810.59
704.342	3646.75
704.531	3685.66
704.719	3796.25
704.907	3706.14
705.096	3671.33
705.284	3568.93
705.472	3714.33
705.661	3826.97
705.849	3843.35
706.037	3763.48
706.226	3622.17
706.414	3718.43
706.602	3638.56
706.79	3792.16
706.979	3640.61
707.167	3753.24
707.355	3689.76
707.543	3786.01
707.731	3642.65
707.919	3702.04
708.107	3712.28
708.296	3798.3
708.484	3822.87
708.672	3808.54
708.86	3704.09
709.048	3693.85
709.236	3882.27
709.424	3818.78
709.612	3747.1
709.8	3757.34
709.988	3775.77
710.176	3796.25
710.364	3720.48
710.551	3736.86
710.739	3695.9
710.927	3763.48
711.115	3734.81
711.303	3630.37
711.491	3706.14
711.679	3714.33
711.866	3753.24
712.054	3757.34
712.242	3689.76
712.43	3781.92
712.617	3663.13
712.805	3716.38
712.993	3693.85
713.181	3702.04
713.368	3650.85
713.556	3773.72
713.744	3726.62
713.931	3743
714.119	3904.79
714.306	3693.85
714.494	3757.34
714.682	3700
714.869	3667.23
715.057	3822.87
715.244	3728.67
715.432	3798.3
715.619	3773.72
715.807	3759.39
715.994	3628.32
716.182	3765.53
716.369	3853.59
716.556	3847.45
716.744	3671.33
716.931	3669.28
717.119	3624.22
717.306	3720.48
717.493	3761.44
717.681	3687.71
717.868	3763.48
718.055	3695.9
718.242	3814.68
718.43	3716.38
718.617	3724.57
718.804	3710.24
718.991	3794.2
719.179	3687.71
719.366	3722.52
719.553	3654.94
719.74	3726.62
719.927	3771.68
720.114	3650.85
720.301	3761.44
720.488	3679.52
720.676	3822.87
720.863	3685.66
721.05	3794.2
721.237	3769.63
721.424	3687.71
721.611	3697.95
721.798	3824.92
721.985	3683.61
722.172	3779.87
722.358	3777.82
722.545	3613.98
722.732	3626.27
722.919	3630.37
723.106	3659.04
723.293	3548.45
723.48	3693.85
723.667	3632.41
723.853	3593.5
724.04	3710.24
724.227	3599.65
724.414	3716.38
724.6	3542.3
724.787	3708.19
724.974	3675.42
725.161	3548.45
725.347	3589.41
725.534	3679.52
725.72	3689.76
725.907	3695.9
726.094	3589.41
726.28	3611.93
726.467	3726.62
726.653	3704.09
726.84	3695.9
727.027	3722.52
727.213	3607.84
727.4	3597.6
727.586	3650.85
727.773	3665.18
727.959	3867.93
728.145	3636.51
728.332	3689.76
728.518	3573.02
728.705	3702.04
728.891	3558.69
729.077	3581.21
729.264	3554.59
729.45	3593.5
729.636	3575.07
729.823	3507.49
730.009	3609.89
730.195	3589.41
730.382	3663.13
730.568	3587.36
730.754	3681.57
730.94	3474.72
731.126	3568.93
731.313	3566.88
731.499	3634.46
731.685	3527.97
731.871	3548.45
732.057	3556.64
732.243	3683.61
732.429	3544.35
732.615	3523.87
732.801	3564.83
732.987	3519.78
733.173	3505.44
733.359	3532.06
733.545	3616.03
733.731	3552.54
733.917	3589.41
734.103	3437.86
734.289	3470.62
734.475	3411.23
734.661	3405.09
734.847	3564.83
735.033	3325.22
735.219	3597.6
735.404	3521.82
735.59	3552.54
735.776	3462.43
735.962	3396.9
736.148	3472.67
736.333	3456.29
736.519	3409.19
736.705	3458.34
736.89	3333.41
737.076	3345.7
737.262	3388.71
737.447	3419.43
737.633	3464.48
737.819	3298.59
738.004	3265.83
738.19	3398.95
738.375	3276.07
738.561	3415.33
738.747	3317.03
738.932	3302.69
739.118	3251.49
739.303	3243.3
739.489	3267.88
739.674	3278.12
739.859	3384.61
740.045	3298.59
740.23	3310.88
740.416	3237.16
740.601	3382.56
740.786	3294.5
740.972	3212.58
741.157	3200.29
741.342	3101.99
741.528	3175.72
741.713	3040.55
741.898	3089.7
742.084	3048.74
742.269	3159.33
742.454	3136.81
742.639	3112.23
742.824	3065.13
743.01	2997.54
743.195	3245.35
743.38	3015.98
743.565	3167.52
743.75	3044.65
743.935	3067.17
744.12	3134.76
744.305	2891.05
744.49	2927.91
744.675	2938.15
744.86	2983.21
745.045	2886.95
745.23	2792.75
745.415	2845.99
745.6	3009.83
745.785	2741.55
745.97	2899.24
746.155	2899.24
746.34	2852.14
746.525	2811.18
746.71	2802.99
746.895	2755.88
747.079	2854.19
747.264	2655.53
747.449	2776.36
747.634	2663.72
747.819	2845.99
748.003	2606.38
748.188	2757.93
748.373	2626.86
748.557	2561.33
748.742	2622.77
748.927	2581.81
749.111	2628.91
749.296	2546.99
749.481	2528.56
749.665	2551.09
749.85	2514.22
750.034	2493.74
750.219	2495.79
750.404	2532.65
750.588	2381.1
750.773	2368.82
750.957	2368.82
751.141	2391.34
751.326	2383.15
751.51	2354.48
751.695	2331.95
751.879	2446.64
752.064	2381.1
752.248	2346.29
752.432	2334
752.617	2254.13
752.801	2282.8
752.985	2274.61
753.17	2233.65
753.354	2274.61
753.538	2186.55
753.722	2217.27
753.907	2159.92
754.091	2166.07
754.275	2137.4
754.459	2184.5
754.643	2051.38
754.828	2143.54
755.012	1975.61
755.196	2016.57
755.38	2123.06
755.564	2135.35
755.748	2022.71
755.932	2014.52
756.116	1930.55
756.3	1910.07
756.484	1881.4
756.668	1969.46
756.852	1781.05
757.036	1891.64
757.22	1795.39
757.404	1836.35
757.588	1799.48
757.772	1920.31
757.956	1848.63
758.14	1799.48
758.323	1822.01
758.507	1725.75
758.691	1776.95
758.875	1787.19
759.059	1672.51
759.242	1725.75
759.426	1735.99
759.61	1678.65
759.794	1733.95
759.977	1711.42
760.161	1738.04
760.345	1686.84
760.528	1692.99
760.712	1752.38
760.895	1623.36
761.079	1633.6
761.263	1602.88
761.446	1580.35
761.63	1619.26
761.813	1688.89
761.997	1568.06
762.18	1457.47
762.364	1623.36
762.547	1672.51
762.731	1482.05
762.914	1537.34
763.098	1574.21
763.281	1484.09
763.464	1561.92
763.648	1471.81
763.831	1506.62
764.015	1492.29
764.198	1377.6
764.381	1418.56
764.564	1539.39
764.748	1332.54
764.931	1496.38
765.114	1402.18
765.297	1439.04
765.481	1385.79
765.664	1449.28
765.847	1432.9
766.03	1477.95
766.213	1330.5
766.397	1410.37
766.58	1373.5
766.763	1408.32
766.946	1375.55
767.129	1424.7
767.312	1340.74
767.495	1318.21
767.678	1260.87
767.861	1381.7
768.044	1373.5
768.227	1389.89
768.41	1307.97
768.593	1350.98
768.776	1320.26
768.959	1224
769.142	1303.87
769.324	1236.29
769.507	1320.26
769.69	1277.25
769.873	1324.35
770.056	1299.78
770.239	1230.15
770.421	1181
770.604	1277.25
770.787	1146.18
770.97	1189.19
771.152	1203.52
771.335	1328.45
771.518	1123.65
771.7	1158.47
771.883	1168.71
772.066	1226.05
772.248	1150.28
772.431	1238.34
772.613	1170.76
772.796	1187.14
772.978	1133.89
773.161	1181
773.343	1142.08
773.526	1213.76
773.708	1008.97
773.891	1140.04
774.073	1074.5
774.256	980.29
774.438	1082.69
774.621	1058.12
774.803	1080.64
774.985	1084.74
775.168	1066.31
775.35	1021.25
775.532	1111.36
775.715	910.66
775.897	1000.77
776.079	957.77
776.261	1051.97
776.444	976.2
776.626	1021.25
776.808	931.14
776.99	982.34
777.173	978.25
777.355	994.63
777.537	931.14
777.719	914.76
777.901	898.38
778.083	957.77
778.265	814.41
778.447	881.99
778.629	965.96
778.811	947.53
778.993	908.62
779.175	933.19
779.357	869.7
779.539	906.57
779.721	869.7
779.903	843.08
780.085	750.92
780.267	888.14
780.449	816.46
780.631	849.22
780.812	884.04
780.994	773.45
781.176	795.98
781.358	722.25
781.54	777.55
781.721	767.31
781.903	820.55
782.085	742.73
782.267	767.31
782.448	744.78
782.63	798.03
782.812	712.01
782.993	755.02
783.175	709.96
783.357	726.35
783.538	671.05
783.72	701.77
783.901	732.49
784.083	785.74
784.264	632.14
784.446	652.62
784.627	634.19
784.809	605.52
784.99	716.11
785.172	607.56
785.353	720.2
785.535	582.99
785.716	613.71
785.897	615.76
786.079	632.14
786.26	669
786.441	675.15
786.623	611.66
786.804	615.76
786.985	681.29
787.167	566.6
787.348	585.04
787.529	533.84
787.71	591.18
787.891	603.47
788.073	578.89
788.254	568.65
788.435	550.22
788.616	589.13
788.797	574.8
788.978	519.5
789.159	527.69
789.34	535.89
789.522	552.27
789.703	470.35
789.884	496.97
790.065	623.95
790.246	560.46
790.427	521.55
790.607	499.02
790.788	568.65
790.969	556.36
791.15	550.22
791.331	564.56
791.512	488.78
791.693	460.11
791.874	482.64
792.054	437.58
792.235	496.97
792.416	503.12
792.597	517.45
792.778	417.1
792.958	402.77
793.139	513.36
793.32	417.1
793.5	419.15
793.681	578.89
793.862	478.54
794.042	384.34
794.223	464.21
794.404	427.34
794.584	447.82
794.765	443.73
794.945	470.35
795.126	410.96
795.306	496.97
795.487	388.43
795.667	359.76
795.848	492.88
796.028	390.48
796.209	431.44
796.389	425.29
796.57	402.77
796.75	394.58
796.93	341.33
797.111	349.52
797.291	374.1
797.471	396.62
797.652	351.57
797.832	279.89
798.012	347.47
798.192	331.09
798.373	345.42
798.553	392.53
798.733	345.42
798.913	318.8
799.093	324.94
799.274	359.76
799.454	351.57
799.634	417.1
799.814	349.52
799.994	413.01
800.174	374.1
800.354	269.65
800.534	214.35
800.714	345.42
800.894	316.75
801.074	363.86
801.254	347.47
801.434	406.86
801.614	357.71
801.794	247.12
801.974	619.85
802.154	335.18
802.334	341.33
802.514	300.37
802.693	339.28
802.873	349.52
803.053	363.86
803.233	312.66
803.413	394.58
803.592	370
803.772	326.99
803.952	275.79
804.131	318.8
804.311	331.09
804.491	304.46
804.67	324.94
804.85	283.98
805.03	279.89
805.209	425.29
805.389	365.9
805.568	329.04
805.748	230.74
805.928	243.03
806.107	288.08
806.287	286.03
806.466	269.65
806.646	259.41
806.825	308.56
807.004	257.36
807.184	243.03
807.363	316.75
807.543	261.46
807.722	263.51
807.901	322.9
808.081	240.98
808.26	216.4
808.439	263.51
808.619	179.54
808.798	243.03
808.977	253.27
809.156	304.46
809.336	206.16
809.515	214.35
809.694	228.69
809.873	222.55
810.052	267.6
810.231	302.42
810.411	281.94
810.59	292.18
810.769	195.92
810.948	238.93
811.127	179.54
811.306	230.74
811.485	195.92
811.664	175.44
811.843	261.46
812.022	232.79
812.201	226.64
812.38	157.01
812.559	222.55
812.737	247.12
812.916	89.43
813.095	279.89
813.274	281.94
813.453	181.59
813.632	200.02
813.811	259.41
813.989	154.96
814.168	204.11
814.347	234.83
814.526	245.07
814.704	214.35
814.883	173.39
815.062	179.54
815.24	277.84
815.419	181.59
815.598	232.79
815.776	138.58
815.955	240.98
816.133	230.74
816.312	191.83
816.49	279.89
816.669	226.64
816.847	161.11
817.026	202.07
817.204	238.93
817.383	257.36
817.561	191.83
817.74	189.78
817.918	210.26
818.097	177.49
818.275	212.31
818.453	140.63
818.632	202.07
818.81	214.35
818.988	197.97
819.167	95.57
819.345	136.53
819.523	202.07
819.701	169.3
819.879	210.26
820.058	128.34
820.236	220.5
820.414	214.35
820.592	181.59
820.77	142.68
820.948	142.68
821.127	157.01
821.305	171.35
821.483	99.67
821.661	193.87
821.839	122.2
822.017	46.42
822.195	130.39
822.373	177.49
822.551	197.97
822.729	167.25
822.907	132.44
823.085	206.16
823.262	189.78
823.44	89.43
823.618	87.38
823.796	191.83
823.974	181.59
824.152	181.59
824.329	142.68
824.507	152.91
824.685	150.87
824.863	171.35
825.04	214.35
825.218	228.69
825.396	122.2
825.574	140.63
825.751	154.96
825.929	146.77
826.107	204.11
826.284	157.01
826.462	154.96
826.639	116.05
826.817	161.11
826.994	136.53
827.172	146.77
827.349	148.82
827.527	101.72
827.704	177.49
827.882	140.63
828.059	111.96
828.237	122.2
828.414	134.48
828.591	77.14
828.769	109.91
828.946	83.28
829.124	161.11
829.301	122.2
829.478	154.96
829.655	128.34
829.833	126.29
830.01	56.66
830.187	159.06
830.364	83.28
830.542	79.19
830.719	128.34
830.896	138.58
831.073	140.63
831.25	140.63
831.427	118.1
831.604	93.52
831.782	38.23
831.959	138.58
832.136	66.9
832.313	138.58
832.49	40.28
832.667	120.15
832.844	140.63
833.021	169.3
833.198	75.09
833.374	126.29
833.551	105.81
833.728	105.81
833.905	111.96
834.082	1.37
834.259	165.2
834.436	154.96
834.612	77.14
834.789	101.72
834.966	75.09
835.143	134.48
835.319	42.32
835.496	107.86
835.673	77.14
835.85	144.72
836.026	136.53
836.203	132.44
836.38	75.09
836.556	111.96
836.733	124.24
836.909	171.35
837.086	99.67
837.262	81.24
837.439	140.63
837.616	34.13
837.792	97.62
837.968	36.18
838.145	40.28
838.321	157.01
838.498	87.38
838.674	146.77
838.851	146.77
839.027	142.68
839.203	79.19
839.38	58.71
839.556	103.76
839.732	136.53
839.909	79.19
840.085	167.25
840.261	50.52
840.437	83.28
840.614	71
840.79	81.24
840.966	148.82
841.142	71
841.318	13.65
841.494	161.11
841.671	89.43
841.847	1.37
842.023	56.66
842.199	56.66
842.375	99.67
842.551	5.46
842.727	79.19
842.903	144.72
843.079	73.04
843.255	93.52
843.431	66.9
843.607	81.24
843.783	75.09
843.959	66.9
844.134	48.47
844.31	140.63
844.486	42.32
844.662	114
844.838	91.48
845.013	111.96
845.189	64.85
845.365	9.56
845.541	19.8
845.716	42.32
845.892	118.1
846.068	103.76
846.244	-82.6
846.419	89.43
846.595	66.9
846.77	-19.11
846.946	46.42
847.122	-2.73
847.297	25.94
847.473	87.38
847.648	44.37
847.824	62.8
847.999	21.84
848.175	-15.02
848.35	58.71
848.526	44.37
848.701	105.81
848.876	157.01
849.052	83.28
849.227	-27.31
849.403	-10.92
849.578	40.28
849.753	25.94
849.929	89.43
850.104	21.84
850.279	101.72
850.454	15.7
850.63	60.76
850.805	56.66
850.98	15.7
851.155	50.52
851.33	91.48
851.505	40.28
851.681	124.24
851.856	81.24
852.031	42.32
852.206	25.94
852.381	71
852.556	66.9
852.731	111.96
852.906	38.23
853.081	38.23
853.256	144.72
853.431	120.15
853.606	25.94
853.781	5.46
853.956	-6.83
854.131	27.99
854.305	34.13
854.48	83.28
854.655	1.37
854.83	42.32
855.005	95.57
855.18	7.51
855.354	52.56
855.529	-6.83
855.704	58.71
855.879	34.13
856.053	9.56
856.228	15.7
856.403	7.51
856.577	36.18
856.752	34.13
856.926	54.61
857.101	68.95
857.276	25.94
857.45	25.94
857.625	58.71
857.799	-0.68
857.974	21.84
858.148	1.37
858.323	11.61
858.497	68.95
858.672	56.66
858.846	-17.07
859.02	95.57
859.195	54.61
859.369	50.52
859.543	58.71
859.718	75.09
859.892	48.47
860.066	15.7
860.241	-6.83
860.415	34.13
860.589	-25.26
860.763	32.08
860.938	32.08
861.112	-33.45
861.286	32.08
861.46	56.66
861.634	13.65
861.808	68.95
861.982	3.41
862.157	11.61
862.331	25.94
862.505	34.13
862.679	111.96
862.853	68.95
863.027	-47.79
863.201	75.09
863.375	-15.02
863.549	42.32
863.722	-12.97
863.896	25.94
864.07	-0.68
864.244	-0.68
864.418	58.71
864.592	48.47
864.766	-2.73
864.939	44.37
865.113	-29.35
865.287	58.71
865.461	9.56
865.634	-25.26
865.808	1.37
865.982	103.76
866.156	-2.73
866.329	-10.92
866.503	36.18
866.676	58.71
866.85	71
867.024	-4.78
867.197	66.9
867.371	7.51
867.544	5.46
867.718	60.76
867.891	44.37
868.065	7.51
868.238	-15.02
868.412	48.47
868.585	-55.98
868.759	9.56
868.932	7.51
869.105	3.41
869.279	21.84
869.452	-37.55
869.625	114
869.799	42.32
869.972	-41.64
870.145	-6.83
870.319	-12.97
870.492	-0.68
870.665	9.56
870.838	-101.03
871.011	3.41
871.185	62.8
871.358	-2.73
871.531	32.08
871.704	38.23
871.877	13.65
872.05	62.8
872.223	-10.92
872.396	38.23
872.569	25.94
872.742	-51.88
872.915	-25.26
873.088	-27.31
873.261	68.95
873.434	-6.83
873.607	34.13
873.78	66.9
873.953	-12.97
874.126	54.61
874.299	36.18
874.471	42.32
874.644	32.08
874.817	-39.59
874.99	111.96
875.163	-15.02
875.335	36.18
875.508	27.99
875.681	116.05
875.853	-55.98
876.026	40.28
876.199	89.43
876.371	-19.11
876.544	7.51
876.717	-39.59
876.889	-0.68
877.062	17.75
877.234	15.7
877.407	34.13
877.579	11.61
877.752	75.09
877.924	-2.73
878.097	9.56
878.269	42.32
878.442	56.66
878.614	7.51
878.786	68.95
878.959	-31.4
879.131	-31.4
879.303	-74.41
879.476	3.41
879.648	25.94
879.82	62.8
879.993	-15.02
880.165	48.47
880.337	-31.4
880.509	-19.11
880.681	-29.35
880.854	23.89
881.026	58.71
881.198	52.56
881.37	5.46
881.542	85.33
881.714	13.65
881.886	79.19
882.058	58.71
882.23	-66.22
882.402	95.57
882.574	83.28
882.746	46.42
882.918	9.56
883.09	56.66
883.262	30.04
883.434	42.32
883.606	-53.93
883.778	-35.5
883.95	-10.92
884.122	-27.31
884.293	7.51
884.465	40.28
884.637	23.89
884.809	-19.11
884.98	5.46
885.152	-21.16
885.324	73.04
885.496	48.47
885.667	17.75
885.839	83.28
886.011	-19.11
886.182	-8.87
886.354	23.89
886.525	-2.73
886.697	56.66
886.869	23.89
887.04	9.56
887.212	13.65
887.383	60.76
887.555	64.85
887.726	-12.97
887.897	-35.5
888.069	75.09
888.24	1.37
888.412	19.8
888.583	34.13
888.754	1.37
888.926	-88.75
889.097	-25.26
889.268	11.61
889.44	5.46
889.611	-10.92
889.782	54.61
889.953	-2.73
890.125	79.19
890.296	17.75
890.467	5.46
890.638	-21.16
890.809	1.37
890.98	-68.27
891.151	38.23
891.323	-4.78
891.494	-12.97
891.665	25.94
891.836	-10.92
892.007	38.23
892.178	-2.73
892.349	11.61
892.52	-51.88
892.691	-19.11
892.862	54.61
893.032	7.51
893.203	-47.79
893.374	-17.07
893.545	50.52
893.716	-10.92
893.887	7.51
894.057	50.52
894.228	38.23
894.399	30.04
894.57	48.47
894.74	9.56
894.911	3.41
895.082	9.56
895.253	-33.45
895.423	-35.5
895.594	97.62
895.764	-17.07
895.935	21.84
896.106	-43.69
896.276	1.37
896.447	46.42
896.617	-53.93
896.788	17.75
896.958	-117.42
897.129	21.84
897.299	-15.02
897.47	-23.21
897.64	68.95
897.81	-39.59
897.981	19.8
898.151	17.75
898.322	34.13
898.492	-31.4
898.662	-8.87
898.832	-39.59
899.003	11.61
899.173	-27.31
899.343	-55.98
899.513	-47.79
