Data from USB4F104151__18__10-21-16-140.txt Node

Date: Wed Mar 12 10:21:16 EDT 2025
User: louis
Spectrometer: USB4F10415
Trigger mode: 4
Integration Time (sec): 3.000000E-2
Scans to average: 1
Electric dark correction enabled: true
Nonlinearity correction enabled: false
Boxcar width: 0
XAxis mode: Wavelengths
Number of Pixels in Spectrum: 3648
>>>>>Begin Spectral Data<<<<<
178.204	-51.03
178.424	-51.03
178.644	-51.03
178.864	-116.56
179.084	-30.55
179.304	-55.12
179.524	-5.97
179.744	12.46
179.964	43.18
180.184	45.23
180.404	57.51
180.624	-3.93
180.844	30.89
181.064	-34.64
181.283	-48.98
181.503	-71.51
181.723	30.89
181.943	-55.12
182.163	26.79
182.383	4.27
182.602	24.75
182.822	-16.21
183.042	28.84
183.262	-3.93
183.482	51.37
183.701	59.56
183.921	14.51
184.141	-20.31
184.361	45.23
184.58	73.9
184.8	22.7
185.02	10.41
185.239	39.08
185.459	53.42
185.679	67.75
185.898	-44.88
186.118	47.27
186.338	65.71
186.557	116.9
186.777	18.6
186.997	114.86
187.216	-10.07
187.436	26.79
187.655	24.75
187.875	37.03
188.095	127.14
188.314	30.89
188.534	-14.17
188.753	18.6
188.973	4.27
189.192	108.71
189.412	34.99
189.631	51.37
189.851	51.37
190.07	4.27
190.29	-55.12
190.509	-18.26
190.729	37.03
190.948	80.04
191.168	151.72
191.387	63.66
191.607	-77.65
191.826	55.47
192.045	10.41
192.265	24.75
192.484	41.13
192.704	43.18
192.923	34.99
193.142	14.51
193.362	131.24
193.581	71.85
193.8	108.71
194.02	71.85
194.239	4.27
194.458	147.62
194.678	30.89
194.897	75.95
195.116	57.51
195.335	6.31
195.555	45.23
195.774	-18.26
195.993	71.85
196.212	47.27
196.432	43.18
196.651	-38.74
196.87	47.27
197.089	75.95
197.308	77.99
197.528	49.32
197.747	6.31
197.966	-12.12
198.185	61.61
198.404	57.51
198.623	108.71
198.842	-20.31
199.062	39.08
199.281	94.38
199.5	112.81
199.719	43.18
199.938	59.56
200.157	80.04
200.376	96.43
200.595	51.37
200.814	67.75
201.033	49.32
201.252	69.8
201.471	47.27
201.69	71.85
201.909	63.66
202.128	84.14
202.347	90.28
202.566	-18.26
202.785	45.23
203.004	-1.88
203.223	108.71
203.442	61.61
203.661	69.8
203.879	51.37
204.098	16.55
204.317	34.99
204.536	88.23
204.755	-18.26
204.974	32.94
205.193	51.37
205.411	147.62
205.63	22.7
205.849	-24.4
206.068	90.28
206.287	14.51
206.505	63.66
206.724	-20.31
206.943	22.7
207.162	4.27
207.381	22.7
207.599	16.55
207.818	47.27
208.037	-36.69
208.255	37.03
208.474	82.09
208.693	71.85
208.911	39.08
209.13	-10.07
209.349	51.37
209.567	73.9
209.786	-5.97
210.005	127.14
210.223	18.6
210.442	-5.97
210.661	86.19
210.879	45.23
211.098	-3.93
211.316	53.42
211.535	53.42
211.753	28.84
211.972	20.65
212.191	30.89
212.409	-3.93
212.628	-34.64
212.846	75.95
213.065	30.89
213.283	67.75
213.502	45.23
213.72	90.28
213.938	10.41
214.157	-14.17
214.375	69.8
214.594	12.46
214.812	71.85
215.031	37.03
215.249	-30.55
215.467	18.6
215.686	2.22
215.904	22.7
216.122	16.55
216.341	65.71
216.559	-26.45
216.778	-38.74
216.996	77.99
217.214	63.66
217.432	32.94
217.651	84.14
217.869	59.56
218.087	80.04
218.306	18.6
218.524	55.47
218.742	6.31
218.96	43.18
219.179	6.31
219.397	69.8
219.615	90.28
219.833	-28.5
220.051	26.79
220.27	45.23
220.488	92.33
220.706	69.8
220.924	77.99
221.142	20.65
221.36	47.27
221.578	65.71
221.796	47.27
222.015	39.08
222.233	32.94
222.451	112.81
222.669	-12.12
222.887	63.66
223.105	20.65
223.323	6.31
223.541	22.7
223.759	69.8
223.977	-20.31
224.195	18.6
224.413	59.56
224.631	110.76
224.849	82.09
225.067	59.56
225.285	43.18
225.503	24.75
225.721	6.31
225.939	14.51
226.157	59.56
226.375	121
226.592	45.23
226.81	22.7
227.028	-61.27
227.246	26.79
227.464	69.8
227.682	90.28
227.9	84.14
228.117	49.32
228.335	8.36
228.553	47.27
228.771	57.51
228.989	-22.36
229.206	4.27
229.424	63.66
229.642	30.89
229.86	26.79
230.077	10.41
230.295	98.47
230.513	67.75
230.731	90.28
230.948	131.24
231.166	110.76
231.384	-22.36
231.601	32.94
231.819	82.09
232.037	26.79
232.254	4.27
232.472	71.85
232.689	47.27
232.907	22.7
233.125	26.79
233.342	16.55
233.56	61.61
233.777	39.08
233.995	61.61
234.213	84.14
234.43	67.75
234.648	-69.46
234.865	39.08
235.083	30.89
235.3	57.51
235.518	-44.88
235.735	118.95
235.953	141.48
236.17	53.42
236.388	-10.07
236.605	80.04
236.822	59.56
237.04	135.34
237.257	67.75
237.475	20.65
237.692	14.51
237.909	18.6
238.127	4.27
238.344	47.27
238.562	51.37
238.779	32.94
238.996	32.94
239.214	37.03
239.431	45.23
239.648	-34.64
239.865	4.27
240.083	57.51
240.3	2.22
240.517	-10.07
240.735	8.36
240.952	39.08
241.169	84.14
241.386	24.75
241.603	59.56
241.821	102.57
242.038	47.27
242.255	24.75
242.472	-14.17
242.689	6.31
242.907	88.23
243.124	-32.6
243.341	84.14
243.558	6.31
243.775	28.84
243.992	43.18
244.209	30.89
244.426	37.03
244.643	86.19
244.86	73.9
245.078	45.23
245.295	47.27
245.512	86.19
245.729	45.23
245.946	37.03
246.163	92.33
246.38	10.41
246.597	-3.93
246.814	67.75
247.031	6.31
247.248	39.08
247.464	90.28
247.681	39.08
247.898	73.9
248.115	77.99
248.332	71.85
248.549	43.18
248.766	80.04
248.983	80.04
249.2	43.18
249.417	104.62
249.633	8.36
249.85	57.51
250.067	37.03
250.284	51.37
250.501	82.09
250.717	8.36
250.934	-61.27
251.151	37.03
251.368	49.32
251.585	8.36
251.801	14.51
252.018	43.18
252.235	14.51
252.451	10.41
252.668	53.42
252.885	118.95
253.102	80.04
253.318	59.56
253.535	22.7
253.752	-3.93
253.968	57.51
254.185	12.46
254.401	57.51
254.618	-5.97
254.835	-3.93
255.051	34.99
255.268	0.17
255.484	37.03
255.701	-20.31
255.917	47.27
256.134	61.61
256.351	51.37
256.567	51.37
256.784	37.03
257	-8.02
257.217	-3.93
257.433	20.65
257.65	104.62
257.866	96.43
258.082	14.51
258.299	-38.74
258.515	69.8
258.732	-5.97
258.948	63.66
259.165	-3.93
259.381	34.99
259.597	2.22
259.814	-36.69
260.03	28.84
260.246	80.04
260.463	63.66
260.679	39.08
260.895	71.85
261.112	-20.31
261.328	18.6
261.544	53.42
261.761	77.99
261.977	-1.88
262.193	12.46
262.409	43.18
262.626	43.18
262.842	67.75
263.058	-53.08
263.274	94.38
263.49	26.79
263.707	157.86
263.923	106.67
264.139	26.79
264.355	-8.02
264.571	61.61
264.787	-46.93
265.004	65.71
265.22	6.31
265.436	80.04
265.652	39.08
265.868	135.34
266.084	28.84
266.3	34.99
266.516	39.08
266.732	45.23
266.948	28.84
267.164	80.04
267.38	6.31
267.596	69.8
267.812	75.95
268.028	110.76
268.244	102.57
268.46	151.72
268.676	61.61
268.892	-10.07
269.108	30.89
269.324	-10.07
269.54	30.89
269.756	71.85
269.972	-1.88
270.188	30.89
270.403	18.6
270.619	26.79
270.835	18.6
271.051	22.7
271.267	43.18
271.483	28.84
271.698	34.99
271.914	80.04
272.13	80.04
272.346	14.51
272.562	45.23
272.777	65.71
272.993	24.75
273.209	-40.79
273.425	32.94
273.64	10.41
273.856	80.04
274.072	26.79
274.287	30.89
274.503	84.14
274.719	-1.88
274.934	69.8
275.15	2.22
275.366	28.84
275.581	26.79
275.797	-3.93
276.012	20.65
276.228	2.22
276.444	67.75
276.659	71.85
276.875	-79.7
277.09	-16.21
277.306	39.08
277.521	129.19
277.737	24.75
277.952	28.84
278.168	141.48
278.383	39.08
278.599	84.14
278.814	47.27
279.03	84.14
279.245	106.67
279.461	26.79
279.676	80.04
279.892	34.99
280.107	30.89
280.322	34.99
280.538	86.19
280.753	30.89
280.969	34.99
281.184	80.04
281.399	-10.07
281.615	45.23
281.83	92.33
282.045	10.41
282.26	63.66
282.476	88.23
282.691	75.95
282.906	49.32
283.122	118.95
283.337	39.08
283.552	-44.88
283.767	65.71
283.983	121
284.198	39.08
284.413	61.61
284.628	-38.74
284.843	67.75
285.058	39.08
285.274	20.65
285.489	12.46
285.704	32.94
285.919	24.75
286.134	-10.07
286.349	43.18
286.564	86.19
286.779	75.95
286.995	32.94
287.21	41.13
287.425	37.03
287.64	59.56
287.855	30.89
288.07	43.18
288.285	75.95
288.5	84.14
288.715	-5.97
288.93	-30.55
289.145	94.38
289.36	65.71
289.575	14.51
289.79	104.62
290.004	-61.27
290.219	37.03
290.434	88.23
290.649	41.13
290.864	125.1
291.079	45.23
291.294	39.08
291.509	69.8
291.724	108.71
291.938	86.19
292.153	43.18
292.368	-8.02
292.583	61.61
292.798	14.51
293.012	20.65
293.227	67.75
293.442	57.51
293.657	67.75
293.871	100.52
294.086	28.84
294.301	45.23
294.516	77.99
294.73	98.47
294.945	43.18
295.16	57.51
295.374	98.47
295.589	47.27
295.804	41.13
296.018	51.37
296.233	39.08
296.447	43.18
296.662	92.33
296.877	90.28
297.091	14.51
297.306	37.03
297.52	-3.93
297.735	71.85
297.949	14.51
298.164	69.8
298.378	-8.02
298.593	59.56
298.807	153.77
299.022	65.71
299.236	20.65
299.451	28.84
299.665	47.27
299.88	43.18
300.094	43.18
300.309	133.29
300.523	73.9
300.737	82.09
300.952	153.77
301.166	-28.5
301.381	47.27
301.595	84.14
301.809	-1.88
302.024	55.47
302.238	51.37
302.452	43.18
302.667	-28.5
302.881	98.47
303.095	67.75
303.309	51.37
303.524	30.89
303.738	63.66
303.952	24.75
304.166	45.23
304.381	-57.17
304.595	147.62
304.809	55.47
305.023	125.1
305.237	34.99
305.452	39.08
305.666	84.14
305.88	104.62
306.094	39.08
306.308	118.95
306.522	34.99
306.736	12.46
306.95	28.84
307.164	20.65
307.379	6.31
307.593	180.39
307.807	-14.17
308.021	45.23
308.235	82.09
308.449	41.13
308.663	-1.88
308.877	80.04
309.091	6.31
309.305	39.08
309.519	57.51
309.733	86.19
309.947	51.37
310.161	92.33
310.374	96.43
310.588	106.67
310.802	-26.45
311.016	82.09
311.23	84.14
311.444	4.27
311.658	80.04
311.872	61.61
312.085	43.18
312.299	22.7
312.513	-22.36
312.727	69.8
312.941	6.31
313.154	10.41
313.368	75.95
313.582	98.47
313.796	39.08
314.009	2.22
314.223	73.9
314.437	80.04
314.651	80.04
314.864	59.56
315.078	51.37
315.292	47.27
315.505	-1.88
315.719	20.65
315.933	39.08
316.146	12.46
316.36	63.66
316.573	77.99
316.787	47.27
317.001	43.18
317.214	26.79
317.428	121
317.641	-48.98
317.855	39.08
318.068	18.6
318.282	18.6
318.495	94.38
318.709	63.66
318.922	73.9
319.136	96.43
319.349	112.81
319.563	-1.88
319.776	80.04
319.99	8.36
320.203	104.62
320.417	164.01
320.63	49.32
320.843	45.23
321.057	39.08
321.27	47.27
321.483	53.42
321.697	110.76
321.91	77.99
322.124	39.08
322.337	73.9
322.55	57.51
322.763	-18.26
322.977	71.85
323.19	45.23
323.403	94.38
323.617	-3.93
323.83	80.04
324.043	26.79
324.256	26.79
324.469	45.23
324.683	55.47
324.896	18.6
325.109	80.04
325.322	16.55
325.535	121
325.748	86.19
325.962	65.71
326.175	37.03
326.388	71.85
326.601	84.14
326.814	47.27
327.027	100.52
327.24	53.42
327.453	-51.03
327.666	51.37
327.879	129.19
328.092	69.8
328.305	71.85
328.518	16.55
328.731	43.18
328.944	98.47
329.157	73.9
329.37	71.85
329.583	-18.26
329.796	96.43
330.009	71.85
330.222	2.22
330.435	-18.26
330.648	94.38
330.861	69.8
331.073	121
331.286	59.56
331.499	92.33
331.712	43.18
331.925	57.51
332.138	71.85
332.35	65.71
332.563	-1.88
332.776	53.42
332.989	0.17
333.202	71.85
333.414	100.52
333.627	30.89
333.84	34.99
334.053	71.85
334.265	71.85
334.478	22.7
334.691	51.37
334.903	26.79
335.116	4.27
335.329	43.18
335.541	71.85
335.754	43.18
335.966	-1.88
336.179	-3.93
336.392	30.89
336.604	14.51
336.817	18.6
337.029	104.62
337.242	6.31
337.454	51.37
337.667	6.31
337.88	80.04
338.092	88.23
338.305	92.33
338.517	43.18
338.729	77.99
338.942	-10.07
339.154	75.95
339.367	-16.21
339.579	75.95
339.792	47.27
340.004	84.14
340.217	39.08
340.429	100.52
340.641	-46.93
340.854	26.79
341.066	51.37
341.278	59.56
341.491	6.31
341.703	-3.93
341.915	6.31
342.128	108.71
342.34	104.62
342.552	104.62
342.764	26.79
342.977	102.57
343.189	-30.55
343.401	22.7
343.613	28.84
343.826	45.23
344.038	69.8
344.25	32.94
344.462	86.19
344.674	104.62
344.886	39.08
345.099	51.37
345.311	69.8
345.523	-1.88
345.735	-10.07
345.947	-20.31
346.159	24.75
346.371	125.1
346.583	84.14
346.795	110.76
347.007	-12.12
347.219	65.71
347.431	6.31
347.643	186.54
347.855	28.84
348.067	-10.07
348.279	-24.4
348.491	102.57
348.703	28.84
348.915	16.55
349.127	34.99
349.339	104.62
349.551	67.75
349.763	127.14
349.975	30.89
350.187	110.76
350.399	65.71
350.61	110.76
350.822	57.51
351.034	67.75
351.246	108.71
351.458	65.71
351.669	41.13
351.881	92.33
352.093	-3.93
352.305	47.27
352.517	41.13
352.728	-22.36
352.94	55.47
353.152	84.14
353.363	92.33
353.575	96.43
353.787	110.76
353.999	41.13
354.21	80.04
354.422	10.41
354.633	71.85
354.845	86.19
355.057	100.52
355.268	135.34
355.48	84.14
355.692	88.23
355.903	6.31
356.115	20.65
356.326	39.08
356.538	88.23
356.749	71.85
356.961	71.85
357.172	84.14
357.384	80.04
357.595	80.04
357.807	73.9
358.018	34.99
358.23	59.56
358.441	67.75
358.653	84.14
358.864	-1.88
359.075	18.6
359.287	90.28
359.498	80.04
359.709	30.89
359.921	-14.17
360.132	98.47
360.344	32.94
360.555	104.62
360.766	28.84
360.977	24.75
361.189	75.95
361.4	43.18
361.611	77.99
361.823	82.09
362.034	129.19
362.245	-10.07
362.456	-20.31
362.667	28.84
362.879	96.43
363.09	28.84
363.301	43.18
363.512	59.56
363.723	22.7
363.935	43.18
364.146	135.34
364.357	49.32
364.568	26.79
364.779	43.18
364.99	186.54
365.201	59.56
365.412	141.48
365.623	47.27
365.834	-5.97
366.045	32.94
366.256	43.18
366.467	55.47
366.678	65.71
366.889	65.71
367.1	102.57
367.311	71.85
367.522	65.71
367.733	30.89
367.944	88.23
368.155	61.61
368.366	18.6
368.577	63.66
368.788	82.09
368.999	10.41
369.209	92.33
369.42	145.58
369.631	147.62
369.842	43.18
370.053	69.8
370.264	20.65
370.474	-14.17
370.685	71.85
370.896	63.66
371.107	96.43
371.317	41.13
371.528	47.27
371.739	94.38
371.95	59.56
372.16	39.08
372.371	30.89
372.582	63.66
372.792	121
373.003	53.42
373.214	61.61
373.424	73.9
373.635	34.99
373.846	59.56
374.056	90.28
374.267	92.33
374.477	118.95
374.688	47.27
374.898	104.62
375.109	51.37
375.319	6.31
375.53	67.75
375.74	80.04
375.951	-42.84
376.161	14.51
376.372	80.04
376.582	-3.93
376.793	63.66
377.003	26.79
377.214	45.23
377.424	108.71
377.635	100.52
377.845	2.22
378.055	96.43
378.266	43.18
378.476	69.8
378.686	20.65
378.897	45.23
379.107	84.14
379.317	55.47
379.528	71.85
379.738	116.9
379.948	49.32
380.158	59.56
380.369	61.61
380.579	71.85
380.789	61.61
380.999	143.53
381.21	88.23
381.42	116.9
381.63	37.03
381.84	106.67
382.05	63.66
382.261	37.03
382.471	84.14
382.681	94.38
382.891	75.95
383.101	80.04
383.311	-14.17
383.521	86.19
383.731	49.32
383.941	53.42
384.151	22.7
384.361	55.47
384.571	61.61
384.781	98.47
384.991	47.27
385.201	75.95
385.411	145.58
385.621	92.33
385.831	63.66
386.041	106.67
386.251	71.85
386.461	100.52
386.671	118.95
386.881	96.43
387.091	43.18
387.301	77.99
387.511	75.95
387.72	71.85
387.93	45.23
388.14	39.08
388.35	45.23
388.56	-8.02
388.769	145.58
388.979	20.65
389.189	22.7
389.399	118.95
389.609	22.7
389.818	159.91
390.028	43.18
390.238	141.48
390.447	100.52
390.657	100.52
390.867	90.28
391.076	39.08
391.286	92.33
391.496	77.99
391.705	121
391.915	135.34
392.125	71.85
392.334	94.38
392.544	110.76
392.753	45.23
392.963	80.04
393.172	80.04
393.382	71.85
393.591	121
393.801	108.71
394.01	182.44
394.22	61.61
394.429	80.04
394.639	123.05
394.848	80.04
395.058	106.67
395.267	53.42
395.477	75.95
395.686	34.99
395.895	151.72
396.105	127.14
396.314	100.52
396.524	145.58
396.733	80.04
396.942	39.08
397.152	104.62
397.361	174.25
397.57	149.67
397.78	114.86
397.989	82.09
398.198	166.06
398.407	116.9
398.617	157.86
398.826	80.04
399.035	110.76
399.244	145.58
399.453	182.44
399.663	86.19
399.872	88.23
400.081	104.62
400.29	125.1
400.499	129.19
400.708	164.01
400.917	51.37
401.127	92.33
401.336	112.81
401.545	219.3
401.754	143.53
401.963	155.82
402.172	129.19
402.381	98.47
402.59	88.23
402.799	108.71
403.008	153.77
403.217	112.81
403.426	127.14
403.635	145.58
403.844	190.63
404.053	133.29
404.262	129.19
404.471	237.74
404.68	237.74
404.888	110.76
405.097	125.1
405.306	151.72
405.515	180.39
405.724	194.73
405.933	200.87
406.142	168.1
406.35	196.78
406.559	200.87
406.768	211.11
406.977	268.45
407.185	239.78
407.394	309.41
407.603	202.92
407.812	254.12
408.02	327.85
408.229	231.59
408.438	264.36
408.646	278.69
408.855	284.84
409.064	340.13
409.272	250.02
409.481	338.09
409.69	325.8
409.898	299.17
410.107	329.89
410.315	336.04
410.524	362.66
410.733	387.24
410.941	424.1
411.15	370.85
411.358	397.48
411.567	385.19
411.775	483.49
411.984	506.02
412.192	487.59
412.401	399.52
412.609	641.18
412.818	546.98
413.026	641.18
413.234	561.31
413.443	555.17
413.651	600.23
413.86	624.8
414.068	686.24
414.276	630.95
414.485	661.66
414.693	774.3
414.901	837.79
415.11	745.63
415.318	731.3
415.526	899.23
415.734	829.6
415.943	927.9
416.151	878.75
416.359	948.38
416.567	989.34
416.776	1032.35
416.984	997.53
417.192	1089.69
417.4	1063.07
417.608	1085.59
417.817	1132.7
418.025	1173.66
418.233	1271.96
418.441	1249.43
418.649	1208.47
418.857	1276.06
419.065	1466.52
419.273	1394.84
419.481	1450.13
419.689	1587.35
419.897	1546.39
420.105	1587.35
420.313	1790.1
420.521	1773.71
420.729	1765.52
420.937	1751.18
421.145	2019.47
421.353	2062.48
421.561	2168.97
421.769	2142.35
421.977	2214.02
422.185	2257.03
422.393	2357.38
422.601	2541.7
422.809	2447.49
423.017	2316.42
423.224	2652.29
423.432	2838.66
423.64	2660.48
423.848	2924.67
424.056	2795.65
424.263	3068.03
424.471	3211.39
424.679	3111.04
424.887	3391.61
425.094	3420.28
425.302	3467.38
425.51	3575.92
425.718	3793.01
425.925	3762.29
426.133	4067.44
426.341	4157.55
426.548	4178.03
426.756	4270.19
426.964	4339.82
427.171	4581.48
427.379	4743.27
427.586	4747.36
427.794	4878.43
428.001	5245.02
428.209	5349.47
428.417	5240.92
428.624	5793.87
428.832	5881.94
429.039	5689.43
429.247	5738.58
429.454	6254.67
429.662	6543.43
429.869	6172.75
430.076	6617.16
430.284	6412.36
430.491	6701.12
430.699	7012.42
430.906	6926.4
431.114	7166.01
431.321	7198.78
431.528	7682.1
431.736	8087.6
431.943	8378.41
432.15	8146.99
432.358	8235.05
432.565	8632.36
432.772	8710.18
432.979	9027.62
433.187	9310.24
433.394	9429.02
433.601	9990.16
433.808	10174.48
434.016	10000.4
434.223	10317.84
434.43	10848.26
434.637	10885.12
434.844	11526.14
435.052	11692.02
435.259	11474.94
435.466	11620.35
435.673	11597.82
435.88	12287.98
436.087	12832.74
436.294	13019.11
436.501	12691.43
436.708	13058.02
436.915	13228
437.122	13899.73
437.329	13875.16
437.537	14245.84
437.743	14616.52
437.95	14718.92
438.157	15431.62
438.364	15796.15
438.571	15671.23
438.778	15871.93
438.985	17233.83
439.192	16420.78
439.399	17348.51
439.606	16613.29
439.813	17442.72
440.02	18677.65
440.227	18306.96
440.433	18343.83
440.64	18986.89
440.847	18655.12
441.054	19132.29
441.261	20395.89
441.467	20051.83
441.674	20436.85
441.881	21139.3
442.088	21020.52
442.294	20961.13
442.501	21671.78
442.708	22064.99
442.914	22781.78
443.121	23443.27
443.328	23273.29
443.534	24987.44
443.741	24139.58
443.948	23603.01
444.154	25501.48
444.361	24915.76
444.568	25530.15
444.774	25679.65
444.981	25659.17
445.187	26408.73
445.394	27563.78
445.6	27164.43
445.807	30019.3
446.013	28182.27
446.22	29011.7
446.426	30133.98
446.633	30351.07
446.839	31401.68
447.046	30138.08
447.252	31944.39
447.459	31655.62
447.665	31942.34
447.871	32923.32
448.078	34152.1
448.284	32657.08
448.491	33906.34
448.697	34678.43
448.903	35563.15
449.11	35507.85
449.316	34444.96
449.522	35411.6
449.728	35999.37
449.935	36349.57
450.141	36378.24
450.347	37285.49
450.553	35974.79
450.76	36556.41
450.966	37719.66
451.172	36873.85
451.378	38211.17
451.584	36859.51
451.791	38358.63
451.997	38002.28
452.203	38329.95
452.409	38579.81
452.615	38190.69
452.821	36916.86
453.027	36521.6
453.233	38272.61
453.44	36710.01
453.646	37322.35
453.852	37265.01
454.058	37985.9
454.264	36890.23
454.47	37283.44
454.676	36390.53
454.882	37680.75
455.088	34455.2
455.294	34975.38
455.5	35208.85
455.705	35692.17
455.911	34154.15
456.117	33742.5
456.323	33085.11
456.529	31567.56
456.735	32501.43
456.941	31645.38
457.147	31530.7
457.352	30088.93
457.558	29871.84
457.764	29990.63
457.97	29552.36
458.176	28641.01
458.381	28567.29
458.587	27498.25
458.793	27039.5
458.999	25898.78
459.204	27830.02
459.41	26957.58
459.616	25155.37
459.821	25284.39
460.027	25206.57
460.233	24315.7
460.438	23430.98
460.644	24049.47
460.85	22552.4
461.055	22384.47
461.261	22409.04
461.466	20602.74
461.672	19928.95
461.878	21202.79
462.083	19797.88
462.289	19656.57
462.494	19376
462.7	18364.31
462.905	17919.9
463.111	18804.62
463.316	18775.95
463.522	18610.06
463.727	18276.24
463.932	18276.24
464.138	18116.5
464.343	18245.52
464.549	17571.74
464.754	18302.87
464.959	18141.08
465.165	17934.23
465.37	17440.67
465.575	16834.47
465.781	17383.33
465.986	17530.78
466.191	16981.93
466.397	16705.45
466.602	15941.56
466.807	16451.5
467.012	16517.04
467.218	16375.73
467.423	16086.97
467.628	16347.06
467.833	17076.13
468.038	16527.28
468.244	15906.74
468.449	16504.75
468.654	16066.49
468.859	15742.91
469.064	15781.82
469.269	15220.67
469.474	15097.8
469.679	15554.49
469.885	15196.1
470.09	15275.97
470.295	15046.6
470.5	14841.8
470.705	14747.59
470.91	14571.47
471.115	14366.67
471.32	14761.93
471.525	14471.12
471.73	14264.27
471.935	14301.14
472.139	13586.4
472.344	13895.64
472.549	13666.27
472.754	13580.25
472.959	13133.79
473.164	13107.17
473.369	12912.61
473.574	13258.72
473.778	13170.66
473.983	13037.54
474.188	13113.31
474.393	12400.62
474.598	12560.36
474.802	12406.77
475.007	12478.44
475.212	12161.01
475.417	11880.44
475.621	11726.84
475.826	11923.44
476.031	11591.67
476.235	11417.6
476.44	11622.39
476.645	11225.09
476.849	11462.65
477.054	11188.22
477.259	10971.14
477.463	11137.02
477.668	11036.67
477.872	10989.57
478.077	10657.8
478.282	10553.35
478.486	10555.4
478.691	10663.94
478.895	10362.89
479.1	10291.21
479.304	10416.14
479.509	9981.97
479.713	10307.6
479.918	10090.51
480.122	10059.79
480.326	10192.91
480.531	10057.75
480.735	9963.54
480.94	9889.81
481.144	10154
481.348	9512.99
481.553	9637.91
481.757	9508.89
481.961	9660.44
482.166	9803.8
482.37	9687.06
482.574	9549.85
482.778	9705.49
482.983	9750.55
483.187	9754.65
483.391	9506.84
483.595	9599
483.8	9492.51
484.004	9721.88
484.208	9711.64
484.412	9627.67
484.616	9611.29
484.821	9687.06
485.025	9553.94
485.229	9738.26
485.433	9754.65
485.637	9762.84
485.841	9459.74
486.045	9777.17
486.249	9605.14
486.453	9707.54
486.657	9627.67
486.861	9713.69
487.065	9275.42
487.269	9805.85
487.473	9426.97
487.677	9672.73
487.881	9775.13
488.085	9664.54
488.289	9789.46
488.493	9689.11
488.697	9816.08
488.901	9771.03
489.105	9740.31
489.309	9877.52
489.512	9746.45
489.716	9627.67
489.92	9973.78
490.124	9693.21
490.328	9791.51
490.531	9857.04
490.735	9936.92
490.939	9922.58
491.143	10016.79
491.346	10031.12
491.55	10092.56
491.754	9924.63
491.958	10334.22
492.161	10248.21
492.365	10217.49
492.569	10332.17
492.772	10248.21
492.976	10440.72
493.18	10369.04
493.383	10739.72
493.587	10426.38
493.79	10643.46
493.994	10569.74
494.197	10737.67
494.401	10831.88
494.605	10733.57
494.808	11128.83
495.012	11206.66
495.215	10924.04
495.419	11128.83
495.622	11177.98
495.825	11431.93
496.029	11376.64
496.232	11511.8
496.436	11470.84
496.639	11907.06
496.843	11567.1
497.046	11945.97
497.249	12023.8
497.453	12388.33
497.656	12222.45
497.859	12351.47
498.063	12273.65
498.266	12689.39
498.469	12756.97
498.673	12804.07
498.876	12877.8
499.079	13174.75
499.282	13150.18
499.485	13414.37
499.689	13582.3
499.892	13594.59
500.095	13987.8
500.298	14235.6
500.501	14055.38
500.705	14317.52
500.908	14757.83
501.111	14657.48
501.314	14821.32
501.517	15183.81
501.72	15022.02
501.923	15034.31
502.126	15652.8
502.329	15581.12
502.532	15792.06
502.735	16166.84
502.938	16177.08
503.141	16396.21
503.344	16619.44
503.547	16699.31
503.75	16697.26
503.953	16893.86
504.156	17106.85
504.359	17252.26
504.562	17598.37
504.765	18050.97
504.968	17885.08
505.17	18382.74
505.373	18050.97
505.576	18812.81
505.779	18872.2
505.982	18741.13
506.185	18941.83
506.387	19339.14
506.59	19392.39
506.793	19871.61
506.996	19785.6
507.198	20500.34
507.401	20260.73
507.604	20393.84
507.807	20860.78
508.009	20778.86
508.212	21172.07
508.415	21299.05
508.617	21739.36
508.82	21931.87
509.022	21608.29
509.225	22282.07
509.428	22447.96
509.63	22675.28
509.833	22523.73
510.035	23281.48
510.238	23244.62
510.44	23490.37
510.643	23813.95
510.845	23766.85
511.048	23992.12
511.25	24440.63
511.453	24502.07
511.655	25376.55
511.858	25083.69
512.06	25511.72
512.262	25407.27
512.465	25421.61
512.667	25866.02
512.87	26699.54
513.072	26484.5
513.274	26574.61
513.477	27143.95
513.679	27385.61
513.881	27371.27
514.084	27741.96
514.286	27793.15
514.488	28135.17
514.69	28737.27
514.893	29038.32
515.095	29300.46
515.297	29378.28
515.499	29312.75
515.701	29445.87
515.904	29818.6
516.106	30420.7
516.308	30537.43
516.51	30906.07
516.712	30688.98
516.914	31477.45
517.116	31803.08
517.318	31977.15
517.52	32145.09
517.722	32136.9
517.925	32720.57
518.127	33181.36
518.329	33119.92
518.531	33373.87
518.733	34004.64
518.935	34162.34
519.136	33988.26
519.338	34913.94
519.54	34786.97
519.742	35235.47
519.944	35624.59
520.146	35792.52
520.348	35712.65
520.55	36054.66
520.752	36449.92
520.954	36902.52
521.155	36449.92
521.357	37756.52
521.559	37394.03
521.761	38069.86
521.963	37879.4
522.164	37961.32
522.366	38383.2
522.568	39097.94
522.77	38784.6
522.971	39908.94
523.173	39456.34
523.375	39997
523.576	39554.64
523.778	39958.09
523.98	40334.92
524.181	40533.57
524.383	40648.25
524.584	41098.81
524.786	41348.66
524.988	41070.14
525.189	41967.15
525.391	41791.02
525.592	42012.2
525.794	42411.56
525.995	42192.42
526.197	42417.7
526.398	42958.36
526.6	43107.86
526.801	43396.63
527.003	43392.53
527.204	43339.29
527.406	43660.82
527.607	44062.22
527.808	43724.3
528.01	43324.95
528.211	43435.54
528.412	44748.29
528.614	44195.34
528.815	44598.79
529.016	45121.02
529.218	44588.55
529.419	44629.51
529.62	45170.17
529.822	44688.9
530.023	45164.03
530.224	45121.02
530.425	44973.56
530.626	44920.32
530.828	45004.28
531.029	46233.07
531.23	45358.58
531.431	45170.17
531.632	45514.23
531.833	45762.03
532.035	46329.32
532.236	45733.36
532.437	45975.02
532.638	45841.9
532.839	46276.07
533.04	45932.01
533.241	45868.53
533.442	46751.2
533.643	46212.59
533.844	46341.61
534.045	45886.96
534.246	45886.96
534.447	46128.62
534.648	46136.81
534.849	46128.62
535.05	45841.9
535.251	46726.63
535.451	46376.42
535.652	46491.11
535.853	46427.62
536.054	46581.22
536.255	46685.67
536.456	45745.65
536.657	47134.17
536.857	46800.35
537.058	46589.41
537.259	46599.65
537.46	46591.46
537.66	46415.33
537.861	47048.16
538.062	46681.57
538.263	46206.44
538.463	45997.55
538.664	46495.21
538.865	46519.78
539.065	46818.78
539.266	46267.88
539.466	46743.01
539.667	46102
539.868	46994.91
540.068	46552.55
540.269	46634.47
540.469	46697.95
540.67	46288.36
540.87	46296.55
541.071	46501.35
541.271	46593.51
541.472	46546.4
541.672	46407.14
541.873	46321.13
542.073	46376.42
542.274	46613.99
542.474	46405.09
542.675	46083.56
542.875	46880.22
543.075	46386.66
543.276	46220.78
543.476	46628.32
543.676	46194.15
543.877	46392.81
544.077	46489.06
544.277	46798.3
544.478	46376.42
544.678	46378.47
544.878	46218.73
545.078	46499.3
545.279	45981.17
545.479	46155.24
545.679	46194.15
545.879	46157.29
546.079	46314.98
546.28	46540.26
546.48	45661.68
546.68	46022.12
546.88	46269.93
547.08	46171.63
547.28	45979.12
547.48	45833.71
547.68	46226.92
547.88	45993.45
548.081	46040.56
548.281	46194.15
548.481	45827.57
548.681	46505.45
548.881	46046.7
549.081	46259.69
549.28	45786.61
549.48	45966.83
549.68	46149.1
549.88	46398.95
550.08	45862.38
550.28	45954.54
550.48	45878.77
550.68	46005.74
550.88	45561.33
551.08	45882.86
551.279	45960.69
551.479	45878.77
551.679	46095.85
551.879	45958.64
552.079	46267.88
552.278	45776.37
552.478	45483.51
552.678	45932.01
552.878	45891.05
553.077	45497.84
553.277	45874.67
553.477	46310.89
553.676	45690.35
553.876	45794.8
554.076	45555.19
554.275	45403.64
554.475	45391.35
554.674	45159.93
554.874	45792.75
555.074	45542.9
555.273	45559.28
555.473	45483.51
555.672	45444.6
555.872	45424.12
556.071	45067.77
556.271	45231.61
556.47	45350.39
556.67	44772.86
556.869	45305.34
557.068	45706.74
557.268	44606.98
557.467	45196.79
557.667	44752.38
557.866	44850.69
558.065	44852.73
558.265	44191.24
558.464	44465.67
558.663	44772.86
558.863	44353.03
559.062	45000.19
559.261	44224.01
559.461	44637.7
559.66	43994.64
559.859	44119.56
560.058	44094.99
560.258	44328.45
560.457	43736.59
560.656	44293.64
560.855	44008.97
561.054	44123.66
561.253	43599.38
561.453	43408.92
561.652	43714.06
561.851	44396.04
562.05	43462.16
562.249	43580.95
562.448	43445.78
562.647	43204.12
562.846	43304.47
563.045	44244.49
563.244	42917.4
563.443	43486.74
563.642	42518.05
563.841	43466.26
564.04	42712.61
564.239	43058.71
564.438	42675.74
564.637	42978.84
564.836	42741.28
565.035	42204.71
565.234	42724.89
565.432	42214.95
565.631	42163.75
565.83	42456.61
566.029	42112.55
566.228	41905.71
566.427	41801.26
566.625	42247.72
566.824	41408.05
567.023	41846.32
567.222	41180.73
567.42	41524.79
567.619	41172.53
567.818	41113.14
568.016	41594.42
568.215	41539.12
568.414	41197.11
568.612	41459.25
568.811	40943.16
569.01	41434.67
569.208	40445.51
569.407	40873.53
569.605	40085.06
569.804	40699.45
570.002	40058.44
570.201	40877.63
570.4	39976.52
570.598	39990.86
570.797	39691.85
570.995	40107.59
571.193	39460.43
571.392	39855.69
571.59	39640.65
571.789	39163.48
571.987	39472.72
572.186	39577.17
572.384	39112.28
572.582	39353.94
572.781	39251.54
572.979	38893.15
573.177	38968.92
573.376	39214.68
573.574	38878.81
573.772	39036.5
573.971	38467.17
574.169	38151.78
574.367	38057.57
574.565	38250.08
574.763	38157.92
574.962	37971.56
575.16	38129.25
575.358	37617.26
575.556	37588.59
575.754	38268.51
575.952	37559.92
576.151	37731.95
576.349	37344.88
576.547	37344.88
576.745	37113.46
576.943	36892.28
577.141	37133.94
577.339	37379.7
577.537	37092.98
577.735	36798.07
577.933	36593.28
578.131	36843.13
578.329	36437.63
578.527	36281.99
578.725	36263.55
578.923	36839.03
579.121	36021.89
579.319	36353.66
579.516	36533.89
579.714	36152.96
579.912	35661.45
580.11	35858.06
580.308	35884.68
580.506	35806.86
580.704	34772.63
580.901	35432.08
581.099	35712.65
581.297	35344.02
581.495	35085.97
581.692	35057.3
581.89	35042.96
582.088	35253.9
582.285	35059.35
582.483	35163.79
582.681	34854.55
582.878	34834.07
583.076	34373.28
583.274	34872.98
583.471	34203.3
583.669	34502.3
583.866	34078.37
584.064	34045.6
584.262	33619.63
584.459	34397.85
584.657	33990.31
584.854	33945.25
585.052	33242.8
585.249	34084.51
585.447	33459.88
585.644	33326.77
585.841	33197.74
586.039	33767.08
586.236	33169.07
586.434	33083.06
586.631	32855.73
586.828	32736.95
587.026	33173.17
587.223	32992.95
587.42	32550.59
587.618	32765.62
587.815	32030.4
588.012	32323.26
588.21	32112.32
588.407	32710.33
588.604	31911.62
588.801	31909.57
588.999	31811.27
589.196	32077.51
589.393	31850.18
589.59	31764.17
589.787	31604.42
589.984	31559.37
590.182	31194.83
590.379	31276.75
590.576	31237.84
590.773	31219.41
590.97	30914.26
591.167	30998.23
591.364	30543.58
591.561	30512.86
591.758	30396.12
591.955	30396.12
592.152	30678.74
592.349	30533.34
592.546	30822.1
592.743	30738.13
592.94	29988.58
593.137	30375.64
593.334	29951.71
593.531	29765.35
593.727	30162.65
593.924	29918.95
594.121	29630.18
594.318	29732.58
594.515	29488.87
594.712	29859.56
594.908	29484.78
595.105	29650.66
595.302	29337.32
595.499	29232.88
595.696	29279.98
595.892	29001.46
596.089	29325.04
596.286	29064.94
596.482	28753.65
596.679	28528.38
596.876	28749.56
597.072	28368.63
597.269	28358.39
597.466	28262.14
597.662	27905.79
597.859	28358.39
598.055	28391.16
598.252	27922.18
598.448	27809.54
598.645	27551.49
598.841	28196.6
599.038	27635.46
599.234	27756.29
599.431	27518.73
599.627	27516.68
599.824	27539.21
600.02	27064.08
600.217	27582.21
600.413	26842.9
600.609	27361.03
600.806	26961.68
601.002	27162.38
601.198	26933.01
601.395	26953.49
601.591	26756.88
601.787	26599.19
601.984	26470.17
602.18	26687.25
602.376	26373.91
602.572	26416.92
602.769	26378.01
602.965	26197.79
603.161	26478.36
603.357	26156.83
603.553	25704.23
603.75	26169.12
603.946	25534.25
604.142	25878.3
604.338	25444.13
604.534	25923.36
604.73	25634.6
604.926	25429.8
605.122	25298.73
605.318	25100.08
605.514	25200.43
605.71	25085.74
605.906	25093.93
606.102	24801.07
606.298	25282.34
606.494	24780.59
606.69	24903.47
606.886	24952.62
607.082	24526.64
607.278	24862.51
607.474	24323.9
607.67	24520.5
607.866	24297.27
608.062	24622.9
608.257	24352.57
608.453	24358.71
608.649	24502.07
608.845	24039.23
609.041	24274.74
609.236	24059.71
609.432	23988.03
609.628	24262.46
609.824	23873.34
610.019	23701.31
610.215	23729.98
610.411	23678.79
610.606	23832.38
610.802	23766.85
610.998	23695.17
611.193	23543.62
611.389	23498.56
611.584	23453.51
611.78	23424.84
611.976	23396.17
612.171	23263.05
612.367	23234.38
612.562	22974.28
612.758	22939.47
612.953	22857.55
613.149	23553.86
613.344	23000.91
613.539	23256.9
613.735	22798.16
613.93	23144.27
614.126	22812.49
614.321	23009.1
614.517	22970.19
614.712	22310.74
614.907	22495.06
615.103	22777.68
615.298	22505.3
615.493	22804.3
615.688	22445.91
615.884	22751.06
616.079	22273.88
616.274	22269.78
616.47	22572.88
616.665	22200.15
616.86	22050.65
617.055	22056.79
617.25	22054.75
617.445	22290.26
617.641	21919.58
617.836	22093.66
618.031	21532.51
618.226	21978.97
618.421	21800.8
618.616	21872.48
618.811	21569.38
619.006	21602.15
619.201	20930.41
619.396	21311.33
619.591	21032.81
619.786	21278.57
619.981	20739.95
620.176	20922.22
620.371	20645.74
620.566	20801.39
620.761	20756.33
620.956	20930.41
621.151	20514.67
621.346	20354.93
621.541	20320.12
621.735	20553.59
621.93	19820.41
622.125	20117.37
622.32	19832.7
622.515	19863.42
622.709	19924.86
622.904	19885.95
623.099	19470.21
623.294	19634.05
623.488	19308.42
623.683	19679.1
623.878	18898.83
624.072	19048.33
624.267	19246.98
624.462	18849.68
624.656	18907.02
624.851	18835.34
625.046	18775.95
625.24	18511.76
625.435	18249.62
625.629	18288.53
625.824	18347.92
626.018	18413.46
626.213	17846.17
626.407	17897.37
626.602	17618.85
626.796	18169.75
626.991	17665.95
627.185	17672.09
627.38	17563.55
627.574	17319.84
627.768	17184.68
627.963	17158.05
628.157	17069.99
628.352	17170.34
628.546	16863.15
628.74	16857
628.935	16846.76
629.129	16730.03
629.323	16646.06
629.517	16613.29
629.712	16461.74
629.906	16480.18
630.1	16336.82
630.294	16109.49
630.489	15863.74
630.683	16170.93
630.877	15906.74
631.071	15658.94
631.265	15882.17
631.459	15331.26
631.653	15601.6
631.848	15747
632.042	15476.67
632.236	15734.71
632.43	15284.16
632.624	15491.01
632.818	15130.56
633.012	14768.07
633.206	15114.18
633.4	14933.96
633.594	14700.49
633.788	14690.25
633.982	14806.98
634.176	14579.66
634.369	14489.55
634.563	14370.77
634.757	14288.85
634.951	14407.63
635.145	14284.75
635.339	14417.87
635.533	13930.45
635.726	14090.2
635.92	13758.42
636.114	13866.97
636.308	13834.2
636.501	13680.6
636.695	13742.04
636.889	13316.06
637.083	13440.99
637.276	13430.75
637.47	13187.04
637.664	13283.3
637.857	13277.15
638.051	13041.64
638.244	12828.65
638.438	12957.67
638.632	12951.53
638.825	12720.1
639.019	12650.47
639.212	12451.82
639.406	12705.77
639.599	12369.9
639.793	12687.34
639.986	12218.35
640.18	12615.66
640.373	12255.22
640.567	12259.31
640.76	12189.68
640.954	11937.78
641.147	11956.21
641.34	11790.33
641.534	12005.36
641.727	11900.92
641.92	11771.9
642.114	11714.55
642.307	11855.86
642.5	11681.78
642.694	11243.52
642.887	11151.36
643.08	11372.54
643.273	11405.31
643.467	11061.25
643.66	11159.55
643.853	11317.25
644.046	11036.67
644.239	11048.96
644.432	11032.58
644.626	10844.17
644.819	10897.41
645.012	10790.92
645.205	10862.6
645.398	10893.32
645.591	10702.86
645.784	10575.88
645.977	10352.65
646.17	10434.57
646.363	10352.65
646.556	10176.53
646.749	10246.16
646.942	10268.69
647.135	10117.14
647.328	9943.06
647.521	10092.56
647.714	9779.22
647.907	9875.48
648.099	10000.4
648.292	9986.07
648.485	9558.04
648.678	9855
648.871	9594.9
649.064	9533.47
649.256	9472.03
649.449	9547.8
649.642	9568.28
649.835	9234.46
650.027	9353.24
650.22	9431.07
650.413	9195.55
650.605	9300
650.798	9113.63
650.991	9181.21
651.183	9205.79
651.376	8902.69
651.568	9148.45
651.761	8751.14
651.954	8968.23
652.146	8788
652.339	8878.12
652.531	8982.56
652.724	8724.52
652.916	8493.1
653.109	8507.43
653.301	8609.83
653.494	8505.38
653.686	8294.44
653.879	8558.63
654.071	8276.01
654.263	8276.01
654.456	8353.84
654.648	8407.08
654.84	7884.85
655.033	8255.53
655.225	8026.16
655.417	7972.91
655.61	8181.81
655.802	7940.15
655.994	7952.43
656.186	8038.45
656.379	8034.35
656.571	7948.34
656.763	7563.32
656.955	7804.98
657.148	7731.25
657.34	7520.31
657.532	7548.98
657.724	7454.78
657.916	7567.42
658.108	7544.89
658.3	7565.37
658.492	7352.38
658.684	7409.72
658.876	7292.99
659.068	7227.45
659.26	7135.29
659.452	6963.26
659.644	7188.54
659.836	7108.67
660.028	7192.64
660.22	6930.5
660.412	7026.75
660.604	6842.43
660.796	6987.84
660.988	6897.73
661.18	6817.86
661.372	6973.5
661.563	6897.73
661.755	6623.3
661.947	6744.13
662.139	6598.73
662.331	6768.71
662.522	6613.06
662.714	6512.71
662.906	6568.01
663.097	6443.08
663.289	6426.7
663.481	6266.96
663.673	6590.53
663.864	6244.43
664.056	6432.84
664.247	6262.86
664.439	6142.03
664.631	6395.98
664.822	6254.67
665.014	6463.56
665.205	6234.19
665.397	6010.96
665.588	6207.56
665.78	6080.59
665.971	6017.1
666.163	6068.3
666.354	6064.21
666.546	5914.7
666.737	5937.23
666.929	5918.8
667.12	5871.7
667.311	5998.67
667.503	5916.75
667.694	5773.39
667.885	5961.81
668.077	5873.75
668.268	5720.15
668.459	5738.58
668.651	5582.93
668.842	5711.96
669.033	5652.56
669.224	5503.06
669.416	5550.17
669.607	5728.34
669.798	5605.46
669.989	5445.72
670.18	5484.63
670.371	5478.49
670.563	5359.7
670.754	5400.66
670.945	5591.13
671.136	5509.21
671.327	5380.18
671.518	5394.52
671.709	5199.96
671.9	5341.27
672.091	5427.29
672.282	5288.03
672.473	5236.83
672.664	5417.05
672.855	5388.38
673.046	5290.07
673.237	5204.06
673.428	5116
673.619	5048.41
673.809	5173.34
674	5283.93
674.191	5126.24
674.382	5083.23
674.573	5255.26
674.764	4995.17
674.954	5013.6
675.145	4915.3
675.336	4913.25
675.527	4958.3
675.717	4995.17
675.908	4925.54
676.099	4808.8
676.289	4778.08
676.48	4876.38
676.671	4823.14
676.861	4980.83
677.052	4833.38
677.243	4741.22
677.433	4847.71
677.624	4784.23
677.814	4769.89
678.005	4849.76
678.195	4788.32
678.386	4739.17
678.576	4794.47
678.767	4753.51
678.957	4780.13
679.148	4642.92
679.338	4808.8
679.529	4708.45
679.719	4618.34
679.909	4683.88
680.1	4669.54
680.29	4561
680.481	4593.76
680.671	4585.57
680.861	4657.25
681.052	4823.14
681.242	4530.28
681.432	4642.92
681.622	4544.61
681.813	4626.53
682.003	4446.31
682.193	4571.24
682.383	4520.04
682.573	4487.27
682.764	4509.8
682.954	4462.69
683.144	4536.42
683.334	4419.69
683.524	4466.79
683.714	4442.21
683.904	4450.41
684.094	4348.01
684.284	4380.78
684.474	4538.47
684.664	4431.98
684.854	4444.26
685.044	4528.23
685.234	4348.01
685.424	4259.95
685.614	4241.51
685.804	4376.68
685.994	4425.83
686.184	4376.68
686.374	4321.38
686.564	4237.42
686.753	4194.41
686.943	4214.89
687.133	4329.58
687.323	4094.06
687.513	4114.54
687.702	4229.23
687.892	4046.96
688.082	4135.02
688.272	4192.36
688.461	4098.16
688.651	4139.12
688.841	4083.82
689.03	4145.26
689.22	4092.01
689.41	3975.28
689.599	3971.18
689.789	4032.62
689.979	4024.43
690.168	3922.03
690.358	3876.98
690.547	3917.93
690.737	3991.66
690.926	3905.65
691.116	3903.6
691.305	3879.02
691.495	3786.86
691.684	3801.2
691.874	3754.1
692.063	3928.17
692.252	3750
692.442	3653.75
692.631	3704.95
692.82	3711.09
693.01	3782.77
693.199	3793.01
693.388	3776.63
693.578	3688.56
693.767	3700.85
693.956	3627.12
694.146	3577.97
694.335	3551.35
694.524	3530.87
694.713	3764.34
694.902	3532.92
695.092	3565.68
695.281	3582.07
695.47	3651.7
695.659	3489.91
695.848	3655.79
696.037	3453.05
696.226	3543.16
696.415	3461.24
696.604	3557.49
696.793	3469.43
696.982	3504.25
697.171	3557.49
697.36	3420.28
697.549	3496.05
697.738	3299.45
697.927	3498.1
698.116	3504.25
698.305	3475.57
698.494	3389.56
698.683	3631.22
698.872	3577.97
699.061	3438.71
699.25	3426.42
699.438	3471.48
699.627	3356.79
699.816	3336.31
700.005	3350.65
700.193	3344.5
700.382	3569.78
700.571	3330.17
700.76	3491.96
700.948	3561.59
701.137	3440.76
701.326	3371.13
701.514	3434.61
701.703	3375.22
701.892	3475.57
702.08	3479.67
702.269	3498.1
702.457	3315.83
702.646	3487.86
702.834	3238.01
703.023	3387.51
703.212	3352.7
703.4	3438.71
703.589	3301.5
703.777	3395.7
703.965	3401.85
704.154	3381.37
704.342	3328.12
704.531	3295.35
704.719	3338.36
704.907	3463.29
705.096	3213.43
705.284	3252.35
705.472	3289.21
705.661	3369.08
705.849	3446.9
706.037	3364.98
706.226	3360.89
706.414	3362.94
706.602	3342.46
706.79	3410.04
706.979	3336.31
707.167	3356.79
707.355	3225.72
707.543	3354.74
707.731	3373.18
707.919	3461.24
708.107	3340.41
708.296	3242.11
708.484	3340.41
708.672	3264.63
708.86	3242.11
709.048	3356.79
709.236	3235.96
709.424	3453.05
709.612	3303.54
709.8	3297.4
709.988	3293.3
710.176	3344.5
710.364	3207.29
710.551	3242.11
710.739	3172.47
710.927	3178.62
711.115	3407.99
711.303	3303.54
711.491	3303.54
711.679	3215.48
711.866	3313.78
712.054	3414.13
712.242	3197.05
712.43	3321.98
712.617	3313.78
712.805	3225.72
712.993	3338.36
713.181	3160.19
713.368	3512.44
713.556	3262.58
713.744	3180.67
713.931	3436.66
714.119	3350.65
714.306	3307.64
714.494	3319.93
714.682	3158.14
714.869	3250.3
715.057	3348.6
715.244	3303.54
715.432	3268.73
715.619	3145.85
715.807	3287.16
715.994	3354.74
716.182	3213.43
716.369	3258.49
716.556	3315.83
716.744	3186.81
716.931	3203.19
717.119	3350.65
717.306	3283.06
717.493	3278.97
717.681	3281.02
717.868	3317.88
718.055	3364.98
718.242	3283.06
718.43	3209.34
718.617	3324.02
718.804	3256.44
718.991	3182.71
719.179	3311.74
719.366	3141.75
719.553	3305.59
719.74	3281.02
719.927	3199.1
720.114	3188.86
720.301	3160.19
720.488	3186.81
720.676	3135.61
720.863	3254.39
721.05	3250.3
721.237	3143.8
721.424	3160.19
721.611	3133.56
721.798	3297.4
721.985	3268.73
722.172	3156.09
722.358	3225.72
722.545	3266.68
722.732	3078.27
722.919	3127.42
723.106	3195
723.293	3299.45
723.48	3063.93
723.667	3274.87
723.853	3141.75
724.04	3108.99
724.227	3145.85
724.414	3266.68
724.6	3278.97
724.787	3240.06
724.974	3117.18
725.161	3209.34
725.347	3070.08
725.534	3213.43
725.72	3018.88
725.907	3170.43
726.094	3225.72
726.28	3035.26
726.467	3139.71
726.653	3213.43
726.84	3098.75
727.027	3217.53
727.213	3158.14
727.4	3115.13
727.586	3098.75
727.773	3016.83
727.959	3111.04
728.145	3111.04
728.332	3065.98
728.518	3115.13
728.705	3190.91
728.891	3098.75
729.077	3006.59
729.264	3135.61
729.45	3123.32
729.636	3176.57
729.823	3004.54
730.009	3172.47
730.195	2979.97
730.382	3086.46
730.568	3025.02
730.754	2994.3
730.94	3049.6
731.126	3027.07
731.313	3086.46
731.499	3104.89
731.685	3008.64
731.871	3106.94
732.057	3055.74
732.243	2963.58
732.429	3074.17
732.615	3182.71
732.801	3068.03
732.987	3070.08
733.173	2916.48
733.359	2967.68
733.545	3098.75
733.731	3049.6
733.917	2920.57
734.103	3070.08
734.289	3096.7
734.475	2902.14
734.661	3061.88
734.847	3010.68
735.033	2990.21
735.219	3147.9
735.404	2908.29
735.59	2891.9
735.776	2971.77
735.962	2871.42
736.148	3096.7
736.333	2910.33
736.519	2918.53
736.705	2967.68
736.89	2986.11
737.076	2916.48
737.262	2994.3
737.447	2832.51
737.633	2920.57
737.819	2975.87
738.004	2816.13
738.19	2859.14
738.375	2789.5
738.561	2869.37
738.747	2840.7
738.932	2711.68
739.118	2840.7
739.303	2865.28
739.489	2936.96
739.674	2705.54
739.859	2793.6
740.045	2822.27
740.23	2730.11
740.416	2803.84
740.601	2666.63
740.786	2758.78
740.972	2775.17
741.157	2762.88
741.342	2611.33
741.528	2685.06
741.713	2769.02
741.898	2709.63
742.084	2730.11
742.269	2719.87
742.454	2652.29
742.639	2640
742.824	2697.35
743.01	2699.39
743.195	2695.3
743.38	2648.19
743.565	2556.04
743.75	2633.86
743.935	2551.94
744.12	2590.85
744.305	2510.98
744.49	2562.18
744.675	2631.81
744.86	2590.85
745.045	2594.95
745.23	2504.84
745.415	2379.91
745.6	2517.12
745.785	2390.15
745.97	2377.86
746.155	2510.98
746.34	2439.3
746.525	2373.77
746.71	2328.71
746.895	2267.27
747.079	2349.19
747.264	2332.81
747.449	2343.05
747.634	2273.42
747.819	2334.86
748.003	2197.64
748.188	2300.04
748.373	2285.7
748.557	2273.42
748.742	2289.8
748.927	2289.8
749.111	2123.91
749.296	2187.4
749.481	2228.36
749.665	2183.31
749.85	2144.39
750.034	2173.07
750.219	2085
750.404	2222.22
750.588	2080.91
750.773	2082.95
750.957	2046.09
751.141	2066.57
751.326	2013.32
751.51	2013.32
751.695	2029.71
751.879	2021.52
752.064	2033.8
752.248	1980.56
752.432	1962.12
752.617	1912.97
752.801	1808.53
752.985	1890.45
753.17	1876.11
753.354	1894.54
753.538	1878.16
753.722	1872.01
753.907	1826.96
754.091	1792.14
754.275	1882.25
754.459	1847.44
754.643	1831.05
754.828	1728.66
755.012	1714.32
755.196	1747.09
755.38	1818.77
755.564	1783.95
755.748	1540.24
755.932	1734.8
756.116	1605.78
756.3	1679.51
756.484	1681.55
756.668	1652.88
756.852	1685.65
757.036	1738.9
757.22	1630.35
757.404	1601.68
757.588	1515.67
757.772	1460.37
757.956	1589.39
758.14	1480.85
758.323	1413.27
758.507	1505.43
758.691	1441.94
758.875	1421.46
759.059	1573.01
759.242	1505.43
759.426	1527.96
759.61	1417.37
759.794	1460.37
759.977	1495.19
760.161	1446.04
760.345	1390.74
760.528	1409.17
760.712	1423.51
760.895	1345.69
761.079	1493.14
761.263	1396.89
761.446	1317.01
761.63	1341.59
761.813	1523.86
761.997	1308.82
762.18	1470.61
762.364	1443.99
762.547	1243.29
762.731	1394.84
762.914	1267.86
763.098	1288.34
763.281	1364.12
763.464	1386.65
763.648	1351.83
763.831	1390.74
764.015	1292.44
764.198	1284.25
764.381	1357.97
764.564	1339.54
764.748	1321.11
764.931	1290.39
765.114	1296.53
765.297	1269.91
765.481	1204.38
765.664	1249.43
765.847	1214.62
766.03	1171.61
766.213	1212.57
766.397	1175.7
766.58	1274.01
766.763	1218.71
766.946	1231
767.129	1210.52
767.312	1116.31
767.495	1169.56
767.678	1206.42
767.861	1288.34
768.044	1224.86
768.227	1212.57
768.41	1132.7
768.593	1222.81
768.776	1118.36
768.959	1159.32
769.142	1149.08
769.324	1149.08
769.507	1167.51
769.69	1132.7
769.873	1202.33
770.056	1104.03
770.239	987.29
770.421	1095.83
770.604	1075.35
770.787	1108.12
770.97	1169.56
771.152	1124.51
771.335	1081.5
771.518	954.52
771.7	1036.44
771.883	1005.72
772.066	985.24
772.248	1067.16
772.431	940.19
772.613	1018.01
772.796	997.53
772.978	1024.16
773.161	956.57
773.343	999.58
773.526	1036.44
773.708	909.47
773.891	1020.06
774.073	927.9
774.256	940.19
774.438	1022.11
774.621	985.24
774.803	860.32
774.985	938.14
775.168	956.57
775.35	831.65
775.532	901.28
775.715	913.56
775.897	815.26
776.079	985.24
776.261	913.56
776.444	895.13
776.626	870.56
776.808	745.63
776.99	784.54
777.173	862.37
777.355	850.08
777.537	780.45
777.719	876.7
777.901	817.31
778.083	719.01
778.265	694.43
778.447	862.37
778.629	813.21
778.811	837.79
778.993	858.27
779.175	794.78
779.357	762.02
779.539	737.44
779.721	764.06
779.903	821.41
780.085	739.49
780.267	743.58
780.449	669.86
780.631	809.12
780.812	721.06
780.994	770.21
781.176	698.53
781.358	686.24
781.54	684.19
781.721	721.06
781.903	694.43
782.085	606.37
782.267	692.38
782.448	610.47
782.63	708.77
782.812	655.52
782.993	667.81
783.175	602.27
783.357	643.23
783.538	653.47
783.72	624.8
783.901	635.04
784.083	604.32
784.264	616.61
784.446	583.84
784.627	594.08
784.809	534.69
784.99	563.36
785.172	575.65
785.353	577.7
785.535	626.85
785.716	561.31
785.897	602.27
786.079	512.16
786.26	540.83
786.441	475.3
786.623	514.21
786.804	518.31
786.985	549.03
787.167	649.38
787.348	534.69
787.529	485.54
787.71	536.74
787.891	506.02
788.073	512.16
788.254	501.92
788.435	518.31
788.616	585.89
788.797	465.06
788.978	442.53
789.159	497.83
789.34	544.93
789.522	481.44
789.703	417.96
789.884	499.88
790.065	381.09
790.246	501.92
790.427	481.44
790.607	561.31
790.788	489.64
790.969	469.16
791.15	381.09
791.331	424.1
791.512	487.59
791.693	370.85
791.874	387.24
792.054	444.58
792.235	518.31
792.416	397.48
792.597	385.19
792.778	458.92
792.958	415.91
793.139	333.99
793.32	493.73
793.5	422.05
793.681	387.24
793.862	420
794.042	405.67
794.223	344.23
794.404	381.09
794.584	374.95
794.765	407.72
794.945	381.09
795.126	444.58
795.306	424.1
795.487	346.28
795.667	407.72
795.848	360.61
796.028	413.86
796.209	350.37
796.389	399.52
796.57	280.74
796.75	366.76
796.93	366.76
797.111	397.48
797.291	372.9
797.471	387.24
797.652	342.18
797.832	372.9
798.012	397.48
798.192	329.89
798.373	333.99
798.553	348.33
798.733	311.46
798.913	340.13
799.093	276.65
799.274	333.99
799.454	311.46
799.634	350.37
799.814	317.61
799.994	329.89
800.174	256.17
800.354	284.84
800.534	286.89
800.714	385.19
800.894	268.45
801.074	299.17
801.254	262.31
801.434	387.24
801.614	233.64
801.794	305.32
801.974	727.2
802.154	307.37
802.334	356.52
802.514	250.02
802.693	338.09
802.873	237.74
803.053	286.89
803.233	331.94
803.413	233.64
803.592	321.7
803.772	272.55
803.952	309.41
804.131	313.51
804.311	336.04
804.491	329.89
804.67	194.73
804.85	282.79
805.03	262.31
805.209	288.93
805.389	331.94
805.568	293.03
805.748	284.84
805.928	268.45
806.107	231.59
806.287	268.45
806.466	323.75
806.646	321.7
806.825	284.84
807.004	223.4
807.184	247.97
807.363	241.83
807.543	231.59
807.722	276.65
807.901	301.22
808.081	313.51
808.26	194.73
808.439	258.21
808.619	250.02
808.798	202.92
808.977	192.68
809.156	237.74
809.336	252.07
809.515	182.44
809.694	213.16
809.873	256.17
810.052	231.59
810.231	256.17
810.411	272.55
810.59	239.78
810.769	237.74
810.948	284.84
811.127	149.67
811.306	229.54
811.485	116.9
811.664	209.06
811.843	127.14
812.022	221.35
812.201	227.5
812.38	254.12
812.559	247.97
812.737	211.11
812.916	243.88
813.095	221.35
813.274	211.11
813.453	217.26
813.632	276.65
813.811	198.82
813.989	145.58
814.168	188.58
814.347	184.49
814.526	235.69
814.704	254.12
814.883	241.83
815.062	186.54
815.24	290.98
815.419	188.58
815.598	116.9
815.776	47.27
815.955	137.38
816.133	100.52
816.312	161.96
816.49	192.68
816.669	237.74
816.847	192.68
817.026	166.06
817.204	170.15
817.383	184.49
817.561	192.68
817.74	188.58
817.918	133.29
818.097	202.92
818.275	178.34
818.453	149.67
818.632	178.34
818.81	157.86
818.988	145.58
819.167	157.86
819.345	211.11
819.523	170.15
819.701	129.19
819.879	149.67
820.058	141.48
820.236	143.53
820.414	121
820.592	227.5
820.77	151.72
820.948	131.24
821.127	108.71
821.305	231.59
821.483	77.99
821.661	153.77
821.839	166.06
822.017	55.47
822.195	155.82
822.373	184.49
822.551	86.19
822.729	182.44
822.907	141.48
823.085	135.34
823.262	170.15
823.44	118.95
823.618	63.66
823.796	51.37
823.974	161.96
824.152	186.54
824.329	174.25
824.507	211.11
824.685	108.71
824.863	118.95
825.04	69.8
825.218	90.28
825.396	110.76
825.574	118.95
825.751	104.62
825.929	157.86
826.107	135.34
826.284	41.13
826.462	84.14
826.639	184.49
826.817	92.33
826.994	129.19
827.172	147.62
827.349	137.38
827.527	133.29
827.704	196.78
827.882	129.19
828.059	135.34
828.237	110.76
828.414	92.33
828.591	94.38
828.769	166.06
828.946	75.95
829.124	184.49
829.301	194.73
829.478	102.57
829.655	77.99
829.833	145.58
830.01	-5.97
830.187	118.95
830.364	133.29
830.542	192.68
830.719	135.34
830.896	145.58
831.073	127.14
831.25	86.19
831.427	147.62
831.604	14.51
831.782	98.47
831.959	172.2
832.136	104.62
832.313	100.52
832.49	84.14
832.667	125.1
832.844	88.23
833.021	153.77
833.198	75.95
833.374	80.04
833.551	59.56
833.728	94.38
833.905	127.14
834.082	69.8
834.259	104.62
834.436	145.58
834.612	59.56
834.789	164.01
834.966	131.24
835.143	96.43
835.319	82.09
835.496	176.3
835.673	110.76
835.85	110.76
836.026	114.86
836.203	92.33
836.38	67.75
836.556	65.71
836.733	30.89
836.909	145.58
837.086	94.38
837.262	94.38
837.439	71.85
837.616	47.27
837.792	112.81
837.968	53.42
838.145	77.99
838.321	108.71
838.498	51.37
838.674	133.29
838.851	104.62
839.027	141.48
839.203	94.38
839.38	69.8
839.556	127.14
839.732	145.58
839.909	37.03
840.085	96.43
840.261	14.51
840.437	55.47
840.614	77.99
840.79	118.95
840.966	100.52
841.142	90.28
841.318	125.1
841.494	71.85
841.671	116.9
841.847	55.47
842.023	14.51
842.199	92.33
842.375	96.43
842.551	61.61
842.727	6.31
842.903	104.62
843.079	32.94
843.255	82.09
843.431	88.23
843.607	82.09
843.783	49.32
843.959	108.71
844.134	63.66
844.31	77.99
844.486	39.08
844.662	71.85
844.838	92.33
845.013	104.62
845.189	92.33
845.365	102.57
845.541	28.84
845.716	84.14
845.892	80.04
846.068	26.79
846.244	47.27
846.419	65.71
846.595	96.43
846.77	116.9
846.946	55.47
847.122	59.56
847.297	51.37
847.473	118.95
847.648	20.65
847.824	75.95
847.999	-44.88
848.175	80.04
848.35	67.75
848.526	51.37
848.701	108.71
848.876	59.56
849.052	71.85
849.227	53.42
849.403	67.75
849.578	28.84
849.753	43.18
849.929	90.28
850.104	34.99
850.279	28.84
850.454	59.56
850.63	108.71
850.805	69.8
850.98	82.09
851.155	55.47
851.33	53.42
851.505	-55.12
851.681	71.85
851.856	47.27
852.031	77.99
852.206	-22.36
852.381	18.6
852.556	10.41
852.731	121
852.906	90.28
853.081	61.61
853.256	86.19
853.431	139.43
853.606	77.99
853.781	73.9
853.956	14.51
854.131	80.04
854.305	-34.64
854.48	80.04
854.655	-18.26
854.83	14.51
855.005	92.33
855.18	47.27
855.354	-24.4
855.529	73.9
855.704	57.51
855.879	20.65
856.053	51.37
856.228	53.42
856.403	45.23
856.577	28.84
856.752	34.99
856.926	12.46
857.101	77.99
857.276	69.8
857.45	141.48
857.625	39.08
857.799	55.47
857.974	82.09
858.148	34.99
858.323	172.2
858.497	-1.88
858.672	41.13
858.846	57.51
859.02	57.51
859.195	37.03
859.369	2.22
859.543	71.85
859.718	92.33
859.892	47.27
860.066	57.51
860.241	59.56
860.415	69.8
860.589	100.52
860.763	6.31
860.938	55.47
861.112	75.95
861.286	49.32
861.46	92.33
861.634	-10.07
861.808	92.33
861.982	86.19
862.157	55.47
862.331	39.08
862.505	18.6
862.679	65.71
862.853	14.51
863.027	37.03
863.201	123.05
863.375	8.36
863.549	69.8
863.722	14.51
863.896	59.56
864.07	104.62
864.244	30.89
864.418	-5.97
864.592	57.51
864.766	73.9
864.939	30.89
865.113	14.51
865.287	16.55
865.461	18.6
865.634	34.99
865.808	55.47
865.982	14.51
866.156	39.08
866.329	4.27
866.503	53.42
866.676	47.27
866.85	20.65
867.024	22.7
867.197	102.57
867.371	88.23
867.544	30.89
867.718	65.71
867.891	84.14
868.065	-40.79
868.238	18.6
868.412	112.81
868.585	43.18
868.759	51.37
868.932	45.23
869.105	69.8
869.279	14.51
869.452	22.7
869.625	75.95
869.799	-22.36
869.972	-22.36
870.145	4.27
870.319	59.56
870.492	32.94
870.665	2.22
870.838	-8.02
871.011	-1.88
871.185	14.51
871.358	4.27
871.531	55.47
871.704	12.46
871.877	61.61
872.05	22.7
872.223	-32.6
872.396	104.62
872.569	67.75
872.742	-14.17
872.915	59.56
873.088	-36.69
873.261	18.6
873.434	26.79
873.607	24.75
873.78	61.61
873.953	53.42
874.126	-5.97
874.299	-48.98
874.471	39.08
874.644	-5.97
874.817	75.95
874.99	71.85
875.163	63.66
875.335	34.99
875.508	-5.97
875.681	96.43
875.853	2.22
876.026	22.7
876.199	96.43
876.371	30.89
876.544	55.47
876.717	102.57
876.889	61.61
877.062	8.36
877.234	-22.36
877.407	37.03
877.579	53.42
877.752	-59.22
877.924	22.7
878.097	8.36
878.269	-20.31
878.442	39.08
878.614	14.51
878.786	-26.45
878.959	14.51
879.131	30.89
879.303	-30.55
879.476	43.18
879.648	-3.93
879.82	-8.02
879.993	-5.97
880.165	47.27
880.337	4.27
880.509	-5.97
880.681	18.6
880.854	34.99
881.026	53.42
881.198	65.71
881.37	53.42
881.542	49.32
881.714	77.99
881.886	59.56
882.058	-38.74
882.23	-20.31
882.402	-3.93
882.574	-24.4
882.746	108.71
882.918	49.32
883.09	37.03
883.262	47.27
883.434	-36.69
883.606	-38.74
883.778	-75.6
883.95	14.51
884.122	30.89
884.293	18.6
884.465	-40.79
884.637	106.67
884.809	-28.5
884.98	-18.26
885.152	-5.97
885.324	129.19
885.496	-94.04
885.667	18.6
885.839	-12.12
886.011	30.89
886.182	39.08
886.354	20.65
886.525	57.51
886.697	-42.84
886.869	-26.45
887.04	45.23
887.212	20.65
887.383	69.8
887.555	20.65
887.726	39.08
887.897	-18.26
888.069	22.7
888.24	80.04
888.412	26.79
888.583	6.31
888.754	2.22
888.926	-46.93
889.097	12.46
889.268	39.08
889.44	53.42
889.611	-32.6
889.782	55.47
889.953	-42.84
890.125	4.27
890.296	-79.7
890.467	-20.31
890.638	6.31
890.809	0.17
890.98	6.31
891.151	14.51
891.323	100.52
891.494	39.08
891.665	143.53
891.836	43.18
892.007	-26.45
892.178	67.75
892.349	-30.55
892.52	-22.36
892.691	92.33
892.862	75.95
893.032	10.41
893.203	75.95
893.374	-12.12
893.545	53.42
893.716	-28.5
893.887	-1.88
894.057	-96.08
894.228	-18.26
894.399	-12.12
894.57	96.43
894.74	-1.88
894.911	41.13
895.082	71.85
895.253	6.31
895.423	-42.84
895.594	71.85
895.764	28.84
895.935	26.79
896.106	102.57
896.276	39.08
896.447	-34.64
896.617	57.51
896.788	-71.51
896.958	63.66
897.129	-40.79
897.299	-16.21
897.47	98.47
897.64	73.9
897.81	16.55
897.981	77.99
898.151	14.51
898.322	26.79
898.492	-1.88
898.662	-26.45
898.832	22.7
899.003	28.84
899.173	-20.31
899.343	8.36
899.513	14.51
