Data from USB4F104151__215__10-29-57-513.txt Node

Date: Wed Mar 12 10:29:57 EDT 2025
User: louis
Spectrometer: USB4F10415
Trigger mode: 4
Integration Time (sec): 3.000000E-2
Scans to average: 1
Electric dark correction enabled: true
Nonlinearity correction enabled: false
Boxcar width: 0
XAxis mode: Wavelengths
Number of Pixels in Spectrum: 3648
>>>>>Begin Spectral Data<<<<<
178.204	-51.54
178.424	-51.54
178.644	-51.54
178.864	-102.74
179.084	-112.98
179.304	-45.4
179.524	30.38
179.744	-47.44
179.964	18.09
180.184	40.62
180.404	34.47
180.624	28.33
180.844	-12.63
181.064	-29.01
181.283	-18.77
181.503	-39.25
181.723	40.62
181.943	-10.58
182.163	13.99
182.383	63.15
182.602	40.62
182.822	116.39
183.042	-20.82
183.262	73.39
183.482	-22.87
183.701	1.71
183.921	67.24
184.141	52.91
184.361	46.76
184.58	-16.73
184.8	16.04
185.02	36.52
185.239	36.52
185.459	22.19
185.679	77.48
185.898	9.9
186.118	36.52
186.338	18.09
186.557	50.86
186.777	3.75
186.997	32.43
187.216	61.1
187.436	102.06
187.655	50.86
187.875	67.24
188.095	5.8
188.314	48.81
188.534	110.25
188.753	81.58
188.973	34.47
189.192	147.11
189.412	91.82
189.631	106.15
189.851	63.15
190.07	59.05
190.29	-12.63
190.509	67.24
190.729	-16.73
190.948	118.44
191.168	161.45
191.387	106.15
191.607	81.58
191.826	24.23
192.045	34.47
192.265	61.1
192.484	97.96
192.704	13.99
192.923	22.19
193.142	73.39
193.362	104.11
193.581	1.71
193.8	57
194.02	42.67
194.239	32.43
194.458	91.82
194.678	-14.68
194.897	69.29
195.116	-26.96
195.335	54.95
195.555	87.72
195.774	40.62
195.993	63.15
196.212	38.57
196.432	-26.96
196.651	-10.58
196.87	46.76
197.089	120.49
197.308	126.63
197.528	9.9
197.747	3.75
197.966	93.87
198.185	120.49
198.404	13.99
198.623	69.29
198.842	83.63
199.062	32.43
199.281	85.67
199.5	26.28
199.719	138.92
199.938	18.09
200.157	71.34
200.376	79.53
200.595	48.81
200.814	30.38
201.033	32.43
201.252	130.73
201.471	75.43
201.69	93.87
201.909	97.96
202.128	63.15
202.347	32.43
202.566	44.71
202.785	50.86
203.004	-92.5
203.223	97.96
203.442	3.75
203.661	-12.63
203.879	48.81
204.098	7.85
204.317	-63.83
204.536	67.24
204.755	36.52
204.974	87.72
205.193	-14.68
205.411	132.78
205.63	132.78
205.849	188.07
206.068	-41.3
206.287	30.38
206.505	71.34
206.724	61.1
206.943	20.14
207.162	63.15
207.381	46.76
207.599	5.8
207.818	46.76
208.037	-33.11
208.255	100.01
208.474	1.71
208.693	71.34
208.911	36.52
209.13	61.1
209.349	73.39
209.567	42.67
209.786	48.81
210.005	95.91
210.223	100.01
210.442	-4.44
210.661	28.33
210.879	122.54
211.098	42.67
211.316	38.57
211.535	34.47
211.753	-24.92
211.972	140.97
212.191	16.04
212.409	95.91
212.628	-12.63
212.846	40.62
213.065	32.43
213.283	61.1
213.502	-14.68
213.72	1.71
213.938	5.8
214.157	44.71
214.375	22.19
214.594	63.15
214.812	79.53
215.031	3.75
215.249	-4.44
215.467	54.95
215.686	1.71
215.904	155.3
216.122	87.72
216.341	71.34
216.559	5.8
216.778	42.67
216.996	128.68
217.214	36.52
217.432	20.14
217.651	48.81
217.869	20.14
218.087	30.38
218.306	-12.63
218.524	61.1
218.742	11.95
218.96	26.28
219.179	-14.68
219.397	130.73
219.615	100.01
219.833	11.95
220.051	22.19
220.27	77.48
220.488	52.91
220.706	46.76
220.924	-22.87
221.142	54.95
221.36	26.28
221.578	102.06
221.796	16.04
222.015	50.86
222.233	28.33
222.451	13.99
222.669	-2.39
222.887	59.05
223.105	75.43
223.323	-10.58
223.541	75.43
223.759	-16.73
223.977	-10.58
224.195	93.87
224.413	28.33
224.631	65.19
224.849	34.47
225.067	120.49
225.285	54.95
225.503	24.23
225.721	30.38
225.939	100.01
226.157	18.09
226.375	48.81
226.592	13.99
226.81	22.19
227.028	95.91
227.246	59.05
227.464	81.58
227.682	95.91
227.9	-6.49
228.117	28.33
228.335	26.28
228.553	-55.64
228.771	-2.39
228.989	34.47
229.206	59.05
229.424	52.91
229.642	26.28
229.86	67.24
230.077	46.76
230.295	87.72
230.513	120.49
230.731	38.57
230.948	73.39
231.166	34.47
231.384	20.14
231.601	59.05
231.819	153.26
232.037	-0.34
232.254	-16.73
232.472	71.34
232.689	61.1
232.907	112.3
233.125	46.76
233.342	-22.87
233.56	13.99
233.777	61.1
233.995	75.43
234.213	59.05
234.43	59.05
234.648	79.53
234.865	102.06
235.083	-65.88
235.3	32.43
235.518	75.43
235.735	40.62
235.953	124.58
236.17	81.58
236.388	100.01
236.605	5.8
236.822	63.15
237.04	-26.96
237.257	3.75
237.475	54.95
237.692	73.39
237.909	9.9
238.127	57
238.344	69.29
238.562	145.06
238.779	30.38
238.996	28.33
239.214	11.95
239.431	65.19
239.648	28.33
239.865	24.23
240.083	63.15
240.3	91.82
240.517	85.67
240.735	110.25
240.952	52.91
241.169	97.96
241.386	75.43
241.603	-2.39
241.821	-8.53
242.038	50.86
242.255	46.76
242.472	7.85
242.689	89.77
242.907	46.76
243.124	63.15
243.341	16.04
243.558	83.63
243.775	-2.39
243.992	65.19
244.209	18.09
244.426	32.43
244.643	104.11
244.86	3.75
245.078	61.1
245.295	79.53
245.512	50.86
245.729	5.8
245.946	108.2
246.163	69.29
246.38	46.76
246.597	20.14
246.814	-37.2
247.031	40.62
247.248	87.72
247.464	61.1
247.681	50.86
247.898	75.43
248.115	34.47
248.332	-18.77
248.549	112.3
248.766	83.63
248.983	34.47
249.2	32.43
249.417	46.76
249.633	26.28
249.85	65.19
250.067	20.14
250.284	36.52
250.501	22.19
250.717	20.14
250.934	52.91
251.151	36.52
251.368	-6.49
251.585	38.57
251.801	50.86
252.018	18.09
252.235	-6.49
252.451	3.75
252.668	-14.68
252.885	71.34
253.102	50.86
253.318	54.95
253.535	48.81
253.752	32.43
253.968	112.3
254.185	46.76
254.401	1.71
254.618	36.52
254.835	63.15
255.051	102.06
255.268	95.91
255.484	28.33
255.701	81.58
255.917	81.58
256.134	-18.77
256.351	89.77
256.567	63.15
256.784	-0.34
257	30.38
257.217	108.2
257.433	63.15
257.65	30.38
257.866	71.34
258.082	54.95
258.299	-10.58
258.515	22.19
258.732	16.04
258.948	61.1
259.165	22.19
259.381	18.09
259.597	52.91
259.814	46.76
260.03	13.99
260.246	30.38
260.463	102.06
260.679	75.43
260.895	63.15
261.112	22.19
261.328	61.1
261.544	9.9
261.761	140.97
261.977	79.53
262.193	44.71
262.409	32.43
262.626	-18.77
262.842	-8.53
263.058	-2.39
263.274	9.9
263.49	61.1
263.707	30.38
263.923	79.53
264.139	65.19
264.355	71.34
264.571	81.58
264.787	75.43
265.004	83.63
265.22	63.15
265.436	36.52
265.652	57
265.868	108.2
266.084	46.76
266.3	-18.77
266.516	-6.49
266.732	7.85
266.948	79.53
267.164	36.52
267.38	38.57
267.596	18.09
267.812	52.91
268.028	75.43
268.244	18.09
268.46	61.1
268.676	28.33
268.892	79.53
269.108	61.1
269.324	-16.73
269.54	13.99
269.756	75.43
269.972	52.91
270.188	50.86
270.403	67.24
270.619	81.58
270.835	5.8
271.051	69.29
271.267	-14.68
271.483	67.24
271.698	132.78
271.914	73.39
272.13	89.77
272.346	67.24
272.562	24.23
272.777	67.24
272.993	48.81
273.209	54.95
273.425	11.95
273.64	16.04
273.856	97.96
274.072	40.62
274.287	54.95
274.503	71.34
274.719	46.76
274.934	-31.06
275.15	-55.64
275.366	52.91
275.581	-8.53
275.797	42.67
276.012	59.05
276.228	20.14
276.444	20.14
276.659	120.49
276.875	57
277.09	-18.77
277.306	50.86
277.521	89.77
277.737	95.91
277.952	108.2
278.168	65.19
278.383	18.09
278.599	69.29
278.814	151.21
279.03	36.52
279.245	116.39
279.461	28.33
279.676	54.95
279.892	54.95
280.107	-2.39
280.322	13.99
280.538	71.34
280.753	7.85
280.969	54.95
281.184	-29.01
281.399	46.76
281.615	50.86
281.83	73.39
282.045	-33.11
282.26	-10.58
282.476	20.14
282.691	95.91
282.906	38.57
283.122	34.47
283.337	85.67
283.552	79.53
283.767	7.85
283.983	54.95
284.198	61.1
284.413	79.53
284.628	5.8
284.843	54.95
285.058	118.44
285.274	20.14
285.489	18.09
285.704	120.49
285.919	11.95
286.134	106.15
286.349	48.81
286.564	65.19
286.779	57
286.995	26.28
287.21	52.91
287.425	42.67
287.64	7.85
287.855	32.43
288.07	34.47
288.285	38.57
288.5	128.68
288.715	59.05
288.93	-69.97
289.145	59.05
289.36	36.52
289.575	-10.58
289.79	83.63
290.004	28.33
290.219	46.76
290.434	75.43
290.649	13.99
290.864	46.76
291.079	63.15
291.294	87.72
291.509	50.86
291.724	122.54
291.938	22.19
292.153	95.91
292.368	7.85
292.583	36.52
292.798	48.81
293.012	128.68
293.227	11.95
293.442	59.05
293.657	75.43
293.871	38.57
294.086	52.91
294.301	32.43
294.516	102.06
294.73	48.81
294.945	13.99
295.16	16.04
295.374	95.91
295.589	38.57
295.804	106.15
296.018	63.15
296.233	67.24
296.447	57
296.662	38.57
296.877	124.58
297.091	28.33
297.306	40.62
297.52	61.1
297.735	57
297.949	-22.87
298.164	183.98
298.378	-26.96
298.593	-10.58
298.807	-20.82
299.022	28.33
299.236	120.49
299.451	-6.49
299.665	71.34
299.88	11.95
300.094	22.19
300.309	1.71
300.523	65.19
300.737	-26.96
300.952	9.9
301.166	79.53
301.381	59.05
301.595	77.48
301.809	46.76
302.024	13.99
302.238	-2.39
302.452	7.85
302.667	30.38
302.881	128.68
303.095	79.53
303.309	11.95
303.524	38.57
303.738	1.71
303.952	13.99
304.166	91.82
304.381	44.71
304.595	132.78
304.809	18.09
305.023	3.75
305.237	9.9
305.452	38.57
305.666	52.91
305.88	18.09
306.094	100.01
306.308	75.43
306.522	36.52
306.736	65.19
306.95	95.91
307.164	69.29
307.379	71.34
307.593	118.44
307.807	24.23
308.021	126.63
308.235	69.29
308.449	67.24
308.663	46.76
308.877	149.16
309.091	30.38
309.305	93.87
309.519	22.19
309.733	77.48
309.947	48.81
310.161	102.06
310.374	136.87
310.588	116.39
310.802	46.76
311.016	145.06
311.23	104.11
311.444	20.14
311.658	89.77
311.872	124.58
312.085	112.3
312.299	79.53
312.513	77.48
312.727	102.06
312.941	59.05
313.154	20.14
313.368	67.24
313.582	118.44
313.796	11.95
314.009	32.43
314.223	102.06
314.437	52.91
314.651	42.67
314.864	63.15
315.078	-14.68
315.292	20.14
315.505	24.23
315.719	87.72
315.933	93.87
316.146	108.2
316.36	28.33
316.573	89.77
316.787	65.19
317.001	77.48
317.214	-10.58
317.428	40.62
317.641	42.67
317.855	114.34
318.068	-31.06
318.282	130.73
318.495	75.43
318.709	67.24
318.922	30.38
319.136	95.91
319.349	11.95
319.563	165.54
319.776	126.63
319.99	165.54
320.203	48.81
320.417	30.38
320.63	81.58
320.843	175.78
321.057	42.67
321.27	32.43
321.483	95.91
321.697	48.81
321.91	36.52
322.124	24.23
322.337	95.91
322.55	24.23
322.763	87.72
322.977	44.71
323.19	11.95
323.403	38.57
323.617	136.87
323.83	110.25
324.043	54.95
324.256	134.82
324.469	42.67
324.683	75.43
324.896	1.71
325.109	83.63
325.322	46.76
325.535	95.91
325.748	18.09
325.962	-6.49
326.175	20.14
326.388	67.24
326.601	63.15
326.814	16.04
327.027	50.86
327.24	77.48
327.453	28.33
327.666	85.67
327.879	50.86
328.092	69.29
328.305	44.71
328.518	65.19
328.731	140.97
328.944	36.52
329.157	3.75
329.37	95.91
329.583	38.57
329.796	112.3
330.009	36.52
330.222	112.3
330.435	69.29
330.648	87.72
330.861	52.91
331.073	100.01
331.286	63.15
331.499	91.82
331.712	71.34
331.925	36.52
332.138	110.25
332.35	110.25
332.563	93.87
332.776	120.49
332.989	28.33
333.202	79.53
333.414	40.62
333.627	32.43
333.84	61.1
334.053	77.48
334.265	59.05
334.478	75.43
334.691	32.43
334.903	-0.34
335.116	-10.58
335.329	79.53
335.541	91.82
335.754	85.67
335.966	57
336.179	-22.87
336.392	95.91
336.604	28.33
336.817	95.91
337.029	77.48
337.242	9.9
337.454	89.77
337.667	116.39
337.88	112.3
338.092	85.67
338.305	52.91
338.517	59.05
338.729	54.95
338.942	-10.58
339.154	36.52
339.367	-0.34
339.579	143.02
339.792	44.71
340.004	143.02
340.217	89.77
340.429	75.43
340.641	104.11
340.854	71.34
341.066	5.8
341.278	136.87
341.491	120.49
341.703	108.2
341.915	40.62
342.128	63.15
342.34	52.91
342.552	91.82
342.764	67.24
342.977	79.53
343.189	89.77
343.401	46.76
343.613	3.75
343.826	40.62
344.038	7.85
344.25	87.72
344.462	93.87
344.674	124.58
344.886	52.91
345.099	128.68
345.311	104.11
345.523	128.68
345.735	-4.44
345.947	147.11
346.159	22.19
346.371	40.62
346.583	95.91
346.795	59.05
347.007	36.52
347.219	26.28
347.431	50.86
347.643	95.91
347.855	46.76
348.067	26.28
348.279	-24.92
348.491	7.85
348.703	50.86
348.915	54.95
349.127	54.95
349.339	-2.39
349.551	79.53
349.763	77.48
349.975	5.8
350.187	77.48
350.399	34.47
350.61	143.02
350.822	46.76
351.034	38.57
351.246	71.34
351.458	95.91
351.669	128.68
351.881	100.01
352.093	126.63
352.305	77.48
352.517	46.76
352.728	54.95
352.94	32.43
353.152	85.67
353.363	69.29
353.575	44.71
353.787	63.15
353.999	93.87
354.21	87.72
354.422	91.82
354.633	42.67
354.845	40.62
355.057	63.15
355.268	11.95
355.48	81.58
355.692	79.53
355.903	79.53
356.115	134.82
356.326	50.86
356.538	122.54
356.749	89.77
356.961	36.52
357.172	34.47
357.384	85.67
357.595	155.3
357.807	91.82
358.018	46.76
358.23	108.2
358.441	138.92
358.653	114.34
358.864	63.15
359.075	5.8
359.287	91.82
359.498	77.48
359.709	104.11
359.921	67.24
360.132	71.34
360.344	61.1
360.555	46.76
360.766	36.52
360.977	18.09
361.189	100.01
361.4	128.68
361.611	116.39
361.823	120.49
362.034	108.2
362.245	63.15
362.456	75.43
362.667	91.82
362.879	63.15
363.09	30.38
363.301	63.15
363.512	46.76
363.723	85.67
363.935	13.99
364.146	161.45
364.357	77.48
364.568	108.2
364.779	24.23
364.99	83.63
365.201	5.8
365.412	140.97
365.623	73.39
365.834	143.02
366.045	11.95
366.256	30.38
366.467	138.92
366.678	63.15
366.889	75.43
367.1	87.72
367.311	112.3
367.522	54.95
367.733	136.87
367.944	145.06
368.155	57
368.366	122.54
368.577	50.86
368.788	126.63
368.999	42.67
369.209	83.63
369.42	130.73
369.631	167.59
369.842	87.72
370.053	34.47
370.264	93.87
370.474	104.11
370.685	63.15
370.896	59.05
371.107	108.2
371.317	40.62
371.528	128.68
371.739	28.33
371.95	83.63
372.16	73.39
372.371	89.77
372.582	128.68
372.792	112.3
373.003	42.67
373.214	124.58
373.424	65.19
373.635	134.82
373.846	102.06
374.056	34.47
374.267	71.34
374.477	59.05
374.688	75.43
374.898	75.43
375.109	132.78
375.319	22.19
375.53	104.11
375.74	50.86
375.951	102.06
376.161	48.81
376.372	89.77
376.582	-49.49
376.793	91.82
377.003	61.1
377.214	54.95
377.424	110.25
377.635	143.02
377.845	42.67
378.055	112.3
378.266	97.96
378.476	104.11
378.686	120.49
378.897	63.15
379.107	95.91
379.317	67.24
379.528	61.1
379.738	132.78
379.948	40.62
380.158	48.81
380.369	124.58
380.579	61.1
380.789	85.67
380.999	75.43
381.21	89.77
381.42	151.21
381.63	30.38
381.84	130.73
382.05	120.49
382.261	77.48
382.471	85.67
382.681	104.11
382.891	128.68
383.101	63.15
383.311	81.58
383.521	186.02
383.731	52.91
383.941	134.82
384.151	136.87
384.361	63.15
384.571	95.91
384.781	85.67
384.991	153.26
385.201	165.54
385.411	93.87
385.621	140.97
385.831	61.1
386.041	159.4
386.251	34.47
386.461	30.38
386.671	65.19
386.881	167.59
387.091	16.04
387.301	89.77
387.511	138.92
387.72	179.88
387.93	110.25
388.14	71.34
388.35	75.43
388.56	118.44
388.769	112.3
388.979	112.3
389.189	106.15
389.399	118.44
389.609	118.44
389.818	30.38
390.028	112.3
390.238	126.63
390.447	106.15
390.657	140.97
390.867	65.19
391.076	100.01
391.286	153.26
391.496	73.39
391.705	75.43
391.915	50.86
392.125	130.73
392.334	9.9
392.544	59.05
392.753	149.16
392.963	157.35
393.172	100.01
393.382	95.91
393.591	145.06
393.801	93.87
394.01	181.93
394.22	145.06
394.429	140.97
394.639	130.73
394.848	128.68
395.058	79.53
395.267	112.3
395.477	161.45
395.686	122.54
395.895	112.3
396.105	126.63
396.314	202.41
396.524	130.73
396.733	186.02
396.942	183.98
397.152	136.87
397.361	192.17
397.57	181.93
397.78	155.3
397.989	104.11
398.198	204.46
398.407	151.21
398.617	120.49
398.826	114.34
399.035	255.65
399.244	171.69
399.453	214.7
399.663	194.22
399.872	218.79
400.081	161.45
400.29	173.74
400.499	153.26
400.708	231.08
400.917	122.54
401.127	169.64
401.336	241.32
401.545	216.74
401.754	224.94
401.963	247.46
402.172	138.92
402.381	192.17
402.59	120.49
402.799	151.21
403.008	292.52
403.217	253.61
403.426	216.74
403.635	165.54
403.844	163.5
404.053	206.5
404.262	145.06
404.471	231.08
404.68	222.89
404.888	216.74
405.097	190.12
405.306	251.56
405.515	249.51
405.724	294.57
405.933	304.81
406.142	245.41
406.35	241.32
406.559	319.14
406.768	263.85
406.977	339.62
407.185	325.29
407.394	345.77
407.603	298.66
407.812	220.84
408.02	380.58
408.229	308.9
408.438	288.42
408.646	321.19
408.855	390.82
409.064	435.88
409.272	358.05
409.481	351.91
409.69	423.59
409.898	376.48
410.107	480.93
410.315	558.75
410.524	468.64
410.733	542.37
410.941	427.68
411.15	601.76
411.358	538.27
411.567	693.92
411.775	616.1
411.984	614.05
412.192	587.43
412.401	681.63
412.609	773.79
412.818	698.02
413.026	747.17
413.234	775.84
413.443	677.54
413.651	784.03
413.86	859.81
414.068	833.18
414.276	937.63
414.485	857.76
414.693	962.2
414.901	1111.71
415.11	1062.55
415.318	1025.69
415.526	1066.65
415.734	1117.85
415.943	1230.49
416.151	1185.43
416.359	1109.66
416.567	1283.74
416.776	1353.37
416.984	1408.66
417.192	1457.81
417.4	1463.96
417.608	1449.62
417.817	1586.83
418.025	1644.18
418.233	1693.33
418.441	1664.66
418.649	1848.97
418.857	1908.37
419.065	1955.47
419.273	1896.08
419.481	2100.87
419.689	2156.17
419.897	2186.89
420.105	2260.62
420.313	2348.68
420.521	2395.78
420.729	2457.22
420.937	2432.65
421.145	2610.82
421.353	2844.29
421.561	2791.04
421.769	2903.68
421.977	3053.18
422.185	2981.5
422.393	3171.96
422.601	3446.39
422.809	3387
423.017	3536.5
423.224	3509.88
423.432	3784.3
423.64	3769.97
423.848	4185.71
424.056	3921.52
424.263	4300.39
424.471	4228.71
424.679	4372.07
424.887	4724.32
425.094	4666.98
425.302	4697.7
425.51	4984.41
425.718	5062.24
425.925	5058.14
426.133	5252.7
426.341	5619.28
426.548	5817.94
426.756	5781.07
426.964	5916.24
427.171	6202.96
427.379	6579.78
427.586	6499.91
427.794	6747.72
428.001	7063.1
428.209	7444.03
428.417	7247.42
428.624	7962.16
428.832	7718.45
429.039	7753.27
429.247	7759.41
429.454	8545.83
429.662	9053.73
429.869	8431.15
430.076	9023.01
430.284	8857.12
430.491	9236
430.699	9633.3
430.906	9532.95
431.114	9690.65
431.321	10055.19
431.528	10462.73
431.736	11111.94
431.943	11640.31
432.15	11234.82
432.358	11087.36
432.565	11816.44
432.772	11752.95
432.979	12441.07
433.187	12492.27
433.394	12826.09
433.601	13569.5
433.808	13637.08
434.016	13575.64
434.223	14058.96
434.43	14810.57
434.637	14577.1
434.844	15642.04
435.052	15584.7
435.259	15748.54
435.466	15963.58
435.673	15762.87
435.88	16569.77
436.087	17565.09
436.294	17601.95
436.501	17280.42
436.708	17667.49
436.915	18214.29
437.122	19254.66
437.329	19039.62
437.537	19660.16
437.743	19824
437.95	19625.34
438.157	20895.08
438.364	21620.06
438.571	21233
438.778	21525.86
438.985	23534.92
439.192	22764.88
439.399	23436.61
439.606	22596.95
439.813	24001.85
440.02	25400.62
440.227	24843.57
440.433	24726.83
440.64	26201.37
440.847	25451.81
441.054	26164.51
441.261	27903.23
441.467	27477.26
441.674	27888.9
441.881	28851.44
442.088	28749.04
442.294	28626.17
442.501	29336.81
442.708	30016.74
442.914	31499.47
443.121	32537.79
443.328	31472.84
443.534	34016.42
443.741	32642.23
443.948	31816.9
444.154	34839.7
444.361	34188.45
444.568	34872.47
444.774	34589.85
444.981	35294.35
445.187	35847.3
445.394	37561.45
445.6	36871.29
445.807	40379.46
446.013	38927.45
446.22	39795.79
446.426	41448.5
446.633	41045.05
446.839	42517.54
447.046	40787
447.252	43435.03
447.459	43394.07
447.665	42796.06
447.871	44540.93
448.078	46742.5
448.284	44239.88
448.491	45456.37
448.697	47453.14
448.903	47877.07
449.11	47885.26
449.316	47303.64
449.522	47993.81
449.728	49286.07
449.935	50009.01
450.141	48954.3
450.347	50852.77
450.553	49214.4
450.76	49806.26
450.966	51065.76
451.172	50488.23
451.378	51411.87
451.584	51018.66
451.791	51727.25
451.997	51446.68
452.203	52450.19
452.409	52431.75
452.615	52044.69
452.821	50410.41
453.027	50064.3
453.233	52265.87
453.44	49980.34
453.646	50477.99
453.852	50949.03
454.058	51835.8
454.264	49497.02
454.47	51119.01
454.676	49609.65
454.882	51501.98
455.088	46472.17
455.294	47705.04
455.5	47907.79
455.705	48427.98
455.911	46986.21
456.117	46013.42
456.323	45388.79
456.529	42734.62
456.735	44624.9
456.941	43416.6
457.147	42527.78
457.352	41368.63
457.558	41350.2
457.764	41096.25
457.97	40377.41
458.176	39758.92
458.381	39445.58
458.587	37330.03
458.793	37428.34
458.999	35837.06
459.204	38059.11
459.41	37213.3
459.616	34421.92
459.821	34849.94
460.027	34782.36
460.233	33768.62
460.438	32238.78
460.644	32484.54
460.85	31149.26
461.055	30360.8
461.261	30504.15
461.466	28335.35
461.672	27364.62
461.878	29367.53
462.083	27874.56
462.289	26842.39
462.494	26793.23
462.7	25441.57
462.905	24900.91
463.111	25603.36
463.316	25969.95
463.522	25398.57
463.727	25576.74
463.932	25740.58
464.138	25146.67
464.343	25111.85
464.549	24360.25
464.754	25341.22
464.959	25273.64
465.165	25048.36
465.37	24055.1
465.575	23385.41
465.781	24010.04
465.986	24507.7
466.191	23369.03
466.397	22996.3
466.602	21990.75
466.807	23082.31
467.012	22576.47
467.218	22998.35
467.423	22406.48
467.628	22676.82
467.833	23450.95
468.038	22498.64
468.244	21972.32
468.449	22797.65
468.654	21802.33
468.859	21845.34
469.064	21851.49
469.269	21151.08
469.474	20858.22
469.679	21556.58
469.885	20790.64
470.09	21071.21
470.295	20634.99
470.5	20352.37
470.705	20616.56
470.91	20032.89
471.115	20030.84
471.32	20196.73
471.525	20149.62
471.73	19713.41
471.935	19463.55
472.139	18740.62
472.344	19133.83
472.549	18996.62
472.754	18757
472.959	18398.61
473.164	17984.92
473.369	17978.78
473.574	18433.43
473.778	18183.57
473.983	18025.88
474.188	18179.48
474.393	17391.01
474.598	17341.86
474.802	16997.8
475.007	16944.55
475.212	16850.35
475.417	16178.61
475.621	16213.43
475.826	16278.96
476.031	16031.16
476.235	15764.92
476.44	16278.96
476.645	15611.32
476.849	15572.41
477.054	15560.13
477.259	15324.61
477.463	15267.27
477.668	14849.48
477.872	14986.69
478.077	14728.65
478.282	14294.48
478.486	14499.28
478.691	14403.02
478.895	14333.39
479.1	14228.95
479.304	14177.75
479.509	13800.92
479.713	13958.61
479.918	13888.98
480.122	13657.56
480.326	13778.39
480.531	13768.15
480.735	13745.62
480.94	13569.5
481.144	13850.07
481.348	13288.93
481.553	13516.25
481.757	13293.02
481.961	13260.26
482.166	13506.01
482.37	13456.86
482.574	13186.53
482.778	13487.58
482.983	13536.73
483.187	13460.96
483.391	13356.51
483.595	13286.88
483.8	13043.17
484.004	13256.16
484.208	13319.65
484.412	13120.99
484.616	13112.8
484.821	13301.22
485.025	12959.2
485.229	13262.3
485.433	13217.25
485.637	13260.26
485.841	13055.46
486.045	13116.9
486.249	13229.54
486.453	13037.03
486.657	13075.94
486.861	13368.8
487.065	12838.37
487.269	13164
487.473	13051.36
487.677	13100.51
487.881	13422.05
488.085	13149.67
488.289	13313.5
488.493	13256.16
488.697	13321.7
488.901	13207.01
489.105	13174.24
489.309	13446.62
489.512	13407.71
489.716	13616.6
489.92	13432.29
490.124	13370.85
490.328	13790.68
490.531	13360.61
490.735	13667.8
490.939	13807.06
491.143	13632.99
491.346	13663.71
491.55	13821.4
491.754	13698.52
491.958	13868.5
492.161	13845.98
492.365	14001.62
492.569	13931.99
492.772	14083.54
492.976	14116.31
493.18	14335.44
493.383	14501.33
493.587	14544.33
493.79	14423.5
493.994	14151.12
494.197	14570.96
494.401	14687.69
494.605	14351.82
494.808	14912.97
495.012	15089.09
495.215	14775.75
495.419	15351.23
495.622	15355.33
495.825	15322.56
496.029	15685.05
496.232	15836.6
496.436	15732.15
496.639	16098.74
496.843	16008.63
497.046	16481.71
497.249	16518.57
497.453	16596.4
497.656	16868.78
497.859	16551.34
498.063	17239.46
498.266	17491.36
498.469	17178.02
498.673	17468.83
498.876	17532.32
499.079	17939.86
499.282	18032.02
499.485	18421.14
499.689	18288.02
499.892	18757
500.095	18800.01
500.298	19129.73
500.501	18929.03
500.705	19266.95
500.908	19684.73
501.111	19918.2
501.314	19785.08
501.517	20213.11
501.72	20534.64
501.923	20489.59
502.126	21067.11
502.329	21425.51
502.532	21259.62
502.735	21681.5
502.938	21933.4
503.141	22093.15
503.344	22306.13
503.547	22177.11
503.75	22822.22
503.953	23043.4
504.156	23534.92
504.359	23682.37
504.562	23774.53
504.765	24155.45
504.968	24339.77
505.17	24743.22
505.373	24649.01
505.576	25087.28
505.779	25601.32
505.982	25568.55
506.185	25937.18
506.387	25990.43
506.59	26574.1
506.793	27020.56
506.996	27018.51
507.198	27593.99
507.401	27372.81
507.604	27845.89
507.807	28546.3
508.009	28638.45
508.212	28878.07
508.415	29086.96
508.617	29404.39
508.82	29709.54
509.022	29381.87
509.225	30287.07
509.428	30463.19
509.63	30604.5
509.833	30719.19
510.035	31644.87
510.238	31358.16
510.44	31861.96
510.643	32363.71
510.845	32586.94
511.048	32494.78
511.25	33103.03
511.453	33399.98
511.655	34608.28
511.858	33881.25
512.06	34348.19
512.262	34870.42
512.465	34673.82
512.667	35259.54
512.87	35646.6
513.072	35511.44
513.274	36525.18
513.477	36953.21
513.679	36916.34
513.881	37207.15
514.084	38091.88
514.286	37616.75
514.488	38143.08
514.69	39177.3
514.893	39093.33
515.095	39167.06
515.297	40041.54
515.499	39976.01
515.701	40336.45
515.904	40666.17
516.106	40727.61
516.308	41608.24
516.51	42064.94
516.712	41903.15
516.914	42353.7
517.116	43463.7
517.318	43023.39
517.52	43357.21
517.722	43793.42
517.925	43875.34
518.127	45124.6
518.329	45186.04
518.531	44987.39
518.733	45585.4
518.935	45919.21
519.136	46175.21
519.338	46652.39
519.54	46980.06
519.742	47641.56
519.944	48155.6
520.146	48565.19
520.348	48477.13
520.55	48847.81
520.752	49378.23
520.954	49916.85
521.155	49372.09
521.357	50633.64
521.559	50543.53
521.761	51432.35
521.963	50969.5
522.164	51837.84
522.366	51338.14
522.568	52214.67
522.77	52323.21
522.971	52999.04
523.173	53011.33
523.375	53275.52
523.576	53160.83
523.778	53500.79
523.98	54356.85
524.181	54508.39
524.383	54717.29
524.584	55147.36
524.786	54985.57
524.988	55417.69
525.189	55565.15
525.391	56064.85
525.592	56433.49
525.794	56310.61
525.995	56867.65
526.197	57101.12
526.398	57027.4
526.6	57703.23
526.801	57482.05
527.003	57744.19
527.204	57588.54
527.406	58198.83
527.607	58325.81
527.808	58735.4
528.01	58112.82
528.211	58434.35
528.412	59530.01
528.614	58747.69
528.815	59243.3
529.016	59855.64
529.218	59308.83
529.419	59392.8
529.62	59644.7
529.822	59665.18
530.023	60119.83
530.224	59972.38
530.425	60234.52
530.626	59587.36
530.828	60070.68
531.029	60943.11
531.23	60230.42
531.431	60250.9
531.632	60271.38
531.833	60750.6
532.035	60515.09
532.236	60766.99
532.437	61221.64
532.638	60832.52
532.839	60791.56
533.04	61623.04
533.241	60910.35
533.442	62155.51
533.643	61084.42
533.844	61436.67
534.045	61414.15
534.246	61037.32
534.447	61637.37
534.648	61467.39
534.849	61649.66
535.05	61162.25
535.251	61483.78
535.451	60988.17
535.652	61604.61
535.853	61631.23
536.054	61326.08
536.255	61534.98
536.456	61405.95
536.657	62352.12
536.857	61455.1
537.058	61418.24
537.259	61901.56
537.46	61901.56
537.66	61782.78
537.861	61803.26
538.062	61297.41
538.263	61864.7
538.463	61305.6
538.664	62274.29
538.865	61831.93
539.065	62130.93
539.266	61106.95
539.466	61807.36
539.667	61231.88
539.868	62069.5
540.068	61719.29
540.269	61678.33
540.469	62135.03
540.67	61254.4
540.87	61670.14
541.071	61842.17
541.271	61915.9
541.472	61379.33
541.672	61528.83
541.873	61381.38
542.073	60910.35
542.274	61963
542.474	61364.99
542.675	61188.87
542.875	61627.13
543.075	61481.73
543.276	61088.52
543.476	61979.38
543.676	61174.53
543.877	61637.37
544.077	61999.86
544.277	61332.23
544.478	61227.78
544.678	61164.29
544.878	61162.25
545.078	61833.98
545.279	61070.09
545.479	61582.08
545.679	61221.64
545.879	61479.68
546.079	61377.28
546.28	61238.02
546.48	61117.19
546.68	61178.63
546.88	61156.1
547.08	61082.37
547.28	61047.56
547.48	61268.74
547.68	61238.02
547.88	60996.36
548.081	61299.46
548.281	61516.54
548.481	60746.51
548.681	61356.8
548.881	61113.09
549.081	61004.55
549.28	60902.15
549.48	61203.2
549.68	60787.47
549.88	61530.88
550.08	60943.11
550.28	61061.89
550.48	60760.84
550.68	61446.91
550.88	60461.84
551.08	60939.02
551.279	60791.56
551.479	60498.7
551.679	60783.37
551.879	60689.16
552.079	60762.89
552.278	60658.45
552.478	60582.67
552.678	60883.72
552.878	60775.18
553.077	60644.11
553.277	60207.89
553.477	61043.46
553.676	60529.42
553.876	60760.84
554.076	60037.91
554.275	60488.46
554.475	59652.89
554.674	60730.12
554.874	60101.4
555.074	60132.12
555.273	59951.9
555.473	60310.29
555.672	59824.92
555.872	60121.88
556.071	60072.73
556.271	60246.8
556.47	59523.87
556.67	59251.49
556.869	59607.84
557.068	60283.67
557.268	59390.75
557.467	59689.76
557.667	59491.1
557.866	59841.31
558.065	58850.09
558.265	59493.15
558.464	59398.94
558.663	59931.42
558.863	58759.98
559.062	59876.12
559.261	58567.47
559.461	59794.2
559.66	58379.06
559.859	58743.59
560.058	58436.4
560.258	58813.23
560.457	57910.07
560.656	58841.9
560.855	58809.13
561.054	58661.68
561.253	57987.89
561.453	58575.66
561.652	58514.22
561.851	58448.69
562.05	58391.34
562.249	57887.54
562.448	58061.62
562.647	57678.65
562.846	57451.33
563.045	57862.97
563.244	57387.84
563.443	57744.19
563.642	56795.98
563.841	57506.62
564.04	56761.16
564.239	57418.56
564.438	56445.77
564.637	56908.61
564.836	57015.11
565.035	56122.19
565.234	56523.6
565.432	56550.22
565.631	56154.96
565.83	56542.03
566.029	56073.04
566.228	56023.89
566.427	55825.24
566.625	55733.08
566.824	54825.83
567.023	55720.79
567.222	54666.09
567.42	55374.69
567.619	55249.76
567.818	55421.79
568.016	54664.04
568.215	55057.25
568.414	54737.77
568.612	55362.4
568.811	54537.07
569.01	54483.82
569.208	53894
569.407	54539.11
569.605	53934.96
569.804	54393.71
570.002	53214.08
570.201	53853.04
570.4	53418.88
570.598	53519.23
570.797	53216.13
570.995	53320.57
571.193	52919.17
571.392	53390.2
571.59	52779.91
571.789	53021.57
571.987	52595.59
572.186	52460.43
572.384	52169.61
572.582	52745.09
572.781	52568.97
572.979	51942.29
573.177	51518.36
573.376	52312.97
573.574	51569.56
573.772	52011.92
573.971	51651.48
574.169	51137.44
574.367	50772.9
574.565	51616.66
574.763	51221.41
574.962	50992.03
575.16	50322.35
575.358	50846.63
575.556	49986.48
575.754	50867.11
575.952	49781.68
576.151	50506.66
576.349	49269.69
576.547	49767.35
576.745	50033.58
576.943	49839.03
577.141	49576.89
577.339	49759.16
577.537	49185.72
577.735	49275.83
577.933	49023.93
578.131	49060.8
578.329	48421.83
578.527	48339.91
578.725	48622.53
578.923	48747.46
579.121	48364.49
579.319	48548.81
579.516	48092.11
579.714	48317.39
579.912	47967.18
580.11	47643.6
580.308	47868.88
580.506	47803.35
580.704	46932.96
580.901	47533.01
581.099	47653.84
581.297	46758.88
581.495	46982.11
581.692	46986.21
581.89	46687.2
582.088	46742.5
582.285	46558.18
582.483	47006.69
582.681	46545.89
582.878	46111.72
583.076	45564.92
583.274	46418.92
583.471	45483
583.669	45792.24
583.866	45386.74
584.064	46029.8
584.262	44489.73
584.459	44979.2
584.657	45014.01
584.854	45190.14
585.052	44567.55
585.249	44882.94
585.447	45224.95
585.644	44301.32
585.841	44745.73
586.039	44461.06
586.236	44112.91
586.434	44080.14
586.631	43897.87
586.828	43850.77
587.026	43926.54
587.223	43629.58
587.42	43482.13
587.618	43842.57
587.815	43330.58
588.012	42669.09
588.21	43152.41
588.407	43336.73
588.604	42865.69
588.801	42314.79
588.999	42417.19
589.196	42423.33
589.393	42263.59
589.59	42251.3
589.787	42066.98
589.984	41817.13
590.182	41299
590.379	41976.87
590.576	41339.96
590.773	41503.79
590.97	41165.88
591.167	40930.36
591.364	40574.02
591.561	41274.42
591.758	40545.34
591.955	40598.59
592.152	40463.43
592.349	40199.24
592.546	40578.11
592.743	40539.2
592.94	39552.08
593.137	40315.97
593.334	39801.93
593.531	39144.53
593.727	39867.47
593.924	39185.49
594.121	39357.52
594.318	39609.42
594.515	39230.55
594.712	39398.48
594.908	38952.02
595.105	38945.88
595.302	38546.53
595.499	38581.34
595.696	38779.99
595.892	38106.21
596.089	38640.73
596.286	38431.84
596.482	38177.89
596.679	38184.04
596.876	38038.63
597.072	37725.29
597.269	37641.32
597.466	37690.48
597.662	37497.97
597.859	37327.99
598.055	37534.83
598.252	36836.47
598.448	37215.35
598.645	36623.48
598.841	36435.07
599.038	36600.96
599.234	36568.19
599.431	36279.43
599.627	36101.25
599.824	36775.03
600.02	36058.24
600.217	36297.86
600.413	35744.91
600.609	35730.57
600.806	35613.84
601.002	35761.29
601.198	35634.31
601.395	35390.61
601.591	35093.65
601.787	34952.34
601.984	34841.75
602.18	35093.65
602.376	34819.22
602.572	34587.8
602.769	34552.99
602.965	34112.67
603.161	34505.88
603.357	34442.4
603.553	34163.87
603.75	34653.34
603.946	33991.84
604.142	34303.14
604.338	33424.56
604.534	33828.01
604.73	33191.09
604.926	33619.11
605.122	33604.78
605.318	33287.34
605.514	33383.6
605.71	32974
605.906	33021.11
606.102	32957.62
606.298	32969.91
606.494	32853.17
606.69	32482.49
606.886	32775.35
607.082	32214.21
607.278	32740.54
607.474	32437.44
607.67	32591.03
607.866	31882.44
608.062	32404.67
608.257	32017.6
608.453	31761.61
608.649	31694.02
608.845	31661.26
609.041	31737.03
609.236	31907.01
609.432	31206.61
609.628	31599.82
609.824	31444.17
610.019	31241.42
610.215	31284.43
610.411	31179.98
610.606	31116.5
610.802	31413.45
610.998	31370.44
611.193	31104.21
611.389	30776.53
611.584	30774.49
611.78	30778.58
611.976	30541.02
612.171	31206.61
612.367	30637.27
612.562	30596.31
612.758	30295.26
612.953	29996.26
613.149	30622.94
613.344	30274.78
613.539	30692.57
613.735	30035.17
613.93	29854.95
614.126	30362.84
614.321	30176.48
614.517	30307.55
614.712	29850.85
614.907	29848.8
615.103	29879.52
615.298	29553.9
615.493	29992.16
615.688	29324.52
615.884	29992.16
616.079	28927.22
616.274	29801.7
616.47	29097.2
616.665	29134.06
616.86	29199.6
617.055	29007.09
617.25	28919.03
617.445	29416.68
617.641	28665.08
617.836	29330.67
618.031	28577.01
618.226	29187.31
618.421	28609.78
618.616	28921.07
618.811	28226.81
619.006	28568.82
619.201	27753.73
619.396	28284.16
619.591	27712.77
619.786	27913.47
619.981	27550.98
620.176	27632.9
620.371	27514.12
620.566	27522.31
620.761	26955.02
620.956	27389.19
621.151	26860.82
621.346	27381
621.541	26930.45
621.735	27168.01
621.93	26273.05
622.125	26682.64
622.32	26162.46
622.515	26252.57
622.709	26221.85
622.904	25873.7
623.099	25623.84
623.294	25668.9
623.488	25533.73
623.683	25451.81
623.878	25111.85
624.072	25591.08
624.267	25081.13
624.462	25224.49
624.656	24732.98
624.851	24876.34
625.046	24364.34
625.24	24640.82
625.435	24313.14
625.629	24417.59
625.824	24608.05
626.018	24139.07
626.213	23403.85
626.407	23975.23
626.602	23614.79
626.796	23496
626.991	23766.34
627.185	23391.56
627.38	23401.8
627.574	22842.7
627.768	22785.36
627.963	22754.64
628.157	22406.48
628.352	22484.31
628.546	22318.42
628.74	22302.04
628.935	22111.58
629.129	22246.74
629.323	21927.26
629.517	21882.2
629.712	21753.18
629.906	21919.07
630.1	21177.7
630.294	21708.13
630.489	21421.41
630.683	21507.43
630.877	20942.19
631.071	20981.1
631.265	20804.97
631.459	20757.87
631.653	20835.69
631.848	20692.33
632.042	20209.01
632.236	20379
632.43	20391.28
632.624	20206.97
632.818	20217.21
633.012	19760.51
633.206	19588.48
633.4	19832.19
633.594	19467.65
633.788	19576.19
633.982	19459.46
634.176	19420.55
634.369	19152.26
634.563	19101.06
634.757	19137.93
634.951	18900.36
635.145	19088.78
635.339	18972.04
635.533	18580.88
635.726	18357.65
635.92	18331.03
636.114	18060.7
636.308	18236.82
636.501	18124.18
636.695	18054.55
636.889	18130.33
637.083	17778.08
637.276	18220.44
637.47	17608.09
637.664	17532.32
637.857	17814.94
638.051	17456.54
638.244	17249.7
638.438	17235.36
638.632	17139.11
638.825	17110.44
639.019	16895.4
639.212	16776.62
639.406	16842.15
639.599	16784.81
639.793	16737.71
639.986	16326.07
640.18	16504.24
640.373	16410.03
640.567	16235.95
640.76	16080.31
640.954	15975.86
641.147	15969.72
641.34	15973.81
641.534	15877.56
641.727	15812.03
641.92	15795.64
642.114	15521.21
642.307	15521.21
642.5	15470.01
642.694	15283.65
642.887	15267.27
643.08	15257.03
643.273	15074.76
643.467	14880.2
643.66	15017.41
643.853	14976.45
644.046	14513.61
644.239	14869.96
644.432	14595.53
644.626	14378.45
644.819	14446.03
645.012	14431.69
645.205	14276.05
645.398	14511.57
645.591	14235.09
645.784	13891.03
645.977	13581.79
646.17	14126.55
646.363	13948.37
646.556	13661.66
646.749	13706.71
646.942	13680.09
647.135	13520.35
647.328	13487.58
647.521	13241.82
647.714	13161.95
647.907	13252.06
648.099	13055.46
648.292	13178.34
648.485	13166.05
648.678	13008.36
648.871	12887.53
649.064	12760.55
649.256	12948.97
649.449	12584.43
649.642	12576.23
649.835	12690.92
650.027	12236.27
650.22	12447.21
650.413	12269.04
650.605	12334.57
650.798	12469.74
650.991	12238.32
651.183	12068.34
651.376	11953.65
651.568	12119.54
651.761	11841.01
651.954	11808.25
652.146	11841.01
652.339	11855.35
652.531	11730.42
652.724	11572.73
652.916	11443.71
653.109	11482.62
653.301	11335.17
653.494	11537.91
653.686	11224.58
653.879	11267.58
654.071	11142.66
654.263	11146.75
654.456	11265.53
654.648	11339.26
654.84	10921.48
655.033	11073.03
655.225	10933.76
655.417	11095.55
655.61	10745.35
655.802	10814.98
655.994	10636.81
656.186	10831.37
656.379	10565.13
656.571	10726.92
656.763	10270.22
656.955	10335.76
657.148	10298.89
657.34	10393.1
657.532	10110.48
657.724	10354.19
657.916	10147.34
658.108	10200.59
658.3	10046.99
658.492	10081.81
658.684	10067.47
658.876	9985.55
659.068	9741.85
659.26	9813.52
659.452	9627.16
659.644	9801.24
659.836	9557.53
660.028	9586.2
660.22	9496.09
660.412	9430.55
660.604	9528.86
660.796	9508.38
660.988	9309.72
661.18	9334.3
661.372	9182.75
661.563	9227.81
661.755	9207.33
661.947	9266.72
662.139	9231.9
662.331	9166.37
662.522	8965.67
662.714	8871.46
662.906	8859.17
663.097	9018.91
663.289	8807.97
663.481	8734.25
663.673	8644.13
663.864	8566.31
664.056	8777.25
664.247	8519.21
664.439	8435.24
664.631	8695.33
664.822	8435.24
665.014	8545.83
665.205	8318.51
665.397	8361.52
665.588	8400.43
665.78	8193.58
665.971	8183.34
666.163	8160.81
666.354	8203.82
666.546	8017.46
666.737	8119.85
666.929	7829.04
667.12	8023.6
667.311	7951.92
667.503	7953.97
667.694	7882.29
667.885	7829.04
668.077	8085.04
668.268	7677.49
668.459	7808.56
668.651	7636.53
668.842	7704.12
669.033	7587.38
669.224	7577.14
669.416	7630.39
669.607	7536.18
669.798	7378.49
669.989	7663.16
670.18	7333.43
670.371	7562.81
670.563	7474.74
670.754	7343.67
670.945	7327.29
671.136	7145.02
671.327	7259.71
671.518	7274.04
671.709	7376.44
671.9	7222.84
672.091	7206.46
672.282	7145.02
672.473	7220.8
672.664	7214.65
672.855	7171.65
673.046	7132.73
673.237	7157.31
673.428	6979.14
673.619	7081.53
673.809	7030.34
674	6909.51
674.191	6987.33
674.382	6913.6
674.573	6968.9
674.764	6819.39
674.954	6676.04
675.145	6878.79
675.336	6760
675.527	6770.24
675.717	6721.09
675.908	6739.52
676.099	6850.11
676.289	6723.14
676.48	6784.58
676.671	6696.52
676.861	6653.51
677.052	6653.51
677.243	6405.7
677.433	6493.77
677.624	6760
677.814	6424.14
678.005	6528.58
678.195	6604.36
678.386	6497.86
678.576	6491.72
678.767	6540.87
678.957	6358.6
679.148	6411.85
679.338	6555.21
679.529	6405.7
679.719	6354.51
679.909	6516.3
680.1	6372.94
680.29	6368.84
680.481	6344.27
680.671	6434.38
680.861	6192.72
681.052	6311.5
681.242	6250.06
681.432	6338.12
681.622	6153.8
681.813	6266.44
682.003	6186.57
682.193	6053.45
682.383	6162
682.573	6321.74
682.764	6366.79
682.954	6184.52
683.144	6174.28
683.334	6145.61
683.524	6030.93
683.714	6112.85
683.904	6139.47
684.094	6215.24
684.284	6190.67
684.474	6202.96
684.664	6063.69
684.854	6037.07
685.044	6008.4
685.234	6000.21
685.424	6014.54
685.614	6012.49
685.804	5920.34
685.994	6006.35
686.184	6032.97
686.374	6000.21
686.564	5887.57
686.753	5883.47
686.943	5807.7
687.133	5738.07
687.323	5768.79
687.513	5766.74
687.702	5789.27
687.892	5643.86
688.082	5619.28
688.272	5688.92
688.461	5684.82
688.651	5613.14
688.841	5559.89
689.03	5502.55
689.22	5535.32
689.41	5363.29
689.599	5394.01
689.789	5410.39
689.979	5291.61
690.168	5437.02
690.358	5391.96
690.547	5402.2
690.737	5416.54
690.926	5279.32
691.116	5258.84
691.305	5531.22
691.495	5183.07
691.684	5117.53
691.874	5316.19
692.063	5092.96
692.252	5154.4
692.442	5154.4
692.631	5103.2
692.82	5084.77
693.01	5006.94
693.199	5113.44
693.388	4949.6
693.578	5148.25
693.767	5031.52
693.956	4912.74
694.146	5045.85
694.335	4871.78
694.524	4933.22
694.713	4959.84
694.902	4892.26
695.092	5029.47
695.281	4843.1
695.47	5049.95
695.659	4918.88
695.848	4941.41
696.037	4781.67
696.226	4961.89
696.415	4853.34
696.604	4847.2
696.793	4798.05
696.982	4755.04
697.171	4814.43
697.36	4763.23
697.549	4658.79
697.738	4521.57
697.927	4836.96
698.116	4769.38
698.305	4738.66
698.494	4769.38
698.683	4699.75
698.872	4660.84
699.061	4677.22
699.25	4695.65
699.438	4716.13
699.627	4568.68
699.816	4718.18
700.005	4638.31
700.193	4472.42
700.382	4773.47
700.571	4478.57
700.76	4689.51
700.948	4494.95
701.137	4642.4
701.326	4521.57
701.514	4507.24
701.703	4589.16
701.892	4429.42
702.08	4656.74
702.269	4511.33
702.457	4580.96
702.646	4605.54
702.834	4544.1
703.023	4435.56
703.212	4638.31
703.4	4468.33
703.589	4441.7
703.777	4466.28
703.965	4245.1
704.154	4484.71
704.342	4367.98
704.531	4398.7
704.719	4453.99
704.907	4523.62
705.096	4378.22
705.284	4544.1
705.472	4394.6
705.661	4378.22
705.849	4531.81
706.037	4445.8
706.226	4468.33
706.414	4550.25
706.602	4484.71
706.79	4507.24
706.979	4486.76
707.167	4445.8
707.355	4437.61
707.543	4392.55
707.731	4359.78
707.919	4273.77
708.107	4255.34
708.296	4314.73
708.484	4230.76
708.672	4318.82
708.86	4298.35
709.048	4314.73
709.236	4363.88
709.424	4445.8
709.612	4279.91
709.8	4365.93
709.988	4273.77
710.176	4339.3
710.364	4259.43
710.551	4324.97
710.739	4265.58
710.927	4329.06
711.115	4220.52
711.303	4349.54
711.491	4300.39
711.679	4238.95
711.866	4163.18
712.054	4284.01
712.242	4304.49
712.43	4347.5
712.617	4286.06
712.805	4265.58
712.993	4281.96
713.181	4218.47
713.368	4300.39
713.556	4279.91
713.744	4142.7
713.931	4306.54
714.119	4341.35
714.306	4288.11
714.494	4259.43
714.682	4314.73
714.869	4296.3
715.057	4267.63
715.244	4062.83
715.432	4253.29
715.619	4271.72
715.807	4355.69
715.994	4249.19
716.182	4257.39
716.369	4294.25
716.556	4290.15
716.744	4302.44
716.931	4214.38
717.119	4304.49
717.306	4265.58
717.493	4204.14
717.681	4300.39
717.868	4175.47
718.055	4224.62
718.242	4101.74
718.43	4224.62
718.617	4163.18
718.804	4138.6
718.991	4187.75
719.179	4275.82
719.366	4208.23
719.553	4148.84
719.74	4107.88
719.927	4118.12
720.114	4015.73
720.301	4089.45
720.488	4013.68
720.676	4331.11
720.863	4245.1
721.05	4154.99
721.237	4087.4
721.424	4034.16
721.611	4167.28
721.798	4138.6
721.985	4036.21
722.172	4097.64
722.358	3987.05
722.545	4085.36
722.732	3966.57
722.919	4154.99
723.106	3864.18
723.293	4120.17
723.48	4079.21
723.667	3999.34
723.853	3976.81
724.04	3985.01
724.227	3995.25
724.414	4179.56
724.6	4071.02
724.787	3956.33
724.974	4062.83
725.161	4032.11
725.347	4105.84
725.534	4013.68
725.72	4058.73
725.907	4044.4
726.094	4075.12
726.28	3903.09
726.467	3929.71
726.653	3833.46
726.84	3919.47
727.027	4036.21
727.213	3956.33
727.4	4028.01
727.586	3868.27
727.773	3968.62
727.959	3821.17
728.145	3925.61
728.332	3942
728.518	3989.1
728.705	3909.23
728.891	3950.19
729.077	3786.35
729.264	3858.03
729.45	3866.22
729.636	3911.28
729.823	3737.2
730.009	3905.14
730.195	3780.21
730.382	3774.07
730.568	3933.81
730.754	3880.56
730.94	3819.12
731.126	3753.59
731.313	3802.74
731.499	3731.06
731.685	3837.55
731.871	3890.8
732.057	3763.83
732.243	3806.83
732.429	3896.94
732.615	3925.61
732.801	3864.18
732.987	3704.43
733.173	3688.05
733.359	3808.88
733.545	3817.07
733.731	3749.49
733.917	3657.33
734.103	3812.98
734.289	3751.54
734.475	3626.61
734.661	3784.3
734.847	3806.83
735.033	3690.1
735.219	3716.72
735.404	3700.34
735.59	3632.76
735.776	3739.25
735.962	3700.34
736.148	3593.84
736.333	3626.61
736.519	3614.32
736.705	3554.93
736.89	3610.23
737.076	3571.32
737.262	3538.55
737.447	3716.72
737.633	3559.03
737.819	3479.16
738.004	3583.6
738.19	3602.04
738.375	3540.6
738.561	3618.42
738.747	3649.14
738.932	3683.95
739.118	3573.36
739.303	3561.08
739.489	3556.98
739.674	3360.38
739.859	3311.22
740.045	3542.64
740.23	3427.96
740.416	3477.11
740.601	3341.94
740.786	3464.82
740.972	3266.17
741.157	3253.88
741.342	3343.99
741.528	3405.43
741.713	3288.7
741.898	3413.62
742.084	3333.75
742.269	3284.6
742.454	3303.03
742.639	3327.61
742.824	3219.07
743.01	3305.08
743.195	3305.08
743.38	3253.88
743.565	3217.02
743.75	3233.4
743.935	3225.21
744.12	3217.02
744.305	3124.86
744.49	3085.95
744.675	3071.61
744.86	3171.96
745.045	3126.91
745.23	3012.22
745.415	2993.79
745.6	3055.23
745.785	2934.4
745.97	3016.32
746.155	3047.04
746.34	2920.06
746.525	2877.05
746.71	2901.63
746.895	2993.79
747.079	2950.78
747.264	2938.49
747.449	2844.29
747.634	2739.84
747.819	2856.58
748.003	2905.73
748.188	2930.3
748.373	2784.9
748.557	2647.68
748.742	2647.68
748.927	2772.61
749.111	2807.42
749.296	2748.03
749.481	2623.11
749.665	2709.12
749.85	2598.53
750.034	2645.63
750.219	2745.98
750.404	2629.25
750.588	2569.86
750.773	2524.8
750.957	2551.43
751.141	2496.13
751.326	2522.76
751.51	2563.72
751.695	2467.46
751.879	2356.87
752.064	2377.35
752.248	2344.58
752.432	2434.69
752.617	2430.6
752.801	2422.41
752.985	2395.78
753.17	2346.63
753.354	2301.58
753.538	2317.96
753.722	2283.14
753.907	2326.15
754.091	2244.23
754.275	2252.42
754.459	2227.85
754.643	2221.7
754.828	2201.23
755.012	2127.5
755.196	2107.02
755.38	2166.41
755.564	2199.18
755.748	2152.07
755.932	2068.11
756.116	1963.66
756.3	2094.73
756.484	2070.16
756.668	2064.01
756.852	1902.22
757.036	2002.57
757.22	1945.23
757.404	1949.32
757.588	1934.99
757.772	1871.5
757.956	1904.27
758.14	2057.87
758.323	1963.66
758.507	1840.78
758.691	1871.5
758.875	1875.6
759.059	1869.45
759.242	1785.49
759.426	1805.97
759.61	1744.53
759.794	1867.41
759.977	1896.08
760.161	1799.82
760.345	1664.66
760.528	1781.39
760.712	1760.91
760.895	1787.54
761.079	1687.18
761.263	1726.1
761.446	1724.05
761.63	1638.03
761.813	1664.66
761.997	1758.86
762.18	1748.62
762.364	1678.99
762.547	1627.79
762.731	1603.22
762.914	1605.27
763.098	1623.7
763.281	1668.75
763.464	1681.04
763.648	1564.31
763.831	1517.2
764.015	1627.79
764.198	1642.13
764.381	1488.53
764.564	1642.13
764.748	1521.3
764.931	1572.5
765.114	1570.45
765.297	1599.12
765.481	1580.69
765.664	1525.4
765.847	1463.96
766.03	1490.58
766.213	1416.85
766.397	1459.86
766.58	1449.62
766.763	1455.76
766.946	1431.19
767.129	1482.39
767.312	1433.24
767.495	1418.9
767.678	1410.71
767.861	1365.65
768.044	1451.67
768.227	1361.56
768.41	1363.61
768.593	1375.89
768.776	1443.48
768.959	1470.1
769.142	1410.71
769.324	1314.45
769.507	1371.8
769.69	1375.89
769.873	1418.9
770.056	1300.12
770.239	1314.45
770.421	1423
770.604	1324.69
770.787	1193.62
770.97	1289.88
771.152	1246.87
771.335	1275.54
771.518	1253.02
771.7	1300.12
771.883	1279.64
772.066	1230.49
772.248	1236.63
772.431	1250.97
772.613	1183.38
772.796	1248.92
772.978	1253.02
773.161	1275.54
773.343	1193.62
773.526	1210.01
773.708	1115.8
773.891	1087.13
774.073	1132.19
774.256	1109.66
774.438	1160.86
774.621	1105.56
774.803	1113.75
774.985	1169.05
775.168	1105.56
775.35	1136.28
775.532	1109.66
775.715	968.35
775.897	1015.45
776.079	1019.55
776.261	1080.99
776.444	1099.42
776.626	1029.79
776.808	1005.21
776.99	1017.5
777.173	978.59
777.355	931.48
777.537	956.06
777.719	997.02
777.901	923.29
778.083	911
778.265	962.2
778.447	956.06
778.629	927.39
778.811	997.02
778.993	939.68
779.175	1009.31
779.357	982.68
779.539	915.1
779.721	915.1
779.903	890.53
780.085	915.1
780.267	841.37
780.449	935.58
780.631	831.13
780.812	927.39
780.994	943.77
781.176	849.57
781.358	898.72
781.54	865.95
781.721	827.04
781.903	861.85
782.085	843.42
782.267	804.51
782.448	763.55
782.63	767.65
782.812	781.98
782.993	757.41
783.175	812.7
783.357	781.98
783.538	724.64
783.72	775.84
783.901	722.59
784.083	685.73
784.264	634.53
784.446	777.89
784.627	663.2
784.809	759.46
784.99	710.3
785.172	728.74
785.353	745.12
785.535	730.78
785.716	716.45
785.897	693.92
786.079	812.7
786.26	718.5
786.441	671.39
786.623	601.76
786.804	638.62
786.985	673.44
787.167	661.15
787.348	620.19
787.529	648.86
787.71	622.24
787.891	665.25
788.073	595.62
788.254	616.1
788.435	648.86
788.616	536.23
788.797	612
788.978	528.03
789.159	626.34
789.34	571.04
789.522	601.76
789.703	599.71
789.884	554.66
790.065	550.56
790.246	566.95
790.427	509.6
790.607	517.79
790.788	517.79
790.969	513.7
791.15	540.32
791.331	521.89
791.512	530.08
791.693	493.22
791.874	583.33
792.054	530.08
792.235	538.27
792.416	513.7
792.597	462.5
792.778	507.55
792.958	482.98
793.139	460.45
793.32	540.32
793.5	474.79
793.681	470.69
793.862	487.08
794.042	491.17
794.223	458.4
794.404	476.84
794.584	417.44
794.765	435.88
794.945	468.64
795.126	413.35
795.306	542.37
795.487	472.74
795.667	501.41
795.848	501.41
796.028	460.45
796.209	448.16
796.389	470.69
796.57	356.01
796.75	374.44
796.93	462.5
797.111	431.78
797.291	376.48
797.471	534.18
797.652	462.5
797.832	425.64
798.012	480.93
798.192	353.96
798.373	386.72
798.553	362.15
798.733	392.87
798.913	327.33
799.093	421.54
799.274	464.55
799.454	435.88
799.634	411.3
799.814	403.11
799.994	452.26
800.174	417.44
800.354	374.44
800.534	349.86
800.714	413.35
800.894	415.4
801.074	353.96
801.254	384.68
801.434	372.39
801.614	394.92
801.794	374.44
801.974	874.14
802.154	360.1
802.334	431.78
802.514	333.48
802.693	298.66
802.873	308.9
803.053	411.3
803.233	390.82
803.413	353.96
803.592	329.38
803.772	331.43
803.952	335.53
804.131	327.33
804.311	302.76
804.491	390.82
804.67	263.85
804.85	284.33
805.03	349.86
805.209	321.19
805.389	362.15
805.568	333.48
805.748	276.13
805.928	292.52
806.107	317.09
806.287	269.99
806.466	304.81
806.646	315.05
806.825	386.72
807.004	349.86
807.184	253.61
807.363	351.91
807.543	358.05
807.722	317.09
807.901	370.34
808.081	286.37
808.26	263.85
808.439	259.75
808.619	310.95
808.798	290.47
808.977	210.6
809.156	261.8
809.336	241.32
809.515	429.73
809.694	259.75
809.873	267.94
810.052	341.67
810.231	403.11
810.411	261.8
810.59	253.61
810.769	288.42
810.948	298.66
811.127	235.18
811.306	298.66
811.485	269.99
811.664	286.37
811.843	339.62
812.022	272.04
812.201	231.08
812.38	280.23
812.559	192.17
812.737	339.62
812.916	198.31
813.095	220.84
813.274	229.03
813.453	284.33
813.632	255.65
813.811	337.57
813.989	208.55
814.168	280.23
814.347	282.28
814.526	216.74
814.704	282.28
814.883	315.05
815.062	216.74
815.24	251.56
815.419	214.7
815.598	200.36
815.776	188.07
815.955	255.65
816.133	222.89
816.312	153.26
816.49	241.32
816.669	214.7
816.847	183.98
817.026	226.98
817.204	212.65
817.383	194.22
817.561	243.37
817.74	278.18
817.918	214.7
818.097	183.98
818.275	210.6
818.453	183.98
818.632	226.98
818.81	231.08
818.988	214.7
819.167	200.36
819.345	126.63
819.523	138.92
819.701	210.6
819.879	163.5
820.058	237.22
820.236	249.51
820.414	169.64
820.592	122.54
820.77	210.6
820.948	233.13
821.127	132.78
821.305	171.69
821.483	114.34
821.661	239.27
821.839	181.93
822.017	175.78
822.195	130.73
822.373	126.63
822.551	245.41
822.729	186.02
822.907	145.06
823.085	167.59
823.262	159.4
823.44	222.89
823.618	200.36
823.796	183.98
823.974	104.11
824.152	220.84
824.329	231.08
824.507	167.59
824.685	249.51
824.863	145.06
825.04	190.12
825.218	159.4
825.396	120.49
825.574	181.93
825.751	145.06
825.929	173.74
826.107	159.4
826.284	100.01
826.462	143.02
826.639	128.68
826.817	157.35
826.994	165.54
827.172	149.16
827.349	140.97
827.527	169.64
827.704	95.91
827.882	241.32
828.059	214.7
828.237	173.74
828.414	171.69
828.591	169.64
828.769	136.87
828.946	145.06
829.124	132.78
829.301	122.54
829.478	175.78
829.655	165.54
829.833	136.87
830.01	112.3
830.187	198.31
830.364	120.49
830.542	130.73
830.719	169.64
830.896	177.83
831.073	100.01
831.25	167.59
831.427	149.16
831.604	181.93
831.782	190.12
831.959	151.21
832.136	77.48
832.313	145.06
832.49	157.35
832.667	200.36
832.844	89.77
833.021	216.74
833.198	102.06
833.374	69.29
833.551	95.91
833.728	151.21
833.905	151.21
834.082	126.63
834.259	224.94
834.436	198.31
834.612	114.34
834.789	175.78
834.966	95.91
835.143	85.67
835.319	36.52
835.496	206.5
835.673	102.06
835.85	112.3
836.026	110.25
836.203	202.41
836.38	130.73
836.556	138.92
836.733	112.3
836.909	69.29
837.086	89.77
837.262	16.04
837.439	124.58
837.616	67.24
837.792	116.39
837.968	122.54
838.145	136.87
838.321	132.78
838.498	171.69
838.674	104.11
838.851	110.25
839.027	102.06
839.203	87.72
839.38	112.3
839.556	138.92
839.732	149.16
839.909	138.92
840.085	149.16
840.261	91.82
840.437	57
840.614	95.91
840.79	110.25
840.966	59.05
841.142	87.72
841.318	93.87
841.494	102.06
841.671	140.97
841.847	30.38
842.023	79.53
842.199	85.67
842.375	77.48
842.551	79.53
842.727	38.57
842.903	188.07
843.079	89.77
843.255	48.81
843.431	91.82
843.607	149.16
843.783	36.52
843.959	89.77
844.134	59.05
844.31	87.72
844.486	34.47
844.662	81.58
844.838	71.34
845.013	73.39
845.189	104.11
845.365	104.11
845.541	63.15
845.716	61.1
845.892	179.88
846.068	50.86
846.244	93.87
846.419	52.91
846.595	48.81
846.77	52.91
846.946	40.62
847.122	7.85
847.297	46.76
847.473	118.44
847.648	1.71
847.824	69.29
847.999	59.05
848.175	89.77
848.35	155.3
848.526	75.43
848.701	42.67
848.876	112.3
849.052	67.24
849.227	118.44
849.403	134.82
849.578	9.9
849.753	89.77
849.929	77.48
850.104	28.33
850.279	46.76
850.454	104.11
850.63	67.24
850.805	36.52
850.98	100.01
851.155	69.29
851.33	81.58
851.505	22.19
851.681	108.2
851.856	63.15
852.031	46.76
852.206	48.81
852.381	79.53
852.556	18.09
852.731	89.77
852.906	118.44
853.081	79.53
853.256	108.2
853.431	40.62
853.606	48.81
853.781	26.28
853.956	-4.44
854.131	138.92
854.305	124.58
854.48	83.63
854.655	7.85
854.83	52.91
855.005	126.63
855.18	57
855.354	-22.87
855.529	48.81
855.704	13.99
855.879	9.9
856.053	22.19
856.228	118.44
856.403	20.14
856.577	83.63
856.752	38.57
856.926	63.15
857.101	-2.39
857.276	36.52
857.45	122.54
857.625	108.2
857.799	69.29
857.974	100.01
858.148	93.87
858.323	52.91
858.497	16.04
858.672	-2.39
858.846	54.95
859.02	59.05
859.195	9.9
859.369	11.95
859.543	87.72
859.718	95.91
859.892	83.63
860.066	77.48
860.241	36.52
860.415	32.43
860.589	24.23
860.763	93.87
860.938	57
861.112	85.67
861.286	46.76
861.46	54.95
861.634	52.91
861.808	126.63
861.982	36.52
862.157	1.71
862.331	36.52
862.505	57
862.679	95.91
862.853	59.05
863.027	-12.63
863.201	40.62
863.375	63.15
863.549	128.68
863.722	-2.39
863.896	122.54
864.07	-4.44
864.244	13.99
864.418	-2.39
864.592	5.8
864.766	44.71
864.939	91.82
865.113	-8.53
865.287	26.28
865.461	3.75
865.634	65.19
865.808	5.8
865.982	83.63
866.156	3.75
866.329	-43.35
866.503	-16.73
866.676	67.24
866.85	26.28
867.024	100.01
867.197	79.53
867.371	34.47
867.544	30.38
867.718	106.15
867.891	89.77
868.065	-37.2
868.238	42.67
868.412	46.76
868.585	-10.58
868.759	22.19
868.932	-10.58
869.105	108.2
869.279	71.34
869.452	100.01
869.625	26.28
869.799	24.23
869.972	18.09
870.145	-10.58
870.319	11.95
870.492	-10.58
870.665	-12.63
870.838	24.23
871.011	-53.59
871.185	-2.39
871.358	87.72
871.531	13.99
871.704	-2.39
871.877	50.86
872.05	67.24
872.223	46.76
872.396	36.52
872.569	75.43
872.742	-29.01
872.915	128.68
873.088	104.11
873.261	42.67
873.434	38.57
873.607	1.71
873.78	65.19
873.953	32.43
874.126	-26.96
874.299	34.47
874.471	-26.96
874.644	-35.16
874.817	114.34
874.99	20.14
875.163	71.34
875.335	122.54
875.508	54.95
875.681	-12.63
875.853	-22.87
876.026	32.43
876.199	87.72
876.371	79.53
876.544	7.85
876.717	7.85
876.889	-37.2
877.062	65.19
877.234	36.52
877.407	93.87
877.579	75.43
877.752	20.14
877.924	67.24
878.097	44.71
878.269	57
878.442	61.1
878.614	61.1
878.786	83.63
878.959	75.43
879.131	44.71
879.303	-37.2
879.476	61.1
879.648	1.71
879.82	-29.01
879.993	-6.49
880.165	9.9
880.337	73.39
880.509	75.43
880.681	13.99
880.854	13.99
881.026	-2.39
881.198	24.23
881.37	36.52
881.542	67.24
881.714	20.14
881.886	11.95
882.058	-29.01
882.23	13.99
882.402	-6.49
882.574	13.99
882.746	36.52
882.918	34.47
883.09	18.09
883.262	44.71
883.434	-29.01
883.606	7.85
883.778	5.8
883.95	67.24
884.122	67.24
884.293	50.86
884.465	34.47
884.637	116.39
884.809	-12.63
884.98	11.95
885.152	54.95
885.324	40.62
885.496	50.86
885.667	-16.73
885.839	50.86
886.011	77.48
886.182	-37.2
886.354	54.95
886.525	52.91
886.697	46.76
886.869	59.05
887.04	34.47
887.212	104.11
887.383	91.82
887.555	63.15
887.726	-12.63
887.897	46.76
888.069	18.09
888.24	73.39
888.412	40.62
888.583	16.04
888.754	44.71
888.926	-29.01
889.097	54.95
889.268	59.05
889.44	44.71
889.611	30.38
889.782	16.04
889.953	1.71
890.125	63.15
890.296	26.28
890.467	34.47
890.638	-69.97
890.809	5.8
890.98	42.67
891.151	-6.49
891.323	5.8
891.494	-6.49
891.665	-18.77
891.836	-24.92
892.007	42.67
892.178	38.57
892.349	136.87
892.52	-18.77
892.691	67.24
892.862	63.15
893.032	-16.73
893.203	34.47
893.374	20.14
893.545	110.25
893.716	7.85
893.887	-8.53
894.057	30.38
894.228	-2.39
894.399	-18.77
894.57	145.06
894.74	54.95
894.911	108.2
895.082	34.47
895.253	-10.58
895.423	71.34
895.594	73.39
895.764	-53.59
895.935	-14.68
896.106	26.28
896.276	34.47
896.447	75.43
896.617	-57.68
896.788	-4.44
896.958	3.75
897.129	1.71
897.299	18.09
897.47	46.76
897.64	87.72
897.81	-59.73
897.981	-43.35
898.151	20.14
898.322	46.76
898.492	48.81
898.662	13.99
898.832	20.14
899.003	50.86
899.173	30.38
899.343	3.75
899.513	22.19
