Data from USB4F104151__77__10-24-12-371.txt Node

Date: Wed Mar 12 10:24:12 EDT 2025
User: louis
Spectrometer: USB4F10415
Trigger mode: 4
Integration Time (sec): 3.000000E-2
Scans to average: 1
Electric dark correction enabled: true
Nonlinearity correction enabled: false
Boxcar width: 0
XAxis mode: Wavelengths
Number of Pixels in Spectrum: 3648
>>>>>Begin Spectral Data<<<<<
178.204	-121.51
178.424	-121.51
178.644	-121.51
178.864	-178.86
179.084	-94.89
179.304	-62.12
179.524	13.65
179.744	-12.97
179.964	99.67
180.184	9.56
180.404	-4.78
180.624	5.46
180.844	-4.78
181.064	-53.93
181.283	-27.31
181.503	13.65
181.723	23.89
181.943	46.42
182.163	77.14
182.383	40.28
182.602	60.76
182.822	42.32
183.042	19.8
183.262	19.8
183.482	-19.11
183.701	54.61
183.921	85.33
184.141	-35.5
184.361	60.76
184.58	40.28
184.8	13.65
185.02	27.99
185.239	27.99
185.459	62.8
185.679	83.28
185.898	19.8
186.118	15.7
186.338	36.18
186.557	34.13
186.777	9.56
186.997	21.84
187.216	11.61
187.436	71
187.655	85.33
187.875	27.99
188.095	60.76
188.314	36.18
188.534	54.61
188.753	-8.87
188.973	-27.31
189.192	50.52
189.412	-2.73
189.631	60.76
189.851	-17.07
190.07	50.52
190.29	44.37
190.509	3.41
190.729	-19.11
190.948	42.32
191.168	111.96
191.387	81.24
191.607	5.46
191.826	-4.78
192.045	15.7
192.265	64.85
192.484	-6.83
192.704	34.13
192.923	9.56
193.142	142.68
193.362	64.85
193.581	95.57
193.8	79.19
194.02	34.13
194.239	19.8
194.458	54.61
194.678	83.28
194.897	56.66
195.116	-2.73
195.335	5.46
195.555	68.95
195.774	-33.45
195.993	44.37
196.212	52.56
196.432	81.24
196.651	42.32
196.87	-35.5
197.089	83.28
197.308	-47.79
197.528	56.66
197.747	-8.87
197.966	30.04
198.185	109.91
198.404	17.75
198.623	52.56
198.842	50.52
199.062	48.47
199.281	99.67
199.5	-10.92
199.719	30.04
199.938	95.57
200.157	79.19
200.376	83.28
200.595	52.56
200.814	60.76
201.033	56.66
201.252	116.05
201.471	95.57
201.69	52.56
201.909	-2.73
202.128	116.05
202.347	75.09
202.566	9.56
202.785	19.8
203.004	32.08
203.223	36.18
203.442	44.37
203.661	11.61
203.879	79.19
204.098	13.65
204.317	27.99
204.536	50.52
204.755	21.84
204.974	85.33
205.193	-2.73
205.411	75.09
205.63	46.42
205.849	30.04
206.068	58.71
206.287	-2.73
206.505	91.48
206.724	-10.92
206.943	3.41
207.162	-15.02
207.381	7.51
207.599	3.41
207.818	62.8
208.037	83.28
208.255	-6.83
208.474	85.33
208.693	122.2
208.911	-15.02
209.13	23.89
209.349	48.47
209.567	62.8
209.786	83.28
210.005	46.42
210.223	62.8
210.442	3.41
210.661	54.61
210.879	134.48
211.098	30.04
211.316	68.95
211.535	54.61
211.753	-15.02
211.972	66.9
212.191	19.8
212.409	9.56
212.628	52.56
212.846	19.8
213.065	-15.02
213.283	68.95
213.502	46.42
213.72	60.76
213.938	-15.02
214.157	44.37
214.375	107.86
214.594	36.18
214.812	13.65
215.031	77.14
215.249	19.8
215.467	21.84
215.686	7.51
215.904	52.56
216.122	34.13
216.341	73.04
216.559	91.48
216.778	68.95
216.996	34.13
217.214	44.37
217.432	-21.16
217.651	5.46
217.869	25.94
218.087	34.13
218.306	21.84
218.524	38.23
218.742	-21.16
218.96	7.51
219.179	34.13
219.397	34.13
219.615	71
219.833	50.52
220.051	32.08
220.27	79.19
220.488	44.37
220.706	71
220.924	17.75
221.142	36.18
221.36	73.04
221.578	68.95
221.796	-19.11
222.015	19.8
222.233	52.56
222.451	99.67
222.669	19.8
222.887	32.08
223.105	34.13
223.323	44.37
223.541	50.52
223.759	-10.92
223.977	23.89
224.195	79.19
224.413	62.8
224.631	19.8
224.849	21.84
225.067	27.99
225.285	-4.78
225.503	-47.79
225.721	27.99
225.939	25.94
226.157	38.23
226.375	91.48
226.592	36.18
226.81	83.28
227.028	1.37
227.246	79.19
227.464	-19.11
227.682	38.23
227.9	5.46
228.117	13.65
228.335	58.71
228.553	40.28
228.771	66.9
228.989	48.47
229.206	30.04
229.424	1.37
229.642	-53.93
229.86	21.84
230.077	19.8
230.295	68.95
230.513	17.75
230.731	-10.92
230.948	62.8
231.166	99.67
231.384	30.04
231.601	-21.16
231.819	124.24
232.037	30.04
232.254	-10.92
232.472	-4.78
232.689	19.8
232.907	46.42
233.125	-2.73
233.342	71
233.56	5.46
233.777	79.19
233.995	52.56
234.213	93.52
234.43	38.23
234.648	54.61
234.865	101.72
235.083	50.52
235.3	38.23
235.518	32.08
235.735	3.41
235.953	48.47
236.17	17.75
236.388	83.28
236.605	42.32
236.822	25.94
237.04	48.47
237.257	75.09
237.475	1.37
237.692	19.8
237.909	19.8
238.127	34.13
238.344	30.04
238.562	42.32
238.779	-41.64
238.996	38.23
239.214	77.14
239.431	136.53
239.648	27.99
239.865	17.75
240.083	79.19
240.3	13.65
240.517	48.47
240.735	11.61
240.952	38.23
241.169	42.32
241.386	68.95
241.603	73.04
241.821	48.47
242.038	66.9
242.255	19.8
242.472	11.61
242.689	38.23
242.907	79.19
243.124	3.41
243.341	95.57
243.558	3.41
243.775	-8.87
243.992	-25.26
244.209	66.9
244.426	99.67
244.643	-0.68
244.86	62.8
245.078	95.57
245.295	38.23
245.512	128.34
245.729	-84.65
245.946	91.48
246.163	-10.92
246.38	95.57
246.597	38.23
246.814	122.2
247.031	17.75
247.248	109.91
247.464	87.38
247.681	54.61
247.898	64.85
248.115	40.28
248.332	99.67
248.549	23.89
248.766	21.84
248.983	97.62
249.2	-8.87
249.417	89.43
249.633	32.08
249.85	134.48
250.067	66.9
250.284	118.1
250.501	116.05
250.717	83.28
250.934	60.76
251.151	11.61
251.368	60.76
251.585	42.32
251.801	-2.73
252.018	42.32
252.235	99.67
252.451	34.13
252.668	68.95
252.885	89.43
253.102	34.13
253.318	66.9
253.535	83.28
253.752	25.94
253.968	-4.78
254.185	17.75
254.401	17.75
254.618	27.99
254.835	50.52
255.051	48.47
255.268	38.23
255.484	89.43
255.701	58.71
255.917	21.84
256.134	11.61
256.351	-2.73
256.567	-51.88
256.784	68.95
257	5.46
257.217	9.56
257.433	107.86
257.65	50.52
257.866	116.05
258.082	-27.31
258.299	-10.92
258.515	42.32
258.732	-29.35
258.948	50.52
259.165	62.8
259.381	23.89
259.597	50.52
259.814	21.84
260.03	109.91
260.246	48.47
260.463	118.1
260.679	85.33
260.895	-21.16
261.112	13.65
261.328	40.28
261.544	25.94
261.761	150.87
261.977	60.76
262.193	-49.83
262.409	83.28
262.626	60.76
262.842	54.61
263.058	97.62
263.274	23.89
263.49	68.95
263.707	25.94
263.923	30.04
264.139	-12.97
264.355	54.61
264.571	109.91
264.787	30.04
265.004	27.99
265.22	25.94
265.436	15.7
265.652	36.18
265.868	46.42
266.084	73.04
266.3	11.61
266.516	64.85
266.732	66.9
266.948	21.84
267.164	21.84
267.38	91.48
267.596	46.42
267.812	134.48
268.028	27.99
268.244	34.13
268.46	42.32
268.676	-15.02
268.892	97.62
269.108	42.32
269.324	114
269.54	42.32
269.756	60.76
269.972	-21.16
270.188	48.47
270.403	42.32
270.619	48.47
270.835	91.48
271.051	21.84
271.267	32.08
271.483	-25.26
271.698	11.61
271.914	154.96
272.13	79.19
272.346	52.56
272.562	-29.35
272.777	159.06
272.993	-86.7
273.209	-45.74
273.425	42.32
273.64	50.52
273.856	52.56
274.072	105.81
274.287	54.61
274.503	27.99
274.719	128.34
274.934	97.62
275.15	40.28
275.366	109.91
275.581	-19.11
275.797	17.75
276.012	79.19
276.228	66.9
276.444	1.37
276.659	17.75
276.875	-15.02
277.09	73.04
277.306	25.94
277.521	60.76
277.737	34.13
277.952	68.95
278.168	13.65
278.383	58.71
278.599	32.08
278.814	75.09
279.03	7.51
279.245	66.9
279.461	5.46
279.676	46.42
279.892	30.04
280.107	71
280.322	-19.11
280.538	71
280.753	13.65
280.969	71
281.184	9.56
281.399	83.28
281.615	62.8
281.83	32.08
282.045	-21.16
282.26	68.95
282.476	128.34
282.691	52.56
282.906	77.14
283.122	27.99
283.337	17.75
283.552	87.38
283.767	79.19
283.983	122.2
284.198	36.18
284.413	38.23
284.628	9.56
284.843	48.47
285.058	75.09
285.274	36.18
285.489	-15.02
285.704	11.61
285.919	54.61
286.134	-31.4
286.349	23.89
286.564	-19.11
286.779	79.19
286.995	54.61
287.21	91.48
287.425	-6.83
287.64	23.89
287.855	66.9
288.07	-21.16
288.285	152.91
288.5	54.61
288.715	36.18
288.93	-43.69
289.145	34.13
289.36	87.38
289.575	99.67
289.79	95.57
290.004	87.38
290.219	48.47
290.434	66.9
290.649	27.99
290.864	13.65
291.079	87.38
291.294	134.48
291.509	56.66
291.724	97.62
291.938	38.23
292.153	38.23
292.368	-4.78
292.583	44.37
292.798	101.72
293.012	-19.11
293.227	17.75
293.442	13.65
293.657	46.42
293.871	120.15
294.086	21.84
294.301	134.48
294.516	109.91
294.73	50.52
294.945	50.52
295.16	-35.5
295.374	87.38
295.589	58.71
295.804	13.65
296.018	71
296.233	73.04
296.447	42.32
296.662	-23.21
296.877	9.56
297.091	109.91
297.306	46.42
297.52	30.04
297.735	46.42
297.949	114
298.164	13.65
298.378	38.23
298.593	38.23
298.807	-4.78
299.022	46.42
299.236	93.52
299.451	1.37
299.665	3.41
299.88	97.62
300.094	38.23
300.309	44.37
300.523	27.99
300.737	54.61
300.952	-6.83
301.166	48.47
301.381	60.76
301.595	30.04
301.809	21.84
302.024	114
302.238	9.56
302.452	-0.68
302.667	30.04
302.881	62.8
303.095	79.19
303.309	40.28
303.524	15.7
303.738	148.82
303.952	3.41
304.166	89.43
304.381	-6.83
304.595	1.37
304.809	9.56
305.023	101.72
305.237	34.13
305.452	50.52
305.666	15.7
305.88	42.32
306.094	13.65
306.308	42.32
306.522	64.85
306.736	58.71
306.95	-10.92
307.164	40.28
307.379	83.28
307.593	64.85
307.807	46.42
308.021	99.67
308.235	77.14
308.449	-49.83
308.663	50.52
308.877	136.53
309.091	30.04
309.305	132.44
309.519	56.66
309.733	62.8
309.947	23.89
310.161	130.39
310.374	71
310.588	103.76
310.802	-15.02
311.016	-8.87
311.23	71
311.444	25.94
311.658	95.57
311.872	140.63
312.085	120.15
312.299	25.94
312.513	15.7
312.727	81.24
312.941	87.38
313.154	99.67
313.368	142.68
313.582	81.24
313.796	27.99
314.009	17.75
314.223	105.81
314.437	15.7
314.651	93.52
314.864	15.7
315.078	50.52
315.292	44.37
315.505	13.65
315.719	75.09
315.933	21.84
316.146	75.09
316.36	68.95
316.573	27.99
316.787	7.51
317.001	85.33
317.214	-45.74
317.428	46.42
317.641	54.61
317.855	50.52
318.068	62.8
318.282	-2.73
318.495	103.76
318.709	83.28
318.922	15.7
319.136	85.33
319.349	64.85
319.563	66.9
319.776	9.56
319.99	52.56
320.203	109.91
320.417	19.8
320.63	91.48
320.843	89.43
321.057	93.52
321.27	-31.4
321.483	56.66
321.697	50.52
321.91	116.05
322.124	118.1
322.337	77.14
322.55	44.37
322.763	25.94
322.977	99.67
323.19	68.95
323.403	85.33
323.617	66.9
323.83	38.23
324.043	71
324.256	5.46
324.469	9.56
324.683	95.57
324.896	73.04
325.109	36.18
325.322	1.37
325.535	64.85
325.748	54.61
325.962	1.37
326.175	75.09
326.388	107.86
326.601	136.53
326.814	99.67
327.027	77.14
327.24	87.38
327.453	50.52
327.666	40.28
327.879	44.37
328.092	46.42
328.305	64.85
328.518	21.84
328.731	30.04
328.944	77.14
329.157	118.1
329.37	27.99
329.583	122.2
329.796	163.15
330.009	-35.5
330.222	122.2
330.435	38.23
330.648	91.48
330.861	40.28
331.073	95.57
331.286	99.67
331.499	46.42
331.712	38.23
331.925	38.23
332.138	50.52
332.35	105.81
332.563	62.8
332.776	101.72
332.989	58.71
333.202	11.61
333.414	1.37
333.627	75.09
333.84	44.37
334.053	120.15
334.265	23.89
334.478	32.08
334.691	9.56
334.903	126.29
335.116	68.95
335.329	87.38
335.541	75.09
335.754	75.09
335.966	46.42
336.179	77.14
336.392	42.32
336.604	95.57
336.817	91.48
337.029	83.28
337.242	-6.83
337.454	128.34
337.667	40.28
337.88	79.19
338.092	25.94
338.305	60.76
338.517	34.13
338.729	109.91
338.942	103.76
339.154	71
339.367	62.8
339.579	60.76
339.792	-33.45
340.004	46.42
340.217	21.84
340.429	58.71
340.641	27.99
340.854	114
341.066	-12.97
341.278	91.48
341.491	77.14
341.703	128.34
341.915	11.61
342.128	83.28
342.34	50.52
342.552	34.13
342.764	62.8
342.977	17.75
343.189	116.05
343.401	91.48
343.613	30.04
343.826	79.19
344.038	54.61
344.25	132.44
344.462	3.41
344.674	75.09
344.886	30.04
345.099	52.56
345.311	71
345.523	34.13
345.735	-4.78
345.947	114
346.159	34.13
346.371	25.94
346.583	97.62
346.795	62.8
347.007	42.32
347.219	50.52
347.431	27.99
347.643	103.76
347.855	38.23
348.067	114
348.279	50.52
348.491	64.85
348.703	68.95
348.915	103.76
349.127	25.94
349.339	91.48
349.551	1.37
349.763	27.99
349.975	77.14
350.187	138.58
350.399	81.24
350.61	9.56
350.822	46.42
351.034	68.95
351.246	114
351.458	36.18
351.669	114
351.881	79.19
352.093	36.18
352.305	56.66
352.517	58.71
352.728	60.76
352.94	44.37
353.152	79.19
353.363	52.56
353.575	83.28
353.787	177.49
353.999	101.72
354.21	81.24
354.422	77.14
354.633	85.33
354.845	60.76
355.057	97.62
355.268	91.48
355.48	87.38
355.692	64.85
355.903	105.81
356.115	54.61
356.326	-0.68
356.538	83.28
356.749	97.62
356.961	75.09
357.172	44.37
357.384	-19.11
357.595	128.34
357.807	7.51
358.018	-76.46
358.23	44.37
358.441	140.63
358.653	161.11
358.864	73.04
359.075	87.38
359.287	79.19
359.498	103.76
359.709	81.24
359.921	40.28
360.132	5.46
360.344	30.04
360.555	77.14
360.766	87.38
360.977	95.57
361.189	128.34
361.4	54.61
361.611	177.49
361.823	60.76
362.034	89.43
362.245	71
362.456	17.75
362.667	38.23
362.879	-2.73
363.09	105.81
363.301	77.14
363.512	79.19
363.723	27.99
363.935	-15.02
364.146	109.91
364.357	50.52
364.568	79.19
364.779	1.37
364.99	107.86
365.201	73.04
365.412	95.57
365.623	73.04
365.834	5.46
366.045	38.23
366.256	83.28
366.467	25.94
366.678	-15.02
366.889	73.04
367.1	93.52
367.311	122.2
367.522	34.13
367.733	105.81
367.944	81.24
368.155	40.28
368.366	42.32
368.577	122.2
368.788	165.2
368.999	77.14
369.209	114
369.42	62.8
369.631	150.87
369.842	107.86
370.053	79.19
370.264	68.95
370.474	75.09
370.685	56.66
370.896	58.71
371.107	81.24
371.317	126.29
371.528	124.24
371.739	83.28
371.95	64.85
372.16	56.66
372.371	-0.68
372.582	71
372.792	81.24
373.003	99.67
373.214	46.42
373.424	161.11
373.635	62.8
373.846	134.48
374.056	77.14
374.267	42.32
374.477	64.85
374.688	132.44
374.898	71
375.109	111.96
375.319	89.43
375.53	103.76
375.74	32.08
375.951	91.48
376.161	3.41
376.372	42.32
376.582	109.91
376.793	101.72
377.003	5.46
377.214	109.91
377.424	93.52
377.635	111.96
377.845	68.95
378.055	124.24
378.266	42.32
378.476	107.86
378.686	-27.31
378.897	157.01
379.107	95.57
379.317	30.04
379.528	50.52
379.738	60.76
379.948	13.65
380.158	118.1
380.369	101.72
380.579	138.58
380.789	71
380.999	56.66
381.21	109.91
381.42	185.68
381.63	87.38
381.84	66.9
382.05	206.16
382.261	44.37
382.471	120.15
382.681	30.04
382.891	175.44
383.101	103.76
383.311	79.19
383.521	89.43
383.731	140.63
383.941	58.71
384.151	107.86
384.361	87.38
384.571	64.85
384.781	114
384.991	120.15
385.201	185.68
385.411	126.29
385.621	150.87
385.831	118.1
386.041	50.52
386.251	85.33
386.461	105.81
386.671	105.81
386.881	50.52
387.091	38.23
387.301	173.39
387.511	116.05
387.72	122.2
387.93	128.34
388.14	77.14
388.35	134.48
388.56	91.48
388.769	91.48
388.979	101.72
389.189	62.8
389.399	79.19
389.609	30.04
389.818	105.81
390.028	56.66
390.238	81.24
390.447	118.1
390.657	140.63
390.867	62.8
391.076	64.85
391.286	109.91
391.496	144.72
391.705	136.53
391.915	171.35
392.125	152.91
392.334	120.15
392.544	77.14
392.753	97.62
392.963	142.68
393.172	17.75
393.382	142.68
393.591	140.63
393.801	105.81
394.01	118.1
394.22	142.68
394.429	118.1
394.639	34.13
394.848	68.95
395.058	193.87
395.267	150.87
395.477	171.35
395.686	150.87
395.895	189.78
396.105	128.34
396.314	79.19
396.524	107.86
396.733	109.91
396.942	212.31
397.152	77.14
397.361	142.68
397.57	101.72
397.78	181.59
397.989	136.53
398.198	206.16
398.407	142.68
398.617	210.26
398.826	120.15
399.035	148.82
399.244	62.8
399.453	120.15
399.663	175.44
399.872	136.53
400.081	128.34
400.29	111.96
400.499	103.76
400.708	206.16
400.917	167.25
401.127	167.25
401.336	191.83
401.545	193.87
401.754	200.02
401.963	202.07
402.172	183.63
402.381	161.11
402.59	165.2
402.799	181.59
403.008	169.3
403.217	187.73
403.426	185.68
403.635	173.39
403.844	210.26
404.053	234.83
404.262	177.49
404.471	238.93
404.68	200.02
404.888	230.74
405.097	222.55
405.306	214.35
405.515	210.26
405.724	226.64
405.933	218.45
406.142	214.35
406.35	316.75
406.559	324.94
406.768	259.41
406.977	355.66
407.185	320.85
407.394	316.75
407.603	361.81
407.812	316.75
408.02	318.8
408.229	288.08
408.438	288.08
408.646	281.94
408.855	345.42
409.064	421.2
409.272	312.66
409.481	437.58
409.69	460.11
409.898	443.73
410.107	478.54
410.315	451.92
410.524	433.49
410.733	437.58
410.941	515.41
411.15	388.43
411.358	535.89
411.567	558.41
411.775	554.32
411.984	580.94
412.192	578.89
412.401	685.39
412.609	658.76
412.818	693.58
413.026	716.11
413.234	763.21
413.443	752.97
413.651	773.45
413.86	779.59
414.068	853.32
414.276	861.51
414.485	931.14
414.693	925
414.901	1033.54
415.11	1021.25
415.318	910.66
415.526	1035.59
415.734	1029.45
415.943	1178.95
416.151	1152.32
416.359	1230.15
416.567	1213.76
416.776	1254.72
416.984	1467.71
417.192	1436.99
417.4	1414.46
417.608	1447.23
417.817	1414.46
418.025	1447.23
418.233	1627.45
418.441	1684.8
418.649	1678.65
418.857	1729.85
419.065	1881.4
419.273	1856.82
419.481	1971.51
419.689	2090.29
419.897	2116.92
420.105	2227.51
420.313	2235.7
420.521	2368.82
420.729	2372.91
420.937	2452.78
421.145	2481.46
421.353	2583.85
421.561	2786.6
421.769	2641.2
421.977	2964.78
422.185	2860.33
422.393	3015.98
422.601	3214.63
422.809	3140.9
423.017	3306.79
423.224	3427.62
423.432	3493.15
423.64	3583.26
423.848	3824.92
424.056	3765.53
424.263	3992.86
424.471	3917.08
424.679	4001.05
424.887	4332.82
425.094	4515.09
425.302	4480.27
425.51	4695.31
425.718	4766.99
425.925	4859.15
426.133	4891.91
426.341	5238.02
426.548	5410.05
426.756	5473.54
426.964	5602.56
427.171	5950.71
427.379	5907.71
427.586	6278.39
427.794	6305.01
428.001	6845.68
428.209	6786.29
428.417	6903.02
428.624	7300.33
428.832	7296.23
429.039	7300.33
429.247	7226.6
429.454	7916.76
429.662	8473.81
429.869	7996.64
430.076	8434.9
430.284	8201.43
430.491	8563.92
430.699	9037
430.906	9157.83
431.114	9303.24
431.321	9577.67
431.528	9479.36
431.736	10482.87
431.943	10896.56
432.15	10542.26
432.358	10740.91
432.565	11244.71
432.772	11140.27
432.979	11867.3
433.187	11818.15
433.394	12074.14
433.601	12999.82
433.808	12754.07
434.016	12823.7
434.223	13366.41
434.43	14122.11
434.637	13591.69
434.844	14836.85
435.052	15080.56
435.259	14953.59
435.466	15074.42
435.673	14693.49
435.88	15813.73
436.087	16559.19
436.294	16796.76
436.501	16196.7
436.708	16546.9
436.915	16970.83
437.122	18017.35
437.329	17974.34
437.537	18525.24
437.743	18822.2
437.95	18535.48
438.157	19827.75
438.364	19952.68
438.571	19969.06
438.778	20192.29
438.985	22010.89
439.192	21263.38
439.399	21965.83
439.606	21451.79
439.813	22682.62
440.02	23878.63
440.227	23593.97
440.433	23395.31
440.64	24058.85
440.847	23800.81
441.054	24646.62
441.261	26164.17
441.467	25953.23
441.674	26532.8
441.881	27628.46
442.088	27059.13
442.294	26731.45
442.501	27720.62
442.708	27859.88
442.914	29393.81
443.121	30268.3
443.328	29803.41
443.534	31726.45
443.741	30888.83
443.948	30417.8
444.154	32918.37
444.361	32496.49
444.568	32629.6
444.774	32578.4
444.981	33192.79
445.187	33786.71
445.394	35216.19
445.6	34882.37
445.807	38181.65
446.013	36639.53
446.22	37042.98
446.426	38484.75
446.633	38976.26
446.839	39940.85
447.046	38370.06
447.252	40297.2
447.459	40598.25
447.665	39975.67
447.871	41788.12
448.078	43530.94
448.284	41560.8
448.491	42748.62
448.697	44137.14
448.903	45150.88
449.11	45132.45
449.316	44034.74
449.522	44919.46
449.728	46099.09
449.935	46787.21
450.141	46432.91
450.347	47477.38
450.553	46008.98
450.76	46602.89
450.966	47559.3
451.172	47413.89
451.378	48368.24
451.584	47647.36
451.791	48384.63
451.997	48431.73
452.203	49031.79
452.409	48921.19
452.615	48513.65
452.821	46639.76
453.027	46588.56
453.233	48474.74
453.44	46852.75
453.646	47299.2
453.852	47237.76
454.058	47956.6
454.264	46406.29
454.47	47626.88
454.676	46492.3
454.882	48429.68
455.088	43905.72
455.294	44257.97
455.5	45093.54
455.705	45705.88
455.911	43616.96
456.117	42777.29
456.323	41937.62
456.529	40100.59
456.735	41499.36
456.941	40684.26
457.147	39942.9
457.352	38705.93
457.558	38091.54
457.764	38519.56
457.97	37657.37
458.176	36576.04
458.381	36774.69
458.587	34755.39
458.793	34814.79
458.999	33157.98
459.204	35894.07
459.41	34773.83
459.616	31970.16
459.821	32482.15
460.027	32435.05
460.233	31462.26
460.438	30079.88
460.644	30126.99
460.85	28650.4
461.055	28433.32
461.261	28758.94
461.466	26131.4
461.672	25643.98
461.878	27313.08
462.083	25631.69
462.289	25191.38
462.494	24871.9
462.7	23854.06
462.905	23018.49
463.111	23983.08
463.316	23960.55
463.522	23905.26
463.727	23591.92
463.932	23239.67
464.138	23301.11
464.343	23426.03
464.549	22510.59
464.754	23223.28
464.959	23073.78
465.165	23081.97
465.37	22166.53
465.575	21345.3
465.781	22684.67
465.986	22397.95
466.191	21632.01
466.397	21427.21
466.602	20028.45
466.807	21117.97
467.012	21046.29
467.218	21134.35
467.423	20665.37
467.628	20866.07
467.833	21687.31
468.038	20861.97
468.244	20403.23
468.449	21228.56
468.654	20466.72
468.859	20034.6
469.064	20210.72
469.269	19102.77
469.474	19395.63
469.679	19827.75
469.885	19487.79
470.09	19528.75
470.295	19123.25
470.5	18940.98
470.705	19024.95
470.91	18304.06
471.115	18365.5
471.32	18684.98
471.525	18304.06
471.73	18062.4
471.935	18205.76
472.139	17460.3
472.344	17382.48
472.549	17624.14
472.754	17392.72
472.959	16882.77
473.164	16643.16
473.369	16436.31
473.574	17005.65
473.778	16991.31
473.983	16958.55
474.188	16579.67
474.393	15842.4
474.598	15848.55
474.802	15596.65
475.007	15488.11
475.212	15490.15
475.417	14916.72
475.621	15211.63
475.826	15033.46
476.031	14771.32
476.235	14711.92
476.44	14916.72
476.645	14472.31
476.849	14486.65
477.054	14484.6
477.259	14146.69
477.463	14298.24
477.668	13954.18
477.872	13968.51
478.077	13661.32
478.282	13540.49
478.486	13352.07
478.691	13429.9
478.895	13073.55
479.1	13413.51
479.304	13249.68
479.509	12833.94
479.713	12811.41
479.918	12539.03
480.122	12573.85
480.326	12786.83
480.531	12700.82
480.735	12399.77
480.94	12477.59
481.144	12854.42
481.348	12293.27
481.553	12395.67
481.757	12336.28
481.961	12383.38
482.166	12637.33
482.37	12203.16
482.574	12237.98
482.778	12178.59
482.983	12489.88
483.187	12221.59
483.391	12405.91
483.595	12125.34
483.8	12010.65
484.004	12256.41
484.208	12354.71
484.412	12192.92
484.616	12321.95
484.821	12274.84
485.025	11895.97
485.229	12283.03
485.433	12133.53
485.637	12158.11
485.841	12235.93
486.045	12100.76
486.249	12250.27
486.453	12186.78
486.657	11971.74
486.861	12199.07
487.065	12039.33
487.269	12035.23
487.473	11932.83
487.677	12289.18
487.881	12297.37
488.085	12164.25
488.289	12276.89
488.493	12068
488.697	12291.23
488.901	12260.51
489.105	12274.84
489.309	12352.66
489.512	12301.47
489.716	12221.59
489.92	12432.54
490.124	12434.58
490.328	12797.07
490.531	12344.47
490.735	12444.82
490.939	12557.46
491.143	12610.71
491.346	12659.86
491.55	12596.37
491.754	12614.8
491.958	12721.3
492.161	12727.44
492.365	12973.2
492.569	12954.77
492.772	12850.32
492.976	13139.08
493.18	12991.63
493.383	13233.29
493.587	13395.08
493.79	13483.14
493.994	13327.5
494.197	13409.42
494.401	13329.55
494.605	13511.82
494.808	13769.86
495.012	13870.21
495.215	14011.52
495.419	14007.42
495.622	13956.22
495.825	14322.81
496.029	14298.24
496.232	14611.57
496.436	14388.35
496.639	14871.67
496.843	14855.28
497.046	15045.74
497.249	15342.7
497.453	15328.36
497.656	15436.91
497.859	15434.86
498.063	15604.84
498.266	15905.89
498.469	15950.95
498.673	16174.17
498.876	16585.82
499.079	16464.99
499.282	16602.2
499.485	16960.59
499.689	17202.25
499.892	17216.59
500.095	17097.81
500.298	18043.97
500.501	17673.29
500.705	17765.45
500.908	18451.52
501.111	18357.31
501.314	18459.71
501.517	18904.12
501.72	19149.87
501.923	18852.92
502.126	19432.49
502.329	19661.87
502.532	19817.51
502.735	19991.59
502.938	20382.75
503.141	20145.19
503.344	20372.51
503.547	20933.65
503.75	21134.35
503.953	21488.65
504.156	21810.18
504.359	21812.23
504.562	21847.05
504.765	22252.55
504.968	22572.03
505.17	22780.92
505.373	22836.22
505.576	23124.98
505.779	23622.64
505.982	23804.91
506.185	24040.42
506.387	23974.89
506.59	24617.95
506.793	24945.62
506.996	24337.38
507.198	25639.89
507.401	25031.64
507.604	25824.2
507.807	26131.4
508.009	26125.25
508.212	26821.56
508.415	26909.63
508.617	27302.84
508.82	27462.58
509.022	27151.29
509.225	27777.97
509.428	28076.97
509.63	28568.48
509.833	28203.94
510.035	29272.98
510.238	28937.12
510.44	29653.9
510.643	29957
510.845	30309.25
511.048	29893.52
511.25	30919.55
511.453	30675.84
511.655	32152.43
511.858	31529.84
512.06	31611.76
512.262	31947.63
512.465	31949.68
512.667	32357.22
512.87	32705.38
513.072	32932.7
513.274	33704.79
513.477	33565.53
513.679	34329.42
513.881	34376.52
514.084	35056.45
514.286	34782.02
514.488	35203.9
514.69	36322.09
514.893	36680.49
515.095	36043.57
515.297	36713.25
515.499	36961.06
515.701	37471
515.904	37827.35
516.106	37763.86
516.308	38222.61
516.51	38568.71
516.712	38607.62
516.914	39299.84
517.116	39813.88
517.318	40076.02
517.52	40327.92
517.722	40358.64
517.925	40948.45
518.127	40921.83
518.329	41538.27
518.531	41186.02
518.733	42066.64
518.935	42943.17
519.136	42494.67
519.338	43375.3
519.54	42982.09
519.742	43995.83
519.944	44180.15
520.146	44688.04
520.348	44954.28
520.55	45177.51
520.752	45587.1
520.954	46277.27
521.155	45701.79
521.357	46832.27
521.559	47135.37
521.761	47288.96
521.963	47248
522.164	47716.99
522.366	47798.91
522.568	48079.48
522.77	48687.73
522.971	49408.61
523.173	48964.2
523.375	49281.64
523.576	49472.1
523.778	49689.18
523.98	50481.75
524.181	50862.67
524.383	50436.69
524.584	51239.5
524.786	51210.82
524.988	50743.89
525.189	51788.35
525.391	52058.68
525.592	51796.54
525.794	52144.7
525.995	52501.04
526.197	52820.53
526.398	52732.46
526.6	52953.65
526.801	53350.95
527.003	53615.14
527.204	53373.48
527.406	54041.12
527.607	54276.63
527.808	53983.77
528.01	53707.3
528.211	54385.18
528.412	55372.3
528.614	54831.63
528.815	54952.46
529.016	55659.01
529.218	54784.53
529.419	55181.84
529.62	55212.55
529.822	55570.95
530.023	55355.91
530.224	55532.04
530.425	55523.85
530.626	55122.44
530.828	54960.65
531.029	56322.55
531.23	55814.66
531.431	55843.33
531.632	56441.34
531.833	55970.3
532.035	55927.3
532.236	56379.9
532.437	56904.18
532.638	56609.27
532.839	56773.11
533.04	56494.58
533.241	56240.64
533.442	57440.74
533.643	56764.92
533.844	56666.61
534.045	56947.18
534.246	56666.61
534.447	56750.58
534.648	56992.24
534.849	57154.03
535.05	56576.5
535.251	57119.21
535.451	57088.49
535.652	57315.82
535.853	57041.39
536.054	56828.4
536.255	57174.51
536.456	56304.12
536.657	57276.91
536.857	57229.8
537.058	56586.74
537.259	57608.68
537.46	57776.61
537.66	56699.38
537.861	56875.51
538.062	57025.01
538.263	56959.47
538.463	56578.55
538.664	57334.25
538.865	56912.37
539.065	57047.53
539.266	56543.73
539.466	57391.59
539.667	56484.34
539.868	57389.55
540.068	57029.1
540.269	57194.99
540.469	57610.73
540.67	56740.34
540.87	56730.1
541.071	56809.97
541.271	57031.15
541.472	56965.62
541.672	56756.72
541.873	56680.95
542.073	56482.3
542.274	57166.32
542.474	56953.33
542.675	56566.26
542.875	57143.79
543.075	56805.87
543.276	56128
543.476	57256.43
543.676	56670.71
543.877	56707.57
544.077	56519.16
544.277	56809.97
544.478	56433.14
544.678	57149.93
544.878	56328.7
545.078	56416.76
545.279	56383.99
545.479	56281.59
545.679	56928.75
545.879	56580.6
546.079	56494.58
546.28	56383.99
546.48	56220.16
546.68	56572.41
546.88	56543.73
547.08	56779.25
547.28	56236.54
547.48	56300.03
547.68	56537.59
547.88	56123.9
548.081	56773.11
548.281	56265.21
548.481	56228.35
548.681	56383.99
548.881	56433.14
549.081	55773.7
549.28	55982.59
549.48	56596.98
549.68	55984.64
549.88	56658.42
550.08	56410.62
550.28	56375.8
550.48	56470.01
550.68	56891.89
550.88	55560.71
551.08	56353.27
551.279	56318.46
551.479	55769.6
551.679	56334.84
551.879	55990.78
552.079	56062.46
552.278	55781.89
552.478	56041.98
552.678	55910.91
552.878	55917.06
553.077	56041.98
553.277	55591.43
553.477	56347.13
553.676	55540.23
553.876	55708.16
554.076	55679.49
554.275	55763.46
554.475	55091.72
554.674	55482.89
554.874	55396.87
555.074	55802.37
555.273	55642.63
555.473	55783.94
555.672	55099.92
555.872	55421.45
556.071	55687.68
556.271	55321.1
556.47	55269.9
556.67	54661.65
556.869	55263.75
557.068	55411.21
557.268	54635.03
557.467	54974.99
557.667	55269.9
557.866	54979.09
558.065	54495.77
558.265	54530.58
558.464	54557.2
558.663	55130.64
558.863	54557.2
559.062	54950.41
559.261	54069.79
559.461	54811.15
559.66	54299.16
559.859	54198.81
560.058	53574.18
560.258	54460.95
560.457	54170.14
560.656	54340.12
560.855	53553.7
561.054	53852.7
561.253	53656.1
561.453	53832.22
561.652	54067.74
561.851	53707.3
562.05	53617.19
562.249	53045.8
562.448	53494.31
562.647	53543.46
562.846	53117.48
563.045	53307.94
563.244	52922.93
563.443	53619.24
563.642	52812.34
563.841	52619.83
564.04	52836.91
564.239	53291.56
564.438	52228.66
564.637	53119.53
564.836	52343.35
565.035	52066.87
565.234	52288.06
565.432	52036.16
565.631	51966.52
565.83	52034.11
566.029	51862.08
566.228	51661.38
566.427	51456.58
566.625	51477.06
566.824	50838.09
567.023	51526.21
567.222	50307.67
567.42	51536.45
567.619	51147.34
567.818	51118.67
568.016	50475.6
568.215	50989.64
568.414	50129.5
568.612	50766.41
568.811	50395.73
569.01	50506.32
569.208	49670.75
569.407	50408.02
569.605	49691.23
569.804	50018.91
570.002	49556.07
570.201	49785.44
570.4	49142.38
570.598	48837.23
570.797	49142.38
570.995	49637.98
571.193	48786.03
571.392	49351.27
571.59	48837.23
571.789	48896.62
571.987	48720.49
572.186	48818.8
572.384	48341.62
572.582	48618.1
572.781	48224.89
572.979	47721.09
573.177	48149.11
573.376	47934.07
573.574	47745.66
573.772	47921.79
573.971	47760
574.169	47110.79
574.367	47430.27
574.565	47727.23
574.763	47104.65
574.962	46996.1
575.16	46705.29
575.358	47094.41
575.556	46553.74
575.754	47188.61
575.952	46303.89
576.151	47194.76
576.349	45779.61
576.547	46221.97
576.745	46299.79
576.943	46447.25
577.141	45980.31
577.339	45810.33
577.537	45906.58
577.735	45611.68
577.933	45343.39
578.131	46097.05
578.329	44901.03
578.527	44831.4
578.725	44798.63
578.923	45449.89
579.121	44907.18
579.319	44620.46
579.516	44729
579.714	44501.68
579.912	44438.19
580.11	44098.23
580.308	44507.82
580.506	44350.13
580.704	43911.86
580.901	44055.22
581.099	43983.54
581.297	43711.16
581.495	43244.23
581.692	43594.43
581.89	43264.71
582.088	43395.78
582.285	43154.11
582.483	43375.3
582.681	42814.15
582.878	43004.61
583.076	42640.07
583.274	43076.29
583.471	42177.23
583.669	42574.54
583.866	42046.16
584.064	42453.71
584.262	42056.4
584.459	42416.85
584.657	41931.48
584.854	42394.32
585.052	41224.93
585.249	41474.78
585.447	41679.58
585.644	41290.46
585.841	41454.3
586.039	41388.77
586.236	40848.1
586.434	40794.85
586.631	40749.8
586.828	40663.78
587.026	40700.65
587.223	40424.17
587.42	40692.46
587.618	40575.72
587.815	39877.36
588.012	40141.55
588.21	39918.32
588.407	40436.46
588.604	39795.45
588.801	39486.2
588.999	39414.52
589.196	39555.83
589.393	39785.21
589.59	39443.2
589.787	39287.55
589.984	39054.08
590.182	38730.5
590.379	38927.11
590.576	38320.91
590.773	38718.21
590.97	38634.25
591.167	38411.02
591.364	38134.54
591.561	38611.72
591.758	37901.07
591.955	37946.13
592.152	38163.21
592.349	37784.34
592.546	37931.79
592.743	37583.64
592.94	36817.7
593.137	37434.14
593.334	37458.71
593.531	36608.81
593.727	37460.76
593.924	36821.8
594.121	36657.96
594.318	37012.26
594.515	36625.19
594.712	37104.42
594.908	36272.94
595.105	36905.76
595.302	36088.62
595.499	36322.09
595.696	35969.84
595.892	35738.42
596.089	35912.5
596.286	36018.99
596.482	35822.39
596.679	35795.76
596.876	35570.49
597.072	35146.56
597.269	35404.6
597.466	35218.24
597.662	35365.69
597.859	34872.13
598.055	35162.94
598.252	34636.61
598.448	34339.66
598.645	34380.62
598.841	34233.16
599.038	34454.34
599.234	34603.85
599.431	34057.04
599.627	33899.34
599.824	34243.4
600.02	33774.42
600.217	33823.57
600.413	33616.72
600.609	33657.68
600.806	33465.17
601.002	33692.5
601.198	33174.36
601.395	32983.9
601.591	32779.11
601.787	33069.92
601.984	32938.85
602.18	33674.07
602.376	32578.4
602.572	32492.39
602.769	32191.34
602.965	32058.22
603.161	32416.61
603.357	32129.9
603.553	32334.7
603.75	32004.97
603.946	31941.49
604.142	32037.74
604.338	31521.65
604.534	31802.22
604.73	31314.81
604.926	31443.83
605.122	31433.59
605.318	31474.55
605.514	31189.88
605.71	30950.27
605.906	31230.84
606.102	31228.79
606.298	31288.18
606.494	30751.62
606.69	30800.77
606.886	31028.09
607.082	30491.52
607.278	30870.4
607.474	30153.61
607.67	30819.2
607.866	30204.81
608.062	30452.61
608.257	30014.35
608.453	30430.08
608.649	30737.28
608.845	29844.37
609.041	29780.88
609.236	30290.82
609.432	29885.33
609.628	30139.27
609.824	29500.31
610.019	29365.14
610.215	29465.49
610.411	29232.02
610.606	29352.85
610.802	29592.47
610.998	29412.24
611.193	29354.9
611.389	28734.37
611.584	28973.98
611.78	29133.72
611.976	28855.2
612.171	28963.74
612.367	28994.46
612.562	29086.62
612.758	28402.6
612.953	28457.89
613.149	28502.95
613.344	28093.35
613.539	28435.36
613.735	28498.85
613.93	28470.18
614.126	28326.82
614.321	28771.23
614.517	28507.04
614.712	28326.82
614.907	27843.5
615.103	28470.18
615.298	27997.1
615.493	28408.74
615.688	27739.05
615.884	28474.27
616.079	27706.29
616.274	27939.75
616.47	27650.99
616.665	27990.95
616.86	27591.6
617.055	27556.78
617.25	27284.4
617.445	27700.14
617.641	26887.1
617.836	27302.84
618.031	27044.79
618.226	27354.04
618.421	26735.55
618.616	26952.63
618.811	26692.54
619.006	27034.55
619.201	26500.03
619.396	26538.94
619.591	26282.95
619.786	26192.84
619.981	25981.9
620.176	26225.61
620.371	25904.07
620.566	25838.54
620.761	25486.29
620.956	26010.57
621.151	25353.17
621.346	25574.35
621.541	25115.61
621.735	25408.47
621.93	24978.39
622.125	25035.74
622.32	24884.19
622.515	25261.01
622.709	24521.7
622.904	24746.97
623.099	24458.21
623.294	24298.47
623.488	24173.54
623.683	24353.76
623.878	23659.5
624.072	23806.95
624.267	23985.13
624.462	23647.21
624.656	23041.01
624.851	23532.53
625.046	23026.68
625.24	23143.41
625.435	22887.42
625.629	22940.66
625.824	22834.17
626.018	22662.14
626.213	22240.26
626.407	22356.99
626.602	21931.01
626.796	22424.58
626.991	22406.14
627.185	21863.43
627.38	21949.45
627.574	21662.73
627.768	21316.62
627.963	21197.84
628.157	21093.4
628.352	21746.7
628.546	20960.28
628.74	21068.82
628.935	21070.87
629.129	20567.07
629.323	20495.39
629.517	20474.91
629.712	20491.29
629.906	20454.43
630.1	20231.2
630.294	20188.19
630.489	20114.47
630.683	20274.21
630.877	19840.04
631.071	19661.87
631.265	19569.71
631.459	19442.73
631.653	19297.33
631.848	19330.09
632.042	19088.43
632.236	19006.52
632.43	19012.66
632.624	19078.19
632.818	18621.5
633.012	18639.93
633.206	18568.25
633.4	18754.62
633.594	18304.06
633.788	18234.43
633.982	18095.17
634.176	18058.31
634.369	17976.39
634.563	17933.38
634.757	17708.1
634.951	17968.2
635.145	17697.86
635.339	17769.54
635.533	17589.32
635.726	17515.59
635.92	17101.9
636.114	17040.47
636.308	17323.08
636.501	16956.5
636.695	16913.49
636.889	16845.91
637.083	16782.42
637.276	16372.83
637.47	16620.63
637.664	16677.97
637.857	16667.73
638.051	16405.59
638.244	16192.61
638.438	16159.84
638.632	16028.77
638.825	15789.16
639.019	15975.52
639.212	15608.94
639.406	15895.65
639.599	15709.29
639.793	15756.39
639.986	15301.74
640.18	15404.14
640.373	15256.68
640.567	14812.28
640.76	15068.27
640.954	15121.52
641.147	14849.14
641.34	15004.78
641.534	14922.87
641.727	14806.13
641.92	14496.89
642.114	14558.33
642.307	14570.61
642.5	14476.41
642.694	14060.67
642.887	14361.72
643.08	14318.71
643.273	14193.79
643.467	13950.08
643.66	14115.97
643.853	14050.43
644.046	13749.38
644.239	13796.48
644.432	13425.8
644.626	13673.6
644.819	13544.58
645.012	13378.7
645.205	13411.46
645.398	13364.36
645.591	13059.21
645.784	13339.79
645.977	12815.51
646.17	13008.01
646.363	12870.8
646.556	12510.36
646.749	12506.26
646.942	12897.42
647.135	12545.17
647.328	12602.52
647.521	12584.09
647.714	12317.85
647.907	12457.11
648.099	12319.9
648.292	12186.78
648.485	12399.77
648.678	12274.84
648.871	12137.63
649.064	11793.57
649.256	11990.17
649.449	12006.56
649.642	11680.93
649.835	11744.42
650.027	11752.61
650.22	11480.23
650.413	11642.02
650.605	11357.35
650.798	11637.92
650.991	11281.58
651.183	11285.67
651.376	11070.64
651.568	11373.74
651.761	11115.69
651.954	11117.74
652.146	11062.44
652.339	10914.99
652.531	10847.41
652.724	10917.04
652.916	10595.51
653.109	10679.47
653.301	10615.99
653.494	10706.1
653.686	10417.33
653.879	10618.04
654.071	10515.64
654.263	10319.03
654.456	10409.14
654.648	10396.85
654.84	10269.88
655.033	10151.1
655.225	10253.5
655.417	9974.97
655.61	9938.11
655.802	9997.5
655.994	9811.14
656.186	10024.12
656.379	9876.67
656.571	9737.41
656.763	9639.11
656.955	9753.79
657.148	9477.32
657.34	9358.53
657.532	9340.1
657.724	9505.99
657.916	9407.69
658.108	9485.51
658.3	9426.12
658.492	9323.72
658.684	9053.39
658.876	9211.08
659.068	9102.54
659.26	9186.51
659.452	8996.04
659.644	9028.81
659.836	8840.4
660.028	8918.22
660.22	8787.15
660.412	8672.47
660.604	8705.23
660.796	8613.07
660.988	8801.49
661.18	8473.81
661.372	8502.48
661.563	8676.56
661.755	8455.38
661.947	8574.16
662.139	8375.51
662.331	8266.97
662.522	8344.79
662.714	8277.21
662.906	8348.89
663.097	8291.54
663.289	8154.33
663.481	8178.9
663.673	8119.51
663.864	7959.77
664.056	7787.74
664.247	7898.33
664.439	7996.64
664.631	7910.62
664.822	7896.28
665.014	7789.79
665.205	7625.95
665.397	7609.57
665.588	7859.42
665.78	7736.54
665.971	7531.75
666.163	7648.48
666.354	7644.38
666.546	7668.96
666.737	7417.06
666.929	7320.81
667.12	7568.61
667.311	7453.92
667.503	7048.43
667.694	7501.03
667.885	7367.91
668.077	7263.46
668.268	7054.57
668.459	7234.79
668.651	7091.43
668.842	7073
669.033	6991.08
669.224	6995.18
669.416	6984.94
669.607	6989.03
669.798	6888.68
669.989	7050.47
670.18	6968.55
670.371	6655.22
670.563	6802.67
670.754	6903.02
670.945	6794.48
671.136	6798.57
671.327	6696.18
671.518	6757.61
671.709	6634.74
671.9	6696.18
672.091	6804.72
672.282	6745.33
672.473	6452.47
672.664	6640.88
672.855	6395.12
673.046	6624.5
673.237	6513.91
673.428	6567.15
673.619	6499.57
673.809	6352.12
674	6474.99
674.191	6315.25
674.382	6161.66
674.573	6407.41
674.764	6272.25
674.954	6165.75
675.145	6126.84
675.336	6161.66
675.527	6345.97
675.717	6507.76
675.908	6040.83
676.099	6388.98
676.289	6100.22
676.48	6188.28
676.671	6077.69
676.861	6157.56
677.052	6038.78
677.243	6161.66
677.433	5981.43
677.624	6139.13
677.814	5958.91
678.005	5977.34
678.195	6063.35
678.386	6128.89
678.576	6018.3
678.767	5942.52
678.957	6130.94
679.148	6075.64
679.338	5887.23
679.529	6018.3
679.719	5897.47
679.909	5991.67
680.1	5823.74
680.29	5836.03
680.481	5868.8
680.671	5870.84
680.861	5801.21
681.052	5940.47
681.242	5780.73
681.432	5840.12
681.622	5848.32
681.813	5817.6
682.003	5704.96
682.193	5678.33
682.383	5793.02
682.573	5833.98
682.764	5821.69
682.954	5707.01
683.144	5573.89
683.334	5653.76
683.524	5727.49
683.714	5729.53
683.904	5602.56
684.094	5690.62
684.284	5678.33
684.474	5682.43
684.664	5696.77
684.854	5600.51
685.044	5471.49
685.234	5440.77
685.424	5559.55
685.614	5412.1
685.804	5440.77
685.994	5448.96
686.184	5405.95
686.374	5475.59
686.564	5389.57
686.753	5520.64
686.943	5229.83
687.133	5240.07
687.323	5174.53
687.513	5295.36
687.702	5281.03
687.892	5221.64
688.082	5018.89
688.272	5207.3
688.461	5139.72
688.651	5117.19
688.841	5240.07
689.03	5076.23
689.22	5080.33
689.41	5016.84
689.599	5137.67
689.789	4994.31
689.979	5149.96
690.168	5057.8
690.358	4979.98
690.547	4939.02
690.737	4963.59
690.926	4945.16
691.116	4683.02
691.305	4961.55
691.495	4963.59
691.684	4830.48
691.874	4818.19
692.063	4764.94
692.252	4816.14
692.442	4701.45
692.631	4773.13
692.82	4680.97
693.01	4670.73
693.199	4754.7
693.388	4590.86
693.578	4640.01
693.767	4588.82
693.956	4670.73
694.146	4672.78
694.335	4568.34
694.524	4521.23
694.713	4609.29
694.902	4586.77
695.092	4543.76
695.281	4554
695.47	4422.93
695.659	4545.81
695.848	4547.86
696.037	4492.56
696.226	4558.1
696.415	4431.12
696.604	4558.1
696.793	4279.57
696.982	4359.44
697.171	4504.85
697.36	4490.51
697.549	4459.79
697.738	4187.41
697.927	4441.36
698.116	4285.72
698.305	4271.38
698.494	4244.76
698.683	4371.73
698.872	4234.52
699.061	4314.39
699.25	4363.54
699.438	4334.87
699.627	4236.56
699.816	4312.34
700.005	4224.28
700.193	4211.99
700.382	4273.43
700.571	4250.9
700.76	4242.71
700.948	4220.18
701.137	3996.95
701.326	4338.96
701.514	4156.69
701.703	4087.06
701.892	4091.16
702.08	4142.36
702.269	4039.96
702.457	4080.92
702.646	4087.06
702.834	4117.78
703.023	4189.46
703.212	4101.4
703.4	4164.89
703.589	4058.39
703.777	4144.41
703.965	4066.58
704.154	3994.9
704.342	4035.86
704.531	4095.25
704.719	4080.92
704.907	4068.63
705.096	4048.15
705.284	4062.49
705.472	4093.21
705.661	4121.88
705.849	4171.03
706.037	4044.06
706.226	4058.39
706.414	4115.73
706.602	3917.08
706.79	4130.07
706.979	3999
707.167	3919.13
707.355	3951.9
707.543	3962.14
707.731	3970.33
707.919	3980.57
708.107	3992.86
708.296	3876.12
708.484	4074.78
708.672	4044.06
708.86	3917.08
709.048	4044.06
709.236	3872.03
709.424	3966.23
709.612	3912.99
709.8	3937.56
709.988	3855.64
710.176	3910.94
710.364	3921.18
710.551	3773.72
710.739	3847.45
710.927	3765.53
711.115	3941.66
711.303	3812.64
711.491	3941.66
711.679	3738.91
711.866	3863.83
712.054	3962.14
712.242	3892.51
712.43	3880.22
712.617	3910.94
712.805	3853.59
712.993	3841.31
713.181	3790.11
713.368	3820.83
713.556	4013.34
713.744	3704.09
713.931	3968.28
714.119	3788.06
714.306	3837.21
714.494	3845.4
714.682	3861.79
714.869	3769.63
715.057	3861.79
715.244	3845.4
715.432	3855.64
715.619	3812.64
715.807	3550.5
715.994	3626.27
716.182	3763.48
716.369	3857.69
716.556	3939.61
716.744	3681.57
716.931	3790.11
717.119	3757.34
717.306	3765.53
717.493	3626.27
717.681	3816.73
717.868	3792.16
718.055	3804.44
718.242	3689.76
718.43	3716.38
718.617	3677.47
718.804	3601.69
718.991	3599.65
719.179	3724.57
719.366	3704.09
719.553	3839.26
719.74	3601.69
719.927	3798.3
720.114	3577.12
720.301	3683.61
720.488	3579.17
720.676	3507.49
720.863	3613.98
721.05	3609.89
721.237	3536.16
721.424	3673.37
721.611	3595.55
721.798	3573.02
721.985	3712.28
722.172	3538.21
722.358	3609.89
722.545	3620.13
722.732	3552.54
722.919	3603.74
723.106	3648.8
723.293	3560.73
723.48	3683.61
723.667	3484.96
723.853	3421.47
724.04	3515.68
724.227	3482.91
724.414	3661.09
724.6	3527.97
724.787	3579.17
724.974	3536.16
725.161	3448.1
725.347	3421.47
725.534	3372.32
725.72	3560.73
725.907	3646.75
726.094	3509.54
726.28	3398.95
726.467	3513.63
726.653	3444
726.84	3458.34
727.027	3626.27
727.213	3403.04
727.4	3341.6
727.586	3450.14
727.773	3409.19
727.959	3405.09
728.145	3454.24
728.332	3390.75
728.518	3427.62
728.705	3450.14
728.891	3462.43
729.077	3323.17
729.264	3390.75
729.45	3278.12
729.636	3355.94
729.823	3466.53
730.009	3382.56
730.195	3380.51
730.382	3267.88
730.568	3298.59
730.754	3394.85
730.94	3296.55
731.126	3423.52
731.313	3396.9
731.499	3380.51
731.685	3302.69
731.871	3386.66
732.057	3427.62
732.243	3218.72
732.429	3308.83
732.615	3378.47
732.801	3390.75
732.987	3245.35
733.173	3276.07
733.359	3204.39
733.545	3235.11
733.731	3310.88
733.917	3228.96
734.103	3292.45
734.289	3216.68
734.475	3222.82
734.661	3239.2
734.847	3226.92
735.033	3220.77
735.219	3192.1
735.404	3208.48
735.59	3310.88
735.776	3122.47
735.962	3218.72
736.148	3237.16
736.333	3142.95
736.519	3052.84
736.705	3061.03
736.89	3245.35
737.076	3153.19
737.262	3091.75
737.447	3077.41
737.633	3073.32
737.819	3079.46
738.004	2934.06
738.19	3061.03
738.375	3114.28
738.561	3028.26
738.747	2975.02
738.932	3106.09
739.118	3097.89
739.303	3071.27
739.489	3134.76
739.674	2979.11
739.859	2999.59
740.045	2987.3
740.23	2981.16
740.416	2790.7
740.601	3042.6
740.786	2968.87
740.972	2917.67
741.157	2913.58
741.342	2786.6
741.528	2895.15
741.713	2860.33
741.898	2899.24
742.084	2975.02
742.269	2915.62
742.454	2860.33
742.639	2897.19
742.824	2845.99
743.01	2768.17
743.195	2788.65
743.38	2665.77
743.565	2708.78
743.75	2821.42
743.935	2616.62
744.12	2751.79
744.305	2657.58
744.49	2667.82
744.675	2725.16
744.86	2692.4
745.045	2682.16
745.23	2686.25
745.415	2532.65
745.6	2596.14
745.785	2542.89
745.97	2649.39
746.155	2452.78
746.34	2463.02
746.525	2506.03
746.71	2688.3
746.895	2467.12
747.079	2485.55
747.264	2434.35
747.449	2499.89
747.634	2563.37
747.819	2522.41
748.003	2391.34
748.188	2370.87
748.373	2374.96
748.557	2368.82
748.742	2520.37
748.927	2276.66
749.111	2340.15
749.296	2276.66
749.481	2323.76
749.665	2323.76
749.85	2321.71
750.034	2305.33
750.219	2155.83
750.404	2235.7
750.588	2235.7
750.773	2211.12
750.957	2223.41
751.141	2215.22
751.326	2153.78
751.51	2131.25
751.695	2110.77
751.879	2061.62
752.064	2178.36
752.248	2110.77
752.432	2151.73
752.617	1932.6
752.801	2090.29
752.985	2028.85
753.17	2071.86
753.354	1951.03
753.538	1965.37
753.722	1922.36
753.907	1832.25
754.091	1832.25
754.275	2012.47
754.459	1948.98
754.643	1850.68
754.828	1793.34
755.012	1854.78
755.196	1787.19
755.38	1885.5
755.564	1881.4
755.748	1881.4
755.932	1846.59
756.116	1762.62
756.3	1862.97
756.484	1707.32
756.668	1867.06
756.852	1692.99
757.036	1799.48
757.22	1631.55
757.404	1760.57
757.588	1676.6
757.772	1723.71
757.956	1690.94
758.14	1604.92
758.323	1555.77
758.507	1668.41
758.691	1631.55
758.875	1506.62
759.059	1604.92
759.242	1584.45
759.426	1602.88
759.61	1502.53
759.794	1613.12
759.977	1592.64
760.161	1537.34
760.345	1547.58
760.528	1533.25
760.712	1471.81
760.895	1537.34
761.079	1475.9
761.263	1498.43
761.446	1402.18
761.63	1539.39
761.813	1629.5
761.997	1418.56
762.18	1393.98
762.364	1455.42
762.547	1434.94
762.731	1385.79
762.914	1461.57
763.098	1375.55
763.281	1396.03
763.464	1385.79
763.648	1393.98
763.831	1353.02
764.015	1422.66
764.198	1369.41
764.381	1328.45
764.564	1377.6
764.748	1312.07
764.931	1353.02
765.114	1363.26
765.297	1350.98
765.481	1307.97
765.664	1359.17
765.847	1271.11
766.03	1275.2
766.213	1246.53
766.397	1209.67
766.58	1254.72
766.763	1277.25
766.946	1209.67
767.129	1260.87
767.312	1279.3
767.495	1197.38
767.678	1267.01
767.861	1234.24
768.044	1248.58
768.227	1230.15
768.41	1246.53
768.593	1262.91
768.776	1250.63
768.959	1203.52
769.142	1242.43
769.324	1099.08
769.507	1101.12
769.69	1156.42
769.873	1156.42
770.056	1256.77
770.239	1144.13
770.421	1291.59
770.604	1135.94
770.787	1150.28
770.97	1178.95
771.152	1193.28
771.335	1049.93
771.518	984.39
771.7	1178.95
771.883	1160.52
772.066	1107.27
772.248	1078.6
772.431	1146.18
772.613	1029.45
772.796	1045.83
772.978	1070.4
773.161	1031.49
773.343	1080.64
773.526	1105.22
773.708	980.29
773.891	953.67
774.073	998.73
774.256	1017.16
774.438	1019.21
774.621	910.66
774.803	941.38
774.985	957.77
775.168	986.44
775.35	933.19
775.532	992.58
775.715	1060.17
775.897	978.25
776.079	927.05
776.261	914.76
776.444	976.2
776.626	939.33
776.808	902.47
776.99	804.17
777.173	836.94
777.355	959.81
777.537	865.61
777.719	955.72
777.901	879.94
778.083	847.18
778.265	894.28
778.447	781.64
778.629	726.35
778.811	832.84
778.993	822.6
779.175	890.18
779.357	822.6
779.539	793.93
779.721	746.83
779.903	845.13
780.085	757.07
780.267	795.98
780.449	728.39
780.631	755.02
780.812	798.03
780.994	742.73
781.176	759.11
781.358	738.63
781.54	689.48
781.721	693.58
781.903	709.96
782.085	689.48
782.267	783.69
782.448	718.15
782.63	640.33
782.812	744.78
782.993	658.76
783.175	740.68
783.357	650.57
783.538	650.57
783.72	617.8
783.901	662.86
784.083	607.56
784.264	769.35
784.446	609.61
784.627	615.76
784.809	673.1
784.99	601.42
785.172	574.8
785.353	638.28
785.535	736.59
785.716	533.84
785.897	552.27
786.079	535.89
786.26	611.66
786.441	533.84
786.623	666.96
786.804	544.08
786.985	568.65
787.167	564.56
787.348	632.14
787.529	582.99
787.71	546.12
787.891	560.46
788.073	552.27
788.254	603.47
788.435	544.08
788.616	507.21
788.797	478.54
788.978	554.32
789.159	490.83
789.34	431.44
789.522	552.27
789.703	523.6
789.884	554.32
790.065	437.58
790.246	542.03
790.427	464.21
790.607	537.93
790.788	537.93
790.969	431.44
791.15	449.87
791.331	406.86
791.512	470.35
791.693	441.68
791.874	431.44
792.054	447.82
792.235	423.25
792.416	431.44
792.597	431.44
792.778	431.44
792.958	462.16
793.139	410.96
793.32	345.42
793.5	384.34
793.681	488.78
793.862	466.25
794.042	386.38
794.223	402.77
794.404	496.97
794.584	365.9
794.765	382.29
794.945	343.38
795.126	476.49
795.306	390.48
795.487	347.47
795.667	324.94
795.848	433.49
796.028	388.43
796.209	419.15
796.389	441.68
796.57	433.49
796.75	480.59
796.93	370
797.111	400.72
797.291	329.04
797.471	333.14
797.652	367.95
797.832	355.66
798.012	427.34
798.192	320.85
798.373	370
798.553	320.85
798.733	341.33
798.913	343.38
799.093	365.9
799.274	355.66
799.454	339.28
799.634	406.86
799.814	382.29
799.994	415.05
800.174	394.58
800.354	290.13
800.534	380.24
800.714	300.37
800.894	316.75
801.074	388.43
801.254	216.4
801.434	290.13
801.614	304.46
801.794	329.04
801.974	943.43
802.154	298.32
802.334	376.14
802.514	296.27
802.693	283.98
802.873	232.79
803.053	331.09
803.233	322.9
803.413	275.79
803.592	275.79
803.772	230.74
803.952	290.13
804.131	279.89
804.311	312.66
804.491	226.64
804.67	251.22
804.85	308.56
805.03	261.46
805.209	324.94
805.389	294.22
805.568	310.61
805.748	222.55
805.928	312.66
806.107	263.51
806.287	273.75
806.466	286.03
806.646	261.46
806.825	249.17
807.004	257.36
807.184	226.64
807.363	275.79
807.543	257.36
807.722	337.23
807.901	195.92
808.081	279.89
808.26	234.83
808.439	257.36
808.619	216.4
808.798	253.27
808.977	220.5
809.156	271.7
809.336	283.98
809.515	251.22
809.694	208.21
809.873	335.18
810.052	208.21
810.231	169.3
810.411	281.94
810.59	251.22
810.769	281.94
810.948	329.04
811.127	169.3
811.306	216.4
811.485	210.26
811.664	206.16
811.843	185.68
812.022	226.64
812.201	124.24
812.38	243.03
812.559	103.76
812.737	218.45
812.916	232.79
813.095	154.96
813.274	193.87
813.453	169.3
813.632	243.03
813.811	175.44
813.989	195.92
814.168	222.55
814.347	150.87
814.526	187.73
814.704	236.88
814.883	216.4
815.062	200.02
815.24	222.55
815.419	202.07
815.598	240.98
815.776	83.28
815.955	273.75
816.133	118.1
816.312	224.59
816.49	210.26
816.669	185.68
816.847	210.26
817.026	138.58
817.204	210.26
817.383	177.49
817.561	132.44
817.74	148.82
817.918	167.25
818.097	210.26
818.275	165.2
818.453	197.97
818.632	181.59
818.81	208.21
818.988	185.68
819.167	226.64
819.345	240.98
819.523	185.68
819.701	118.1
819.879	114
820.058	185.68
820.236	173.39
820.414	210.26
820.592	202.07
820.77	126.29
820.948	212.31
821.127	126.29
821.305	206.16
821.483	148.82
821.661	206.16
821.839	169.3
822.017	157.01
822.195	163.15
822.373	222.55
822.551	109.91
822.729	206.16
822.907	138.58
823.085	185.68
823.262	109.91
823.44	134.48
823.618	71
823.796	114
823.974	68.95
824.152	128.34
824.329	73.04
824.507	206.16
824.685	181.59
824.863	157.01
825.04	157.01
825.218	130.39
825.396	152.91
825.574	187.73
825.751	83.28
825.929	161.11
826.107	64.85
826.284	140.63
826.462	95.57
826.639	212.31
826.817	111.96
826.994	87.38
827.172	54.61
827.349	206.16
827.527	91.48
827.704	154.96
827.882	171.35
828.059	107.86
828.237	152.91
828.414	134.48
828.591	103.76
828.769	202.07
828.946	134.48
829.124	148.82
829.301	124.24
829.478	161.11
829.655	89.43
829.833	130.39
830.01	83.28
830.187	159.06
830.364	93.52
830.542	148.82
830.719	128.34
830.896	93.52
831.073	116.05
831.25	101.72
831.427	116.05
831.604	52.56
831.782	81.24
831.959	122.2
832.136	81.24
832.313	144.72
832.49	103.76
832.667	128.34
832.844	75.09
833.021	152.91
833.198	132.44
833.374	50.52
833.551	93.52
833.728	99.67
833.905	120.15
834.082	146.77
834.259	75.09
834.436	79.19
834.612	71
834.789	83.28
834.966	114
835.143	77.14
835.319	97.62
835.496	175.44
835.673	79.19
835.85	79.19
836.026	161.11
836.203	157.01
836.38	79.19
836.556	114
836.733	46.42
836.909	87.38
837.086	60.76
837.262	60.76
837.439	87.38
837.616	46.42
837.792	38.23
837.968	120.15
838.145	50.52
838.321	95.57
838.498	148.82
838.674	142.68
838.851	83.28
839.027	111.96
839.203	60.76
839.38	56.66
839.556	103.76
839.732	52.56
839.909	60.76
840.085	187.73
840.261	118.1
840.437	154.96
840.614	1.37
840.79	75.09
840.966	56.66
841.142	64.85
841.318	122.2
841.494	95.57
841.671	71
841.847	79.19
842.023	95.57
842.199	62.8
842.375	136.53
842.551	42.32
842.727	107.86
842.903	25.94
843.079	71
843.255	79.19
843.431	91.48
843.607	54.61
843.783	87.38
843.959	48.47
844.134	120.15
844.31	34.13
844.486	107.86
844.662	81.24
844.838	64.85
845.013	64.85
845.189	50.52
845.365	17.75
845.541	34.13
845.716	62.8
845.892	73.04
846.068	81.24
846.244	25.94
846.419	38.23
846.595	27.99
846.77	77.14
846.946	87.38
847.122	42.32
847.297	95.57
847.473	122.2
847.648	71
847.824	54.61
847.999	44.37
848.175	111.96
848.35	128.34
848.526	109.91
848.701	38.23
848.876	128.34
849.052	105.81
849.227	107.86
849.403	54.61
849.578	42.32
849.753	62.8
849.929	54.61
850.104	50.52
850.279	95.57
850.454	52.56
850.63	48.47
850.805	13.65
850.98	-6.83
851.155	15.7
851.33	19.8
851.505	3.41
851.681	103.76
851.856	62.8
852.031	38.23
852.206	62.8
852.381	32.08
852.556	81.24
852.731	124.24
852.906	36.18
853.081	91.48
853.256	152.91
853.431	81.24
853.606	25.94
853.781	79.19
853.956	81.24
854.131	128.34
854.305	48.47
854.48	50.52
854.655	46.42
854.83	19.8
855.005	79.19
855.18	130.39
855.354	11.61
855.529	118.1
855.704	46.42
855.879	136.53
856.053	46.42
856.228	73.04
856.403	85.33
856.577	81.24
856.752	30.04
856.926	111.96
857.101	54.61
857.276	13.65
857.45	46.42
857.625	64.85
857.799	62.8
857.974	7.51
858.148	27.99
858.323	19.8
858.497	-6.83
858.672	30.04
858.846	19.8
859.02	89.43
859.195	38.23
859.369	30.04
859.543	60.76
859.718	46.42
859.892	60.76
860.066	99.67
860.241	9.56
860.415	71
860.589	15.7
860.763	56.66
860.938	13.65
861.112	83.28
861.286	21.84
861.46	34.13
861.634	87.38
861.808	71
861.982	54.61
862.157	36.18
862.331	5.46
862.505	64.85
862.679	54.61
862.853	-51.88
863.027	19.8
863.201	68.95
863.375	-10.92
863.549	89.43
863.722	-2.73
863.896	181.59
864.07	54.61
864.244	27.99
864.418	32.08
864.592	23.89
864.766	56.66
864.939	-4.78
865.113	58.71
865.287	87.38
865.461	85.33
865.634	-35.5
865.808	60.76
865.982	77.14
866.156	-49.83
866.329	56.66
866.503	118.1
866.676	62.8
866.85	87.38
867.024	17.75
867.197	32.08
867.371	73.04
867.544	95.57
867.718	25.94
867.891	144.72
868.065	-27.31
868.238	34.13
868.412	17.75
868.585	56.66
868.759	17.75
868.932	34.13
869.105	44.37
869.279	140.63
869.452	-19.11
869.625	-51.88
869.799	32.08
869.972	83.28
870.145	46.42
870.319	27.99
870.492	13.65
870.665	50.52
870.838	-35.5
871.011	30.04
871.185	54.61
871.358	62.8
871.531	25.94
871.704	11.61
871.877	66.9
872.05	54.61
872.223	-47.79
872.396	27.99
872.569	40.28
872.742	-8.87
872.915	46.42
873.088	5.46
873.261	-12.97
873.434	91.48
873.607	17.75
873.78	3.41
873.953	-17.07
874.126	11.61
874.299	48.47
874.471	-21.16
874.644	-8.87
874.817	91.48
874.99	68.95
875.163	-21.16
875.335	27.99
875.508	50.52
875.681	101.72
875.853	-53.93
876.026	58.71
876.199	34.13
876.371	-43.69
876.544	27.99
876.717	-19.11
876.889	9.56
877.062	-51.88
877.234	-64.17
877.407	32.08
877.579	66.9
877.752	91.48
877.924	21.84
878.097	48.47
878.269	52.56
878.442	25.94
878.614	19.8
878.786	-12.97
878.959	58.71
879.131	42.32
879.303	38.23
879.476	60.76
879.648	66.9
879.82	17.75
879.993	5.46
880.165	30.04
880.337	-8.87
880.509	19.8
880.681	-4.78
880.854	11.61
881.026	-45.74
881.198	107.86
881.37	17.75
881.542	21.84
881.714	36.18
881.886	17.75
882.058	-19.11
882.23	-2.73
882.402	-43.69
882.574	23.89
882.746	13.65
882.918	56.66
883.09	21.84
883.262	34.13
883.434	13.65
883.606	-33.45
883.778	111.96
883.95	111.96
884.122	-21.16
884.293	9.56
884.465	23.89
884.637	62.8
884.809	54.61
884.98	118.1
885.152	50.52
885.324	-10.92
885.496	-10.92
885.667	38.23
885.839	21.84
886.011	17.75
886.182	46.42
886.354	58.71
886.525	71
886.697	1.37
886.869	71
887.04	-4.78
887.212	-45.74
887.383	62.8
887.555	13.65
887.726	36.18
887.897	-4.78
888.069	30.04
888.24	23.89
888.412	36.18
888.583	5.46
888.754	42.32
888.926	17.75
889.097	21.84
889.268	11.61
889.44	25.94
889.611	-17.07
889.782	13.65
889.953	13.65
890.125	62.8
890.296	32.08
890.467	7.51
890.638	-10.92
890.809	-17.07
890.98	83.28
891.151	68.95
891.323	38.23
891.494	27.99
891.665	75.09
891.836	13.65
892.007	25.94
892.178	34.13
892.349	9.56
892.52	-10.92
892.691	-6.83
892.862	62.8
893.032	5.46
893.203	-39.59
893.374	5.46
893.545	107.86
893.716	68.95
893.887	73.04
894.057	19.8
894.228	21.84
894.399	-23.21
894.57	34.13
894.74	32.08
894.911	9.56
895.082	-6.83
895.253	56.66
895.423	5.46
895.594	-6.83
895.764	-2.73
895.935	25.94
896.106	1.37
896.276	13.65
896.447	46.42
896.617	-21.16
896.788	-21.16
896.958	60.76
897.129	-111.27
897.299	58.71
897.47	87.38
897.64	54.61
897.81	-6.83
897.981	66.9
898.151	36.18
898.322	-4.78
898.492	83.28
898.662	-21.16
898.832	21.84
899.003	46.42
899.173	3.41
899.343	-64.17
899.513	-55.98
