Data from USB4F104151__151__10-26-58-795.txt Node

Date: Wed Mar 12 10:26:58 EDT 2025
User: louis
Spectrometer: USB4F10415
Trigger mode: 4
Integration Time (sec): 3.000000E-2
Scans to average: 1
Electric dark correction enabled: true
Nonlinearity correction enabled: false
Boxcar width: 0
XAxis mode: Wavelengths
Number of Pixels in Spectrum: 3648
>>>>>Begin Spectral Data<<<<<
178.204	-131.24
178.424	-131.24
178.644	-131.24
178.864	-125.1
179.084	-174.25
179.304	-63.66
179.524	22.36
179.744	-16.55
179.964	16.21
180.184	18.26
180.404	46.93
180.624	14.17
180.844	8.02
181.064	-37.03
181.283	8.02
181.503	12.12
181.723	-28.84
181.943	-28.84
182.163	51.03
182.383	-77.99
182.602	57.17
182.822	-0.17
183.042	-2.22
183.262	12.12
183.482	-12.46
183.701	-8.36
183.921	59.22
184.141	5.97
184.361	67.41
184.58	-20.65
184.8	14.17
185.02	-24.75
185.239	57.17
185.459	-14.51
185.679	51.03
185.898	-59.56
186.118	5.97
186.338	22.36
186.557	26.45
186.777	-65.71
186.997	-16.55
187.216	-22.7
187.436	36.69
187.655	24.4
187.875	53.08
188.095	-39.08
188.314	46.93
188.534	8.02
188.753	5.97
188.973	-53.42
189.192	24.4
189.412	75.6
189.631	38.74
189.851	42.84
190.07	79.7
190.29	18.26
190.509	69.46
190.729	12.12
190.948	59.22
191.168	106.32
191.387	40.79
191.607	20.31
191.826	-18.6
192.045	-49.32
192.265	63.32
192.484	-14.51
192.704	79.7
192.923	14.17
193.142	91.99
193.362	-0.17
193.581	32.6
193.8	28.5
194.02	55.12
194.239	-4.27
194.458	16.21
194.678	-10.41
194.897	71.51
195.116	10.07
195.335	-30.89
195.555	20.31
195.774	18.26
195.993	18.26
196.212	48.98
196.432	44.88
196.651	36.69
196.87	-61.61
197.089	48.98
197.308	67.41
197.528	-4.27
197.747	-16.55
197.966	53.08
198.185	102.23
198.404	48.98
198.623	65.36
198.842	26.45
199.062	40.79
199.281	51.03
199.5	10.07
199.719	16.21
199.938	-0.17
200.157	104.28
200.376	91.99
200.595	-30.89
200.814	96.08
201.033	67.41
201.252	36.69
201.471	-4.27
201.69	28.5
201.909	18.26
202.128	-6.31
202.347	55.12
202.566	36.69
202.785	44.88
203.004	-45.23
203.223	122.71
203.442	79.7
203.661	14.17
203.879	32.6
204.098	75.6
204.317	-24.75
204.536	85.84
204.755	-0.17
204.974	22.36
205.193	-26.79
205.411	36.69
205.63	55.12
205.849	61.27
206.068	46.93
206.287	-30.89
206.505	67.41
206.724	38.74
206.943	63.32
207.162	-28.84
207.381	20.31
207.599	-43.18
207.818	-12.46
208.037	16.21
208.255	12.12
208.474	20.31
208.693	61.27
208.911	55.12
209.13	42.84
209.349	34.64
209.567	96.08
209.786	48.98
210.005	38.74
210.223	24.4
210.442	5.97
210.661	53.08
210.879	-22.7
211.098	44.88
211.316	77.65
211.535	53.08
211.753	-37.03
211.972	85.84
212.191	3.93
212.409	71.51
212.628	53.08
212.846	-30.89
213.065	28.5
213.283	42.84
213.502	44.88
213.72	30.55
213.938	26.45
214.157	59.22
214.375	100.18
214.594	36.69
214.812	-45.23
215.031	24.4
215.249	-41.13
215.467	-16.55
215.686	3.93
215.904	30.55
216.122	38.74
216.341	24.4
216.559	24.4
216.778	3.93
216.996	1.88
217.214	14.17
217.432	63.32
217.651	-43.18
217.869	55.12
218.087	28.5
218.306	53.08
218.524	5.97
218.742	-96.43
218.96	59.22
219.179	46.93
219.397	14.17
219.615	79.7
219.833	18.26
220.051	20.31
220.27	77.65
220.488	20.31
220.706	42.84
220.924	-2.22
221.142	-8.36
221.36	38.74
221.578	28.5
221.796	-10.41
222.015	36.69
222.233	91.99
222.451	63.32
222.669	-51.37
222.887	44.88
223.105	22.36
223.323	20.31
223.541	5.97
223.759	44.88
223.977	87.89
224.195	12.12
224.413	-2.22
224.631	1.88
224.849	16.21
225.067	51.03
225.285	83.8
225.503	14.17
225.721	22.36
225.939	79.7
226.157	69.46
226.375	83.8
226.592	22.36
226.81	22.36
227.028	18.26
227.246	73.56
227.464	77.65
227.682	8.02
227.9	34.64
228.117	40.79
228.335	-26.79
228.553	-22.7
228.771	-6.31
228.989	-0.17
229.206	-28.84
229.424	22.36
229.642	34.64
229.86	-41.13
230.077	-55.47
230.295	73.56
230.513	44.88
230.731	-10.41
230.948	63.32
231.166	-6.31
231.384	30.55
231.601	59.22
231.819	89.94
232.037	-24.75
232.254	116.56
232.472	38.74
232.689	-20.65
232.907	81.75
233.125	-2.22
233.342	1.88
233.56	-18.6
233.777	57.17
233.995	46.93
234.213	28.5
234.43	12.12
234.648	-30.89
234.865	46.93
235.083	38.74
235.3	18.26
235.518	8.02
235.735	94.04
235.953	24.4
236.17	-2.22
236.388	-2.22
236.605	-34.99
236.822	34.64
237.04	59.22
237.257	85.84
237.475	-43.18
237.692	-30.89
237.909	34.64
238.127	16.21
238.344	28.5
238.562	-45.23
238.779	5.97
238.996	-16.55
239.214	34.64
239.431	26.45
239.648	-30.89
239.865	-0.17
240.083	89.94
240.3	20.31
240.517	46.93
240.735	28.5
240.952	34.64
241.169	100.18
241.386	38.74
241.603	5.97
241.821	-16.55
242.038	83.8
242.255	77.65
242.472	-10.41
242.689	46.93
242.907	14.17
243.124	18.26
243.341	32.6
243.558	65.36
243.775	-12.46
243.992	-0.17
244.209	51.03
244.426	59.22
244.643	20.31
244.86	26.45
245.078	-18.6
245.295	1.88
245.512	-6.31
245.729	-10.41
245.946	46.93
246.163	79.7
246.38	26.45
246.597	51.03
246.814	69.46
247.031	-8.36
247.248	-2.22
247.464	36.69
247.681	30.55
247.898	-30.89
248.115	34.64
248.332	5.97
248.549	59.22
248.766	59.22
248.983	102.23
249.2	36.69
249.417	-12.46
249.633	-34.99
249.85	46.93
250.067	-80.04
250.284	32.6
250.501	53.08
250.717	87.89
250.934	-20.65
251.151	-26.79
251.368	44.88
251.585	16.21
251.801	-10.41
252.018	-53.42
252.235	8.02
252.451	-8.36
252.668	5.97
252.885	96.08
253.102	38.74
253.318	10.07
253.535	-10.41
253.752	1.88
253.968	67.41
254.185	-26.79
254.401	-26.79
254.618	-0.17
254.835	28.5
255.051	61.27
255.268	32.6
255.484	87.89
255.701	20.31
255.917	112.47
256.134	-51.37
256.351	34.64
256.567	-2.22
256.784	81.75
257	-53.42
257.217	79.7
257.433	61.27
257.65	30.55
257.866	83.8
258.082	28.5
258.299	40.79
258.515	-10.41
258.732	-0.17
258.948	-41.13
259.165	-12.46
259.381	61.27
259.597	40.79
259.814	8.02
260.03	40.79
260.246	16.21
260.463	44.88
260.679	1.88
260.895	-2.22
261.112	69.46
261.328	-47.27
261.544	30.55
261.761	32.6
261.977	51.03
262.193	-37.03
262.409	-8.36
262.626	53.08
262.842	120.66
263.058	12.12
263.274	38.74
263.49	44.88
263.707	73.56
263.923	59.22
264.139	73.56
264.355	30.55
264.571	63.32
264.787	28.5
265.004	94.04
265.22	14.17
265.436	-0.17
265.652	38.74
265.868	94.04
266.084	36.69
266.3	-16.55
266.516	22.36
266.732	20.31
266.948	57.17
267.164	20.31
267.38	34.64
267.596	34.64
267.812	51.03
268.028	12.12
268.244	-37.03
268.46	28.5
268.676	14.17
268.892	5.97
269.108	57.17
269.324	-32.94
269.54	20.31
269.756	100.18
269.972	24.4
270.188	8.02
270.403	3.93
270.619	14.17
270.835	155.47
271.051	96.08
271.267	61.27
271.483	-18.6
271.698	-14.51
271.914	61.27
272.13	-8.36
272.346	51.03
272.562	-49.32
272.777	42.84
272.993	3.93
273.209	38.74
273.425	67.41
273.64	16.21
273.856	24.4
274.072	24.4
274.287	10.07
274.503	51.03
274.719	65.36
274.934	42.84
275.15	18.26
275.366	48.98
275.581	-6.31
275.797	40.79
276.012	-20.65
276.228	-100.52
276.444	53.08
276.659	71.51
276.875	-6.31
277.09	5.97
277.306	-8.36
277.521	30.55
277.737	38.74
277.952	63.32
278.168	63.32
278.383	38.74
278.599	8.02
278.814	112.47
279.03	10.07
279.245	46.93
279.461	55.12
279.676	91.99
279.892	-18.6
280.107	38.74
280.322	-51.37
280.538	42.84
280.753	77.65
280.969	53.08
281.184	75.6
281.399	147.28
281.615	-8.36
281.83	114.52
282.045	-6.31
282.26	83.8
282.476	24.4
282.691	59.22
282.906	-18.6
283.122	38.74
283.337	14.17
283.552	-6.31
283.767	-34.99
283.983	3.93
284.198	5.97
284.413	-8.36
284.628	71.51
284.843	44.88
285.058	79.7
285.274	5.97
285.489	22.36
285.704	36.69
285.919	26.45
286.134	69.46
286.349	-34.99
286.564	42.84
286.779	3.93
286.995	-10.41
287.21	18.26
287.425	55.12
287.64	-8.36
287.855	67.41
288.07	-8.36
288.285	44.88
288.5	71.51
288.715	14.17
288.93	-49.32
289.145	65.36
289.36	32.6
289.575	-24.75
289.79	14.17
290.004	5.97
290.219	61.27
290.434	65.36
290.649	8.02
290.864	77.65
291.079	55.12
291.294	22.36
291.509	-20.65
291.724	-2.22
291.938	-37.03
292.153	51.03
292.368	-20.65
292.583	-10.41
292.798	102.23
293.012	40.79
293.227	-53.42
293.442	46.93
293.657	30.55
293.871	18.26
294.086	20.31
294.301	46.93
294.516	102.23
294.73	1.88
294.945	3.93
295.16	26.45
295.374	51.03
295.589	71.51
295.804	30.55
296.018	36.69
296.233	51.03
296.447	73.56
296.662	12.12
296.877	26.45
297.091	30.55
297.306	12.12
297.52	63.32
297.735	-55.47
297.949	-20.65
298.164	53.08
298.378	1.88
298.593	63.32
298.807	12.12
299.022	106.32
299.236	30.55
299.451	-28.84
299.665	5.97
299.88	-37.03
300.094	59.22
300.309	-18.6
300.523	10.07
300.737	1.88
300.952	55.12
301.166	83.8
301.381	-34.99
301.595	36.69
301.809	28.5
302.024	59.22
302.238	67.41
302.452	3.93
302.667	28.5
302.881	55.12
303.095	112.47
303.309	67.41
303.524	-26.79
303.738	-47.27
303.952	51.03
304.166	91.99
304.381	18.26
304.595	-18.6
304.809	22.36
305.023	-4.27
305.237	16.21
305.452	46.93
305.666	28.5
305.88	108.37
306.094	120.66
306.308	61.27
306.522	108.37
306.736	22.36
306.95	79.7
307.164	81.75
307.379	3.93
307.593	24.4
307.807	44.88
308.021	24.4
308.235	87.89
308.449	22.36
308.663	30.55
308.877	77.65
309.091	3.93
309.305	51.03
309.519	71.51
309.733	85.84
309.947	22.36
310.161	20.31
310.374	-30.89
310.588	165.71
310.802	-43.18
311.016	42.84
311.23	-26.79
311.444	5.97
311.658	18.26
311.872	87.89
312.085	71.51
312.299	30.55
312.513	53.08
312.727	-8.36
312.941	30.55
313.154	38.74
313.368	53.08
313.582	-20.65
313.796	48.98
314.009	28.5
314.223	75.6
314.437	-28.84
314.651	59.22
314.864	10.07
315.078	10.07
315.292	26.45
315.505	53.08
315.719	61.27
315.933	-47.27
316.146	-2.22
316.36	61.27
316.573	104.28
316.787	38.74
317.001	46.93
317.214	-26.79
317.428	48.98
317.641	-28.84
317.855	59.22
318.068	5.97
318.282	20.31
318.495	40.79
318.709	77.65
318.922	-2.22
319.136	16.21
319.349	30.55
319.563	12.12
319.776	132.95
319.99	51.03
320.203	46.93
320.417	81.75
320.63	24.4
320.843	46.93
321.057	-30.89
321.27	34.64
321.483	10.07
321.697	96.08
321.91	73.56
322.124	94.04
322.337	-53.42
322.55	26.45
322.763	42.84
322.977	94.04
323.19	48.98
323.403	110.42
323.617	34.64
323.83	67.41
324.043	57.17
324.256	14.17
324.469	14.17
324.683	28.5
324.896	36.69
325.109	-0.17
325.322	-12.46
325.535	120.66
325.748	75.6
325.962	12.12
326.175	-32.94
326.388	18.26
326.601	22.36
326.814	-6.31
327.027	83.8
327.24	46.93
327.453	-34.99
327.666	46.93
327.879	34.64
328.092	89.94
328.305	1.88
328.518	44.88
328.731	55.12
328.944	-10.41
329.157	-18.6
329.37	44.88
329.583	104.28
329.796	59.22
330.009	-6.31
330.222	63.32
330.435	38.74
330.648	-8.36
330.861	69.46
331.073	48.98
331.286	36.69
331.499	38.74
331.712	87.89
331.925	36.69
332.138	-30.89
332.35	96.08
332.563	-34.99
332.776	100.18
332.989	-10.41
333.202	3.93
333.414	46.93
333.627	-8.36
333.84	-12.46
334.053	59.22
334.265	75.6
334.478	53.08
334.691	51.03
334.903	16.21
335.116	3.93
335.329	83.8
335.541	10.07
335.754	126.8
335.966	28.5
336.179	-71.85
336.392	40.79
336.604	16.21
336.817	73.56
337.029	30.55
337.242	12.12
337.454	16.21
337.667	135
337.88	38.74
338.092	32.6
338.305	112.47
338.517	46.93
338.729	77.65
338.942	36.69
339.154	114.52
339.367	38.74
339.579	89.94
339.792	132.95
340.004	55.12
340.217	42.84
340.429	96.08
340.641	-55.47
340.854	-28.84
341.066	79.7
341.278	85.84
341.491	18.26
341.703	40.79
341.915	26.45
342.128	85.84
342.34	24.4
342.552	-53.42
342.764	57.17
342.977	38.74
343.189	-39.08
343.401	57.17
343.613	-63.66
343.826	38.74
344.038	34.64
344.25	73.56
344.462	1.88
344.674	18.26
344.886	3.93
345.099	100.18
345.311	10.07
345.523	30.55
345.735	-43.18
345.947	44.88
346.159	-4.27
346.371	71.51
346.583	51.03
346.795	126.8
347.007	20.31
347.219	34.64
347.431	79.7
347.643	53.08
347.855	-0.17
348.067	40.79
348.279	24.4
348.491	32.6
348.703	55.12
348.915	-14.51
349.127	83.8
349.339	46.93
349.551	-0.17
349.763	96.08
349.975	96.08
350.187	24.4
350.399	51.03
350.61	120.66
350.822	-18.6
351.034	69.46
351.246	44.88
351.458	85.84
351.669	63.32
351.881	26.45
352.093	98.13
352.305	8.02
352.517	-63.66
352.728	71.51
352.94	10.07
353.152	75.6
353.363	32.6
353.575	38.74
353.787	85.84
353.999	106.32
354.21	108.37
354.422	14.17
354.633	77.65
354.845	10.07
355.057	38.74
355.268	3.93
355.48	-0.17
355.692	1.88
355.903	30.55
356.115	46.93
356.326	-43.18
356.538	94.04
356.749	5.97
356.961	69.46
357.172	69.46
357.384	32.6
357.595	69.46
357.807	51.03
358.018	81.75
358.23	106.32
358.441	112.47
358.653	34.64
358.864	44.88
359.075	-18.6
359.287	104.28
359.498	96.08
359.709	65.36
359.921	71.51
360.132	46.93
360.344	44.88
360.555	-8.36
360.766	102.23
360.977	-43.18
361.189	30.55
361.4	55.12
361.611	147.28
361.823	57.17
362.034	63.32
362.245	-73.9
362.456	28.5
362.667	-12.46
362.879	51.03
363.09	46.93
363.301	53.08
363.512	30.55
363.723	53.08
363.935	61.27
364.146	53.08
364.357	22.36
364.568	85.84
364.779	42.84
364.99	77.65
365.201	55.12
365.412	75.6
365.623	34.64
365.834	120.66
366.045	46.93
366.256	96.08
366.467	87.89
366.678	12.12
366.889	28.5
367.1	30.55
367.311	63.32
367.522	-6.31
367.733	34.64
367.944	46.93
368.155	55.12
368.366	79.7
368.577	91.99
368.788	63.32
368.999	30.55
369.209	91.99
369.42	36.69
369.631	44.88
369.842	63.32
370.053	44.88
370.264	114.52
370.474	63.32
370.685	96.08
370.896	-34.99
371.107	77.65
371.317	8.02
371.528	-18.6
371.739	104.28
371.95	36.69
372.16	112.47
372.371	-39.08
372.582	130.9
372.792	51.03
373.003	96.08
373.214	81.75
373.424	51.03
373.635	-20.65
373.846	46.93
374.056	22.36
374.267	-16.55
374.477	36.69
374.688	61.27
374.898	65.36
375.109	-18.6
375.319	28.5
375.53	5.97
375.74	16.21
375.951	-16.55
376.161	112.47
376.372	-14.51
376.582	42.84
376.793	40.79
377.003	-0.17
377.214	38.74
377.424	87.89
377.635	26.45
377.845	55.12
378.055	59.22
378.266	-26.79
378.476	-59.56
378.686	57.17
378.897	167.76
379.107	24.4
379.317	3.93
379.528	26.45
379.738	36.69
379.948	-20.65
380.158	53.08
380.369	71.51
380.579	79.7
380.789	51.03
380.999	65.36
381.21	20.31
381.42	108.37
381.63	104.28
381.84	108.37
382.05	53.08
382.261	139.09
382.471	55.12
382.681	-6.31
382.891	190.29
383.101	42.84
383.311	-10.41
383.521	18.26
383.731	59.22
383.941	61.27
384.151	59.22
384.361	12.12
384.571	104.28
384.781	30.55
384.991	30.55
385.201	79.7
385.411	116.56
385.621	28.5
385.831	38.74
386.041	71.51
386.251	12.12
386.461	112.47
386.671	38.74
386.881	32.6
387.091	14.17
387.301	118.61
387.511	28.5
387.72	91.99
387.93	42.84
388.14	46.93
388.35	104.28
388.56	32.6
388.769	59.22
388.979	10.07
389.189	116.56
389.399	128.85
389.609	65.36
389.818	61.27
390.028	36.69
390.238	26.45
390.447	81.75
390.657	112.47
390.867	1.88
391.076	14.17
391.286	38.74
391.496	67.41
391.705	42.84
391.915	116.56
392.125	116.56
392.334	42.84
392.544	112.47
392.753	55.12
392.963	71.51
393.172	22.36
393.382	-4.27
393.591	145.24
393.801	98.13
394.01	18.26
394.22	59.22
394.429	-14.51
394.639	53.08
394.848	46.93
395.058	98.13
395.267	36.69
395.477	108.37
395.686	61.27
395.895	112.47
396.105	122.71
396.314	135
396.524	132.95
396.733	110.42
396.942	143.19
397.152	75.6
397.361	141.14
397.57	53.08
397.78	61.27
397.989	161.62
398.198	61.27
398.407	91.99
398.617	83.8
398.826	77.65
399.035	149.33
399.244	51.03
399.453	83.8
399.663	63.32
399.872	108.37
400.081	139.09
400.29	159.57
400.499	98.13
400.708	143.19
400.917	126.8
401.127	110.42
401.336	94.04
401.545	137.04
401.754	104.28
401.963	147.28
402.172	81.75
402.381	106.32
402.59	67.41
402.799	196.43
403.008	120.66
403.217	132.95
403.426	128.85
403.635	28.5
403.844	143.19
404.053	175.95
404.262	65.36
404.471	98.13
404.68	192.34
404.888	198.48
405.097	192.34
405.306	180.05
405.515	124.76
405.724	200.53
405.933	202.58
406.142	85.84
406.35	237.39
406.559	145.24
406.768	175.95
406.977	210.77
407.185	216.91
407.394	216.91
407.603	200.53
407.812	304.98
408.02	247.63
408.229	282.45
408.438	188.24
408.646	276.31
408.855	266.07
409.064	276.31
409.272	282.45
409.481	307.02
409.69	296.78
409.898	325.46
410.107	356.18
410.315	374.61
410.524	323.41
410.733	317.26
410.941	323.41
411.15	397.14
411.358	397.14
411.567	464.72
411.775	395.09
411.984	429.9
412.192	450.38
412.401	483.15
412.609	468.81
412.818	513.87
413.026	544.59
413.234	499.53
413.443	489.29
413.651	601.93
413.86	626.51
414.068	661.32
414.276	653.13
414.485	657.23
414.693	657.23
414.901	667.47
415.11	733
415.318	683.85
415.526	816.97
415.734	776.01
415.943	786.25
416.151	880.46
416.359	913.22
416.567	890.7
416.776	888.65
416.984	1027.91
417.192	1046.34
417.4	974.66
417.608	999.24
417.817	1099.59
418.025	1152.84
418.233	1290.05
418.441	1279.81
418.649	1279.81
418.857	1259.33
419.065	1345.34
419.273	1349.44
419.481	1394.5
419.689	1525.57
419.897	1447.74
420.105	1689.4
420.313	1658.68
420.521	1750.84
420.729	1693.5
420.937	1761.08
421.145	1849.15
421.353	1935.16
421.561	1982.26
421.769	2137.91
421.977	2187.06
422.185	2176.82
422.393	2291.51
422.601	2348.85
422.809	2336.56
423.017	2383.66
423.224	2590.51
423.432	2625.33
423.64	2590.51
423.848	2961.19
424.056	2807.59
424.263	3010.34
424.471	3061.54
424.679	3133.22
424.887	3233.57
425.094	3350.31
425.302	3352.35
425.51	3503.9
425.718	3594.01
425.925	3682.08
426.133	3774.24
426.341	3903.26
426.548	4144.92
426.756	3987.22
426.964	4196.12
427.171	4556.56
427.379	4409.11
427.586	4683.53
427.794	4769.55
428.001	4937.48
428.209	5224.2
428.417	5132.04
428.624	5551.87
428.832	5390.08
429.039	5496.58
429.247	5582.59
429.454	5873.4
429.662	6491.89
429.869	6104.82
430.076	6371.06
430.284	6199.03
430.491	6442.74
430.699	6993.64
430.906	6862.57
431.114	6770.41
431.321	7362.28
431.528	7366.37
431.736	7870.17
431.943	8097.5
432.15	7800.54
432.358	8011.48
432.565	8138.46
432.772	8388.31
432.979	8806.09
433.187	9004.75
433.394	9070.28
433.601	9678.53
433.808	9729.73
434.016	9510.6
434.223	10098.36
434.43	10675.89
434.637	10194.62
434.844	11009.71
435.052	11329.19
435.259	11095.72
435.466	11495.08
435.673	11212.46
435.88	11880.1
436.087	12510.87
436.294	12347.03
436.501	11935.39
436.708	12373.66
436.915	12865.17
437.122	13403.78
437.329	13401.74
437.537	13790.85
437.743	13842.05
437.95	13958.78
438.157	14612.09
438.364	15261.29
438.571	15296.11
438.778	15240.81
438.985	16522.84
439.192	15797.86
439.399	16397.92
439.606	16164.45
439.813	16957.01
440.02	17976.9
440.227	17772.1
440.433	17645.13
440.64	18200.13
440.847	18046.53
441.054	18273.85
441.261	19654.19
441.467	19299.89
441.674	19719.72
441.881	20348.45
442.088	20487.71
442.294	20248.1
442.501	20760.09
442.708	21141.01
442.914	22165
443.121	22584.83
443.328	22375.94
443.534	23707.12
443.741	23215.6
443.948	22836.73
444.154	24507.87
444.361	24356.32
444.568	24374.75
444.774	24495.58
444.981	25077.21
445.187	25263.57
445.394	26471.87
445.6	26226.12
445.807	28591.52
446.013	27418.03
446.22	27839.92
446.426	29244.82
446.633	28589.47
446.839	30373.25
447.046	28741.02
447.252	30778.75
447.459	30553.48
447.665	30322.05
447.871	31446.39
448.078	33181.02
448.284	31114.62
448.491	32056.68
448.697	33408.34
448.903	33930.58
449.11	33996.11
449.316	33246.55
449.522	33957.2
449.728	35138.88
449.935	35347.77
450.141	35038.53
450.347	35937.58
450.553	34989.38
450.76	35040.57
450.966	36140.33
451.172	35917.11
451.378	36621.61
451.584	36109.61
451.791	36482.34
451.997	36932.9
452.203	37047.58
452.409	37070.11
452.615	37039.39
452.821	35736.88
453.027	35491.13
453.233	37207.33
453.44	35585.33
453.646	35820.85
453.852	36113.71
454.058	36517.16
454.264	35786.04
454.47	36138.29
454.676	35016
454.882	36082.99
455.088	33058.14
455.294	33303.9
455.5	34092.37
455.705	34295.11
455.911	33301.85
456.117	32222.57
456.323	32179.56
456.529	30430.6
456.735	31698.29
456.941	30729.6
457.147	30123.4
457.352	29293.97
457.558	28724.64
457.764	29031.83
457.97	28429.73
458.176	27807.15
458.381	27938.22
458.587	26484.16
458.793	26238.4
458.999	25249.24
459.204	26586.56
459.41	26303.94
459.616	24475.1
459.821	24454.62
460.027	24286.69
460.233	23682.54
460.438	22388.22
460.644	23045.62
460.85	21925.38
461.055	21644.81
461.261	21462.54
461.466	20319.78
461.672	19258.93
461.878	20868.63
462.083	19469.87
462.289	18884.15
462.494	19088.95
462.7	18171.46
462.905	17331.79
463.111	18118.21
463.316	18179.65
463.522	17692.23
463.727	17823.3
463.932	17671.75
464.138	17405.52
464.343	17419.85
464.549	17335.88
464.754	17516.11
464.959	17514.06
465.165	17573.45
465.37	16664.15
465.575	16383.58
465.781	16672.34
465.986	17038.93
466.191	16195.17
466.397	16264.8
466.602	15310.44
466.807	15844.96
467.012	15953.51
467.218	15978.08
467.423	15801.96
467.628	15849.06
467.833	16561.75
468.038	15771.24
468.244	15400.55
468.449	15967.84
468.654	15527.53
468.859	15232.62
469.064	15119.98
469.269	14710.39
469.474	14673.53
469.679	15009.39
469.885	14458.49
470.09	14909.04
470.295	14716.53
470.5	14317.18
470.705	14390.91
470.91	13850.24
471.115	13883.01
471.32	13883.01
471.525	14073.47
471.73	13753.99
471.935	13778.56
472.139	13266.57
472.344	13356.68
472.549	13264.52
472.754	13201.04
472.959	12762.77
473.164	12566.17
473.369	12324.51
473.574	12889.74
473.778	12928.66
473.983	12494.49
474.188	12637.84
474.393	12103.32
474.598	11902.62
474.802	11880.1
475.007	11847.33
475.212	11675.3
475.417	11384.49
475.621	11075.24
475.826	11425.45
476.031	11286.19
476.235	11073.2
476.44	11263.66
476.645	10964.65
476.849	11062.96
477.054	11177.64
477.259	10751.67
477.463	11052.72
477.668	10399.41
477.872	10655.41
478.077	10438.33
478.282	10149.56
478.486	10180.28
478.691	10176.19
478.895	9950.91
479.1	10024.64
479.304	9963.2
479.509	9770.69
479.713	9979.58
479.918	9502.4
480.122	9569.99
480.326	9434.82
480.531	9795.26
480.735	9758.4
480.94	9518.79
481.144	9938.62
481.348	9397.96
481.553	9475.78
481.757	9176.78
481.961	9232.07
482.166	9703.11
482.37	9305.8
482.574	9301.7
482.778	9393.86
482.983	9453.25
483.187	9254.6
483.391	9586.37
483.595	9346.76
483.8	9311.94
484.004	9322.18
484.208	9451.21
484.412	9363.14
484.616	9402.05
484.821	9389.77
485.025	9256.65
485.229	9506.5
485.433	9199.3
485.637	9295.56
485.841	9334.47
486.045	9291.46
486.249	9283.27
486.453	9062.09
486.657	9264.84
486.861	9432.77
487.065	9125.58
487.269	9383.62
487.473	9262.79
487.677	9346.76
487.881	9529.03
488.085	9207.5
488.289	9381.57
488.493	9287.37
488.697	9549.51
488.901	9326.28
489.105	9209.54
489.309	9344.71
489.512	9524.93
489.716	9535.17
489.92	9486.02
490.124	9354.95
490.328	9596.61
490.531	9377.48
490.735	9594.56
490.939	9625.28
491.143	9723.58
491.346	9623.23
491.55	9787.07
491.754	9729.73
491.958	9969.34
492.161	9832.13
492.365	9823.94
492.569	9828.03
492.772	9903.81
492.976	10049.21
493.18	9885.37
493.383	10151.61
493.587	10133.18
493.79	10237.63
493.994	10174.14
494.197	10284.73
494.401	10335.93
494.605	10307.26
494.808	10395.32
495.012	10495.67
495.215	10839.73
495.419	10892.98
495.622	10593.97
495.825	10835.63
496.029	10774.19
496.232	11171.5
496.436	11351.72
496.639	11302.57
496.843	11179.69
497.046	11417.26
497.249	11642.53
497.453	11671.2
497.656	11929.25
497.859	12048.03
498.063	12107.42
498.266	12492.44
498.469	12248.73
498.673	12211.87
498.876	12510.87
499.079	12736.15
499.282	12678.8
499.485	12885.65
499.689	13147.79
499.892	13149.84
500.095	13184.65
500.298	13710.98
500.501	13592.2
500.705	13743.75
500.908	13895.3
501.111	14065.28
501.314	14077.57
501.517	14298.75
501.72	14495.35
501.923	14823.03
502.126	14851.7
502.329	15160.94
502.532	15240.81
502.735	15459.95
502.938	15464.04
503.141	15777.38
503.344	15832.68
503.547	15998.56
503.75	16184.93
503.953	16469.59
504.156	16686.68
504.359	16637.53
504.562	16672.34
504.765	16991.83
504.968	17368.65
505.17	17595.98
505.373	17614.41
505.576	18173.5
505.779	18169.41
505.982	18402.88
506.185	18529.85
506.387	18617.91
506.59	18929.2
506.793	18886.2
506.996	19056.18
507.198	19637.8
507.401	19476.01
507.604	19820.07
507.807	19985.96
508.009	20399.65
508.212	20287.01
508.415	20801.05
508.617	20878.87
508.82	20766.23
509.022	20872.73
509.225	21337.62
509.428	21698.06
509.63	22081.03
509.833	22064.64
510.035	22287.87
510.238	22193.67
510.44	22926.84
510.643	22982.13
510.845	23084.53
511.048	23227.89
511.25	23557.61
511.453	23444.98
511.655	24567.26
511.858	24049.13
512.06	24245.73
512.262	24761.82
512.465	24516.06
512.667	25230.8
512.87	25187.8
513.072	25458.13
513.274	26095.05
513.477	26158.53
513.679	26289.6
513.881	26684.86
514.084	26965.43
514.286	26889.66
514.488	27391.41
514.69	27868.59
514.893	27829.68
515.095	27831.72
515.297	28495.27
515.499	28374.44
515.701	28913.05
515.904	29318.55
516.106	28945.82
516.308	29615.51
516.51	29810.06
516.712	29848.97
516.914	30320.01
517.116	30733.7
517.318	30809.47
517.52	31047.04
517.722	31395.19
517.925	31804.78
518.127	32159.08
518.329	32111.98
518.531	32472.42
518.733	32628.07
518.935	33111.39
519.136	32839.01
519.338	33733.97
519.54	33985.87
519.742	34129.23
519.944	34151.76
520.146	34862.4
520.348	35315
520.55	35056.96
520.752	35034.43
520.954	35587.38
521.155	35726.64
521.357	36146.48
521.559	36275.5
521.761	36793.64
521.963	36805.92
522.164	37121.31
522.366	37336.35
522.568	37711.13
522.77	37813.52
522.971	38157.58
523.173	38028.56
523.375	38495.5
523.576	38591.75
523.778	38821.12
523.98	39109.89
524.181	39103.74
524.383	39128.32
524.584	39646.46
524.786	40117.49
524.988	39707.9
525.189	40361.2
525.391	40619.24
525.592	40891.62
525.794	41141.47
525.995	41194.72
526.197	41196.77
526.398	41266.4
526.6	41532.64
526.801	41774.3
527.003	42345.68
527.204	42048.72
527.406	42513.61
527.607	42564.81
527.808	42806.47
528.01	42110.16
528.211	42650.83
528.412	43113.67
528.614	43324.61
528.815	43295.94
529.016	43668.67
529.218	43250.88
529.419	43551.93
529.62	43392.19
529.822	43334.85
530.023	43619.52
530.224	44061.88
530.425	43900.09
530.626	43621.56
530.828	43578.56
531.029	44547.25
531.23	44371.12
531.431	44407.98
531.632	44575.92
531.833	44498.09
532.035	44494
532.236	44250.29
532.437	44833.96
532.638	44422.32
532.839	45030.57
533.04	45087.91
533.241	44379.31
533.442	45333.67
533.643	44698.8
533.844	44870.82
534.045	45032.61
534.246	44801.19
534.447	44981.41
534.648	44952.74
534.849	45358.24
535.05	44670.12
535.251	45515.93
535.451	44838.06
535.652	45313.19
535.853	44680.36
536.054	45032.61
536.255	45319.33
536.456	44395.7
536.657	45532.32
536.857	45055.14
537.058	44940.46
537.259	45560.99
537.46	45464.74
537.66	45167.78
537.861	45395.1
538.062	45300.9
538.263	45063.33
538.463	44747.95
538.664	45161.64
538.865	45366.43
539.065	45585.57
539.266	44995.75
539.466	45370.53
539.667	44874.92
539.868	45786.27
540.068	45284.51
540.269	45192.36
540.469	45528.22
540.67	45194.4
540.87	45200.55
541.071	44745.9
541.271	45102.25
541.472	44989.61
541.672	45106.34
541.873	45014.18
542.073	44248.24
542.274	45325.47
542.474	44907.69
542.675	44686.51
542.875	45474.98
543.075	44983.46
543.276	44631.21
543.476	45431.97
543.676	44766.38
543.877	45276.32
544.077	45098.15
544.277	44592.3
544.478	45008.04
544.678	44915.88
544.878	45100.2
545.078	44872.87
545.279	44489.9
545.479	44784.81
545.679	44885.16
545.879	44922.02
546.079	45014.18
546.28	44731.56
546.48	44620.97
546.68	45237.41
546.88	45474.98
547.08	44887.21
547.28	44936.36
547.48	44743.85
547.68	44614.83
547.88	44670.12
548.081	44766.38
548.281	44825.77
548.481	44518.57
548.681	44833.96
548.881	44926.12
549.081	44637.36
549.28	44577.97
549.48	44629.16
549.68	44475.57
549.88	44981.41
550.08	44739.75
550.28	44543.15
550.48	44582.06
550.68	45016.23
550.88	44387.5
551.08	44563.63
551.279	44604.59
551.479	44057.78
551.679	44727.47
551.879	44407.98
552.079	44473.52
552.278	44405.94
552.478	44258.48
552.678	44385.46
552.878	44954.79
553.077	44573.87
553.277	43902.14
553.477	44561.58
553.676	44115.12
553.876	44158.13
554.076	44108.98
554.275	44399.79
554.475	43437.25
554.674	44225.71
554.874	43953.33
555.074	43971.77
555.273	43941.05
555.473	44061.88
555.672	43633.85
555.872	43945.14
556.071	43842.74
556.271	44399.79
556.47	43955.38
556.67	43474.11
556.869	43711.67
557.068	44022.97
557.268	43261.12
557.467	43697.34
557.667	43617.47
557.866	43359.42
558.065	43412.67
558.265	43035.84
558.464	43377.86
558.663	43549.88
558.863	42573
559.062	43422.91
559.261	42990.79
559.461	43392.19
559.66	42585.29
559.859	43140.29
560.058	42491.08
560.258	43078.85
560.457	42216.66
560.656	42986.69
560.855	42489.04
561.054	42478.8
561.253	42183.89
561.453	42585.29
561.652	42570.96
561.851	42622.15
562.05	42454.22
562.249	42122.45
562.448	42505.42
562.647	42069.2
562.846	42155.22
563.045	42159.31
563.244	41577.69
563.443	41987.28
563.642	41303.26
563.841	41483.48
564.04	41319.65
564.239	41813.21
564.438	41077.99
564.637	41614.55
564.836	41411.81
565.035	41000.16
565.234	40885.48
565.432	40592.62
565.631	40821.99
565.83	40592.62
566.029	40944.87
566.228	40574.19
566.427	40838.37
566.625	40082.67
566.824	40045.81
567.023	40533.23
567.222	39763.19
567.42	40522.99
567.619	40357.1
567.818	39804.15
568.016	39793.91
568.215	40518.89
568.414	39554.3
568.612	40193.26
568.811	39689.46
569.01	39617.78
569.208	38855.94
569.407	39249.15
569.605	38599.94
569.804	39429.37
570.002	38894.85
570.201	39238.91
570.4	38661.38
570.598	38610.18
570.797	38429.96
570.995	38395.15
571.193	38284.56
571.392	38333.71
571.59	37989.65
571.789	38198.54
571.987	38171.92
572.186	37854.48
572.384	37903.63
572.582	37887.25
572.781	37920.02
572.979	37315.87
573.177	37514.52
573.376	37520.66
573.574	37436.7
573.772	37569.82
573.971	36748.58
574.169	37076.26
574.367	37012.77
574.565	37172.51
574.763	36685.09
574.962	36545.83
575.16	36408.62
575.358	36562.22
575.556	36164.91
575.754	36633.89
575.952	35933.49
576.151	36508.97
576.349	35722.55
576.547	35894.58
576.745	35728.69
576.943	36037.94
577.141	36007.22
577.339	35607.86
577.537	35544.37
577.735	35548.47
577.933	35439.93
578.131	35503.42
578.329	35206.46
578.527	34741.57
578.725	34966.85
578.923	35147.07
579.121	34604.36
579.319	34921.79
579.516	34921.79
579.714	34901.31
579.912	34379.08
580.11	34227.53
580.308	34620.74
580.506	34123.08
580.704	33686.87
580.901	34522.44
581.099	34243.91
581.297	34010.45
581.495	33674.58
581.692	33578.32
581.89	33267.03
582.088	33779.03
582.285	33807.7
582.483	33865.04
582.681	33609.04
582.878	33424.73
583.076	33226.07
583.274	33361.24
583.471	32832.86
583.669	32968.03
583.866	32773.47
584.064	32996.7
584.262	32595.3
584.459	33074.52
584.657	32548.2
584.854	32693.6
585.052	31890.8
585.249	32513.38
585.447	32372.07
585.644	31741.3
585.841	32032.11
586.039	32243.05
586.236	31913.33
586.434	31907.18
586.631	31776.11
586.828	31985.01
587.026	31505.78
587.223	31360.37
587.42	31309.18
587.618	31026.56
587.815	30954.88
588.012	31096.19
588.21	30782.85
588.407	31174.01
588.604	30784.9
588.801	30403.97
588.999	30612.87
589.196	30336.39
589.393	30641.54
589.59	30406.02
589.787	30547.33
589.984	30309.77
590.182	30023.05
590.379	30205.32
590.576	29998.48
590.773	29902.22
590.97	30057.87
591.167	29904.27
591.364	29654.42
591.561	30123.4
591.758	29416.85
591.955	29506.96
592.152	29291.93
592.349	29375.89
592.546	29091.23
592.743	29003.16
592.94	28911
593.137	28990.87
593.334	29099.42
593.531	28712.35
593.727	28568.99
593.924	28939.68
594.121	28568.99
594.318	28550.56
594.515	28241.32
594.712	28507.55
594.908	28274.09
595.105	28251.56
595.302	27796.91
595.499	28032.43
595.696	27966.89
595.892	27573.68
596.089	28065.19
596.286	27612.59
596.482	27719.09
596.679	27563.44
596.876	27536.82
597.072	27315.64
597.269	27403.7
597.466	27110.84
597.662	27209.14
597.859	27186.61
598.055	27106.74
598.252	26977.72
598.448	26883.52
598.645	26740.16
598.841	26639.81
599.038	26621.38
599.234	26664.38
599.431	26471.87
599.627	26357.19
599.824	26312.13
600.02	26230.21
600.217	26387.91
600.413	26373.57
600.609	26080.71
600.806	25902.54
601.002	26142.15
601.198	25648.59
601.395	25558.48
601.591	25601.49
601.787	25587.15
601.984	25568.72
602.18	25656.78
602.376	25591.25
602.572	25339.35
602.769	25056.73
602.965	24673.76
603.161	24751.58
603.357	24782.3
603.553	24925.66
603.75	24755.68
603.946	24853.98
604.142	24749.53
604.338	24466.91
604.534	24661.47
604.73	24104.42
604.926	24460.77
605.122	24245.73
605.318	24131.05
605.514	24260.07
605.71	24022.5
605.906	23950.82
606.102	24137.19
606.298	23977.45
606.494	23827.95
606.69	23688.68
606.886	23866.86
607.082	23471.6
607.278	23739.88
607.474	23283.19
607.67	23619.05
607.866	23139.83
608.062	23617
608.257	22945.27
608.453	23215.6
608.649	23264.75
608.845	23170.55
609.041	23348.72
609.236	22853.11
609.432	22898.17
609.628	23373.3
609.824	22658.56
610.019	22806.01
610.215	22676.99
610.411	22945.27
610.606	22494.72
610.802	22812.15
610.998	22681.08
611.193	22425.09
611.389	22255.11
611.584	22234.63
611.78	22195.71
611.976	22365.7
612.171	22312.45
612.367	22289.92
612.562	22089.22
612.758	21923.33
612.953	21853.7
613.149	22238.72
613.344	22138.37
613.539	22431.23
613.735	21863.94
613.93	22062.6
614.126	22121.99
614.321	21927.43
614.517	21980.68
614.712	21835.27
614.907	21501.45
615.103	21769.74
615.298	21626.38
615.493	21706.25
615.688	21331.47
615.884	21792.26
616.079	21218.83
616.274	21538.32
616.47	21329.42
616.665	21333.52
616.86	21136.91
617.055	21190.16
617.25	21032.47
617.445	21216.79
617.641	20657.69
617.836	21163.54
618.031	20856.34
618.226	20866.58
618.421	20809.24
618.616	20891.16
618.811	20301.34
619.006	21044.76
619.201	20289.06
619.396	20332.06
619.591	20254.24
619.786	20221.47
619.981	20061.73
620.176	19867.17
620.371	19834.41
620.566	19895.85
620.761	19719.72
620.956	19940.9
621.151	19693.1
621.346	19543.6
621.541	19390
621.735	19750.44
621.93	19072.56
622.125	19410.48
622.32	18814.52
622.515	19142.19
622.709	18765.37
622.904	18947.64
623.099	18957.88
623.294	18961.97
623.488	18390.59
623.683	18511.42
623.878	18544.19
624.072	18292.29
624.267	18423.36
624.462	18056.77
624.656	17962.56
624.851	17772.1
625.046	17741.38
625.24	17823.3
625.435	17772.1
625.629	17583.69
625.824	17469
626.018	17299.02
626.213	16881.24
626.407	17466.95
626.602	16938.58
626.796	16995.92
626.991	17045.07
627.185	16811.6
627.38	16758.36
627.574	16678.49
627.768	16438.87
627.963	16500.31
628.157	16287.32
628.352	16074.34
628.546	15984.23
628.74	16283.23
628.935	15883.87
629.129	15998.56
629.323	15758.95
629.517	15677.03
629.712	15724.13
629.906	15767.14
630.1	15251.05
630.294	15562.34
630.489	15314.54
630.683	15230.57
630.877	14964.34
631.071	14886.51
631.265	15175.28
631.459	14679.67
631.653	14913.14
631.848	14820.98
632.042	14769.78
632.236	14728.82
632.43	14521.98
632.624	14466.68
632.818	14362.23
633.012	14341.75
633.206	14153.34
633.4	14337.66
633.594	14042.75
633.788	14040.7
633.982	14098.05
634.176	13819.52
634.369	13745.8
634.563	13817.47
634.757	13606.53
634.951	13647.49
635.145	13608.58
635.339	13467.27
635.533	13379.21
635.726	13168.27
635.92	13201.04
636.114	13258.38
636.308	12936.85
636.501	13162.12
636.695	12842.64
636.889	12826.26
637.083	12695.19
637.276	12764.82
637.47	12707.48
637.664	12643.99
637.857	12646.04
638.051	12568.21
638.244	12371.61
638.438	12261.02
638.632	12095.13
638.825	12084.89
639.019	12041.89
639.212	12070.56
639.406	12152.48
639.599	11810.47
639.793	11810.47
639.986	11808.42
640.18	11814.56
640.373	11712.16
640.567	11517.61
640.76	11501.22
640.954	11460.26
641.147	11249.32
641.34	11417.26
641.534	11417.26
641.727	11265.71
641.92	11210.41
642.114	10960.56
642.307	10929.84
642.5	10966.7
642.694	10710.71
642.887	10772.14
643.08	10714.8
643.273	10737.33
643.467	10698.42
643.66	10337.98
643.853	10464.95
644.046	10380.98
644.239	10503.86
644.432	10471.09
644.626	10413.75
644.819	10217.15
645.012	10292.92
645.205	10104.51
645.398	9975.49
645.591	9916.09
645.784	10069.69
645.977	9778.88
646.17	9854.65
646.363	9705.15
646.556	9445.06
646.749	9694.91
646.942	9713.35
647.135	9649.86
647.328	9461.44
647.521	9514.69
647.714	9391.81
647.907	9504.45
648.099	9324.23
648.292	9238.22
648.485	9346.76
648.678	9148.11
648.871	9090.76
649.064	9004.75
649.256	9174.73
649.449	9004.75
649.642	8998.6
649.835	8656.59
650.027	8789.71
650.22	8914.64
650.413	8816.33
650.605	8646.35
650.798	8718.03
650.991	8607.44
651.183	8552.15
651.376	8455.89
651.568	8437.46
651.761	8443.6
651.954	8449.75
652.146	8320.73
652.339	8263.38
652.531	8347.35
652.724	8337.11
652.916	7982.81
653.109	7988.96
653.301	7980.76
653.494	8001.24
653.686	7800.54
653.879	8025.82
654.071	7900.89
654.263	7812.83
654.456	7802.59
654.648	7935.71
654.84	7614.18
655.033	7605.99
655.225	7462.63
655.417	7663.33
655.61	7542.5
655.802	7513.83
655.994	7528.16
656.186	7499.49
656.379	7483.11
656.571	7263.97
656.763	7239.4
656.955	7190.25
657.148	7083.75
657.34	7311.08
657.532	7186.15
657.724	7053.03
657.916	7003.88
658.108	7096.04
658.3	6854.38
658.492	7026.41
658.684	6776.56
658.876	7016.17
659.068	6827.76
659.26	6762.22
659.452	6844.14
659.644	6706.93
659.836	6690.54
660.028	6573.81
660.22	6495.99
660.412	6469.36
660.604	6547.19
660.796	6516.47
660.988	6622.96
661.18	6442.74
661.372	6485.75
661.563	6442.74
661.755	6141.69
661.947	6393.59
662.139	6162.17
662.331	6209.27
662.522	5940.99
662.714	6082.3
662.906	6305.53
663.097	6059.77
663.289	5910.27
663.481	5938.94
663.673	5943.03
663.864	5945.08
664.056	5979.9
664.247	5857.02
664.439	5883.64
664.631	5766.91
664.822	5807.87
665.014	5773.05
665.205	5791.48
665.397	5779.2
665.588	5752.57
665.78	5676.8
665.971	5549.82
666.163	5517.06
666.354	5490.43
666.546	5506.82
666.737	5437.19
666.929	5560.06
667.12	5601.02
667.311	5435.14
667.503	5426.95
667.694	5222.15
667.885	5267.2
668.077	5369.6
668.268	5218.05
668.459	5314.31
668.651	5312.26
668.842	5009.16
669.033	5234.44
669.224	5168.9
669.416	5222.15
669.607	5287.68
669.798	4994.83
669.989	5140.23
670.18	5115.66
670.371	5099.27
670.563	4886.28
670.754	5013.26
670.945	4812.56
671.136	4855.56
671.327	4972.3
671.518	4906.76
671.709	5005.06
671.9	4855.56
672.091	4646.67
672.282	4812.56
672.473	4683.53
672.664	4695.82
672.855	4845.32
673.046	4626.19
673.237	4562.7
673.428	4730.64
673.619	4749.07
673.809	4568.85
674	4634.38
674.191	4548.37
674.382	4445.97
674.573	4364.05
674.764	4443.92
674.954	4480.78
675.145	4335.38
675.336	4470.55
675.527	4437.78
675.717	4511.5
675.908	4235.03
676.099	4243.22
676.289	4411.15
676.48	4316.95
676.671	4218.64
676.861	4355.86
677.052	4253.46
677.243	4362
677.433	4218.64
677.624	4323.09
677.814	4194.07
678.005	4255.51
678.195	4245.27
678.386	4128.53
678.576	4224.79
678.767	4005.66
678.957	4085.53
679.148	4167.45
679.338	4067.1
679.529	4157.21
679.719	3944.22
679.909	4267.8
680.1	3979.03
680.29	4001.56
680.481	4050.71
680.671	4013.85
680.861	4054.81
681.052	3985.18
681.242	3972.89
681.432	4015.9
681.622	3911.45
681.813	3852.06
682.003	3897.11
682.193	3923.74
682.383	3827.48
682.573	3950.36
682.764	3870.49
682.954	3843.87
683.144	3831.58
683.334	3833.63
683.524	3737.37
683.714	3833.63
683.904	3796.76
684.094	3798.81
684.284	3673.89
684.474	3831.58
684.664	3733.28
684.854	3761.95
685.044	3725.08
685.234	3718.94
685.424	3589.92
685.614	3688.22
685.804	3690.27
685.994	3483.42
686.184	3604.25
686.374	3583.77
686.564	3587.87
686.753	3587.87
686.943	3512.1
687.133	3487.52
687.323	3516.19
687.513	3657.5
687.702	3569.44
687.892	3544.86
688.082	3415.84
688.272	3661.6
688.461	3348.26
688.651	3397.41
688.841	3454.75
689.03	3407.65
689.22	3381.03
689.41	3417.89
689.599	3424.03
689.789	3475.23
689.979	3327.78
690.168	3383.07
690.358	3274.53
690.547	3378.98
690.737	3378.98
690.926	3331.87
691.116	3249.96
691.305	3303.2
691.495	3247.91
691.684	3237.67
691.874	3213.09
692.063	3249.96
692.252	3200.8
692.442	3180.32
692.631	3282.72
692.82	3254.05
693.01	3231.52
693.199	3209
693.388	3041.06
693.578	3094.31
693.767	3028.78
693.956	3184.42
694.146	3032.87
694.335	3211.04
694.524	3067.69
694.713	3079.97
694.902	2983.72
695.092	3006.25
695.281	2940.71
695.47	3106.6
695.659	3059.49
695.848	2985.77
696.037	3110.69
696.226	2963.24
696.415	3026.73
696.604	3092.26
696.793	3055.4
696.982	2920.23
697.171	3200.8
697.36	3073.83
697.549	3086.12
697.738	2893.61
697.927	2971.43
698.116	3082.02
698.305	3065.64
698.494	2957.1
698.683	2905.9
698.872	3077.93
699.061	3036.97
699.25	3098.41
699.438	2955.05
699.627	2928.42
699.816	2975.53
700.005	2967.34
700.193	3028.78
700.382	3047.21
700.571	3002.15
700.76	2983.72
700.948	3012.39
701.137	2967.34
701.326	2957.1
701.514	2776.87
701.703	2862.89
701.892	2866.99
702.08	3096.36
702.269	2957.1
702.457	2864.94
702.646	2953
702.834	2967.34
703.023	3041.06
703.212	2823.98
703.4	2928.42
703.589	2936.62
703.777	3006.25
703.965	2821.93
704.154	2881.32
704.342	2846.51
704.531	2916.14
704.719	2819.88
704.907	3002.15
705.096	2885.42
705.284	2875.18
705.472	3014.44
705.661	2936.62
705.849	2926.38
706.037	3059.49
706.226	2852.65
706.414	2905.9
706.602	3065.64
706.79	2852.65
706.979	2922.28
707.167	3102.5
707.355	2875.18
707.543	2864.94
707.731	2840.36
707.919	2953
708.107	3010.34
708.296	2815.79
708.484	2914.09
708.672	3000.1
708.86	2869.03
709.048	2844.46
709.236	2895.66
709.424	2944.81
709.612	2805.55
709.8	2844.46
709.988	2918.18
710.176	2987.82
710.364	2903.85
710.551	2953
710.739	2748.2
710.927	2893.61
711.115	2848.55
711.303	2971.43
711.491	2846.51
711.679	2838.31
711.866	2965.29
712.054	2977.58
712.242	2930.47
712.43	2950.95
712.617	2850.6
712.805	2922.28
712.993	2914.09
713.181	2807.59
713.368	2889.51
713.556	2881.32
713.744	2848.55
713.931	2914.09
714.119	2856.75
714.306	2881.32
714.494	2797.35
714.682	2877.23
714.869	2750.25
715.057	2848.55
715.244	2905.9
715.432	2869.03
715.619	2928.42
715.807	2826.03
715.994	2776.87
716.182	2895.66
716.369	2873.13
716.556	2862.89
716.744	2856.75
716.931	2660.14
717.119	2903.85
717.306	2744.11
717.493	2764.59
717.681	2772.78
717.868	2807.59
718.055	2823.98
718.242	2778.92
718.43	2840.36
718.617	2692.91
718.804	2789.16
718.991	2832.17
719.179	2795.31
719.366	2666.28
719.553	2778.92
719.74	2742.06
719.927	2889.51
720.114	2764.59
720.301	2791.21
720.488	2774.83
720.676	2869.03
720.863	2752.3
721.05	2752.3
721.237	2658.09
721.424	2826.03
721.611	2744.11
721.798	2678.57
721.985	2621.23
722.172	2748.2
722.358	2656.04
722.545	2797.35
722.732	2694.96
722.919	2758.44
723.106	2733.87
723.293	2742.06
723.48	2697
723.667	2647.85
723.853	2606.89
724.04	2813.74
724.227	2719.53
724.414	2787.11
724.6	2658.09
724.787	2697
724.974	2672.43
725.161	2719.53
725.347	2608.94
725.534	2748.2
725.72	2586.41
725.907	2760.49
726.094	2633.52
726.28	2600.75
726.467	2651.95
726.653	2750.25
726.84	2705.2
727.027	2680.62
727.213	2570.03
727.4	2494.26
727.586	2664.24
727.773	2617.13
727.959	2610.99
728.145	2578.22
728.332	2461.49
728.518	2629.42
728.705	2737.96
728.891	2576.17
729.077	2488.11
729.264	2520.88
729.45	2645.8
729.636	2623.28
729.823	2635.57
730.009	2516.78
730.195	2651.95
730.382	2539.31
730.568	2459.44
730.754	2428.72
730.94	2592.56
731.126	2398
731.313	2496.3
731.499	2602.8
731.685	2557.74
731.871	2357.04
732.057	2539.31
732.243	2430.77
732.429	2402.1
732.615	2551.6
732.801	2481.97
732.987	2436.91
733.173	2395.95
733.359	2428.72
733.545	2459.44
733.731	2455.34
733.917	2457.39
734.103	2500.4
734.289	2465.58
734.475	2436.91
734.661	2516.78
734.847	2350.9
735.033	2430.77
735.219	2424.62
735.404	2373.43
735.59	2416.43
735.776	2348.85
735.962	2461.49
736.148	2455.34
736.333	2297.65
736.519	2375.47
736.705	2285.36
736.89	2342.71
737.076	2373.43
737.262	2328.37
737.447	2342.71
737.633	2352.95
737.819	2277.17
738.004	2307.89
738.19	2361.14
738.375	2344.75
738.561	2240.31
738.747	2242.36
738.932	2342.71
739.118	2238.26
739.303	2254.64
739.489	2322.23
739.674	2144.05
739.859	2217.78
740.045	2209.59
740.23	2148.15
740.416	2127.67
740.601	2254.64
740.786	2154.29
740.972	2230.07
741.157	2012.98
741.342	2162.48
741.528	2213.68
741.713	2127.67
741.898	2131.76
742.084	2033.46
742.269	2162.48
742.454	2158.39
742.639	2027.32
742.824	2109.24
743.01	2025.27
743.195	2012.98
743.38	2127.67
743.565	2096.95
743.75	1969.98
743.935	2031.41
744.12	2096.95
744.305	1875.77
744.49	1957.69
744.675	1924.92
744.86	1980.22
745.045	1967.93
745.23	2029.37
745.415	1828.67
745.6	1951.54
745.785	1957.69
745.97	1994.55
746.155	1929.02
746.34	1812.28
746.525	1953.59
746.71	1857.34
746.895	1797.95
747.079	1963.83
747.264	1765.18
747.449	1963.83
747.634	1791.8
747.819	1836.86
748.003	1789.75
748.188	1695.55
748.373	1849.15
748.557	1832.76
748.742	1734.46
748.927	1730.36
749.111	1746.75
749.296	1716.03
749.481	1734.46
749.665	1808.19
749.85	1656.64
750.034	1582.91
750.219	1595.2
750.404	1617.72
750.588	1681.21
750.773	1525.57
750.957	1572.67
751.141	1644.35
751.326	1494.85
751.51	1630.01
751.695	1578.81
751.879	1546.05
752.064	1505.09
752.248	1591.1
752.432	1619.77
752.617	1539.9
752.801	1615.68
752.985	1525.57
753.17	1494.85
753.354	1455.94
753.538	1496.89
753.722	1457.98
753.907	1390.4
754.091	1357.63
754.275	1417.02
754.459	1406.78
754.643	1496.89
754.828	1378.11
755.012	1462.08
755.196	1406.78
755.38	1312.58
755.564	1451.84
755.748	1414.98
755.932	1304.39
756.116	1345.34
756.3	1345.34
756.484	1267.52
756.668	1355.58
756.852	1312.58
757.036	1181.51
757.22	1355.58
757.404	1222.47
757.588	1130.31
757.772	1316.67
757.956	1275.71
758.14	1292.1
758.323	1189.7
758.507	1357.63
758.691	1269.57
758.875	1150.79
759.059	1193.8
759.242	1177.41
759.426	1161.03
759.61	1191.75
759.794	1128.26
759.977	1156.93
760.161	1093.44
760.345	1132.36
760.528	1242.95
760.712	1075.01
760.895	1197.89
761.079	1120.07
761.263	1044.29
761.446	1083.2
761.63	1115.97
761.813	1085.25
761.997	1187.65
762.18	1070.92
762.364	1122.12
762.547	1095.49
762.731	1140.55
762.914	1212.23
763.098	1011.53
763.281	1118.02
763.464	1025.86
763.648	1054.53
763.831	1113.92
764.015	999.24
764.198	976.71
764.381	1011.53
764.564	1017.67
764.748	1009.48
764.931	982.85
765.114	894.79
765.297	1011.53
765.481	999.24
765.664	878.41
765.847	964.42
766.03	1038.15
766.213	976.71
766.397	976.71
766.58	941.89
766.763	892.74
766.946	948.04
767.129	931.66
767.312	913.22
767.495	978.76
767.678	902.98
767.861	982.85
768.044	970.57
768.227	986.95
768.41	960.33
768.593	995.14
768.776	845.64
768.959	890.7
769.142	964.42
769.324	939.85
769.507	816.97
769.69	956.23
769.873	896.84
770.056	986.95
770.239	862.02
770.421	921.42
770.604	880.46
770.787	886.6
770.97	943.94
771.152	876.36
771.335	978.76
771.518	739.15
771.7	857.93
771.883	927.56
772.066	849.74
772.248	886.6
772.431	956.23
772.613	841.54
772.796	849.74
772.978	796.49
773.161	814.92
773.343	827.21
773.526	751.43
773.708	763.72
773.891	720.71
774.073	825.16
774.256	800.59
774.438	794.44
774.621	812.87
774.803	841.54
774.985	692.04
775.168	767.82
775.35	751.43
775.532	757.58
775.715	702.28
775.897	739.15
776.079	735.05
776.261	761.67
776.444	743.24
776.626	761.67
776.808	718.67
776.99	689.99
777.173	720.71
777.355	771.91
777.537	577.36
777.719	771.91
777.901	718.67
778.083	651.08
778.265	675.66
778.447	689.99
778.629	634.7
778.811	710.47
778.993	620.36
779.175	773.96
779.357	687.95
779.539	593.74
779.721	577.36
779.903	687.95
780.085	573.26
780.267	665.42
780.449	571.21
780.631	548.68
780.812	700.23
780.994	649.04
781.176	595.79
781.358	620.36
781.54	542.54
781.721	552.78
781.903	659.28
782.085	526.16
782.267	517.97
782.448	493.39
782.63	614.22
782.812	640.84
782.993	593.74
783.175	517.97
783.357	530.25
783.538	546.64
783.72	470.86
783.901	436.05
784.083	563.02
784.264	538.45
784.446	470.86
784.627	485.2
784.809	651.08
784.99	538.45
785.172	505.68
785.353	485.2
785.535	393.04
785.716	472.91
785.897	431.95
786.079	503.63
786.26	505.68
786.441	462.67
786.623	485.2
786.804	452.43
786.985	589.64
787.167	472.91
787.348	454.48
787.529	495.44
787.71	423.76
787.891	350.03
788.073	374.61
788.254	399.18
788.435	442.19
788.616	374.61
788.797	431.95
788.978	417.61
789.159	382.8
789.34	372.56
789.522	362.32
789.703	431.95
789.884	407.38
790.065	407.38
790.246	382.8
790.427	399.18
790.607	438.09
790.788	407.38
790.969	292.69
791.15	331.6
791.331	366.42
791.512	358.22
791.693	341.84
791.874	368.46
792.054	317.26
792.235	329.55
792.416	298.83
792.597	327.5
792.778	335.7
792.958	388.94
793.139	393.04
793.32	372.56
793.5	300.88
793.681	407.38
793.862	327.5
794.042	323.41
794.223	290.64
794.404	327.5
794.584	339.79
794.765	313.17
794.945	319.31
795.126	292.69
795.306	304.98
795.487	321.36
795.667	249.68
795.848	300.88
796.028	253.78
796.209	382.8
796.389	309.07
796.57	235.35
796.75	298.83
796.93	255.83
797.111	294.74
797.291	317.26
797.471	276.31
797.652	190.29
797.832	239.44
798.012	251.73
798.192	325.46
798.373	284.5
798.553	243.54
798.733	251.73
798.913	292.69
799.093	274.26
799.274	315.22
799.454	272.21
799.634	282.45
799.814	298.83
799.994	247.63
800.174	343.89
800.354	290.64
800.534	255.83
800.714	188.24
800.894	198.48
801.074	210.77
801.254	253.78
801.434	210.77
801.614	235.35
801.794	204.63
801.974	708.43
802.154	239.44
802.334	241.49
802.514	182.1
802.693	251.73
802.873	214.87
803.053	311.12
803.233	141.14
803.413	212.82
803.592	198.48
803.772	208.72
803.952	145.24
804.131	106.32
804.311	302.93
804.491	251.73
804.67	200.53
804.85	216.91
805.03	227.15
805.209	292.69
805.389	241.49
805.568	235.35
805.748	196.43
805.928	157.52
806.107	257.87
806.287	202.58
806.466	190.29
806.646	208.72
806.825	163.67
807.004	259.92
807.184	200.53
807.363	231.25
807.543	178
807.722	192.34
807.901	173.91
808.081	249.68
808.26	141.14
808.439	135
808.619	145.24
808.798	186.19
808.977	165.71
809.156	214.87
809.336	210.77
809.515	264.02
809.694	167.76
809.873	202.58
810.052	223.06
810.231	165.71
810.411	137.04
810.59	182.1
810.769	137.04
810.948	165.71
811.127	153.43
811.306	229.2
811.485	143.19
811.664	204.63
811.843	89.94
812.022	212.82
812.201	139.09
812.38	231.25
812.559	169.81
812.737	165.71
812.916	118.61
813.095	149.33
813.274	104.28
813.453	200.53
813.632	225.11
813.811	190.29
813.989	227.15
814.168	159.57
814.347	87.89
814.526	116.56
814.704	141.14
814.883	227.15
815.062	100.18
815.24	91.99
815.419	241.49
815.598	132.95
815.776	132.95
815.955	186.19
816.133	120.66
816.312	137.04
816.49	118.61
816.669	137.04
816.847	223.06
817.026	42.84
817.204	108.37
817.383	175.95
817.561	153.43
817.74	161.62
817.918	132.95
818.097	135
818.275	98.13
818.453	153.43
818.632	128.85
818.81	48.98
818.988	108.37
819.167	114.52
819.345	114.52
819.523	91.99
819.701	151.38
819.879	108.37
820.058	124.76
820.236	73.56
820.414	81.75
820.592	192.34
820.77	85.84
820.948	128.85
821.127	89.94
821.305	145.24
821.483	151.38
821.661	106.32
821.839	110.42
822.017	73.56
822.195	77.65
822.373	126.8
822.551	46.93
822.729	149.33
822.907	116.56
823.085	112.47
823.262	96.08
823.44	48.98
823.618	118.61
823.796	122.71
823.974	73.56
824.152	196.43
824.329	102.23
824.507	126.8
824.685	116.56
824.863	69.46
825.04	100.18
825.218	145.24
825.396	79.7
825.574	91.99
825.751	120.66
825.929	120.66
826.107	145.24
826.284	94.04
826.462	128.85
826.639	59.22
826.817	96.08
826.994	75.6
827.172	98.13
827.349	159.57
827.527	122.71
827.704	91.99
827.882	83.8
828.059	61.27
828.237	87.89
828.414	104.28
828.591	91.99
828.769	63.32
828.946	61.27
829.124	157.52
829.301	167.76
829.478	36.69
829.655	94.04
829.833	110.42
830.01	112.47
830.187	26.45
830.364	100.18
830.542	102.23
830.719	55.12
830.896	63.32
831.073	61.27
831.25	173.91
831.427	51.03
831.604	79.7
831.782	63.32
831.959	71.51
832.136	108.37
832.313	63.32
832.49	55.12
832.667	67.41
832.844	89.94
833.021	51.03
833.198	89.94
833.374	73.56
833.551	96.08
833.728	118.61
833.905	104.28
834.082	-10.41
834.259	69.46
834.436	104.28
834.612	-18.6
834.789	145.24
834.966	75.6
835.143	114.52
835.319	-8.36
835.496	122.71
835.673	-6.31
835.85	118.61
836.026	63.32
836.203	108.37
836.38	96.08
836.556	-10.41
836.733	77.65
836.909	34.64
837.086	51.03
837.262	24.4
837.439	30.55
837.616	83.8
837.792	30.55
837.968	26.45
838.145	-37.03
838.321	42.84
838.498	14.17
838.674	48.98
838.851	36.69
839.027	71.51
839.203	71.51
839.38	57.17
839.556	75.6
839.732	59.22
839.909	120.66
840.085	85.84
840.261	-22.7
840.437	135
840.614	16.21
840.79	83.8
840.966	34.64
841.142	40.79
841.318	65.36
841.494	137.04
841.671	73.56
841.847	108.37
842.023	28.5
842.199	12.12
842.375	34.64
842.551	18.26
842.727	-8.36
842.903	87.89
843.079	79.7
843.255	73.56
843.431	59.22
843.607	44.88
843.783	22.36
843.959	26.45
844.134	55.12
844.31	100.18
844.486	26.45
844.662	-24.75
844.838	63.32
845.013	44.88
845.189	12.12
845.365	44.88
845.541	55.12
845.716	73.56
845.892	20.31
846.068	16.21
846.244	-65.71
846.419	-8.36
846.595	77.65
846.77	57.17
846.946	106.32
847.122	81.75
847.297	22.36
847.473	112.47
847.648	67.41
847.824	73.56
847.999	16.21
848.175	102.23
848.35	-22.7
848.526	112.47
848.701	32.6
848.876	36.69
849.052	-26.79
849.227	63.32
849.403	18.26
849.578	51.03
849.753	59.22
849.929	24.4
850.104	-30.89
850.279	-6.31
850.454	22.36
850.63	67.41
850.805	63.32
850.98	30.55
851.155	-18.6
851.33	65.36
851.505	71.51
851.681	87.89
851.856	8.02
852.031	-2.22
852.206	46.93
852.381	-0.17
852.556	12.12
852.731	38.74
852.906	94.04
853.081	16.21
853.256	40.79
853.431	-88.23
853.606	-34.99
853.781	-8.36
853.956	-37.03
854.131	44.88
854.305	18.26
854.48	26.45
854.655	67.41
854.83	116.56
855.005	-43.18
855.18	18.26
855.354	12.12
855.529	110.42
855.704	112.47
855.879	122.71
856.053	83.8
856.228	-12.46
856.403	-34.99
856.577	53.08
856.752	38.74
856.926	38.74
857.101	-4.27
857.276	32.6
857.45	-8.36
857.625	24.4
857.799	110.42
857.974	14.17
858.148	-18.6
858.323	114.52
858.497	71.51
858.672	22.36
858.846	44.88
859.02	30.55
859.195	18.26
859.369	32.6
859.543	5.97
859.718	-14.51
859.892	18.26
860.066	8.02
860.241	5.97
860.415	91.99
860.589	44.88
860.763	8.02
860.938	34.64
861.112	14.17
861.286	30.55
861.46	10.07
861.634	38.74
861.808	118.61
861.982	63.32
862.157	-0.17
862.331	30.55
862.505	-47.27
862.679	18.26
862.853	46.93
863.027	53.08
863.201	44.88
863.375	-8.36
863.549	40.79
863.722	42.84
863.896	42.84
864.07	-26.79
864.244	40.79
864.418	12.12
864.592	5.97
864.766	40.79
864.939	-34.99
865.113	-0.17
865.287	22.36
865.461	-12.46
865.634	30.55
865.808	-6.31
865.982	-41.13
866.156	-18.6
866.329	46.93
866.503	12.12
866.676	98.13
866.85	-26.79
867.024	-12.46
867.197	44.88
867.371	44.88
867.544	3.93
867.718	44.88
867.891	69.46
868.065	-6.31
868.238	26.45
868.412	28.5
868.585	79.7
868.759	36.69
868.932	44.88
869.105	3.93
869.279	-22.7
869.452	-20.65
869.625	-12.46
869.799	22.36
869.972	-10.41
870.145	10.07
870.319	5.97
870.492	-30.89
870.665	-61.61
870.838	-75.95
871.011	-4.27
871.185	-43.18
871.358	-12.46
871.531	-28.84
871.704	-8.36
871.877	-20.65
872.05	36.69
872.223	12.12
872.396	-20.65
872.569	42.84
872.742	22.36
872.915	36.69
873.088	-55.47
873.261	-55.47
873.434	26.45
873.607	5.97
873.78	12.12
873.953	16.21
874.126	40.79
874.299	-16.55
874.471	36.69
874.644	-12.46
874.817	71.51
874.99	28.5
875.163	-2.22
875.335	73.56
875.508	5.97
875.681	42.84
875.853	-45.23
876.026	48.98
876.199	46.93
876.371	77.65
876.544	-26.79
876.717	69.46
876.889	48.98
877.062	63.32
877.234	-63.66
877.407	-18.6
877.579	-43.18
877.752	26.45
877.924	24.4
878.097	-2.22
878.269	18.26
878.442	-55.47
878.614	5.97
878.786	-41.13
878.959	34.64
879.131	77.65
879.303	-43.18
879.476	42.84
879.648	-18.6
879.82	61.27
879.993	5.97
880.165	28.5
880.337	-8.36
880.509	3.93
880.681	30.55
880.854	-14.51
881.026	-39.08
881.198	77.65
881.37	36.69
881.542	5.97
881.714	18.26
881.886	1.88
882.058	-20.65
882.23	14.17
882.402	36.69
882.574	63.32
882.746	104.28
882.918	5.97
883.09	8.02
883.262	18.26
883.434	-20.65
883.606	-18.6
883.778	-24.75
883.95	26.45
884.122	-28.84
884.293	34.64
884.465	-14.51
884.637	89.94
884.809	-69.8
884.98	126.8
885.152	26.45
885.324	-43.18
885.496	-18.6
885.667	18.26
885.839	-14.51
886.011	65.36
886.182	10.07
886.354	46.93
886.525	-12.46
886.697	24.4
886.869	1.88
887.04	-43.18
887.212	46.93
887.383	-45.23
887.555	34.64
887.726	-51.37
887.897	14.17
888.069	20.31
888.24	-14.51
888.412	-20.65
888.583	24.4
888.754	40.79
888.926	-30.89
889.097	-4.27
889.268	-67.75
889.44	51.03
889.611	-18.6
889.782	3.93
889.953	3.93
890.125	42.84
890.296	5.97
890.467	38.74
890.638	-4.27
890.809	30.55
890.98	46.93
891.151	1.88
891.323	20.31
891.494	-14.51
891.665	-32.94
891.836	40.79
892.007	-8.36
892.178	42.84
892.349	34.64
892.52	-51.37
892.691	22.36
892.862	-28.84
893.032	-67.75
893.203	34.64
893.374	-34.99
893.545	24.4
893.716	-43.18
893.887	-41.13
894.057	-20.65
894.228	46.93
894.399	-4.27
894.57	22.36
894.74	-26.79
894.911	116.56
895.082	8.02
895.253	-2.22
895.423	-12.46
895.594	44.88
895.764	16.21
895.935	12.12
896.106	63.32
896.276	59.22
896.447	-10.41
896.617	-2.22
896.788	38.74
896.958	12.12
897.129	28.5
897.299	10.07
897.47	59.22
897.64	-18.6
897.81	8.02
897.981	-10.41
898.151	-18.6
898.322	-0.17
898.492	46.93
898.662	46.93
898.832	24.4
899.003	53.08
899.173	14.17
899.343	-82.09
899.513	32.6
