Data from USB4F104151__33__10-22-10-404.txt Node

Date: Wed Mar 12 10:22:10 EDT 2025
User: louis
Spectrometer: USB4F10415
Trigger mode: 4
Integration Time (sec): 3.000000E-2
Scans to average: 1
Electric dark correction enabled: true
Nonlinearity correction enabled: false
Boxcar width: 0
XAxis mode: Wavelengths
Number of Pixels in Spectrum: 3648
>>>>>Begin Spectral Data<<<<<
178.204	-59.05
178.424	-59.05
178.644	-59.05
178.864	-143.02
179.084	-163.5
179.304	-5.8
179.524	37.2
179.744	-73.39
179.964	86.36
180.184	-46.76
180.404	22.87
180.624	-40.62
180.844	39.25
181.064	-28.33
181.283	-18.09
181.503	-9.9
181.723	37.2
181.943	-69.29
182.163	53.59
182.383	2.39
182.602	20.82
182.822	-3.75
183.042	102.74
183.262	37.2
183.482	33.11
183.701	16.73
183.921	69.97
184.141	24.92
184.361	96.6
184.58	65.88
184.8	51.54
185.02	12.63
185.239	67.92
185.459	76.12
185.679	78.16
185.898	16.73
186.118	49.49
186.338	2.39
186.557	22.87
186.777	20.82
186.997	18.77
187.216	-42.67
187.436	69.97
187.655	16.73
187.875	108.88
188.095	29.01
188.314	-7.85
188.534	82.26
188.753	20.82
188.973	104.79
189.192	45.4
189.412	57.68
189.631	37.2
189.851	55.64
190.07	82.26
190.29	90.45
190.509	86.36
190.729	51.54
190.948	51.54
191.168	92.5
191.387	2.39
191.607	-5.8
191.826	100.69
192.045	10.58
192.265	-3.75
192.484	12.63
192.704	102.74
192.923	35.16
193.142	45.4
193.362	-1.71
193.581	55.64
193.8	0.34
194.02	84.31
194.239	20.82
194.458	59.73
194.678	39.25
194.897	29.01
195.116	-24.23
195.335	-13.99
195.555	69.97
195.774	45.4
195.993	59.73
196.212	88.4
196.432	47.44
196.651	2.39
196.87	16.73
197.089	6.49
197.308	-42.67
197.528	80.21
197.747	-54.95
197.966	43.35
198.185	74.07
198.404	117.08
198.623	37.2
198.842	-16.04
199.062	65.88
199.281	24.92
199.5	12.63
199.719	94.55
199.938	4.44
200.157	47.44
200.376	33.11
200.595	69.97
200.814	4.44
201.033	35.16
201.252	-22.19
201.471	2.39
201.69	110.93
201.909	82.26
202.128	65.88
202.347	-1.71
202.566	84.31
202.785	47.44
203.004	10.58
203.223	88.4
203.442	131.41
203.661	-24.23
203.879	104.79
204.098	47.44
204.317	18.77
204.536	26.96
204.755	-3.75
204.974	51.54
205.193	-20.14
205.411	82.26
205.63	51.54
205.849	102.74
206.068	59.73
206.287	-7.85
206.505	-11.95
206.724	90.45
206.943	76.12
207.162	61.78
207.381	53.59
207.599	47.44
207.818	0.34
208.037	12.63
208.255	67.92
208.474	12.63
208.693	22.87
208.911	51.54
209.13	47.44
209.349	12.63
209.567	43.35
209.786	29.01
210.005	57.68
210.223	59.73
210.442	-11.95
210.661	55.64
210.879	29.01
211.098	4.44
211.316	-11.95
211.535	117.08
211.753	43.35
211.972	63.83
212.191	39.25
212.409	84.31
212.628	-11.95
212.846	39.25
213.065	-38.57
213.283	33.11
213.502	-3.75
213.72	69.97
213.938	29.01
214.157	20.82
214.375	4.44
214.594	-36.52
214.812	22.87
215.031	6.49
215.249	53.59
215.467	59.73
215.686	39.25
215.904	139.6
216.122	-3.75
216.341	29.01
216.559	47.44
216.778	57.68
216.996	20.82
217.214	53.59
217.432	24.92
217.651	-24.23
217.869	59.73
218.087	39.25
218.306	57.68
218.524	-50.86
218.742	-1.71
218.96	12.63
219.179	-36.52
219.397	78.16
219.615	82.26
219.833	-28.33
220.051	78.16
220.27	26.96
220.488	29.01
220.706	4.44
220.924	45.4
221.142	31.06
221.36	14.68
221.578	86.36
221.796	86.36
222.015	16.73
222.233	43.35
222.451	84.31
222.669	-50.86
222.887	33.11
223.105	26.96
223.323	53.59
223.541	29.01
223.759	53.59
223.977	24.92
224.195	78.16
224.413	33.11
224.631	86.36
224.849	43.35
225.067	69.97
225.285	31.06
225.503	49.49
225.721	-44.71
225.939	41.3
226.157	2.39
226.375	65.88
226.592	-30.38
226.81	10.58
227.028	53.59
227.246	-24.23
227.464	18.77
227.682	78.16
227.9	94.55
228.117	39.25
228.335	55.64
228.553	16.73
228.771	10.58
228.989	90.45
229.206	20.82
229.424	-22.19
229.642	69.97
229.86	41.3
230.077	53.59
230.295	10.58
230.513	61.78
230.731	86.36
230.948	94.55
231.166	49.49
231.384	31.06
231.601	-44.71
231.819	-5.8
232.037	-3.75
232.254	57.68
232.472	-3.75
232.689	-5.8
232.907	59.73
233.125	45.4
233.342	92.5
233.56	53.59
233.777	61.78
233.995	72.02
234.213	72.02
234.43	10.58
234.648	8.53
234.865	80.21
235.083	67.92
235.3	69.97
235.518	90.45
235.735	18.77
235.953	86.36
236.17	-3.75
236.388	29.01
236.605	-5.8
236.822	98.64
237.04	-36.52
237.257	33.11
237.475	20.82
237.692	39.25
237.909	43.35
238.127	61.78
238.344	2.39
238.562	24.92
238.779	16.73
238.996	55.64
239.214	35.16
239.431	2.39
239.648	26.96
239.865	51.54
240.083	90.45
240.3	4.44
240.517	0.34
240.735	14.68
240.952	88.4
241.169	59.73
241.386	29.01
241.603	61.78
241.821	65.88
242.038	80.21
242.255	119.12
242.472	-32.43
242.689	47.44
242.907	86.36
243.124	26.96
243.341	12.63
243.558	47.44
243.775	2.39
243.992	-9.9
244.209	72.02
244.426	76.12
244.643	69.97
244.86	10.58
245.078	74.07
245.295	43.35
245.512	37.2
245.729	63.83
245.946	61.78
246.163	37.2
246.38	106.84
246.597	8.53
246.814	61.78
247.031	110.93
247.248	33.11
247.464	37.2
247.681	57.68
247.898	63.83
248.115	39.25
248.332	33.11
248.549	65.88
248.766	92.5
248.983	78.16
249.2	16.73
249.417	37.2
249.633	43.35
249.85	61.78
250.067	67.92
250.284	26.96
250.501	8.53
250.717	18.77
250.934	24.92
251.151	53.59
251.368	-3.75
251.585	22.87
251.801	98.64
252.018	80.21
252.235	90.45
252.451	29.01
252.668	26.96
252.885	0.34
253.102	-5.8
253.318	-16.04
253.535	24.92
253.752	35.16
253.968	16.73
254.185	74.07
254.401	76.12
254.618	12.63
254.835	31.06
255.051	121.17
255.268	-63.15
255.484	53.59
255.701	57.68
255.917	29.01
256.134	20.82
256.351	47.44
256.567	16.73
256.784	29.01
257	43.35
257.217	65.88
257.433	90.45
257.65	67.92
257.866	74.07
258.082	31.06
258.299	49.49
258.515	24.92
258.732	59.73
258.948	63.83
259.165	12.63
259.381	55.64
259.597	67.92
259.814	20.82
260.03	41.3
260.246	37.2
260.463	98.64
260.679	72.02
260.895	4.44
261.112	43.35
261.328	39.25
261.544	18.77
261.761	37.2
261.977	84.31
262.193	37.2
262.409	43.35
262.626	-30.38
262.842	47.44
263.058	53.59
263.274	20.82
263.49	67.92
263.707	96.6
263.923	69.97
264.139	69.97
264.355	18.77
264.571	59.73
264.787	20.82
265.004	59.73
265.22	6.49
265.436	-3.75
265.652	2.39
265.868	82.26
266.084	51.54
266.3	22.87
266.516	18.77
266.732	24.92
266.948	29.01
267.164	49.49
267.38	0.34
267.596	37.2
267.812	33.11
268.028	72.02
268.244	24.92
268.46	29.01
268.676	53.59
268.892	-22.19
269.108	35.16
269.324	-20.14
269.54	55.64
269.756	65.88
269.972	69.97
270.188	2.39
270.403	41.3
270.619	-7.85
270.835	51.54
271.051	57.68
271.267	82.26
271.483	22.87
271.698	35.16
271.914	20.82
272.13	37.2
272.346	14.68
272.562	45.4
272.777	16.73
272.993	8.53
273.209	110.93
273.425	6.49
273.64	29.01
273.856	78.16
274.072	-24.23
274.287	-16.04
274.503	-18.09
274.719	47.44
274.934	35.16
275.15	6.49
275.366	22.87
275.581	61.78
275.797	61.78
276.012	-22.19
276.228	35.16
276.444	12.63
276.659	78.16
276.875	-57
277.09	2.39
277.306	35.16
277.521	43.35
277.737	12.63
277.952	86.36
278.168	117.08
278.383	96.6
278.599	78.16
278.814	106.84
279.03	41.3
279.245	94.55
279.461	45.4
279.676	86.36
279.892	-1.71
280.107	69.97
280.322	4.44
280.538	37.2
280.753	-20.14
280.969	-22.19
281.184	110.93
281.399	82.26
281.615	51.54
281.83	-24.23
282.045	-7.85
282.26	88.4
282.476	45.4
282.691	12.63
282.906	4.44
283.122	110.93
283.337	31.06
283.552	-5.8
283.767	55.64
283.983	84.31
284.198	-13.99
284.413	115.03
284.628	33.11
284.843	69.97
285.058	-20.14
285.274	10.58
285.489	92.5
285.704	100.69
285.919	26.96
286.134	45.4
286.349	6.49
286.564	63.83
286.779	137.56
286.995	29.01
287.21	16.73
287.425	37.2
287.64	10.58
287.855	22.87
288.07	-3.75
288.285	-38.57
288.5	108.88
288.715	22.87
288.93	31.06
289.145	4.44
289.36	80.21
289.575	22.87
289.79	22.87
290.004	51.54
290.219	82.26
290.434	-44.71
290.649	-67.24
290.864	-13.99
291.079	26.96
291.294	76.12
291.509	82.26
291.724	-9.9
291.938	49.49
292.153	6.49
292.368	45.4
292.583	86.36
292.798	35.16
293.012	37.2
293.227	53.59
293.442	20.82
293.657	39.25
293.871	86.36
294.086	61.78
294.301	51.54
294.516	-26.28
294.73	37.2
294.945	-26.28
295.16	123.22
295.374	84.31
295.589	37.2
295.804	-5.8
296.018	20.82
296.233	88.4
296.447	22.87
296.662	-38.57
296.877	-16.04
297.091	59.73
297.306	26.96
297.52	-18.09
297.735	35.16
297.949	26.96
298.164	61.78
298.378	47.44
298.593	78.16
298.807	86.36
299.022	41.3
299.236	29.01
299.451	47.44
299.665	57.68
299.88	43.35
300.094	31.06
300.309	82.26
300.523	98.64
300.737	14.68
300.952	110.93
301.166	12.63
301.381	33.11
301.595	-11.95
301.809	37.2
302.024	29.01
302.238	8.53
302.452	74.07
302.667	6.49
302.881	94.55
303.095	59.73
303.309	37.2
303.524	65.88
303.738	108.88
303.952	18.77
304.166	59.73
304.381	4.44
304.595	39.25
304.809	41.3
305.023	-11.95
305.237	10.58
305.452	49.49
305.666	51.54
305.88	45.4
306.094	-7.85
306.308	57.68
306.522	53.59
306.736	18.77
306.95	37.2
307.164	57.68
307.379	-1.71
307.593	106.84
307.807	90.45
308.021	125.27
308.235	51.54
308.449	-26.28
308.663	90.45
308.877	133.46
309.091	141.65
309.305	59.73
309.519	-73.39
309.733	102.74
309.947	39.25
310.161	41.3
310.374	104.79
310.588	78.16
310.802	35.16
311.016	-28.33
311.23	94.55
311.444	-5.8
311.658	39.25
311.872	41.3
312.085	39.25
312.299	18.77
312.513	51.54
312.727	72.02
312.941	-22.19
313.154	84.31
313.368	65.88
313.582	33.11
313.796	12.63
314.009	76.12
314.223	80.21
314.437	100.69
314.651	67.92
314.864	59.73
315.078	59.73
315.292	22.87
315.505	-32.43
315.719	2.39
315.933	131.41
316.146	33.11
316.36	-20.14
316.573	59.73
316.787	31.06
317.001	69.97
317.214	41.3
317.428	67.92
317.641	-5.8
317.855	94.55
318.068	4.44
318.282	37.2
318.495	43.35
318.709	45.4
318.922	69.97
319.136	69.97
319.349	69.97
319.563	137.56
319.776	43.35
319.99	53.59
320.203	43.35
320.417	45.4
320.63	108.88
320.843	43.35
321.057	143.7
321.27	102.74
321.483	80.21
321.697	135.51
321.91	69.97
322.124	41.3
322.337	53.59
322.55	96.6
322.763	86.36
322.977	121.17
323.19	-1.71
323.403	45.4
323.617	-11.95
323.83	67.92
324.043	0.34
324.256	137.56
324.469	24.92
324.683	61.78
324.896	80.21
325.109	-16.04
325.322	90.45
325.535	84.31
325.748	41.3
325.962	-11.95
326.175	117.08
326.388	139.6
326.601	106.84
326.814	47.44
327.027	20.82
327.24	63.83
327.453	2.39
327.666	104.79
327.879	-38.57
328.092	82.26
328.305	-5.8
328.518	65.88
328.731	-1.71
328.944	65.88
329.157	29.01
329.37	12.63
329.583	82.26
329.796	98.64
330.009	33.11
330.222	80.21
330.435	43.35
330.648	47.44
330.861	55.64
331.073	-73.39
331.286	69.97
331.499	-5.8
331.712	4.44
331.925	145.75
332.138	51.54
332.35	162.13
332.563	63.83
332.776	37.2
332.989	2.39
333.202	-16.04
333.414	76.12
333.627	72.02
333.84	-5.8
334.053	65.88
334.265	12.63
334.478	20.82
334.691	69.97
334.903	16.73
335.116	57.68
335.329	160.08
335.541	59.73
335.754	115.03
335.966	69.97
336.179	102.74
336.392	53.59
336.604	78.16
336.817	53.59
337.029	-65.19
337.242	37.2
337.454	108.88
337.667	49.49
337.88	33.11
338.092	55.64
338.305	112.98
338.517	51.54
338.729	53.59
338.942	76.12
339.154	92.5
339.367	67.92
339.579	76.12
339.792	45.4
340.004	6.49
340.217	160.08
340.429	90.45
340.641	12.63
340.854	43.35
341.066	16.73
341.278	86.36
341.491	69.97
341.703	90.45
341.915	0.34
342.128	72.02
342.34	61.78
342.552	84.31
342.764	39.25
342.977	88.4
343.189	151.89
343.401	115.03
343.613	45.4
343.826	55.64
344.038	18.77
344.25	69.97
344.462	16.73
344.674	2.39
344.886	110.93
345.099	-20.14
345.311	37.2
345.523	57.68
345.735	12.63
345.947	137.56
346.159	37.2
346.371	49.49
346.583	65.88
346.795	129.36
347.007	65.88
347.219	139.6
347.431	43.35
347.643	98.64
347.855	123.22
348.067	67.92
348.279	76.12
348.491	37.2
348.703	33.11
348.915	59.73
349.127	96.6
349.339	69.97
349.551	43.35
349.763	47.44
349.975	10.58
350.187	53.59
350.399	100.69
350.61	16.73
350.822	33.11
351.034	74.07
351.246	72.02
351.458	37.2
351.669	35.16
351.881	147.8
352.093	131.41
352.305	86.36
352.517	29.01
352.728	106.84
352.94	53.59
353.152	82.26
353.363	102.74
353.575	78.16
353.787	69.97
353.999	49.49
354.21	63.83
354.422	117.08
354.633	61.78
354.845	94.55
355.057	82.26
355.268	94.55
355.48	168.27
355.692	39.25
355.903	-3.75
356.115	88.4
356.326	90.45
356.538	78.16
356.749	6.49
356.961	78.16
357.172	51.54
357.384	47.44
357.595	96.6
357.807	33.11
358.018	78.16
358.23	45.4
358.441	143.7
358.653	104.79
358.864	47.44
359.075	45.4
359.287	76.12
359.498	-30.38
359.709	-9.9
359.921	69.97
360.132	86.36
360.344	24.92
360.555	84.31
360.766	69.97
360.977	45.4
361.189	127.32
361.4	90.45
361.611	78.16
361.823	37.2
362.034	94.55
362.245	35.16
362.456	0.34
362.667	92.5
362.879	63.83
363.09	41.3
363.301	135.51
363.512	47.44
363.723	49.49
363.935	96.6
364.146	80.21
364.357	135.51
364.568	43.35
364.779	96.6
364.99	137.56
365.201	141.65
365.412	53.59
365.623	-7.85
365.834	65.88
366.045	43.35
366.256	37.2
366.467	57.68
366.678	90.45
366.889	-24.23
367.1	53.59
367.311	69.97
367.522	37.2
367.733	90.45
367.944	-16.04
368.155	78.16
368.366	82.26
368.577	86.36
368.788	74.07
368.999	63.83
369.209	61.78
369.42	119.12
369.631	86.36
369.842	141.65
370.053	2.39
370.264	131.41
370.474	125.27
370.685	84.31
370.896	92.5
371.107	115.03
371.317	31.06
371.528	-16.04
371.739	6.49
371.95	100.69
372.16	22.87
372.371	67.92
372.582	22.87
372.792	102.74
373.003	106.84
373.214	74.07
373.424	86.36
373.635	29.01
373.846	110.93
374.056	43.35
374.267	90.45
374.477	57.68
374.688	12.63
374.898	67.92
375.109	112.98
375.319	6.49
375.53	69.97
375.74	29.01
375.951	10.58
376.161	67.92
376.372	133.46
376.582	135.51
376.793	80.21
377.003	29.01
377.214	31.06
377.424	108.88
377.635	110.93
377.845	-1.71
378.055	88.4
378.266	41.3
378.476	86.36
378.686	141.65
378.897	59.73
379.107	137.56
379.317	72.02
379.528	55.64
379.738	72.02
379.948	4.44
380.158	2.39
380.369	8.53
380.579	123.22
380.789	20.82
380.999	112.98
381.21	53.59
381.42	14.68
381.63	170.32
381.84	76.12
382.05	12.63
382.261	129.36
382.471	63.83
382.681	-28.33
382.891	90.45
383.101	108.88
383.311	96.6
383.521	78.16
383.731	160.08
383.941	92.5
384.151	102.74
384.361	12.63
384.571	88.4
384.781	65.88
384.991	131.41
385.201	143.7
385.411	53.59
385.621	102.74
385.831	147.8
386.041	127.32
386.251	53.59
386.461	90.45
386.671	119.12
386.881	92.5
387.091	20.82
387.301	127.32
387.511	78.16
387.72	86.36
387.93	80.21
388.14	57.68
388.35	100.69
388.56	119.12
388.769	92.5
388.979	86.36
389.189	29.01
389.399	158.03
389.609	69.97
389.818	139.6
390.028	96.6
390.238	61.78
390.447	41.3
390.657	119.12
390.867	102.74
391.076	102.74
391.286	90.45
391.496	57.68
391.705	110.93
391.915	141.65
392.125	80.21
392.334	131.41
392.544	115.03
392.753	86.36
392.963	84.31
393.172	131.41
393.382	-3.75
393.591	155.99
393.801	65.88
394.01	217.43
394.22	86.36
394.429	102.74
394.639	80.21
394.848	203.09
395.058	139.6
395.267	98.64
395.477	76.12
395.686	170.32
395.895	201.04
396.105	196.95
396.314	94.55
396.524	110.93
396.733	86.36
396.942	123.22
397.152	176.47
397.361	49.49
397.57	129.36
397.78	133.46
397.989	119.12
398.198	172.37
398.407	168.27
398.617	121.17
398.826	135.51
399.035	106.84
399.244	160.08
399.453	149.84
399.663	108.88
399.872	100.69
400.081	176.47
400.29	108.88
400.499	90.45
400.708	117.08
400.917	143.7
401.127	172.37
401.336	182.61
401.545	110.93
401.754	221.52
401.963	121.17
402.172	84.31
402.381	149.84
402.59	119.12
402.799	192.85
403.008	196.95
403.217	186.71
403.426	174.42
403.635	201.04
403.844	225.62
404.053	158.03
404.262	188.75
404.471	231.76
404.68	207.19
404.888	201.04
405.097	192.85
405.306	217.43
405.515	217.43
405.724	127.32
405.933	221.52
406.142	239.95
406.35	217.43
406.559	207.19
406.768	278.87
406.977	276.82
407.185	293.2
407.394	246.1
407.603	252.24
407.812	356.69
408.02	301.39
408.229	274.77
408.438	330.06
408.646	307.54
408.855	385.36
409.064	397.65
409.272	356.69
409.481	422.22
409.69	307.54
409.898	414.03
410.107	373.07
410.315	432.46
410.524	358.74
410.733	442.7
410.941	504.14
411.15	467.28
411.358	534.86
411.567	543.05
411.775	498
411.984	516.43
412.192	483.66
412.401	608.59
412.609	633.16
412.818	596.3
413.026	635.21
413.234	686.41
413.443	657.74
413.651	678.22
413.86	717.13
414.068	792.91
414.276	725.32
414.485	778.57
414.693	872.78
414.901	1024.33
415.11	913.74
415.318	887.11
415.526	919.88
415.734	1028.42
415.943	1007.94
416.151	1057.09
416.359	1063.24
416.567	1114.44
416.776	1208.64
416.984	1083.72
417.192	1306.95
417.4	1245.51
417.608	1413.44
417.817	1380.67
418.025	1431.87
418.233	1470.78
418.441	1421.63
418.649	1544.51
418.857	1681.72
419.065	1562.94
419.273	1638.72
419.481	1644.86
419.689	1820.99
419.897	1931.58
420.105	1919.29
420.313	2033.97
420.521	2036.02
420.729	2150.71
420.937	2265.39
421.145	2203.96
421.353	2484.53
421.561	2400.56
421.769	2566.45
421.977	2556.21
422.185	2621.74
422.393	2797.87
422.601	2935.08
422.809	2998.57
423.017	2978.09
423.224	2969.9
423.432	3189.03
423.64	3150.12
423.848	3512.61
424.056	3414.31
424.263	3576.09
424.471	3549.47
424.679	3680.54
424.887	3879.19
425.094	4071.7
425.302	4172.05
425.51	4272.4
425.718	4278.55
425.925	4440.34
426.133	4495.63
426.341	4831.5
426.548	5056.78
426.756	5087.5
426.964	5079.3
427.171	5284.1
427.379	5560.58
427.586	5675.26
427.794	5822.72
428.001	6119.67
428.209	6367.48
428.417	6289.65
428.624	6740.21
428.832	6725.87
429.039	6406.39
429.247	6764.78
429.454	7090.41
429.662	7573.73
429.869	7106.79
430.076	7743.71
430.284	7778.53
430.491	7829.73
430.699	8376.53
430.906	8151.26
431.114	8417.49
431.321	8485.08
431.528	8861.9
431.736	9263.3
431.943	9754.82
432.15	9566.4
432.358	9613.51
432.565	10201.27
432.772	10334.39
432.979	10733.75
433.187	10780.85
433.394	10983.6
433.601	11681.96
433.808	11714.72
434.016	11790.5
434.223	12054.69
434.43	12837.01
434.637	12492.95
434.844	13543.56
435.052	13904
435.259	13613.19
435.466	13793.41
435.673	13662.34
435.88	14434.43
436.087	15157.36
436.294	15255.66
436.501	14743.67
436.708	15206.51
436.915	15722.6
437.122	16398.43
437.329	16271.45
437.537	16963.67
437.743	17231.95
437.95	17031.25
438.157	18053.19
438.364	18659.38
438.571	18382.91
438.778	18446.4
438.985	20262.94
439.192	19654.7
439.399	20129.83
439.606	19677.23
439.813	21051.41
440.02	22280.19
440.227	22071.3
440.433	21432.33
440.64	22337.54
440.847	22001.67
441.054	22470.65
441.261	23937
441.467	23674.86
441.674	24399.84
441.881	25192.4
442.088	25190.36
442.294	24788.96
442.501	25565.14
442.708	26038.22
442.914	27011
443.121	28420
443.328	27473.84
443.534	29585.3
443.741	28694.43
443.948	28051.37
444.154	30093.19
444.361	29708.18
444.568	30044.04
444.774	30269.32
444.981	30668.67
445.187	31342.46
445.394	32556.9
445.6	32163.69
445.807	35567.41
446.013	33498.97
446.22	34502.47
446.426	35616.57
446.633	35794.74
446.839	37185.31
447.046	35706.68
447.252	37334.81
447.459	37820.18
447.665	37265.18
447.871	38971.14
448.078	40425.2
448.284	39034.63
448.491	39712.5
448.697	41010.92
448.903	42049.24
449.11	42092.24
449.316	40978.15
449.522	42065.62
449.728	42587.85
449.935	43239.11
450.141	43024.07
450.347	44484.27
450.553	42841.8
450.76	43255.49
450.966	44766.89
451.172	44177.08
451.378	44787.37
451.584	44203.7
451.791	45295.27
451.997	45078.18
452.203	45983.38
452.409	45463.2
452.615	45807.26
452.821	43884.22
453.027	43912.89
453.233	45227.68
453.44	43802.3
453.646	44240.56
453.852	44250.8
454.058	45287.07
454.264	43734.71
454.47	44580.53
454.676	43464.38
454.882	45088.42
455.088	41098.98
455.294	41299.68
455.5	41811.67
455.705	42677.96
455.911	40875.75
456.117	39941.88
456.323	39517.95
456.529	37181.21
456.735	38500.11
456.941	37744.41
457.147	37400.35
457.352	36423.47
457.558	35710.77
457.764	35860.27
457.97	35057.47
458.176	34174.8
458.381	34355.02
458.587	32661.35
458.793	32556.9
458.999	30953.34
459.204	33382.23
459.41	32151.4
459.616	30017.42
459.821	30341
460.027	30463.88
460.233	29523.86
460.438	27901.87
460.644	28825.5
460.85	27316.15
461.055	26879.93
461.261	26619.84
461.466	24926.17
461.672	23980.01
461.878	25968.59
462.083	24123.37
462.289	23748.59
462.494	23263.22
462.7	22538.24
462.905	21741.58
463.111	22458.37
463.316	22587.39
463.522	22306.82
463.727	22261.76
463.932	22372.35
464.138	21882.89
464.343	21999.62
464.549	21565.45
464.754	22028.29
464.959	22005.77
465.165	21673.99
465.37	20877.33
465.575	20428.83
465.781	21139.47
465.986	21235.73
466.191	20539.42
466.397	19828.77
466.602	19322.93
466.807	19730.47
467.012	19879.97
467.218	19869.73
467.423	19542.06
467.628	19685.42
467.833	20197.41
468.038	19814.44
468.244	19101.75
468.449	20006.95
468.654	19531.82
468.859	19058.74
469.064	18831.41
469.269	18458.68
469.474	18442.3
469.679	18878.52
469.885	17907.78
470.09	18470.97
470.295	18548.79
470.5	17825.86
470.705	17827.91
470.91	17676.36
471.115	17580.11
471.32	17678.41
471.525	17526.86
471.73	17188.94
471.935	17174.61
472.139	16466.01
472.344	16767.06
472.549	16597.08
472.754	16271.45
472.959	16107.62
473.164	15745.13
473.369	15542.38
473.574	16115.81
473.778	15982.69
473.983	15972.45
474.188	15665.25
474.393	15155.31
474.598	15224.94
474.802	14680.18
475.007	14760.05
475.212	14848.11
475.417	14221.44
475.621	14291.07
475.826	14463.1
476.031	14080.13
476.235	13705.35
476.44	14045.31
476.645	13944.96
476.849	13764.74
477.054	13578.37
477.259	13559.94
477.463	13267.08
477.668	13283.47
477.872	13117.58
478.077	13115.53
478.282	12851.35
478.486	12646.55
478.691	12574.87
478.895	12363.93
479.1	12636.31
479.304	12552.34
479.509	12126.36
479.713	12243.1
479.918	12202.14
480.122	12064.93
480.326	12296.35
480.531	12050.59
480.735	12116.12
480.94	11944.1
481.144	12458.14
481.348	11638.95
481.553	11735.2
481.757	11657.38
481.961	11815.07
482.166	11954.33
482.37	11802.79
482.574	11733.15
482.778	11692.19
482.983	11833.5
483.187	11749.54
483.391	11774.11
483.595	11563.17
483.8	11581.6
484.004	11567.27
484.208	11813.03
484.412	11808.93
484.616	11688.1
484.821	11794.59
485.025	11522.21
485.229	11894.94
485.433	11649.19
485.637	11921.57
485.841	11735.2
486.045	11542.69
486.249	11575.46
486.453	11749.54
486.657	11833.5
486.861	11548.84
487.065	11501.73
487.269	11741.35
487.473	11538.6
487.677	12134.56
487.881	11630.76
488.085	11825.31
488.289	11878.56
488.493	11841.7
488.697	11892.9
488.901	11874.46
489.105	11864.22
489.309	11915.42
489.512	11858.08
489.716	11989.15
489.92	11954.33
490.124	11946.14
490.328	12130.46
490.531	11882.66
490.735	12269.72
490.939	12089.5
491.143	12216.47
491.346	12058.78
491.55	12431.51
491.754	12214.43
491.958	12239
492.161	12374.17
492.365	12247.19
492.569	12411.03
492.772	12470.42
492.976	12703.89
493.18	12810.39
493.383	12750.99
493.587	12697.75
493.79	13133.96
493.994	13023.37
494.197	12976.27
494.401	13273.23
494.605	13105.29
494.808	13428.87
495.012	13242.51
495.215	13613.19
495.419	13691.01
495.622	13637.77
495.825	13920.38
496.029	14051.45
496.232	14344.31
496.436	14065.79
496.639	14272.64
496.843	14393.47
497.046	14684.28
497.249	14680.18
497.453	14809.2
497.656	15216.75
497.859	15091.82
498.063	15257.71
498.266	15609.96
498.469	15462.51
498.673	15450.22
498.876	15970.4
499.079	16175.2
499.282	15943.78
499.485	16519.26
499.689	16666.71
499.892	16965.71
500.095	16625.75
500.298	17213.52
500.501	17088.59
500.705	17918.02
500.908	17817.67
501.111	17836.1
501.314	18057.28
501.517	18255.93
501.72	18569.27
501.923	18630.71
502.126	19036.21
502.329	19367.98
502.532	19449.9
502.735	19456.04
502.938	19834.92
503.141	19900.45
503.344	20287.52
503.547	20379.68
503.75	20389.92
503.953	20856.86
504.156	21084.18
504.359	21262.35
504.562	21276.69
504.765	21807.11
504.968	22200.32
505.17	22317.06
505.373	22398.98
505.576	22790.14
505.779	23001.08
505.982	23310.32
506.185	23576.56
506.387	23695.34
506.59	23812.07
506.793	24553.44
506.996	24444.9
507.198	25307.09
507.401	24666.08
507.604	25327.57
507.807	25888.71
508.009	25638.86
508.212	25839.56
508.415	26617.79
508.617	26703.81
508.82	27109.3
509.022	27054.01
509.225	27541.43
509.428	28084.14
509.63	28180.39
509.833	27916.2
510.035	28968.86
510.238	28555.17
510.44	29257.62
510.643	29794.19
510.845	29953.93
511.048	29536.15
511.25	30132.11
511.453	30304.13
511.655	31491.96
511.858	30859.13
512.06	31311.74
512.262	31661.94
512.465	31774.58
512.667	32311.14
512.87	32794.46
513.072	32483.17
513.274	33257.31
513.477	33501.01
513.679	33963.86
513.881	34207.56
514.084	34494.28
514.286	34701.12
514.488	34867.01
514.69	35694.39
514.893	35649.33
515.095	35772.21
515.297	36267.82
515.499	36241.2
515.701	37113.63
515.904	37017.38
516.106	37846.8
516.308	38000.4
516.51	37953.3
516.712	38631.18
516.914	39180.03
517.116	39681.78
517.318	39649.02
517.52	39741.17
517.722	39935.73
517.925	40853.22
518.127	41199.33
518.329	41451.23
518.531	41275.1
518.733	42055.38
518.935	42450.64
519.136	42063.57
519.338	43169.47
519.54	43245.25
519.742	43589.31
519.944	43949.75
520.146	44811.95
520.348	44740.27
520.55	44940.97
520.752	45207.2
520.954	45999.77
521.155	45534.88
521.357	46218.9
521.559	46259.86
521.761	46956.17
521.963	47134.34
522.164	47163.01
522.366	47801.98
522.568	48236.15
522.77	48625.26
522.971	48780.91
523.173	48666.22
523.375	49092.2
523.576	49124.97
523.778	49215.08
523.98	50337.37
524.181	50091.61
524.383	50091.61
524.584	50380.37
524.786	50667.09
524.988	50701.9
525.189	51615.3
525.391	51678.78
525.592	51854.91
525.794	52364.85
525.995	52241.98
526.197	52387.38
526.398	52604.47
526.6	52950.57
526.801	53311.02
527.003	52999.72
527.204	53515.81
527.406	54007.33
527.607	53728.8
527.808	54191.64
528.01	53245.48
528.211	54154.78
528.412	55150.09
528.614	54531.61
528.815	54771.22
529.016	55305.74
529.218	54363.67
529.419	55080.46
529.62	55221.77
529.822	54998.54
530.023	55178.76
530.224	55346.7
530.425	55490.05
530.626	55113.23
530.828	55422.47
531.029	56153.6
531.23	55535.11
531.431	55735.81
531.632	56260.09
531.833	56217.08
532.035	56163.84
532.236	56124.92
532.437	56481.27
532.638	56299
532.839	56268.28
533.04	56677.88
533.241	56178.17
533.442	56823.28
533.643	56694.26
533.844	56880.63
534.045	56854
534.246	56129.02
534.447	57300.46
534.648	56628.73
534.849	56751.6
535.05	56581.62
535.251	56786.42
535.451	56305.15
535.652	56899.06
535.853	56804.85
536.054	56837.62
536.255	57421.29
536.456	56348.15
536.657	57492.97
536.857	56792.56
537.058	56567.29
537.259	57415.15
537.46	57374.19
537.66	56454.65
537.861	56989.17
538.062	56516.09
538.263	56860.15
538.463	56751.6
538.664	56645.11
538.865	56632.82
539.065	57198.06
539.266	56673.78
539.466	57161.2
539.667	56778.23
539.868	57163.25
540.068	56493.56
540.269	56550.9
540.469	57021.94
540.67	56899.06
540.87	56690.16
541.071	57206.25
541.271	57265.64
541.472	56929.78
541.672	56636.92
541.873	56800.75
542.073	56729.08
542.274	57333.23
542.474	57050.61
542.675	56333.82
542.875	57009.65
543.075	56509.94
543.276	56303.1
543.476	57282.03
543.676	56784.37
543.877	57200.11
544.077	57161.2
544.277	56710.64
544.478	56462.84
544.678	57169.39
544.878	56319.48
545.078	56614.39
545.279	56235.52
545.479	56174.08
545.679	56794.61
545.879	56733.17
546.079	56378.87
546.28	56413.69
546.48	56407.54
546.68	56514.04
546.88	56468.98
547.08	56993.26
547.28	56253.95
547.48	56237.56
547.68	56442.36
547.88	56387.06
548.081	56188.41
548.281	56534.52
548.481	56073.73
548.681	57030.13
548.881	56210.94
549.081	56255.99
549.28	56448.5
549.48	56497.66
549.68	55823.87
549.88	56751.6
550.08	55887.36
550.28	56305.15
550.48	56288.76
550.68	56583.67
550.88	55821.83
551.08	55963.14
551.279	56063.49
551.479	56382.97
551.679	56129.02
551.879	56049.15
552.079	55963.14
552.278	56188.41
552.478	55891.46
552.678	56047.1
552.878	56253.95
553.077	55973.38
553.277	55629.32
553.477	56808.95
553.676	55969.28
553.876	55842.31
554.076	55574.02
554.275	55793.15
554.475	55178.76
554.674	56264.19
554.874	55717.38
555.074	55420.42
555.273	55885.31
555.473	55823.87
555.672	55787.01
555.872	55528.97
556.071	56165.88
556.271	55825.92
556.47	55295.5
556.67	55150.09
556.869	54953.49
557.068	55698.95
557.268	55113.23
557.467	55363.08
557.667	55074.32
557.866	55346.7
558.065	54867.47
558.265	55125.52
558.464	54814.22
558.663	55238.15
558.863	54666.77
559.062	55311.88
559.261	54687.25
559.461	55305.74
559.66	54345.24
559.859	55203.34
560.058	54335
560.258	54531.61
560.457	53966.37
560.656	54560.28
560.855	54220.31
561.054	54441.49
561.253	53507.62
561.453	54087.2
561.652	54097.44
561.851	54300.18
562.05	53886.5
562.249	53827.1
562.448	54060.57
562.647	54115.87
562.846	53212.71
563.045	53888.54
563.244	53429.8
563.443	53462.57
563.642	52878.89
563.841	53298.73
564.04	52997.68
564.239	53515.81
564.438	52952.62
564.637	53016.11
564.836	52844.08
565.035	52299.32
565.234	53098.03
565.432	52942.38
565.631	52297.27
565.83	52655.67
566.029	52078.14
566.228	51940.92
566.427	52106.81
566.625	51473.99
566.824	51314.25
567.023	52139.58
567.222	51529.28
567.42	51877.44
567.619	51912.25
567.818	51689.02
568.016	51254.86
568.215	51787.33
568.414	51271.24
568.612	51764.8
568.811	51328.58
569.01	51166.79
569.208	50361.94
569.407	51359.3
569.605	50708.05
569.804	50980.43
570.002	50056.79
570.201	50736.72
570.4	50349.65
570.598	49657.44
570.797	50146.9
570.995	50185.82
571.193	49649.25
571.392	50077.27
571.59	49477.22
571.789	49862.24
571.987	49421.92
572.186	49223.27
572.384	49536.61
572.582	49624.67
572.781	49632.86
572.979	48313.97
573.177	48862.83
573.376	48989.8
573.574	48586.35
573.772	48993.9
573.971	48467.57
574.169	47894.14
574.367	47801.98
574.565	48361.08
574.763	48086.65
574.962	48168.57
575.16	47580.8
575.358	47871.61
575.556	47279.75
575.754	48060.02
575.952	47404.67
576.151	47527.55
576.349	47072.9
576.547	46706.32
576.745	47097.48
576.943	46954.12
577.141	46761.61
577.339	47048.33
577.537	46366.35
577.735	46620.3
577.933	46368.4
578.131	46372.5
578.329	45952.66
578.527	45895.32
578.725	45923.99
578.923	46161.56
579.121	45584.03
579.319	45749.92
579.516	45782.68
579.714	45481.63
579.912	45508.25
580.11	45242.02
580.308	45147.81
580.506	45233.83
580.704	44558
580.901	45061.8
581.099	45090.47
581.297	44365.49
581.495	44828.33
581.692	44670.64
581.89	44058.29
582.088	44613.29
582.285	44220.08
582.483	44097.2
582.681	43978.42
582.878	44269.23
583.076	43501.25
583.274	43826.87
583.471	43101.89
583.669	43558.59
583.866	43267.78
584.064	43513.53
584.262	42718.92
584.459	43118.28
584.657	42868.42
584.854	43423.42
585.052	42112.72
585.249	42643.15
585.447	42571.47
585.644	42229.46
585.841	42395.34
586.039	42534.6
586.236	42000.08
586.434	41717.46
586.631	42026.71
586.828	42217.17
587.026	41543.39
587.223	41479.9
587.42	41211.62
587.618	41572.06
587.815	40683.24
588.012	40978.15
588.21	40842.98
588.407	41592.54
588.604	41199.33
588.801	40505.07
588.999	40857.32
589.196	40408.81
589.393	40314.61
589.59	40486.64
589.787	40322.8
589.984	40122.1
590.182	39495.42
590.379	39986.93
590.576	39452.41
590.773	39945.97
590.97	39657.21
591.167	39565.05
591.364	39005.95
591.561	39325.44
591.758	38844.16
591.955	39190.27
592.152	39358.2
592.349	38448.91
592.546	38674.18
592.743	38631.18
592.94	37992.21
593.137	38274.83
593.334	38354.7
593.531	37793.56
593.727	38242.06
593.924	37715.73
594.121	37816.08
594.318	38029.07
594.515	37273.37
594.712	37803.8
594.908	37402.39
595.105	37285.66
595.302	37551.9
595.499	37324.57
595.696	37320.48
595.892	36734.76
596.089	36857.63
596.286	36966.18
596.482	36394.79
596.679	36921.12
596.876	36583.21
597.072	36452.14
597.269	36491.05
597.466	35796.79
597.662	36058.93
597.859	35931.95
598.055	36024.11
598.252	35628.85
598.448	35608.37
598.645	35454.78
598.841	35348.28
599.038	35417.91
599.234	35628.85
599.431	35321.66
599.627	35198.78
599.824	35561.27
600.02	34549.57
600.217	34981.7
600.413	35190.59
600.609	34531.14
600.806	34295.63
601.002	34651.97
601.198	34318.15
601.395	34049.87
601.591	34092.88
601.787	33877.84
601.984	33490.77
602.18	34119.5
602.376	33754.96
602.572	33718.1
602.769	33638.23
602.965	33187.67
603.161	33867.6
603.357	33275.74
603.553	33288.03
603.75	32958.3
603.946	32823.14
604.142	33290.07
604.338	32571.24
604.534	33214.3
604.73	32513.89
604.926	32511.85
605.122	32839.52
605.318	32305
605.514	31934.32
605.71	31881.07
605.906	31932.27
606.102	32161.64
606.298	31971.18
606.494	32008.04
606.69	32010.09
606.886	32040.81
607.082	31289.21
607.278	31512.44
607.474	31188.86
607.67	31592.31
607.866	31098.75
608.062	31641.46
608.257	30939.01
608.453	31154.04
608.649	31111.03
608.845	30693.25
609.041	30910.33
609.236	30689.15
609.432	30644.1
609.628	31006.59
609.824	30594.95
610.019	30214.02
610.215	30541.7
610.411	30900.09
610.606	30486.4
610.802	30349.19
610.998	30445.44
611.193	30566.27
611.389	30070.67
611.584	29790.09
611.78	29816.72
611.976	30287.75
612.171	30025.61
612.367	29835.15
612.562	29845.39
612.758	29607.83
612.953	29499.28
613.149	29890.45
613.344	29142.94
613.539	30037.9
613.735	29566.87
613.93	29562.77
614.126	29216.66
614.321	29710.22
614.517	29351.83
614.712	29155.22
614.907	29333.4
615.103	28934.04
615.298	29192.09
615.493	29255.57
615.688	28987.29
615.884	29380.5
616.079	28692.38
616.274	29061.02
616.47	28805.02
616.665	29095.83
616.86	28817.31
617.055	28600.22
617.25	28172.2
617.445	29003.67
617.641	28331.94
617.836	28692.38
618.031	28086.18
618.226	28786.59
618.421	28245.93
618.616	28338.08
618.811	27799.47
619.006	28284.84
619.201	27504.56
619.396	27826.09
619.591	27113.4
619.786	27735.98
619.981	27410.36
620.176	27254.71
620.371	27064.25
620.566	27011
620.761	26845.12
620.956	27187.13
621.151	26705.85
621.346	26709.95
621.541	26601.41
621.735	26785.72
621.93	26085.32
622.125	26265.54
622.32	25847.75
622.515	25796.56
622.709	25819.08
622.904	25780.17
623.099	25604.05
623.294	25417.68
623.488	25194.45
623.683	25130.97
623.878	24825.82
624.072	25216.98
624.267	24979.42
624.462	24883.16
624.656	24397.79
624.851	24467.42
625.046	24465.38
625.24	24276.96
625.435	23941.1
625.629	24154.08
625.824	23650.28
626.018	24031.21
626.213	23162.87
626.407	23328.75
626.602	23291.89
626.796	23429.1
626.991	23013.37
627.185	23422.96
627.38	23148.53
627.574	22849.53
627.768	22530.05
627.963	22351.87
628.157	22106.12
628.352	22454.27
628.546	21905.42
628.74	22499.33
628.935	21712.91
629.129	21862.41
629.323	21606.41
629.517	21370.9
629.712	21252.11
629.906	21444.62
630.1	20994.07
630.294	21284.88
630.489	21127.19
630.683	21225.49
630.877	20754.46
631.071	20725.79
631.265	20506.65
631.459	20535.32
631.653	20555.8
631.848	20600.86
632.042	20252.7
632.236	20295.71
632.43	19765.29
632.624	20002.85
632.818	20090.91
633.012	19879.97
633.206	19327.02
633.4	19429.42
633.594	19374.13
633.788	19361.84
633.982	19456.04
634.176	19165.23
634.369	19212.34
634.563	19007.54
634.757	18518.07
634.951	18937.91
635.145	18702.39
635.339	18585.66
635.533	18374.72
635.726	18409.53
635.92	17805.38
636.114	18321.47
636.308	18126.91
636.501	17967.17
636.695	18042.95
636.889	17795.14
637.083	17707.08
637.276	17516.62
637.47	17301.58
637.664	17412.17
637.857	17590.34
638.051	17399.88
638.244	17096.78
638.438	16971.86
638.632	17078.35
638.825	16781.4
639.019	16687.19
639.212	16513.11
639.406	16748.63
639.599	16642.14
639.793	16455.77
639.986	16253.02
640.18	16377.95
640.373	16146.53
640.567	15986.79
640.76	16187.49
640.954	15779.94
641.147	15667.3
641.34	15722.6
641.534	15589.48
641.727	15634.53
641.92	15521.9
642.114	15290.48
642.307	15407.21
642.5	15181.93
642.694	15161.45
642.887	15155.31
643.08	15325.29
643.273	14925.94
643.467	14913.65
643.66	14999.66
643.853	14667.89
644.046	14682.23
644.239	14592.12
644.432	14491.77
644.626	14207.1
644.819	14432.38
645.012	14170.24
645.205	14211.2
645.398	14065.79
645.591	13979.78
645.784	13922.43
645.977	13508.74
646.17	13899.91
646.363	13680.77
646.556	13639.81
646.749	13420.68
646.942	13774.98
647.135	13375.63
647.328	13277.32
647.521	13367.43
647.714	13123.73
647.907	13133.96
648.099	12896.4
648.292	13004.94
648.485	12820.63
648.678	12933.26
648.871	12619.92
649.064	12378.26
649.256	12740.75
649.449	12492.95
649.642	12556.44
649.835	12419.22
650.027	12380.31
650.22	12406.94
650.413	12206.24
650.605	12142.75
650.798	12181.66
650.991	12112.03
651.183	11929.76
651.376	11856.03
651.568	11991.2
651.761	11813.03
651.954	11688.1
652.146	11845.79
652.339	11634.85
652.531	11634.85
652.724	11444.39
652.916	11219.11
653.109	11321.51
653.301	11251.88
653.494	11665.57
653.686	11159.72
653.879	11401.38
654.071	11004.08
654.263	11192.49
654.456	10934.45
654.648	10989.74
654.84	10823.86
655.033	10721.46
655.225	10768.56
655.417	10567.86
655.61	10786.99
655.802	10559.67
655.994	10383.54
656.186	10563.76
656.379	10481.85
656.571	10350.78
656.763	10459.32
656.955	10373.3
657.148	10229.95
657.34	10252.47
657.532	10072.25
657.724	10029.24
657.916	10035.39
658.108	10115.26
658.3	9687.23
658.492	10070.2
658.684	9767.1
658.876	9601.22
659.068	9672.9
659.26	9627.84
659.452	9603.27
659.644	9523.4
659.836	9429.19
660.028	9488.58
660.22	9294.02
660.412	9392.33
660.604	9238.73
660.796	9291.98
660.988	9353.41
661.18	9238.73
661.372	9142.47
661.563	9160.91
661.755	8937.68
661.947	9040.08
662.139	9152.71
662.331	8849.61
662.522	8863.95
662.714	8929.49
662.906	8671.44
663.097	8822.99
663.289	8581.33
663.481	8558.8
663.673	8515.8
663.864	8593.62
664.056	8523.99
664.247	8403.16
664.439	8349.91
664.631	8259.8
664.822	8198.36
665.014	8446.16
665.205	8452.31
665.397	8138.97
665.588	8075.48
665.78	8052.95
665.971	8022.23
666.163	8073.43
666.354	8171.74
666.546	7872.73
666.737	7762.14
666.929	7940.32
667.12	7897.31
667.311	7842.01
667.503	7778.53
667.694	7813.34
667.885	7471.33
668.077	7616.74
668.268	7549.15
668.459	7473.38
668.651	7586.02
668.842	7543.01
669.033	7364.84
669.224	7366.88
669.416	7399.65
669.607	7440.61
669.798	7440.61
669.989	7424.23
670.18	7180.52
670.371	7157.99
670.563	7028.97
670.754	7205.1
670.945	7039.21
671.136	7049.45
671.327	7147.75
671.518	7110.89
671.709	6893.8
671.9	6953.2
672.091	7010.54
672.282	6953.2
672.473	6828.27
672.664	6725.87
672.855	6758.64
673.046	6760.69
673.237	6842.6
673.428	6734.06
673.619	6701.3
673.809	6676.72
674	6504.69
674.191	6598.9
674.382	6473.97
674.573	6686.96
674.764	6555.89
674.954	6602.99
675.145	6525.17
675.336	6408.44
675.527	6396.15
675.717	6426.87
675.908	6332.66
676.099	6424.82
676.289	6316.28
676.48	6252.79
676.671	6291.7
676.861	6273.27
677.052	6158.58
677.243	5966.07
677.433	6134.01
677.624	6152.44
677.814	6121.72
678.005	6367.48
678.195	6220.02
678.386	6152.44
678.576	6058.23
678.767	6007.03
678.957	6205.69
679.148	5959.93
679.338	6078.71
679.529	5978.36
679.719	5937.4
679.909	6002.94
680.1	5841.15
680.29	6021.37
680.481	5843.2
680.671	5927.16
680.861	5746.94
681.052	5761.28
681.242	5898.49
681.432	5785.85
681.622	5765.37
681.813	5605.63
682.003	5871.87
682.193	5634.3
682.383	5789.95
682.573	5468.42
682.764	5748.99
682.954	5439.75
683.144	5615.87
683.334	5597.44
683.524	5665.02
683.714	5683.45
683.904	5579.01
684.094	5708.03
684.284	5613.82
684.474	5466.37
684.664	5658.88
684.854	5476.61
685.044	5515.52
685.234	5361.92
685.424	5306.63
685.614	5560.58
685.804	5378.31
685.994	5284.1
686.184	5417.22
686.374	5406.98
686.564	5306.63
686.753	5429.51
686.943	5202.18
687.133	5292.29
687.323	5284.1
687.513	5249.29
687.702	5173.51
687.892	5200.13
688.082	5189.89
688.272	5355.78
688.461	5091.59
688.651	4919.56
688.841	5028.1
689.03	5017.86
689.22	4870.41
689.41	5103.88
689.599	4954.38
689.789	5009.67
689.979	4788.49
690.168	4989.19
690.358	4882.7
690.547	4909.32
690.737	4843.79
690.926	4743.44
691.116	4725.01
691.305	4675.85
691.495	4823.31
691.684	4671.76
691.874	4755.72
692.063	4778.25
692.252	4575.5
692.442	4776.2
692.631	4595.98
692.82	4612.37
693.01	4469.01
693.199	4411.67
693.388	4653.33
693.578	4509.97
693.767	4473.11
693.956	4614.41
694.146	4403.47
694.335	4563.22
694.524	4487.44
694.713	4569.36
694.902	4518.16
695.092	4436.24
695.281	4360.47
695.47	4292.88
695.659	4376.85
695.848	4241.68
696.037	4344.08
696.226	4294.93
696.415	4194.58
696.604	4362.51
696.793	4374.8
696.982	4417.81
697.171	4354.32
697.36	4294.93
697.549	4278.55
697.738	4204.82
697.927	4186.39
698.116	4208.92
698.305	4276.5
698.494	4331.8
698.683	4102.42
698.872	4186.39
699.061	4100.37
699.25	4231.44
699.438	4143.38
699.627	4122.9
699.816	4176.15
700.005	4000.02
700.193	4110.61
700.382	4067.61
700.571	4020.5
700.76	4034.84
700.948	4053.27
701.137	4081.94
701.326	4008.22
701.514	4108.57
701.703	3936.54
701.892	4075.8
702.08	4045.08
702.269	3967.26
702.457	3883.29
702.646	4024.6
702.834	3862.81
703.023	3899.67
703.212	4038.94
703.4	3938.59
703.589	4030.74
703.777	4045.08
703.965	3957.02
704.154	3975.45
704.342	3891.48
704.531	3864.86
704.719	3741.98
704.907	3926.3
705.096	3965.21
705.284	3830.04
705.472	3969.3
705.661	3801.37
705.849	3877.15
706.037	3825.95
706.226	3795.23
706.414	3715.36
706.602	3721.5
706.79	3819.8
706.979	3805.47
707.167	3658.01
707.355	3713.31
707.543	3729.69
707.731	3741.98
707.919	3563.81
708.107	3574.05
708.296	3871
708.484	3752.22
708.672	3844.38
708.86	3703.07
709.048	3799.32
709.236	3629.34
709.424	3756.32
709.612	3715.36
709.8	3694.88
709.988	3641.63
710.176	3684.64
710.364	3514.66
710.551	3725.6
710.739	3633.44
710.927	3565.85
711.115	3584.29
711.303	3528.99
711.491	3543.33
711.679	3588.38
711.866	3764.51
712.054	3598.62
712.242	3615.01
712.43	3584.29
712.617	3631.39
712.805	3518.75
712.993	3631.39
713.181	3479.84
713.368	3492.13
713.556	3631.39
713.744	3461.41
713.931	3502.37
714.119	3492.13
714.306	3408.16
714.494	3578.14
714.682	3371.3
714.869	3363.11
715.057	3408.16
715.244	3506.46
715.432	3436.83
715.619	3391.78
715.807	3320.1
715.994	3485.98
716.182	3436.83
716.369	3377.44
716.556	3512.61
716.744	3428.64
716.931	3256.61
717.119	3240.23
717.306	3408.16
717.493	3326.24
717.681	3322.15
717.868	3291.43
718.055	3318.05
718.242	3270.95
718.43	3348.77
718.617	3297.57
718.804	3287.33
718.991	3113.25
719.179	3213.6
719.366	3385.63
719.553	3387.68
719.74	3227.94
719.927	3256.61
720.114	3338.53
720.301	3268.9
720.488	3109.16
720.676	3199.27
720.863	3334.43
721.05	3262.76
721.237	3254.56
721.424	3240.23
721.611	3205.41
721.798	3031.34
721.985	3109.16
722.172	3150.12
722.358	3166.5
722.545	3152.17
722.732	3072.29
722.919	3131.69
723.106	3117.35
723.293	3139.88
723.48	3064.1
723.667	3148.07
723.853	3027.24
724.04	3043.62
724.227	3117.35
724.414	3035.43
724.6	3051.81
724.787	2945.32
724.974	3053.86
725.161	3062.05
725.347	2990.38
725.534	3076.39
725.72	2904.36
725.907	3025.19
726.094	2894.12
726.28	2847.02
726.467	2920.74
726.653	3023.14
726.84	2980.14
727.027	2992.42
727.213	2887.98
727.4	2853.16
727.586	2787.63
727.773	2935.08
727.959	2867.5
728.145	2912.55
728.332	2853.16
728.518	2814.25
728.705	2916.65
728.891	2918.7
729.077	2900.27
729.264	2883.88
729.45	2871.59
729.636	2885.93
729.823	2814.25
730.009	2775.34
730.195	2677.04
730.382	2896.17
730.568	2822.44
730.754	2763.05
730.94	2828.59
731.126	2744.62
731.313	2820.39
731.499	2672.94
731.685	2855.21
731.871	2734.38
732.057	2834.73
732.243	2689.32
732.429	2875.69
732.615	2732.33
732.801	2660.65
732.987	2785.58
733.173	2720.04
733.359	2779.43
733.545	2728.24
733.731	2591.02
733.917	2742.57
734.103	2715.95
734.289	2558.25
734.475	2588.97
734.661	2650.41
734.847	2564.4
735.033	2697.52
735.219	2623.79
735.404	2593.07
735.59	2707.76
735.776	2429.23
735.962	2720.04
736.148	2664.75
736.333	2525.49
736.519	2548.01
736.705	2545.97
736.89	2558.25
737.076	2689.32
737.262	2564.4
737.447	2427.18
737.633	2496.82
737.819	2656.56
738.004	2527.53
738.19	2558.25
738.375	2560.3
738.561	2541.87
738.747	2330.93
738.932	2388.27
739.118	2304.31
739.303	2468.14
739.489	2433.33
739.674	2320.69
739.859	2339.12
740.045	2380.08
740.23	2378.03
740.416	2261.3
740.601	2351.41
740.786	2423.09
740.972	2357.55
741.157	2289.97
741.342	2259.25
741.528	2347.31
741.713	2382.13
741.898	2367.79
742.084	2343.22
742.269	2203.96
742.454	2269.49
742.639	2486.58
742.824	2287.92
743.01	2318.64
743.195	2289.97
743.38	2208.05
743.565	2183.48
743.75	2236.72
743.935	2236.72
744.12	2216.24
744.305	2179.38
744.49	2142.52
744.675	2109.75
744.86	2068.79
745.045	2015.54
745.23	2099.51
745.415	2187.57
745.6	2214.2
745.785	2167.09
745.97	2058.55
746.155	2097.46
746.34	2003.25
746.525	2060.6
746.71	2027.83
746.895	1921.34
747.079	1868.09
747.264	1878.33
747.449	2003.25
747.634	1950.01
747.819	2031.93
748.003	2027.83
748.188	1945.91
748.373	1925.43
748.557	1888.57
748.742	1884.47
748.927	1833.27
749.111	1874.23
749.296	1880.38
749.481	1913.14
749.665	1765.69
749.85	1790.27
750.034	1833.27
750.219	1829.18
750.404	1667.39
750.588	1788.22
750.773	1784.12
750.957	1675.58
751.141	1667.39
751.326	1775.93
751.51	1632.57
751.695	1700.16
751.879	1730.87
752.064	1755.45
752.248	1622.33
752.432	1669.44
752.617	1538.37
752.801	1708.35
752.985	1659.2
753.17	1743.16
753.354	1579.33
753.538	1593.66
753.722	1581.37
753.907	1546.56
754.091	1542.46
754.275	1446.21
754.459	1540.41
754.643	1413.44
754.828	1407.3
755.012	1300.8
755.196	1366.34
755.38	1448.26
755.564	1411.39
755.748	1483.07
755.932	1474.88
756.116	1403.2
756.3	1325.38
756.484	1399.1
756.668	1276.23
756.852	1331.52
757.036	1306.95
757.22	1233.22
757.404	1343.81
757.588	1352
757.772	1382.72
757.956	1331.52
758.14	1216.83
758.323	1276.23
758.507	1345.86
758.691	1259.84
758.875	1278.27
759.059	1286.47
759.242	1341.76
759.426	1263.94
759.61	1255.75
759.794	1132.87
759.977	1179.97
760.161	1247.55
760.345	1159.49
760.528	1292.61
760.712	1163.59
760.895	1327.43
761.079	1186.12
761.263	1081.67
761.446	1259.84
761.63	1184.07
761.813	1147.2
761.997	1110.34
762.18	1222.98
762.364	1136.96
762.547	1122.63
762.731	1192.26
762.914	1110.34
763.098	1126.72
763.281	1212.74
763.464	1061.19
763.648	1134.92
763.831	1091.91
764.015	1009.99
764.198	1147.2
764.381	1048.9
764.564	1038.66
764.748	1063.24
764.931	1165.64
765.114	1141.06
765.297	1108.29
765.481	1059.14
765.664	1036.61
765.847	1071.43
766.03	1024.33
766.213	1067.33
766.397	1096
766.58	1044.81
766.763	1042.76
766.946	1075.52
767.129	1003.85
767.312	997.7
767.495	1059.14
767.678	1012.04
767.861	1040.71
768.044	1005.89
768.227	952.65
768.41	977.22
768.593	1001.8
768.776	1003.85
768.959	950.6
769.142	1024.33
769.324	995.65
769.507	1071.43
769.69	966.98
769.873	993.61
770.056	985.41
770.239	964.93
770.421	913.74
770.604	958.79
770.787	903.5
770.97	932.17
771.152	860.49
771.335	952.65
771.518	917.83
771.7	1030.47
771.883	942.41
772.066	815.43
772.248	936.26
772.431	903.5
772.613	874.82
772.796	928.07
772.978	909.64
773.161	856.39
773.343	893.26
773.526	848.2
773.708	766.28
773.891	872.78
774.073	799.05
774.256	807.24
774.438	860.49
774.621	950.6
774.803	809.29
774.985	848.2
775.168	776.52
775.35	823.62
775.532	797
775.715	813.38
775.897	803.15
776.079	741.71
776.261	797
776.444	768.33
776.626	807.24
776.808	846.15
776.99	723.27
777.173	749.9
777.355	737.61
777.537	708.94
777.719	827.72
777.901	733.51
778.083	776.52
778.265	772.43
778.447	774.47
778.629	776.52
778.811	717.13
778.993	653.64
779.175	721.23
779.357	663.88
779.539	631.12
779.721	733.51
779.903	641.36
780.085	659.79
780.267	723.27
780.449	604.49
780.631	643.4
780.812	723.27
780.994	614.73
781.176	741.71
781.358	594.25
781.54	616.78
781.721	536.91
781.903	624.97
782.085	616.78
782.267	655.69
782.448	518.48
782.63	614.73
782.812	534.86
782.993	555.34
783.175	524.62
783.357	467.28
783.538	600.4
783.72	573.77
783.901	545.1
784.083	637.26
784.264	629.07
784.446	520.53
784.627	532.81
784.809	567.63
784.99	489.81
785.172	524.62
785.353	581.96
785.535	555.34
785.716	541.01
785.897	469.33
786.079	491.85
786.26	498
786.441	506.19
786.623	395.6
786.804	510.29
786.985	475.47
787.167	516.43
787.348	368.98
787.529	471.37
787.71	549.2
787.891	457.04
788.073	399.7
788.254	362.83
788.435	452.94
788.616	471.37
788.797	424.27
788.978	438.61
789.159	446.8
789.34	407.89
789.522	405.84
789.703	403.79
789.884	465.23
790.065	393.55
790.246	442.7
790.427	418.13
790.607	444.75
790.788	432.46
790.969	334.16
791.15	510.29
791.331	342.35
791.512	360.78
791.693	309.58
791.874	338.26
792.054	457.04
792.235	348.5
792.416	432.46
792.597	346.45
792.778	344.4
792.958	371.02
793.139	379.22
793.32	405.84
793.5	334.16
793.681	379.22
793.862	336.21
794.042	311.63
794.223	321.87
794.404	362.83
794.584	311.63
794.765	307.54
794.945	307.54
795.126	383.31
795.306	428.37
795.487	366.93
795.667	360.78
795.848	364.88
796.028	379.22
796.209	344.4
796.389	362.83
796.57	278.87
796.75	203.09
796.93	323.92
797.111	342.35
797.291	346.45
797.471	330.06
797.652	268.63
797.832	289.1
798.012	258.39
798.192	262.48
798.373	299.34
798.553	297.3
798.733	260.43
798.913	282.96
799.093	274.77
799.274	293.2
799.454	325.97
799.634	328.02
799.814	248.15
799.994	272.72
800.174	203.09
800.354	276.82
800.534	356.69
800.714	301.39
800.894	297.3
801.074	274.77
801.254	270.67
801.434	360.78
801.614	303.44
801.794	223.57
801.974	764.23
802.154	242
802.334	188.75
802.514	246.1
802.693	285.01
802.873	213.33
803.053	299.34
803.233	268.63
803.413	328.02
803.592	289.1
803.772	174.42
803.952	217.43
804.131	278.87
804.311	205.14
804.491	190.8
804.67	242
804.85	280.91
805.03	291.15
805.209	260.43
805.389	158.03
805.568	155.99
805.748	235.86
805.928	258.39
806.107	270.67
806.287	205.14
806.466	280.91
806.646	174.42
806.825	143.7
807.004	186.71
807.184	196.95
807.363	203.09
807.543	217.43
807.722	213.33
807.901	270.67
808.081	239.95
808.26	248.15
808.439	190.8
808.619	192.85
808.798	184.66
808.977	217.43
809.156	196.95
809.336	160.08
809.515	260.43
809.694	117.08
809.873	158.03
810.052	201.04
810.231	268.63
810.411	196.95
810.59	147.8
810.769	198.99
810.948	233.81
811.127	182.61
811.306	252.24
811.485	184.66
811.664	295.25
811.843	256.34
812.022	233.81
812.201	184.66
812.38	158.03
812.559	172.37
812.737	160.08
812.916	127.32
813.095	155.99
813.274	147.8
813.453	182.61
813.632	242
813.811	194.9
813.989	98.64
814.168	192.85
814.347	141.65
814.526	166.23
814.704	201.04
814.883	147.8
815.062	160.08
815.24	217.43
815.419	149.84
815.598	160.08
815.776	139.6
815.955	201.04
816.133	69.97
816.312	205.14
816.49	127.32
816.669	141.65
816.847	106.84
817.026	164.18
817.204	151.89
817.383	129.36
817.561	141.65
817.74	196.95
817.918	149.84
818.097	100.69
818.275	147.8
818.453	133.46
818.632	168.27
818.81	180.56
818.988	164.18
819.167	192.85
819.345	190.8
819.523	166.23
819.701	119.12
819.879	153.94
820.058	192.85
820.236	178.51
820.414	76.12
820.592	151.89
820.77	108.88
820.948	125.27
821.127	115.03
821.305	209.23
821.483	69.97
821.661	190.8
821.839	110.93
822.017	145.75
822.195	104.79
822.373	135.51
822.551	78.16
822.729	133.46
822.907	139.6
823.085	198.99
823.262	127.32
823.44	164.18
823.618	112.98
823.796	125.27
823.974	84.31
824.152	180.56
824.329	84.31
824.507	127.32
824.685	176.47
824.863	53.59
825.04	108.88
825.218	196.95
825.396	86.36
825.574	88.4
825.751	57.68
825.929	108.88
826.107	131.41
826.284	119.12
826.462	151.89
826.639	31.06
826.817	139.6
826.994	29.01
827.172	69.97
827.349	151.89
827.527	82.26
827.704	131.41
827.882	110.93
828.059	117.08
828.237	127.32
828.414	104.79
828.591	125.27
828.769	151.89
828.946	61.78
829.124	88.4
829.301	155.99
829.478	141.65
829.655	90.45
829.833	88.4
830.01	12.63
830.187	151.89
830.364	172.37
830.542	74.07
830.719	143.7
830.896	117.08
831.073	188.75
831.25	67.92
831.427	78.16
831.604	135.51
831.782	35.16
831.959	137.56
832.136	78.16
832.313	119.12
832.49	39.25
832.667	147.8
832.844	110.93
833.021	82.26
833.198	78.16
833.374	135.51
833.551	106.84
833.728	180.56
833.905	164.18
834.082	6.49
834.259	39.25
834.436	172.37
834.612	26.96
834.789	92.5
834.966	76.12
835.143	135.51
835.319	65.88
835.496	84.31
835.673	147.8
835.85	110.93
836.026	100.69
836.203	110.93
836.38	24.92
836.556	78.16
836.733	88.4
836.909	129.36
837.086	110.93
837.262	88.4
837.439	84.31
837.616	61.78
837.792	100.69
837.968	137.56
838.145	12.63
838.321	29.01
838.498	94.55
838.674	125.27
838.851	24.92
839.027	33.11
839.203	39.25
839.38	74.07
839.556	117.08
839.732	14.68
839.909	53.59
840.085	16.73
840.261	14.68
840.437	47.44
840.614	74.07
840.79	51.54
840.966	59.73
841.142	125.27
841.318	61.78
841.494	8.53
841.671	127.32
841.847	67.92
842.023	57.68
842.199	4.44
842.375	84.31
842.551	33.11
842.727	57.68
842.903	82.26
843.079	57.68
843.255	59.73
843.431	55.64
843.607	84.31
843.783	49.49
843.959	119.12
844.134	18.77
844.31	61.78
844.486	26.96
844.662	29.01
844.838	82.26
845.013	65.88
845.189	127.32
845.365	61.78
845.541	41.3
845.716	41.3
845.892	-7.85
846.068	53.59
846.244	41.3
846.419	88.4
846.595	51.54
846.77	59.73
846.946	102.74
847.122	112.98
847.297	43.35
847.473	26.96
847.648	67.92
847.824	65.88
847.999	-5.8
848.175	110.93
848.35	-3.75
848.526	119.12
848.701	82.26
848.876	129.36
849.052	33.11
849.227	63.83
849.403	59.73
849.578	57.68
849.753	149.84
849.929	61.78
850.104	-16.04
850.279	26.96
850.454	-69.29
850.63	8.53
850.805	45.4
850.98	-18.09
851.155	16.73
851.33	51.54
851.505	-28.33
851.681	123.22
851.856	4.44
852.031	-11.95
852.206	37.2
852.381	49.49
852.556	31.06
852.731	63.83
852.906	86.36
853.081	-16.04
853.256	76.12
853.431	98.64
853.606	106.84
853.781	37.2
853.956	-5.8
854.131	92.5
854.305	33.11
854.48	53.59
854.655	26.96
854.83	35.16
855.005	78.16
855.18	127.32
855.354	51.54
855.529	59.73
855.704	24.92
855.879	57.68
856.053	0.34
856.228	16.73
856.403	-38.57
856.577	67.92
856.752	37.2
856.926	43.35
857.101	24.92
857.276	-22.19
857.45	61.78
857.625	72.02
857.799	35.16
857.974	37.2
858.148	-28.33
858.323	43.35
858.497	35.16
858.672	78.16
858.846	82.26
859.02	76.12
859.195	-24.23
859.369	84.31
859.543	67.92
859.718	-36.52
859.892	65.88
860.066	37.2
860.241	57.68
860.415	20.82
860.589	4.44
860.763	82.26
860.938	24.92
861.112	45.4
861.286	16.73
861.46	59.73
861.634	22.87
861.808	20.82
861.982	-40.62
862.157	-54.95
862.331	39.25
862.505	37.2
862.679	4.44
862.853	100.69
863.027	-32.43
863.201	74.07
863.375	72.02
863.549	82.26
863.722	-5.8
863.896	119.12
864.07	20.82
864.244	26.96
864.418	74.07
864.592	51.54
864.766	0.34
864.939	49.49
865.113	12.63
865.287	108.88
865.461	-7.85
865.634	35.16
865.808	-9.9
865.982	76.12
866.156	108.88
866.329	37.2
866.503	51.54
866.676	16.73
866.85	-5.8
867.024	61.78
867.197	24.92
867.371	61.78
867.544	-1.71
867.718	18.77
867.891	51.54
868.065	37.2
868.238	-1.71
868.412	33.11
868.585	4.44
868.759	78.16
868.932	26.96
869.105	53.59
869.279	43.35
869.452	-44.71
869.625	-32.43
869.799	29.01
869.972	4.44
870.145	-1.71
870.319	45.4
870.492	16.73
870.665	22.87
870.838	45.4
871.011	16.73
871.185	24.92
871.358	61.78
871.531	49.49
871.704	-32.43
871.877	94.55
872.05	16.73
872.223	41.3
872.396	0.34
872.569	-1.71
872.742	29.01
872.915	49.49
873.088	18.77
873.261	-18.09
873.434	51.54
873.607	61.78
873.78	82.26
873.953	-36.52
874.126	72.02
874.299	53.59
874.471	-57
874.644	24.92
874.817	78.16
874.99	110.93
875.163	76.12
875.335	80.21
875.508	20.82
875.681	33.11
875.853	35.16
876.026	82.26
876.199	57.68
876.371	29.01
876.544	82.26
876.717	37.2
876.889	12.63
877.062	35.16
877.234	-46.76
877.407	45.4
877.579	-44.71
877.752	14.68
877.924	10.58
878.097	6.49
878.269	16.73
878.442	2.39
878.614	-24.23
878.786	16.73
878.959	35.16
879.131	80.21
879.303	-7.85
879.476	29.01
879.648	6.49
879.82	39.25
879.993	18.77
880.165	53.59
880.337	53.59
880.509	16.73
880.681	-9.9
880.854	-3.75
881.026	53.59
881.198	90.45
881.37	29.01
881.542	26.96
881.714	20.82
881.886	0.34
882.058	16.73
882.23	-3.75
882.402	31.06
882.574	74.07
882.746	59.73
882.918	-83.63
883.09	6.49
883.262	-42.67
883.434	-7.85
883.606	-36.52
883.778	51.54
883.95	8.53
884.122	20.82
884.293	-16.04
884.465	-50.86
884.637	80.21
884.809	-5.8
884.98	49.49
885.152	49.49
885.324	72.02
885.496	-102.06
885.667	-7.85
885.839	-5.8
886.011	76.12
886.182	45.4
886.354	20.82
886.525	22.87
886.697	72.02
886.869	-24.23
887.04	74.07
887.212	102.74
887.383	137.56
887.555	-30.38
887.726	-3.75
887.897	-73.39
888.069	43.35
888.24	45.4
888.412	26.96
888.583	12.63
888.754	59.73
888.926	10.58
889.097	-97.96
889.268	10.58
889.44	39.25
889.611	22.87
889.782	12.63
889.953	12.63
890.125	96.6
890.296	22.87
890.467	-3.75
890.638	-9.9
890.809	67.92
890.98	-57
891.151	76.12
891.323	43.35
891.494	20.82
891.665	14.68
891.836	74.07
892.007	-5.8
892.178	80.21
892.349	-11.95
892.52	37.2
892.691	-20.14
892.862	-3.75
893.032	-30.38
893.203	18.77
893.374	0.34
893.545	-26.28
893.716	-54.95
893.887	80.21
894.057	-22.19
894.228	-40.62
894.399	-16.04
894.57	12.63
894.74	-16.04
894.911	20.82
895.082	-16.04
895.253	59.73
895.423	-65.19
895.594	2.39
895.764	-26.28
895.935	-61.1
896.106	16.73
896.276	80.21
896.447	65.88
896.617	8.53
896.788	-20.14
896.958	-11.95
897.129	4.44
897.299	-26.28
897.47	55.64
897.64	53.59
897.81	29.01
897.981	55.64
898.151	-1.71
898.322	26.96
898.492	-20.14
898.662	-46.76
898.832	43.35
899.003	86.36
899.173	31.06
899.343	20.82
899.513	33.11
