Data from USB4F104151__231__10-30-17-634.txt Node

Date: Wed Mar 12 10:30:17 EDT 2025
User: louis
Spectrometer: USB4F10415
Trigger mode: 4
Integration Time (sec): 3.000000E-2
Scans to average: 1
Electric dark correction enabled: true
Nonlinearity correction enabled: false
Boxcar width: 0
XAxis mode: Wavelengths
Number of Pixels in Spectrum: 3648
>>>>>Begin Spectral Data<<<<<
178.204	-91.13
178.424	-91.13
178.644	-91.13
178.864	-113.66
179.084	-111.61
179.304	-39.94
179.524	1.02
179.744	52.22
179.964	11.26
180.184	-3.07
180.404	1.02
180.624	-1.02
180.844	23.55
181.064	25.6
181.283	-15.36
181.503	-3.07
181.723	-52.22
181.943	-15.36
182.163	41.98
182.383	44.03
182.602	54.27
182.822	37.89
183.042	66.56
183.262	39.94
183.482	-31.74
183.701	-13.31
183.921	1.02
184.141	50.18
184.361	76.8
184.58	19.46
184.8	-44.03
185.02	-44.03
185.239	76.8
185.459	68.61
185.679	111.61
185.898	-5.12
186.118	68.61
186.338	15.36
186.557	109.57
186.777	-19.46
186.997	-23.55
187.216	19.46
187.436	44.03
187.655	25.6
187.875	35.84
188.095	35.84
188.314	50.18
188.534	84.99
188.753	78.85
188.973	29.7
189.192	48.13
189.412	128
189.631	72.7
189.851	56.32
190.07	46.08
190.29	27.65
190.509	44.03
190.729	-33.79
190.948	-50.18
191.168	109.57
191.387	80.89
191.607	-5.12
191.826	46.08
192.045	17.41
192.265	91.13
192.484	23.55
192.704	17.41
192.923	37.89
193.142	171.01
193.362	-35.84
193.581	64.51
193.8	46.08
194.02	56.32
194.239	-37.89
194.458	52.22
194.678	11.26
194.897	39.94
195.116	56.32
195.335	-33.79
195.555	50.18
195.774	37.89
195.993	68.61
196.212	21.5
196.432	-29.7
196.651	-17.41
196.87	60.42
197.089	144.38
197.308	72.7
197.528	78.85
197.747	21.5
197.966	46.08
198.185	89.09
198.404	35.84
198.623	56.32
198.842	21.5
199.062	140.29
199.281	-17.41
199.5	-9.22
199.719	3.07
199.938	-7.17
200.157	56.32
200.376	7.17
200.595	117.76
200.814	-25.6
201.033	-37.89
201.252	109.57
201.471	41.98
201.69	56.32
201.909	52.22
202.128	-46.08
202.347	15.36
202.566	-19.46
202.785	25.6
203.004	-46.08
203.223	3.07
203.442	41.98
203.661	123.9
203.879	64.51
204.098	68.61
204.317	-17.41
204.536	27.65
204.755	72.7
204.974	68.61
205.193	64.51
205.411	105.47
205.63	5.12
205.849	-25.6
206.068	-9.22
206.287	58.37
206.505	-11.26
206.724	33.79
206.943	11.26
207.162	13.31
207.381	21.5
207.599	33.79
207.818	-1.02
208.037	-1.02
208.255	-33.79
208.474	62.46
208.693	17.41
208.911	-3.07
209.13	25.6
209.349	-37.89
209.567	31.74
209.786	121.85
210.005	39.94
210.223	15.36
210.442	-33.79
210.661	89.09
210.879	5.12
211.098	48.13
211.316	-29.7
211.535	-1.02
211.753	31.74
211.972	27.65
212.191	-7.17
212.409	48.13
212.628	56.32
212.846	-54.27
213.065	62.46
213.283	64.51
213.502	60.42
213.72	60.42
213.938	27.65
214.157	21.5
214.375	-19.46
214.594	68.61
214.812	29.7
215.031	41.98
215.249	-13.31
215.467	74.75
215.686	3.07
215.904	70.65
216.122	35.84
216.341	41.98
216.559	15.36
216.778	5.12
216.996	68.61
217.214	3.07
217.432	-31.74
217.651	-39.94
217.869	-7.17
218.087	60.42
218.306	11.26
218.524	48.13
218.742	-37.89
218.96	41.98
219.179	31.74
219.397	21.5
219.615	128
219.833	46.08
220.051	31.74
220.27	80.89
220.488	39.94
220.706	13.31
220.924	89.09
221.142	39.94
221.36	-33.79
221.578	48.13
221.796	44.03
222.015	3.07
222.233	-3.07
222.451	23.55
222.669	-11.26
222.887	50.18
223.105	-17.41
223.323	56.32
223.541	91.13
223.759	15.36
223.977	48.13
224.195	64.51
224.413	44.03
224.631	46.08
224.849	82.94
225.067	70.65
225.285	-29.7
225.503	56.32
225.721	-25.6
225.939	56.32
226.157	1.02
226.375	193.53
226.592	-72.7
226.81	1.02
227.028	70.65
227.246	105.47
227.464	-3.07
227.682	-3.07
227.9	60.42
228.117	3.07
228.335	39.94
228.553	-23.55
228.771	11.26
228.989	48.13
229.206	46.08
229.424	-21.5
229.642	123.9
229.86	3.07
230.077	11.26
230.295	1.02
230.513	111.61
230.731	21.5
230.948	101.37
231.166	111.61
231.384	23.55
231.601	-5.12
231.819	9.22
232.037	60.42
232.254	-13.31
232.472	-23.55
232.689	9.22
232.907	39.94
233.125	7.17
233.342	54.27
233.56	7.17
233.777	23.55
233.995	21.5
234.213	97.28
234.43	101.37
234.648	19.46
234.865	-19.46
235.083	19.46
235.3	37.89
235.518	62.46
235.735	52.22
235.953	-21.5
236.17	21.5
236.388	-37.89
236.605	15.36
236.822	128
237.04	62.46
237.257	27.65
237.475	19.46
237.692	87.04
237.909	68.61
238.127	-1.02
238.344	5.12
238.562	-44.03
238.779	-52.22
238.996	-60.42
239.214	-27.65
239.431	56.32
239.648	62.46
239.865	-1.02
240.083	-29.7
240.3	-21.5
240.517	46.08
240.735	97.28
240.952	54.27
241.169	107.52
241.386	109.57
241.603	-17.41
241.821	-54.27
242.038	72.7
242.255	48.13
242.472	11.26
242.689	41.98
242.907	46.08
243.124	64.51
243.341	-17.41
243.558	-21.5
243.775	44.03
243.992	35.84
244.209	35.84
244.426	74.75
244.643	13.31
244.86	3.07
245.078	91.13
245.295	46.08
245.512	89.09
245.729	-17.41
245.946	23.55
246.163	-13.31
246.38	-3.07
246.597	9.22
246.814	-33.79
247.031	11.26
247.248	19.46
247.464	56.32
247.681	74.75
247.898	-37.89
248.115	76.8
248.332	39.94
248.549	23.55
248.766	64.51
248.983	5.12
249.2	111.61
249.417	58.37
249.633	17.41
249.85	68.61
250.067	-31.74
250.284	17.41
250.501	72.7
250.717	-25.6
250.934	5.12
251.151	15.36
251.368	7.17
251.585	7.17
251.801	60.42
252.018	13.31
252.235	50.18
252.451	82.94
252.668	-23.55
252.885	78.85
253.102	13.31
253.318	66.56
253.535	-17.41
253.752	-21.5
253.968	7.17
254.185	-27.65
254.401	-11.26
254.618	62.46
254.835	13.31
255.051	56.32
255.268	-11.26
255.484	60.42
255.701	60.42
255.917	87.04
256.134	23.55
256.351	15.36
256.567	-39.94
256.784	66.56
257	-3.07
257.217	31.74
257.433	54.27
257.65	103.42
257.866	54.27
258.082	-27.65
258.299	13.31
258.515	101.37
258.732	70.65
258.948	78.85
259.165	54.27
259.381	3.07
259.597	19.46
259.814	64.51
260.03	109.57
260.246	-41.98
260.463	93.18
260.679	39.94
260.895	3.07
261.112	78.85
261.328	52.22
261.544	19.46
261.761	101.37
261.977	-1.02
262.193	-39.94
262.409	144.38
262.626	64.51
262.842	87.04
263.058	15.36
263.274	33.79
263.49	-1.02
263.707	58.37
263.923	13.31
264.139	-37.89
264.355	64.51
264.571	95.23
264.787	44.03
265.004	76.8
265.22	-41.98
265.436	-31.74
265.652	-23.55
265.868	44.03
266.084	-3.07
266.3	64.51
266.516	-35.84
266.732	89.09
266.948	29.7
267.164	37.89
267.38	11.26
267.596	101.37
267.812	35.84
268.028	27.65
268.244	21.5
268.46	7.17
268.676	-17.41
268.892	7.17
269.108	19.46
269.324	35.84
269.54	39.94
269.756	93.18
269.972	29.7
270.188	35.84
270.403	50.18
270.619	84.99
270.835	70.65
271.051	23.55
271.267	-21.5
271.483	80.89
271.698	50.18
271.914	50.18
272.13	13.31
272.346	107.52
272.562	68.61
272.777	44.03
272.993	35.84
273.209	7.17
273.425	7.17
273.64	80.89
273.856	105.47
274.072	56.32
274.287	-5.12
274.503	56.32
274.719	31.74
274.934	60.42
275.15	-27.65
275.366	33.79
275.581	-1.02
275.797	52.22
276.012	50.18
276.228	15.36
276.444	60.42
276.659	21.5
276.875	74.75
277.09	70.65
277.306	44.03
277.521	44.03
277.737	-9.22
277.952	11.26
278.168	-3.07
278.383	68.61
278.599	-9.22
278.814	56.32
279.03	54.27
279.245	80.89
279.461	-35.84
279.676	25.6
279.892	21.5
280.107	-35.84
280.322	41.98
280.538	35.84
280.753	46.08
280.969	95.23
281.184	70.65
281.399	-1.02
281.615	48.13
281.83	-5.12
282.045	33.79
282.26	11.26
282.476	48.13
282.691	7.17
282.906	29.7
283.122	11.26
283.337	15.36
283.552	68.61
283.767	35.84
283.983	31.74
284.198	-3.07
284.413	-9.22
284.628	76.8
284.843	-7.17
285.058	1.02
285.274	-35.84
285.489	-48.13
285.704	29.7
285.919	35.84
286.134	31.74
286.349	-21.5
286.564	15.36
286.779	44.03
286.995	39.94
287.21	52.22
287.425	115.71
287.64	15.36
287.855	138.24
288.07	7.17
288.285	19.46
288.5	15.36
288.715	50.18
288.93	60.42
289.145	33.79
289.36	48.13
289.575	9.22
289.79	89.09
290.004	-27.65
290.219	-1.02
290.434	72.7
290.649	-58.37
290.864	62.46
291.079	-7.17
291.294	33.79
291.509	66.56
291.724	48.13
291.938	-3.07
292.153	-9.22
292.368	13.31
292.583	64.51
292.798	56.32
293.012	60.42
293.227	11.26
293.442	7.17
293.657	48.13
293.871	64.51
294.086	39.94
294.301	70.65
294.516	80.89
294.73	50.18
294.945	23.55
295.16	64.51
295.374	48.13
295.589	33.79
295.804	-1.02
296.018	62.46
296.233	23.55
296.447	21.5
296.662	64.51
296.877	27.65
297.091	37.89
297.306	-13.31
297.52	-1.02
297.735	105.47
297.949	1.02
298.164	7.17
298.378	35.84
298.593	19.46
298.807	-9.22
299.022	68.61
299.236	-13.31
299.451	-52.22
299.665	54.27
299.88	37.89
300.094	107.52
300.309	58.37
300.523	13.31
300.737	15.36
300.952	7.17
301.166	56.32
301.381	13.31
301.595	15.36
301.809	95.23
302.024	33.79
302.238	-1.02
302.452	97.28
302.667	48.13
302.881	134.14
303.095	21.5
303.309	52.22
303.524	-9.22
303.738	9.22
303.952	41.98
304.166	46.08
304.381	-46.08
304.595	119.81
304.809	39.94
305.023	76.8
305.237	31.74
305.452	87.04
305.666	31.74
305.88	44.03
306.094	82.94
306.308	66.56
306.522	25.6
306.736	64.51
306.95	54.27
307.164	111.61
307.379	64.51
307.593	103.42
307.807	56.32
308.021	68.61
308.235	84.99
308.449	60.42
308.663	78.85
308.877	76.8
309.091	23.55
309.305	82.94
309.519	-17.41
309.733	35.84
309.947	-3.07
310.161	105.47
310.374	64.51
310.588	33.79
310.802	-17.41
311.016	-9.22
311.23	3.07
311.444	-60.42
311.658	78.85
311.872	21.5
312.085	80.89
312.299	70.65
312.513	111.61
312.727	13.31
312.941	-35.84
313.154	31.74
313.368	74.75
313.582	11.26
313.796	37.89
314.009	84.99
314.223	29.7
314.437	21.5
314.651	105.47
314.864	-3.07
315.078	15.36
315.292	11.26
315.505	-1.02
315.719	-11.26
315.933	19.46
316.146	56.32
316.36	7.17
316.573	70.65
316.787	54.27
317.001	70.65
317.214	27.65
317.428	9.22
317.641	48.13
317.855	37.89
318.068	27.65
318.282	62.46
318.495	52.22
318.709	82.94
318.922	54.27
319.136	93.18
319.349	80.89
319.563	11.26
319.776	68.61
319.99	9.22
320.203	72.7
320.417	80.89
320.63	-3.07
320.843	95.23
321.057	76.8
321.27	23.55
321.483	46.08
321.697	13.31
321.91	39.94
322.124	-15.36
322.337	64.51
322.55	23.55
322.763	58.37
322.977	39.94
323.19	31.74
323.403	-13.31
323.617	80.89
323.83	48.13
324.043	21.5
324.256	5.12
324.469	27.65
324.683	123.9
324.896	9.22
325.109	7.17
325.322	29.7
325.535	123.9
325.748	95.23
325.962	46.08
326.175	60.42
326.388	-23.55
326.601	89.09
326.814	37.89
327.027	91.13
327.24	125.95
327.453	5.12
327.666	70.65
327.879	15.36
328.092	82.94
328.305	64.51
328.518	-5.12
328.731	-25.6
328.944	60.42
329.157	70.65
329.37	54.27
329.583	68.61
329.796	-1.02
330.009	-17.41
330.222	35.84
330.435	91.13
330.648	89.09
330.861	-29.7
331.073	105.47
331.286	50.18
331.499	15.36
331.712	78.85
331.925	5.12
332.138	31.74
332.35	-9.22
332.563	101.37
332.776	11.26
332.989	-5.12
333.202	-25.6
333.414	50.18
333.627	60.42
333.84	31.74
334.053	35.84
334.265	13.31
334.478	72.7
334.691	29.7
334.903	72.7
335.116	54.27
335.329	3.07
335.541	44.03
335.754	64.51
335.966	15.36
336.179	23.55
336.392	62.46
336.604	-31.74
336.817	80.89
337.029	93.18
337.242	72.7
337.454	60.42
337.667	31.74
337.88	50.18
338.092	35.84
338.305	62.46
338.517	48.13
338.729	68.61
338.942	39.94
339.154	56.32
339.367	31.74
339.579	-7.17
339.792	-7.17
340.004	48.13
340.217	17.41
340.429	-46.08
340.641	-41.98
340.854	33.79
341.066	132.09
341.278	89.09
341.491	33.79
341.703	9.22
341.915	56.32
342.128	54.27
342.34	84.99
342.552	68.61
342.764	35.84
342.977	52.22
343.189	68.61
343.401	-19.46
343.613	35.84
343.826	25.6
344.038	39.94
344.25	17.41
344.462	66.56
344.674	66.56
344.886	11.26
345.099	50.18
345.311	62.46
345.523	64.51
345.735	58.37
345.947	48.13
346.159	95.23
346.371	87.04
346.583	-9.22
346.795	130.05
347.007	52.22
347.219	31.74
347.431	33.79
347.643	64.51
347.855	17.41
348.067	68.61
348.279	-15.36
348.491	107.52
348.703	74.75
348.915	-44.03
349.127	64.51
349.339	78.85
349.551	1.02
349.763	3.07
349.975	68.61
350.187	17.41
350.399	62.46
350.61	68.61
350.822	44.03
351.034	35.84
351.246	23.55
351.458	119.81
351.669	48.13
351.881	78.85
352.093	64.51
352.305	74.75
352.517	48.13
352.728	5.12
352.94	31.74
353.152	93.18
353.363	19.46
353.575	66.56
353.787	27.65
353.999	39.94
354.21	113.66
354.422	37.89
354.633	31.74
354.845	29.7
355.057	41.98
355.268	50.18
355.48	48.13
355.692	19.46
355.903	107.52
356.115	46.08
356.326	11.26
356.538	97.28
356.749	19.46
356.961	115.71
357.172	-11.26
357.384	-19.46
357.595	166.91
357.807	-7.17
358.018	-13.31
358.23	111.61
358.441	93.18
358.653	93.18
358.864	23.55
359.075	7.17
359.287	44.03
359.498	76.8
359.709	19.46
359.921	97.28
360.132	21.5
360.344	41.98
360.555	60.42
360.766	29.7
360.977	62.46
361.189	64.51
361.4	41.98
361.611	29.7
361.823	39.94
362.034	52.22
362.245	19.46
362.456	39.94
362.667	17.41
362.879	31.74
363.09	101.37
363.301	50.18
363.512	15.36
363.723	46.08
363.935	46.08
364.146	105.47
364.357	15.36
364.568	54.27
364.779	39.94
364.99	62.46
365.201	33.79
365.412	125.95
365.623	-1.02
365.834	64.51
366.045	46.08
366.256	93.18
366.467	105.47
366.678	72.7
366.889	78.85
367.1	11.26
367.311	95.23
367.522	93.18
367.733	74.75
367.944	154.62
368.155	23.55
368.366	84.99
368.577	56.32
368.788	113.66
368.999	74.75
369.209	56.32
369.42	95.23
369.631	66.56
369.842	76.8
370.053	29.7
370.264	89.09
370.474	3.07
370.685	54.27
370.896	11.26
371.107	39.94
371.317	84.99
371.528	39.94
371.739	97.28
371.95	41.98
372.16	72.7
372.371	-3.07
372.582	70.65
372.792	25.6
373.003	93.18
373.214	25.6
373.424	125.95
373.635	3.07
373.846	46.08
374.056	52.22
374.267	78.85
374.477	62.46
374.688	80.89
374.898	60.42
375.109	95.23
375.319	29.7
375.53	72.7
375.74	87.04
375.951	48.13
376.161	62.46
376.372	78.85
376.582	93.18
376.793	54.27
377.003	11.26
377.214	5.12
377.424	113.66
377.635	78.85
377.845	52.22
378.055	76.8
378.266	17.41
378.476	37.89
378.686	76.8
378.897	37.89
379.107	105.47
379.317	9.22
379.528	74.75
379.738	82.94
379.948	109.57
380.158	119.81
380.369	46.08
380.579	109.57
380.789	35.84
380.999	121.85
381.21	48.13
381.42	46.08
381.63	48.13
381.84	146.43
382.05	119.81
382.261	105.47
382.471	109.57
382.681	-1.02
382.891	130.05
383.101	60.42
383.311	31.74
383.521	41.98
383.731	44.03
383.941	52.22
384.151	-1.02
384.361	80.89
384.571	70.65
384.781	109.57
384.991	72.7
385.201	119.81
385.411	64.51
385.621	84.99
385.831	17.41
386.041	50.18
386.251	121.85
386.461	21.5
386.671	23.55
386.881	76.8
387.091	60.42
387.301	52.22
387.511	7.17
387.72	130.05
387.93	162.81
388.14	27.65
388.35	82.94
388.56	128
388.769	68.61
388.979	58.37
389.189	31.74
389.399	111.61
389.609	101.37
389.818	121.85
390.028	56.32
390.238	23.55
390.447	25.6
390.657	64.51
390.867	105.47
391.076	54.27
391.286	39.94
391.496	64.51
391.705	23.55
391.915	70.65
392.125	78.85
392.334	95.23
392.544	56.32
392.753	21.5
392.963	64.51
393.172	48.13
393.382	13.31
393.591	78.85
393.801	84.99
394.01	175.1
394.22	74.75
394.429	99.33
394.639	76.8
394.848	162.81
395.058	46.08
395.267	154.62
395.477	148.48
395.686	105.47
395.895	142.33
396.105	175.1
396.314	107.52
396.524	154.62
396.733	56.32
396.942	97.28
397.152	166.91
397.361	115.71
397.57	125.95
397.78	91.13
397.989	121.85
398.198	218.11
398.407	160.77
398.617	173.05
398.826	128
399.035	142.33
399.244	138.24
399.453	113.66
399.663	138.24
399.872	164.86
400.081	82.94
400.29	168.96
400.499	138.24
400.708	154.62
400.917	123.9
401.127	117.76
401.336	91.13
401.545	87.04
401.754	189.44
401.963	117.76
402.172	134.14
402.381	44.03
402.59	134.14
402.799	148.48
403.008	164.86
403.217	121.85
403.426	132.09
403.635	97.28
403.844	93.18
404.053	181.25
404.262	171.01
404.471	173.05
404.68	230.4
404.888	125.95
405.097	177.15
405.306	168.96
405.515	222.2
405.724	220.16
405.933	224.25
406.142	197.63
406.35	216.06
406.559	220.16
406.768	242.68
406.977	244.73
407.185	216.06
407.394	310.27
407.603	214.01
407.812	226.3
408.02	369.66
408.229	322.56
408.438	246.78
408.646	281.6
408.855	214.01
409.064	300.03
409.272	279.55
409.481	324.6
409.69	375.8
409.898	302.08
410.107	375.8
410.315	404.47
410.524	406.52
410.733	388.09
410.941	435.19
411.15	422.91
411.358	510.97
411.567	508.92
411.775	449.53
411.984	523.26
412.192	465.91
412.401	519.16
412.609	629.75
412.818	607.22
413.026	609.27
413.234	615.41
413.443	531.45
413.651	629.75
413.86	666.61
414.068	795.64
414.276	738.29
414.485	703.48
414.693	816.12
414.901	756.72
415.11	906.23
415.318	799.73
415.526	936.95
415.734	883.7
415.943	936.95
416.151	965.62
416.359	975.86
416.567	1100.78
416.776	1041.39
416.984	1063.92
417.192	1121.26
417.4	1190.89
417.608	1098.74
417.817	1274.86
418.025	1227.76
418.233	1360.88
418.441	1334.25
418.649	1354.73
418.857	1545.19
419.065	1588.2
419.273	1498.09
419.481	1610.73
419.689	1737.7
419.897	1733.61
420.105	1803.24
420.313	1913.83
420.521	1897.44
420.729	1938.4
420.937	1913.83
421.145	2010.08
421.353	2028.51
421.561	2309.08
421.769	2237.41
421.977	2440.15
422.185	2304.99
422.393	2544.6
422.601	2647
422.809	2655.19
423.017	2577.37
423.224	2755.54
423.432	2864.08
423.64	2880.47
423.848	3087.31
424.056	3183.57
424.263	3347.4
424.471	3484.62
424.679	3437.52
424.887	3589.07
425.094	3777.48
425.302	3640.26
425.51	3886.02
425.718	3992.52
425.925	3959.75
426.133	4264.89
426.341	4365.25
426.548	4498.36
426.756	4555.71
426.964	4692.92
427.171	4895.67
427.379	4963.25
427.586	5176.24
427.794	5252.02
428.001	5561.26
428.209	5782.44
428.417	5837.73
428.624	6091.68
428.832	6067.11
429.039	6112.16
429.247	6013.86
429.454	6763.42
429.662	7205.78
429.869	6462.37
430.076	7218.07
430.284	6841.24
430.491	7218.07
430.699	7441.29
430.906	7443.34
431.114	7642
431.321	7979.91
431.528	8221.57
431.736	8592.25
431.943	9083.77
432.15	8846.2
432.358	8917.88
432.565	9401.2
432.772	9274.23
432.979	9968.49
433.187	9870.19
433.394	10195.81
433.601	10507.1
433.808	10742.62
434.016	10466.14
434.223	10994.52
434.43	11840.33
434.637	11754.32
434.844	12376.9
435.052	12407.62
435.259	12290.88
435.466	12503.87
435.673	12223.3
435.88	13269.81
436.087	13783.85
436.294	13916.97
436.501	13273.91
436.708	14015.27
436.915	14269.22
437.122	15029.02
437.329	14805.79
437.537	15192.86
437.743	15242.01
437.95	15553.3
438.157	16259.85
438.364	16900.86
438.571	16915.2
438.778	16919.29
438.985	18637.54
439.192	17433.33
439.399	18074.35
439.606	17619.7
439.813	18969.31
440.02	20216.52
440.227	19655.38
440.433	19450.58
440.64	19909.33
440.847	19839.7
441.054	20368.07
441.261	21940.91
441.467	21719.73
441.674	21883.57
441.881	22827.68
442.088	22713
442.294	22694.57
442.501	23343.77
442.708	23380.64
442.914	24654.47
443.121	25356.93
443.328	25021.06
443.534	26452.59
443.741	25840.25
443.948	25524.86
444.154	27486.81
444.361	27173.47
444.568	27404.89
444.774	27374.17
444.981	27675.23
445.187	28228.18
445.394	29483.58
445.6	29215.3
445.807	32018.97
446.013	30831.15
446.22	31197.73
446.426	32440.85
446.633	32705.04
446.839	33477.12
447.046	32014.87
447.252	34243.06
447.459	34046.46
447.665	33952.25
447.871	35283.43
448.078	36598.23
448.284	35023.34
448.491	35908.06
448.697	37675.46
448.903	37874.11
449.11	38087.1
449.316	37468.61
449.522	38076.86
449.728	39166.38
449.935	39328.17
450.141	39207.34
450.347	39840.16
450.553	39039.4
450.76	39326.12
450.966	40438.17
451.172	40288.67
451.378	40880.53
451.584	40040.86
451.791	40853.9
451.997	41259.4
452.203	41689.48
452.409	41798.02
452.615	40931.73
452.821	40092.06
453.027	39518.63
453.233	41398.66
453.44	39481.77
453.646	40155.55
453.852	40442.26
454.058	40862.1
454.264	39547.3
454.47	40235.42
454.676	39717.28
454.882	40837.52
455.088	37089.74
455.294	37867.97
455.5	38134.2
455.705	38779.31
455.911	37511.62
456.117	36422.1
456.323	35711.46
456.529	34054.65
456.735	35492.32
456.941	34423.28
457.147	33989.11
457.352	32934.41
457.558	32739.85
457.764	32434.71
457.97	31937.05
458.176	31283.75
458.381	31568.41
458.587	29835.83
458.793	29448.77
458.999	28310.1
459.204	30016.05
459.41	29680.19
459.616	27421.28
459.821	27593.31
460.027	27191.91
460.233	26788.46
460.438	25297.53
460.644	25795.19
460.85	24470.15
461.055	24246.93
461.261	24177.3
461.466	22465.19
461.672	21578.42
461.878	23409.31
462.083	21754.55
462.289	21435.06
462.494	21519.03
462.7	20394.7
462.905	19919.57
463.111	20044.49
463.316	20452.04
463.522	20198.09
463.727	20163.28
463.932	19954.38
464.138	19747.54
464.343	19679.96
464.549	19391.19
464.754	20277.96
464.959	19860.18
465.165	19466.97
465.37	18844.38
465.575	18346.73
465.781	19108.57
465.986	19333.85
466.191	18612.96
466.397	18223.85
466.602	17423.09
466.807	17986.29
467.012	17898.22
467.218	17978.09
467.423	17699.57
467.628	17941.23
467.833	18520.81
468.038	17636.08
468.244	17251.06
468.449	18060.01
468.654	17468.15
468.859	17195.77
469.064	17101.56
469.269	16718.59
469.474	16653.06
469.679	17009.4
469.885	16352.01
470.09	16790.27
470.295	16567.04
470.5	16028.43
470.705	16329.48
470.91	15991.56
471.115	15966.99
471.32	16087.82
471.525	15837.97
471.73	15561.49
471.935	15418.13
472.139	14785.31
472.344	15041.31
472.549	15184.66
472.754	15026.97
472.959	14621.47
473.164	14023.47
473.369	13980.46
473.574	14547.75
473.778	14250.79
473.983	13972.27
474.188	14301.99
474.393	13503.28
474.598	13816.62
474.802	13654.83
475.007	13525.81
475.212	13273.91
475.417	12985.15
475.621	13101.88
475.826	13097.78
476.031	12510.02
476.235	12616.51
476.44	12739.39
476.645	12624.7
476.849	12389.19
477.054	12206.92
477.259	12266.31
477.463	12168.01
477.668	12024.65
477.872	12106.57
478.077	11729.74
478.282	11526.99
478.486	11404.11
478.691	11496.27
478.895	11305.81
479.1	11377.49
479.304	11332.44
479.509	10920.79
479.713	11105.11
479.918	10873.69
480.122	10906.46
480.326	10947.42
480.531	10974.04
480.735	10845.02
480.94	10746.72
481.144	11090.77
481.348	10601.31
481.553	10701.66
481.757	10611.55
481.961	10609.5
482.166	10607.45
482.37	10537.82
482.574	10355.55
482.778	10304.35
482.983	10795.87
483.187	10658.65
483.391	10683.23
483.595	10412.9
483.8	10572.64
484.004	10414.95
484.208	10572.64
484.412	10568.54
484.616	10556.25
484.821	10578.78
485.025	10423.14
485.229	10617.69
485.433	10201.96
485.637	10378.08
485.841	10429.28
486.045	10607.45
486.249	10509.15
486.453	10488.67
486.657	10566.49
486.861	10214.24
487.065	10287.97
487.269	10462.05
487.473	10341.22
487.677	10605.41
487.881	10492.77
488.085	10447.71
488.289	10552.16
488.493	10541.92
488.697	10488.67
488.901	10603.36
489.105	10677.09
489.309	10744.67
489.512	10740.57
489.716	10558.3
489.92	10490.72
490.124	10664.8
490.328	10914.65
490.531	10607.45
490.735	11053.91
490.939	10828.63
491.143	10906.46
491.346	10752.86
491.55	10926.94
491.754	10974.04
491.958	11158.36
492.161	10957.66
492.365	10994.52
492.569	11135.83
492.772	11135.83
492.976	11182.93
493.18	11473.74
493.383	11535.18
493.587	11457.36
493.79	11559.76
493.994	11273.04
494.197	11684.69
494.401	11668.3
494.605	11817.8
494.808	12010.31
495.012	11916.11
495.215	11977.55
495.419	11967.31
495.622	12012.36
495.825	12213.06
496.029	12395.33
496.232	12616.51
496.436	12481.35
496.639	12923.71
496.843	12671.81
497.046	13079.35
497.249	13155.13
497.453	13081.4
497.656	13245.24
497.859	13388.6
498.063	13564.72
498.266	13994.79
498.469	13568.82
498.673	13933.36
498.876	14043.95
499.079	14312.23
499.282	14318.37
499.485	14664.48
499.689	14527.27
499.892	14574.37
500.095	15033.11
500.298	15135.51
500.501	15309.59
500.705	15631.12
500.908	15545.11
501.111	15809.29
501.314	15833.87
501.517	16192.26
501.72	16341.77
501.923	16327.43
502.126	16689.92
502.329	16968.45
502.532	16921.34
502.735	16876.29
502.938	17619.7
503.141	17554.16
503.344	18045.68
503.547	17961.71
503.75	17898.22
503.953	18600.68
504.156	18447.08
504.359	18883.3
504.562	18660.07
504.765	19196.64
504.968	19430.1
505.17	19618.52
505.373	19518.17
505.576	20140.75
505.779	20208.33
505.982	20257.48
506.185	20685.51
506.387	20900.55
506.59	20964.03
506.793	21336.76
506.996	21336.76
507.198	21824.18
507.401	21586.61
507.604	22303.4
507.807	22803.11
508.009	22553.26
508.212	22821.54
508.415	23108.26
508.617	23386.78
508.82	23534.23
509.022	23497.37
509.225	23960.21
509.428	24205.97
509.63	24496.78
509.833	24406.67
510.035	25019.01
510.238	25019.01
510.44	25463.42
510.643	25940.6
510.845	26305.13
511.048	25977.46
511.25	26262.13
511.453	26454.64
511.655	27566.68
511.858	27216.48
512.06	27095.65
512.262	27802.2
512.465	27673.18
512.667	28146.26
512.87	28392.01
513.072	28662.35
513.274	29104.71
513.477	29491.77
513.679	29712.95
513.881	29862.46
514.084	30321.2
514.286	30100.02
514.488	30648.88
514.69	31509.02
514.893	31414.82
515.095	31181.35
515.297	31699.48
515.499	31658.52
515.701	32322.07
515.904	32764.43
516.106	32858.63
516.308	32836.11
516.51	33618.43
516.712	33468.93
516.914	33606.14
517.116	34404.85
517.318	34646.51
517.52	34810.35
517.722	35336.68
517.925	35459.55
518.127	35963.36
518.329	36030.94
518.531	36078.04
518.733	36579.79
518.935	36811.21
519.136	37095.88
519.338	37421.51
519.54	37953.98
519.742	38488.5
519.944	37822.91
520.146	38850.99
520.348	39100.84
520.55	39268.78
520.752	39465.38
520.954	39858.59
521.155	39866.78
521.357	40497.56
521.559	40866.19
521.761	41087.37
521.963	41114
522.164	41632.13
522.366	41783.68
522.568	42475.9
522.77	42058.11
522.971	42815.86
523.173	42447.22
523.375	42674.55
523.576	43247.98
523.778	43700.58
523.98	43827.56
524.181	44378.46
524.383	43856.23
524.584	44722.52
524.786	44740.95
524.988	44597.59
525.189	45293.9
525.391	45117.78
525.592	45662.54
525.794	45941.06
525.995	45793.61
526.197	45713.73
526.398	45998.4
526.6	46596.41
526.801	46833.97
527.003	46848.31
527.204	46537.02
527.406	47194.42
527.607	47182.13
527.808	47950.12
528.01	47157.55
528.211	47640.87
528.412	48462.11
528.614	48179.49
528.815	48443.68
529.016	48402.72
529.218	48324.89
529.419	48558.36
529.62	49002.77
529.822	48754.97
530.023	48980.24
530.224	49135.89
530.425	49033.49
530.626	48808.22
530.828	48660.76
531.029	50135.3
531.23	49309.97
531.431	49342.74
531.632	49717.51
531.833	49864.97
532.035	49447.18
532.236	49615.11
532.437	50161.92
532.638	49559.82
532.839	50223.36
533.04	50192.64
533.241	49887.49
533.442	50671.87
533.643	49783.05
533.844	49967.37
534.045	50256.13
534.246	50069.76
534.447	50475.26
534.648	50460.93
534.849	50725.11
535.05	49889.54
535.251	50450.69
535.451	50239.75
535.652	50847.99
535.853	50409.73
536.054	50342.14
536.255	50557.18
536.456	50379.01
536.657	50833.66
536.857	50581.76
537.058	50391.3
537.259	50630.91
537.46	50731.26
537.66	50325.76
537.861	50757.88
538.062	50397.44
538.263	50696.44
538.463	50204.93
538.664	50704.63
538.865	50764.03
539.065	50784.51
539.266	49783.05
539.466	50555.13
539.667	50209.03
539.868	51144.95
540.068	50399.49
540.269	50499.84
540.469	50577.66
540.67	50204.93
540.87	50391.3
541.071	51077.36
541.271	50802.94
541.472	50561.28
541.672	50340.1
541.873	50221.31
542.073	50030.85
542.274	51097.84
542.474	50610.43
542.675	50487.55
542.875	50508.03
543.075	50737.4
543.276	49651.98
543.476	50741.5
543.676	50170.11
543.877	50522.37
544.077	50559.23
544.277	50589.95
544.478	50270.46
544.678	50473.21
544.878	50299.14
545.078	50106.63
545.279	50104.58
545.479	50055.43
545.679	50397.44
545.879	50157.83
546.079	50508.03
546.28	50151.68
546.48	49842.44
546.68	50434.3
546.88	50465.02
547.08	50088.2
547.28	50112.77
547.48	49877.25
547.68	50465.02
547.88	49783.05
548.081	50317.57
548.281	50213.12
548.481	50176.26
548.681	50360.58
548.881	50114.82
549.081	49899.78
549.28	50100.48
549.48	50237.7
549.68	49924.36
549.88	50546.94
550.08	49697.03
550.28	50051.33
550.48	49957.13
550.68	49989.89
550.88	49893.64
551.08	49545.48
551.279	50067.72
551.479	49623.31
551.679	50118.92
551.879	49848.58
552.079	49735.95
552.278	49363.21
552.478	49905.93
552.678	49854.73
552.878	49928.45
553.077	49787.14
553.277	49584.4
553.477	50217.22
553.676	49226
553.876	49527.05
554.076	49240.34
554.275	49570.06
554.475	49103.12
554.674	49942.79
554.874	49742.09
555.074	49246.48
555.273	49848.58
555.473	49807.62
555.672	49326.35
555.872	49176.85
556.071	49174.8
556.271	49471.76
556.47	48791.83
556.67	48910.61
556.869	48978.2
557.068	49742.09
557.268	48726.3
557.467	48980.24
557.667	48832.79
557.866	48746.78
558.065	48679.19
558.265	48599.32
558.464	48230.69
558.663	48720.15
558.863	48392.48
559.062	48603.42
559.261	48816.41
559.461	48814.36
559.66	48075.04
559.859	48302.37
560.058	48120.1
560.258	48372
560.457	47661.35
560.656	48423.2
560.855	47499.56
561.054	47991.08
561.253	47532.33
561.453	47839.53
561.652	47864.1
561.851	47634.73
562.05	47405.36
562.249	47634.73
562.448	47444.27
562.647	47397.16
562.846	47038.77
563.045	47417.64
563.244	46655.8
563.443	46833.97
563.642	46430.52
563.841	47069.49
564.04	47030.58
564.239	46930.23
564.438	46219.58
564.637	46641.46
564.836	46420.28
565.035	46211.39
565.234	46162.24
565.432	46133.57
565.631	45973.83
565.83	46055.75
566.029	45773.13
566.228	45873.48
566.427	45656.39
566.625	45467.98
566.824	45222.22
567.023	45695.3
567.222	44824.92
567.42	45437.26
567.619	45191.5
567.818	44992.85
568.016	44982.61
568.215	45330.76
568.414	44460.38
568.612	44798.29
568.811	44722.52
569.01	44452.19
569.208	44155.23
569.407	44085.6
569.605	43452.78
569.804	44587.35
570.002	43706.73
570.201	43764.07
570.4	43843.94
570.598	43573.61
570.797	43090.29
570.995	43659.62
571.193	43026.8
571.392	43549.03
571.59	42774.9
571.789	42811.76
571.987	42938.74
572.186	42582.39
572.384	42801.52
572.582	42699.12
572.781	42805.62
572.979	41974.14
573.177	42086.78
573.376	42363.26
573.574	42008.96
573.772	42494.33
573.971	41669
574.169	41822.59
574.367	41591.17
574.565	41507.21
574.763	41345.42
574.962	41433.48
575.16	40741.27
575.358	41382.28
575.556	40618.39
575.754	41304.46
575.952	40763.79
576.151	40735.12
576.349	40583.57
576.547	40333.72
576.745	39979.42
576.943	40669.59
577.141	40401.3
577.339	40501.65
577.537	40026.53
577.735	40356.25
577.933	39530.92
578.131	39823.78
578.329	39739.81
578.527	39145.9
578.725	39858.59
578.923	39641.51
579.121	39219.63
579.319	39014.83
579.516	39440.81
579.714	39258.54
579.912	38775.22
580.11	38814.13
580.308	38699.44
580.506	38760.88
580.704	38502.84
580.901	38640.05
581.099	38871.47
581.297	38212.02
581.495	38146.49
581.692	38230.46
581.89	37784
582.088	38087.1
582.285	37843.39
582.483	38271.42
582.681	37566.91
582.878	37495.24
583.076	36628.95
583.274	37376.45
583.471	36956.62
583.669	37308.87
583.866	36671.95
584.064	37042.63
584.262	36522.45
584.459	36983.24
584.657	36819.41
584.854	36702.67
585.052	35946.97
585.249	36760.02
585.447	36325.85
585.644	35852.76
585.841	36200.92
586.039	36356.57
586.236	35844.57
586.434	35512.8
586.631	35592.67
586.828	35537.38
587.026	35377.64
587.223	35287.53
587.42	35004.91
587.618	35375.59
587.815	34908.65
588.012	34666.99
588.21	35004.91
588.407	35312.1
588.604	34654.7
588.801	34482.67
588.999	34451.95
589.196	34533.87
589.393	34523.63
589.59	34333.17
589.787	33806.84
589.984	33917.43
590.182	33485.31
590.379	34068.98
590.576	33487.36
590.773	33567.23
590.97	33839.61
591.167	33749.5
591.364	33151.49
591.561	33380.87
591.758	32987.66
591.955	33100.29
592.152	33563.14
592.349	32868.87
592.546	32891.4
592.743	33196.55
592.94	32178.71
593.137	32633.36
593.334	32864.78
593.531	32207.38
593.727	32494.1
593.924	32215.57
594.121	31818.27
594.318	32150.04
594.515	31687.2
594.712	31877.66
594.908	31644.19
595.105	31662.62
595.302	31414.82
595.499	31474.21
595.696	31259.17
595.892	31095.33
596.089	31517.22
596.286	31128.1
596.482	31121.96
596.679	30872.1
596.876	30997.03
597.072	30863.91
597.269	30591.53
597.466	30448.18
597.662	30569.01
597.859	30353.97
598.055	30200.37
598.252	30095.92
598.448	30308.91
598.645	30358.06
598.841	29755.96
599.038	30065.21
599.234	29706.81
599.431	29796.92
599.627	29663.8
599.824	29590.08
600.02	29483.58
600.217	29362.75
600.413	29141.57
600.609	29172.29
600.806	28959.3
601.002	28963.4
601.198	28699.21
601.395	28992.07
601.591	28750.41
601.787	28580.43
601.984	28437.07
602.18	29002.31
602.376	28228.18
602.572	28224.08
602.769	28387.92
602.965	28152.4
603.161	28336.72
603.357	27699.8
603.553	27740.76
603.75	27947.61
603.946	27763.29
604.142	27779.67
604.338	27193.95
604.534	27732.57
604.73	27470.43
604.926	27259.49
605.122	27331.17
605.318	26796.65
605.514	26866.28
605.71	26739.3
605.906	26702.44
606.102	26919.53
606.298	26552.94
606.494	26978.92
606.69	26774.12
606.886	26739.3
607.082	26292.85
607.278	26456.68
607.474	26358.38
607.67	26411.63
607.866	25731.7
608.062	26501.74
608.257	26038.9
608.453	26020.47
608.649	25932.4
608.845	25565.82
609.041	25698.94
609.236	26247.79
609.432	25643.64
609.628	26083.95
609.824	25653.88
610.019	25455.23
610.215	25748.09
610.411	25774.71
610.606	25326.21
610.802	25866.87
610.998	25395.84
611.193	25471.61
611.389	25125.5
611.584	25164.42
611.78	25180.8
611.976	25109.12
612.171	25158.27
612.367	25074.31
612.562	24832.65
612.758	24363.66
612.953	24572.55
613.149	24914.56
613.344	24396.43
613.539	25066.11
613.735	24668.81
613.93	24742.53
614.126	24441.48
614.321	25170.56
614.517	24617.61
614.712	24365.71
614.907	24220.3
615.103	24517.26
615.298	24353.42
615.493	24527.5
615.688	23587.48
615.884	24685.19
616.079	23968.4
616.274	23962.26
616.47	23966.35
616.665	23724.69
616.86	23845.52
617.055	23509.66
617.25	23706.26
617.445	23825.04
617.641	23415.45
617.836	23550.62
618.031	23286.43
618.226	23564.95
618.421	23141.02
618.616	23212.7
618.811	22895.27
619.006	23290.52
619.201	22717.09
619.396	23270.04
619.591	22391.47
619.786	22870.69
619.981	22301.36
620.176	22553.26
620.371	22405.8
620.566	22252.2
620.761	22086.32
620.956	22323.88
621.151	21856.95
621.346	22268.59
621.541	21809.84
621.735	22121.13
621.93	21834.42
622.125	21652.15
622.32	21269.18
622.515	21695.16
622.709	21244.6
622.904	21486.26
623.099	20816.58
623.294	20984.51
623.488	20910.78
623.683	20806.34
623.878	20515.53
624.072	20671.17
624.267	20476.62
624.462	20171.47
624.656	19864.27
624.851	20544.2
625.046	20032.21
625.24	20038.35
625.435	19706.58
625.629	19489.49
625.824	19421.91
626.018	19442.39
626.213	18963.17
626.407	19327.71
626.602	19081.95
626.796	19237.59
626.991	19075.8
627.185	19065.57
627.38	18772.71
627.574	18604.77
627.768	18612.96
627.963	18815.71
628.157	18397.93
628.352	18465.51
628.546	18150.12
628.74	18287.34
628.935	17711.86
629.129	18125.55
629.323	17746.67
629.517	17910.51
629.712	17926.89
629.906	17642.23
630.1	17191.67
630.294	17593.08
630.489	17332.98
630.683	17150.71
630.877	17279.74
631.071	16847.61
631.265	16896.77
631.459	16933.63
631.653	16792.32
631.848	16700.16
632.042	16628.48
632.236	16528.13
632.43	16169.74
632.624	16288.52
632.818	16237.32
633.012	16155.4
633.206	16012.04
633.4	16231.18
633.594	15678.22
633.788	15952.65
633.982	15674.13
634.176	15653.65
634.369	15557.39
634.563	15729.42
634.757	15305.49
634.951	15520.53
635.145	15147.8
635.339	15233.82
635.533	15061.79
635.726	14992.16
635.92	15000.35
636.114	14775.07
636.308	14830.37
636.501	14709.54
636.695	14732.06
636.889	14930.72
637.083	14185.26
637.276	14408.48
637.47	14091.05
637.664	14076.71
637.857	14514.98
638.051	14211.88
638.244	14189.35
638.438	13783.85
638.632	14066.47
638.825	13699.89
639.019	13937.45
639.212	13685.55
639.406	13513.52
639.599	13640.5
639.793	13425.46
639.986	13339.44
640.18	13347.64
640.373	13396.79
640.567	13056.82
640.76	13235
640.954	12792.64
641.147	12639.04
641.34	12827.45
641.534	12847.93
641.727	12647.23
641.92	12864.32
642.114	12407.62
642.307	12585.79
642.5	12544.83
642.694	12213.06
642.887	12229.45
643.08	12491.59
643.273	12135.24
643.467	12196.68
643.66	11809.61
643.853	11985.74
644.046	11748.17
644.239	12055.37
644.432	11856.72
644.626	11682.64
644.819	11731.79
645.012	11680.59
645.205	11711.31
645.398	11656.01
645.591	11653.97
645.784	11545.42
645.977	11164.5
646.17	11207.51
646.363	11164.5
646.556	10959.7
646.749	11101.01
646.942	11168.6
647.135	11174.74
647.328	10804.06
647.521	10951.51
647.714	10740.57
647.907	10644.32
648.099	10761.05
648.292	10707.8
648.485	10474.34
648.678	10337.12
648.871	10396.51
649.064	10373.99
649.256	10419.04
649.449	10240.87
649.642	10408.8
649.835	10027.88
650.027	10279.78
650.22	10173.28
650.413	10095.46
650.605	10101.61
650.798	10025.83
650.991	9902.95
651.183	9837.42
651.376	9689.96
651.568	9788.27
651.761	9829.23
651.954	9583.47
652.146	9661.29
652.339	9585.52
652.531	9589.61
652.724	9554.8
652.916	9335.67
653.109	9345.91
653.301	9235.32
653.494	9329.52
653.686	9186.16
653.879	9261.94
654.071	9171.83
654.263	9036.66
654.456	8962.94
654.648	8909.69
654.84	8883.06
655.033	8565.63
655.225	8909.69
655.417	8764.28
655.61	8721.27
655.802	8874.87
655.994	8786.81
656.186	8756.09
656.379	8508.29
656.571	8643.45
656.763	8434.56
656.955	8362.88
657.148	8375.17
657.34	8434.56
657.532	8217.47
657.724	8260.48
657.916	8246.15
658.108	8330.11
658.3	8254.34
658.492	8211.33
658.684	8117.12
658.876	8024.97
659.068	7824.26
659.26	7891.85
659.452	7871.37
659.644	7814.02
659.836	7703.43
660.028	8098.69
660.22	7644.04
660.412	7709.58
660.604	7560.08
660.796	7601.04
660.988	7488.4
661.18	7461.77
661.372	7453.58
661.563	7342.99
661.755	7259.03
661.947	7375.76
662.139	7388.05
662.331	7308.18
662.522	7336.85
662.714	7228.31
662.906	7220.11
663.097	7273.36
663.289	7183.25
663.481	6972.31
663.673	7046.04
663.864	7035.8
664.056	7029.65
664.247	6820.76
664.439	6792.09
664.631	6880.15
664.822	6978.45
665.014	6855.58
665.205	6701.98
665.397	6927.25
665.588	6869.91
665.78	6603.68
665.971	6744.99
666.163	6628.25
666.354	6753.18
666.546	6605.72
666.737	6685.59
666.929	6642.59
667.12	6448.03
667.311	6376.35
667.503	6327.2
667.694	6386.59
667.885	6380.45
668.077	6445.98
668.268	6329.25
668.459	6179.75
668.651	6296.48
668.842	6243.23
669.033	6069.16
669.224	6292.38
669.416	6146.98
669.607	6128.55
669.798	6306.72
669.989	6157.22
670.18	6065.06
670.371	6228.9
670.563	5974.95
670.754	6020
670.945	5868.45
671.136	5946.28
671.327	6054.82
671.518	5929.89
671.709	5995.43
671.9	6058.92
672.091	5876.65
672.282	5788.58
672.473	5651.37
672.664	5919.65
672.855	5874.6
673.046	5819.3
673.237	5946.28
673.428	5604.27
673.619	5639.08
673.809	5694.38
674	5686.19
674.191	5815.21
674.382	5491.63
674.573	5608.36
674.764	5551.02
674.954	5700.52
675.145	5532.59
675.336	5528.49
675.527	5409.71
675.717	5677.99
675.908	5536.68
676.099	5659.56
676.289	5405.61
676.48	5458.86
676.671	5495.72
676.861	5438.38
677.052	5473.2
677.243	5432.24
677.433	5442.48
677.624	5467.05
677.814	5393.33
678.005	5393.33
678.195	5276.59
678.386	5348.27
678.576	5458.86
678.767	5313.45
678.957	5223.34
679.148	5317.55
679.338	5370.8
679.529	5295.02
679.719	5282.74
679.909	5350.32
680.1	5159.86
680.29	5323.69
680.481	5325.74
680.671	5280.69
680.861	5157.81
681.052	5399.47
681.242	5104.56
681.432	5241.78
681.622	5157.81
681.813	5264.3
682.003	5331.89
682.193	5157.81
682.383	5096.37
682.573	5159.86
682.764	5122.99
682.954	5106.61
683.144	5194.67
683.334	5145.52
683.524	5125.04
683.714	5204.91
683.904	4881.33
684.094	4998.07
684.284	5049.27
684.474	4963.25
684.664	5006.26
684.854	5098.42
685.044	5018.55
685.234	5047.22
685.424	4901.81
685.614	4899.77
685.804	4926.39
685.994	4987.83
686.184	5073.84
686.374	4862.9
686.564	4895.67
686.753	4817.85
686.943	4873.14
687.133	4924.34
687.323	4811.7
687.513	4850.61
687.702	4887.48
687.892	4744.12
688.082	4819.89
688.272	4932.53
688.461	4619.19
688.651	4721.59
688.841	4727.74
689.03	4752.31
689.22	4594.62
689.41	4547.51
689.599	4686.78
689.789	4570.04
689.979	4535.23
690.168	4510.65
690.358	4688.82
690.547	4420.54
690.737	4588.47
690.926	4555.71
691.116	4369.34
691.305	4518.84
691.495	4426.68
691.684	4418.49
691.874	4299.71
692.063	4438.97
692.252	4314.05
692.442	4438.97
692.631	4357.05
692.82	4412.35
693.01	4279.23
693.199	4256.7
693.388	4266.94
693.578	4211.65
693.767	4217.79
693.956	4064.19
694.146	4162.5
694.335	4375.49
694.524	4080.58
694.713	4320.19
694.902	4185.02
695.092	4191.17
695.281	4103.11
695.47	4201.41
695.659	4019.14
695.848	4060.1
696.037	4078.53
696.226	4056
696.415	4029.38
696.604	4199.36
696.793	3988.42
696.982	3914.69
697.171	4074.43
697.36	4045.76
697.549	4094.91
697.738	3945.41
697.927	4051.91
698.116	3972.04
698.305	4015.04
698.494	3877.83
698.683	4058.05
698.872	3980.23
699.061	3908.55
699.25	3957.7
699.438	3855.3
699.627	3994.56
699.816	3972.04
700.005	3931.08
700.193	3877.83
700.382	3869.64
700.571	3822.53
700.76	3865.54
700.948	4066.24
701.137	3918.79
701.326	3806.15
701.514	3920.84
701.703	4006.85
701.892	3863.49
702.08	3824.58
702.269	3873.73
702.457	3757
702.646	3869.64
702.834	3955.65
703.023	3707.85
703.212	3746.76
703.4	3806.15
703.589	3951.56
703.777	3853.25
703.965	3873.73
704.154	3800.01
704.342	3806.15
704.531	3632.07
704.719	3832.77
704.907	3824.58
705.096	3816.39
705.284	3630.02
705.472	3859.4
705.661	3840.97
705.849	3732.42
706.037	3695.56
706.226	3808.2
706.414	3820.49
706.602	3795.91
706.79	3804.1
706.979	3605.45
707.167	3840.97
707.355	3793.86
707.543	3595.21
707.731	3716.04
707.919	3771.33
708.107	3716.04
708.296	3818.44
708.484	3707.85
708.672	3742.66
708.86	3773.38
709.048	3738.57
709.236	3775.43
709.424	3791.81
709.612	3656.65
709.8	3765.19
709.988	3707.85
710.176	3867.59
710.364	3779.53
710.551	3886.02
710.739	3775.43
710.927	3742.66
711.115	3742.66
711.303	3709.9
711.491	3773.38
711.679	3853.25
711.866	3699.66
712.054	3816.39
712.242	3824.58
712.43	3869.64
712.617	3646.41
712.805	3814.34
712.993	3607.5
713.181	3591.11
713.368	3726.28
713.556	3797.96
713.744	3652.55
713.931	3587.02
714.119	3627.98
714.306	3757
714.494	3705.8
714.682	3650.5
714.869	3695.56
715.057	3746.76
715.244	3658.7
715.432	3662.79
715.619	3677.13
715.807	3722.18
715.994	3773.38
716.182	3615.69
716.369	3814.34
716.556	3857.35
716.744	3808.2
716.931	3718.09
717.119	3754.95
717.306	3826.63
717.493	3881.92
717.681	3804.1
717.868	3791.81
718.055	3699.66
718.242	3779.53
718.43	3820.49
718.617	3736.52
718.804	3797.96
718.991	3656.65
719.179	3738.57
719.366	3554.25
719.553	3836.87
719.74	3697.61
719.927	3793.86
720.114	3660.74
720.301	3654.6
720.488	3595.21
720.676	3722.18
720.863	3615.69
721.05	3851.21
721.237	3781.57
721.424	3615.69
721.611	3785.67
721.798	3627.98
721.985	3644.36
722.172	3711.94
722.358	3687.37
722.545	3683.27
722.732	3599.31
722.919	3587.02
723.106	3662.79
723.293	3660.74
723.48	3646.41
723.667	3673.03
723.853	3718.09
724.04	3617.74
724.227	3576.78
724.414	3709.9
724.6	3574.73
724.787	3742.66
724.974	3554.25
725.161	3625.93
725.347	3607.5
725.534	3689.42
725.72	3603.4
725.907	3513.29
726.094	3619.78
726.28	3611.59
726.467	3541.96
726.653	3613.64
726.84	3609.54
727.027	3476.43
727.213	3615.69
727.4	3503.05
727.586	3619.78
727.773	3625.93
727.959	3642.31
728.145	3677.13
728.332	3642.31
728.518	3595.21
728.705	3738.57
728.891	3580.87
729.077	3513.29
729.264	3566.54
729.45	3498.95
729.636	3617.74
729.823	3408.84
730.009	3523.53
730.195	3521.48
730.382	3525.58
730.568	3544.01
730.754	3615.69
730.94	3562.44
731.126	3615.69
731.313	3638.22
731.499	3646.41
731.685	3515.34
731.871	3494.86
732.057	3503.05
732.243	3556.3
732.429	3410.89
732.615	3505.1
732.801	3474.38
732.987	3427.28
733.173	3492.81
733.359	3519.43
733.545	3361.74
733.731	3462.09
733.917	3380.17
734.103	3556.3
734.289	3501
734.475	3498.95
734.661	3615.69
734.847	3404.75
735.033	3525.58
735.219	3482.57
735.404	3392.46
735.59	3513.29
735.776	3359.69
735.962	3541.96
736.148	3437.52
736.333	3443.66
736.519	3333.07
736.705	3335.12
736.89	3410.89
737.076	3363.79
737.262	3312.59
737.447	3253.2
737.633	3306.45
737.819	3355.6
738.004	3392.46
738.19	3191.76
738.375	3302.35
738.561	3347.4
738.747	3257.29
738.932	3247.05
739.118	3353.55
739.303	3308.49
739.489	3226.57
739.674	3265.49
739.859	3111.89
740.045	3118.03
740.23	3236.81
740.416	3072.98
740.601	3304.4
740.786	3259.34
740.972	3240.91
741.157	3265.49
741.342	3199.95
741.528	3148.75
741.713	3144.66
741.898	3144.66
742.084	3077.07
742.269	3019.73
742.454	2939.86
742.639	3122.13
742.824	3156.94
743.01	3044.31
743.195	2943.96
743.38	2966.48
743.565	2993.11
743.75	3011.54
743.935	2872.28
744.12	3054.55
744.305	2970.58
744.49	2915.28
744.675	2986.96
744.86	2968.53
745.045	2915.28
745.23	2780.12
745.415	2767.83
745.6	2841.56
745.785	2796.5
745.97	2841.56
746.155	2808.79
746.34	2722.77
746.525	2903
746.71	2745.3
746.895	2749.4
747.079	2575.32
747.264	2708.44
747.449	2747.35
747.634	2618.33
747.819	2640.86
748.003	2589.66
748.188	2624.47
748.373	2575.32
748.557	2630.62
748.742	2644.95
748.927	2593.75
749.111	2612.18
749.296	2503.64
749.481	2497.5
749.665	2487.26
749.85	2503.64
750.034	2472.92
750.219	2483.16
750.404	2472.92
750.588	2438.11
750.773	2329.56
750.957	2317.28
751.141	2448.35
751.326	2362.33
751.51	2302.94
751.695	2380.76
751.879	2255.84
752.064	2366.43
752.248	2204.64
752.432	2276.32
752.617	2198.49
752.801	2255.84
752.985	2180.06
753.17	2241.5
753.354	2071.52
753.538	2194.4
753.722	2200.54
753.907	2132.96
754.091	2073.57
754.275	2120.67
754.459	2044.9
754.643	1981.41
754.828	2003.94
755.012	1956.83
755.196	1928.16
755.38	2075.62
755.564	1889.25
755.748	1893.35
755.932	1850.34
756.116	1934.31
756.3	1915.87
756.484	1831.91
756.668	1811.43
756.852	1852.39
757.036	1913.83
757.22	1815.52
757.404	1876.96
757.588	1866.72
757.772	1752.04
757.956	1749.99
758.14	1706.98
758.323	1758.18
758.507	1801.19
758.691	1719.27
758.875	1805.28
759.059	1678.31
759.242	1704.93
759.426	1620.97
759.61	1756.13
759.794	1743.85
759.977	1696.74
760.161	1696.74
760.345	1668.07
760.528	1696.74
760.712	1606.63
760.895	1606.63
761.079	1635.3
761.263	1672.17
761.446	1563.62
761.63	1637.35
761.813	1543.14
761.997	1567.72
762.18	1608.68
762.364	1483.75
762.547	1541.1
762.731	1453.03
762.914	1577.96
763.098	1455.08
763.281	1502.19
763.464	1577.96
763.648	1530.86
763.831	1455.08
764.015	1330.16
764.198	1436.65
764.381	1416.17
764.564	1471.47
764.748	1469.42
764.931	1498.09
765.114	1438.7
765.297	1459.18
765.481	1317.87
765.664	1395.69
765.847	1305.58
766.03	1629.16
766.213	1346.54
766.397	1354.73
766.58	1407.98
766.763	1399.79
766.946	1340.4
767.129	1332.2
767.312	1301.48
767.495	1354.73
767.678	1205.23
767.861	1233.9
768.044	1405.93
768.227	1252.33
768.41	1358.83
768.593	1317.87
768.776	1219.57
768.959	1194.99
769.142	1211.37
769.324	1254.38
769.507	1244.14
769.69	1258.48
769.873	1262.57
770.056	1344.49
770.239	1209.33
770.421	1160.17
770.604	1248.24
770.787	1186.8
770.97	1344.49
771.152	1192.94
771.335	1276.91
771.518	1170.41
771.7	1203.18
771.883	1219.57
772.066	1162.22
772.248	1225.71
772.431	1127.41
772.613	1233.9
772.796	1162.22
772.978	1154.03
773.161	1125.36
773.343	1117.17
773.526	1137.65
773.708	1125.36
773.891	1090.54
774.073	1061.87
774.256	1115.12
774.438	1031.15
774.621	1102.83
774.803	992.24
774.985	1031.15
775.168	1068.02
775.35	1004.53
775.532	1000.43
775.715	1006.58
775.897	1008.62
776.079	1000.43
776.261	934.9
776.444	994.29
776.626	1049.58
776.808	1014.77
776.99	1000.43
777.173	793.59
777.355	990.19
777.537	928.75
777.719	951.28
777.901	924.66
778.083	848.88
778.265	871.41
778.447	941.04
778.629	832.5
778.811	838.64
778.993	908.27
779.175	838.64
779.357	895.99
779.539	822.26
779.721	838.64
779.903	738.29
780.085	824.31
780.267	869.36
780.449	803.83
780.631	912.37
780.812	850.93
780.994	707.57
781.176	812.02
781.358	713.72
781.54	773.11
781.721	838.64
781.903	748.53
782.085	779.25
782.267	809.97
782.448	781.3
782.63	781.3
782.812	785.4
782.993	709.62
783.175	656.37
783.357	658.42
783.538	656.37
783.72	611.32
783.901	699.38
784.083	683
784.264	734.2
784.446	580.6
784.627	609.27
784.809	672.76
784.99	648.18
785.172	670.71
785.353	637.94
785.535	609.27
785.716	570.36
785.897	633.85
786.079	621.56
786.26	644.09
786.441	576.5
786.623	537.59
786.804	576.5
786.985	601.08
787.167	650.23
787.348	613.37
787.529	539.64
787.71	701.43
787.891	672.76
788.073	498.68
788.254	547.83
788.435	650.23
788.616	580.6
788.797	551.93
788.978	547.83
789.159	535.54
789.34	547.83
789.522	592.89
789.703	519.16
789.884	494.58
790.065	531.45
790.246	551.93
790.427	547.83
790.607	562.17
790.788	492.54
790.969	498.68
791.15	508.92
791.331	529.4
791.512	519.16
791.693	474.1
791.874	513.02
792.054	572.41
792.235	412.67
792.416	472.06
792.597	519.16
792.778	515.06
792.958	525.3
793.139	359.42
793.32	457.72
793.5	404.47
793.681	457.72
793.862	476.15
794.042	488.44
794.223	414.71
794.404	404.47
794.584	408.57
794.765	418.81
794.945	476.15
795.126	328.7
795.306	347.13
795.487	340.99
795.667	461.82
795.848	463.86
796.028	496.63
796.209	365.56
796.389	467.96
796.57	439.29
796.75	410.62
796.93	412.67
797.111	416.76
797.291	361.47
797.471	304.12
797.652	418.81
797.832	291.84
798.012	476.15
798.192	314.36
798.373	437.24
798.553	371.71
798.733	412.67
798.913	369.66
799.093	349.18
799.274	394.23
799.454	408.57
799.634	345.08
799.814	359.42
799.994	357.37
800.174	424.95
800.354	340.99
800.534	371.71
800.714	416.76
800.894	326.65
801.074	302.08
801.254	269.31
801.434	330.75
801.614	287.74
801.794	297.98
801.974	816.12
802.154	224.25
802.334	390.14
802.514	332.79
802.693	265.21
802.873	334.84
803.053	318.46
803.233	363.51
803.413	310.27
803.592	316.41
803.772	271.36
803.952	318.46
804.131	318.46
804.311	355.32
804.491	355.32
804.67	269.31
804.85	390.14
805.03	328.7
805.209	347.13
805.389	310.27
805.568	330.75
805.748	287.74
805.928	347.13
806.107	338.94
806.287	209.92
806.466	238.59
806.646	285.69
806.825	222.2
807.004	277.5
807.184	248.83
807.363	267.26
807.543	203.77
807.722	254.97
807.901	295.93
808.081	334.84
808.26	197.63
808.439	343.03
808.619	340.99
808.798	236.54
808.977	273.4
809.156	263.16
809.336	287.74
809.515	293.88
809.694	193.53
809.873	179.2
810.052	281.6
810.231	248.83
810.411	265.21
810.59	259.07
810.769	185.34
810.948	216.06
811.127	181.25
811.306	197.63
811.485	222.2
811.664	297.98
811.843	228.35
812.022	242.68
812.201	216.06
812.38	224.25
812.559	209.92
812.737	191.49
812.916	209.92
813.095	199.68
813.274	226.3
813.453	207.87
813.632	248.83
813.811	185.34
813.989	211.96
814.168	179.2
814.347	128
814.526	140.29
814.704	236.54
814.883	195.58
815.062	203.77
815.24	252.92
815.419	154.62
815.598	244.73
815.776	195.58
815.955	248.83
816.133	216.06
816.312	252.92
816.49	78.85
816.669	211.96
816.847	193.53
817.026	187.39
817.204	195.58
817.383	199.68
817.561	195.58
817.74	156.67
817.918	168.96
818.097	171.01
818.275	226.3
818.453	197.63
818.632	185.34
818.81	193.53
818.988	148.48
819.167	222.2
819.345	109.57
819.523	173.05
819.701	228.35
819.879	177.15
820.058	136.19
820.236	128
820.414	211.96
820.592	138.24
820.77	183.29
820.948	191.49
821.127	158.72
821.305	166.91
821.483	185.34
821.661	173.05
821.839	148.48
822.017	177.15
822.195	171.01
822.373	154.62
822.551	209.92
822.729	136.19
822.907	72.7
823.085	242.68
823.262	80.89
823.44	207.87
823.618	72.7
823.796	130.05
823.974	158.72
824.152	82.94
824.329	224.25
824.507	171.01
824.685	162.81
824.863	134.14
825.04	136.19
825.218	205.82
825.396	64.51
825.574	132.09
825.751	166.91
825.929	144.38
826.107	154.62
826.284	128
826.462	144.38
826.639	76.8
826.817	97.28
826.994	89.09
827.172	144.38
827.349	115.71
827.527	181.25
827.704	27.65
827.882	93.18
828.059	171.01
828.237	91.13
828.414	261.12
828.591	35.84
828.769	93.18
828.946	113.66
829.124	138.24
829.301	171.01
829.478	150.53
829.655	164.86
829.833	134.14
830.01	152.57
830.187	80.89
830.364	62.46
830.542	144.38
830.719	113.66
830.896	152.57
831.073	183.29
831.25	128
831.427	166.91
831.604	76.8
831.782	97.28
831.959	111.61
832.136	97.28
832.313	179.2
832.49	91.13
832.667	111.61
832.844	78.85
833.021	115.71
833.198	128
833.374	84.99
833.551	89.09
833.728	156.67
833.905	117.76
834.082	158.72
834.259	68.61
834.436	193.53
834.612	101.37
834.789	99.33
834.966	91.13
835.143	64.51
835.319	76.8
835.496	87.04
835.673	115.71
835.85	191.49
836.026	97.28
836.203	125.95
836.38	87.04
836.556	148.48
836.733	97.28
836.909	117.76
837.086	87.04
837.262	93.18
837.439	97.28
837.616	48.13
837.792	80.89
837.968	95.23
838.145	41.98
838.321	44.03
838.498	168.96
838.674	101.37
838.851	93.18
839.027	97.28
839.203	181.25
839.38	52.22
839.556	91.13
839.732	109.57
839.909	66.56
840.085	9.22
840.261	72.7
840.437	89.09
840.614	87.04
840.79	82.94
840.966	25.6
841.142	121.85
841.318	130.05
841.494	119.81
841.671	121.85
841.847	93.18
842.023	23.55
842.199	80.89
842.375	97.28
842.551	7.17
842.727	58.37
842.903	136.19
843.079	97.28
843.255	87.04
843.431	80.89
843.607	128
843.783	17.41
843.959	99.33
844.134	62.46
844.31	154.62
844.486	115.71
844.662	74.75
844.838	15.36
845.013	105.47
845.189	107.52
845.365	37.89
845.541	107.52
845.716	48.13
845.892	109.57
846.068	52.22
846.244	80.89
846.419	103.42
846.595	87.04
846.77	-9.22
846.946	-5.12
847.122	64.51
847.297	99.33
847.473	95.23
847.648	70.65
847.824	58.37
847.999	-9.22
848.175	82.94
848.35	103.42
848.526	21.5
848.701	84.99
848.876	99.33
849.052	33.79
849.227	109.57
849.403	15.36
849.578	70.65
849.753	84.99
849.929	66.56
850.104	33.79
850.279	15.36
850.454	1.02
850.63	93.18
850.805	7.17
850.98	46.08
851.155	27.65
851.33	27.65
851.505	19.46
851.681	87.04
851.856	72.7
852.031	56.32
852.206	101.37
852.381	66.56
852.556	60.42
852.731	74.75
852.906	48.13
853.081	13.31
853.256	54.27
853.431	52.22
853.606	46.08
853.781	39.94
853.956	5.12
854.131	128
854.305	46.08
854.48	27.65
854.655	1.02
854.83	31.74
855.005	33.79
855.18	46.08
855.354	54.27
855.529	103.42
855.704	-23.55
855.879	44.03
856.053	-3.07
856.228	62.46
856.403	13.31
856.577	74.75
856.752	48.13
856.926	17.41
857.101	70.65
857.276	44.03
857.45	15.36
857.625	19.46
857.799	56.32
857.974	70.65
858.148	-50.18
858.323	46.08
858.497	70.65
858.672	-15.36
858.846	91.13
859.02	87.04
859.195	60.42
859.369	31.74
859.543	70.65
859.718	56.32
859.892	5.12
860.066	103.42
860.241	37.89
860.415	-11.26
860.589	27.65
860.763	56.32
860.938	48.13
861.112	50.18
861.286	87.04
861.46	-3.07
861.634	21.5
861.808	41.98
861.982	15.36
862.157	68.61
862.331	29.7
862.505	-29.7
862.679	11.26
862.853	50.18
863.027	-50.18
863.201	33.79
863.375	7.17
863.549	29.7
863.722	68.61
863.896	105.47
864.07	-17.41
864.244	58.37
864.418	46.08
864.592	70.65
864.766	23.55
864.939	11.26
865.113	9.22
865.287	78.85
865.461	-66.56
865.634	5.12
865.808	-11.26
865.982	-101.37
866.156	50.18
866.329	-15.36
866.503	46.08
866.676	39.94
866.85	27.65
867.024	13.31
867.197	-27.65
867.371	21.5
867.544	64.51
867.718	33.79
867.891	46.08
868.065	17.41
868.238	9.22
868.412	74.75
868.585	7.17
868.759	19.46
868.932	-3.07
869.105	5.12
869.279	54.27
869.452	99.33
869.625	-27.65
869.799	72.7
869.972	-13.31
870.145	44.03
870.319	78.85
870.492	-15.36
870.665	15.36
870.838	33.79
871.011	15.36
871.185	-7.17
871.358	-9.22
871.531	5.12
871.704	25.6
871.877	80.89
872.05	44.03
872.223	15.36
872.396	-35.84
872.569	154.62
872.742	27.65
872.915	68.61
873.088	35.84
873.261	-15.36
873.434	-37.89
873.607	11.26
873.78	23.55
873.953	23.55
874.126	-19.46
874.299	9.22
874.471	-29.7
874.644	-39.94
874.817	-3.07
874.99	17.41
875.163	33.79
875.335	99.33
875.508	89.09
875.681	7.17
875.853	1.02
876.026	48.13
876.199	54.27
876.371	95.23
876.544	-37.89
876.717	7.17
876.889	-29.7
877.062	58.37
877.234	41.98
877.407	-3.07
877.579	72.7
877.752	58.37
877.924	121.85
878.097	11.26
878.269	41.98
878.442	60.42
878.614	-31.74
878.786	78.85
878.959	23.55
879.131	-29.7
879.303	-3.07
879.476	11.26
879.648	56.32
879.82	7.17
879.993	-115.71
880.165	-54.27
880.337	-54.27
880.509	89.09
880.681	3.07
880.854	128
881.026	27.65
881.198	146.43
881.37	3.07
881.542	-54.27
881.714	-44.03
881.886	-1.02
882.058	52.22
882.23	48.13
882.402	-5.12
882.574	25.6
882.746	-9.22
882.918	50.18
883.09	41.98
883.262	-29.7
883.434	39.94
883.606	25.6
883.778	68.61
883.95	58.37
884.122	48.13
884.293	15.36
884.465	31.74
884.637	37.89
884.809	-19.46
884.98	9.22
885.152	17.41
885.324	23.55
885.496	11.26
885.667	7.17
885.839	60.42
886.011	60.42
886.182	3.07
886.354	-13.31
886.525	54.27
886.697	-5.12
886.869	-5.12
887.04	11.26
887.212	37.89
887.383	50.18
887.555	-119.81
887.726	7.17
887.897	54.27
888.069	-52.22
888.24	-5.12
888.412	-19.46
888.583	-9.22
888.754	-27.65
888.926	-89.09
889.097	99.33
889.268	17.41
889.44	56.32
889.611	-5.12
889.782	-7.17
889.953	-23.55
890.125	56.32
890.296	-7.17
890.467	-19.46
890.638	9.22
890.809	23.55
890.98	-5.12
891.151	7.17
891.323	1.02
891.494	-13.31
891.665	82.94
891.836	68.61
892.007	58.37
892.178	35.84
892.349	39.94
892.52	-33.79
892.691	74.75
892.862	-13.31
893.032	-25.6
893.203	-19.46
893.374	37.89
893.545	64.51
893.716	21.5
893.887	-23.55
894.057	13.31
894.228	15.36
894.399	-54.27
894.57	-19.46
894.74	68.61
894.911	-11.26
895.082	78.85
895.253	-25.6
895.423	-1.02
895.594	-21.5
895.764	-54.27
895.935	5.12
896.106	35.84
896.276	15.36
896.447	48.13
896.617	-31.74
896.788	-33.79
896.958	80.89
897.129	-78.85
897.299	-9.22
897.47	15.36
897.64	25.6
897.81	-19.46
897.981	-46.08
898.151	7.17
898.322	72.7
898.492	15.36
898.662	7.17
898.832	7.17
899.003	68.61
899.173	87.04
899.343	-3.07
899.513	-1.02
