Data from USB4F104151__22__10-21-24-929.txt Node

Date: Wed Mar 12 10:21:24 EDT 2025
User: louis
Spectrometer: USB4F10415
Trigger mode: 4
Integration Time (sec): 3.000000E-2
Scans to average: 1
Electric dark correction enabled: true
Nonlinearity correction enabled: false
Boxcar width: 0
XAxis mode: Wavelengths
Number of Pixels in Spectrum: 3648
>>>>>Begin Spectral Data<<<<<
178.204	-98.3
178.424	-98.3
178.644	-98.3
178.864	-147.45
179.084	-137.21
179.304	-12.29
179.524	-26.62
179.744	40.96
179.964	32.77
180.184	12.29
180.404	-0
180.624	-8.19
180.844	71.68
181.064	-43.01
181.283	28.67
181.503	-92.16
181.723	-4.1
181.943	-24.58
182.163	86.01
182.383	18.43
182.602	38.91
182.822	49.15
183.042	65.53
183.262	22.53
183.482	40.96
183.701	69.63
183.921	22.53
184.141	4.1
184.361	-0
184.58	45.06
184.8	55.3
185.02	-34.82
185.239	45.06
185.459	30.72
185.679	73.73
185.898	-90.11
186.118	-20.48
186.338	40.96
186.557	88.06
186.777	26.62
186.997	-8.19
187.216	4.1
187.436	28.67
187.655	-28.67
187.875	22.53
188.095	38.91
188.314	126.97
188.534	65.53
188.753	10.24
188.973	43.01
189.192	34.82
189.412	8.19
189.631	63.49
189.851	43.01
190.07	71.68
190.29	-22.53
190.509	2.05
190.729	88.06
190.948	6.14
191.168	139.26
191.387	83.97
191.607	-30.72
191.826	16.38
192.045	36.86
192.265	20.48
192.484	53.25
192.704	16.38
192.923	43.01
193.142	133.12
193.362	88.06
193.581	106.49
193.8	51.2
194.02	57.34
194.239	-20.48
194.458	8.19
194.678	24.58
194.897	-32.77
195.116	20.48
195.335	12.29
195.555	116.73
195.774	92.16
195.993	43.01
196.212	57.34
196.432	40.96
196.651	94.21
196.87	2.05
197.089	75.77
197.308	-22.53
197.528	57.34
197.747	-20.48
197.966	-28.67
198.185	32.77
198.404	10.24
198.623	57.34
198.842	67.58
199.062	20.48
199.281	47.1
199.5	-10.24
199.719	40.96
199.938	47.1
200.157	110.59
200.376	73.73
200.595	38.91
200.814	57.34
201.033	30.72
201.252	-18.43
201.471	38.91
201.69	-34.82
201.909	63.49
202.128	57.34
202.347	88.06
202.566	-45.06
202.785	20.48
203.004	-8.19
203.223	106.49
203.442	-2.05
203.661	28.67
203.879	47.1
204.098	81.92
204.317	112.64
204.536	8.19
204.755	-16.38
204.974	77.82
205.193	59.39
205.411	83.97
205.63	122.88
205.849	8.19
206.068	45.06
206.287	20.48
206.505	71.68
206.724	16.38
206.943	2.05
207.162	-14.34
207.381	14.34
207.599	57.34
207.818	57.34
208.037	16.38
208.255	8.19
208.474	79.87
208.693	-16.38
208.911	24.58
209.13	28.67
209.349	-2.05
209.567	67.58
209.786	98.3
210.005	28.67
210.223	26.62
210.442	6.14
210.661	73.73
210.879	-26.62
211.098	45.06
211.316	53.25
211.535	71.68
211.753	73.73
211.972	34.82
212.191	30.72
212.409	155.65
212.628	75.77
212.846	10.24
213.065	28.67
213.283	108.54
213.502	-16.38
213.72	8.19
213.938	-0
214.157	14.34
214.375	-71.68
214.594	22.53
214.812	8.19
215.031	-20.48
215.249	-28.67
215.467	81.92
215.686	32.77
215.904	69.63
216.122	-4.1
216.341	79.87
216.559	49.15
216.778	49.15
216.996	61.44
217.214	-18.43
217.432	-57.34
217.651	-32.77
217.869	40.96
218.087	-45.06
218.306	47.1
218.524	20.48
218.742	139.26
218.96	32.77
219.179	55.3
219.397	53.25
219.615	55.3
219.833	63.49
220.051	20.48
220.27	96.25
220.488	77.82
220.706	-16.38
220.924	8.19
221.142	57.34
221.36	-28.67
221.578	65.53
221.796	-2.05
222.015	28.67
222.233	108.54
222.451	51.2
222.669	24.58
222.887	61.44
223.105	8.19
223.323	-47.1
223.541	79.87
223.759	137.21
223.977	45.06
224.195	126.97
224.413	61.44
224.631	77.82
224.849	24.58
225.067	131.07
225.285	-12.29
225.503	71.68
225.721	6.14
225.939	36.86
226.157	57.34
226.375	32.77
226.592	30.72
226.81	18.43
227.028	53.25
227.246	28.67
227.464	114.69
227.682	73.73
227.9	32.77
228.117	32.77
228.335	-32.77
228.553	55.3
228.771	71.68
228.989	28.67
229.206	14.34
229.424	24.58
229.642	133.12
229.86	53.25
230.077	61.44
230.295	14.34
230.513	71.68
230.731	49.15
230.948	8.19
231.166	16.38
231.384	14.34
231.601	30.72
231.819	88.06
232.037	-79.87
232.254	30.72
232.472	38.91
232.689	79.87
232.907	-12.29
233.125	-20.48
233.342	59.39
233.56	10.24
233.777	45.06
233.995	61.44
234.213	-10.24
234.43	45.06
234.648	32.77
234.865	26.62
235.083	114.69
235.3	38.91
235.518	40.96
235.735	77.82
235.953	88.06
236.17	40.96
236.388	67.58
236.605	92.16
236.822	49.15
237.04	22.53
237.257	53.25
237.475	6.14
237.692	63.49
237.909	67.58
238.127	47.1
238.344	-40.96
238.562	24.58
238.779	6.14
238.996	71.68
239.214	40.96
239.431	77.82
239.648	-63.49
239.865	32.77
240.083	18.43
240.3	32.77
240.517	32.77
240.735	67.58
240.952	108.54
241.169	22.53
241.386	45.06
241.603	-16.38
241.821	20.48
242.038	69.63
242.255	63.49
242.472	12.29
242.689	12.29
242.907	65.53
243.124	26.62
243.341	73.73
243.558	51.2
243.775	38.91
243.992	79.87
244.209	55.3
244.426	65.53
244.643	4.1
244.86	112.64
245.078	57.34
245.295	88.06
245.512	79.87
245.729	24.58
245.946	20.48
246.163	73.73
246.38	53.25
246.597	51.2
246.814	34.82
247.031	73.73
247.248	2.05
247.464	73.73
247.681	61.44
247.898	63.49
248.115	40.96
248.332	24.58
248.549	45.06
248.766	90.11
248.983	57.34
249.2	90.11
249.417	112.64
249.633	57.34
249.85	43.01
250.067	36.86
250.284	-8.19
250.501	59.39
250.717	47.1
250.934	-32.77
251.151	-12.29
251.368	-61.44
251.585	26.62
251.801	86.01
252.018	38.91
252.235	124.93
252.451	55.3
252.668	38.91
252.885	63.49
253.102	90.11
253.318	-36.86
253.535	-0
253.752	65.53
253.968	28.67
254.185	-36.86
254.401	6.14
254.618	32.77
254.835	-55.3
255.051	59.39
255.268	-14.34
255.484	-0
255.701	-0
255.917	53.25
256.134	-14.34
256.351	-2.05
256.567	-57.34
256.784	57.34
257	16.38
257.217	32.77
257.433	49.15
257.65	69.63
257.866	40.96
258.082	-2.05
258.299	61.44
258.515	81.92
258.732	38.91
258.948	-0
259.165	-0
259.381	81.92
259.597	28.67
259.814	-0
260.03	-12.29
260.246	65.53
260.463	79.87
260.679	14.34
260.895	24.58
261.112	24.58
261.328	-28.67
261.544	26.62
261.761	131.07
261.977	6.14
262.193	-65.54
262.409	120.83
262.626	28.67
262.842	59.39
263.058	-20.48
263.274	-4.1
263.49	98.3
263.707	65.53
263.923	151.55
264.139	40.96
264.355	4.1
264.571	98.3
264.787	73.73
265.004	20.48
265.22	-18.43
265.436	38.91
265.652	-12.29
265.868	40.96
266.084	20.48
266.3	16.38
266.516	-2.05
266.732	63.49
266.948	77.82
267.164	-47.1
267.38	71.68
267.596	6.14
267.812	24.58
268.028	63.49
268.244	-2.05
268.46	96.25
268.676	79.87
268.892	118.78
269.108	8.19
269.324	16.38
269.54	40.96
269.756	90.11
269.972	-40.96
270.188	45.06
270.403	36.86
270.619	40.96
270.835	88.06
271.051	55.3
271.267	2.05
271.483	79.87
271.698	8.19
271.914	114.69
272.13	14.34
272.346	98.3
272.562	77.82
272.777	55.3
272.993	-4.1
273.209	55.3
273.425	71.68
273.64	63.49
273.856	45.06
274.072	38.91
274.287	14.34
274.503	47.1
274.719	24.58
274.934	88.06
275.15	-18.43
275.366	16.38
275.581	10.24
275.797	-2.05
276.012	83.97
276.228	45.06
276.444	47.1
276.659	34.82
276.875	28.67
277.09	57.34
277.306	32.77
277.521	40.96
277.737	16.38
277.952	137.21
278.168	75.77
278.383	28.67
278.599	16.38
278.814	96.25
279.03	20.48
279.245	73.73
279.461	28.67
279.676	88.06
279.892	24.58
280.107	-10.24
280.322	-32.77
280.538	43.01
280.753	8.19
280.969	57.34
281.184	65.53
281.399	-0
281.615	-10.24
281.83	59.39
282.045	16.38
282.26	-38.91
282.476	40.96
282.691	129.02
282.906	8.19
283.122	24.58
283.337	14.34
283.552	45.06
283.767	86.01
283.983	-4.1
284.198	96.25
284.413	77.82
284.628	12.29
284.843	79.87
285.058	8.19
285.274	38.91
285.489	75.77
285.704	65.53
285.919	-40.96
286.134	40.96
286.349	34.82
286.564	34.82
286.779	102.4
286.995	-0
287.21	24.58
287.425	4.1
287.64	-14.34
287.855	12.29
288.07	43.01
288.285	135.17
288.5	137.21
288.715	106.49
288.93	-2.05
289.145	12.29
289.36	65.53
289.575	49.15
289.79	14.34
290.004	53.25
290.219	139.26
290.434	36.86
290.649	90.11
290.864	55.3
291.079	-12.29
291.294	43.01
291.509	53.25
291.724	63.49
291.938	-16.38
292.153	102.4
292.368	-2.05
292.583	61.44
292.798	86.01
293.012	49.15
293.227	-28.67
293.442	55.3
293.657	131.07
293.871	8.19
294.086	20.48
294.301	129.02
294.516	49.15
294.73	65.53
294.945	49.15
295.16	4.1
295.374	14.34
295.589	114.69
295.804	28.67
296.018	45.06
296.233	110.59
296.447	77.82
296.662	45.06
296.877	36.86
297.091	94.21
297.306	32.77
297.52	6.14
297.735	14.34
297.949	86.01
298.164	57.34
298.378	120.83
298.593	-12.29
298.807	-28.67
299.022	30.72
299.236	45.06
299.451	63.49
299.665	94.21
299.88	63.49
300.094	141.31
300.309	2.05
300.523	24.58
300.737	57.34
300.952	79.87
301.166	36.86
301.381	38.91
301.595	30.72
301.809	34.82
302.024	45.06
302.238	10.24
302.452	83.97
302.667	8.19
302.881	129.02
303.095	59.39
303.309	92.16
303.524	-57.34
303.738	24.58
303.952	-16.38
304.166	-0
304.381	51.2
304.595	8.19
304.809	26.62
305.023	8.19
305.237	90.11
305.452	135.17
305.666	81.92
305.88	47.1
306.094	98.3
306.308	-6.14
306.522	38.91
306.736	73.73
306.95	77.82
307.164	4.1
307.379	47.1
307.593	20.48
307.807	16.38
308.021	106.49
308.235	40.96
308.449	-43.01
308.663	4.1
308.877	73.73
309.091	22.53
309.305	124.93
309.519	14.34
309.733	90.11
309.947	20.48
310.161	49.15
310.374	63.49
310.588	90.11
310.802	49.15
311.016	10.24
311.23	47.1
311.444	-49.15
311.658	8.19
311.872	63.49
312.085	86.01
312.299	104.45
312.513	30.72
312.727	71.68
312.941	55.3
313.154	53.25
313.368	30.72
313.582	61.44
313.796	20.48
314.009	92.16
314.223	47.1
314.437	-0
314.651	81.92
314.864	16.38
315.078	-22.53
315.292	-22.53
315.505	-61.44
315.719	63.49
315.933	112.64
316.146	86.01
316.36	20.48
316.573	63.49
316.787	28.67
317.001	110.59
317.214	-36.86
317.428	45.06
317.641	20.48
317.855	92.16
318.068	47.1
318.282	59.39
318.495	75.77
318.709	51.2
318.922	57.34
319.136	104.45
319.349	40.96
319.563	157.69
319.776	69.63
319.99	6.14
320.203	30.72
320.417	-26.62
320.63	86.01
320.843	75.77
321.057	112.64
321.27	2.05
321.483	-4.1
321.697	38.91
321.91	36.86
322.124	126.97
322.337	30.72
322.55	53.25
322.763	43.01
322.977	116.73
323.19	34.82
323.403	16.38
323.617	22.53
323.83	53.25
324.043	53.25
324.256	14.34
324.469	-12.29
324.683	102.4
324.896	53.25
325.109	-6.14
325.322	-20.48
325.535	-26.62
325.748	51.2
325.962	94.21
326.175	43.01
326.388	28.67
326.601	110.59
326.814	14.34
327.027	120.83
327.24	137.21
327.453	22.53
327.666	75.77
327.879	112.64
328.092	114.69
328.305	53.25
328.518	65.53
328.731	22.53
328.944	8.19
329.157	69.63
329.37	32.77
329.583	59.39
329.796	43.01
330.009	40.96
330.222	2.05
330.435	71.68
330.648	4.1
330.861	79.87
331.073	14.34
331.286	73.73
331.499	8.19
331.712	12.29
331.925	32.77
332.138	-10.24
332.35	120.83
332.563	16.38
332.776	75.77
332.989	30.72
333.202	16.38
333.414	22.53
333.627	143.36
333.84	34.82
334.053	12.29
334.265	22.53
334.478	49.15
334.691	32.77
334.903	20.48
335.116	28.67
335.329	59.39
335.541	-55.3
335.754	63.49
335.966	4.1
336.179	55.3
336.392	-18.43
336.604	-28.67
336.817	24.58
337.029	86.01
337.242	-40.96
337.454	24.58
337.667	71.68
337.88	69.63
338.092	65.53
338.305	32.77
338.517	22.53
338.729	14.34
338.942	163.84
339.154	-4.1
339.367	24.58
339.579	32.77
339.792	28.67
340.004	22.53
340.217	36.86
340.429	75.77
340.641	65.53
340.854	-28.67
341.066	53.25
341.278	161.79
341.491	8.19
341.703	94.21
341.915	-34.82
342.128	77.82
342.34	12.29
342.552	30.72
342.764	47.1
342.977	102.4
343.189	104.45
343.401	90.11
343.613	4.1
343.826	61.44
344.038	4.1
344.25	65.53
344.462	24.58
344.674	-0
344.886	16.38
345.099	114.69
345.311	18.43
345.523	49.15
345.735	12.29
345.947	98.3
346.159	40.96
346.371	-16.38
346.583	114.69
346.795	112.64
347.007	-32.77
347.219	63.49
347.431	40.96
347.643	102.4
347.855	63.49
348.067	36.86
348.279	-0
348.491	137.21
348.703	88.06
348.915	94.21
349.127	63.49
349.339	28.67
349.551	6.14
349.763	51.2
349.975	14.34
350.187	112.64
350.399	65.53
350.61	71.68
350.822	-2.05
351.034	118.78
351.246	36.86
351.458	51.2
351.669	16.38
351.881	129.02
352.093	40.96
352.305	73.73
352.517	24.58
352.728	71.68
352.94	75.77
353.152	30.72
353.363	65.53
353.575	36.86
353.787	118.78
353.999	47.1
354.21	65.53
354.422	53.25
354.633	55.3
354.845	63.49
355.057	73.73
355.268	40.96
355.48	81.92
355.692	45.06
355.903	-16.38
356.115	57.34
356.326	20.48
356.538	69.63
356.749	98.3
356.961	81.92
357.172	45.06
357.384	4.1
357.595	65.53
357.807	73.73
358.018	-45.06
358.23	133.12
358.441	81.92
358.653	73.73
358.864	86.01
359.075	-22.53
359.287	131.07
359.498	28.67
359.709	43.01
359.921	36.86
360.132	53.25
360.344	102.4
360.555	8.19
360.766	102.4
360.977	38.91
361.189	61.44
361.4	69.63
361.611	20.48
361.823	79.87
362.034	20.48
362.245	14.34
362.456	30.72
362.667	88.06
362.879	12.29
363.09	83.97
363.301	2.05
363.512	98.3
363.723	45.06
363.935	88.06
364.146	51.2
364.357	-2.05
364.568	47.1
364.779	63.49
364.99	65.53
365.201	106.49
365.412	12.29
365.623	38.91
365.834	75.77
366.045	86.01
366.256	53.25
366.467	-34.82
366.678	106.49
366.889	6.14
367.1	45.06
367.311	65.53
367.522	77.82
367.733	28.67
367.944	65.53
368.155	45.06
368.366	98.3
368.577	112.64
368.788	90.11
368.999	71.68
369.209	53.25
369.42	81.92
369.631	118.78
369.842	98.3
370.053	18.43
370.264	75.77
370.474	22.53
370.685	126.97
370.896	14.34
371.107	90.11
371.317	104.45
371.528	16.38
371.739	67.58
371.95	73.73
372.16	73.73
372.371	-34.82
372.582	88.06
372.792	36.86
373.003	71.68
373.214	79.87
373.424	106.49
373.635	43.01
373.846	65.53
374.056	65.53
374.267	65.53
374.477	34.82
374.688	100.35
374.898	-26.62
375.109	32.77
375.319	69.63
375.53	4.1
375.74	81.92
375.951	14.34
376.161	79.87
376.372	18.43
376.582	-2.05
376.793	51.2
377.003	-8.19
377.214	8.19
377.424	98.3
377.635	47.1
377.845	16.38
378.055	139.26
378.266	81.92
378.476	-0
378.686	65.53
378.897	81.92
379.107	26.62
379.317	57.34
379.528	75.77
379.738	114.69
379.948	79.87
380.158	116.73
380.369	-14.34
380.579	24.58
380.789	28.67
380.999	110.59
381.21	77.82
381.42	6.14
381.63	34.82
381.84	131.07
382.05	40.96
382.261	92.16
382.471	57.34
382.681	32.77
382.891	129.02
383.101	90.11
383.311	-24.58
383.521	73.73
383.731	61.44
383.941	77.82
384.151	106.49
384.361	-28.67
384.571	8.19
384.781	55.3
384.991	12.29
385.201	94.21
385.411	126.97
385.621	98.3
385.831	77.82
386.041	26.62
386.251	102.4
386.461	92.16
386.671	110.59
386.881	30.72
387.091	90.11
387.301	10.24
387.511	92.16
387.72	100.35
387.93	114.69
388.14	6.14
388.35	69.63
388.56	94.21
388.769	124.93
388.979	28.67
389.189	65.53
389.399	141.31
389.609	16.38
389.818	116.73
390.028	98.3
390.238	112.64
390.447	57.34
390.657	145.41
390.867	57.34
391.076	24.58
391.286	118.78
391.496	114.69
391.705	51.2
391.915	108.54
392.125	75.77
392.334	110.59
392.544	20.48
392.753	98.3
392.963	63.49
393.172	77.82
393.382	102.4
393.591	129.02
393.801	2.05
394.01	86.01
394.22	122.88
394.429	79.87
394.639	90.11
394.848	143.36
395.058	51.2
395.267	65.53
395.477	90.11
395.686	106.49
395.895	186.37
396.105	143.36
396.314	106.49
396.524	147.45
396.733	81.92
396.942	143.36
397.152	43.01
397.361	110.59
397.57	40.96
397.78	112.64
397.989	118.78
398.198	159.74
398.407	88.06
398.617	122.88
398.826	131.07
399.035	98.3
399.244	180.22
399.453	174.08
399.663	180.22
399.872	129.02
400.081	118.78
400.29	118.78
400.499	135.17
400.708	165.89
400.917	98.3
401.127	86.01
401.336	98.3
401.545	178.17
401.754	186.37
401.963	202.75
402.172	133.12
402.381	143.36
402.59	114.69
402.799	135.17
403.008	122.88
403.217	83.97
403.426	178.17
403.635	116.73
403.844	112.64
404.053	155.65
404.262	139.26
404.471	262.14
404.68	169.98
404.888	174.08
405.097	163.84
405.306	147.45
405.515	151.55
405.724	176.13
405.933	167.93
406.142	215.04
406.35	200.7
406.559	253.95
406.768	163.84
406.977	305.15
407.185	217.08
407.394	282.62
407.603	219.13
407.812	249.85
408.02	301.05
408.229	229.37
408.438	198.65
408.646	284.67
408.855	200.7
409.064	301.05
409.272	274.43
409.481	323.58
409.69	311.29
409.898	243.71
410.107	327.67
410.315	360.44
410.524	479.22
410.733	339.96
410.941	337.91
411.15	444.41
411.358	423.93
411.567	503.8
411.775	434.17
411.984	393.21
412.192	565.24
412.401	536.57
412.609	540.66
412.818	483.32
413.026	489.46
413.234	520.18
413.443	595.96
413.651	624.63
413.86	610.29
414.068	692.21
414.276	667.64
414.485	702.45
414.693	739.32
414.901	784.37
415.11	757.75
415.318	864.24
415.526	841.72
415.734	868.34
415.943	847.86
416.151	927.73
416.359	952.31
416.567	931.83
416.776	1030.13
416.984	1122.29
417.192	1134.57
417.4	1081.33
417.608	1189.87
417.817	1230.83
418.025	1146.86
418.233	1335.28
418.441	1343.47
418.649	1189.87
418.857	1476.59
419.065	1425.39
419.273	1454.06
419.481	1558.5
419.689	1642.47
419.897	1712.1
420.105	1644.52
420.313	1834.98
420.521	1789.92
420.729	1882.08
420.937	1802.21
421.145	1961.95
421.353	2037.73
421.561	2183.13
421.769	2236.38
421.977	2277.34
422.185	2269.15
422.393	2465.75
422.601	2541.53
422.809	2494.43
423.017	2572.25
423.224	2713.56
423.432	2684.89
423.64	2779.09
423.848	3094.48
424.056	3180.5
424.263	3149.78
424.471	3207.12
424.679	3243.98
424.887	3491.79
425.094	3483.59
425.302	3764.17
425.51	3708.87
425.718	3899.33
425.925	3774.41
426.133	4024.26
426.341	4224.96
426.548	4448.19
426.756	4575.16
426.964	4548.54
427.171	4782.01
427.379	4898.74
427.586	4978.61
427.794	4960.18
428.001	5322.67
428.209	5500.84
428.417	5523.37
428.624	5842.85
428.832	5961.64
429.039	5767.08
429.247	5787.56
429.454	6594.46
429.662	6797.21
429.869	6395.81
430.076	6608.8
430.284	6735.77
430.491	6838.17
430.699	7401.36
430.906	7262.1
431.114	7339.92
431.321	7729.03
431.528	7925.64
431.736	8241.03
431.943	8714.11
432.15	8324.99
432.358	8652.67
432.565	8904.57
432.772	9154.42
432.979	9422.7
433.187	9674.6
433.394	9693.04
433.601	10241.89
433.808	10510.18
434.016	10088.29
434.223	10559.33
434.43	11249.49
434.637	11034.46
434.844	11980.62
435.052	12185.41
435.259	11767.63
435.466	11994.95
435.673	11933.51
435.88	12754.75
436.087	13219.64
436.294	13246.26
436.501	13072.18
436.708	13324.08
436.915	13817.65
437.122	14292.77
437.329	14253.86
437.537	14712.61
437.743	15046.43
437.95	14874.4
438.157	15714.06
438.364	16264.97
438.571	16195.34
438.778	16246.54
438.985	17723.12
439.192	17186.55
439.399	17690.35
439.606	17135.35
439.813	18126.57
440.02	19289.82
440.227	19044.06
440.433	18646.76
440.64	19560.15
440.847	19330.78
441.054	19932.88
441.261	21278.4
441.467	20915.9
441.674	21354.17
441.881	21845.68
442.088	21804.72
442.294	21575.35
442.501	22187.69
442.708	22775.46
442.914	23742.1
443.121	24661.64
443.328	23977.62
443.534	25822.84
443.741	24979.07
443.948	24510.09
444.154	26486.38
444.361	26066.55
444.568	26381.93
444.774	26191.47
444.981	26672.74
445.187	27483.74
445.394	28448.33
445.6	28515.92
445.807	31028.77
446.013	29238.85
446.22	30051.89
446.426	31290.91
446.633	31438.37
446.839	32167.45
447.046	31024.68
447.252	32957.96
447.459	33101.32
447.665	32646.67
447.871	34610.67
448.078	35665.38
448.284	33818.11
448.491	34625.01
448.697	36296.15
448.903	36701.65
449.11	36888.01
449.316	36185.56
449.522	36724.18
449.728	37512.64
449.935	38133.18
450.141	37619.14
450.347	38722.99
450.553	37672.39
450.76	37653.95
450.966	38933.93
451.172	38786.48
451.378	39329.19
451.584	38729.14
451.791	39568.8
451.997	39364.01
452.203	40033.69
452.409	39753.12
452.615	39753.12
452.821	38200.76
453.027	37973.44
453.233	39974.3
453.44	37760.45
453.646	38331.83
453.852	38499.76
454.058	39093.68
454.264	37660.1
454.47	38716.85
454.676	37981.63
454.882	39615.91
455.088	35767.77
455.294	35988.95
455.5	36744.66
455.705	37164.49
455.911	35366.37
456.117	34858.48
456.323	34317.81
456.529	32376.34
456.735	34121.21
456.941	32935.43
457.147	32593.42
457.352	31346.21
457.558	30967.34
457.764	31053.35
457.97	30354.99
458.176	29617.72
458.381	29873.72
458.587	28335.7
458.793	28276.3
458.999	26889.83
459.204	28816.97
459.41	28010.07
459.616	26162.8
459.821	25994.87
460.027	25759.35
460.233	25265.79
460.438	24344.2
460.644	24632.97
460.85	22988.45
461.055	23019.17
461.261	23133.85
461.466	21423.8
461.672	20655.81
461.878	22156.97
462.083	20586.18
462.289	20498.12
462.494	20137.68
462.7	19306.2
462.905	18595.56
463.111	19232.47
463.316	19660.5
463.522	19199.71
463.727	19189.47
463.932	19017.44
464.138	18861.79
464.343	18923.23
464.549	18429.67
464.754	18978.53
464.959	19259.1
465.165	18755.3
465.37	18054.89
465.575	17467.13
465.781	18317.03
465.986	18341.61
466.191	17581.81
466.397	17374.97
466.602	16424.71
466.807	17061.63
467.012	17411.83
467.218	17123.07
467.423	16766.72
467.628	16930.56
467.833	17766.13
468.038	17153.79
468.244	16744.19
468.449	17051.39
468.654	16654.08
468.859	16500.48
469.064	16514.82
469.269	16021.26
469.474	15961.87
469.679	16471.81
469.885	15644.43
470.09	15935.24
470.295	15849.23
470.5	15896.33
470.705	15531.79
470.91	15218.46
471.115	15023.9
471.32	15189.78
471.525	15173.4
471.73	14810.91
471.935	14757.66
472.139	14190.38
472.344	14448.42
472.549	14401.32
472.754	14219.05
472.959	13754.16
473.164	13604.66
473.369	13186.87
473.574	14106.41
473.778	13770.54
473.983	13846.32
474.188	13608.75
474.393	12891.96
474.598	13074.23
474.802	12934.97
475.007	12848.96
475.212	12885.82
475.417	12476.23
475.621	12296
475.826	12529.47
476.031	12162.89
476.235	11994.95
476.44	12169.03
476.645	11974.47
476.849	12009.29
477.054	11894.6
477.259	11718.48
477.463	11781.96
477.668	11308.88
477.872	11398.99
478.077	11329.36
478.282	11020.12
478.486	10934.11
478.691	11001.69
478.895	10917.72
479.1	10798.94
479.304	10903.39
479.509	10762.08
479.713	10839.9
479.918	10778.46
480.122	10432.35
480.326	10440.54
480.531	10647.39
480.735	10448.74
480.94	10497.89
481.144	10592.09
481.348	10176.36
481.553	10372.96
481.757	9981.8
481.961	10319.71
482.166	10307.43
482.37	10381.15
482.574	10076.01
482.778	10299.23
482.983	10225.51
483.187	10209.12
483.391	10319.71
483.595	9881.45
483.8	10129.25
484.004	10258.28
484.208	10405.73
484.412	9842.54
484.616	9981.8
484.821	10211.17
485.025	10016.62
485.229	10264.42
485.433	9906.02
485.637	10194.79
485.841	10219.36
486.045	10114.92
486.249	10272.61
486.453	10182.5
486.657	10262.37
486.861	10276.71
487.065	9938.79
487.269	10256.23
487.473	9899.88
487.677	10485.6
487.881	10284.9
488.085	10370.91
488.289	10299.23
488.493	10233.7
488.697	10166.12
488.901	10375.01
489.105	10264.42
489.309	10248.04
489.512	10377.06
489.716	10473.31
489.92	10340.19
490.124	10278.76
490.328	10639.2
490.531	10344.29
490.735	10606.43
490.939	10596.19
491.143	10506.08
491.346	10473.31
491.55	10477.41
491.754	10526.56
491.958	10624.86
492.161	10674.01
492.365	10846.04
492.569	10768.22
492.772	10790.75
492.976	10936.15
493.18	10952.54
493.383	11044.7
493.587	11190.1
493.79	11284.31
493.994	11104.09
494.197	11286.36
494.401	11214.68
494.605	11194.2
494.808	11718.48
495.012	11657.04
495.215	11712.33
495.419	11781.96
495.622	11566.93
495.825	11970.38
496.029	11984.71
496.232	12089.16
496.436	12207.94
496.639	12554.05
496.843	12345.16
497.046	12752.7
497.249	12672.83
497.453	12728.13
497.656	12953.4
497.859	12949.31
498.063	13184.82
498.266	13373.24
498.469	13231.93
498.673	13496.11
498.876	13809.45
499.079	13909.8
499.282	14102.31
499.485	14360.36
499.689	14243.62
499.892	14724.9
500.095	14257.96
500.298	14866.21
500.501	14882.59
500.705	15236.89
500.908	15314.71
501.111	15542.03
501.314	15552.27
501.517	15767.31
501.72	15990.54
501.923	16045.84
502.126	16647.94
502.329	16551.68
502.532	16549.64
502.735	16690.95
502.938	17334.01
503.141	17428.21
503.344	17362.68
503.547	17458.93
503.75	17940.21
503.953	18319.08
504.156	18280.17
504.359	18456.29
504.562	18401
504.765	18855.65
504.968	19066.59
505.17	19269.34
505.373	19445.46
505.576	19623.64
505.779	19726.03
505.982	19879.63
506.185	20397.77
506.387	19994.32
506.59	20573.89
506.793	20801.22
506.996	20801.22
507.198	21823.15
507.401	21509.82
507.604	21561.01
507.807	21997.23
508.009	22175.41
508.212	22134.45
508.415	22828.71
508.617	23199.39
508.82	22666.92
509.022	23223.97
509.225	23543.45
509.428	23725.72
509.63	24063.63
509.833	23975.57
510.035	24790.66
510.238	24688.26
510.44	24852.1
510.643	25110.14
510.845	25558.65
511.048	25304.7
511.25	25912.95
511.453	25933.43
511.655	26771.05
511.858	26381.93
512.06	26680.94
512.262	27203.17
512.465	27205.22
512.667	27373.15
512.87	27752.02
513.072	27889.24
513.274	28372.56
513.477	28644.94
513.679	28765.77
513.881	28935.75
514.084	29144.64
514.286	29466.17
514.488	29619.77
514.69	30643.76
514.893	30496.3
515.095	30836.27
515.297	31204.9
515.499	30979.62
515.701	31436.32
515.904	31618.59
516.106	31880.73
516.308	32388.63
516.51	32691.73
516.712	32929.29
516.914	33043.98
517.116	33654.27
517.318	33527.3
517.52	33983.99
517.722	34084.34
517.925	34326
518.127	34833.9
518.329	35167.72
518.531	35225.06
518.733	35665.38
518.935	35964.38
519.136	36036.06
519.338	36515.28
519.54	36634.07
519.742	37189.06
519.944	37232.07
520.146	37840.32
520.348	37844.41
520.55	38272.44
520.752	38170.04
520.954	38976.94
521.155	38641.07
521.357	39546.28
521.559	39495.08
521.761	40080.8
521.963	39853.47
522.164	40549.78
522.366	40353.18
522.568	40967.57
522.77	41043.34
522.971	41719.17
523.173	41334.15
523.375	41745.79
523.576	41657.73
523.778	42075.52
523.98	42464.63
524.181	42773.88
524.383	42886.51
524.584	43246.96
524.786	43083.12
524.988	43226.48
525.189	43908.45
525.391	43910.5
525.592	43943.27
525.794	44420.44
525.995	44109.15
526.197	44250.46
526.398	44774.74
526.6	44959.06
526.801	44582.23
527.003	45020.5
527.204	45200.72
527.406	45950.27
527.607	45581.64
527.808	45737.29
528.01	45315.4
528.211	46138.69
528.412	46304.57
528.614	46755.13
528.815	46435.64
529.016	46742.84
529.218	46699.83
529.419	46943.54
529.62	46679.35
529.822	46468.41
530.023	46855.48
530.224	46810.42
530.425	46939.44
530.626	46648.63
530.828	46523.71
531.029	48000.29
531.23	47058.23
531.431	47383.85
531.632	47562.03
531.833	47269.17
532.035	47400.24
532.236	47695.14
532.437	47519.02
532.638	47680.81
532.839	47883.56
533.04	47926.56
533.241	47228.21
533.442	48014.63
533.643	47998.24
533.844	47834.41
534.045	48377.12
534.246	47621.42
534.447	48528.67
534.648	47717.67
534.849	48182.56
535.05	47691.05
535.251	48205.09
535.451	47824.17
535.652	48153.89
535.853	47801.64
536.054	48014.63
536.255	48555.29
536.456	47932.71
536.657	48801.05
536.857	48309.53
537.058	48117.03
537.259	48176.42
537.46	48182.56
537.66	48084.26
537.861	48153.89
538.062	48162.08
538.263	48094.5
538.463	48014.63
538.664	48123.17
538.865	48356.64
539.065	48456.99
539.266	47500.59
539.466	48968.98
539.667	47705.38
539.868	48723.22
540.068	48229.66
540.269	47803.69
540.469	48157.99
540.67	47844.65
540.87	47981.86
541.071	47469.87
541.271	48188.7
541.472	48020.77
541.672	47938.85
541.873	47922.47
542.073	47670.57
542.274	48352.54
542.474	47951.14
542.675	47574.31
542.875	48459.04
543.075	47924.52
543.276	47482.16
543.476	47586.6
543.676	47533.35
543.877	48071.97
544.077	47766.82
544.277	47940.9
544.478	47899.94
544.678	48307.49
544.878	47938.85
545.078	48219.42
545.279	47951.14
545.479	47547.69
545.679	48145.7
545.879	47691.05
546.079	47506.73
546.28	47519.02
546.48	47504.68
546.68	47844.65
546.88	47328.56
547.08	47557.93
547.28	47351.09
547.48	47093.04
547.68	47678.76
547.88	47529.26
548.081	48297.25
548.281	47318.32
548.481	46992.69
548.681	47910.18
548.881	47680.81
549.081	47635.75
549.28	47271.21
549.48	47826.21
549.68	47246.64
549.88	48223.52
550.08	47080.75
550.28	47523.11
550.48	47654.18
550.68	47945
550.88	47615.27
551.08	47703.34
551.279	47689
551.479	47498.54
551.679	47547.69
551.879	47125.81
552.079	47686.95
552.278	47486.25
552.478	47031.6
552.678	47420.72
552.878	47699.24
553.077	47482.16
553.277	46378.3
553.477	47752.49
553.676	47230.26
553.876	47508.78
554.076	46789.94
554.275	47011.12
554.475	46515.51
554.674	47074.61
554.874	47125.81
555.074	46757.17
555.273	47185.2
555.473	47140.14
555.672	46699.83
555.872	46230.85
556.071	47095.09
556.271	47287.6
556.47	46828.85
556.67	46714.17
556.869	46548.28
557.068	46789.94
557.268	46400.83
557.467	46294.33
557.667	46183.74
557.866	47183.15
558.065	46138.69
558.265	46009.67
558.464	45745.48
558.663	46572.86
558.863	45714.76
559.062	46392.64
559.261	45847.88
559.461	46253.37
559.66	45864.26
559.859	45876.55
560.058	45067.6
560.258	45753.67
560.457	45514.06
560.656	45886.79
560.855	45348.17
561.054	45649.22
561.253	44977.49
561.453	45606.22
561.652	45403.47
561.851	45673.8
562.05	45008.21
562.249	45264.21
562.448	45221.2
562.647	45395.28
562.846	45206.86
563.045	45335.88
563.244	44664.15
563.443	45155.66
563.642	44189.02
563.841	44934.48
564.04	44518.74
564.239	44813.65
564.438	44119.39
564.637	44633.43
564.836	44666.2
565.035	43881.83
565.234	44131.68
565.432	43810.15
565.631	44141.92
565.83	44264.8
566.029	44086.62
566.228	43791.72
566.427	43822.44
566.625	43674.98
566.824	43089.26
567.023	43443.56
567.222	43167.09
567.42	43138.41
567.619	43482.47
567.818	43101.55
568.016	43150.7
568.215	43523.43
568.414	42870.13
568.612	43249
568.811	42515.83
569.01	43177.33
569.208	42300.79
569.407	42638.71
569.605	42460.54
569.804	42616.18
570.002	42196.35
570.201	42431.86
570.4	42265.98
570.598	41944.45
570.797	41307.53
570.995	41833.86
571.193	41305.48
571.392	42169.72
571.59	41403.78
571.789	41618.82
571.987	41637.25
572.186	41239.95
572.384	41473.42
572.582	41534.85
572.781	41268.62
572.979	40637.84
573.177	40934.8
573.376	40750.48
573.574	40574.36
573.772	41020.81
573.971	40560.02
574.169	40113.56
574.367	40115.61
574.565	40576.4
574.763	40144.28
574.962	39839.14
575.16	39400.87
575.358	40211.87
575.556	39208.36
575.754	40082.84
575.952	39552.42
576.151	39789.98
576.349	38895.02
576.547	39290.28
576.745	39239.08
576.943	39638.44
577.141	39652.77
577.339	39386.54
577.537	38841.78
577.735	38782.38
577.933	38440.37
578.131	38811.06
578.329	38327.74
578.527	38114.75
578.725	38327.74
578.923	38804.91
579.121	38456.76
579.319	38008.25
579.516	38387.13
579.714	38280.63
579.912	37979.58
580.11	37643.71
580.308	37881.28
580.506	37592.51
580.704	37291.46
580.901	37860.8
581.099	37938.62
581.297	37285.32
581.495	37168.58
581.692	37281.22
581.89	36947.4
582.088	37047.75
582.285	36910.54
582.483	36847.05
582.681	36617.68
582.878	36402.64
583.076	36574.67
583.274	36521.43
583.471	35673.57
583.669	36142.55
583.866	36081.11
584.064	36451.8
584.262	35730.91
584.459	36339.16
584.657	35722.72
584.854	35988.95
585.052	35659.23
585.249	35870.17
585.447	35694.05
585.644	35110.38
585.841	35319.27
586.039	35562.98
586.236	35474.91
586.434	34907.63
586.631	34840.04
586.828	34946.54
587.026	34932.2
587.223	34627.06
587.42	34592.24
587.618	34256.37
587.815	33940.99
588.012	34211.32
588.21	34194.93
588.407	34551.28
588.604	34137.59
588.801	33994.23
588.999	34006.52
589.196	33783.29
589.393	33742.33
589.59	33519.1
589.787	33560.06
589.984	33629.69
590.182	33322.5
590.379	33515.01
590.576	33056.26
590.773	33056.26
590.97	32962.06
591.167	33113.61
591.364	32624.14
591.561	32841.23
591.758	32577.04
591.955	32726.54
592.152	32730.64
592.349	32534.03
592.546	32220.69
592.743	32529.94
592.94	31675.93
593.137	32198.16
593.334	32382.48
593.531	31874.59
593.727	32048.66
593.924	31770.14
594.121	31616.54
594.318	31698.46
594.515	31049.25
594.712	31735.32
594.908	30721.58
595.105	31129.12
595.302	30914.09
595.499	31149.6
595.696	31016.49
595.892	31067.69
596.089	31055.4
596.286	31006.25
596.482	30789.16
596.679	30553.65
596.876	30666.28
597.072	30320.18
597.269	30414.38
597.466	30066.23
597.662	30088.76
597.859	30191.16
598.055	30170.68
598.252	29445.69
598.448	29890.1
598.645	29828.66
598.841	29306.43
599.038	29718.07
599.234	29548.09
599.431	29244.99
599.627	29419.07
599.824	29443.65
600.02	29199.94
600.217	29099.59
600.413	28851.78
600.609	28726.86
600.806	28718.67
601.002	28757.58
601.198	28597.84
601.395	28421.71
601.591	28636.75
601.787	28544.59
601.984	28304.98
602.18	28489.29
602.376	27967.06
602.572	27948.63
602.769	28161.62
602.965	27510.36
603.161	27747.93
603.357	27661.91
603.553	27663.96
603.75	27852.37
603.946	27680.35
604.142	27549.28
604.338	27008.61
604.534	27711.07
604.73	26971.75
604.926	26963.56
605.122	27231.84
605.318	26969.7
605.514	26697.32
605.71	26881.64
605.906	26893.93
606.102	26924.65
606.298	26633.83
606.494	26664.55
606.69	26553.96
606.886	26547.82
607.082	26183.28
607.278	26312.3
607.474	25765.49
607.67	26195.57
607.866	25826.93
608.062	26207.86
608.257	26062.45
608.453	26093.17
608.649	26033.78
608.845	25808.5
609.041	25781.88
609.236	25775.73
609.432	25699.96
609.628	25562.75
609.824	25513.59
610.019	25458.3
610.215	25605.75
610.411	25331.33
610.606	25405.05
610.802	25253.5
610.998	25341.57
611.193	25206.4
611.389	25069.19
611.584	24927.88
611.78	24931.97
611.976	24585.86
612.171	24948.36
612.367	24776.33
612.562	24680.07
612.758	24565.39
612.953	24419.98
613.149	24471.18
613.344	24360.59
613.539	25040.51
613.735	24413.84
613.93	24585.86
614.126	24293.01
614.321	24342.16
614.517	24426.12
614.712	24325.77
614.907	24217.23
615.103	24635.02
615.298	24002.19
615.493	24571.53
615.688	23783.06
615.884	24540.81
616.079	23676.57
616.274	23989.91
616.47	23955.09
616.665	23795.35
616.86	23811.73
617.055	23695
617.25	23664.28
617.445	23656.09
617.641	23135.9
617.836	23459.48
618.031	23322.27
618.226	23428.76
618.421	22996.64
618.616	23416.47
618.811	22834.85
619.006	23293.6
619.201	22838.95
619.396	23039.65
619.591	22474.41
619.786	22791.84
619.981	22257.32
620.176	22701.73
620.371	22009.52
620.566	22431.4
620.761	22257.32
620.956	22400.68
621.151	21876.4
621.346	21931.7
621.541	21630.65
621.735	22027.95
621.93	21425.85
622.125	21583.54
622.32	21329.59
622.515	21540.54
622.709	21116.61
622.904	21040.83
623.099	20672.2
623.294	21126.85
623.488	20754.12
623.683	20727.49
623.878	20485.83
624.072	20262.6
624.267	20313.8
624.462	20336.33
624.656	19848.91
624.851	20121.29
625.046	19652.31
625.24	19824.34
625.435	19685.08
625.629	19625.68
625.824	19357.4
626.018	19640.02
626.213	18974.43
626.407	19476.18
626.602	18892.51
626.796	19125.98
626.991	18755.3
627.185	18550.5
627.38	18460.39
627.574	18661.09
627.768	18548.45
627.963	18317.03
628.157	18253.55
628.352	18274.03
628.546	17690.35
628.74	18179.82
628.935	17792.75
629.129	18015.98
629.323	17692.4
629.517	17370.87
629.712	17542.9
629.906	17344.25
630.1	17204.99
630.294	17303.29
630.489	17247.99
630.683	17243.9
630.877	16699.14
631.071	16697.09
631.265	17061.63
631.459	16699.14
631.653	16641.79
631.848	16635.65
632.042	16371.46
632.236	16549.64
632.43	16168.71
632.624	16148.23
632.818	16195.34
633.012	15720.21
633.206	16008.97
633.4	15986.44
633.594	15611.67
633.788	15947.53
633.982	15613.71
634.176	15703.82
634.369	15562.51
634.563	15283.99
634.757	15318.81
634.951	15324.95
635.145	15161.11
635.339	15361.81
635.533	14855.97
635.726	14901.02
635.92	14567.2
636.114	14839.58
636.308	14630.69
636.501	14624.54
636.695	14552.87
636.889	14423.84
637.083	14282.53
637.276	14087.98
637.47	14038.83
637.664	14133.03
637.857	14171.94
638.051	13913.9
638.244	13852.46
638.438	13862.7
638.632	13983.53
638.825	13721.39
639.019	13299.51
639.212	13549.36
639.406	13379.38
639.599	13305.65
639.793	13358.9
639.986	13317.94
640.18	13291.32
640.373	13360.95
640.567	12629.82
640.76	13070.14
640.954	12820.28
641.147	12605.25
641.34	12506.95
641.534	12687.17
641.727	12660.54
641.92	12508.99
642.114	12353.35
642.307	12441.41
642.5	12277.57
642.694	11931.47
642.887	12414.79
643.08	12199.75
643.273	12095.3
643.467	12062.54
643.66	11800.4
643.853	11771.72
644.046	11642.7
644.239	11695.95
644.432	12013.38
644.626	11497.3
644.819	11355.99
645.012	11695.95
645.205	11378.51
645.398	11374.42
645.591	11353.94
645.784	11194.2
645.977	11026.26
646.17	10911.58
646.363	10932.06
646.556	10727.26
646.749	10657.63
646.942	11073.37
647.135	10948.44
647.328	10876.76
647.521	10796.89
647.714	10569.57
647.907	10633.05
648.099	10372.96
648.292	10508.13
648.485	10338.15
648.678	10340.19
648.871	10467.17
649.064	10223.46
649.256	10266.47
649.449	9969.51
649.642	10184.55
649.835	9883.5
650.027	9914.22
650.22	9707.37
650.413	9715.56
650.605	9846.63
650.798	9580.4
650.991	9490.29
651.183	9621.36
651.376	9404.27
651.568	9699.18
651.761	9406.32
651.954	9387.89
652.146	9387.89
652.339	9279.35
652.531	9285.49
652.724	9230.2
652.916	8894.33
653.109	9058.17
653.301	9092.98
653.494	9195.38
653.686	8826.75
653.879	8888.18
654.071	8894.33
654.263	8693.63
654.456	8871.8
654.648	8591.23
654.84	8707.96
655.033	8783.74
655.225	8691.58
655.417	8378.24
655.61	8601.47
655.802	8468.35
655.994	8279.94
656.186	8449.92
656.379	8376.19
656.571	8251.27
656.763	8142.72
656.955	8058.76
657.148	8075.14
657.34	8099.72
657.532	7856.01
657.724	7868.3
657.916	7890.82
658.108	7860.1
658.3	7880.58
658.492	7778.19
658.684	7737.23
658.876	7702.41
659.068	7706.51
659.26	7690.12
659.452	7688.07
659.644	7747.47
659.836	7374.74
660.028	7503.76
660.22	7423.89
660.412	7438.22
660.604	7401.36
660.796	7262.1
660.988	7403.41
661.18	7389.07
661.372	7337.87
661.563	7296.91
661.755	7206.8
661.947	7073.68
662.139	7026.58
662.331	7255.95
662.522	7104.4
662.714	7045.01
662.906	6772.63
663.097	6922.13
663.289	6821.78
663.481	6758.3
663.673	6723.48
663.864	6791.06
664.056	6860.7
664.247	6633.37
664.439	6571.93
664.631	6633.37
664.822	6590.36
665.014	6582.17
665.205	6453.15
665.397	6508.44
665.588	6369.18
665.78	6459.29
665.971	6322.08
666.163	6303.65
666.354	6436.77
666.546	6344.61
666.737	6090.66
666.929	6412.19
667.12	6127.52
667.311	6098.85
667.503	6102.95
667.694	6254.5
667.885	6086.56
668.077	6184.87
668.268	6215.59
668.459	6016.93
668.651	5939.11
668.842	5916.58
669.033	5783.46
669.224	5799.85
669.416	5996.45
669.607	5926.82
669.798	5906.34
669.989	5801.9
670.18	5713.83
670.371	5644.2
670.563	5687.21
670.754	5459.88
670.945	5535.66
671.136	5646.25
671.327	5515.18
671.518	5660.59
671.709	5539.76
671.9	5662.63
672.091	5390.25
672.282	5406.64
672.473	5382.06
672.664	5517.23
672.855	5250.99
673.046	5437.36
673.237	5420.97
673.428	5357.49
673.619	5425.07
673.809	5416.88
674	5263.28
674.191	5334.96
674.382	5369.77
674.573	5185.46
674.764	5146.55
674.954	5259.18
675.145	5261.23
675.336	5140.4
675.527	5066.67
675.717	5207.98
675.908	5158.83
676.099	5173.17
676.289	5050.29
676.48	5038
676.671	4962.23
676.861	5207.98
677.052	4937.65
677.243	5087.15
677.433	4857.78
677.624	5038
677.814	4917.17
678.005	5007.28
678.195	4943.8
678.386	4947.89
678.576	4743.1
678.767	4804.53
678.957	4874.17
679.148	4906.93
679.338	4884.41
679.529	4796.34
679.719	4730.81
679.909	5017.52
680.1	4798.39
680.29	4849.59
680.481	4792.25
680.671	4870.07
680.861	4784.05
681.052	4685.75
681.242	4782.01
681.432	4706.23
681.622	4782.01
681.813	4644.79
682.003	4790.2
682.193	4700.09
682.383	4583.35
682.573	4714.42
682.764	4845.49
682.954	4599.74
683.144	4747.19
683.334	4622.27
683.524	4415.42
683.714	4556.73
683.904	4550.59
684.094	4556.73
684.284	4589.5
684.474	4659.13
684.664	4390.84
684.854	4636.6
685.044	4560.83
685.234	4472.76
685.424	4466.62
685.614	4368.32
685.804	4478.91
685.994	4552.63
686.184	4474.81
686.374	4237.25
686.564	4349.89
686.753	4450.24
686.943	4112.32
687.133	4265.92
687.323	4272.06
687.513	4351.93
687.702	4290.49
687.892	4267.97
688.082	4186.05
688.272	4208.58
688.461	4130.75
688.651	4212.67
688.841	4106.18
689.03	4286.4
689.22	4270.01
689.41	4208.58
689.599	4073.41
689.789	4063.17
689.979	4106.18
690.168	4044.74
690.358	4020.16
690.547	4114.37
690.737	3946.44
690.926	4075.46
691.116	3866.56
691.305	4020.16
691.495	3993.54
691.684	3753.93
691.874	3995.59
692.063	3839.94
692.252	3880.9
692.442	3911.62
692.631	3813.32
692.82	3710.92
693.01	3858.37
693.199	3856.33
693.388	3688.39
693.578	3661.77
693.767	3727.3
693.956	3637.19
694.146	3631.05
694.335	3698.63
694.524	3663.82
694.713	3719.11
694.902	3706.82
695.092	3710.92
695.281	3598.28
695.47	3729.35
695.659	3651.53
695.848	3626.95
696.037	3639.24
696.226	3665.86
696.415	3469.26
696.604	3653.58
696.793	3510.22
696.982	3561.42
697.171	3493.83
697.36	3649.48
697.549	3549.13
697.738	3440.59
697.927	3573.71
698.116	3610.57
698.305	3528.65
698.494	3569.61
698.683	3540.94
698.872	3510.22
699.061	3397.58
699.25	3465.16
699.438	3567.56
699.627	3444.68
699.816	3487.69
700.005	3567.56
700.193	3549.13
700.382	3444.68
700.571	3383.24
700.76	3438.54
700.948	3336.14
701.137	3440.59
701.326	3399.63
701.514	3385.29
701.703	3362.76
701.892	3399.63
702.08	3620.81
702.269	3456.97
702.457	3465.16
702.646	3497.93
702.834	3364.81
703.023	3291.09
703.212	3418.06
703.4	3424.2
703.589	3346.38
703.777	3370.96
703.965	3330
704.154	3246.03
704.342	3362.76
704.531	3434.44
704.719	3297.23
704.907	3383.24
705.096	3379.15
705.284	3246.03
705.472	3264.46
705.661	3454.92
705.849	3334.09
706.037	3205.07
706.226	3200.98
706.414	3354.57
706.602	3209.17
706.79	3235.79
706.979	3174.35
707.167	3217.36
707.355	3313.61
707.543	3157.97
707.731	3291.09
707.919	3252.17
708.107	3080.14
708.296	3243.98
708.484	3223.5
708.672	3307.47
708.86	3235.79
709.048	3307.47
709.236	3248.08
709.424	3215.31
709.612	3186.64
709.8	3139.54
709.988	3037.14
710.176	3225.55
710.364	3344.33
710.551	3090.38
710.739	3209.17
710.927	3157.97
711.115	3198.93
711.303	3274.7
711.491	3104.72
711.679	3170.26
711.866	3203.02
712.054	3233.74
712.242	3127.25
712.43	3178.45
712.617	3129.3
712.805	3164.11
712.993	3162.06
713.181	3127.25
713.368	3241.93
713.556	3184.59
713.744	3057.62
713.931	3174.35
714.119	3250.13
714.306	3168.21
714.494	3184.59
714.682	3147.73
714.869	3084.24
715.057	3055.57
715.244	3100.62
715.432	3170.26
715.619	3125.2
715.807	3035.09
715.994	3190.74
716.182	3053.52
716.369	3074
716.556	3055.57
716.744	3086.29
716.931	3096.53
717.119	3059.67
717.306	3080.14
717.493	3088.34
717.681	3153.87
717.868	3016.66
718.055	3043.28
718.242	3090.38
718.43	3088.34
718.617	3016.66
718.804	2893.78
718.991	3049.43
719.179	3106.77
719.366	3051.47
719.553	3061.71
719.74	3059.67
719.927	3088.34
720.114	3065.81
720.301	3063.76
720.488	3028.95
720.676	3006.42
720.863	3018.71
721.05	3063.76
721.237	3018.71
721.424	2924.5
721.611	3006.42
721.798	2873.3
721.985	2924.5
722.172	3039.19
722.358	2965.46
722.545	3002.32
722.732	2947.03
722.919	2959.31
723.106	2908.12
723.293	2985.94
723.48	3053.52
723.667	3024.85
723.853	2889.68
724.04	3080.14
724.227	2846.68
724.414	2932.69
724.6	2811.86
724.787	2912.21
724.974	2897.88
725.161	2916.31
725.347	2818.01
725.534	3033.04
725.72	2842.58
725.907	2842.58
726.094	2889.68
726.28	2824.15
726.467	2742.23
726.653	2828.24
726.84	2875.35
727.027	2762.71
727.213	2822.1
727.4	2803.67
727.586	2842.58
727.773	2904.02
727.959	2770.9
728.145	2777.05
728.332	2850.77
728.518	2785.24
728.705	2756.57
728.891	2787.29
729.077	2899.92
729.264	2744.28
729.45	2719.7
729.636	2789.33
729.823	2858.96
730.009	2938.84
730.195	2822.1
730.382	2807.77
730.568	2822.1
730.754	2713.56
730.94	2824.15
731.126	2938.84
731.313	2752.47
731.499	2617.3
731.685	2629.59
731.871	2656.22
732.057	2715.61
732.243	2711.51
732.429	2793.43
732.615	2678.74
732.801	2621.4
732.987	2701.27
733.173	2662.36
733.359	2572.25
733.545	2555.86
733.731	2648.02
733.917	2678.74
734.103	2641.88
734.289	2748.37
734.475	2676.7
734.661	2777.05
734.847	2627.54
735.033	2623.45
735.219	2605.02
735.404	2619.35
735.59	2564.06
735.776	2611.16
735.962	2621.4
736.148	2695.13
736.333	2570.2
736.519	2519
736.705	2619.35
736.89	2656.22
737.076	2551.77
737.262	2607.06
737.447	2543.58
737.633	2541.53
737.819	2619.35
738.004	2570.2
738.19	2602.97
738.375	2514.91
738.561	2449.37
738.747	2523.1
738.932	2484.19
739.118	2564.06
739.303	2635.74
739.489	2562.01
739.674	2355.16
739.859	2449.37
740.045	2340.83
740.23	2295.77
740.416	2283.49
740.601	2482.14
740.786	2414.56
740.972	2316.25
741.157	2510.81
741.342	2232.29
741.528	2432.99
741.713	2426.84
741.898	2408.41
742.084	2353.12
742.269	2318.3
742.454	2287.58
742.639	2328.54
742.824	2285.53
743.01	2295.77
743.195	2406.36
743.38	2340.83
743.565	2191.33
743.75	2326.49
743.935	2230.24
744.12	2242.53
744.305	2279.39
744.49	2222.05
744.675	2203.61
744.86	2129.89
745.045	2166.75
745.23	2101.22
745.415	2131.94
745.6	2086.88
745.785	2095.07
745.97	2035.68
746.155	2215.9
746.34	2115.55
746.525	2064.35
746.71	2095.07
746.895	1974.24
747.079	2090.98
747.264	2064.35
747.449	2029.54
747.634	2039.78
747.819	2064.35
748.003	2056.16
748.188	1994.72
748.373	1888.23
748.557	1984.48
748.742	1986.53
748.927	1937.38
749.111	1888.23
749.296	1775.59
749.481	1978.34
749.665	1892.32
749.85	1814.5
750.034	1845.22
750.219	1867.75
750.404	1853.41
750.588	1916.9
750.773	1791.97
750.957	1701.86
751.141	1783.78
751.326	1699.81
751.51	1765.35
751.695	1716.2
751.879	1791.97
752.064	1728.49
752.248	1699.81
752.432	1742.82
752.617	1861.6
752.801	1742.82
752.985	1695.72
753.17	1697.77
753.354	1658.85
753.538	1628.14
753.722	1585.13
753.907	1558.5
754.091	1617.9
754.275	1591.27
754.459	1589.22
754.643	1527.78
754.828	1554.41
755.012	1519.59
755.196	1564.65
755.38	1574.89
755.564	1589.22
755.748	1581.03
755.932	1503.21
756.116	1431.53
756.3	1466.35
756.484	1480.68
756.668	1419.24
756.852	1271.79
757.036	1398.76
757.22	1376.23
757.404	1406.95
757.588	1329.13
757.772	1421.29
757.956	1343.47
758.14	1329.13
758.323	1368.04
758.507	1325.04
758.691	1310.7
758.875	1327.08
759.059	1421.29
759.242	1355.76
759.426	1302.51
759.61	1241.07
759.794	1286.12
759.977	1245.16
760.161	1318.89
760.345	1316.84
760.528	1187.82
760.712	1212.4
760.895	1193.97
761.079	1286.12
761.263	1294.32
761.446	1320.94
761.63	1226.73
761.813	1146.86
761.997	1177.58
762.18	1155.05
762.364	1181.68
762.547	1218.54
762.731	1114.09
762.914	1253.36
763.098	1163.25
763.281	1071.09
763.464	1153.01
763.648	1142.77
763.831	1136.62
764.015	1093.62
764.198	1167.34
764.381	1101.81
764.564	1144.81
764.748	1161.2
764.931	1128.43
765.114	1081.33
765.297	1011.7
765.481	1101.81
765.664	1142.77
765.847	1118.19
766.03	1021.94
766.213	1011.7
766.397	1032.18
766.58	1032.18
766.763	1007.6
766.946	1048.56
767.129	974.83
767.312	948.21
767.495	1028.08
767.678	1054.7
767.861	1066.99
768.044	987.12
768.227	954.35
768.41	946.16
768.593	1026.03
768.776	1007.6
768.959	948.21
769.142	1030.13
769.324	1032.18
769.507	1009.65
769.69	970.74
769.873	989.17
770.056	1077.23
770.239	987.12
770.421	1036.27
770.604	933.87
770.787	933.87
770.97	940.02
771.152	929.78
771.335	899.06
771.518	942.07
771.7	972.79
771.883	1042.42
772.066	854
772.248	899.06
772.431	931.83
772.613	940.02
772.796	909.3
772.978	851.95
773.161	983.02
773.343	870.39
773.526	866.29
773.708	847.86
773.891	831.48
774.073	880.63
774.256	772.08
774.438	878.58
774.621	757.75
774.803	847.86
774.985	811
775.168	831.48
775.35	784.37
775.532	845.81
775.715	772.08
775.897	835.57
776.079	784.37
776.261	802.8
776.444	829.43
776.626	700.41
776.808	841.72
776.99	741.36
777.173	800.76
777.355	763.89
777.537	767.99
777.719	753.65
777.901	710.65
778.083	718.84
778.265	608.25
778.447	716.79
778.629	712.69
778.811	643.06
778.993	733.17
779.175	667.64
779.357	663.54
779.539	696.31
779.721	661.49
779.903	690.17
780.085	645.11
780.267	618.49
780.449	724.98
780.631	767.99
780.812	671.73
780.994	634.87
781.176	647.16
781.358	614.39
781.54	610.29
781.721	624.63
781.903	620.53
782.085	618.49
782.267	608.25
782.448	565.24
782.63	579.58
782.812	538.62
782.993	538.62
783.175	610.29
783.357	606.2
783.538	532.47
783.72	557.05
783.901	573.43
784.083	548.86
784.264	483.32
784.446	479.22
784.627	393.21
784.809	497.66
784.99	542.71
785.172	507.9
785.353	501.75
785.535	501.75
785.716	575.48
785.897	464.89
786.079	471.03
786.26	557.05
786.441	497.66
786.623	393.21
786.804	446.46
786.985	440.31
787.167	559.1
787.348	423.93
787.529	407.55
787.71	555
787.891	489.46
788.073	501.75
788.254	401.4
788.435	552.95
788.616	421.88
788.797	417.79
788.978	428.03
789.159	493.56
789.34	430.07
789.522	440.31
789.703	323.58
789.884	366.59
790.065	389.11
790.246	446.46
790.427	329.72
790.607	425.98
790.788	399.35
790.969	327.67
791.15	401.4
791.331	393.21
791.512	415.74
791.693	419.83
791.874	413.69
792.054	405.5
792.235	421.88
792.416	337.91
792.597	387.07
792.778	411.64
792.958	419.83
793.139	417.79
793.32	378.87
793.5	299
793.681	376.83
793.862	233.47
794.042	356.35
794.223	303.1
794.404	348.15
794.584	319.48
794.765	366.59
794.945	352.25
795.126	286.72
795.306	282.62
795.487	417.79
795.667	368.63
795.848	358.39
796.028	339.96
796.209	329.72
796.389	317.44
796.57	194.56
796.75	342.01
796.93	315.39
797.111	268.28
797.291	284.67
797.471	364.54
797.652	335.87
797.832	278.52
798.012	352.25
798.192	258.04
798.373	282.62
798.553	335.87
798.733	313.34
798.913	313.34
799.093	342.01
799.274	319.48
799.454	264.19
799.634	354.3
799.814	325.63
799.994	317.44
800.174	331.77
800.354	278.52
800.534	245.76
800.714	233.47
800.894	227.32
801.074	251.9
801.254	319.48
801.434	268.28
801.614	243.71
801.794	194.56
801.974	804.85
802.154	288.76
802.334	196.6
802.514	229.37
802.693	303.1
802.873	225.28
803.053	325.63
803.233	231.42
803.413	202.75
803.592	288.76
803.772	268.28
803.952	276.48
804.131	163.84
804.311	253.95
804.491	251.9
804.67	262.14
804.85	256
805.03	284.67
805.209	278.52
805.389	237.56
805.568	266.24
805.748	229.37
805.928	243.71
806.107	215.04
806.287	241.66
806.466	256
806.646	237.56
806.825	186.37
807.004	122.88
807.184	210.94
807.363	266.24
807.543	176.13
807.722	137.21
807.901	235.52
808.081	276.48
808.26	163.84
808.439	196.6
808.619	180.22
808.798	268.28
808.977	202.75
809.156	221.18
809.336	290.81
809.515	237.56
809.694	233.47
809.873	227.32
810.052	110.59
810.231	176.13
810.411	194.56
810.59	241.66
810.769	188.41
810.948	198.65
811.127	172.03
811.306	155.65
811.485	143.36
811.664	278.52
811.843	276.48
812.022	151.55
812.201	219.13
812.38	225.28
812.559	186.37
812.737	208.89
812.916	159.74
813.095	172.03
813.274	225.28
813.453	180.22
813.632	149.5
813.811	178.17
813.989	106.49
814.168	219.13
814.347	106.49
814.526	221.18
814.704	262.14
814.883	198.65
815.062	122.88
815.24	247.8
815.419	114.69
815.598	178.17
815.776	98.3
815.955	247.8
816.133	149.5
816.312	133.12
816.49	163.84
816.669	184.32
816.847	212.99
817.026	161.79
817.204	190.46
817.383	215.04
817.561	184.32
817.74	188.41
817.918	120.83
818.097	112.64
818.275	139.26
818.453	180.22
818.632	243.71
818.81	139.26
818.988	131.07
819.167	141.31
819.345	163.84
819.523	141.31
819.701	225.28
819.879	196.6
820.058	53.25
820.236	108.54
820.414	79.87
820.592	151.55
820.77	131.07
820.948	188.41
821.127	178.17
821.305	159.74
821.483	155.65
821.661	221.18
821.839	215.04
822.017	198.65
822.195	149.5
822.373	116.73
822.551	51.2
822.729	157.69
822.907	65.53
823.085	139.26
823.262	79.87
823.44	141.31
823.618	151.55
823.796	143.36
823.974	61.44
824.152	114.69
824.329	174.08
824.507	114.69
824.685	147.45
824.863	155.65
825.04	59.39
825.218	147.45
825.396	131.07
825.574	79.87
825.751	102.4
825.929	110.59
826.107	40.96
826.284	88.06
826.462	120.83
826.639	75.77
826.817	71.68
826.994	141.31
827.172	2.05
827.349	208.89
827.527	102.4
827.704	147.45
827.882	104.45
828.059	108.54
828.237	153.6
828.414	102.4
828.591	71.68
828.769	40.96
828.946	94.21
829.124	151.55
829.301	155.65
829.478	163.84
829.655	112.64
829.833	165.89
830.01	104.45
830.187	96.25
830.364	77.82
830.542	155.65
830.719	147.45
830.896	49.15
831.073	49.15
831.25	120.83
831.427	112.64
831.604	20.48
831.782	71.68
831.959	143.36
832.136	90.11
832.313	118.78
832.49	96.25
832.667	92.16
832.844	14.34
833.021	131.07
833.198	114.69
833.374	106.49
833.551	112.64
833.728	120.83
833.905	122.88
834.082	47.1
834.259	86.01
834.436	106.49
834.612	79.87
834.789	69.63
834.966	94.21
835.143	114.69
835.319	86.01
835.496	151.55
835.673	73.73
835.85	86.01
836.026	65.53
836.203	83.97
836.38	47.1
836.556	49.15
836.733	57.34
836.909	176.13
837.086	36.86
837.262	43.01
837.439	71.68
837.616	55.3
837.792	2.05
837.968	83.97
838.145	45.06
838.321	83.97
838.498	114.69
838.674	98.3
838.851	6.14
839.027	43.01
839.203	16.38
839.38	81.92
839.556	86.01
839.732	161.79
839.909	47.1
840.085	118.78
840.261	32.77
840.437	79.87
840.614	53.25
840.79	28.67
840.966	104.45
841.142	4.1
841.318	57.34
841.494	36.86
841.671	129.02
841.847	36.86
842.023	40.96
842.199	47.1
842.375	20.48
842.551	49.15
842.727	51.2
842.903	90.11
843.079	55.3
843.255	141.31
843.431	32.77
843.607	120.83
843.783	47.1
843.959	47.1
844.134	43.01
844.31	94.21
844.486	77.82
844.662	61.44
844.838	83.97
845.013	30.72
845.189	49.15
845.365	-10.24
845.541	53.25
845.716	90.11
845.892	106.49
846.068	65.53
846.244	18.43
846.419	77.82
846.595	24.58
846.77	51.2
846.946	81.92
847.122	67.58
847.297	53.25
847.473	67.58
847.648	-32.77
847.824	20.48
847.999	34.82
848.175	133.12
848.35	73.73
848.526	6.14
848.701	55.3
848.876	71.68
849.052	86.01
849.227	18.43
849.403	14.34
849.578	32.77
849.753	98.3
849.929	53.25
850.104	-65.54
850.279	81.92
850.454	104.45
850.63	28.67
850.805	38.91
850.98	40.96
851.155	12.29
851.33	88.06
851.505	34.82
851.681	32.77
851.856	-0
852.031	16.38
852.206	79.87
852.381	36.86
852.556	-6.14
852.731	83.97
852.906	-36.86
853.081	169.98
853.256	120.83
853.431	106.49
853.606	88.06
853.781	24.58
853.956	40.96
854.131	114.69
854.305	61.44
854.48	18.43
854.655	53.25
854.83	96.25
855.005	65.53
855.18	12.29
855.354	-34.82
855.529	108.54
855.704	4.1
855.879	63.49
856.053	73.73
856.228	26.62
856.403	36.86
856.577	71.68
856.752	45.06
856.926	47.1
857.101	61.44
857.276	2.05
857.45	8.19
857.625	47.1
857.799	61.44
857.974	53.25
858.148	20.48
858.323	45.06
858.497	26.62
858.672	26.62
858.846	-12.29
859.02	45.06
859.195	16.38
859.369	-32.77
859.543	57.34
859.718	65.53
859.892	24.58
860.066	22.53
860.241	34.82
860.415	14.34
860.589	57.34
860.763	10.24
860.938	71.68
861.112	45.06
861.286	-18.43
861.46	10.24
861.634	-14.34
861.808	69.63
861.982	28.67
862.157	4.1
862.331	75.77
862.505	43.01
862.679	51.2
862.853	-30.72
863.027	22.53
863.201	86.01
863.375	-4.1
863.549	79.87
863.722	45.06
863.896	71.68
864.07	49.15
864.244	81.92
864.418	49.15
864.592	4.1
864.766	-16.38
864.939	-4.1
865.113	53.25
865.287	30.72
865.461	-12.29
865.634	38.91
865.808	40.96
865.982	30.72
866.156	45.06
866.329	26.62
866.503	55.3
866.676	63.49
866.85	-8.19
867.024	-12.29
867.197	38.91
867.371	73.73
867.544	10.24
867.718	34.82
867.891	20.48
868.065	12.29
868.238	53.25
868.412	98.3
868.585	32.77
868.759	61.44
868.932	-40.96
869.105	49.15
869.279	22.53
869.452	14.34
869.625	53.25
869.799	-16.38
869.972	-36.86
870.145	-4.1
870.319	69.63
870.492	16.38
870.665	63.49
870.838	-43.01
871.011	-8.19
871.185	57.34
871.358	26.62
871.531	36.86
871.704	6.14
871.877	18.43
872.05	-22.53
872.223	-2.05
872.396	104.45
872.569	49.15
872.742	-45.06
872.915	47.1
873.088	45.06
873.261	-49.15
873.434	77.82
873.607	63.49
873.78	-18.43
873.953	26.62
874.126	30.72
874.299	12.29
874.471	16.38
874.644	53.25
874.817	135.17
874.99	90.11
875.163	34.82
875.335	-4.1
875.508	38.91
875.681	69.63
875.853	-49.15
876.026	8.19
876.199	79.87
876.371	51.2
876.544	40.96
876.717	43.01
876.889	16.38
877.062	65.53
877.234	28.67
877.407	38.91
877.579	45.06
877.752	-12.29
877.924	8.19
878.097	69.63
878.269	36.86
878.442	57.34
878.614	77.82
878.786	24.58
878.959	38.91
879.131	65.53
879.303	22.53
879.476	53.25
879.648	16.38
879.82	30.72
879.993	77.82
880.165	-53.25
880.337	-18.43
880.509	-30.72
880.681	-8.19
880.854	47.1
881.026	38.91
881.198	206.84
881.37	-2.05
881.542	-8.19
881.714	14.34
881.886	22.53
882.058	-4.1
882.23	57.34
882.402	-40.96
882.574	43.01
882.746	45.06
882.918	6.14
883.09	34.82
883.262	12.29
883.434	79.87
883.606	36.86
883.778	28.67
883.95	73.73
884.122	-55.3
884.293	36.86
884.465	57.34
884.637	86.01
884.809	-24.58
884.98	-12.29
885.152	-6.14
885.324	59.39
885.496	12.29
885.667	49.15
885.839	40.96
886.011	49.15
886.182	57.34
886.354	2.05
886.525	4.1
886.697	36.86
886.869	61.44
887.04	73.73
887.212	100.35
887.383	28.67
887.555	-6.14
887.726	2.05
887.897	4.1
888.069	-51.2
888.24	4.1
888.412	10.24
888.583	20.48
888.754	2.05
888.926	-63.49
889.097	36.86
889.268	-22.53
889.44	-18.43
889.611	-8.19
889.782	-22.53
889.953	-2.05
890.125	59.39
890.296	67.58
890.467	-16.38
890.638	49.15
890.809	10.24
890.98	57.34
891.151	90.11
891.323	-2.05
891.494	51.2
891.665	-10.24
891.836	79.87
892.007	71.68
892.178	8.19
892.349	53.25
892.52	-28.67
892.691	6.14
892.862	-51.2
893.032	-0
893.203	-28.67
893.374	-18.43
893.545	34.82
893.716	53.25
893.887	36.86
894.057	-6.14
894.228	47.1
894.399	-49.15
894.57	-49.15
894.74	-2.05
894.911	-0
895.082	47.1
895.253	-26.62
895.423	8.19
895.594	-8.19
895.764	67.58
895.935	18.43
896.106	24.58
896.276	8.19
896.447	-10.24
896.617	-0
896.788	4.1
896.958	28.67
897.129	49.15
897.299	-8.19
897.47	28.67
897.64	12.29
897.81	6.14
897.981	14.34
898.151	6.14
898.322	75.77
898.492	-0
898.662	10.24
898.832	2.05
899.003	36.86
899.173	16.38
899.343	-10.24
899.513	28.67
