Data from USB4F104151__278__10-40-58-731.txt Node

Date: Wed Mar 12 10:40:58 EDT 2025
User: louis
Spectrometer: USB4F10415
Trigger mode: 4
Integration Time (sec): 3.000000E-2
Scans to average: 1
Electric dark correction enabled: true
Nonlinearity correction enabled: false
Boxcar width: 0
XAxis mode: Wavelengths
Number of Pixels in Spectrum: 3648
>>>>>Begin Spectral Data<<<<<
178.204	-74.07
178.424	-74.07
178.644	-74.07
178.864	-96.6
179.084	-110.93
179.304	-10.58
179.524	11.95
179.744	-51.54
179.964	28.33
180.184	-4.44
180.404	-2.39
180.624	-18.77
180.844	59.05
181.064	-2.39
181.283	-0.34
181.503	-20.82
181.723	11.95
181.943	-47.44
182.163	85.67
182.383	-22.87
182.602	59.05
182.822	20.14
183.042	11.95
183.262	11.95
183.482	1.71
183.701	20.14
183.921	54.95
184.141	11.95
184.361	28.33
184.58	36.52
184.8	32.43
185.02	-63.83
185.239	16.04
185.459	-33.11
185.679	54.95
185.898	-33.11
186.118	22.19
186.338	54.95
186.557	20.14
186.777	-18.77
186.997	30.38
187.216	-49.49
187.436	114.34
187.655	106.15
187.875	28.33
188.095	42.67
188.314	91.82
188.534	102.06
188.753	-24.92
188.973	67.24
189.192	81.58
189.412	-0.34
189.631	13.99
189.851	40.62
190.07	85.67
190.29	-6.49
190.509	-16.73
190.729	-8.53
190.948	69.29
191.168	97.96
191.387	3.75
191.607	54.95
191.826	67.24
192.045	59.05
192.265	61.1
192.484	-6.49
192.704	26.28
192.923	-18.77
193.142	97.96
193.362	-22.87
193.581	13.99
193.8	-20.82
194.02	40.62
194.239	50.86
194.458	122.54
194.678	-18.77
194.897	-0.34
195.116	48.81
195.335	18.09
195.555	-29.01
195.774	93.87
195.993	16.04
196.212	-0.34
196.432	20.14
196.651	-26.96
196.87	9.9
197.089	59.05
197.308	-14.68
197.528	79.53
197.747	7.85
197.966	48.81
198.185	-29.01
198.404	-10.58
198.623	7.85
198.842	87.72
199.062	50.86
199.281	52.91
199.5	-39.25
199.719	61.1
199.938	20.14
200.157	132.78
200.376	-24.92
200.595	1.71
200.814	48.81
201.033	28.33
201.252	83.63
201.471	104.11
201.69	79.53
201.909	93.87
202.128	3.75
202.347	-8.53
202.566	-6.49
202.785	40.62
203.004	-18.77
203.223	50.86
203.442	61.1
203.661	-20.82
203.879	77.48
204.098	59.05
204.317	-2.39
204.536	22.19
204.755	-6.49
204.974	1.71
205.193	46.76
205.411	5.8
205.63	20.14
205.849	-4.44
206.068	44.71
206.287	50.86
206.505	44.71
206.724	-6.49
206.943	-24.92
207.162	-26.96
207.381	48.81
207.599	77.48
207.818	93.87
208.037	73.39
208.255	26.28
208.474	-26.96
208.693	102.06
208.911	13.99
209.13	95.91
209.349	48.81
209.567	104.11
209.786	44.71
210.005	11.95
210.223	124.58
210.442	-61.78
210.661	87.72
210.879	-6.49
211.098	16.04
211.316	54.95
211.535	63.15
211.753	59.05
211.972	83.63
212.191	-10.58
212.409	9.9
212.628	24.23
212.846	36.52
213.065	46.76
213.283	95.91
213.502	-55.64
213.72	61.1
213.938	100.01
214.157	13.99
214.375	24.23
214.594	-16.73
214.812	46.76
215.031	61.1
215.249	20.14
215.467	48.81
215.686	5.8
215.904	73.39
216.122	18.09
216.341	-24.92
216.559	-37.2
216.778	-12.63
216.996	9.9
217.214	-24.92
217.432	36.52
217.651	36.52
217.869	-6.49
218.087	9.9
218.306	-26.96
218.524	46.76
218.742	-20.82
218.96	54.95
219.179	11.95
219.397	7.85
219.615	77.48
219.833	44.71
220.051	-41.3
220.27	85.67
220.488	28.33
220.706	24.23
220.924	71.34
221.142	5.8
221.36	-20.82
221.578	85.67
221.796	18.09
222.015	-37.2
222.233	40.62
222.451	40.62
222.669	-10.58
222.887	63.15
223.105	11.95
223.323	13.99
223.541	-6.49
223.759	-20.82
223.977	20.14
224.195	147.11
224.413	67.24
224.631	18.09
224.849	3.75
225.067	81.58
225.285	-18.77
225.503	48.81
225.721	-49.49
225.939	24.23
226.157	20.14
226.375	48.81
226.592	18.09
226.81	46.76
227.028	97.96
227.246	26.28
227.464	48.81
227.682	20.14
227.9	71.34
228.117	102.06
228.335	54.95
228.553	38.57
228.771	36.52
228.989	50.86
229.206	61.1
229.424	-65.88
229.642	54.95
229.86	-22.87
230.077	87.72
230.295	36.52
230.513	38.57
230.731	-29.01
230.948	28.33
231.166	143.02
231.384	-2.39
231.601	28.33
231.819	22.19
232.037	67.24
232.254	-33.11
232.472	61.1
232.689	-0.34
232.907	18.09
233.125	16.04
233.342	34.47
233.56	-8.53
233.777	-0.34
233.995	3.75
234.213	28.33
234.43	-4.44
234.648	18.09
234.865	26.28
235.083	-24.92
235.3	18.09
235.518	79.53
235.735	106.15
235.953	3.75
236.17	9.9
236.388	3.75
236.605	34.47
236.822	79.53
237.04	122.54
237.257	-16.73
237.475	-10.58
237.692	44.71
237.909	52.91
238.127	-47.44
238.344	22.19
238.562	11.95
238.779	-24.92
238.996	54.95
239.214	-41.3
239.431	50.86
239.648	83.63
239.865	11.95
240.083	11.95
240.3	30.38
240.517	-18.77
240.735	71.34
240.952	73.39
241.169	32.43
241.386	87.72
241.603	-6.49
241.821	38.57
242.038	-10.58
242.255	57
242.472	1.71
242.689	-12.63
242.907	89.77
243.124	30.38
243.341	87.72
243.558	44.71
243.775	-43.35
243.992	-0.34
244.209	-29.01
244.426	71.34
244.643	30.38
244.86	-12.63
245.078	130.73
245.295	118.44
245.512	65.19
245.729	-20.82
245.946	28.33
246.163	89.77
246.38	-8.53
246.597	30.38
246.814	44.71
247.031	69.29
247.248	22.19
247.464	-10.58
247.681	-16.73
247.898	24.23
248.115	30.38
248.332	-12.63
248.549	69.29
248.766	79.53
248.983	77.48
249.2	85.67
249.417	59.05
249.633	-14.68
249.85	9.9
250.067	44.71
250.284	13.99
250.501	95.91
250.717	38.57
250.934	-29.01
251.151	16.04
251.368	44.71
251.585	81.58
251.801	48.81
252.018	-49.49
252.235	36.52
252.451	22.19
252.668	38.57
252.885	16.04
253.102	20.14
253.318	-2.39
253.535	-12.63
253.752	40.62
253.968	1.71
254.185	18.09
254.401	32.43
254.618	46.76
254.835	-16.73
255.051	73.39
255.268	7.85
255.484	79.53
255.701	85.67
255.917	38.57
256.134	108.2
256.351	42.67
256.567	-29.01
256.784	114.34
257	9.9
257.217	44.71
257.433	67.24
257.65	16.04
257.866	151.21
258.082	-4.44
258.299	-8.53
258.515	32.43
258.732	-18.77
258.948	-16.73
259.165	36.52
259.381	65.19
259.597	91.82
259.814	48.81
260.03	59.05
260.246	59.05
260.463	122.54
260.679	67.24
260.895	-45.4
261.112	-4.44
261.328	1.71
261.544	106.15
261.761	102.06
261.977	-4.44
262.193	-4.44
262.409	-31.06
262.626	77.48
262.842	71.34
263.058	16.04
263.274	-0.34
263.49	44.71
263.707	67.24
263.923	24.23
264.139	-35.16
264.355	50.86
264.571	24.23
264.787	102.06
265.004	-10.58
265.22	52.91
265.436	22.19
265.652	42.67
265.868	67.24
266.084	52.91
266.3	3.75
266.516	9.9
266.732	46.76
266.948	59.05
267.164	-22.87
267.38	81.58
267.596	34.47
267.812	48.81
268.028	61.1
268.244	24.23
268.46	-18.77
268.676	69.29
268.892	-4.44
269.108	18.09
269.324	18.09
269.54	-41.3
269.756	20.14
269.972	-78.16
270.188	30.38
270.403	42.67
270.619	79.53
270.835	24.23
271.051	-18.77
271.267	-24.92
271.483	44.71
271.698	-14.68
271.914	48.81
272.13	22.19
272.346	44.71
272.562	59.05
272.777	77.48
272.993	54.95
273.209	32.43
273.425	28.33
273.64	13.99
273.856	46.76
274.072	9.9
274.287	-10.58
274.503	30.38
274.719	32.43
274.934	-12.63
275.15	-14.68
275.366	57
275.581	3.75
275.797	18.09
276.012	34.47
276.228	100.01
276.444	28.33
276.659	26.28
276.875	36.52
277.09	-33.11
277.306	20.14
277.521	-18.77
277.737	13.99
277.952	13.99
278.168	42.67
278.383	46.76
278.599	44.71
278.814	-8.53
279.03	-0.34
279.245	7.85
279.461	18.09
279.676	22.19
279.892	-63.83
280.107	-45.4
280.322	57
280.538	34.47
280.753	42.67
280.969	-0.34
281.184	36.52
281.399	-2.39
281.615	3.75
281.83	73.39
282.045	5.8
282.26	28.33
282.476	75.43
282.691	20.14
282.906	16.04
283.122	7.85
283.337	-31.06
283.552	89.77
283.767	-18.77
283.983	116.39
284.198	13.99
284.413	46.76
284.628	7.85
284.843	79.53
285.058	-12.63
285.274	18.09
285.489	44.71
285.704	112.3
285.919	71.34
286.134	-24.92
286.349	67.24
286.564	11.95
286.779	75.43
286.995	-16.73
287.21	-2.39
287.425	11.95
287.64	28.33
287.855	32.43
288.07	67.24
288.285	57
288.5	116.39
288.715	69.29
288.93	-0.34
289.145	22.19
289.36	9.9
289.575	36.52
289.79	50.86
290.004	5.8
290.219	42.67
290.434	52.91
290.649	7.85
290.864	40.62
291.079	79.53
291.294	9.9
291.509	48.81
291.724	36.52
291.938	48.81
292.153	13.99
292.368	59.05
292.583	24.23
292.798	63.15
293.012	32.43
293.227	11.95
293.442	3.75
293.657	63.15
293.871	22.19
294.086	26.28
294.301	73.39
294.516	108.2
294.73	3.75
294.945	-22.87
295.16	81.58
295.374	52.91
295.589	102.06
295.804	20.14
296.018	-6.49
296.233	46.76
296.447	102.06
296.662	69.29
296.877	32.43
297.091	-43.35
297.306	-24.92
297.52	20.14
297.735	77.48
297.949	106.15
298.164	36.52
298.378	57
298.593	46.76
298.807	32.43
299.022	89.77
299.236	34.47
299.451	61.1
299.665	20.14
299.88	52.91
300.094	71.34
300.309	79.53
300.523	20.14
300.737	40.62
300.952	108.2
301.166	69.29
301.381	22.19
301.595	44.71
301.809	13.99
302.024	-20.82
302.238	11.95
302.452	42.67
302.667	24.23
302.881	110.25
303.095	11.95
303.309	20.14
303.524	-10.58
303.738	67.24
303.952	34.47
304.166	87.72
304.381	-24.92
304.595	104.11
304.809	26.28
305.023	32.43
305.237	20.14
305.452	63.15
305.666	11.95
305.88	89.77
306.094	34.47
306.308	30.38
306.522	79.53
306.736	100.01
306.95	89.77
307.164	38.57
307.379	16.04
307.593	110.25
307.807	57
308.021	-31.06
308.235	3.75
308.449	-24.92
308.663	75.43
308.877	11.95
309.091	16.04
309.305	28.33
309.519	11.95
309.733	20.14
309.947	-4.44
310.161	65.19
310.374	36.52
310.588	34.47
310.802	79.53
311.016	22.19
311.23	77.48
311.444	-24.92
311.658	18.09
311.872	85.67
312.085	83.63
312.299	97.96
312.513	20.14
312.727	22.19
312.941	7.85
313.154	13.99
313.368	-22.87
313.582	149.16
313.796	46.76
314.009	26.28
314.223	91.82
314.437	73.39
314.651	28.33
314.864	20.14
315.078	-24.92
315.292	89.77
315.505	24.23
315.719	67.24
315.933	44.71
316.146	26.28
316.36	46.76
316.573	93.87
316.787	59.05
317.001	40.62
317.214	36.52
317.428	85.67
317.641	54.95
317.855	28.33
318.068	36.52
318.282	61.1
318.495	91.82
318.709	65.19
318.922	50.86
319.136	44.71
319.349	3.75
319.563	38.57
319.776	42.67
319.99	42.67
320.203	59.05
320.417	44.71
320.63	50.86
320.843	42.67
321.057	22.19
321.27	36.52
321.483	95.91
321.697	54.95
321.91	24.23
322.124	38.57
322.337	61.1
322.55	120.49
322.763	-29.01
322.977	97.96
323.19	11.95
323.403	11.95
323.617	106.15
323.83	73.39
324.043	114.34
324.256	-26.96
324.469	-6.49
324.683	44.71
324.896	24.23
325.109	44.71
325.322	46.76
325.535	63.15
325.748	20.14
325.962	24.23
326.175	46.76
326.388	63.15
326.601	48.81
326.814	-20.82
327.027	28.33
327.24	134.82
327.453	44.71
327.666	52.91
327.879	-12.63
328.092	44.71
328.305	44.71
328.518	69.29
328.731	48.81
328.944	-45.4
329.157	9.9
329.37	28.33
329.583	61.1
329.796	48.81
330.009	-8.53
330.222	87.72
330.435	34.47
330.648	-0.34
330.861	13.99
331.073	73.39
331.286	83.63
331.499	42.67
331.712	-0.34
331.925	65.19
332.138	3.75
332.35	69.29
332.563	69.29
332.776	147.11
332.989	40.62
333.202	52.91
333.414	-41.3
333.627	44.71
333.84	34.47
334.053	102.06
334.265	26.28
334.478	22.19
334.691	11.95
334.903	63.15
335.116	38.57
335.329	24.23
335.541	73.39
335.754	120.49
335.966	36.52
336.179	97.96
336.392	44.71
336.604	18.09
336.817	38.57
337.029	26.28
337.242	42.67
337.454	54.95
337.667	-12.63
337.88	155.3
338.092	-4.44
338.305	-10.58
338.517	-8.53
338.729	69.29
338.942	126.63
339.154	7.85
339.367	7.85
339.579	38.57
339.792	50.86
340.004	44.71
340.217	11.95
340.429	77.48
340.641	65.19
340.854	1.71
341.066	30.38
341.278	69.29
341.491	38.57
341.703	40.62
341.915	69.29
342.128	67.24
342.34	-2.39
342.552	48.81
342.764	44.71
342.977	40.62
343.189	44.71
343.401	77.48
343.613	-65.88
343.826	46.76
344.038	-8.53
344.25	-10.58
344.462	36.52
344.674	1.71
344.886	9.9
345.099	40.62
345.311	108.2
345.523	106.15
345.735	-53.59
345.947	-37.2
346.159	93.87
346.371	1.71
346.583	-20.82
346.795	61.1
347.007	-4.44
347.219	-4.44
347.431	-31.06
347.643	16.04
347.855	16.04
348.067	108.2
348.279	-8.53
348.491	83.63
348.703	75.43
348.915	-2.39
349.127	-16.73
349.339	26.28
349.551	40.62
349.763	91.82
349.975	48.81
350.187	145.06
350.399	54.95
350.61	54.95
350.822	87.72
351.034	24.23
351.246	57
351.458	46.76
351.669	30.38
351.881	93.87
352.093	79.53
352.305	97.96
352.517	54.95
352.728	110.25
352.94	69.29
353.152	93.87
353.363	36.52
353.575	24.23
353.787	93.87
353.999	30.38
354.21	57
354.422	16.04
354.633	32.43
354.845	71.34
355.057	57
355.268	20.14
355.48	69.29
355.692	57
355.903	95.91
356.115	18.09
356.326	24.23
356.538	36.52
356.749	97.96
356.961	77.48
357.172	28.33
357.384	34.47
357.595	26.28
357.807	57
358.018	61.1
358.23	100.01
358.441	-6.49
358.653	-2.39
358.864	97.96
359.075	44.71
359.287	50.86
359.498	85.67
359.709	83.63
359.921	61.1
360.132	91.82
360.344	54.95
360.555	77.48
360.766	46.76
360.977	106.15
361.189	50.86
361.4	67.24
361.611	91.82
361.823	61.1
362.034	67.24
362.245	46.76
362.456	18.09
362.667	75.43
362.879	16.04
363.09	13.99
363.301	77.48
363.512	54.95
363.723	79.53
363.935	50.86
364.146	116.39
364.357	42.67
364.568	61.1
364.779	28.33
364.99	118.44
365.201	13.99
365.412	79.53
365.623	128.68
365.834	73.39
366.045	93.87
366.256	89.77
366.467	75.43
366.678	-12.63
366.889	1.71
367.1	-2.39
367.311	167.59
367.522	1.71
367.733	93.87
367.944	50.86
368.155	46.76
368.366	-2.39
368.577	11.95
368.788	91.82
368.999	59.05
369.209	40.62
369.42	18.09
369.631	102.06
369.842	69.29
370.053	-0.34
370.264	110.25
370.474	71.34
370.685	75.43
370.896	11.95
371.107	18.09
371.317	61.1
371.528	71.34
371.739	36.52
371.95	26.28
372.16	9.9
372.371	-41.3
372.582	26.28
372.792	-47.44
373.003	81.58
373.214	26.28
373.424	18.09
373.635	85.67
373.846	28.33
374.056	44.71
374.267	91.82
374.477	-6.49
374.688	83.63
374.898	69.29
375.109	77.48
375.319	34.47
375.53	46.76
375.74	48.81
375.951	44.71
376.161	69.29
376.372	67.24
376.582	44.71
376.793	65.19
377.003	67.24
377.214	106.15
377.424	140.97
377.635	81.58
377.845	67.24
378.055	91.82
378.266	20.14
378.476	7.85
378.686	1.71
378.897	65.19
379.107	87.72
379.317	44.71
379.528	97.96
379.738	77.48
379.948	57
380.158	81.58
380.369	40.62
380.579	124.58
380.789	42.67
380.999	95.91
381.21	67.24
381.42	69.29
381.63	67.24
381.84	63.15
382.05	46.76
382.261	120.49
382.471	61.1
382.681	97.96
382.891	63.15
383.101	71.34
383.311	52.91
383.521	67.24
383.731	30.38
383.941	118.44
384.151	-63.83
384.361	61.1
384.571	28.33
384.781	155.3
384.991	143.02
385.201	132.78
385.411	194.22
385.621	57
385.831	63.15
386.041	102.06
386.251	11.95
386.461	149.16
386.671	32.43
386.881	106.15
387.091	95.91
387.301	40.62
387.511	42.67
387.72	16.04
387.93	143.02
388.14	24.23
388.35	124.58
388.56	65.19
388.769	100.01
388.979	93.87
389.189	-0.34
389.399	48.81
389.609	93.87
389.818	102.06
390.028	93.87
390.238	167.59
390.447	57
390.657	28.33
390.867	9.9
391.076	-35.16
391.286	102.06
391.496	61.1
391.705	57
391.915	151.21
392.125	97.96
392.334	91.82
392.544	61.1
392.753	34.47
392.963	85.67
393.172	44.71
393.382	32.43
393.591	106.15
393.801	97.96
394.01	134.82
394.22	69.29
394.429	50.86
394.639	75.43
394.848	130.73
395.058	67.24
395.267	63.15
395.477	124.58
395.686	97.96
395.895	183.98
396.105	181.93
396.314	132.78
396.524	136.87
396.733	116.39
396.942	120.49
397.152	102.06
397.361	85.67
397.57	81.58
397.78	59.05
397.989	140.97
398.198	165.54
398.407	190.12
398.617	138.92
398.826	126.63
399.035	120.49
399.244	132.78
399.453	110.25
399.663	134.82
399.872	224.94
400.081	179.88
400.29	151.21
400.499	177.83
400.708	204.46
400.917	175.78
401.127	206.5
401.336	140.97
401.545	171.69
401.754	167.59
401.963	126.63
402.172	188.07
402.381	198.31
402.59	100.01
402.799	122.54
403.008	177.83
403.217	204.46
403.426	196.26
403.635	93.87
403.844	147.11
404.053	179.88
404.262	153.26
404.471	91.82
404.68	169.64
404.888	200.36
405.097	173.74
405.306	190.12
405.515	208.55
405.724	198.31
405.933	149.16
406.142	208.55
406.35	249.51
406.559	265.89
406.768	282.28
406.977	253.61
407.185	288.42
407.394	302.76
407.603	267.94
407.812	319.14
408.02	274.09
408.229	220.84
408.438	259.75
408.646	358.05
408.855	263.85
409.064	339.62
409.272	288.42
409.481	442.02
409.69	358.05
409.898	370.34
410.107	423.59
410.315	419.49
410.524	435.88
410.733	478.88
410.941	399.01
411.15	450.21
411.358	509.6
411.567	521.89
411.775	474.79
411.984	507.55
412.192	618.15
412.401	503.46
412.609	577.19
412.818	661.15
413.026	501.41
413.234	640.67
413.443	597.67
413.651	624.29
413.86	669.34
414.068	775.84
414.276	839.33
414.485	755.36
414.693	808.61
414.901	939.68
415.11	880.29
415.318	994.97
415.526	935.58
415.734	1072.79
415.943	960.16
416.151	1070.75
416.359	980.64
416.567	1048.22
416.776	1113.75
416.984	1197.72
417.192	1232.54
417.4	1246.87
417.608	1275.54
417.817	1306.26
418.025	1453.72
418.233	1496.72
418.441	1418.9
418.649	1560.21
418.857	1625.75
419.065	1701.52
419.273	1617.55
419.481	1810.06
419.689	1855.12
419.897	1846.93
420.105	1832.59
420.313	2039.44
420.521	2092.68
420.729	2154.12
420.937	2164.36
421.145	2236.04
421.353	2367.11
421.561	2606.72
421.769	2580.1
421.977	2641.54
422.185	2533
422.393	2764.42
422.601	3112.57
422.809	3004.03
423.017	3034.75
423.224	3161.72
423.432	3184.25
423.64	3214.97
423.848	3569.27
424.056	3454.58
424.263	3716.72
424.471	3804.78
424.679	3989.1
424.887	4087.4
425.094	4124.27
425.302	4064.88
425.51	4361.83
425.718	4284.01
425.925	4484.71
426.133	4689.51
426.341	4769.38
426.548	4955.74
426.756	5174.88
426.964	5207.64
427.171	5510.74
427.379	5580.37
427.586	5762.64
427.794	6008.4
428.001	6184.52
428.209	6405.7
428.417	6377.03
428.624	6907.46
428.832	7044.67
429.039	6712.9
429.247	6776.39
429.454	7370.3
429.662	7960.11
429.869	7513.66
430.076	8007.22
430.284	7810.61
430.491	8097.33
430.699	8515.11
430.906	8564.26
431.114	8678.95
431.321	9033.25
431.528	9240.09
431.736	9700.89
431.943	10077.71
432.15	9872.92
432.358	10036.75
432.565	10692.1
432.772	10456.59
432.979	11310.59
433.187	11271.68
433.394	11210.24
433.601	12219.89
433.808	12230.13
434.016	12154.35
434.223	12725.74
434.43	13192.67
434.637	13170.15
434.844	13907.41
435.052	13999.57
435.259	14040.53
435.466	14280.14
435.673	14310.86
435.88	14970.31
436.087	15936.95
436.294	15719.87
436.501	15492.54
436.708	15793.59
436.915	16174.52
437.122	17171.88
437.329	16995.75
437.537	17565.09
437.743	18054.55
437.95	17763.74
438.157	18451.86
438.364	19240.33
438.571	19246.47
438.778	19375.49
438.985	21216.61
439.192	20387.19
439.399	20829.55
439.606	20458.87
439.813	21884.25
440.02	23008.59
440.227	22424.92
440.433	22232.41
440.64	23242.06
440.847	23016.78
441.054	23502.15
441.261	25236.78
441.467	24732.98
441.674	25226.54
441.881	26049.82
442.088	25976.09
442.294	25890.08
442.501	26631.44
442.708	27616.52
442.914	28087.55
443.121	29127.92
443.328	28765.43
443.534	30692.57
443.741	29646.05
443.948	29263.08
444.154	31808.71
444.361	31397.07
444.568	31614.15
444.774	31593.67
444.981	32324.8
445.187	32675
445.394	34030.76
445.6	33547.43
445.807	37291.12
446.013	35222.67
446.22	36007.05
446.426	37434.48
446.633	38032.49
446.839	38935.64
447.046	37219.44
447.252	39558.22
447.459	39197.78
447.665	39070.81
447.871	41096.25
448.078	42265.64
448.284	40811.58
448.491	41862.19
448.697	43332.63
448.903	44012.56
449.11	43936.78
449.316	42488.87
449.522	43793.42
449.728	45298.68
449.935	45556.72
450.141	45102.07
450.347	46228.46
450.553	44712.96
450.76	45452.28
450.966	46412.77
451.172	46527.46
451.378	47524.82
451.584	46298.09
451.791	47340.5
451.997	47299.54
452.203	48038.86
452.409	47977.42
452.615	47733.71
452.821	45849.58
453.027	45405.17
453.233	47442.9
453.44	45921.26
453.646	46343.14
453.852	46736.35
454.058	46896.1
454.264	45581.3
454.47	46302.18
454.676	45128.7
454.882	46461.93
455.088	42892.32
455.294	43652.11
455.5	43844.62
455.705	44532.74
455.911	43140.12
456.117	42058.79
456.323	41270.32
456.529	38671.45
456.735	40727.61
456.941	39603.28
457.147	38642.78
457.352	37694.57
457.558	36934.78
457.764	37047.41
457.97	36129.92
458.176	35896.45
458.381	35765.38
458.587	33889.45
458.793	33883.3
458.999	32289.98
459.204	34692.25
459.41	33825.96
459.616	31171.79
459.821	31401.16
460.027	31102.16
460.233	30543.06
460.438	29138.16
460.644	29531.37
460.85	28130.56
461.055	27632.9
461.261	27634.95
461.466	25636.13
461.672	24872.24
461.878	26633.49
462.083	24735.03
462.289	24091.96
462.494	24466.74
462.7	23217.48
462.905	22508.88
463.111	23176.52
463.316	23305.54
463.522	22670.67
463.727	22699.34
463.932	22576.47
464.138	22484.31
464.343	22594.9
464.549	21853.53
464.754	22728.02
464.959	22795.6
465.165	22523.22
465.37	21642.59
465.575	20890.99
465.781	21601.63
465.986	22066.52
466.191	21218.66
466.397	20489.59
466.602	19508.61
466.807	20487.54
467.012	20225.4
467.218	20342.13
467.423	19946.87
467.628	20299.12
467.833	21060.97
468.038	20309.36
468.244	19615.1
468.449	20229.49
468.654	19598.72
468.859	19529.09
469.064	19668.35
469.269	18695.57
469.474	18636.17
469.679	19230.09
469.885	18664.85
470.09	18982.28
470.295	18670.99
470.5	18345.36
470.705	18398.61
470.91	17890.71
471.115	17896.86
471.32	18068.89
471.525	17956.25
471.73	17601.95
471.935	17501.6
472.139	16827.82
472.344	16897.45
472.549	17065.38
472.754	16723.37
472.959	16381.36
473.164	16080.31
473.369	15924.66
473.574	16510.38
473.778	16068.02
473.983	16141.75
474.188	16037.3
474.393	15340.99
474.598	15379.9
474.802	15052.23
475.007	15066.56
475.212	14929.35
475.417	14564.81
475.621	14392.78
475.826	14540.24
476.031	14249.43
476.235	14069.2
476.44	14134.74
476.645	13815.26
476.849	13708.76
477.054	13915.61
477.259	13706.71
477.463	13747.67
477.668	13112.8
477.872	13411.81
478.077	13041.12
478.282	12926.44
478.486	12858.85
478.691	12680.68
478.895	12744.17
479.1	12598.76
479.304	12735.98
479.509	12357.1
479.713	12502.51
479.918	12342.77
480.122	12144.11
480.326	12180.98
480.531	12264.94
480.735	12029.43
480.94	11943.41
481.144	12316.14
481.348	11746.81
481.553	11990.52
481.757	11601.4
481.961	11806.2
482.166	11974.13
482.37	11777.53
482.574	11623.93
482.778	11709.94
482.983	11908.6
483.187	11759.1
483.391	11761.14
483.595	11798.01
483.8	11529.72
484.004	11834.87
484.208	11783.67
484.412	11601.4
484.616	11752.95
484.821	11652.6
485.025	11619.83
485.229	11740.66
485.433	11763.19
485.637	11511.29
485.841	11628.03
486.045	11496.96
486.249	11554.3
486.453	11490.81
486.657	11630.07
486.861	11863.54
487.065	11390.46
487.269	11769.34
487.473	11615.74
487.677	11849.21
487.881	11795.96
488.085	11650.55
488.289	11734.52
488.493	11742.71
488.697	11816.44
488.901	11875.83
489.105	11806.2
489.309	12029.43
489.512	11914.74
489.716	11914.74
489.92	11863.54
490.124	11742.71
490.328	12244.46
490.531	11865.59
490.735	12084.72
490.939	11939.32
491.143	11959.8
491.346	11976.18
491.55	12199.41
491.754	12357.1
491.958	12441.07
492.161	12318.19
492.365	12436.97
492.569	12563.95
492.772	12516.84
492.976	12367.34
493.18	12572.14
493.383	12789.22
493.587	12594.67
493.79	13084.13
493.994	12619.24
494.197	12928.49
494.401	12815.85
494.605	13004.26
494.808	13262.3
495.012	13336.03
495.215	13329.89
495.419	13512.16
495.622	13540.83
495.825	13577.69
496.029	13727.19
496.232	13872.6
496.436	13694.43
496.639	14296.53
496.843	14280.14
497.046	14394.83
497.249	14593.48
497.453	14702.03
497.656	14886.34
497.859	15046.09
498.063	15134.15
498.266	15273.41
498.469	15424.96
498.673	15496.64
498.876	15771.07
499.079	15801.79
499.282	15680.96
499.485	16268.72
499.689	16532.91
499.892	16651.69
500.095	16530.86
500.298	17165.73
500.501	16938.41
500.705	17302.95
500.908	17337.76
501.111	17474.98
501.314	18109.85
501.517	17687.96
501.72	17982.87
501.923	18294.16
502.126	18429.33
502.329	19158.41
502.532	19111.3
502.735	19010.95
502.938	19697.02
503.141	19522.94
503.344	19852.67
503.547	19672.45
503.75	20129.14
503.953	21134.7
504.156	20723.05
504.359	21005.67
504.562	20948.33
504.765	21607.78
504.968	21685.6
505.17	21876.06
505.373	21960.03
505.576	22302.04
505.779	22263.13
505.982	22676.82
506.185	23211.34
506.387	23104.84
506.59	23545.16
506.793	23848.25
506.996	23950.65
507.198	24583.48
507.401	24313.14
507.604	24886.57
507.807	24943.92
508.009	25216.3
508.212	25730.34
508.415	25664.8
508.617	26076.44
508.82	26322.2
509.022	26113.31
509.225	26770.71
509.428	27120.91
509.63	27264.27
509.833	27344.14
510.035	28007.68
510.238	28108.03
510.44	28447.99
510.643	28710.13
510.845	28744.95
511.048	28953.84
511.25	28943.6
511.453	29529.32
511.655	30737.62
511.858	30110.94
512.06	30239.97
512.262	31036.63
512.465	30794.96
512.667	31274.19
512.87	31646.92
513.072	31655.11
513.274	32738.49
513.477	32787.64
513.679	33172.66
513.881	33195.18
514.084	33715.37
514.286	33539.24
514.488	33760.42
514.69	34708.63
514.893	34845.85
515.095	35030.16
515.297	35310.74
515.499	35402.89
515.701	35472.53
515.904	36111.49
516.106	36410.5
516.308	36623.48
516.51	37297.27
516.712	37719.15
516.914	37776.49
517.116	38061.16
517.318	38435.94
517.52	38863.96
517.722	38564.96
517.925	39203.92
518.127	39799.88
518.329	39916.62
518.531	39390.29
518.733	40629.31
518.935	40801.34
519.136	40977.47
519.338	41696.3
519.54	41993.26
519.742	41718.83
519.944	42210.34
520.146	42964
520.348	43050.01
520.55	43592.72
520.752	43238.42
520.954	44151.82
521.155	43883.53
521.357	44565.51
521.559	45091.83
521.761	45847.54
521.963	45462.52
522.164	45626.35
522.366	45843.44
522.568	46339.05
522.77	46547.94
522.971	47145.95
523.173	47240.15
523.375	47231.96
523.576	47291.35
523.778	47842.26
523.98	48294.86
524.181	48477.13
524.383	48557
524.584	48886.72
524.786	48911.3
524.988	48858.05
525.189	49279.93
525.391	50082.73
525.592	50205.61
525.794	50516.9
525.995	49759.16
526.197	50926.5
526.398	50607.01
526.6	51282.84
526.801	51110.81
527.003	51426.2
527.204	51436.44
527.406	52024.21
527.607	51817.36
527.808	52302.73
528.01	51698.58
528.211	52005.78
528.412	53025.67
528.614	52278.16
528.815	52773.77
529.016	53146.5
529.218	52589.45
529.419	53040
529.62	53531.51
529.822	53150.59
530.023	53599.1
530.224	53347.2
530.425	53365.63
530.626	53527.42
530.828	53144.45
531.029	54027.12
531.23	53547.9
531.431	53906.29
531.632	53916.53
531.833	54211.44
532.035	54170.48
532.236	53990.26
532.437	54707.05
532.638	53734.26
532.839	54430.57
533.04	54342.51
533.241	54201.2
533.442	55030.63
533.643	54653.8
533.844	54743.91
534.045	54383.47
534.246	54549.35
534.447	54698.86
534.648	54600.55
534.849	54911.84
535.05	54459.24
535.251	54846.31
535.451	54805.35
535.652	54932.32
535.853	55014.24
536.054	54834.02
536.255	54618.99
536.456	54383.47
536.657	55860.05
536.857	54725.48
537.058	54575.98
537.259	55327.58
537.46	54883.17
537.66	54715.24
537.861	54907.75
538.062	54727.53
538.263	55227.23
538.463	54481.77
538.664	54336.37
538.865	54895.46
539.065	55169.89
539.266	54629.23
539.466	55286.62
539.667	54219.63
539.868	55241.57
540.068	54858.6
540.269	54719.34
540.469	55173.98
540.67	54629.23
540.87	54567.79
541.071	54637.42
541.271	54911.84
541.472	54926.18
541.672	54748.01
541.873	54569.83
542.073	54190.96
542.274	54772.58
542.474	54616.94
542.675	54188.91
542.875	54903.65
543.075	54588.27
543.276	53869.43
543.476	54725.48
543.676	54068.08
543.877	54618.99
544.077	54719.34
544.277	54238.06
544.478	54209.39
544.678	54293.36
544.878	54680.42
545.078	54315.89
545.279	54285.17
545.479	54426.48
545.679	54432.62
545.879	54424.43
546.079	54246.25
546.28	54090.61
546.48	53621.62
546.68	54510.44
546.88	54283.12
547.08	54629.23
547.28	54223.73
547.48	53670.78
547.68	54518.63
547.88	53984.11
548.081	53967.73
548.281	54295.41
548.481	53803.89
548.681	54395.76
548.881	54322.03
549.081	53701.5
549.28	53707.64
549.48	53973.88
549.68	53687.16
549.88	54606.7
550.08	53744.5
550.28	53891.96
550.48	53724.02
550.68	53769.08
550.88	53502.84
551.08	53478.27
551.279	53910.39
551.479	53109.63
551.679	53865.33
551.879	53363.58
552.079	53787.51
552.278	53392.25
552.478	53756.79
552.678	53545.85
552.878	53785.46
553.077	53425.02
553.277	53087.1
553.477	53771.13
553.676	53312.38
553.876	53179.26
554.076	52923.27
554.275	53183.36
554.475	52714.37
554.674	52927.36
554.874	53332.86
555.074	52851.59
555.273	52732.81
555.473	53203.84
555.672	52568.97
555.872	52712.33
556.071	52814.72
556.271	53091.2
556.47	52585.35
556.67	52777.86
556.869	52335.5
557.068	52902.79
557.268	52341.64
557.467	51919.76
557.667	52491.15
557.866	52544.39
558.065	51895.19
558.265	51590.04
558.464	51874.71
558.663	51964.82
558.863	51514.26
559.062	52122.51
559.261	51372.95
559.461	52298.64
559.66	51282.84
559.859	51968.91
560.058	51192.73
560.258	51383.19
560.457	51137.44
560.656	51563.42
560.855	51221.41
561.054	51168.16
561.253	50703.27
561.453	51045.28
561.652	50848.67
561.851	51073.95
562.05	50631.59
562.249	50414.51
562.448	50656.17
562.647	50166.7
562.846	50162.61
563.045	50531.24
563.244	49861.55
563.443	50627.49
563.642	49877.94
563.841	50058.16
564.04	49517.5
564.239	50041.78
564.438	49144.76
564.637	49642.42
564.836	49607.61
565.035	49009.6
565.234	49058.75
565.432	49136.57
565.631	49238.97
565.83	49060.8
566.029	49015.74
566.228	48696.26
566.427	48870.34
566.625	48524.23
566.824	47897.55
567.023	48382.92
567.222	47616.98
567.42	48460.74
567.619	48288.71
567.818	47942.61
568.016	47625.17
568.215	47834.06
568.414	47778.77
568.612	47936.46
568.811	46916.57
569.01	47758.29
569.208	46820.32
569.407	47485.91
569.605	46685.15
569.804	47215.58
570.002	46707.68
570.201	47010.78
570.4	46451.69
570.598	46277.61
570.797	46117.87
570.995	46240.75
571.193	45581.3
571.392	46197.74
571.59	45843.44
571.789	45517.81
571.987	45599.73
572.186	45695.99
572.384	45394.93
572.582	45503.48
572.781	45263.86
572.979	44841.98
573.177	44919.81
573.376	45102.07
573.574	44559.36
573.772	45202.42
573.971	44966.91
574.169	44393.48
574.367	43879.44
574.565	44307.46
574.763	44319.75
574.962	43858.96
575.16	43338.77
575.358	43885.58
575.556	42916.89
575.754	44082.19
575.952	42869.79
576.151	43744.27
576.349	42826.78
576.547	42761.25
576.745	43070.49
576.943	42976.28
577.141	43088.92
577.339	42718.24
577.537	42615.84
577.735	42198.05
577.933	42206.25
578.131	42746.91
578.329	42331.17
578.527	42212.39
578.725	41804.84
578.923	42146.86
579.121	41710.64
579.319	41593.9
579.516	41534.51
579.714	41845.8
579.912	41344.05
580.11	41012.28
580.308	40715.33
580.506	41047.1
580.704	40524.86
580.901	41051.19
581.099	40965.18
581.297	40594.5
581.495	40801.34
581.692	40649.79
581.89	40326.21
582.088	40690.75
582.285	40000.58
582.483	40303.68
582.681	39990.34
582.878	39834.7
583.076	39357.52
583.274	39785.55
583.471	39126.1
583.669	39650.38
583.866	39099.48
584.064	39103.57
584.262	38775.9
584.459	39154.77
584.657	38655.07
584.854	38859.87
585.052	38360.16
585.249	38540.38
585.447	38538.33
585.644	38050.92
585.841	37813.35
586.039	38331.49
586.236	37852.27
586.434	38095.97
586.631	37696.62
586.828	37373.04
587.026	37616.75
587.223	37774.44
587.42	37471.34
587.618	37307.51
587.815	37047.41
588.012	36451.45
588.21	37024.89
588.407	37438.58
588.604	36537.47
588.801	36543.61
588.999	36549.76
589.196	36842.62
589.393	36363.39
589.59	36269.19
589.787	35837.06
589.984	35804.3
590.182	35783.82
590.379	35837.06
590.576	35515.53
590.773	35769.48
590.97	35349.65
591.167	35904.65
591.364	34634.91
591.561	35450
591.758	34583.71
591.955	35034.26
592.152	35079.32
592.349	34720.92
592.546	34755.74
592.743	34692.25
592.94	34190.5
593.137	34477.21
593.334	34417.82
593.531	34055.33
593.727	34010.28
593.924	34217.12
594.121	33768.62
594.318	33944.74
594.515	33332.4
594.712	33764.52
594.908	33332.4
595.105	33666.22
595.302	33137.84
595.499	33328.3
595.696	33012.91
595.892	32779.45
596.089	33184.94
596.286	32828.6
596.482	32783.54
596.679	32191.68
596.876	32687.29
597.072	32265.41
597.269	32580.79
597.466	32175.3
597.662	32212.16
597.859	32187.58
598.055	32072.9
598.252	31999.17
598.448	31550.67
598.645	31812.81
598.841	31585.48
599.038	31595.72
599.234	31444.17
599.431	31186.13
599.627	31046.86
599.824	31337.68
600.02	30872.79
600.217	31184.08
600.413	30921.94
600.609	30498.01
600.806	30749.91
601.002	31036.63
601.198	30508.25
601.395	30278.88
601.591	30373.08
601.787	30364.89
601.984	30143.71
602.18	30502.11
602.376	30024.93
602.572	30094.56
602.769	29809.89
602.965	29250.8
603.161	29766.88
603.357	29299.95
603.553	29314.28
603.75	29662.44
603.946	29207.79
604.142	29504.74
604.338	28869.87
604.534	29555.94
604.73	28796.15
604.926	28857.59
605.122	28667.13
605.318	28644.6
605.514	28462.33
605.71	28306.68
605.906	28232.96
606.102	28568.82
606.298	28400.89
606.494	28050.69
606.69	28290.3
606.886	28173.56
607.082	27768.07
607.278	28060.93
607.474	27579.65
607.67	27905.28
607.866	27503.88
608.062	28040.45
608.257	27731.2
608.453	27716.87
608.649	27637
608.845	27475.21
609.041	27354.38
609.236	27522.31
609.432	27258.12
609.628	27133.2
609.824	27071.76
610.019	27239.69
610.215	27077.9
610.411	26893.58
610.606	26750.23
610.802	27090.19
610.998	26582.29
611.193	26709.27
611.389	26475.8
611.584	26541.33
611.78	26336.54
611.976	26545.43
612.171	26299.67
612.367	26271
612.562	26389.78
612.758	26146.08
612.953	25988.38
613.149	26096.92
613.344	26019.1
613.539	26799.38
613.735	26006.81
613.93	26084.64
614.126	25928.99
614.321	26008.86
614.517	25750.82
614.712	25740.58
614.907	25779.49
615.103	25894.18
615.298	25283.88
615.493	25693.47
615.688	25765.15
615.884	25980.19
616.079	25222.44
616.274	25613.6
616.47	25171.24
616.665	25513.25
616.86	25087.28
617.055	25105.71
617.25	25105.71
617.445	25537.83
617.641	25070.89
617.836	24687.92
618.031	24501.56
618.226	24923.44
618.421	24909.1
618.616	24864.05
618.811	24407.35
619.006	24671.54
619.201	24255.8
619.396	24368.44
619.591	23917.89
619.786	24376.63
619.981	24036.67
620.176	23926.08
620.371	23602.5
620.566	24061.24
620.761	23831.87
620.956	23790.91
621.151	23326.02
621.346	23465.28
621.541	23090.51
621.735	23553.35
621.93	22820.17
622.125	22758.74
622.32	22631.76
622.515	22934.86
622.709	22621.52
622.904	22947.15
623.099	22265.17
623.294	22525.27
623.488	21896.54
623.683	22074.71
623.878	21853.53
624.072	21865.82
624.267	21880.16
624.462	21611.87
624.656	21679.46
624.851	21353.83
625.046	21427.56
625.24	21093.74
625.435	21171.56
625.629	21071.21
625.824	20864.36
626.018	20786.54
626.213	20354.42
626.407	20487.54
626.602	20331.89
626.796	20389.24
626.991	20622.7
627.185	20090.23
627.38	19846.52
627.574	19844.48
627.768	19625.34
627.963	19502.47
628.157	19656.06
628.352	19508.61
628.546	19402.11
628.74	19395.97
628.935	19211.65
629.129	18957.71
629.323	19013
629.517	18920.84
629.712	18800.01
629.906	18890.12
630.1	18589.07
630.294	18486.67
630.489	18226.58
630.683	18197.91
630.877	18353.55
631.071	17970.58
631.265	18136.47
631.459	18109.85
631.653	17571.23
631.848	17882.52
632.042	17946.01
632.236	17704.35
632.43	17515.94
632.624	17665.44
632.818	17499.55
633.012	17114.53
633.206	17046.95
633.4	17194.4
633.594	16825.77
633.788	16889.26
633.982	16979.37
634.176	16733.61
634.369	16870.83
634.563	16543.15
634.757	16750
634.951	16516.53
635.145	16459.18
635.339	16422.32
635.533	15951.29
635.726	16090.55
635.92	15871.42
636.114	15969.72
636.308	15783.35
636.501	15658.43
636.695	15648.19
636.889	15701.44
637.083	15486.4
637.276	15353.28
637.47	15373.76
637.664	15265.22
637.857	15365.57
638.051	15228.35
638.244	15078.85
638.438	14757.32
638.632	15056.32
638.825	14769.61
639.019	14835.14
639.212	14829
639.406	14783.95
639.599	14630.35
639.793	14216.66
639.986	14163.41
640.18	14417.36
640.373	14403.02
640.567	14220.75
640.76	14018
640.954	14042.58
641.147	13921.75
641.34	13854.17
641.534	13841.88
641.727	13721.05
641.92	13544.92
642.114	13565.4
642.307	13571.55
642.5	13342.18
642.694	13358.56
642.887	13221.34
643.08	13168.1
643.273	12881.38
643.467	12750.31
643.66	13004.26
643.853	12815.85
644.046	12791.27
644.239	12682.73
644.432	12658.15
644.626	12846.57
644.819	12525.04
645.012	12451.31
645.205	12361.2
645.398	12545.52
645.591	12248.56
645.784	12387.82
645.977	11904.5
646.17	12078.58
646.363	11951.6
646.556	11857.4
646.749	11830.77
646.942	12109.3
647.135	11568.63
647.328	11673.08
647.521	11773.43
647.714	11345.41
647.907	11589.11
648.099	11341.31
648.292	11419.13
648.485	11173.38
648.678	11195.9
648.871	11109.89
649.064	10962.44
649.256	11134.46
649.449	10759.69
649.642	11007.49
649.835	10788.36
650.027	10718.73
650.22	10876.42
650.413	10759.69
650.605	10477.07
650.798	10497.55
650.991	10509.83
651.183	10567.18
651.376	10399.24
651.568	10444.3
651.761	10372.62
651.954	10401.29
652.146	10237.45
652.339	10173.97
652.531	10292.75
652.724	10212.88
652.916	9922.07
653.109	9956.88
653.301	9879.06
653.494	9987.6
653.686	9784.85
653.879	9975.31
654.071	9682.45
654.263	9522.71
654.456	9584.15
654.648	9645.59
654.84	9375.26
655.033	9326.11
655.225	9571.86
655.417	9348.64
655.61	9149.98
655.802	9326.11
655.994	9299.48
656.186	9174.56
656.379	9170.46
656.571	9117.22
656.763	8951.33
656.955	9002.53
657.148	9066.02
657.34	8986.15
657.532	8820.26
657.724	8855.08
657.916	8769.06
658.108	8848.93
658.3	8760.87
658.492	8627.75
658.684	8599.08
658.876	8597.03
659.068	8472.11
659.26	8404.52
659.452	8351.28
659.644	8318.51
659.836	8158.77
660.028	8326.7
660.22	8248.88
660.412	8369.71
660.604	8123.95
660.796	8156.72
660.988	7996.98
661.18	8046.13
661.372	7833.14
661.563	7996.98
661.755	7726.64
661.947	7908.91
662.139	7802.42
662.331	7747.12
662.522	7581.24
662.714	7679.54
662.906	7505.46
663.097	7691.83
663.289	7614.01
663.481	7536.18
663.673	7601.72
663.864	7401.02
664.056	7286.33
664.247	7425.59
664.439	7110.21
664.631	7384.63
664.822	7292.48
665.014	7247.42
665.205	7310.91
665.397	7075.39
665.588	7122.49
665.78	7138.88
665.971	7018.05
666.163	7130.69
666.354	6889.03
666.546	7093.82
666.737	6968.9
666.929	6893.12
667.12	6669.89
667.311	6755.91
667.503	6852.16
667.694	6762.05
667.885	6725.19
668.077	6661.7
668.268	6549.06
668.459	6626.89
668.651	6630.98
668.842	6524.49
669.033	6608.45
669.224	6536.77
669.416	6508.1
669.607	6372.94
669.798	6436.42
669.989	6405.7
670.18	6196.81
670.371	6231.63
670.563	6190.67
670.754	6241.87
670.945	6045.26
671.136	6172.24
671.327	6166.09
671.518	6235.72
671.709	6252.11
671.9	6233.68
672.091	6006.35
672.282	6125.13
672.473	5946.96
672.664	6032.97
672.855	5944.91
673.046	5867.09
673.237	5953.1
673.428	5961.3
673.619	5803.6
673.809	6008.4
674	5883.47
674.191	5848.66
674.382	5860.95
674.573	5840.47
674.764	5830.23
674.954	5879.38
675.145	5709.4
675.336	5776.98
675.527	5545.56
675.717	5596.76
675.908	5543.51
676.099	5738.07
676.289	5781.07
676.48	5449.3
676.671	5486.17
676.861	5600.85
677.052	5598.81
677.243	5555.8
677.433	5561.94
677.624	5453.4
677.814	5480.02
678.005	5467.74
678.195	5322.33
678.386	5365.34
678.576	5461.59
678.767	5455.45
678.957	5441.11
679.148	5451.35
679.338	5529.17
679.529	5230.17
679.719	5457.5
679.909	5258.84
680.1	5334.62
680.29	5385.82
680.481	5316.19
680.671	5340.76
680.861	5185.12
681.052	5213.79
681.242	5312.09
681.432	5228.12
681.622	5205.6
681.813	5148.25
682.003	5336.67
682.193	5033.57
682.383	5252.7
682.573	5058.14
682.764	5115.48
682.954	5078.62
683.144	5162.59
683.334	5140.06
683.524	5045.85
683.714	5084.77
683.904	5092.96
684.094	5205.6
684.284	4927.07
684.474	5072.48
684.664	4990.56
684.854	4998.75
685.044	4949.6
685.234	4800.1
685.424	4759.14
685.614	4892.26
685.804	4806.24
685.994	4951.65
686.184	4965.98
686.374	4843.1
686.564	4689.51
686.753	4707.94
686.943	4660.84
687.133	4808.29
687.323	4734.56
687.513	4773.47
687.702	4787.81
687.892	4662.88
688.082	4656.74
688.272	4640.36
688.461	4556.39
688.651	4664.93
688.841	4572.77
689.03	4580.96
689.22	4587.11
689.41	4365.93
689.599	4621.92
689.789	4367.98
689.979	4427.37
690.168	4466.28
690.358	4251.24
690.547	4451.94
690.737	4310.63
690.926	4339.3
691.116	4292.2
691.305	4456.04
691.495	4193.9
691.684	4320.87
691.874	4277.87
692.063	4206.19
692.252	4195.95
692.442	4241
692.631	4015.73
692.82	4167.28
693.01	4091.5
693.199	4099.69
693.388	4132.46
693.578	4060.78
693.767	4085.36
693.956	4028.01
694.146	3921.52
694.335	3999.34
694.524	3898.99
694.713	4122.22
694.902	4052.59
695.092	4007.53
695.281	3927.66
695.47	3903.09
695.659	3927.66
695.848	3917.42
696.037	3915.37
696.226	3976.81
696.415	3851.89
696.604	4087.4
696.793	3845.74
696.982	3831.41
697.171	3780.21
697.36	3876.46
697.549	3864.18
697.738	3749.49
697.927	3851.89
698.116	3786.35
698.305	3794.54
698.494	3786.35
698.683	3706.48
698.872	3724.91
699.061	3894.9
699.25	3800.69
699.438	3782.26
699.627	3780.21
699.816	3675.76
700.005	3729.01
700.193	3720.82
700.382	3706.48
700.571	3735.15
700.76	3628.66
700.948	3720.82
701.137	3743.35
701.326	3694.19
701.514	3542.64
701.703	3618.42
701.892	3608.18
702.08	3659.38
702.269	3595.89
702.457	3698.29
702.646	3583.6
702.834	3599.99
703.023	3632.76
703.212	3688.05
703.4	3608.18
703.589	3518.07
703.777	3599.99
703.965	3503.73
704.154	3489.4
704.342	3669.62
704.531	3493.49
704.719	3561.08
704.907	3554.93
705.096	3612.28
705.284	3569.27
705.472	3724.91
705.661	3597.94
705.849	3653.23
706.037	3542.64
706.226	3620.47
706.414	3616.37
706.602	3436.15
706.79	3460.73
706.979	3540.6
707.167	3540.6
707.355	3520.12
707.543	3565.17
707.731	3503.73
707.919	3571.32
708.107	3620.47
708.296	3462.77
708.484	3440.25
708.672	3458.68
708.86	3675.76
709.048	3708.53
709.236	3610.23
709.424	3548.79
709.612	3614.32
709.8	3610.23
709.988	3393.14
710.176	3575.41
710.364	3505.78
710.551	3501.69
710.739	3415.67
710.927	3554.93
711.115	3503.73
711.303	3585.65
711.491	3585.65
711.679	3483.25
711.866	3444.34
712.054	3587.7
712.242	3378.81
712.43	3485.3
712.617	3548.79
712.805	3462.77
712.993	3550.84
713.181	3387
713.368	3585.65
713.556	3591.8
713.744	3366.52
713.931	3456.63
714.119	3432.05
714.306	3595.89
714.494	3516.02
714.682	3552.88
714.869	3491.45
715.057	3460.73
715.244	3372.66
715.432	3391.09
715.619	3397.24
715.807	3516.02
715.994	3520.12
716.182	3434.1
716.369	3393.14
716.556	3565.17
716.744	3634.8
716.931	3450.49
717.119	3559.03
717.306	3565.17
717.493	3444.34
717.681	3481.21
717.868	3513.97
718.055	3368.57
718.242	3493.49
718.43	3452.53
718.617	3522.16
718.804	3423.86
718.991	3407.48
719.179	3442.29
719.366	3444.34
719.553	3591.8
719.74	3487.35
719.927	3280.5
720.114	3423.86
720.301	3401.33
720.488	3284.6
720.676	3434.1
720.863	3483.25
721.05	3524.21
721.237	3393.14
721.424	3464.82
721.611	3452.53
721.798	3358.33
721.985	3518.07
722.172	3470.97
722.358	3387
722.545	3452.53
722.732	3337.85
722.919	3470.97
723.106	3358.33
723.293	3337.85
723.48	3487.35
723.667	3393.14
723.853	3485.3
724.04	3387
724.227	3208.83
724.414	3415.67
724.6	3399.29
724.787	3354.23
724.974	3372.66
725.161	3380.86
725.347	3300.98
725.534	3378.81
725.72	3317.37
725.907	3337.85
726.094	3542.64
726.28	3413.62
726.467	3243.64
726.653	3360.38
726.84	3341.94
727.027	3503.73
727.213	3300.98
727.4	3403.38
727.586	3415.67
727.773	3274.36
727.959	3462.77
728.145	3307.13
728.332	3348.09
728.518	3397.24
728.705	3292.79
728.891	3354.23
729.077	3305.08
729.264	3458.68
729.45	3298.94
729.636	3438.2
729.823	3307.13
730.009	3372.66
730.195	3423.86
730.382	3389.05
730.568	3382.9
730.754	3270.26
730.94	3354.23
731.126	3286.65
731.313	3235.45
731.499	3352.18
731.685	3411.57
731.871	3409.53
732.057	3321.46
732.243	3346.04
732.429	3341.94
732.615	3212.92
732.801	3231.35
732.987	3251.83
733.173	3382.9
733.359	3300.98
733.545	3262.07
733.731	3212.92
733.917	3255.93
734.103	3182.2
734.289	3133.05
734.475	3102.33
734.661	3274.36
734.847	3272.31
735.033	3298.94
735.219	3303.03
735.404	3292.79
735.59	3157.63
735.776	3112.57
735.962	3270.26
736.148	3110.52
736.333	3075.71
736.519	3042.94
736.705	3124.86
736.89	3165.82
737.076	3083.9
737.262	3026.56
737.447	3210.87
737.633	3137.15
737.819	3053.18
738.004	3036.8
738.19	3034.75
738.375	3069.56
738.561	3268.22
738.747	3143.29
738.932	3010.17
739.118	3159.67
739.303	3100.28
739.489	3110.52
739.674	3030.65
739.859	2985.6
740.045	2979.45
740.23	2946.69
740.416	2948.73
740.601	3006.08
740.786	3004.03
740.972	2963.07
741.157	2940.54
741.342	2922.11
741.528	2981.5
741.713	2969.21
741.898	2934.4
742.084	2932.35
742.269	2969.21
742.454	2887.29
742.639	2811.52
742.824	2883.2
743.01	2776.7
743.195	2733.7
743.38	2846.34
743.565	2752.13
743.75	2856.58
743.935	2692.74
744.12	2834.05
744.305	2604.67
744.49	2680.45
744.675	2586.24
744.86	2676.35
745.045	2686.59
745.23	2651.78
745.415	2559.62
745.6	2688.64
745.785	2584.2
745.97	2553.48
746.155	2655.87
746.34	2682.5
746.525	2406.02
746.71	2598.53
746.895	2614.91
747.079	2502.28
747.264	2571.91
747.449	2469.51
747.634	2371.21
747.819	2498.18
748.003	2422.41
748.188	2453.13
748.373	2420.36
748.557	2485.89
748.742	2393.73
748.927	2369.16
749.111	2395.78
749.296	2334.34
749.481	2336.39
749.665	2324.1
749.85	2332.3
750.034	2340.49
750.219	2221.7
750.404	2203.27
750.588	2213.51
750.773	2268.81
750.957	2193.03
751.141	2150.03
751.326	2133.64
751.51	2195.08
751.695	2137.74
751.879	2182.79
752.064	2121.35
752.248	2090.63
752.432	2154.12
752.617	2115.21
752.801	1971.85
752.985	2125.45
753.17	2080.39
753.354	2100.87
753.538	1996.43
753.722	2045.58
753.907	1992.33
754.091	1951.37
754.275	1887.89
754.459	1889.93
754.643	1963.66
754.828	1924.75
755.012	1816.21
755.196	1846.93
755.38	1871.5
755.564	1769.1
755.748	1799.82
755.932	1805.97
756.116	1832.59
756.3	1824.4
756.484	1799.82
756.668	1844.88
756.852	1722
757.036	1660.56
757.22	1672.85
757.404	1730.19
757.588	1605.27
757.772	1650.32
757.956	1728.14
758.14	1730.19
758.323	1711.76
758.507	1597.07
758.691	1586.83
758.875	1539.73
759.059	1703.57
759.242	1564.31
759.426	1568.4
759.61	1613.46
759.794	1543.83
759.977	1543.83
760.161	1570.45
760.345	1558.16
760.528	1617.55
760.712	1568.4
760.895	1449.62
761.079	1486.48
761.263	1445.52
761.446	1461.91
761.63	1435.28
761.813	1355.41
761.997	1463.96
762.18	1463.96
762.364	1443.48
762.547	1425.04
762.731	1568.4
762.914	1420.95
763.098	1511.06
763.281	1359.51
763.464	1416.85
763.648	1455.76
763.831	1328.79
764.015	1281.69
764.198	1404.57
764.381	1457.81
764.564	1341.08
764.748	1328.79
764.931	1367.7
765.114	1359.51
765.297	1334.93
765.481	1216.15
765.664	1271.45
765.847	1246.87
766.03	1330.84
766.213	1287.83
766.397	1361.56
766.58	1289.88
766.763	1265.3
766.946	1283.74
767.129	1265.3
767.312	1306.26
767.495	1263.26
767.678	1269.4
767.861	1230.49
768.044	1220.25
768.227	1330.84
768.41	1099.42
768.593	1283.74
768.776	1293.97
768.959	1142.43
769.142	1238.68
769.324	1173.14
769.507	1107.61
769.69	1121.95
769.873	1126.04
770.056	1228.44
770.239	1244.82
770.421	1232.54
770.604	1128.09
770.787	1080.99
770.97	1189.53
771.152	1126.04
771.335	1109.66
771.518	1203.86
771.7	1142.43
771.883	1130.14
772.066	1115.8
772.248	1121.95
772.431	1101.47
772.613	1091.23
772.796	1089.18
772.978	1105.56
773.161	1091.23
773.343	990.88
773.526	1050.27
773.708	992.92
773.891	923.29
774.073	1042.07
774.256	1054.36
774.438	1009.31
774.621	972.44
774.803	1046.17
774.985	964.25
775.168	908.96
775.35	949.92
775.532	968.35
775.715	902.81
775.897	984.73
776.079	892.57
776.261	921.24
776.444	954.01
776.626	931.48
776.808	935.58
776.99	919.2
777.173	982.68
777.355	874.14
777.537	847.52
777.719	898.72
777.901	888.48
778.083	839.33
778.265	812.7
778.447	917.15
778.629	661.15
778.811	757.41
778.993	802.46
779.175	908.96
779.357	876.19
779.539	800.41
779.721	822.94
779.903	749.22
780.085	749.22
780.267	786.08
780.449	751.26
780.631	794.27
780.812	818.85
780.994	667.3
781.176	704.16
781.358	687.78
781.54	710.3
781.721	741.02
781.903	679.58
782.085	806.56
782.267	720.54
782.448	671.39
782.63	616.1
782.812	671.39
782.993	700.06
783.175	685.73
783.357	669.34
783.538	581.28
783.72	663.2
783.901	626.34
784.083	648.86
784.264	589.47
784.446	544.42
784.627	562.85
784.809	667.3
784.99	632.48
785.172	691.87
785.353	640.67
785.535	659.1
785.716	591.52
785.897	491.17
786.079	597.67
786.26	603.81
786.441	642.72
786.623	523.94
786.804	556.71
786.985	560.8
787.167	585.38
787.348	556.71
787.529	575.14
787.71	552.61
787.891	491.17
788.073	472.74
788.254	630.43
788.435	593.57
788.616	560.8
788.797	487.08
788.978	489.12
789.159	491.17
789.34	513.7
789.522	511.65
789.703	507.55
789.884	550.56
790.065	476.84
790.246	509.6
790.427	450.21
790.607	523.94
790.788	464.55
790.969	427.68
791.15	474.79
791.331	415.4
791.512	503.46
791.693	427.68
791.874	454.31
792.054	396.96
792.235	466.6
792.416	407.2
792.597	392.87
792.778	503.46
792.958	437.92
793.139	444.07
793.32	407.2
793.5	345.77
793.681	435.88
793.862	427.68
794.042	396.96
794.223	362.15
794.404	413.35
794.584	353.96
794.765	425.64
794.945	431.78
795.126	366.25
795.306	364.2
795.487	411.3
795.667	378.53
795.848	470.69
796.028	384.68
796.209	370.34
796.389	413.35
796.57	349.86
796.75	380.58
796.93	356.01
797.111	370.34
797.291	413.35
797.471	372.39
797.652	313
797.832	294.57
798.012	339.62
798.192	339.62
798.373	339.62
798.553	243.37
798.733	382.63
798.913	341.67
799.093	325.29
799.274	290.47
799.454	470.69
799.634	298.66
799.814	394.92
799.994	448.16
800.174	356.01
800.354	280.23
800.534	253.61
800.714	417.44
800.894	345.77
801.074	300.71
801.254	353.96
801.434	286.37
801.614	319.14
801.794	226.98
801.974	820.89
802.154	308.9
802.334	347.81
802.514	243.37
802.693	282.28
802.873	294.57
803.053	286.37
803.233	265.89
803.413	265.89
803.592	249.51
803.772	253.61
803.952	286.37
804.131	294.57
804.311	300.71
804.491	231.08
804.67	259.75
804.85	272.04
805.03	284.33
805.209	265.89
805.389	306.85
805.568	192.17
805.748	251.56
805.928	251.56
806.107	247.46
806.287	255.65
806.466	265.89
806.646	190.12
806.825	339.62
807.004	292.52
807.184	239.27
807.363	282.28
807.543	173.74
807.722	181.93
807.901	282.28
808.081	321.19
808.26	138.92
808.439	253.61
808.619	216.74
808.798	313
808.977	315.05
809.156	212.65
809.336	247.46
809.515	222.89
809.694	91.82
809.873	257.7
810.052	210.6
810.231	319.14
810.411	222.89
810.59	216.74
810.769	206.5
810.948	263.85
811.127	151.21
811.306	194.22
811.485	183.98
811.664	222.89
811.843	206.5
812.022	222.89
812.201	196.26
812.38	237.22
812.559	226.98
812.737	237.22
812.916	194.22
813.095	169.64
813.274	214.7
813.453	200.36
813.632	132.78
813.811	229.03
813.989	120.49
814.168	175.78
814.347	226.98
814.526	130.73
814.704	288.42
814.883	288.42
815.062	239.27
815.24	243.37
815.419	194.22
815.598	226.98
815.776	167.59
815.955	245.41
816.133	161.45
816.312	255.65
816.49	188.07
816.669	212.65
816.847	181.93
817.026	194.22
817.204	124.58
817.383	274.09
817.561	179.88
817.74	237.22
817.918	198.31
818.097	153.26
818.275	177.83
818.453	202.41
818.632	220.84
818.81	136.87
818.988	116.39
819.167	159.4
819.345	186.02
819.523	81.58
819.701	134.82
819.879	108.2
820.058	220.84
820.236	151.21
820.414	116.39
820.592	192.17
820.77	239.27
820.948	143.02
821.127	130.73
821.305	165.54
821.483	77.48
821.661	167.59
821.839	61.1
822.017	263.85
822.195	200.36
822.373	143.02
822.551	198.31
822.729	167.59
822.907	149.16
823.085	114.34
823.262	171.69
823.44	130.73
823.618	155.3
823.796	145.06
823.974	89.77
824.152	126.63
824.329	89.77
824.507	198.31
824.685	85.67
824.863	161.45
825.04	136.87
825.218	140.97
825.396	198.31
825.574	173.74
825.751	118.44
825.929	151.21
826.107	100.01
826.284	95.91
826.462	167.59
826.639	83.63
826.817	190.12
826.994	118.44
827.172	163.5
827.349	167.59
827.527	73.39
827.704	233.13
827.882	79.53
828.059	224.94
828.237	-4.44
828.414	89.77
828.591	75.43
828.769	126.63
828.946	85.67
829.124	179.88
829.301	167.59
829.478	114.34
829.655	89.77
829.833	155.3
830.01	71.34
830.187	159.4
830.364	48.81
830.542	163.5
830.719	122.54
830.896	104.11
831.073	40.62
831.25	134.82
831.427	149.16
831.604	85.67
831.782	91.82
831.959	81.58
832.136	79.53
832.313	122.54
832.49	102.06
832.667	149.16
832.844	16.04
833.021	151.21
833.198	138.92
833.374	85.67
833.551	75.43
833.728	128.68
833.905	149.16
834.082	22.19
834.259	110.25
834.436	85.67
834.612	108.2
834.789	143.02
834.966	128.68
835.143	69.29
835.319	81.58
835.496	147.11
835.673	128.68
835.85	138.92
836.026	73.39
836.203	46.76
836.38	124.58
836.556	89.77
836.733	114.34
836.909	126.63
837.086	32.43
837.262	54.95
837.439	67.24
837.616	50.86
837.792	97.96
837.968	118.44
838.145	61.1
838.321	75.43
838.498	104.11
838.674	93.87
838.851	157.35
839.027	128.68
839.203	52.91
839.38	114.34
839.556	73.39
839.732	175.78
839.909	69.29
840.085	36.52
840.261	44.71
840.437	48.81
840.614	-18.77
840.79	22.19
840.966	69.29
841.142	46.76
841.318	5.8
841.494	46.76
841.671	89.77
841.847	73.39
842.023	48.81
842.199	134.82
842.375	69.29
842.551	118.44
842.727	18.09
842.903	110.25
843.079	69.29
843.255	114.34
843.431	85.67
843.607	83.63
843.783	18.09
843.959	24.23
844.134	54.95
844.31	54.95
844.486	30.38
844.662	124.58
844.838	22.19
845.013	63.15
845.189	69.29
845.365	42.67
845.541	18.09
845.716	87.72
845.892	61.1
846.068	106.15
846.244	1.71
846.419	132.78
846.595	36.52
846.77	11.95
846.946	83.63
847.122	-0.34
847.297	28.33
847.473	89.77
847.648	71.34
847.824	71.34
847.999	20.14
848.175	126.63
848.35	100.01
848.526	59.05
848.701	28.33
848.876	73.39
849.052	36.52
849.227	9.9
849.403	3.75
849.578	59.05
849.753	46.76
849.929	54.95
850.104	-6.49
850.279	54.95
850.454	61.1
850.63	-20.82
850.805	40.62
850.98	93.87
851.155	42.67
851.33	34.47
851.505	50.86
851.681	48.81
851.856	-12.63
852.031	128.68
852.206	32.43
852.381	69.29
852.556	9.9
852.731	5.8
852.906	79.53
853.081	40.62
853.256	34.47
853.431	89.77
853.606	16.04
853.781	11.95
853.956	7.85
854.131	22.19
854.305	32.43
854.48	9.9
854.655	-43.35
854.83	73.39
855.005	48.81
855.18	77.48
855.354	32.43
855.529	59.05
855.704	36.52
855.879	42.67
856.053	5.8
856.228	75.43
856.403	11.95
856.577	67.24
856.752	18.09
856.926	34.47
857.101	-29.01
857.276	65.19
857.45	63.15
857.625	5.8
857.799	3.75
857.974	79.53
858.148	38.57
858.323	26.28
858.497	16.04
858.672	-8.53
858.846	-12.63
859.02	112.3
859.195	11.95
859.369	-53.59
859.543	38.57
859.718	57
859.892	16.04
860.066	52.91
860.241	-31.06
860.415	71.34
860.589	-20.82
860.763	44.71
860.938	59.05
861.112	30.38
861.286	65.19
861.46	7.85
861.634	3.75
861.808	79.53
861.982	-37.2
862.157	44.71
862.331	7.85
862.505	28.33
862.679	-29.01
862.853	7.85
863.027	54.95
863.201	28.33
863.375	-4.44
863.549	59.05
863.722	69.29
863.896	44.71
864.07	36.52
864.244	-35.16
864.418	75.43
864.592	-6.49
864.766	-4.44
864.939	-37.2
865.113	5.8
865.287	46.76
865.461	77.48
865.634	16.04
865.808	16.04
865.982	5.8
866.156	75.43
866.329	16.04
866.503	-12.63
866.676	-55.64
866.85	-2.39
867.024	20.14
867.197	18.09
867.371	44.71
867.544	-24.92
867.718	-51.54
867.891	16.04
868.065	-24.92
868.238	95.91
868.412	22.19
868.585	-16.73
868.759	-47.44
868.932	34.47
869.105	57
869.279	36.52
869.452	54.95
869.625	34.47
869.799	-0.34
869.972	7.85
870.145	5.8
870.319	63.15
870.492	38.57
870.665	-24.92
870.838	-84.31
871.011	-47.44
871.185	13.99
871.358	52.91
871.531	40.62
871.704	-65.88
871.877	30.38
872.05	-8.53
872.223	69.29
872.396	13.99
872.569	48.81
872.742	71.34
872.915	22.19
873.088	32.43
873.261	-29.01
873.434	1.71
873.607	28.33
873.78	32.43
873.953	7.85
874.126	79.53
874.299	59.05
874.471	28.33
874.644	-10.58
874.817	-31.06
874.99	50.86
875.163	1.71
875.335	40.62
875.508	20.14
875.681	44.71
875.853	22.19
876.026	-2.39
876.199	54.95
876.371	24.23
876.544	-6.49
876.717	57
876.889	7.85
877.062	95.91
877.234	-84.31
877.407	7.85
877.579	-4.44
877.752	79.53
877.924	71.34
878.097	-41.3
878.269	-78.16
878.442	3.75
878.614	65.19
878.786	-10.58
878.959	-43.35
879.131	36.52
879.303	-24.92
879.476	13.99
879.648	-61.78
879.82	52.91
879.993	-0.34
880.165	-29.01
880.337	-29.01
880.509	83.63
880.681	-160.08
880.854	16.04
881.026	1.71
881.198	44.71
881.37	20.14
881.542	-12.63
881.714	42.67
881.886	93.87
882.058	11.95
882.23	16.04
882.402	26.28
882.574	24.23
882.746	-37.2
882.918	52.91
883.09	48.81
883.262	24.23
883.434	13.99
883.606	-8.53
883.778	-47.44
883.95	59.05
884.122	5.8
884.293	44.71
884.465	26.28
884.637	24.23
884.809	-6.49
884.98	30.38
885.152	54.95
885.324	-35.16
885.496	-37.2
885.667	-14.68
885.839	75.43
886.011	59.05
886.182	-8.53
886.354	18.09
886.525	-37.2
886.697	3.75
886.869	-108.88
887.04	-20.82
887.212	-22.87
887.383	71.34
887.555	-18.77
887.726	54.95
887.897	-26.96
888.069	-10.58
888.24	22.19
888.412	-12.63
888.583	-31.06
888.754	13.99
888.926	22.19
889.097	-24.92
889.268	-65.88
889.44	-6.49
889.611	-6.49
889.782	20.14
889.953	18.09
890.125	-14.68
890.296	-26.96
890.467	34.47
890.638	-43.35
890.809	-65.88
890.98	24.23
891.151	57
891.323	34.47
891.494	-12.63
891.665	11.95
891.836	-2.39
892.007	-18.77
892.178	7.85
892.349	-14.68
892.52	-14.68
892.691	5.8
892.862	-37.2
893.032	-18.77
893.203	13.99
893.374	-39.25
893.545	-43.35
893.716	-4.44
893.887	7.85
894.057	30.38
894.228	38.57
894.399	-4.44
894.57	67.24
894.74	-6.49
894.911	-12.63
895.082	-63.83
895.253	-33.11
895.423	-12.63
895.594	-16.73
895.764	-53.59
895.935	48.81
896.106	-22.87
896.276	36.52
896.447	13.99
896.617	-61.78
896.788	13.99
896.958	-53.59
897.129	34.47
897.299	-69.97
897.47	36.52
897.64	87.72
897.81	-33.11
897.981	-14.68
898.151	-51.54
898.322	46.76
898.492	61.1
898.662	-37.2
898.832	-0.34
899.003	50.86
899.173	-45.4
899.343	-10.58
899.513	-55.64
