Data from USB4F104151__184__10-27-55-366.txt Node

Date: Wed Mar 12 10:27:55 EDT 2025
User: louis
Spectrometer: USB4F10415
Trigger mode: 4
Integration Time (sec): 3.000000E-2
Scans to average: 1
Electric dark correction enabled: true
Nonlinearity correction enabled: false
Boxcar width: 0
XAxis mode: Wavelengths
Number of Pixels in Spectrum: 3648
>>>>>Begin Spectral Data<<<<<
178.204	-138.58
178.424	-138.58
178.644	-138.58
178.864	-111.96
179.084	-124.24
179.304	-40.28
179.524	-13.65
179.744	64.17
179.964	12.97
180.184	2.73
180.404	-15.7
180.624	-17.75
180.844	53.93
181.064	-34.13
181.283	-9.56
181.503	-11.61
181.723	8.87
181.943	-73.04
182.163	129.7
182.383	17.07
182.602	-21.84
182.822	25.26
183.042	45.74
183.262	-27.99
183.482	-1.37
183.701	10.92
183.921	70.31
184.141	-25.94
184.361	103.08
184.58	80.55
184.8	33.45
185.02	4.78
185.239	41.64
185.459	-44.37
185.679	107.18
185.898	-30.04
186.118	25.26
186.338	17.07
186.557	43.69
186.777	-9.56
186.997	31.4
187.216	45.74
187.436	41.64
187.655	37.55
187.875	66.22
188.095	70.31
188.314	-25.94
188.534	109.23
188.753	31.4
188.973	2.73
189.192	92.84
189.412	58.03
189.631	-15.7
189.851	37.55
190.07	66.22
190.29	-32.08
190.509	-62.8
190.729	-48.47
190.948	51.88
191.168	125.61
191.387	58.03
191.607	-5.46
191.826	76.46
192.045	-5.46
192.265	12.97
192.484	51.88
192.704	35.5
192.923	41.64
193.142	78.51
193.362	17.07
193.581	53.93
193.8	-11.61
194.02	41.64
194.239	98.99
194.458	10.92
194.678	-13.65
194.897	19.11
195.116	-13.65
195.335	-9.56
195.555	70.31
195.774	21.16
195.993	6.83
196.212	12.97
196.432	19.11
196.651	45.74
196.87	-27.99
197.089	70.31
197.308	129.7
197.528	60.07
197.747	4.78
197.966	49.83
198.185	29.35
198.404	31.4
198.623	39.59
198.842	86.7
199.062	25.26
199.281	27.31
199.5	58.03
199.719	72.36
199.938	21.16
200.157	45.74
200.376	62.12
200.595	94.89
200.814	-66.9
201.033	86.7
201.252	96.94
201.471	119.46
201.69	58.03
201.909	49.83
202.128	35.5
202.347	39.59
202.566	41.64
202.785	-81.24
203.004	-11.61
203.223	144.04
203.442	27.31
203.661	-48.47
203.879	68.27
204.098	55.98
204.317	47.79
204.536	8.87
204.755	58.03
204.974	37.55
205.193	66.22
205.411	72.36
205.63	17.07
205.849	94.89
206.068	-36.18
206.287	-52.56
206.505	33.45
206.724	2.73
206.943	78.51
207.162	35.5
207.381	6.83
207.599	23.21
207.818	96.94
208.037	-36.18
208.255	27.31
208.474	58.03
208.693	49.83
208.911	41.64
209.13	-17.75
209.349	64.17
209.567	55.98
209.786	111.27
210.005	-7.51
210.223	10.92
210.442	-17.75
210.661	-3.41
210.879	27.31
211.098	25.26
211.316	45.74
211.535	17.07
211.753	27.31
211.972	68.27
212.191	37.55
212.409	25.26
212.628	37.55
212.846	-5.46
213.065	25.26
213.283	86.7
213.502	51.88
213.72	12.97
213.938	-3.41
214.157	21.16
214.375	37.55
214.594	27.31
214.812	51.88
215.031	49.83
215.249	0.68
215.467	60.07
215.686	70.31
215.904	0.68
216.122	47.79
216.341	103.08
216.559	10.92
216.778	98.99
216.996	27.31
217.214	12.97
217.432	-3.41
217.651	41.64
217.869	-9.56
218.087	19.11
218.306	41.64
218.524	51.88
218.742	49.83
218.96	-11.61
219.179	70.31
219.397	66.22
219.615	53.93
219.833	43.69
220.051	-11.61
220.27	35.5
220.488	33.45
220.706	90.79
220.924	21.16
221.142	-46.42
221.36	0.68
221.578	88.75
221.796	4.78
222.015	10.92
222.233	-17.75
222.451	45.74
222.669	-40.28
222.887	-13.65
223.105	4.78
223.323	-19.8
223.541	45.74
223.759	53.93
223.977	12.97
224.195	41.64
224.413	2.73
224.631	101.03
224.849	29.35
225.067	76.46
225.285	-40.28
225.503	47.79
225.721	10.92
225.939	35.5
226.157	53.93
226.375	76.46
226.592	-27.99
226.81	70.31
227.028	45.74
227.246	76.46
227.464	-17.75
227.682	55.98
227.9	64.17
228.117	37.55
228.335	4.78
228.553	37.55
228.771	29.35
228.989	23.21
229.206	74.41
229.424	82.6
229.642	4.78
229.86	-58.71
230.077	35.5
230.295	62.12
230.513	-11.61
230.731	74.41
230.948	98.99
231.166	82.6
231.384	0.68
231.601	47.79
231.819	103.08
232.037	-25.94
232.254	-36.18
232.472	51.88
232.689	74.41
232.907	58.03
233.125	-13.65
233.342	45.74
233.56	51.88
233.777	58.03
233.995	17.07
234.213	78.51
234.43	-50.52
234.648	8.87
234.865	15.02
235.083	92.84
235.3	51.88
235.518	127.66
235.735	-3.41
235.953	23.21
236.17	-38.23
236.388	23.21
236.605	37.55
236.822	58.03
237.04	17.07
237.257	86.7
237.475	41.64
237.692	86.7
237.909	-64.85
238.127	72.36
238.344	12.97
238.562	-13.65
238.779	51.88
238.996	-46.42
239.214	53.93
239.431	80.55
239.648	-36.18
239.865	31.4
240.083	49.83
240.3	45.74
240.517	45.74
240.735	74.41
240.952	58.03
241.169	6.83
241.386	113.32
241.603	31.4
241.821	35.5
242.038	66.22
242.255	45.74
242.472	41.64
242.689	12.97
242.907	51.88
243.124	-3.41
243.341	25.26
243.558	12.97
243.775	17.07
243.992	8.87
244.209	78.51
244.426	45.74
244.643	64.17
244.86	74.41
245.078	62.12
245.295	125.61
245.512	4.78
245.729	-5.46
245.946	82.6
246.163	4.78
246.38	66.22
246.597	19.11
246.814	64.17
247.031	53.93
247.248	25.26
247.464	35.5
247.681	-9.56
247.898	23.21
248.115	43.69
248.332	4.78
248.549	21.16
248.766	29.35
248.983	86.7
249.2	45.74
249.417	90.79
249.633	27.31
249.85	-3.41
250.067	72.36
250.284	51.88
250.501	66.22
250.717	94.89
250.934	70.31
251.151	39.59
251.368	-21.84
251.585	82.6
251.801	60.07
252.018	0.68
252.235	70.31
252.451	37.55
252.668	25.26
252.885	-17.75
253.102	49.83
253.318	27.31
253.535	-19.8
253.752	-46.42
253.968	35.5
254.185	-42.32
254.401	60.07
254.618	60.07
254.835	23.21
255.051	111.27
255.268	15.02
255.484	8.87
255.701	21.16
255.917	-5.46
256.134	37.55
256.351	-64.85
256.567	45.74
256.784	23.21
257	10.92
257.217	78.51
257.433	82.6
257.65	68.27
257.866	-5.46
258.082	-38.23
258.299	-7.51
258.515	88.75
258.732	70.31
258.948	80.55
259.165	-1.37
259.381	2.73
259.597	98.99
259.814	25.26
260.03	25.26
260.246	60.07
260.463	0.68
260.679	6.83
260.895	4.78
261.112	-19.8
261.328	12.97
261.544	21.16
261.761	74.41
261.977	64.17
262.193	21.16
262.409	21.16
262.626	68.27
262.842	58.03
263.058	-13.65
263.274	29.35
263.49	-3.41
263.707	82.6
263.923	76.46
264.139	55.98
264.355	-32.08
264.571	31.4
264.787	2.73
265.004	66.22
265.22	41.64
265.436	-3.41
265.652	-30.04
265.868	49.83
266.084	33.45
266.3	-36.18
266.516	43.69
266.732	10.92
266.948	-15.7
267.164	76.46
267.38	101.03
267.596	137.9
267.812	45.74
268.028	64.17
268.244	37.55
268.46	76.46
268.676	-7.51
268.892	27.31
269.108	23.21
269.324	-99.67
269.54	-25.94
269.756	78.51
269.972	-56.66
270.188	-38.23
270.403	-23.89
270.619	53.93
270.835	45.74
271.051	21.16
271.267	58.03
271.483	10.92
271.698	58.03
271.914	86.7
272.13	27.31
272.346	-38.23
272.562	4.78
272.777	-15.7
272.993	45.74
273.209	25.26
273.425	43.69
273.64	29.35
273.856	74.41
274.072	29.35
274.287	-23.89
274.503	80.55
274.719	53.93
274.934	43.69
275.15	8.87
275.366	15.02
275.581	33.45
275.797	101.03
276.012	12.97
276.228	107.18
276.444	15.02
276.659	62.12
276.875	2.73
277.09	-23.89
277.306	4.78
277.521	-3.41
277.737	21.16
277.952	25.26
278.168	27.31
278.383	90.79
278.599	94.89
278.814	96.94
279.03	68.27
279.245	45.74
279.461	53.93
279.676	2.73
279.892	70.31
280.107	31.4
280.322	0.68
280.538	-3.41
280.753	64.17
280.969	-7.51
281.184	45.74
281.399	70.31
281.615	-64.85
281.83	21.16
282.045	-48.47
282.26	33.45
282.476	-48.47
282.691	60.07
282.906	78.51
283.122	70.31
283.337	84.65
283.552	31.4
283.767	49.83
283.983	74.41
284.198	25.26
284.413	64.17
284.628	58.03
284.843	49.83
285.058	80.55
285.274	94.89
285.489	78.51
285.704	41.64
285.919	-11.61
286.134	37.55
286.349	2.73
286.564	19.11
286.779	96.94
286.995	-11.61
287.21	45.74
287.425	29.35
287.64	45.74
287.855	31.4
288.07	6.83
288.285	-25.94
288.5	-11.61
288.715	21.16
288.93	19.11
289.145	12.97
289.36	-21.84
289.575	-3.41
289.79	129.7
290.004	10.92
290.219	58.03
290.434	-17.75
290.649	62.12
290.864	21.16
291.079	43.69
291.294	29.35
291.509	29.35
291.724	-1.37
291.938	-11.61
292.153	72.36
292.368	72.36
292.583	47.79
292.798	109.23
293.012	35.5
293.227	62.12
293.442	70.31
293.657	88.75
293.871	43.69
294.086	4.78
294.301	-11.61
294.516	37.55
294.73	53.93
294.945	-27.99
295.16	-44.37
295.374	70.31
295.589	21.16
295.804	21.16
296.018	58.03
296.233	96.94
296.447	17.07
296.662	74.41
296.877	49.83
297.091	90.79
297.306	29.35
297.52	66.22
297.735	64.17
297.949	103.08
298.164	12.97
298.378	35.5
298.593	-5.46
298.807	94.89
299.022	15.02
299.236	37.55
299.451	78.51
299.665	86.7
299.88	33.45
300.094	29.35
300.309	58.03
300.523	92.84
300.737	84.65
300.952	37.55
301.166	41.64
301.381	80.55
301.595	23.21
301.809	-48.47
302.024	6.83
302.238	41.64
302.452	12.97
302.667	45.74
302.881	37.55
303.095	43.69
303.309	2.73
303.524	66.22
303.738	-15.7
303.952	10.92
304.166	41.64
304.381	33.45
304.595	74.41
304.809	-27.99
305.023	17.07
305.237	-1.37
305.452	-1.37
305.666	101.03
305.88	58.03
306.094	105.13
306.308	8.87
306.522	31.4
306.736	96.94
306.95	74.41
307.164	-66.9
307.379	101.03
307.593	90.79
307.807	12.97
308.021	158.38
308.235	60.07
308.449	76.46
308.663	84.65
308.877	84.65
309.091	-11.61
309.305	58.03
309.519	4.78
309.733	135.85
309.947	-23.89
310.161	66.22
310.374	19.11
310.588	12.97
310.802	17.07
311.016	51.88
311.23	-19.8
311.444	-11.61
311.658	25.26
311.872	25.26
312.085	-11.61
312.299	82.6
312.513	37.55
312.727	86.7
312.941	0.68
313.154	37.55
313.368	70.31
313.582	-50.52
313.796	41.64
314.009	37.55
314.223	60.07
314.437	113.32
314.651	74.41
314.864	64.17
315.078	35.5
315.292	68.27
315.505	-58.71
315.719	60.07
315.933	21.16
316.146	2.73
316.36	-38.23
316.573	45.74
316.787	58.03
317.001	45.74
317.214	82.6
317.428	60.07
317.641	-23.89
317.855	-15.7
318.068	45.74
318.282	39.59
318.495	78.51
318.709	15.02
318.922	-3.41
319.136	101.03
319.349	125.61
319.563	29.35
319.776	10.92
319.99	-40.28
320.203	53.93
320.417	58.03
320.63	41.64
320.843	82.6
321.057	23.21
321.27	58.03
321.483	47.79
321.697	19.11
321.91	-27.99
322.124	37.55
322.337	123.56
322.55	39.59
322.763	33.45
322.977	39.59
323.19	-23.89
323.403	88.75
323.617	53.93
323.83	25.26
324.043	-5.46
324.256	19.11
324.469	62.12
324.683	55.98
324.896	-19.8
325.109	19.11
325.322	-48.47
325.535	39.59
325.748	-11.61
325.962	-11.61
326.175	33.45
326.388	29.35
326.601	43.69
326.814	41.64
327.027	-11.61
327.24	94.89
327.453	-44.37
327.666	117.42
327.879	94.89
328.092	37.55
328.305	66.22
328.518	8.87
328.731	80.55
328.944	111.27
329.157	66.22
329.37	12.97
329.583	37.55
329.796	29.35
330.009	25.26
330.222	37.55
330.435	66.22
330.648	33.45
330.861	96.94
331.073	103.08
331.286	43.69
331.499	43.69
331.712	17.07
331.925	49.83
332.138	4.78
332.35	92.84
332.563	21.16
332.776	62.12
332.989	35.5
333.202	33.45
333.414	21.16
333.627	70.31
333.84	-44.37
334.053	58.03
334.265	60.07
334.478	12.97
334.691	-9.56
334.903	123.56
335.116	-21.84
335.329	39.59
335.541	35.5
335.754	86.7
335.966	-21.84
336.179	33.45
336.392	64.17
336.604	62.12
336.817	66.22
337.029	94.89
337.242	82.6
337.454	-7.51
337.667	127.66
337.88	-27.99
338.092	41.64
338.305	51.88
338.517	-25.94
338.729	29.35
338.942	35.5
339.154	4.78
339.367	41.64
339.579	74.41
339.792	29.35
340.004	66.22
340.217	21.16
340.429	21.16
340.641	58.03
340.854	23.21
341.066	-32.08
341.278	107.18
341.491	94.89
341.703	31.4
341.915	0.68
342.128	115.37
342.34	2.73
342.552	82.6
342.764	4.78
342.977	96.94
343.189	4.78
343.401	51.88
343.613	-34.13
343.826	94.89
344.038	68.27
344.25	12.97
344.462	0.68
344.674	17.07
344.886	27.31
345.099	70.31
345.311	70.31
345.523	21.16
345.735	-3.41
345.947	82.6
346.159	53.93
346.371	51.88
346.583	53.93
346.795	84.65
347.007	-17.75
347.219	17.07
347.431	-7.51
347.643	101.03
347.855	-5.46
348.067	6.83
348.279	70.31
348.491	45.74
348.703	117.42
348.915	103.08
349.127	17.07
349.339	4.78
349.551	105.13
349.763	43.69
349.975	-48.47
350.187	49.83
350.399	121.51
350.61	29.35
350.822	-3.41
351.034	21.16
351.246	15.02
351.458	39.59
351.669	10.92
351.881	78.51
352.093	82.6
352.305	17.07
352.517	-11.61
352.728	51.88
352.94	-17.75
353.152	21.16
353.363	23.21
353.575	84.65
353.787	113.32
353.999	101.03
354.21	27.31
354.422	-19.8
354.633	19.11
354.845	4.78
355.057	6.83
355.268	62.12
355.48	23.21
355.692	-25.94
355.903	-27.99
356.115	60.07
356.326	29.35
356.538	31.4
356.749	84.65
356.961	25.26
357.172	107.18
357.384	6.83
357.595	115.37
357.807	74.41
358.018	17.07
358.23	51.88
358.441	76.46
358.653	17.07
358.864	-17.75
359.075	53.93
359.287	49.83
359.498	8.87
359.709	35.5
359.921	-27.99
360.132	27.31
360.344	17.07
360.555	-44.37
360.766	-19.8
360.977	45.74
361.189	78.51
361.4	58.03
361.611	53.93
361.823	19.11
362.034	47.79
362.245	33.45
362.456	68.27
362.667	150.18
362.879	35.5
363.09	47.79
363.301	88.75
363.512	10.92
363.723	62.12
363.935	41.64
364.146	4.78
364.357	-44.37
364.568	17.07
364.779	12.97
364.99	66.22
365.201	53.93
365.412	-7.51
365.623	8.87
365.834	23.21
366.045	23.21
366.256	80.55
366.467	74.41
366.678	62.12
366.889	80.55
367.1	78.51
367.311	33.45
367.522	53.93
367.733	101.03
367.944	150.18
368.155	94.89
368.366	66.22
368.577	2.73
368.788	115.37
368.999	72.36
369.209	47.79
369.42	111.27
369.631	58.03
369.842	82.6
370.053	64.17
370.264	109.23
370.474	27.31
370.685	45.74
370.896	31.4
371.107	109.23
371.317	41.64
371.528	29.35
371.739	76.46
371.95	41.64
372.16	37.55
372.371	41.64
372.582	39.59
372.792	43.69
373.003	37.55
373.214	43.69
373.424	90.79
373.635	70.31
373.846	96.94
374.056	29.35
374.267	43.69
374.477	-30.04
374.688	-19.8
374.898	41.64
375.109	-40.28
375.319	101.03
375.53	12.97
375.74	92.84
375.951	70.31
376.161	45.74
376.372	45.74
376.582	127.66
376.793	103.08
377.003	31.4
377.214	0.68
377.424	58.03
377.635	25.26
377.845	62.12
378.055	39.59
378.266	66.22
378.476	-17.75
378.686	55.98
378.897	33.45
379.107	111.27
379.317	33.45
379.528	55.98
379.738	10.92
379.948	-75.09
380.158	8.87
380.369	33.45
380.579	109.23
380.789	25.26
380.999	66.22
381.21	23.21
381.42	53.93
381.63	4.78
381.84	33.45
382.05	60.07
382.261	74.41
382.471	37.55
382.681	21.16
382.891	60.07
383.101	23.21
383.311	-7.51
383.521	25.26
383.731	109.23
383.941	88.75
384.151	37.55
384.361	0.68
384.571	92.84
384.781	51.88
384.991	88.75
385.201	137.9
385.411	68.27
385.621	123.56
385.831	29.35
386.041	86.7
386.251	-5.46
386.461	127.66
386.671	10.92
386.881	113.32
387.091	41.64
387.301	152.23
387.511	23.21
387.72	131.75
387.93	82.6
388.14	27.31
388.35	80.55
388.56	70.31
388.769	86.7
388.979	39.59
389.189	33.45
389.399	41.64
389.609	29.35
389.818	70.31
390.028	33.45
390.238	-46.42
390.447	53.93
390.657	90.79
390.867	15.02
391.076	37.55
391.286	45.74
391.496	66.22
391.705	-19.8
391.915	39.59
392.125	58.03
392.334	51.88
392.544	160.42
392.753	58.03
392.963	6.83
393.172	8.87
393.382	-21.84
393.591	115.37
393.801	66.22
394.01	111.27
394.22	76.46
394.429	131.75
394.639	64.17
394.848	33.45
395.058	113.32
395.267	82.6
395.477	76.46
395.686	37.55
395.895	119.46
396.105	139.94
396.314	88.75
396.524	139.94
396.733	41.64
396.942	141.99
397.152	121.51
397.361	168.62
397.57	-32.08
397.78	74.41
397.989	127.66
398.198	119.46
398.407	94.89
398.617	84.65
398.826	55.98
399.035	127.66
399.244	-34.13
399.453	135.85
399.663	70.31
399.872	84.65
400.081	119.46
400.29	98.99
400.499	82.6
400.708	74.41
400.917	98.99
401.127	86.7
401.336	80.55
401.545	127.66
401.754	135.85
401.963	33.45
402.172	78.51
402.381	103.08
402.59	78.51
402.799	92.84
403.008	43.69
403.217	141.99
403.426	176.81
403.635	25.26
403.844	166.57
404.053	139.94
404.262	127.66
404.471	170.66
404.68	92.84
404.888	80.55
405.097	133.8
405.306	187.05
405.515	90.79
405.724	119.46
405.933	152.23
406.142	170.66
406.35	176.81
406.559	152.23
406.768	215.72
406.977	168.62
407.185	172.71
407.394	209.58
407.603	92.84
407.812	211.62
408.02	275.11
408.229	228.01
408.438	275.11
408.646	242.34
408.855	234.15
409.064	209.58
409.272	262.82
409.481	250.53
409.69	281.25
409.898	324.26
410.107	307.88
410.315	344.74
410.524	209.58
410.733	271.01
410.941	281.25
411.15	400.04
411.358	377.51
411.567	385.7
411.775	311.97
411.984	395.94
412.192	441
412.401	344.74
412.609	438.95
412.818	479.91
413.026	492.2
413.234	475.81
413.443	432.8
413.651	545.44
413.86	533.15
414.068	643.74
414.276	547.49
414.485	512.67
414.693	606.88
414.901	617.12
415.11	641.7
415.318	619.17
415.526	676.51
415.734	713.38
415.943	676.51
416.151	752.29
416.359	842.4
416.567	783.01
416.776	891.55
416.984	893.6
417.192	981.66
417.4	959.13
417.608	963.23
417.817	1012.38
418.025	979.61
418.233	1157.78
418.441	963.23
418.649	1118.87
418.857	1235.61
419.065	1159.83
419.273	1202.84
419.481	1245.85
419.689	1309.33
419.897	1393.3
420.105	1462.93
420.313	1505.94
420.521	1487.51
420.729	1563.28
420.937	1528.47
421.145	1589.91
421.353	1757.84
421.561	1884.81
421.769	1712.78
421.977	1876.62
422.185	1897.1
422.393	2083.47
422.601	2167.43
422.809	2196.11
423.017	2214.54
423.224	2255.5
423.432	2288.26
423.64	2372.23
423.848	2548.36
424.056	2470.53
424.263	2646.66
424.471	2753.15
424.679	2722.43
424.887	2869.89
425.094	3048.06
425.302	2882.17
425.51	3037.82
425.718	3185.27
425.925	3224.19
426.133	3250.81
426.341	3601.01
426.548	3621.49
426.756	3646.07
426.964	3785.33
427.171	3934.83
427.379	4065.9
427.586	4156.01
427.794	4141.68
428.001	4428.39
428.209	4528.74
428.417	4614.76
428.624	4854.37
428.832	4860.51
429.039	4792.93
429.247	4813.41
429.454	5075.55
429.662	5704.28
429.869	5227.1
430.076	5575.25
430.284	5495.38
430.491	5605.97
430.699	5874.26
430.906	5778
431.114	6046.29
431.321	6404.68
431.528	6548.04
431.736	6799.94
431.943	7121.47
432.15	7057.98
432.358	7017.02
432.565	7399.99
432.772	7412.28
432.979	7954.99
433.187	7934.51
433.394	7998
433.601	8542.76
433.808	8444.46
434.016	8335.92
434.223	8614.44
434.43	9228.83
434.637	9224.73
434.844	9703.96
435.052	9769.49
435.259	9691.67
435.466	10113.55
435.673	9785.88
435.88	10508.81
436.087	11147.78
436.294	11098.63
436.501	10615.3
436.708	10947.08
436.915	11477.5
437.122	11971.06
437.329	11663.86
437.537	12128.75
437.743	12438
437.95	12372.46
438.157	12870.12
438.364	13228.51
438.571	13445.6
438.778	13511.13
438.985	14471.63
439.192	14133.72
439.399	14571.98
439.606	13990.36
439.813	14821.83
440.02	15890.87
440.227	15614.4
440.433	15456.7
440.64	16265.65
440.847	15987.13
441.054	16118.2
441.261	17195.43
441.467	17142.18
441.674	17574.3
441.881	18020.76
442.088	18018.71
442.294	17959.32
442.501	18387.35
442.708	18676.11
442.914	19384.71
443.121	20429.17
443.328	19683.71
443.534	21219.69
443.741	20523.38
443.948	20351.35
444.154	21553.51
444.361	21408.1
444.568	21571.94
444.774	21715.3
444.981	21893.47
445.187	22436.18
445.394	23683.39
445.6	23185.74
445.807	25428.26
446.013	24322.36
446.22	24863.02
446.426	25778.47
446.633	25917.73
446.839	26456.34
447.046	25241.9
447.252	27328.78
447.459	26992.91
447.665	26784.02
447.871	28403.96
448.078	29380.84
448.284	27783.43
448.491	28487.93
448.697	29878.5
448.903	30046.43
449.11	30345.44
449.316	29522.15
449.522	30517.46
449.728	31178.96
449.935	31217.87
450.141	31299.79
450.347	32030.91
450.553	30689.49
450.76	31287.5
450.966	31860.93
451.172	32006.34
451.378	32735.42
451.584	31989.95
451.791	32485.56
451.997	32317.63
452.203	33175.73
452.409	33048.75
452.615	33046.71
452.821	31480.01
453.027	31226.06
453.233	33089.71
453.44	31781.06
453.646	31578.31
453.852	32106.69
454.058	32350.4
454.264	31250.64
454.47	32182.46
454.676	31314.12
454.882	32217.28
455.088	29210.86
455.294	29882.59
455.5	30191.84
455.705	30656.73
455.911	29401.32
456.117	28729.59
456.323	28301.56
456.529	27105.55
456.735	27842.82
456.941	27138.32
457.147	26777.87
457.352	25862.43
457.558	25708.83
457.764	25690.4
457.97	25061.68
458.176	24772.91
458.381	24635.7
458.587	23347.53
458.793	23482.69
458.999	22139.22
459.204	23998.78
459.41	23212.36
459.616	21537.12
459.821	21616.99
460.027	21569.89
460.233	21076.33
460.438	20081.02
460.644	20386.16
460.85	19423.62
461.055	18991.5
461.261	18829.71
461.466	17486.24
461.672	17140.13
461.878	18475.41
462.083	17277.35
462.289	16925.1
462.494	16419.25
462.7	15983.03
462.905	15489.47
463.111	15935.93
463.316	16132.53
463.522	15897.02
463.727	15874.49
463.932	15643.07
464.138	15854.01
464.343	15514.05
464.549	15294.91
464.754	15618.49
464.959	15659.45
465.165	15497.66
465.37	14891.46
465.575	14320.08
465.781	15124.93
465.986	15311.3
466.191	14434.77
466.397	14199.25
466.602	13588.96
466.807	14180.82
467.012	14215.63
467.218	14064.08
467.423	14100.95
467.628	14096.85
467.833	14717.39
468.038	14045.65
468.244	13599.2
468.449	14383.57
468.654	13677.02
468.859	13707.74
469.064	13474.27
469.269	13076.96
469.474	13033.96
469.679	13359.58
469.885	12874.21
470.09	13169.12
470.295	13027.81
470.5	12757.48
470.705	12663.27
470.91	12366.32
471.115	12554.73
471.32	12487.15
471.525	12665.32
471.73	12225.01
471.935	12190.19
472.139	11641.34
472.344	11461.12
472.549	11833.85
472.754	11477.5
472.959	11391.48
473.164	11383.29
473.369	10957.32
473.574	11506.17
473.778	11342.33
473.983	11239.94
474.188	11209.22
474.393	10621.45
474.598	10611.21
474.802	10633.74
475.007	10375.69
475.212	10658.31
475.417	10138.13
475.621	10185.23
475.826	10326.54
476.031	9882.13
476.235	9869.84
476.44	9884.18
476.645	9769.49
476.849	9605.66
477.054	9486.87
477.259	9671.19
477.463	9421.34
477.668	9439.77
477.872	9392.67
478.077	9421.34
478.282	9169.44
478.486	9073.18
478.691	8962.59
478.895	8911.39
479.1	8872.48
479.304	8684.07
479.509	8782.37
479.713	8671.78
479.918	8677.93
480.122	8540.71
480.326	8690.21
480.531	8671.78
480.735	8481.32
480.94	8438.31
481.144	8682.02
481.348	8297
481.553	8315.44
481.757	8258.09
481.961	8458.79
482.166	8364.59
482.37	8335.92
482.574	8258.09
482.778	8149.55
482.983	8415.79
483.187	8358.44
483.391	8440.36
483.595	8262.19
483.8	8262.19
484.004	8378.92
484.208	8372.78
484.412	8258.09
484.616	8323.63
484.821	8272.43
485.025	8063.54
485.229	8391.21
485.433	8170.03
485.637	8262.19
485.841	8317.48
486.045	8172.08
486.249	8243.76
486.453	8340.01
486.657	8319.53
486.861	8299.05
487.065	8059.44
487.269	8403.5
487.473	8104.49
487.677	8317.48
487.881	8368.68
488.085	8276.52
488.289	8225.33
488.493	8335.92
488.697	8354.35
488.901	8360.49
489.105	8356.4
489.309	8321.58
489.512	8448.55
489.716	8557.1
489.92	8458.79
490.124	8450.6
490.328	8407.59
490.531	8702.5
490.735	8546.86
490.939	8479.27
491.143	8540.71
491.346	8507.94
491.55	8628.78
491.754	8559.14
491.958	8694.31
492.161	8628.78
492.365	8786.47
492.569	8694.31
492.772	8792.61
492.976	8909.35
493.18	8892.96
493.383	8954.4
493.587	8913.44
493.79	9036.32
493.994	9054.75
494.197	9099.81
494.401	9335.32
494.605	9427.48
494.808	9423.39
495.012	9339.42
495.215	9560.6
495.419	9576.98
495.622	9425.43
495.825	9679.38
496.029	9597.46
496.232	10177.04
496.436	9951.76
496.639	10193.42
496.843	10234.38
497.046	10172.94
497.249	10383.88
497.453	10385.93
497.656	10584.59
497.859	10650.12
498.063	10668.55
498.266	10783.24
498.469	11016.71
498.673	11020.8
498.876	11223.55
499.079	11106.82
499.282	11430.4
499.485	11491.84
499.689	11444.73
499.892	11674.1
500.095	11745.78
500.298	12122.61
500.501	11829.75
500.705	12182
500.908	12300.78
501.111	12597.74
501.314	12931.56
501.517	12997.09
501.72	13013.48
501.923	12952.04
502.126	13322.72
502.329	13611.48
502.532	13416.93
502.735	13670.87
502.938	13996.5
503.141	13908.44
503.344	14164.43
503.547	14135.76
503.75	14381.52
503.953	14578.12
504.156	14619.08
504.359	14905.8
504.562	15086.02
504.765	15319.49
504.968	15409.6
505.17	15577.53
505.373	15696.32
505.576	16052.66
505.779	16236.98
505.982	16146.87
506.185	16560.56
506.387	16519.6
506.59	16820.65
506.793	16980.39
506.996	16937.38
507.198	17408.42
507.401	17314.21
507.604	17340.83
507.807	17994.14
508.009	17969.56
508.212	18188.69
508.415	18661.77
508.617	18706.83
508.82	18540.94
509.022	18604.43
509.225	19222.92
509.428	19337.6
509.63	19261.83
509.833	19562.88
510.035	20060.54
510.238	20005.24
510.44	20146.55
510.643	20576.62
510.845	20672.88
511.048	20703.6
511.25	20826.48
511.453	21363.04
511.655	22026.59
511.858	21627.23
512.06	21848.41
512.262	22133.08
512.465	22110.55
512.667	22475.09
512.87	22640.98
513.072	22782.29
513.274	23238.98
513.477	23447.88
513.679	23325
513.881	23990.59
514.084	23845.18
514.286	24191.29
514.488	24348.98
514.69	24916.27
514.893	24881.45
515.095	24834.35
515.297	25446.69
515.499	25637.16
515.701	25680.16
515.904	26333.46
516.106	26435.86
516.308	26224.92
516.51	26800.4
516.712	26773.78
516.914	27177.23
517.116	27664.64
517.318	27662.6
517.52	27855.11
517.722	27984.13
517.925	28242.17
518.127	28715.25
518.329	28852.47
518.531	28686.58
518.733	29290.73
518.935	29780.2
519.136	29493.48
519.338	30165.21
519.54	30449.88
519.742	30628.06
519.944	30785.75
520.146	31406.28
520.348	31097.04
520.55	31492.3
520.752	31547.59
520.954	32411.84
521.155	31875.27
521.357	32821.43
521.559	32495.8
521.761	32958.64
521.963	32977.08
522.164	33167.54
522.366	33364.14
522.568	33861.8
522.77	34099.36
522.971	34257.06
523.173	33925.29
523.375	34642.07
523.576	34689.18
523.778	34760.86
523.98	34822.3
524.181	34986.13
524.383	35315.86
524.584	35944.58
524.786	35846.28
524.988	35905.67
525.189	36294.78
525.391	36382.85
525.592	36884.6
525.794	36628.6
525.995	37009.53
526.197	36927.61
526.398	36833.4
526.6	37163.12
526.801	37458.03
527.003	37677.16
527.204	37720.17
527.406	37757.03
527.607	37630.06
527.808	38266.98
528.01	37513.33
528.211	37894.25
528.412	38731.87
528.614	38654.04
528.815	38531.17
529.016	39491.66
529.218	38797.4
529.419	39032.92
529.62	39264.34
529.822	38764.64
530.023	39039.06
530.224	39495.76
530.425	39090.26
530.626	39247.96
530.828	39086.17
531.029	40280.13
531.23	39702.6
531.431	39512.14
531.632	39950.41
531.833	40056.9
532.035	39596.11
532.236	39983.18
532.437	40245.32
532.638	40026.18
532.839	40304.71
533.04	40400.96
533.241	39483.47
533.442	41011.26
533.643	40147.01
533.844	40181.83
534.045	40888.38
534.246	40308.8
534.447	40624.19
534.648	40319.04
534.849	40538.18
535.05	40515.65
535.251	40822.84
535.451	40112.2
535.652	40718.4
535.853	40564.8
536.054	40681.53
536.255	40800.32
536.456	40460.35
536.657	41283.64
536.857	40585.28
537.058	40525.89
537.259	40667.2
537.46	40480.83
537.66	40321.09
537.861	40790.08
538.062	40650.81
538.263	40886.33
538.463	40646.72
538.664	40630.33
538.865	40529.98
539.065	40968.25
539.266	40597.57
539.466	40912.95
539.667	39962.7
539.868	40775.74
540.068	40781.88
540.269	40384.58
540.469	40781.88
540.67	40304.71
540.87	40550.46
541.071	40753.21
541.271	40857.66
541.472	40484.93
541.672	40384.58
541.873	40433.73
542.073	40061
542.274	40855.61
542.474	40306.76
542.675	40317
542.875	40708.16
543.075	40679.49
543.276	39784.52
543.476	41084.98
543.676	40556.61
543.877	40675.39
544.077	40589.38
544.277	40364.1
544.478	40448.07
544.678	40343.62
544.878	40880.19
545.078	40687.68
545.279	40108.1
545.479	40067.14
545.679	40540.22
545.879	40187.97
546.079	40413.25
546.28	40220.74
546.48	39925.83
546.68	40601.66
546.88	40329.28
547.08	40323.14
547.28	39919.69
547.48	39774.28
547.68	40380.48
547.88	40300.61
548.081	40446.02
548.281	40144.97
548.481	40011.85
548.681	40759.36
548.881	40579.14
549.081	39757.9
549.28	39811.15
549.48	40140.87
549.68	39950.41
549.88	40527.94
550.08	39762
550.28	40204.36
550.48	40122.44
550.68	40171.59
550.88	39860.3
551.08	40155.21
551.279	40020.04
551.479	39616.59
551.679	39862.35
551.879	40075.34
552.079	40165.45
552.278	39751.76
552.478	40122.44
552.678	40040.52
552.878	40089.67
553.077	39993.42
553.277	39374.93
553.477	40360
553.676	39413.84
553.876	39716.94
554.076	39563.34
554.275	39831.63
554.475	39534.67
554.674	39460.94
554.874	39610.45
555.074	39704.65
555.273	40065.1
555.473	39581.77
555.672	39254.1
555.872	39450.7
556.071	39604.3
556.271	39598.16
556.47	39278.68
556.67	39037.01
556.869	39364.69
557.068	39514.19
557.268	39157.85
557.467	39172.18
557.667	38938.71
557.866	39180.37
558.065	39184.47
558.265	38875.23
558.464	38869.08
558.663	39180.37
558.863	38471.78
559.062	39118.93
559.261	38049.89
559.461	39270.48
559.66	38318.18
559.859	38735.96
560.058	38516.83
560.258	38482.02
560.457	38178.92
560.656	38563.93
560.855	37961.83
561.054	38412.38
561.253	37906.54
561.453	38469.73
561.652	38234.21
561.851	38193.25
562.05	38002.79
562.249	37677.16
562.448	37830.76
562.647	37699.69
562.846	37963.88
563.045	38027.37
563.244	37329.01
563.443	37927.02
563.642	37111.92
563.841	37595.25
564.04	37034.1
564.239	37562.48
564.438	37120.12
564.637	37496.94
564.836	37298.29
565.035	36788.35
565.234	37036.15
565.432	36808.83
565.631	36503.68
565.83	36853.88
566.029	36681.85
566.228	36810.87
566.427	36511.87
566.625	36141.19
566.824	35811.46
567.023	36382.85
567.222	35281.04
567.42	35979.4
567.619	36141.19
567.818	35840.14
568.016	36044.93
568.215	35995.78
568.414	35854.47
568.612	36108.42
568.811	34961.56
569.01	35440.78
569.208	35084.44
569.407	35508.36
569.605	35008.66
569.804	35211.41
570.002	35147.92
570.201	35272.85
570.4	34879.64
570.598	34723.99
570.797	34490.52
570.995	34431.13
571.193	34160.8
571.392	34662.55
571.59	34220.19
571.789	33982.63
571.987	33984.68
572.186	34224.29
572.384	33618.09
572.582	34183.33
572.781	34199.71
572.979	33474.73
573.177	33665.19
573.376	33865.89
573.574	33366.19
573.772	33536.17
573.971	33489.07
574.169	33077.43
574.367	33065.14
574.565	33509.55
574.763	33495.21
574.962	33159.34
575.16	32596.15
575.358	32700.6
575.556	32680.12
575.754	33061.04
575.952	32526.52
576.151	32446.65
576.349	31748.29
576.547	32161.98
576.745	32080.07
576.943	32035.01
577.141	32024.77
577.339	32229.57
577.537	31942.85
577.735	31905.99
577.933	31738.05
578.131	32039.11
578.329	31457.48
578.527	31342.8
578.725	31652.04
578.923	31598.79
579.121	31394
579.319	31514.83
579.516	31234.25
579.714	31146.19
579.912	31043.79
580.11	31023.31
580.308	30894.29
580.506	30937.3
580.704	30519.51
580.901	30808.28
581.099	30824.66
581.297	30216.41
581.495	30552.28
581.692	30650.58
581.89	29915.36
582.088	30284
582.285	30142.69
582.483	30333.15
582.681	29997.28
582.878	29772
583.076	29573.35
583.274	29974.75
583.471	29065.46
583.669	29688.04
583.866	29440.23
584.064	29481.19
584.262	29227.24
584.459	29499.62
584.657	29262.06
584.854	29286.64
585.052	29047.02
585.249	29456.62
585.447	29030.64
585.644	28784.88
585.841	28799.22
586.039	29100.27
586.236	28444.92
586.434	28457.21
586.631	28299.51
586.828	28471.54
587.026	28582.13
587.223	28121.34
587.42	28041.47
587.618	28330.23
587.815	28096.77
588.012	27930.88
588.21	27695.36
588.407	28496.12
588.604	27564.29
588.801	27638.02
588.999	27500.81
589.196	27257.1
589.393	27644.16
589.59	27224.33
589.787	27064.59
589.984	27539.72
590.182	26847.5
590.379	27089.17
590.576	27013.39
590.773	27283.72
590.97	26624.28
591.167	26802.45
591.364	26675.48
591.561	26683.67
591.758	26427.67
591.955	26399
592.152	26458.39
592.349	26315.03
592.546	26497.3
592.743	26274.07
592.94	25895.2
593.137	25819.42
593.334	26243.35
593.531	25757.99
593.727	25784.61
593.924	25903.39
594.121	25444.65
594.318	25942.3
594.515	25622.82
594.712	25676.07
594.908	25381.16
595.105	25362.73
595.302	25098.54
595.499	25205.03
595.696	25104.68
595.892	24863.02
596.089	25209.13
596.286	24940.85
596.482	24985.9
596.679	24740.15
596.876	24734
597.072	24385.85
597.269	24645.94
597.466	24123.71
597.662	24324.41
597.859	24514.87
598.055	24248.63
598.252	24271.16
598.448	24600.88
598.645	24291.64
598.841	23705.92
599.038	23927.1
599.234	23822.66
599.431	23943.49
599.627	23638.34
599.824	23632.19
600.02	23726.4
600.217	23537.99
600.413	23384.39
600.609	23216.46
600.806	23267.66
601.002	23499.08
601.198	23429.45
601.395	23005.52
601.591	23202.12
601.787	23142.73
601.984	23009.61
602.18	23005.52
602.376	22622.55
602.572	22813.01
602.769	22610.26
602.965	22460.76
603.161	22690.13
603.357	22266.2
603.553	22018.39
603.75	22305.11
603.946	22092.12
604.142	22137.18
604.338	21979.48
604.534	22274.39
604.73	21614.94
604.926	21739.87
605.122	21829.98
605.318	21928.28
605.514	21512.55
605.71	21909.85
605.906	21584.23
606.102	21588.32
606.298	21530.98
606.494	21492.07
606.69	21287.27
606.886	21545.31
607.082	21264.74
607.278	21539.17
607.474	20992.36
607.67	21434.72
607.866	20896.11
608.062	21406.05
608.257	21117.29
608.453	20826.48
608.649	20683.12
608.845	20685.17
609.041	21143.91
609.236	21010.79
609.432	20568.43
609.628	20771.18
609.824	20683.12
610.019	20582.77
610.215	20603.25
610.411	20586.86
610.606	20474.23
610.802	20355.44
610.998	20492.66
611.193	20461.94
611.389	20273.53
611.584	20281.72
611.78	19736.96
611.976	20238.71
612.171	20126.07
612.367	20189.56
612.562	19896.7
612.758	19597.7
612.953	19757.44
613.149	20121.98
613.344	19833.21
613.539	19837.31
613.735	19693.95
613.93	19634.56
614.126	19392.9
614.321	20023.67
614.517	19886.46
614.712	19612.03
614.907	19671.42
615.103	19687.81
615.298	19478.91
615.493	19540.35
615.688	19196.29
615.884	20009.34
616.079	19421.57
616.274	19460.48
616.47	19308.93
616.665	19409.28
616.86	19020.17
617.055	19071.37
617.25	19261.83
617.445	19198.34
617.641	18889.1
617.836	18966.92
618.031	18561.42
618.226	19034.5
618.421	18629.01
618.616	18944.39
618.811	18434.45
619.006	18727.31
619.201	18325.91
619.396	18583.95
619.591	18293.14
619.786	18434.45
619.981	18330
620.176	18278.8
620.371	18151.83
620.566	18276.76
620.761	17881.5
620.956	17848.73
621.151	17676.7
621.346	17615.26
621.541	17463.71
621.735	17828.25
621.93	17471.9
622.125	17545.63
622.32	17238.44
622.515	17613.21
622.709	17164.71
622.904	17115.56
623.099	17031.59
623.294	16751.02
623.488	16644.52
623.683	16863.66
623.878	16667.05
624.072	16603.57
624.267	16638.38
624.462	16447.92
624.656	16292.27
624.851	16370.1
625.046	16054.71
625.24	16224.69
625.435	15921.59
625.629	16060.85
625.824	15841.72
626.018	15589.82
626.213	15163.84
626.407	15299.01
626.602	15286.72
626.796	15487.42
626.991	15337.92
627.185	15335.87
627.38	15116.74
627.574	14930.37
627.768	15034.82
627.963	14985.67
628.157	14639.56
628.352	14834.12
628.546	14623.18
628.74	14623.18
628.935	14547.4
629.129	14649.8
629.323	14291.41
629.517	14213.59
629.712	14143.95
629.906	14260.69
630.1	13887.96
630.294	14062.04
630.489	13812.18
630.683	14074.32
630.877	13803.99
631.071	13586.91
631.265	13668.83
631.459	13423.07
631.653	13378.01
631.848	13621.72
632.042	13468.13
632.236	13050.34
632.43	12984.8
632.624	13513.18
632.818	12993
633.012	13038.05
633.206	12915.17
633.4	12997.09
633.594	12878.31
633.788	12784.1
633.982	12564.97
634.176	12689.9
634.369	12544.49
634.563	12513.77
634.757	12294.64
634.951	12532.2
635.145	12292.59
635.339	12364.27
635.533	12081.65
635.726	12120.56
635.92	11991.54
636.114	12200.43
636.308	11860.47
636.501	11788.79
636.695	11674.1
636.889	11786.74
637.083	11530.75
637.276	11592.19
637.47	11659.77
637.664	11538.94
637.857	11368.96
638.051	11403.77
638.244	11278.85
638.438	11342.33
638.632	11201.02
638.825	10977.8
639.019	10967.56
639.212	10809.86
639.406	10924.55
639.599	10822.15
639.793	10797.57
639.986	10586.63
640.18	10715.66
640.373	10668.55
640.567	10480.14
640.76	10473.99
640.954	10381.84
641.147	10236.43
641.34	10342.92
641.534	10443.28
641.727	10316.3
641.92	10152.46
642.114	10213.9
642.307	10150.42
642.5	9945.62
642.694	10025.49
642.887	9970.19
643.08	10033.68
643.273	9921.04
643.467	9740.82
643.66	9415.19
643.853	9665.05
644.046	9407
644.239	9611.8
644.432	9431.58
644.626	9320.99
644.819	9269.79
645.012	9265.69
645.205	9271.84
645.398	9370.14
645.591	9259.55
645.784	8999.46
645.977	9040.42
646.17	8960.55
646.363	9019.94
646.556	8784.42
646.749	8952.35
646.942	8905.25
647.135	8757.8
647.328	8706.6
647.521	8686.12
647.714	8555.05
647.907	8509.99
648.099	8546.86
648.292	8593.96
648.485	8387.11
648.678	8389.16
648.871	8333.87
649.064	8327.72
649.256	8393.26
649.449	8231.47
649.642	8190.51
649.835	8270.38
650.027	8237.61
650.22	8174.13
650.413	7991.86
650.605	8106.54
650.798	7903.79
650.991	7823.92
651.183	7938.61
651.376	7643.7
651.568	7809.59
651.761	7662.13
651.954	7815.73
652.146	7569.98
652.339	7883.31
652.531	7830.07
652.724	7488.06
652.916	7520.82
653.109	7387.71
653.301	7467.58
653.494	7463.48
653.686	7363.13
653.879	7279.16
654.071	7402.04
654.263	7256.64
654.456	7201.34
654.648	7172.67
654.84	6904.39
655.033	7119.42
655.225	7092.8
655.417	6853.19
655.61	6955.58
655.802	7041.6
655.994	6754.88
656.186	6883.91
656.379	6720.07
656.571	6832.71
656.763	6658.63
656.955	6668.87
657.148	6857.28
657.34	6584.9
657.532	6419.02
657.724	6642.25
657.916	6615.62
658.108	6441.54
658.3	6462.02
658.492	6443.59
658.684	6398.54
658.876	6263.37
659.068	6347.34
659.26	6181.45
659.452	6212.17
659.644	6294.09
659.836	6083.15
660.028	6193.74
660.22	6117.97
660.412	6173.26
660.604	5986.9
660.796	6029.9
660.988	6068.81
661.18	5980.75
661.372	5890.64
661.563	6007.38
661.755	5950.03
661.947	5890.64
662.139	5706.32
662.331	5853.78
662.522	5622.36
662.714	5605.97
662.906	5569.11
663.097	5634.64
663.289	5603.93
663.481	5571.16
663.673	5407.32
663.864	5550.68
664.056	5423.7
664.247	5435.99
664.439	5399.13
664.631	5442.14
664.822	5481.05
665.014	5388.89
665.205	5284.44
665.397	5243.48
665.588	5532.25
665.78	5198.43
665.971	5327.45
666.163	5331.55
666.354	5136.99
666.546	5077.6
666.737	5190.24
666.929	5128.8
667.12	5061.21
667.311	4989.53
667.503	4979.29
667.694	5108.32
667.885	4964.96
668.077	5003.87
668.268	4919.9
668.459	4975.2
668.651	4926.05
668.842	4938.34
669.033	4870.75
669.224	4837.98
669.416	4844.13
669.607	4897.38
669.798	4815.46
669.989	4764.26
670.18	4702.82
670.371	4762.21
670.563	4504.17
670.754	4692.58
670.945	4651.62
671.136	4637.28
671.327	4563.56
671.518	4500.07
671.709	4567.65
671.9	4493.93
672.091	4612.71
672.282	4450.92
672.473	4448.87
672.664	4555.37
672.855	4440.68
673.046	4526.69
673.237	4346.47
673.428	4489.83
673.619	4489.83
673.809	4338.28
674	4446.82
674.191	4350.57
674.382	4235.88
674.573	4317.8
674.764	4295.27
674.954	4401.77
675.145	4366.95
675.336	4186.73
675.527	4147.82
675.717	4371.05
675.908	4178.54
676.099	4104.81
676.289	4090.48
676.48	4108.91
676.671	4063.85
676.861	4078.19
677.052	4264.55
677.243	3934.83
677.433	4067.95
677.624	4057.71
677.814	4016.75
678.005	4133.48
678.195	3998.32
678.386	4006.51
678.576	3940.97
678.767	4014.7
678.957	3938.93
679.148	4012.65
679.338	4018.8
679.529	4000.37
679.719	3881.58
679.909	4008.56
680.1	3836.53
680.29	3863.15
680.481	3871.34
680.671	3840.62
680.861	3773.04
681.052	3975.79
681.242	3869.3
681.432	3830.38
681.622	3844.72
681.813	3744.37
682.003	3836.53
682.193	3832.43
682.383	3949.17
682.573	3695.22
682.764	3893.87
682.954	3793.52
683.144	3852.91
683.334	3762.8
683.524	3736.18
683.714	3654.26
683.904	3627.64
684.094	3715.7
684.284	3650.16
684.474	3639.92
684.664	3695.22
684.854	3682.93
685.044	3674.74
685.234	3644.02
685.424	3676.79
685.614	3615.35
685.804	3621.49
685.994	3609.2
686.184	3570.29
686.374	3467.89
686.564	3558
686.753	3560.05
686.943	3396.21
687.133	3517.05
687.323	3443.32
687.513	3381.88
687.702	3480.18
687.892	3383.93
688.082	3398.26
688.272	3478.13
688.461	3312.25
688.651	3449.46
688.841	3435.13
689.03	3332.73
689.22	3426.93
689.41	3408.5
689.599	3398.26
689.789	3265.14
689.979	3377.78
690.168	3398.26
690.358	3383.93
690.547	3250.81
690.737	3224.19
690.926	3252.86
691.116	3113.6
691.305	3193.47
691.495	3195.51
691.684	3107.45
691.874	3201.66
692.063	3080.83
692.252	3138.17
692.442	3132.03
692.631	3043.96
692.82	3101.31
693.01	3095.16
693.199	3076.73
693.388	3148.41
693.578	3021.44
693.767	3140.22
693.956	3048.06
694.146	3129.98
694.335	3046.01
694.524	3027.58
694.713	3037.82
694.902	2970.24
695.092	2996.86
695.281	3007.1
695.47	3099.26
695.659	3029.63
695.848	2945.66
696.037	3000.96
696.226	3031.68
696.415	3043.96
696.604	2988.67
696.793	2953.85
696.982	2888.32
697.171	2962.05
697.36	2900.61
697.549	2935.42
697.738	2984.57
697.927	2943.61
698.116	2894.46
698.305	2978.43
698.494	2953.85
698.683	2800.26
698.872	2925.18
699.061	2847.36
699.25	2945.66
699.438	2949.76
699.627	2855.55
699.816	3015.29
700.005	2865.79
700.193	2730.62
700.382	2822.78
700.571	2892.41
700.76	2779.78
700.948	2935.42
701.137	2998.91
701.326	2849.41
701.514	2796.16
701.703	2824.83
701.892	2921.09
702.08	2851.46
702.269	2892.41
702.457	2853.5
702.646	2851.46
702.834	2814.59
703.023	2820.74
703.212	2859.65
703.4	2849.41
703.589	2695.81
703.777	2843.26
703.965	2712.19
704.154	2724.48
704.342	2765.44
704.531	2802.3
704.719	2747.01
704.907	2802.3
705.096	2732.67
705.284	2802.3
705.472	2691.71
705.661	2886.27
705.849	2849.41
706.037	2849.41
706.226	2765.44
706.414	2853.5
706.602	2816.64
706.79	2859.65
706.979	2660.99
707.167	2919.04
707.355	2753.15
707.543	2605.7
707.731	2968.19
707.919	2830.98
708.107	2677.38
708.296	2892.41
708.484	2781.82
708.672	2691.71
708.86	2830.98
709.048	2804.35
709.236	2814.59
709.424	2796.16
709.612	2728.58
709.8	2740.86
709.988	2763.39
710.176	2757.25
710.364	2755.2
710.551	2785.92
710.739	2878.08
710.927	2792.06
711.115	2880.13
711.303	2753.15
711.491	2757.25
711.679	2738.82
711.866	2796.16
712.054	2759.3
712.242	2732.67
712.43	2818.69
712.617	2810.5
712.805	2718.34
712.993	2773.63
713.181	2620.03
713.368	2794.11
713.556	2781.82
713.744	2695.81
713.931	2732.67
714.119	2833.02
714.306	2914.94
714.494	2718.34
714.682	2763.39
714.869	2648.71
715.057	2783.87
715.244	2790.02
715.432	2724.48
715.619	2716.29
715.807	2783.87
715.994	2685.57
716.182	2663.04
716.369	2777.73
716.556	2761.34
716.744	2620.03
716.931	2708.1
717.119	2704
717.306	2728.58
717.493	2804.35
717.681	2658.95
717.868	2757.25
718.055	2722.43
718.242	2798.21
718.43	2814.59
718.617	2691.71
718.804	2658.95
718.991	2777.73
719.179	2667.14
719.366	2704
719.553	2744.96
719.74	2687.62
719.927	2710.15
720.114	2611.84
720.301	2712.19
720.488	2593.41
720.676	2671.23
720.863	2712.19
721.05	2646.66
721.237	2665.09
721.424	2679.43
721.611	2726.53
721.798	2507.4
721.985	2658.95
722.172	2613.89
722.358	2660.99
722.545	2620.03
722.732	2683.52
722.919	2650.75
723.106	2687.62
723.293	2607.75
723.48	2652.8
723.667	2699.91
723.853	2697.86
724.04	2579.08
724.227	2679.43
724.414	2634.37
724.6	2538.12
724.787	2730.62
724.974	2568.84
725.161	2415.24
725.347	2581.12
725.534	2646.66
725.72	2577.03
725.907	2704
726.094	2554.5
726.28	2484.87
726.467	2591.36
726.653	2654.85
726.84	2609.79
727.027	2560.64
727.213	2495.11
727.4	2570.88
727.586	2482.82
727.773	2488.96
727.959	2544.26
728.145	2452.1
728.332	2458.25
728.518	2605.7
728.705	2550.4
728.891	2488.96
729.077	2443.91
729.264	2497.16
729.45	2495.11
729.636	2433.67
729.823	2495.11
730.009	2515.59
730.195	2652.8
730.382	2482.82
730.568	2478.72
730.754	2499.2
730.94	2495.11
731.126	2538.12
731.313	2574.98
731.499	2419.33
731.685	2394.76
731.871	2372.23
732.057	2421.38
732.243	2531.97
732.429	2445.96
732.615	2474.63
732.801	2505.35
732.987	2495.11
733.173	2443.91
733.359	2431.62
733.545	2409.09
733.731	2441.86
733.917	2396.81
734.103	2390.66
734.289	2347.65
734.475	2345.61
734.661	2380.42
734.847	2445.96
735.033	2468.49
735.219	2321.03
735.404	2323.08
735.59	2361.99
735.776	2323.08
735.962	2415.24
736.148	2433.67
736.333	2476.68
736.519	2361.99
736.705	2450.05
736.89	2267.78
737.076	2441.86
737.262	2200.2
737.447	2237.06
737.633	2304.65
737.819	2165.39
738.004	2261.64
738.19	2245.26
738.375	2294.41
738.561	2243.21
738.747	2204.3
738.932	2284.17
739.118	2310.79
739.303	2241.16
739.489	2241.16
739.674	2216.58
739.859	2302.6
740.045	2212.49
740.23	2235.02
740.416	2149
740.601	2196.11
740.786	2110.09
740.972	2091.66
741.157	2210.44
741.342	2050.7
741.528	2181.77
741.713	2192.01
741.898	2085.51
742.084	2110.09
742.269	2024.08
742.454	2093.71
742.639	2222.73
742.824	2034.32
743.01	2167.43
743.195	2052.75
743.38	2003.6
743.565	2042.51
743.75	1958.54
743.935	2067.08
744.12	1983.12
744.305	1979.02
744.49	1968.78
744.675	1823.37
744.86	1970.83
745.045	1897.1
745.23	1983.12
745.415	1954.44
745.6	1958.54
745.785	1893.01
745.97	1833.61
746.155	1917.58
746.34	1917.58
746.525	1938.06
746.71	1917.58
746.895	1847.95
747.079	1757.84
747.264	1809.04
747.449	1929.87
747.634	1819.28
747.819	1743.5
748.003	1714.83
748.188	1766.03
748.373	1813.14
748.557	1790.61
748.742	1766.03
748.927	1716.88
749.111	1833.61
749.296	1745.55
749.481	1761.94
749.665	1757.84
749.85	1708.69
750.034	1731.22
750.219	1708.69
750.404	1698.45
750.588	1620.63
750.773	1569.43
750.957	1577.62
751.141	1516.18
751.326	1634.96
751.51	1493.65
751.695	1548.95
751.879	1610.39
752.064	1469.08
752.248	1569.43
752.432	1571.47
752.617	1411.73
752.801	1462.93
752.985	1499.8
753.17	1600.15
753.354	1553.04
753.538	1575.57
753.722	1393.3
753.907	1485.46
754.091	1344.15
754.275	1270.42
754.459	1413.78
754.643	1323.67
754.828	1360.53
755.012	1405.59
755.196	1409.69
755.38	1391.25
755.564	1352.34
755.748	1290.9
755.932	1417.88
756.116	1368.73
756.3	1231.51
756.484	1395.35
756.668	1311.38
756.852	1247.9
757.036	1346.2
757.22	1249.94
757.404	1292.95
757.588	1194.65
757.772	1243.8
757.956	1319.57
758.14	1196.7
758.323	1213.08
758.507	1278.62
758.691	1211.03
758.875	1102.49
759.059	1204.89
759.242	1143.45
759.426	1147.55
759.61	1151.64
759.794	1110.68
759.977	1200.79
760.161	1284.76
760.345	1221.27
760.528	1213.08
760.712	1174.17
760.895	1147.55
761.079	1108.63
761.263	1039
761.446	1088.15
761.63	1151.64
761.813	1075.87
761.997	1100.44
762.18	1041.05
762.364	983.71
762.547	971.42
762.731	1102.49
762.914	1118.87
763.098	1016.48
763.281	1059.48
763.464	1106.59
763.648	1129.11
763.831	991.9
764.015	985.76
764.198	1073.82
764.381	1010.33
764.564	981.66
764.748	996
764.931	975.52
765.114	961.18
765.297	1020.57
765.481	936.6
765.664	983.71
765.847	1028.76
766.03	998.04
766.213	907.93
766.397	934.56
766.58	963.23
766.763	975.52
766.946	959.13
767.129	891.55
767.312	979.61
767.495	965.28
767.678	944.8
767.861	1045.15
768.044	905.88
768.227	975.52
768.41	909.98
768.593	975.52
768.776	852.64
768.959	1045.15
769.142	946.84
769.324	897.69
769.507	952.99
769.69	901.79
769.873	746.14
770.056	1010.33
770.239	905.88
770.421	918.17
770.604	834.21
770.787	828.06
770.97	866.97
771.152	893.6
771.335	848.54
771.518	791.2
771.7	877.21
771.883	881.31
772.066	795.29
772.248	840.35
772.431	830.11
772.613	768.67
772.796	772.77
772.978	811.68
773.161	828.06
773.343	803.49
773.526	737.95
773.708	811.68
773.891	744.1
774.073	780.96
774.256	725.66
774.438	848.54
774.621	690.85
774.803	795.29
774.985	692.9
775.168	682.66
775.35	750.24
775.532	737.95
775.715	783.01
775.897	783.01
776.079	692.9
776.261	674.46
776.444	737.95
776.626	729.76
776.808	662.18
776.99	690.85
777.173	699.04
777.355	647.84
777.537	733.86
777.719	643.74
777.901	694.94
778.083	610.98
778.265	633.51
778.447	676.51
778.629	600.74
778.811	658.08
778.993	572.07
779.175	742.05
779.357	623.27
779.539	527.01
779.721	598.69
779.903	598.69
780.085	582.31
780.267	674.46
780.449	651.94
780.631	619.17
780.812	543.39
780.994	559.78
781.176	541.35
781.358	494.24
781.54	500.39
781.721	549.54
781.903	520.87
782.085	524.96
782.267	561.83
782.448	555.68
782.63	502.44
782.812	561.83
782.993	561.83
783.175	422.56
783.357	490.15
783.538	508.58
783.72	522.91
783.901	463.52
784.083	488.1
784.264	486.05
784.446	502.44
784.627	473.76
784.809	473.76
784.99	506.53
785.172	441
785.353	500.39
785.535	447.14
785.716	553.63
785.897	391.84
786.079	514.72
786.26	447.14
786.441	463.52
786.623	510.63
786.804	385.7
786.985	504.48
787.167	479.91
787.348	469.67
787.529	377.51
787.71	434.85
787.891	502.44
788.073	344.74
788.254	400.04
788.435	412.32
788.616	402.08
788.797	434.85
788.978	377.51
789.159	408.23
789.34	352.93
789.522	330.41
789.703	379.56
789.884	377.51
790.065	359.08
790.246	438.95
790.427	400.04
790.607	363.17
790.788	410.28
790.969	330.41
791.15	330.41
791.331	354.98
791.512	318.12
791.693	334.5
791.874	461.48
792.054	412.32
792.235	287.4
792.416	348.84
792.597	301.73
792.778	402.08
792.958	369.32
793.139	344.74
793.32	293.54
793.5	357.03
793.681	393.89
793.862	342.69
794.042	371.37
794.223	303.78
794.404	314.02
794.584	320.17
794.765	258.73
794.945	332.45
795.126	275.11
795.306	379.56
795.487	332.45
795.667	307.88
795.848	291.49
796.028	324.26
796.209	314.02
796.389	246.44
796.57	164.52
796.75	197.29
796.93	299.69
797.111	340.65
797.291	279.21
797.471	273.06
797.652	297.64
797.832	281.25
798.012	299.69
798.192	185
798.373	180.9
798.553	232.1
798.733	283.3
798.913	275.11
799.093	217.77
799.274	279.21
799.454	266.92
799.634	289.45
799.814	252.58
799.994	279.21
800.174	225.96
800.354	221.86
800.534	254.63
800.714	275.11
800.894	234.15
801.074	225.96
801.254	238.25
801.434	293.54
801.614	273.06
801.794	262.82
801.974	823.97
802.154	277.16
802.334	328.36
802.514	187.05
802.693	193.19
802.873	264.87
803.053	242.34
803.233	191.14
803.413	219.82
803.592	135.85
803.772	213.67
803.952	164.52
804.131	170.66
804.311	234.15
804.491	230.06
804.67	273.06
804.85	152.23
805.03	248.49
805.209	281.25
805.389	221.86
805.568	256.68
805.748	187.05
805.928	199.34
806.107	187.05
806.287	168.62
806.466	131.75
806.646	273.06
806.825	191.14
807.004	166.57
807.184	238.25
807.363	191.14
807.543	193.19
807.722	225.96
807.901	268.97
808.081	242.34
808.26	137.9
808.439	162.47
808.619	154.28
808.798	64.17
808.977	209.58
809.156	191.14
809.336	193.19
809.515	160.42
809.694	215.72
809.873	219.82
810.052	168.62
810.231	189.1
810.411	197.29
810.59	133.8
810.769	84.65
810.948	152.23
811.127	133.8
811.306	160.42
811.485	213.67
811.664	125.61
811.843	201.38
812.022	201.38
812.201	141.99
812.38	178.86
812.559	139.94
812.737	271.01
812.916	178.86
813.095	266.92
813.274	221.86
813.453	141.99
813.632	156.33
813.811	180.9
813.989	160.42
814.168	127.66
814.347	199.34
814.526	133.8
814.704	256.68
814.883	205.48
815.062	160.42
815.24	201.38
815.419	90.79
815.598	178.86
815.776	103.08
815.955	131.75
816.133	66.22
816.312	170.66
816.49	176.81
816.669	193.19
816.847	131.75
817.026	152.23
817.204	164.52
817.383	193.19
817.561	84.65
817.74	131.75
817.918	113.32
818.097	53.93
818.275	37.55
818.453	141.99
818.632	191.14
818.81	129.7
818.988	152.23
819.167	117.42
819.345	232.1
819.523	78.51
819.701	189.1
819.879	170.66
820.058	174.76
820.236	111.27
820.414	47.79
820.592	127.66
820.77	133.8
820.948	135.85
821.127	66.22
821.305	144.04
821.483	111.27
821.661	98.99
821.839	117.42
822.017	107.18
822.195	139.94
822.373	197.29
822.551	119.46
822.729	125.61
822.907	123.56
823.085	180.9
823.262	72.36
823.44	135.85
823.618	88.75
823.796	150.18
823.974	70.31
824.152	178.86
824.329	121.51
824.507	51.88
824.685	168.62
824.863	103.08
825.04	117.42
825.218	131.75
825.396	68.27
825.574	78.51
825.751	107.18
825.929	121.51
826.107	62.12
826.284	146.09
826.462	78.51
826.639	109.23
826.817	66.22
826.994	78.51
827.172	47.79
827.349	60.07
827.527	119.46
827.704	103.08
827.882	119.46
828.059	137.9
828.237	98.99
828.414	144.04
828.591	39.59
828.769	29.35
828.946	94.89
829.124	111.27
829.301	76.46
829.478	135.85
829.655	125.61
829.833	41.64
830.01	45.74
830.187	148.14
830.364	82.6
830.542	84.65
830.719	78.51
830.896	150.18
831.073	45.74
831.25	35.5
831.427	107.18
831.604	58.03
831.782	133.8
831.959	135.85
832.136	39.59
832.313	41.64
832.49	62.12
832.667	66.22
832.844	39.59
833.021	96.94
833.198	133.8
833.374	109.23
833.551	90.79
833.728	86.7
833.905	82.6
834.082	92.84
834.259	12.97
834.436	109.23
834.612	-7.51
834.789	152.23
834.966	123.56
835.143	62.12
835.319	-44.37
835.496	68.27
835.673	137.9
835.85	66.22
836.026	115.37
836.203	119.46
836.38	133.8
836.556	135.85
836.733	41.64
836.909	68.27
837.086	109.23
837.262	19.11
837.439	76.46
837.616	53.93
837.792	74.41
837.968	51.88
838.145	-11.61
838.321	78.51
838.498	96.94
838.674	111.27
838.851	70.31
839.027	43.69
839.203	64.17
839.38	25.26
839.556	98.99
839.732	111.27
839.909	4.78
840.085	107.18
840.261	33.45
840.437	31.4
840.614	78.51
840.79	45.74
840.966	70.31
841.142	72.36
841.318	53.93
841.494	19.11
841.671	29.35
841.847	107.18
842.023	21.16
842.199	47.79
842.375	111.27
842.551	31.4
842.727	70.31
842.903	90.79
843.079	41.64
843.255	103.08
843.431	88.75
843.607	90.79
843.783	-9.56
843.959	107.18
844.134	53.93
844.31	94.89
844.486	-11.61
844.662	66.22
844.838	68.27
845.013	72.36
845.189	12.97
845.365	58.03
845.541	68.27
845.716	0.68
845.892	55.98
846.068	37.55
846.244	19.11
846.419	88.75
846.595	29.35
846.77	98.99
846.946	4.78
847.122	70.31
847.297	37.55
847.473	33.45
847.648	86.7
847.824	4.78
847.999	-38.23
848.175	8.87
848.35	17.07
848.526	109.23
848.701	107.18
848.876	117.42
849.052	78.51
849.227	64.17
849.403	23.21
849.578	66.22
849.753	19.11
849.929	33.45
850.104	39.59
850.279	78.51
850.454	43.69
850.63	-21.84
850.805	72.36
850.98	8.87
851.155	12.97
851.33	94.89
851.505	41.64
851.681	64.17
851.856	21.16
852.031	41.64
852.206	15.02
852.381	43.69
852.556	8.87
852.731	37.55
852.906	96.94
853.081	47.79
853.256	45.74
853.431	21.16
853.606	-17.75
853.781	8.87
853.956	-46.42
854.131	60.07
854.305	12.97
854.48	31.4
854.655	60.07
854.83	94.89
855.005	45.74
855.18	90.79
855.354	17.07
855.529	17.07
855.704	41.64
855.879	109.23
856.053	-15.7
856.228	137.9
856.403	21.16
856.577	-13.65
856.752	8.87
856.926	33.45
857.101	37.55
857.276	25.26
857.45	15.02
857.625	72.36
857.799	33.45
857.974	152.23
858.148	15.02
858.323	51.88
858.497	58.03
858.672	27.31
858.846	53.93
859.02	33.45
859.195	45.74
859.369	33.45
859.543	-3.41
859.718	33.45
859.892	80.55
860.066	70.31
860.241	12.97
860.415	72.36
860.589	27.31
860.763	86.7
860.938	35.5
861.112	74.41
861.286	35.5
861.46	41.64
861.634	92.84
861.808	64.17
861.982	-5.46
862.157	72.36
862.331	-32.08
862.505	8.87
862.679	4.78
862.853	21.16
863.027	-52.56
863.201	25.26
863.375	74.41
863.549	58.03
863.722	47.79
863.896	27.31
864.07	33.45
864.244	76.46
864.418	-13.65
864.592	53.93
864.766	12.97
864.939	39.59
865.113	45.74
865.287	17.07
865.461	-3.41
865.634	4.78
865.808	98.99
865.982	39.59
866.156	64.17
866.329	17.07
866.503	15.02
866.676	133.8
866.85	55.98
867.024	-7.51
867.197	41.64
867.371	29.35
867.544	27.31
867.718	-15.7
867.891	35.5
868.065	33.45
868.238	25.26
868.412	39.59
868.585	-17.75
868.759	60.07
868.932	-97.62
869.105	-27.99
869.279	41.64
869.452	72.36
869.625	47.79
869.799	21.16
869.972	-7.51
870.145	70.31
870.319	-17.75
870.492	23.21
870.665	45.74
870.838	-27.99
871.011	12.97
871.185	12.97
871.358	6.83
871.531	15.02
871.704	37.55
871.877	35.5
872.05	35.5
872.223	66.22
872.396	21.16
872.569	29.35
872.742	39.59
872.915	27.31
873.088	4.78
873.261	25.26
873.434	8.87
873.607	31.4
873.78	-17.75
873.953	-13.65
874.126	29.35
874.299	6.83
874.471	8.87
874.644	74.41
874.817	47.79
874.99	43.69
875.163	15.02
875.335	41.64
875.508	-17.75
875.681	94.89
875.853	2.73
876.026	45.74
876.199	78.51
876.371	33.45
876.544	39.59
876.717	25.26
876.889	-1.37
877.062	25.26
877.234	-9.56
877.407	-27.99
877.579	-1.37
877.752	-75.09
877.924	64.17
878.097	53.93
878.269	45.74
878.442	43.69
878.614	-77.14
878.786	51.88
878.959	-38.23
879.131	-3.41
879.303	-13.65
879.476	10.92
879.648	-25.94
879.82	68.27
879.993	-36.18
880.165	58.03
880.337	-11.61
880.509	-19.8
880.681	47.79
880.854	-60.76
881.026	2.73
881.198	55.98
881.37	37.55
881.542	49.83
881.714	8.87
881.886	70.31
882.058	45.74
882.23	-36.18
882.402	55.98
882.574	47.79
882.746	-52.56
882.918	74.41
883.09	23.21
883.262	12.97
883.434	43.69
883.606	-64.85
883.778	-32.08
883.95	60.07
884.122	8.87
884.293	10.92
884.465	-60.76
884.637	53.93
884.809	-30.04
884.98	47.79
885.152	0.68
885.324	41.64
885.496	-21.84
885.667	58.03
885.839	29.35
886.011	6.83
886.182	8.87
886.354	-5.46
886.525	111.27
886.697	68.27
886.869	-9.56
887.04	-36.18
887.212	25.26
887.383	25.26
887.555	4.78
887.726	-11.61
887.897	-11.61
888.069	-11.61
888.24	-54.61
888.412	29.35
888.583	-159.06
888.754	51.88
888.926	-38.23
889.097	19.11
889.268	29.35
889.44	-27.99
889.611	-42.32
889.782	-19.8
889.953	17.07
890.125	12.97
890.296	53.93
890.467	-9.56
890.638	78.51
890.809	21.16
890.98	-58.71
891.151	37.55
891.323	27.31
891.494	-48.47
891.665	45.74
891.836	8.87
892.007	49.83
892.178	62.12
892.349	31.4
892.52	-3.41
892.691	37.55
892.862	-36.18
893.032	-56.66
893.203	-30.04
893.374	111.27
893.545	25.26
893.716	64.17
893.887	-25.94
894.057	33.45
894.228	-36.18
894.399	-7.51
894.57	25.26
894.74	-15.7
894.911	-34.13
895.082	-19.8
895.253	-19.8
895.423	10.92
895.594	-40.28
895.764	-56.66
895.935	-19.8
896.106	-11.61
896.276	-15.7
896.447	31.4
896.617	-32.08
896.788	6.83
896.958	66.22
897.129	-120.15
897.299	-44.37
897.47	41.64
897.64	21.16
897.81	-48.47
897.981	2.73
898.151	-32.08
898.322	-9.56
898.492	21.16
898.662	10.92
898.832	31.4
899.003	10.92
899.173	78.51
899.343	6.83
899.513	12.97
