Data from USB4F104151__15__10-21-04-832.txt Node

Date: Wed Mar 12 10:21:04 EDT 2025
User: louis
Spectrometer: USB4F10415
Trigger mode: 4
Integration Time (sec): 3.000000E-2
Scans to average: 1
Electric dark correction enabled: true
Nonlinearity correction enabled: false
Boxcar width: 0
XAxis mode: Wavelengths
Number of Pixels in Spectrum: 3648
>>>>>Begin Spectral Data<<<<<
178.204	-44.71
178.424	-44.71
178.644	-44.71
178.864	-65.19
179.084	-138.92
179.304	-46.76
179.524	0.34
179.744	43.35
179.964	41.3
180.184	61.78
180.404	-5.8
180.624	4.44
180.844	-32.43
181.064	-81.58
181.283	-30.38
181.503	55.64
181.723	-9.9
181.943	10.58
182.163	90.45
182.383	12.63
182.602	14.68
182.822	-9.9
183.042	45.4
183.262	51.54
183.482	22.87
183.701	-91.82
183.921	2.39
184.141	29.01
184.361	26.96
184.58	43.35
184.8	61.78
185.02	-30.38
185.239	33.11
185.459	45.4
185.679	49.49
185.898	-34.47
186.118	78.16
186.338	39.25
186.557	49.49
186.777	2.39
186.997	47.44
187.216	31.06
187.436	43.35
187.655	39.25
187.875	-38.57
188.095	-42.67
188.314	92.5
188.534	61.78
188.753	24.92
188.973	82.26
189.192	53.59
189.412	16.73
189.631	22.87
189.851	29.01
190.07	49.49
190.29	31.06
190.509	-13.99
190.729	51.54
190.948	80.21
191.168	80.21
191.387	26.96
191.607	2.39
191.826	10.58
192.045	39.25
192.265	74.07
192.484	10.58
192.704	37.2
192.923	-81.58
193.142	80.21
193.362	84.31
193.581	39.25
193.8	47.44
194.02	43.35
194.239	33.11
194.458	35.16
194.678	6.49
194.897	65.88
195.116	-3.75
195.335	37.2
195.555	10.58
195.774	-20.14
195.993	135.51
196.212	10.58
196.432	100.69
196.651	-44.71
196.87	-16.04
197.089	135.51
197.308	31.06
197.528	57.68
197.747	10.58
197.966	59.73
198.185	86.36
198.404	-18.09
198.623	2.39
198.842	57.68
199.062	43.35
199.281	10.58
199.5	29.01
199.719	26.96
199.938	43.35
200.157	55.64
200.376	22.87
200.595	39.25
200.814	49.49
201.033	65.88
201.252	69.97
201.471	84.31
201.69	82.26
201.909	-1.71
202.128	51.54
202.347	22.87
202.566	-5.8
202.785	8.53
203.004	-28.33
203.223	59.73
203.442	43.35
203.661	-52.91
203.879	20.82
204.098	69.97
204.317	12.63
204.536	69.97
204.755	-9.9
204.974	6.49
205.193	55.64
205.411	84.31
205.63	82.26
205.849	45.4
206.068	-22.19
206.287	39.25
206.505	61.78
206.724	-30.38
206.943	-3.75
207.162	31.06
207.381	24.92
207.599	18.77
207.818	22.87
208.037	-26.28
208.255	74.07
208.474	6.49
208.693	74.07
208.911	35.16
209.13	35.16
209.349	78.16
209.567	86.36
209.786	24.92
210.005	63.83
210.223	22.87
210.442	6.49
210.661	67.92
210.879	92.5
211.098	-50.86
211.316	26.96
211.535	2.39
211.753	-9.9
211.972	24.92
212.191	8.53
212.409	74.07
212.628	59.73
212.846	0.34
213.065	31.06
213.283	104.79
213.502	26.96
213.72	2.39
213.938	-5.8
214.157	2.39
214.375	14.68
214.594	112.98
214.812	108.88
215.031	35.16
215.249	-1.71
215.467	18.77
215.686	-38.57
215.904	92.5
216.122	18.77
216.341	12.63
216.559	108.88
216.778	61.78
216.996	102.74
217.214	-87.72
217.432	-22.19
217.651	49.49
217.869	8.53
218.087	31.06
218.306	69.97
218.524	59.73
218.742	41.3
218.96	45.4
219.179	39.25
219.397	55.64
219.615	49.49
219.833	20.82
220.051	18.77
220.27	12.63
220.488	37.2
220.706	78.16
220.924	74.07
221.142	49.49
221.36	35.16
221.578	-44.71
221.796	2.39
222.015	18.77
222.233	24.92
222.451	10.58
222.669	-9.9
222.887	10.58
223.105	24.92
223.323	98.64
223.541	51.54
223.759	10.58
223.977	37.2
224.195	35.16
224.413	100.69
224.631	69.97
224.849	18.77
225.067	31.06
225.285	14.68
225.503	45.4
225.721	-26.28
225.939	-26.28
226.157	80.21
226.375	178.51
226.592	10.58
226.81	59.73
227.028	10.58
227.246	51.54
227.464	74.07
227.682	-7.85
227.9	41.3
228.117	84.31
228.335	127.32
228.553	24.92
228.771	59.73
228.989	22.87
229.206	4.44
229.424	37.2
229.642	-24.23
229.86	31.06
230.077	31.06
230.295	51.54
230.513	92.5
230.731	41.3
230.948	-16.04
231.166	92.5
231.384	26.96
231.601	49.49
231.819	84.31
232.037	49.49
232.254	-18.09
232.472	45.4
232.689	-28.33
232.907	12.63
233.125	24.92
233.342	61.78
233.56	-48.81
233.777	-3.75
233.995	-16.04
234.213	43.35
234.43	92.5
234.648	24.92
234.865	63.83
235.083	41.3
235.3	57.68
235.518	96.6
235.735	53.59
235.953	133.46
236.17	-3.75
236.388	22.87
236.605	82.26
236.822	35.16
237.04	94.55
237.257	74.07
237.475	-9.9
237.692	26.96
237.909	51.54
238.127	35.16
238.344	108.88
238.562	121.17
238.779	29.01
238.996	39.25
239.214	41.3
239.431	12.63
239.648	-30.38
239.865	84.31
240.083	22.87
240.3	18.77
240.517	-7.85
240.735	39.25
240.952	74.07
241.169	74.07
241.386	18.77
241.603	49.49
241.821	-13.99
242.038	106.84
242.255	6.49
242.472	-42.67
242.689	59.73
242.907	8.53
243.124	39.25
243.341	59.73
243.558	-1.71
243.775	-89.77
243.992	39.25
244.209	35.16
244.426	35.16
244.643	96.6
244.86	16.73
245.078	49.49
245.295	10.58
245.512	55.64
245.729	-22.19
245.946	10.58
246.163	117.08
246.38	84.31
246.597	39.25
246.814	-28.33
247.031	-30.38
247.248	-30.38
247.464	0.34
247.681	53.59
247.898	82.26
248.115	37.2
248.332	16.73
248.549	80.21
248.766	88.4
248.983	74.07
249.2	88.4
249.417	59.73
249.633	59.73
249.85	45.4
250.067	53.59
250.284	12.63
250.501	39.25
250.717	121.17
250.934	69.97
251.151	26.96
251.368	47.44
251.585	35.16
251.801	51.54
252.018	65.88
252.235	18.77
252.451	33.11
252.668	20.82
252.885	108.88
253.102	57.68
253.318	26.96
253.535	-28.33
253.752	24.92
253.968	29.01
254.185	-9.9
254.401	-7.85
254.618	6.49
254.835	-5.8
255.051	76.12
255.268	67.92
255.484	84.31
255.701	33.11
255.917	2.39
256.134	-1.71
256.351	29.01
256.567	37.2
256.784	-28.33
257	41.3
257.217	82.26
257.433	10.58
257.65	31.06
257.866	84.31
258.082	39.25
258.299	57.68
258.515	35.16
258.732	18.77
258.948	43.35
259.165	35.16
259.381	80.21
259.597	61.78
259.814	49.49
260.03	49.49
260.246	31.06
260.463	51.54
260.679	35.16
260.895	51.54
261.112	35.16
261.328	18.77
261.544	82.26
261.761	133.46
261.977	53.59
262.193	-20.14
262.409	45.4
262.626	61.78
262.842	49.49
263.058	18.77
263.274	16.73
263.49	-22.19
263.707	141.65
263.923	127.32
264.139	-9.9
264.355	51.54
264.571	96.6
264.787	78.16
265.004	106.84
265.22	-30.38
265.436	26.96
265.652	39.25
265.868	78.16
266.084	-18.09
266.3	49.49
266.516	29.01
266.732	-7.85
266.948	-5.8
267.164	33.11
267.38	112.98
267.596	35.16
267.812	123.22
268.028	43.35
268.244	39.25
268.46	45.4
268.676	-7.85
268.892	-26.28
269.108	-61.1
269.324	2.39
269.54	-42.67
269.756	80.21
269.972	22.87
270.188	22.87
270.403	-40.62
270.619	88.4
270.835	10.58
271.051	2.39
271.267	-7.85
271.483	-1.71
271.698	-32.43
271.914	-16.04
272.13	84.31
272.346	39.25
272.562	82.26
272.777	43.35
272.993	14.68
273.209	47.44
273.425	104.79
273.64	-3.75
273.856	43.35
274.072	55.64
274.287	-40.62
274.503	10.58
274.719	78.16
274.934	47.44
275.15	-40.62
275.366	84.31
275.581	57.68
275.797	84.31
276.012	45.4
276.228	12.63
276.444	26.96
276.659	65.88
276.875	0.34
277.09	47.44
277.306	24.92
277.521	55.64
277.737	37.2
277.952	133.46
278.168	0.34
278.383	86.36
278.599	43.35
278.814	6.49
279.03	-5.8
279.245	100.69
279.461	4.44
279.676	80.21
279.892	-36.52
280.107	-48.81
280.322	45.4
280.538	76.12
280.753	-9.9
280.969	-40.62
281.184	74.07
281.399	16.73
281.615	125.27
281.83	53.59
282.045	2.39
282.26	78.16
282.476	84.31
282.691	-5.8
282.906	10.58
283.122	49.49
283.337	35.16
283.552	47.44
283.767	10.58
283.983	59.73
284.198	-22.19
284.413	-13.99
284.628	-22.19
284.843	49.49
285.058	33.11
285.274	51.54
285.489	-22.19
285.704	102.74
285.919	10.58
286.134	31.06
286.349	33.11
286.564	26.96
286.779	18.77
286.995	76.12
287.21	2.39
287.425	-5.8
287.64	-18.09
287.855	2.39
288.07	-20.14
288.285	45.4
288.5	121.17
288.715	67.92
288.93	41.3
289.145	-36.52
289.36	8.53
289.575	16.73
289.79	22.87
290.004	90.45
290.219	24.92
290.434	76.12
290.649	-48.81
290.864	41.3
291.079	-16.04
291.294	35.16
291.509	16.73
291.724	104.79
291.938	10.58
292.153	37.2
292.368	67.92
292.583	41.3
292.798	125.27
293.012	90.45
293.227	69.97
293.442	57.68
293.657	76.12
293.871	151.89
294.086	-54.95
294.301	84.31
294.516	63.83
294.73	63.83
294.945	35.16
295.16	22.87
295.374	43.35
295.589	59.73
295.804	2.39
296.018	-36.52
296.233	108.88
296.447	98.64
296.662	-16.04
296.877	29.01
297.091	88.4
297.306	22.87
297.52	39.25
297.735	-9.9
297.949	49.49
298.164	-42.67
298.378	14.68
298.593	72.02
298.807	12.63
299.022	94.55
299.236	90.45
299.451	51.54
299.665	39.25
299.88	22.87
300.094	49.49
300.309	-3.75
300.523	4.44
300.737	80.21
300.952	-40.62
301.166	22.87
301.381	26.96
301.595	39.25
301.809	10.58
302.024	-79.53
302.238	26.96
302.452	12.63
302.667	24.92
302.881	26.96
303.095	47.44
303.309	26.96
303.524	88.4
303.738	31.06
303.952	-42.67
304.166	29.01
304.381	49.49
304.595	155.99
304.809	6.49
305.023	59.73
305.237	2.39
305.452	4.44
305.666	53.59
305.88	-13.99
306.094	-5.8
306.308	8.53
306.522	80.21
306.736	147.8
306.95	88.4
307.164	49.49
307.379	96.6
307.593	59.73
307.807	43.35
308.021	90.45
308.235	82.26
308.449	16.73
308.663	43.35
308.877	141.65
309.091	-1.71
309.305	86.36
309.519	2.39
309.733	26.96
309.947	14.68
310.161	137.56
310.374	57.68
310.588	31.06
310.802	39.25
311.016	-1.71
311.23	31.06
311.444	2.39
311.658	47.44
311.872	47.44
312.085	18.77
312.299	35.16
312.513	37.2
312.727	65.88
312.941	-13.99
313.154	31.06
313.368	22.87
313.582	33.11
313.796	10.58
314.009	0.34
314.223	92.5
314.437	-5.8
314.651	22.87
314.864	115.03
315.078	-9.9
315.292	16.73
315.505	-67.24
315.719	0.34
315.933	41.3
316.146	-5.8
316.36	33.11
316.573	82.26
316.787	72.02
317.001	65.88
317.214	-54.95
317.428	147.8
317.641	-30.38
317.855	45.4
318.068	0.34
318.282	57.68
318.495	47.44
318.709	8.53
318.922	74.07
319.136	121.17
319.349	29.01
319.563	-11.95
319.776	49.49
319.99	59.73
320.203	67.92
320.417	35.16
320.63	35.16
320.843	59.73
321.057	65.88
321.27	-26.28
321.483	51.54
321.697	59.73
321.91	100.69
322.124	67.92
322.337	98.64
322.55	-5.8
322.763	82.26
322.977	29.01
323.19	8.53
323.403	26.96
323.617	158.03
323.83	76.12
324.043	39.25
324.256	102.74
324.469	39.25
324.683	35.16
324.896	18.77
325.109	59.73
325.322	-18.09
325.535	180.56
325.748	80.21
325.962	8.53
326.175	-5.8
326.388	-9.9
326.601	92.5
326.814	0.34
327.027	55.64
327.24	35.16
327.453	51.54
327.666	47.44
327.879	108.88
328.092	-7.85
328.305	72.02
328.518	4.44
328.731	10.58
328.944	-7.85
329.157	22.87
329.37	84.31
329.583	102.74
329.796	59.73
330.009	-18.09
330.222	-26.28
330.435	41.3
330.648	108.88
330.861	37.2
331.073	39.25
331.286	43.35
331.499	12.63
331.712	6.49
331.925	10.58
332.138	67.92
332.35	117.08
332.563	4.44
332.776	39.25
332.989	16.73
333.202	43.35
333.414	6.49
333.627	4.44
333.84	76.12
334.053	115.03
334.265	37.2
334.478	45.4
334.691	55.64
334.903	59.73
335.116	6.49
335.329	47.44
335.541	98.64
335.754	72.02
335.966	22.87
336.179	31.06
336.392	104.79
336.604	86.36
336.817	61.78
337.029	100.69
337.242	6.49
337.454	14.68
337.667	6.49
337.88	82.26
338.092	82.26
338.305	2.39
338.517	55.64
338.729	24.92
338.942	104.79
339.154	84.31
339.367	31.06
339.579	47.44
339.792	51.54
340.004	96.6
340.217	76.12
340.429	-5.8
340.641	-7.85
340.854	43.35
341.066	14.68
341.278	78.16
341.491	102.74
341.703	127.32
341.915	-22.19
342.128	102.74
342.34	6.49
342.552	57.68
342.764	39.25
342.977	43.35
343.189	41.3
343.401	26.96
343.613	35.16
343.826	86.36
344.038	2.39
344.25	18.77
344.462	-9.9
344.674	47.44
344.886	35.16
345.099	63.83
345.311	35.16
345.523	55.64
345.735	49.49
345.947	67.92
346.159	53.59
346.371	18.77
346.583	67.92
346.795	170.32
347.007	-79.53
347.219	76.12
347.431	47.44
347.643	86.36
347.855	55.64
348.067	-11.95
348.279	10.58
348.491	90.45
348.703	43.35
348.915	76.12
349.127	49.49
349.339	10.58
349.551	-32.43
349.763	67.92
349.975	0.34
350.187	94.55
350.399	123.22
350.61	16.73
350.822	-7.85
351.034	65.88
351.246	84.31
351.458	0.34
351.669	10.58
351.881	69.97
352.093	2.39
352.305	37.2
352.517	96.6
352.728	151.89
352.94	72.02
353.152	45.4
353.363	-16.04
353.575	145.75
353.787	12.63
353.999	84.31
354.21	115.03
354.422	88.4
354.633	72.02
354.845	22.87
355.057	76.12
355.268	69.97
355.48	76.12
355.692	67.92
355.903	67.92
356.115	59.73
356.326	31.06
356.538	102.74
356.749	49.49
356.961	76.12
357.172	14.68
357.384	65.88
357.595	125.27
357.807	-18.09
358.018	-3.75
358.23	12.63
358.441	108.88
358.653	55.64
358.864	33.11
359.075	69.97
359.287	14.68
359.498	37.2
359.709	59.73
359.921	67.92
360.132	82.26
360.344	69.97
360.555	43.35
360.766	51.54
360.977	45.4
361.189	96.6
361.4	16.73
361.611	-1.71
361.823	10.58
362.034	0.34
362.245	20.82
362.456	63.83
362.667	49.49
362.879	49.49
363.09	72.02
363.301	31.06
363.512	72.02
363.723	8.53
363.935	2.39
364.146	90.45
364.357	47.44
364.568	121.17
364.779	115.03
364.99	51.54
365.201	31.06
365.412	92.5
365.623	-52.91
365.834	94.55
366.045	39.25
366.256	76.12
366.467	59.73
366.678	49.49
366.889	6.49
367.1	-42.67
367.311	82.26
367.522	-22.19
367.733	96.6
367.944	84.31
368.155	90.45
368.366	6.49
368.577	133.46
368.788	98.64
368.999	8.53
369.209	31.06
369.42	151.89
369.631	67.92
369.842	100.69
370.053	14.68
370.264	35.16
370.474	-26.28
370.685	59.73
370.896	49.49
371.107	88.4
371.317	78.16
371.528	-26.28
371.739	133.46
371.95	-11.95
372.16	115.03
372.371	18.77
372.582	43.35
372.792	86.36
373.003	51.54
373.214	43.35
373.424	69.97
373.635	24.92
373.846	61.78
374.056	43.35
374.267	35.16
374.477	31.06
374.688	22.87
374.898	92.5
375.109	108.88
375.319	35.16
375.53	98.64
375.74	41.3
375.951	115.03
376.161	84.31
376.372	69.97
376.582	45.4
376.793	72.02
377.003	-79.53
377.214	108.88
377.424	45.4
377.635	55.64
377.845	45.4
378.055	43.35
378.266	-11.95
378.476	33.11
378.686	110.93
378.897	112.98
379.107	49.49
379.317	94.55
379.528	8.53
379.738	80.21
379.948	24.92
380.158	8.53
380.369	20.82
380.579	67.92
380.789	-30.38
380.999	43.35
381.21	22.87
381.42	80.21
381.63	31.06
381.84	90.45
382.05	100.69
382.261	45.4
382.471	72.02
382.681	84.31
382.891	49.49
383.101	57.68
383.311	16.73
383.521	72.02
383.731	29.01
383.941	125.27
384.151	2.39
384.361	18.77
384.571	41.3
384.781	45.4
384.991	37.2
385.201	8.53
385.411	102.74
385.621	137.56
385.831	100.69
386.041	26.96
386.251	115.03
386.461	129.36
386.671	76.12
386.881	112.98
387.091	12.63
387.301	164.18
387.511	86.36
387.72	96.6
387.93	39.25
388.14	14.68
388.35	112.98
388.56	72.02
388.769	67.92
388.979	82.26
389.189	26.96
389.399	57.68
389.609	49.49
389.818	67.92
390.028	63.83
390.238	63.83
390.447	33.11
390.657	121.17
390.867	35.16
391.076	84.31
391.286	80.21
391.496	76.12
391.705	133.46
391.915	172.37
392.125	96.6
392.334	67.92
392.544	57.68
392.753	112.98
392.963	35.16
393.172	155.99
393.382	16.73
393.591	92.5
393.801	51.54
394.01	104.79
394.22	133.46
394.429	108.88
394.639	117.08
394.848	61.78
395.058	151.89
395.267	96.6
395.477	96.6
395.686	51.54
395.895	186.71
396.105	106.84
396.314	121.17
396.524	100.69
396.733	57.68
396.942	84.31
397.152	121.17
397.361	82.26
397.57	108.88
397.78	123.22
397.989	125.27
398.198	160.08
398.407	115.03
398.617	47.44
398.826	112.98
399.035	67.92
399.244	47.44
399.453	203.09
399.663	94.55
399.872	108.88
400.081	147.8
400.29	108.88
400.499	141.65
400.708	133.46
400.917	135.51
401.127	102.74
401.336	43.35
401.545	76.12
401.754	158.03
401.963	10.58
402.172	100.69
402.381	84.31
402.59	127.32
402.799	143.7
403.008	117.08
403.217	14.68
403.426	141.65
403.635	72.02
403.844	225.62
404.053	149.84
404.262	149.84
404.471	192.85
404.68	141.65
404.888	76.12
405.097	100.69
405.306	74.07
405.515	207.19
405.724	133.46
405.933	237.91
406.142	174.42
406.35	217.43
406.559	112.98
406.768	172.37
406.977	223.57
407.185	207.19
407.394	164.18
407.603	158.03
407.812	182.61
408.02	321.87
408.229	239.95
408.438	198.99
408.646	231.76
408.855	260.43
409.064	280.91
409.272	321.87
409.481	270.67
409.69	285.01
409.898	305.49
410.107	385.36
410.315	368.98
410.524	387.41
410.733	416.08
410.941	358.74
411.15	330.06
411.358	311.63
411.567	399.7
411.775	436.56
411.984	422.22
412.192	450.89
412.401	444.75
412.609	446.8
412.818	534.86
413.026	514.38
413.234	504.14
413.443	549.2
413.651	545.1
413.86	565.58
414.068	608.59
414.276	674.12
414.485	629.07
414.693	690.51
414.901	731.47
415.11	825.67
415.318	725.32
415.526	768.33
415.734	862.54
415.943	733.51
416.151	772.43
416.359	813.38
416.567	907.59
416.776	944.45
416.984	1061.19
417.192	1005.89
417.4	981.32
417.608	1028.42
417.817	1126.72
418.025	1063.24
418.233	1210.69
418.441	1106.24
418.649	1253.7
418.857	1257.79
419.065	1327.43
419.273	1388.86
419.481	1327.43
419.689	1517.89
419.897	1564.99
420.105	1579.33
420.313	1591.61
420.521	1702.2
420.729	1706.3
420.937	1806.65
421.145	1845.56
421.353	1941.82
421.561	1945.91
421.769	2095.41
421.977	2044.21
422.185	2165.04
422.393	2236.72
422.601	2316.59
422.809	2244.92
423.017	2378.03
423.224	2525.49
423.432	2507.06
423.64	2496.82
423.848	2754.86
424.056	2718
424.263	2918.7
424.471	2951.46
424.679	2967.85
424.887	3242.28
425.094	3340.58
425.302	3268.9
425.51	3334.43
425.718	3569.95
425.925	3641.63
426.133	3621.15
426.341	3932.44
426.548	4051.22
426.756	3975.45
426.964	4184.34
427.171	4159.77
427.379	4387.09
427.586	4485.39
427.794	4516.11
428.001	4917.51
428.209	4987.15
428.417	4997.39
428.624	5327.11
428.832	5476.61
429.039	5288.2
429.247	5316.87
429.454	5730.56
429.662	6205.69
429.869	5832.96
430.076	6387.96
430.284	5910.78
430.491	6381.81
430.699	6590.7
430.906	6746.35
431.114	6760.69
431.321	6930.67
431.528	7063.79
431.736	7661.79
431.943	7780.57
432.15	7786.72
432.358	7766.24
432.565	8089.82
432.772	8136.92
432.979	8722.64
433.187	8820.94
433.394	8820.94
433.601	9410.76
433.808	9210.06
434.016	9533.64
434.223	9750.72
434.43	10340.54
434.637	10227.9
434.844	10651.83
435.052	10870.96
435.259	10633.4
435.466	10850.48
435.673	10821.81
435.88	11538.6
436.087	11983.01
436.294	12265.63
436.501	11727.01
436.708	12247.19
436.915	12443.8
437.122	13183.12
437.329	12877.97
437.537	13361.29
437.743	13451.4
437.95	13570.18
438.157	14241.92
438.364	14649.46
438.571	14778.48
438.778	14643.32
438.985	16126.05
439.192	15358.06
439.399	15919.2
439.606	15517.8
439.813	16552.02
440.02	17610.82
440.227	17221.71
440.433	16855.12
440.64	17645.64
440.847	17649.74
441.054	17866.82
441.261	18884.66
441.467	18681.91
441.674	19429.42
441.881	19941.41
442.088	19525.68
442.294	19529.77
442.501	20166.69
442.708	20619.29
442.914	21477.39
443.121	21995.53
443.328	21569.55
443.534	22943.74
443.741	22048.77
443.948	22302.72
444.154	23767.02
444.361	23525.36
444.568	23920.62
444.774	23689.2
444.981	24086.5
445.187	24551.39
445.394	26052.55
445.6	25536.46
445.807	27670.45
446.013	26355.65
446.22	27045.82
446.426	28340.13
446.633	28397.48
446.839	29323.16
447.046	28022.7
447.252	29749.14
447.459	29513.62
447.665	29235.1
447.871	30773.12
448.078	32014.19
448.284	30476.16
448.491	31391.61
448.697	32403.3
448.903	33220.44
449.11	33111.9
449.316	32548.71
449.522	32757.6
449.728	33789.78
449.935	34504.52
450.141	34111.31
450.347	34846.53
450.553	34051.92
450.76	33941.33
450.966	35262.27
451.172	34631.49
451.378	35499.83
451.584	34924.35
451.791	35768.12
451.997	35319.61
452.203	36327.21
452.409	36030.26
452.615	35637.05
452.821	34516.81
453.027	34107.21
453.233	36097.84
453.44	34269
453.646	34881.35
453.852	34725.7
454.058	35544.89
454.264	34250.57
454.47	34836.29
454.676	34113.36
454.882	35217.21
455.088	32264.04
455.294	32692.07
455.5	32862.05
455.705	33148.76
455.911	32089.96
456.117	31113.08
456.323	30936.96
456.529	29435.8
456.735	30609.28
456.941	29644.69
457.147	28876.7
457.352	28143.53
457.558	27924.4
457.764	28194.73
457.97	27242.42
458.176	26728.38
458.381	26601.41
458.587	25370.58
458.793	25587.66
458.999	24227.81
459.204	25907.15
459.41	25069.53
459.616	23611.37
459.821	23607.28
460.027	23443.44
460.233	22722.55
460.438	21841.93
460.644	22056.96
460.85	20928.53
461.055	20762.65
461.261	20535.32
461.466	19064.88
461.672	18620.47
461.878	20105.25
462.083	18556.99
462.289	18116.67
462.494	18036.8
462.7	17389.64
462.905	16994.39
463.111	17432.65
463.316	17225.81
463.522	17033.3
463.727	17184.85
463.932	17154.13
464.138	17004.63
464.343	16887.89
464.549	16476.25
464.754	16961.62
464.959	17100.88
465.165	16984.15
465.37	16181.34
465.575	15767.65
465.781	16191.58
465.986	16425.05
466.191	15552.62
466.397	15720.55
466.602	14780.53
466.807	15282.28
467.012	15247.47
467.218	15249.52
467.423	15134.83
467.628	15220.85
467.833	15622.25
468.038	15063.15
468.244	14569.59
468.449	15183.98
468.654	14825.59
468.859	14393.47
469.064	14463.1
469.269	13940.86
469.474	14000.26
469.679	14362.75
469.885	13850.75
470.09	13932.67
470.295	14016.64
470.5	13488.26
470.705	13592.71
470.91	13359.24
471.115	13088.91
471.32	13580.42
471.525	13666.44
471.73	12984.46
471.935	13027.47
472.139	12644.5
472.344	12826.77
472.549	12759.19
472.754	12599.45
472.959	12247.19
473.164	11862.18
473.369	11755.68
473.574	12171.42
473.778	12122.27
473.983	11927.71
474.188	12023.97
474.393	11522.21
474.598	11516.07
474.802	11356.33
475.007	11471.01
475.212	11217.07
475.417	10965.17
475.621	10864.82
475.826	10905.77
476.031	10875.06
476.235	10479.8
476.44	10635.44
476.645	10377.4
476.849	10465.46
477.054	10213.56
477.259	10223.8
477.463	10303.67
477.668	10039.48
477.872	10152.12
478.077	9945.28
478.282	9636.03
478.486	9869.5
478.691	9504.96
478.895	9601.22
479.1	9636.03
479.304	9674.95
479.509	9140.43
479.713	9531.59
479.918	9349.32
480.122	9066.7
480.326	9302.22
480.531	9019.6
480.735	9205.96
480.94	8937.68
481.144	9238.73
481.348	8771.79
481.553	8870.09
481.757	8886.48
481.961	8976.59
482.166	9048.27
482.37	9056.46
482.574	9017.55
482.778	8882.38
482.983	8962.25
483.187	8941.77
483.391	8849.61
483.595	8810.7
483.8	8591.57
484.004	8882.38
484.208	8978.64
484.412	8857.81
484.616	9109.71
484.821	8931.53
485.025	8478.93
485.229	8829.13
485.433	8710.35
485.637	8677.58
485.841	8790.22
486.045	8640.72
486.249	8716.5
486.453	8575.19
486.657	8849.61
486.861	8849.61
487.065	8675.54
487.269	8796.37
487.473	8782.03
487.677	8849.61
487.881	8876.24
488.085	8775.89
488.289	8880.33
488.493	8765.65
488.697	8790.22
488.901	9027.79
489.105	8724.69
489.309	8743.12
489.512	8956.11
489.716	8972.49
489.92	8898.77
490.124	8870.09
490.328	9035.98
490.531	9005.26
490.735	8945.87
490.939	9054.41
491.143	9025.74
491.346	8988.88
491.55	9361.61
491.754	9142.47
491.958	9267.4
492.161	9154.76
492.365	9291.98
492.569	9314.5
492.772	9369.8
492.976	9382.09
493.18	9486.53
493.383	9607.36
493.587	9519.3
493.79	9781.44
493.994	9654.47
494.197	9693.38
494.401	9935.04
494.605	9867.45
494.808	10047.68
495.012	9840.83
495.215	10096.83
495.419	10164.41
495.622	10098.88
495.825	10422.45
496.029	10410.17
496.232	10524.85
496.436	10369.21
496.639	10991.79
496.843	10731.7
497.046	10807.47
497.249	10981.55
497.453	11057.32
497.656	11024.56
497.859	11249.83
498.063	11139.24
498.266	11528.36
498.469	11411.62
498.673	11559.08
498.876	11700.39
499.079	11917.47
499.282	11942.05
499.485	12279.96
499.689	12062.88
499.892	12585.11
500.095	12519.57
500.298	12966.03
500.501	12656.79
500.705	12951.7
500.908	13037.71
501.111	13258.89
501.314	13426.82
501.517	13643.91
501.72	13817.99
501.923	13580.42
502.126	13850.75
502.329	14239.87
502.532	14403.71
502.735	14164.09
502.938	14733.43
503.141	14768.24
503.344	14954.61
503.547	14850.16
503.75	15206.51
503.953	15612.01
504.156	15497.32
504.359	15450.22
504.562	15601.77
504.765	15982.69
504.968	16128.1
505.17	16404.57
505.373	16250.97
505.576	16980.05
505.779	16922.71
505.982	17047.63
506.185	17340.49
506.387	17643.59
506.59	17627.21
506.793	17764.42
506.996	17909.83
507.198	18505.79
507.401	18270.27
507.604	18460.73
507.807	18901.04
508.009	18982.96
508.212	19120.18
508.415	19445.8
508.617	19798.06
508.82	19566.63
509.022	19376.17
509.225	20224.03
509.428	20342.81
509.63	20564
509.833	20553.76
510.035	21141.52
510.238	21135.38
510.44	21159.95
510.643	21839.88
510.845	21563.4
511.048	21762.06
511.25	21917.7
511.453	22353.92
511.655	23113.72
511.858	22704.12
512.06	22886.39
512.262	23035.89
512.465	23220.21
512.667	23318.51
512.87	23650.28
513.072	23900.14
513.274	24502.24
513.477	24537.05
513.679	24723.42
513.881	24795.1
514.084	25313.24
514.286	25466.83
514.488	25788.36
514.69	26228.68
514.893	26322.88
515.095	26210.25
515.297	26648.51
515.499	26740.67
515.701	26937.27
515.904	27396.02
516.106	27549.62
516.308	27815.85
516.51	27967.4
516.712	28241.83
516.914	28741.53
517.116	29009.82
517.318	28829.6
517.52	29249.43
517.722	29265.81
517.925	29919.12
518.127	30093.19
518.329	30027.66
518.531	30472.07
518.733	30912.38
518.935	31266.68
519.136	31156.09
519.338	31831.92
519.54	31717.23
519.742	32388.97
519.944	32028.52
520.146	32550.76
520.348	32743.27
520.55	32816.99
520.752	33222.49
520.954	33959.76
521.155	33664.85
521.357	34172.75
521.559	34355.02
521.761	34705.22
521.963	34516.81
522.164	34963.26
522.366	35290.94
522.568	35641.14
522.77	35626.81
522.971	36183.85
523.173	35684.15
523.375	36286.25
523.576	36640.55
523.778	36327.21
523.98	37320.48
524.181	37293.85
524.383	37488.41
524.584	37711.64
524.786	37728.02
524.988	37695.25
525.189	38493.96
525.391	38563.59
525.592	38858.5
525.794	38899.46
525.995	38375.18
526.197	39032.58
526.398	38975.23
526.6	39792.37
526.801	39407.36
527.003	40056.56
527.204	39784.18
527.406	40138.48
527.607	40169.2
527.808	40439.53
528.01	39816.95
528.211	40210.16
528.412	41035.49
528.614	41053.92
528.815	41195.23
529.016	41334.49
529.218	41189.09
529.419	41119.46
529.62	41514.72
529.822	41322.21
530.023	41443.04
530.224	41369.31
530.425	41666.27
530.626	41195.23
530.828	41783
531.029	42618.57
531.23	42102.48
531.431	42198.74
531.632	42362.57
531.833	42364.62
532.035	42735.31
532.236	42059.48
532.437	42467.02
532.638	42524.36
532.839	42417.87
533.04	42708.68
533.241	42163.92
533.442	43294.4
533.643	42757.83
533.844	42612.43
534.045	42858.18
534.246	42606.28
534.447	42794.7
534.648	42864.33
534.849	43085.51
535.05	42448.59
535.251	42733.26
535.451	42755.78
535.652	42761.93
535.853	43060.93
536.054	42852.04
536.255	42987.21
536.456	43134.66
536.657	43122.37
536.857	43249.35
537.058	42776.26
537.259	43359.94
537.46	43341.5
537.66	42692.3
537.861	43267.78
538.062	43355.84
538.263	43261.63
538.463	43044.55
538.664	43040.45
538.865	43314.88
539.065	43167.43
539.266	42790.6
539.466	43595.45
539.667	42460.88
539.868	43767.48
540.068	43511.49
540.269	42761.93
540.469	43183.81
540.67	42710.73
540.87	42897.09
541.071	43056.84
541.271	43228.87
541.472	42663.63
541.672	43118.28
541.873	42512.08
542.073	42352.34
542.274	43192
542.474	43304.64
542.675	42927.81
542.875	43427.52
543.075	42925.77
543.276	42561.23
543.476	43105.99
543.676	42667.72
543.877	43077.32
544.077	42970.82
544.277	42692.3
544.478	42895.05
544.678	42890.95
544.878	42974.92
545.078	43075.27
545.279	42544.84
545.479	42946.25
545.679	43071.17
545.879	43192
546.079	43069.12
546.28	42901.19
546.48	42462.93
546.68	43087.56
546.88	43282.11
547.08	42929.86
547.28	42790.6
547.48	42272.46
547.68	42938.05
547.88	42792.65
548.081	42540.75
548.281	42852.04
548.481	43028.16
548.681	43441.85
548.881	42757.83
549.081	43005.64
549.28	42421.97
549.48	42976.97
549.68	42962.63
549.88	43216.58
550.08	42520.27
550.28	42671.82
550.48	43019.97
550.68	43419.33
550.88	41963.22
551.08	42882.76
551.279	42587.85
551.479	42553.04
551.679	42647.24
551.879	42389.2
552.079	42450.64
552.278	42526.41
552.478	42897.09
552.678	42604.24
552.878	42716.87
553.077	42292.94
553.277	42112.72
553.477	43142.85
553.676	42385.1
553.876	42753.74
554.076	41711.32
554.275	41934.55
554.475	41875.16
554.674	42071.76
554.874	42012.37
555.074	42211.03
555.273	42620.62
555.473	42522.32
555.672	41854.68
555.872	42184.4
556.071	42030.8
556.271	42464.97
556.47	41785.05
556.67	41676.51
556.869	41567.96
557.068	42106.58
557.268	41445.08
557.467	41926.36
557.667	41674.46
557.866	41811.67
558.065	41467.61
558.265	41334.49
558.464	41621.21
558.663	41676.51
558.863	41015.01
559.062	41760.47
559.261	40777.45
559.461	41520.86
559.66	40959.72
559.859	40799.97
560.058	41004.77
560.258	41197.28
560.457	40161.01
560.656	41193.18
560.855	40478.44
561.054	40761.06
561.253	40754.92
561.453	40423.15
561.652	40783.59
561.851	40734.44
562.05	40179.44
562.249	39952.12
562.448	40050.42
562.647	40185.58
562.846	39921.4
563.045	40320.75
563.244	39804.66
563.443	40330.99
563.642	39333.63
563.841	39442.17
564.04	39341.82
564.239	39706.36
564.438	39528.19
564.637	39360.25
564.836	39243.52
565.035	38790.92
565.234	39241.47
565.432	38840.07
565.631	38764.29
565.83	38360.84
566.029	38596.36
566.228	38801.16
566.427	38366.99
566.625	38088.46
566.824	37922.58
567.023	38338.32
567.222	37934.87
567.42	38590.22
567.619	38123.28
567.818	38002.45
568.016	37486.36
568.215	37869.33
568.414	37887.76
568.612	38139.66
568.811	37181.21
569.01	37607.19
569.208	37113.63
569.407	37224.22
569.605	37009.18
569.804	37285.66
570.002	36867.87
570.201	36888.35
570.4	36816.68
570.598	36339.5
570.797	36255.53
570.995	36288.3
571.193	36169.52
571.392	36534.06
571.59	36089.65
571.789	35987.25
571.987	35729.2
572.186	36073.26
572.384	35594.04
572.582	35860.27
572.781	35788.6
572.979	35364.67
573.177	35671.86
573.376	35557.17
573.574	35006.27
573.772	35311.42
573.971	34916.16
574.169	34946.88
574.367	34744.13
574.565	35243.84
574.763	34819.91
574.962	34729.8
575.16	34299.72
575.358	34565.96
575.556	33982.29
575.754	34443.08
575.952	34004.81
576.151	34281.29
576.349	34168.65
576.547	33843.02
576.745	33871.7
576.943	33826.64
577.141	33478.49
577.339	33599.32
577.537	33341.27
577.735	33298.27
577.933	33036.13
578.131	33218.39
578.329	33058.65
578.527	33005.41
578.725	33097.56
578.923	33083.23
579.121	32673.63
579.319	32733.03
579.516	32561
579.714	32870.24
579.912	32671.59
580.11	32450.41
580.308	32520.04
580.506	32331.62
580.704	31723.38
580.901	32300.9
581.099	32302.95
581.297	31772.53
581.495	31573.88
581.692	31678.32
581.89	31420.28
582.088	31975.28
582.285	31166.33
582.483	31766.38
582.681	31510.39
582.878	31039.36
583.076	30824.32
583.274	31328.12
583.471	30867.33
583.669	31037.31
583.866	30752.64
584.064	30668.67
584.262	30531.46
584.459	30812.03
584.657	30537.6
584.854	30721.92
585.052	30162.83
585.249	30306.18
585.447	30388.1
585.644	29988.75
585.841	30400.39
586.039	30064.52
586.236	29519.76
586.434	29605.78
586.631	29607.83
586.828	29558.67
587.026	29251.48
587.223	29353.88
587.42	29157.27
587.618	29675.41
587.815	28796.83
588.012	29058.97
588.21	29142.94
588.407	29124.5
588.604	28993.43
588.801	29136.79
588.999	28659.62
589.196	28843.93
589.393	28921.76
589.59	28448.68
589.787	28542.88
589.984	28338.08
590.182	27891.63
590.379	27987.88
590.576	28219.3
590.773	27961.26
590.97	27946.92
591.167	27928.49
591.364	28020.65
591.561	27557.81
591.758	27361.2
591.955	27183.03
592.152	27396.02
592.349	27469.75
592.546	27332.53
592.743	27457.46
592.94	26832.83
593.137	27060.15
593.334	27248.57
593.531	26689.47
593.727	26748.86
593.924	26767.29
594.121	26316.74
594.318	26630.08
594.515	26247.11
594.712	26814.4
594.908	26408.9
595.105	26619.84
595.302	26009.54
595.499	26036.17
595.696	26144.71
595.892	25636.81
596.089	25872.33
596.286	26161.09
596.482	25776.08
596.679	25552.85
596.876	25825.23
597.072	25524.18
597.269	25126.87
597.466	25450.45
597.662	25221.08
597.859	25010.14
598.055	25556.94
598.252	24901.59
598.448	24967.13
598.645	24883.16
598.841	24489.95
599.038	24731.61
599.234	25010.14
599.431	24569.82
599.627	24487.9
599.824	24862.68
600.02	24168.42
600.217	24422.37
600.413	24201.19
600.609	24092.65
600.806	23982.06
601.002	24104.93
601.198	23812.07
601.395	23683.05
601.591	23740.4
601.787	23621.61
601.984	23629.8
602.18	23850.99
602.376	23670.76
602.572	23240.69
602.769	23465.97
602.965	23134.2
603.161	23212.02
603.357	23093.24
603.553	22999.03
603.75	23042.04
603.946	22624.25
604.142	23126
604.338	22648.83
604.534	22740.99
604.73	22288.39
604.926	22630.4
605.122	22652.92
605.318	22472.7
605.514	22351.87
605.71	22089.73
605.906	22310.91
606.102	22401.02
606.298	22296.58
606.494	22239.23
606.69	22269.95
606.886	21921.8
607.082	21768.2
607.278	22228.99
607.474	21841.93
607.67	21813.26
607.866	21418
608.062	22081.54
608.257	21438.48
608.453	21530.64
608.649	21538.83
608.845	21456.91
609.041	21475.34
609.236	21534.73
609.432	21331.98
609.628	21215.25
609.824	21379.09
610.019	20975.64
610.215	21067.8
610.411	21180.43
610.606	20957.21
610.802	20957.21
610.998	20926.49
611.193	20822.04
611.389	20717.59
611.584	20715.55
611.78	20568.09
611.976	20881.43
612.171	20965.4
612.367	20600.86
612.562	20641.82
612.758	20404.25
612.953	20240.42
613.149	20289.57
613.344	20336.67
613.539	20420.64
613.735	20150.31
613.93	20215.84
614.126	20226.08
614.321	20404.25
614.517	20240.42
614.712	20002.85
614.907	19937.32
615.103	20224.03
615.298	19994.66
615.493	20088.87
615.688	19664.94
615.884	20154.4
616.079	19314.73
616.274	19609.64
616.47	20041.76
616.665	19531.82
616.86	19298.35
617.055	19486.76
617.25	19529.77
617.445	19343.41
617.641	19105.84
617.836	19484.72
618.031	19337.26
618.226	19357.74
618.421	19116.08
618.616	19347.5
618.811	18708.54
619.006	19116.08
619.201	18548.79
619.396	18563.13
619.591	18688.06
619.786	18673.72
619.981	18276.41
620.176	18708.54
620.371	18278.46
620.566	18489.4
620.761	18214.98
620.956	18399.29
621.151	18210.88
621.346	18061.38
621.541	17563.72
621.735	17897.54
621.93	17754.18
622.125	17727.56
622.32	17340.49
622.515	17573.96
622.709	17287.25
622.904	17612.87
623.099	17283.15
623.294	17576.01
623.488	17059.92
623.683	17016.91
623.878	16803.92
624.072	16734.29
624.267	16777.3
624.462	16443.48
624.656	16320.6
624.851	16908.37
625.046	16373.85
625.24	16302.17
625.435	16066.66
625.629	15921.25
625.824	16146.53
626.018	16064.61
626.213	15634.53
626.407	15716.45
626.602	15450.22
626.796	15675.49
626.991	15720.55
627.185	15470.7
627.38	15550.57
627.574	15347.82
627.768	15140.97
627.963	14741.62
628.157	14930.03
628.352	15052.91
628.546	14696.57
628.74	15069.3
628.935	14815.35
629.129	14735.48
629.323	14495.86
629.517	14440.57
629.712	14372.99
629.906	14395.51
630.1	14205.05
630.294	14559.35
630.489	13891.71
630.683	13953.15
630.877	13963.39
631.071	13766.79
631.265	13940.86
631.459	13820.03
631.653	13506.7
631.848	13787.27
632.042	13457.54
632.236	13774.98
632.43	13314.19
632.624	13506.7
632.818	13039.76
633.012	13109.39
633.206	13365.39
633.4	12951.7
633.594	13054.09
633.788	13068.43
633.982	13023.37
634.176	12767.38
634.369	12574.87
634.563	12822.67
634.757	12558.49
634.951	12597.4
635.145	12316.83
635.339	12441.75
635.533	12392.6
635.726	12304.54
635.92	12273.82
636.114	12107.93
636.308	12081.31
636.501	12023.97
636.695	12011.68
636.889	11626.66
637.083	11761.83
637.276	11638.95
637.47	11452.58
637.664	11507.88
637.857	11530.41
638.051	11434.15
638.244	11438.25
638.438	11452.58
638.632	11518.12
638.825	11391.14
639.019	11327.66
639.212	10942.64
639.406	11057.32
639.599	11063.47
639.793	11098.28
639.986	10567.86
640.18	10545.33
640.373	10606.77
640.567	10621.11
640.76	10520.76
640.954	10481.85
641.147	10426.55
641.34	10381.49
641.534	10428.6
641.727	10385.59
641.92	10330.3
642.114	10123.45
642.307	10238.14
642.5	10062.01
642.694	9881.79
642.887	9871.55
643.08	10068.16
643.273	9849.02
643.467	9740.48
643.66	9765.06
643.853	9666.75
644.046	9640.13
644.239	9808.06
644.432	9466.05
644.626	9529.54
644.819	9416.9
645.012	9486.53
645.205	9308.36
645.398	9273.54
645.591	9050.32
645.784	9040.08
645.977	9048.27
646.17	9083.08
646.363	9224.39
646.556	8937.68
646.749	8919.25
646.942	9013.45
647.135	8923.34
647.328	8802.51
647.521	8769.74
647.714	8612.05
647.907	8644.82
648.099	8646.87
648.292	8745.17
648.485	8624.34
648.678	8399.06
648.871	8376.53
649.064	8311
649.256	8411.35
649.449	8308.95
649.642	8261.85
649.835	8265.94
650.027	8149.21
650.22	8055
650.413	7928.03
650.605	7932.12
650.798	7907.55
650.991	7940.32
651.183	7919.84
651.376	7780.57
651.568	7846.11
651.761	7866.59
651.954	7594.21
652.146	7577.83
652.339	7669.98
652.531	7694.56
652.724	7522.53
652.916	7379.17
653.109	7379.17
653.301	7461.09
653.494	7526.63
653.686	7260.39
653.879	7540.96
654.071	7284.97
654.263	7221.48
654.456	7307.49
654.648	7366.88
654.84	6983.91
655.033	6949.1
655.225	7057.64
655.417	7207.14
655.61	6947.05
655.802	6998.25
655.994	7018.73
656.186	6942.96
656.379	6795.5
656.571	6734.06
656.763	6854.89
656.955	6691.06
657.148	6695.15
657.34	6715.63
657.532	6709.49
657.724	6514.93
657.916	6684.91
658.108	6484.21
658.3	6430.96
658.492	6646
658.684	6482.16
658.876	6504.69
659.068	6373.62
659.26	6396.15
659.452	6310.13
659.644	6269.17
659.836	6207.73
660.028	6082.81
660.22	6086.9
660.412	6228.21
660.604	6183.16
660.796	6183.16
660.988	6080.76
661.18	6037.75
661.372	6043.9
661.563	6070.52
661.755	5939.45
661.947	5892.35
662.139	5628.16
662.331	5921.02
662.522	5849.34
662.714	5599.49
662.906	5660.93
663.097	5714.17
663.289	5562.62
663.481	5646.59
663.673	5654.78
663.864	5443.84
664.056	5521.67
664.247	5523.71
664.439	5429.51
664.631	5456.13
664.822	5576.96
665.014	5384.45
665.205	5368.07
665.397	5380.36
665.588	5404.93
665.78	5275.91
665.971	5294.34
666.163	5429.51
666.354	5200.13
666.546	5134.6
666.737	5130.5
666.929	5202.18
667.12	5249.29
667.311	5226.76
667.503	4989.19
667.694	5257.48
667.885	5067.02
668.077	5101.83
668.268	4983.05
668.459	5075.21
668.651	5200.13
668.842	4931.85
669.033	4917.51
669.224	4876.55
669.416	4884.75
669.607	4901.13
669.798	4806.92
669.989	4925.71
670.18	4856.08
670.371	4825.36
670.563	4765.96
670.754	4741.39
670.945	4759.82
671.136	4806.92
671.327	4798.73
671.518	4561.17
671.709	4722.96
671.9	4845.84
672.091	4671.76
672.282	4737.29
672.473	4575.5
672.664	4493.58
672.855	4591.89
673.046	4614.41
673.237	4604.18
673.428	4546.83
673.619	4456.72
673.809	4524.3
674	4481.3
674.191	4376.85
674.382	4364.56
674.573	4507.92
674.764	4442.39
674.954	4473.11
675.145	4385.04
675.336	4284.69
675.527	4423.95
675.717	4458.77
675.908	4571.41
676.099	4178.2
676.289	4233.49
676.48	4376.85
676.671	4204.82
676.861	4360.47
677.052	4258.07
677.243	4294.93
677.433	4417.81
677.624	4313.36
677.814	4274.45
678.005	4159.77
678.195	4213.01
678.386	4278.55
678.576	4303.12
678.767	4163.86
678.957	4221.2
679.148	4161.81
679.338	4180.25
679.529	4288.79
679.719	4129.05
679.909	4151.57
680.1	4137.24
680.29	4153.62
680.481	4014.36
680.671	4110.61
680.861	4174.1
681.052	4088.09
681.242	4083.99
681.432	4075.8
681.622	4079.9
681.813	4073.75
682.003	4116.76
682.193	4067.61
682.383	4081.94
682.573	4006.17
682.764	4053.27
682.954	3952.92
683.144	4043.03
683.334	3934.49
683.524	4034.84
683.714	4006.17
683.904	4028.7
684.094	3975.45
684.284	3860.76
684.474	3926.3
684.664	3952.92
684.854	3963.16
685.044	3862.81
685.234	3997.98
685.424	3899.67
685.614	3911.96
685.804	4008.22
685.994	3864.86
686.184	3967.26
686.374	3809.56
686.564	3899.67
686.753	3803.42
686.943	3907.87
687.133	3778.84
687.323	3731.74
687.513	3830.04
687.702	3729.69
687.892	3729.69
688.082	3823.9
688.272	3799.32
688.461	3715.36
688.651	3678.49
688.841	3707.16
689.03	3635.49
689.22	3635.49
689.41	3610.91
689.599	3465.5
689.789	3615.01
689.979	3600.67
690.168	3565.85
690.358	3498.27
690.547	3596.57
690.737	3606.81
690.926	3676.45
691.116	3516.7
691.305	3621.15
691.495	3612.96
691.684	3385.63
691.874	3555.62
692.063	3469.6
692.252	3541.28
692.442	3457.31
692.631	3268.9
692.82	3442.98
693.01	3406.11
693.199	3356.96
693.388	3275.04
693.578	3373.35
693.767	3268.9
693.956	3344.67
694.146	3217.7
694.335	3328.29
694.524	3334.43
694.713	3240.23
694.902	3330.34
695.092	3260.71
695.281	3236.13
695.47	3332.39
695.659	3164.45
695.848	3287.33
696.037	3189.03
696.226	3240.23
696.415	3279.14
696.604	3352.87
696.793	3273
696.982	3264.8
697.171	3303.71
697.36	3248.42
697.549	3283.24
697.738	3119.4
697.927	3127.59
698.116	3244.32
698.305	3285.28
698.494	3307.81
698.683	3203.36
698.872	3197.22
699.061	3215.65
699.25	3252.52
699.438	3195.17
699.627	3211.56
699.816	3383.59
700.005	3180.84
700.193	3264.8
700.382	3146.02
700.571	3176.74
700.76	3191.08
700.948	3389.73
701.137	3197.22
701.326	3166.5
701.514	3123.49
701.703	3285.28
701.892	3156.26
702.08	3324.19
702.269	3270.95
702.457	3098.92
702.646	3207.46
702.834	3113.25
703.023	3221.8
703.212	3227.94
703.4	3291.43
703.589	3164.45
703.777	3152.17
703.965	3131.69
704.154	3162.41
704.342	3133.73
704.531	3088.68
704.719	3203.36
704.907	3229.99
705.096	3178.79
705.284	3195.17
705.472	3197.22
705.661	3082.53
705.849	3260.71
706.037	3197.22
706.226	3215.65
706.414	3285.28
706.602	3123.49
706.79	3125.54
706.979	3135.78
707.167	3213.6
707.355	3074.34
707.543	3225.89
707.731	3086.63
707.919	3174.69
708.107	3189.03
708.296	3055.91
708.484	3041.57
708.672	3287.33
708.86	3117.35
709.048	3234.08
709.236	3121.45
709.424	3195.17
709.612	3344.67
709.8	3234.08
709.988	3135.78
710.176	3361.06
710.364	3146.02
710.551	3115.3
710.739	3234.08
710.927	3203.36
711.115	3205.41
711.303	3313.95
711.491	3291.43
711.679	3240.23
711.866	3270.95
712.054	3266.85
712.242	3221.8
712.43	3275.04
712.617	3154.21
712.805	3289.38
712.993	3158.31
713.181	3238.18
713.368	3215.65
713.556	3299.62
713.744	3135.78
713.931	3240.23
714.119	3166.5
714.306	3215.65
714.494	3217.7
714.682	3135.78
714.869	3174.69
715.057	3201.32
715.244	3172.64
715.432	3270.95
715.619	3164.45
715.807	3215.65
715.994	3090.73
716.182	3277.09
716.369	3148.07
716.556	3270.95
716.744	3092.77
716.931	3242.28
717.119	3279.14
717.306	3293.48
717.493	3275.04
717.681	3244.32
717.868	3213.6
718.055	3227.94
718.242	3340.58
718.43	3221.8
718.617	3238.18
718.804	3105.06
718.991	3186.98
719.179	3303.71
719.366	3244.32
719.553	3262.76
719.74	3260.71
719.927	3195.17
720.114	3123.49
720.301	3045.67
720.488	3197.22
720.676	3172.64
720.863	3193.12
721.05	3211.56
721.237	3252.52
721.424	3195.17
721.611	3279.14
721.798	3113.25
721.985	3213.6
722.172	3133.73
722.358	3166.5
722.545	3123.49
722.732	3186.98
722.919	3264.8
723.106	3166.5
723.293	3309.86
723.48	3248.42
723.667	3006.76
723.853	3254.56
724.04	3203.36
724.227	3154.21
724.414	3166.5
724.6	3246.37
724.787	3195.17
724.974	3399.97
725.161	3156.26
725.347	3064.1
725.534	3332.39
725.72	3242.28
725.907	3209.51
726.094	3221.8
726.28	3289.38
726.467	3127.59
726.653	3180.84
726.84	3031.34
727.027	3160.36
727.213	3154.21
727.4	3109.16
727.586	3203.36
727.773	3139.88
727.959	3260.71
728.145	3201.32
728.332	3103.01
728.518	3062.05
728.705	3158.31
728.891	3168.55
729.077	3205.41
729.264	3203.36
729.45	2969.9
729.636	3072.29
729.823	3017
730.009	3109.16
730.195	3135.78
730.382	3148.07
730.568	3131.69
730.754	3176.74
730.94	3123.49
731.126	3047.72
731.313	3180.84
731.499	3205.41
731.685	3109.16
731.871	2930.98
732.057	3176.74
732.243	3090.73
732.429	3146.02
732.615	3029.29
732.801	2890.03
732.987	3068.2
733.173	3100.97
733.359	2904.36
733.545	3049.77
733.731	2988.33
733.917	3156.26
734.103	2973.99
734.289	2982.18
734.475	3074.34
734.661	3121.45
734.847	3033.38
735.033	2996.52
735.219	3045.67
735.404	2973.99
735.59	3070.25
735.776	2926.89
735.962	3010.86
736.148	3072.29
736.333	3008.81
736.519	3004.71
736.705	2984.23
736.89	2963.75
737.076	3025.19
737.262	2859.31
737.447	2951.46
737.633	2941.22
737.819	2969.9
738.004	2894.12
738.19	2937.13
738.375	2818.35
738.561	3105.06
738.747	2943.27
738.932	2916.65
739.118	2898.22
739.303	2804.01
739.489	2904.36
739.674	2939.18
739.859	2967.85
740.045	2750.76
740.23	2820.39
740.416	2773.29
740.601	2851.11
740.786	2711.85
740.972	2718
741.157	2851.11
741.342	2797.87
741.528	2672.94
741.713	2709.8
741.898	2773.29
742.084	2711.85
742.269	2754.86
742.454	2722.09
742.639	2824.49
742.824	2613.55
743.01	2621.74
743.195	2609.45
743.38	2730.28
743.565	2701.61
743.75	2597.17
743.935	2621.74
744.12	2625.84
744.305	2638.13
744.49	2648.36
744.675	2625.84
744.86	2564.4
745.045	2550.06
745.23	2566.45
745.415	2521.39
745.6	2578.73
745.785	2443.57
745.97	2582.83
746.155	2492.72
746.34	2408.75
746.525	2343.22
746.71	2462
746.895	2328.88
747.079	2441.52
747.264	2320.69
747.449	2351.41
747.634	2455.86
747.819	2365.75
748.003	2246.96
748.188	2277.68
748.373	2394.42
748.557	2273.59
748.742	2345.27
748.927	2267.44
749.111	2216.24
749.296	2214.2
749.481	2347.31
749.665	2148.66
749.85	2091.32
750.034	2251.06
750.219	2208.05
750.404	2095.41
750.588	2160.95
750.773	2109.75
750.957	2054.45
751.141	2197.81
751.326	2111.8
751.51	2001.21
751.695	2083.13
751.879	1995.06
752.064	2048.31
752.248	1950.01
752.432	1917.24
752.617	1943.86
752.801	1925.43
752.985	1952.06
753.17	1902.9
753.354	1999.16
753.538	1952.06
753.722	1878.33
753.907	1952.06
754.091	1882.42
754.275	1898.81
754.459	1874.23
754.643	1712.44
754.828	1782.07
755.012	1796.41
755.196	1880.38
755.38	1747.26
755.564	1794.36
755.748	1761.59
755.932	1802.55
756.116	1689.92
756.3	1710.4
756.484	1704.25
756.668	1689.92
756.852	1589.57
757.036	1714.49
757.22	1681.72
757.404	1679.68
757.588	1554.75
757.772	1657.15
757.956	1653.05
758.14	1517.89
758.323	1528.13
758.507	1640.76
758.691	1505.6
758.875	1679.68
759.059	1595.71
759.242	1587.52
759.426	1352
759.61	1550.65
759.794	1435.97
759.977	1503.55
760.161	1550.65
760.345	1487.17
760.528	1460.54
760.712	1513.79
760.895	1413.44
761.079	1448.26
761.263	1411.39
761.446	1345.86
761.63	1411.39
761.813	1497.41
761.997	1374.53
762.18	1407.3
762.364	1390.91
762.547	1331.52
762.731	1354.05
762.914	1358.14
763.098	1354.05
763.281	1376.58
763.464	1308.99
763.648	1251.65
763.831	1392.96
764.015	1382.72
764.198	1268.03
764.381	1384.77
764.564	1308.99
764.748	1247.55
764.931	1368.38
765.114	1265.99
765.297	1313.09
765.481	1286.47
765.664	1270.08
765.847	1212.74
766.03	1220.93
766.213	1245.51
766.397	1122.63
766.58	1263.94
766.763	1235.27
766.946	1270.08
767.129	1257.79
767.312	1171.78
767.495	1136.96
767.678	1190.21
767.861	1204.55
768.044	1210.69
768.227	1157.44
768.41	1233.22
768.593	1182.02
768.776	1147.2
768.959	1235.27
769.142	1151.3
769.324	1157.44
769.507	1110.34
769.69	1038.66
769.873	1093.96
770.056	1126.72
770.239	1100.1
770.421	1149.25
770.604	1100.1
770.787	1063.24
770.97	1083.72
771.152	1053
771.335	985.41
771.518	987.46
771.7	1112.39
771.883	1100.1
772.066	1128.77
772.248	1028.42
772.431	1005.89
772.613	1022.28
772.796	1042.76
772.978	1098.05
773.161	1093.96
773.343	1020.23
773.526	985.41
773.708	921.93
773.891	981.32
774.073	997.7
774.256	866.63
774.438	1048.9
774.621	973.13
774.803	999.75
774.985	969.03
775.168	870.73
775.35	956.74
775.532	911.69
775.715	770.38
775.897	913.74
776.079	901.45
776.261	926.02
776.444	987.46
776.626	829.77
776.808	923.98
776.99	842.06
777.173	809.29
777.355	868.68
777.537	842.06
777.719	829.77
777.901	747.85
778.083	811.34
778.265	799.05
778.447	901.45
778.629	889.16
778.811	780.62
778.993	762.19
779.175	768.33
779.357	864.58
779.539	665.93
779.721	756.04
779.903	753.99
780.085	733.51
780.267	778.57
780.449	799.05
780.631	805.19
780.812	733.51
780.994	772.43
781.176	768.33
781.358	700.75
781.54	704.84
781.721	739.66
781.903	672.08
782.085	690.51
782.267	743.75
782.448	661.84
782.63	579.92
782.812	727.37
782.993	645.45
783.175	618.83
783.357	631.12
783.538	721.23
783.72	557.39
783.901	639.31
784.083	592.2
784.264	635.21
784.446	604.49
784.627	620.88
784.809	622.92
784.99	555.34
785.172	651.6
785.353	629.07
785.535	561.48
785.716	551.24
785.897	530.77
786.079	538.96
786.26	528.72
786.441	624.97
786.623	526.67
786.804	498
786.985	524.62
787.167	536.91
787.348	563.53
787.529	616.78
787.71	592.2
787.891	547.15
788.073	547.15
788.254	532.81
788.435	551.24
788.616	508.24
788.797	493.9
788.978	573.77
789.159	463.18
789.34	514.38
789.522	469.33
789.703	432.46
789.884	538.96
790.065	473.42
790.246	565.58
790.427	485.71
790.607	483.66
790.788	467.28
790.969	457.04
791.15	489.81
791.331	407.89
791.512	436.56
791.693	432.46
791.874	452.94
792.054	409.94
792.235	436.56
792.416	383.31
792.597	379.22
792.778	444.75
792.958	397.65
793.139	467.28
793.32	403.79
793.5	461.13
793.681	407.89
793.862	444.75
794.042	313.68
794.223	313.68
794.404	295.25
794.584	321.87
794.765	385.36
794.945	330.06
795.126	411.98
795.306	336.21
795.487	397.65
795.667	383.31
795.848	397.65
796.028	362.83
796.209	344.4
796.389	377.17
796.57	313.68
796.75	350.54
796.93	297.3
797.111	373.07
797.291	360.78
797.471	346.45
797.652	350.54
797.832	385.36
798.012	344.4
798.192	319.82
798.373	276.82
798.553	340.3
798.733	334.16
798.913	285.01
799.093	350.54
799.274	264.53
799.454	293.2
799.634	309.58
799.814	332.11
799.994	389.46
800.174	334.16
800.354	274.77
800.534	272.72
800.714	371.02
800.894	264.53
801.074	301.39
801.254	342.35
801.434	405.84
801.614	309.58
801.794	297.3
801.974	725.32
802.154	231.76
802.334	362.83
802.514	256.34
802.693	309.58
802.873	344.4
803.053	336.21
803.233	248.15
803.413	256.34
803.592	272.72
803.772	317.78
803.952	254.29
804.131	350.54
804.311	280.91
804.491	362.83
804.67	252.24
804.85	285.01
805.03	252.24
805.209	293.2
805.389	174.42
805.568	225.62
805.748	239.95
805.928	293.2
806.107	242
806.287	366.93
806.466	287.06
806.646	176.47
806.825	219.47
807.004	338.26
807.184	239.95
807.363	280.91
807.543	237.91
807.722	256.34
807.901	317.78
808.081	264.53
808.26	254.29
808.439	190.8
808.619	184.66
808.798	246.1
808.977	215.38
809.156	229.71
809.336	254.29
809.515	215.38
809.694	217.43
809.873	192.85
810.052	221.52
810.231	297.3
810.411	196.95
810.59	203.09
810.769	196.95
810.948	239.95
811.127	194.9
811.306	229.71
811.485	170.32
811.664	231.76
811.843	211.28
812.022	219.47
812.201	201.04
812.38	207.19
812.559	141.65
812.737	223.57
812.916	248.15
813.095	151.89
813.274	282.96
813.453	178.51
813.632	194.9
813.811	192.85
813.989	196.95
814.168	153.94
814.347	153.94
814.526	182.61
814.704	217.43
814.883	250.19
815.062	178.51
815.24	213.33
815.419	190.8
815.598	158.03
815.776	137.56
815.955	215.38
816.133	174.42
816.312	196.95
816.49	182.61
816.669	176.47
816.847	137.56
817.026	135.51
817.204	123.22
817.383	203.09
817.561	158.03
817.74	88.4
817.918	137.56
818.097	198.99
818.275	196.95
818.453	166.23
818.632	188.75
818.81	170.32
818.988	155.99
819.167	262.48
819.345	129.36
819.523	147.8
819.701	147.8
819.879	133.46
820.058	166.23
820.236	108.88
820.414	166.23
820.592	194.9
820.77	102.74
820.948	162.13
821.127	104.79
821.305	151.89
821.483	106.84
821.661	166.23
821.839	125.27
822.017	51.54
822.195	155.99
822.373	168.27
822.551	149.84
822.729	139.6
822.907	133.46
823.085	190.8
823.262	98.64
823.44	123.22
823.618	80.21
823.796	207.19
823.974	147.8
824.152	110.93
824.329	102.74
824.507	174.42
824.685	117.08
824.863	141.65
825.04	155.99
825.218	98.64
825.396	145.75
825.574	106.84
825.751	166.23
825.929	266.58
826.107	84.31
826.284	76.12
826.462	180.56
826.639	29.01
826.817	125.27
826.994	133.46
827.172	102.74
827.349	229.71
827.527	100.69
827.704	84.31
827.882	82.26
828.059	133.46
828.237	108.88
828.414	168.27
828.591	123.22
828.769	125.27
828.946	119.12
829.124	149.84
829.301	139.6
829.478	106.84
829.655	139.6
829.833	108.88
830.01	92.5
830.187	104.79
830.364	72.02
830.542	106.84
830.719	125.27
830.896	57.68
831.073	164.18
831.25	145.75
831.427	115.03
831.604	78.16
831.782	49.49
831.959	82.26
832.136	166.23
832.313	106.84
832.49	135.51
832.667	133.46
832.844	55.64
833.021	135.51
833.198	137.56
833.374	127.32
833.551	123.22
833.728	96.6
833.905	92.5
834.082	80.21
834.259	63.83
834.436	121.17
834.612	18.77
834.789	47.44
834.966	76.12
835.143	100.69
835.319	76.12
835.496	119.12
835.673	84.31
835.85	74.07
836.026	53.59
836.203	129.36
836.38	65.88
836.556	104.79
836.733	106.84
836.909	141.65
837.086	125.27
837.262	133.46
837.439	67.92
837.616	69.97
837.792	92.5
837.968	117.08
838.145	53.59
838.321	65.88
838.498	135.51
838.674	137.56
838.851	110.93
839.027	22.87
839.203	121.17
839.38	133.46
839.556	84.31
839.732	108.88
839.909	67.92
840.085	129.36
840.261	12.63
840.437	153.94
840.614	125.27
840.79	123.22
840.966	100.69
841.142	88.4
841.318	96.6
841.494	155.99
841.671	67.92
841.847	74.07
842.023	147.8
842.199	104.79
842.375	117.08
842.551	8.53
842.727	51.54
842.903	84.31
843.079	94.55
843.255	131.41
843.431	100.69
843.607	147.8
843.783	92.5
843.959	139.6
844.134	26.96
844.31	149.84
844.486	61.78
844.662	86.36
844.838	37.2
845.013	84.31
845.189	106.84
845.365	69.97
845.541	153.94
845.716	123.22
845.892	123.22
846.068	39.25
846.244	10.58
846.419	65.88
846.595	-3.75
846.77	2.39
846.946	74.07
847.122	35.16
847.297	63.83
847.473	137.56
847.648	26.96
847.824	61.78
847.999	67.92
848.175	6.49
848.35	80.21
848.526	49.49
848.701	20.82
848.876	92.5
849.052	67.92
849.227	49.49
849.403	43.35
849.578	49.49
849.753	31.06
849.929	55.64
850.104	22.87
850.279	57.68
850.454	80.21
850.63	112.98
850.805	53.59
850.98	86.36
851.155	74.07
851.33	129.36
851.505	90.45
851.681	108.88
851.856	2.39
852.031	43.35
852.206	90.45
852.381	-30.38
852.556	86.36
852.731	43.35
852.906	86.36
853.081	100.69
853.256	-1.71
853.431	51.54
853.606	67.92
853.781	39.25
853.956	96.6
854.131	41.3
854.305	16.73
854.48	10.58
854.655	63.83
854.83	53.59
855.005	43.35
855.18	108.88
855.354	43.35
855.529	10.58
855.704	26.96
855.879	63.83
856.053	-18.09
856.228	31.06
856.403	72.02
856.577	33.11
856.752	24.92
856.926	12.63
857.101	-13.99
857.276	63.83
857.45	69.97
857.625	20.82
857.799	100.69
857.974	74.07
858.148	-54.95
858.323	59.73
858.497	-32.43
858.672	16.73
858.846	82.26
859.02	84.31
859.195	-11.95
859.369	-28.33
859.543	47.44
859.718	26.96
859.892	61.78
860.066	22.87
860.241	33.11
860.415	57.68
860.589	41.3
860.763	26.96
860.938	65.88
861.112	76.12
861.286	102.74
861.46	16.73
861.634	16.73
861.808	33.11
861.982	151.89
862.157	-69.29
862.331	24.92
862.505	65.88
862.679	41.3
862.853	67.92
863.027	55.64
863.201	160.08
863.375	61.78
863.549	96.6
863.722	4.44
863.896	80.21
864.07	10.58
864.244	0.34
864.418	65.88
864.592	96.6
864.766	65.88
864.939	90.45
865.113	-1.71
865.287	29.01
865.461	-44.71
865.634	76.12
865.808	0.34
865.982	115.03
866.156	18.77
866.329	-54.95
866.503	65.88
866.676	76.12
866.85	4.44
867.024	-9.9
867.197	2.39
867.371	162.13
867.544	20.82
867.718	18.77
867.891	74.07
868.065	33.11
868.238	80.21
868.412	104.79
868.585	49.49
868.759	-5.8
868.932	24.92
869.105	0.34
869.279	-7.85
869.452	37.2
869.625	29.01
869.799	69.97
869.972	6.49
870.145	-13.99
870.319	90.45
870.492	-20.14
870.665	55.64
870.838	78.16
871.011	-20.14
871.185	33.11
871.358	37.2
871.531	84.31
871.704	-48.81
871.877	-3.75
872.05	74.07
872.223	90.45
872.396	-9.9
872.569	51.54
872.742	-40.62
872.915	-7.85
873.088	-13.99
873.261	22.87
873.434	76.12
873.607	22.87
873.78	63.83
873.953	-18.09
874.126	43.35
874.299	-13.99
874.471	-54.95
874.644	-9.9
874.817	35.16
874.99	43.35
875.163	8.53
875.335	80.21
875.508	10.58
875.681	76.12
875.853	22.87
876.026	-26.28
876.199	-1.71
876.371	98.64
876.544	-13.99
876.717	49.49
876.889	-46.76
877.062	41.3
877.234	-9.9
877.407	-1.71
877.579	-44.71
877.752	67.92
877.924	-26.28
878.097	61.78
878.269	6.49
878.442	18.77
878.614	-18.09
878.786	-1.71
878.959	67.92
879.131	4.44
879.303	-46.76
879.476	-18.09
879.648	22.87
879.82	12.63
879.993	-28.33
880.165	6.49
880.337	41.3
880.509	43.35
880.681	0.34
880.854	-52.91
881.026	74.07
881.198	37.2
881.37	67.92
881.542	65.88
881.714	-26.28
881.886	-3.75
882.058	18.77
882.23	24.92
882.402	51.54
882.574	35.16
882.746	-38.57
882.918	18.77
883.09	-30.38
883.262	-40.62
883.434	10.58
883.606	2.39
883.778	-9.9
883.95	35.16
884.122	-5.8
884.293	35.16
884.465	45.4
884.637	49.49
884.809	24.92
884.98	45.4
885.152	39.25
885.324	59.73
885.496	24.92
885.667	100.69
885.839	6.49
886.011	31.06
886.182	49.49
886.354	86.36
886.525	35.16
886.697	0.34
886.869	-7.85
887.04	8.53
887.212	8.53
887.383	65.88
887.555	51.54
887.726	74.07
887.897	41.3
888.069	2.39
888.24	2.39
888.412	-16.04
888.583	-48.81
888.754	-20.14
888.926	-1.71
889.097	-13.99
889.268	-63.15
889.44	55.64
889.611	-38.57
889.782	-11.95
889.953	-34.47
890.125	63.83
890.296	33.11
890.467	29.01
890.638	14.68
890.809	51.54
890.98	-3.75
891.151	-22.19
891.323	53.59
891.494	53.59
891.665	63.83
891.836	49.49
892.007	10.58
892.178	39.25
892.349	18.77
892.52	-3.75
892.691	98.64
892.862	18.77
893.032	-32.43
893.203	4.44
893.374	2.39
893.545	45.4
893.716	6.49
893.887	16.73
894.057	43.35
894.228	-9.9
894.399	20.82
894.57	110.93
894.74	-7.85
894.911	45.4
895.082	-54.95
895.253	-81.58
895.423	-57
895.594	-18.09
895.764	31.06
895.935	-11.95
896.106	-11.95
896.276	18.77
896.447	-34.47
896.617	-34.47
896.788	0.34
896.958	-5.8
897.129	51.54
897.299	24.92
897.47	37.2
897.64	51.54
897.81	18.77
897.981	-16.04
898.151	-59.05
898.322	65.88
898.492	-44.71
898.662	-50.86
898.832	-13.99
899.003	4.44
899.173	41.3
899.343	43.35
899.513	-13.99
