Data from USB4F104151__49__10-23-28-636.txt Node

Date: Wed Mar 12 10:23:28 EDT 2025
User: louis
Spectrometer: USB4F10415
Trigger mode: 4
Integration Time (sec): 3.000000E-2
Scans to average: 1
Electric dark correction enabled: true
Nonlinearity correction enabled: false
Boxcar width: 0
XAxis mode: Wavelengths
Number of Pixels in Spectrum: 3648
>>>>>Begin Spectral Data<<<<<
178.204	-82.26
178.424	-82.26
178.644	-82.26
178.864	-106.84
179.084	-88.4
179.304	7.85
179.524	18.09
179.744	3.75
179.964	24.23
180.184	32.43
180.404	46.76
180.624	1.71
180.844	-67.92
181.064	-51.54
181.283	-49.49
181.503	-4.44
181.723	38.57
181.943	-63.83
182.163	48.81
182.383	28.33
182.602	52.91
182.822	63.15
183.042	77.48
183.262	40.62
183.482	89.77
183.701	20.14
183.921	116.39
184.141	-55.64
184.361	87.72
184.58	71.34
184.8	-2.39
185.02	-20.82
185.239	118.44
185.459	-29.01
185.679	161.45
185.898	-24.92
186.118	89.77
186.338	16.04
186.557	28.33
186.777	-20.82
186.997	61.1
187.216	24.23
187.436	59.05
187.655	36.52
187.875	9.9
188.095	-43.35
188.314	69.29
188.534	-16.73
188.753	108.2
188.973	42.67
189.192	46.76
189.412	57
189.631	52.91
189.851	24.23
190.07	102.06
190.29	40.62
190.509	38.57
190.729	32.43
190.948	112.3
191.168	112.3
191.387	114.34
191.607	-18.77
191.826	67.24
192.045	7.85
192.265	36.52
192.484	30.38
192.704	83.63
192.923	42.67
193.142	140.97
193.362	61.1
193.581	67.24
193.8	-8.53
194.02	28.33
194.239	20.14
194.458	87.72
194.678	48.81
194.897	11.95
195.116	28.33
195.335	87.72
195.555	36.52
195.774	69.29
195.993	114.34
196.212	89.77
196.432	11.95
196.651	28.33
196.87	57
197.089	46.76
197.308	-0.34
197.528	36.52
197.747	-12.63
197.966	59.05
198.185	32.43
198.404	54.95
198.623	46.76
198.842	140.97
199.062	28.33
199.281	20.14
199.5	-4.44
199.719	18.09
199.938	26.28
200.157	85.67
200.376	22.19
200.595	28.33
200.814	-20.82
201.033	11.95
201.252	89.77
201.471	83.63
201.69	85.67
201.909	50.86
202.128	48.81
202.347	38.57
202.566	-8.53
202.785	42.67
203.004	22.19
203.223	112.3
203.442	87.72
203.661	3.75
203.879	61.1
204.098	108.2
204.317	-20.82
204.536	83.63
204.755	3.75
204.974	-26.96
205.193	67.24
205.411	116.39
205.63	36.52
205.849	-0.34
206.068	-0.34
206.287	36.52
206.505	100.01
206.724	73.39
206.943	-4.44
207.162	57
207.381	50.86
207.599	89.77
207.818	100.01
208.037	48.81
208.255	69.29
208.474	57
208.693	85.67
208.911	-35.16
209.13	32.43
209.349	48.81
209.567	52.91
209.786	112.3
210.005	36.52
210.223	118.44
210.442	11.95
210.661	28.33
210.879	122.54
211.098	57
211.316	59.05
211.535	26.28
211.753	71.34
211.972	36.52
212.191	73.39
212.409	9.9
212.628	93.87
212.846	16.04
213.065	57
213.283	102.06
213.502	-12.63
213.72	57
213.938	46.76
214.157	77.48
214.375	52.91
214.594	11.95
214.812	71.34
215.031	44.71
215.249	50.86
215.467	16.04
215.686	-22.87
215.904	28.33
216.122	28.33
216.341	42.67
216.559	46.76
216.778	79.53
216.996	77.48
217.214	89.77
217.432	69.29
217.651	67.24
217.869	77.48
218.087	67.24
218.306	83.63
218.524	59.05
218.742	28.33
218.96	-12.63
219.179	11.95
219.397	52.91
219.615	85.67
219.833	36.52
220.051	42.67
220.27	38.57
220.488	36.52
220.706	122.54
220.924	77.48
221.142	18.09
221.36	38.57
221.578	54.95
221.796	73.39
222.015	61.1
222.233	85.67
222.451	100.01
222.669	34.47
222.887	89.77
223.105	77.48
223.323	28.33
223.541	11.95
223.759	24.23
223.977	3.75
224.195	-20.82
224.413	34.47
224.631	93.87
224.849	50.86
225.067	24.23
225.285	81.58
225.503	67.24
225.721	-33.11
225.939	93.87
226.157	-29.01
226.375	116.39
226.592	36.52
226.81	44.71
227.028	20.14
227.246	24.23
227.464	1.71
227.682	28.33
227.9	22.19
228.117	32.43
228.335	11.95
228.553	59.05
228.771	102.06
228.989	11.95
229.206	28.33
229.424	30.38
229.642	77.48
229.86	73.39
230.077	120.49
230.295	3.75
230.513	61.1
230.731	126.63
230.948	46.76
231.166	87.72
231.384	11.95
231.601	36.52
231.819	69.29
232.037	22.19
232.254	50.86
232.472	50.86
232.689	112.3
232.907	-31.06
233.125	67.24
233.342	52.91
233.56	-12.63
233.777	65.19
233.995	-49.49
234.213	61.1
234.43	57
234.648	52.91
234.865	24.23
235.083	42.67
235.3	61.1
235.518	81.58
235.735	73.39
235.953	69.29
236.17	-8.53
236.388	79.53
236.605	50.86
236.822	40.62
237.04	81.58
237.257	7.85
237.475	61.1
237.692	44.71
237.909	52.91
238.127	22.19
238.344	7.85
238.562	52.91
238.779	16.04
238.996	7.85
239.214	59.05
239.431	95.91
239.648	11.95
239.865	83.63
240.083	-0.34
240.3	40.62
240.517	87.72
240.735	7.85
240.952	93.87
241.169	40.62
241.386	73.39
241.603	-16.73
241.821	-0.34
242.038	57
242.255	61.1
242.472	28.33
242.689	42.67
242.907	112.3
243.124	50.86
243.341	-4.44
243.558	65.19
243.775	79.53
243.992	13.99
244.209	69.29
244.426	93.87
244.643	73.39
244.86	46.76
245.078	57
245.295	120.49
245.512	-0.34
245.729	7.85
245.946	67.24
246.163	93.87
246.38	42.67
246.597	20.14
246.814	36.52
247.031	50.86
247.248	67.24
247.464	57
247.681	42.67
247.898	32.43
248.115	30.38
248.332	-61.78
248.549	18.09
248.766	65.19
248.983	54.95
249.2	52.91
249.417	20.14
249.633	38.57
249.85	97.96
250.067	-18.77
250.284	69.29
250.501	46.76
250.717	77.48
250.934	69.29
251.151	93.87
251.368	20.14
251.585	126.63
251.801	87.72
252.018	-24.92
252.235	65.19
252.451	63.15
252.668	52.91
252.885	81.58
253.102	32.43
253.318	48.81
253.535	40.62
253.752	28.33
253.968	11.95
254.185	32.43
254.401	-6.49
254.618	-29.01
254.835	42.67
255.051	93.87
255.268	67.24
255.484	28.33
255.701	138.92
255.917	57
256.134	104.11
256.351	44.71
256.567	44.71
256.784	61.1
257	46.76
257.217	-10.58
257.433	102.06
257.65	50.86
257.866	122.54
258.082	9.9
258.299	106.15
258.515	85.67
258.732	34.47
258.948	-6.49
259.165	30.38
259.381	-20.82
259.597	61.1
259.814	44.71
260.03	16.04
260.246	71.34
260.463	22.19
260.679	85.67
260.895	57
261.112	-24.92
261.328	67.24
261.544	67.24
261.761	145.06
261.977	136.87
262.193	24.23
262.409	69.29
262.626	-2.39
262.842	32.43
263.058	44.71
263.274	16.04
263.49	54.95
263.707	79.53
263.923	44.71
264.139	-24.92
264.355	40.62
264.571	130.73
264.787	3.75
265.004	143.02
265.22	26.28
265.436	16.04
265.652	-4.44
265.868	42.67
266.084	16.04
266.3	-29.01
266.516	57
266.732	44.71
266.948	81.58
267.164	104.11
267.38	3.75
267.596	65.19
267.812	83.63
268.028	63.15
268.244	52.91
268.46	28.33
268.676	1.71
268.892	44.71
269.108	61.1
269.324	44.71
269.54	28.33
269.756	38.57
269.972	28.33
270.188	44.71
270.403	38.57
270.619	36.52
270.835	69.29
271.051	26.28
271.267	-0.34
271.483	3.75
271.698	36.52
271.914	52.91
272.13	7.85
272.346	16.04
272.562	5.8
272.777	13.99
272.993	13.99
273.209	67.24
273.425	42.67
273.64	36.52
273.856	102.06
274.072	-0.34
274.287	18.09
274.503	71.34
274.719	20.14
274.934	5.8
275.15	20.14
275.366	-2.39
275.581	20.14
275.797	52.91
276.012	36.52
276.228	57
276.444	112.3
276.659	91.82
276.875	36.52
277.09	67.24
277.306	-6.49
277.521	143.02
277.737	-10.58
277.952	89.77
278.168	67.24
278.383	110.25
278.599	52.91
278.814	126.63
279.03	20.14
279.245	89.77
279.461	118.44
279.676	106.15
279.892	-4.44
280.107	63.15
280.322	50.86
280.538	16.04
280.753	-2.39
280.969	52.91
281.184	100.01
281.399	106.15
281.615	79.53
281.83	24.23
282.045	13.99
282.26	-14.68
282.476	11.95
282.691	30.38
282.906	16.04
283.122	13.99
283.337	1.71
283.552	57
283.767	9.9
283.983	157.35
284.198	3.75
284.413	48.81
284.628	20.14
284.843	5.8
285.058	93.87
285.274	97.96
285.489	44.71
285.704	61.1
285.919	-8.53
286.134	91.82
286.349	52.91
286.564	-12.63
286.779	11.95
286.995	18.09
287.21	50.86
287.425	11.95
287.64	63.15
287.855	57
288.07	20.14
288.285	44.71
288.5	1.71
288.715	112.3
288.93	44.71
289.145	54.95
289.36	126.63
289.575	38.57
289.79	57
290.004	-33.11
290.219	63.15
290.434	16.04
290.649	-24.92
290.864	11.95
291.079	89.77
291.294	-31.06
291.509	112.3
291.724	1.71
291.938	81.58
292.153	130.73
292.368	57
292.583	65.19
292.798	91.82
293.012	77.48
293.227	42.67
293.442	-31.06
293.657	34.47
293.871	28.33
294.086	52.91
294.301	38.57
294.516	95.91
294.73	13.99
294.945	81.58
295.16	44.71
295.374	122.54
295.589	130.73
295.804	-2.39
296.018	16.04
296.233	124.58
296.447	85.67
296.662	20.14
296.877	145.06
297.091	83.63
297.306	126.63
297.52	87.72
297.735	48.81
297.949	93.87
298.164	63.15
298.378	67.24
298.593	-33.11
298.807	95.91
299.022	40.62
299.236	22.19
299.451	13.99
299.665	1.71
299.88	89.77
300.094	9.9
300.309	44.71
300.523	-20.82
300.737	-29.01
300.952	106.15
301.166	75.43
301.381	20.14
301.595	63.15
301.809	16.04
302.024	28.33
302.238	-6.49
302.452	140.97
302.667	30.38
302.881	61.1
303.095	69.29
303.309	46.76
303.524	40.62
303.738	126.63
303.952	28.33
304.166	77.48
304.381	-18.77
304.595	124.58
304.809	52.91
305.023	40.62
305.237	16.04
305.452	69.29
305.666	81.58
305.88	83.63
306.094	28.33
306.308	22.19
306.522	40.62
306.736	81.58
306.95	63.15
307.164	36.52
307.379	13.99
307.593	50.86
307.807	110.25
308.021	30.38
308.235	69.29
308.449	52.91
308.663	48.81
308.877	44.71
309.091	69.29
309.305	75.43
309.519	-12.63
309.733	91.82
309.947	16.04
310.161	132.78
310.374	75.43
310.588	52.91
310.802	-37.2
311.016	-26.96
311.23	124.58
311.444	44.71
311.658	65.19
311.872	54.95
312.085	52.91
312.299	75.43
312.513	85.67
312.727	69.29
312.941	42.67
313.154	73.39
313.368	28.33
313.582	48.81
313.796	100.01
314.009	32.43
314.223	79.53
314.437	77.48
314.651	-4.44
314.864	34.47
315.078	32.43
315.292	20.14
315.505	24.23
315.719	81.58
315.933	42.67
316.146	79.53
316.36	57
316.573	1.71
316.787	97.96
317.001	22.19
317.214	48.81
317.428	97.96
317.641	57
317.855	20.14
318.068	-4.44
318.282	20.14
318.495	69.29
318.709	48.81
318.922	-8.53
319.136	63.15
319.349	89.77
319.563	42.67
319.776	130.73
319.99	24.23
320.203	44.71
320.417	50.86
320.63	-24.92
320.843	183.98
321.057	34.47
321.27	100.01
321.483	63.15
321.697	89.77
321.91	34.47
322.124	114.34
322.337	50.86
322.55	40.62
322.763	34.47
322.977	61.1
323.19	67.24
323.403	54.95
323.617	65.19
323.83	59.05
324.043	22.19
324.256	38.57
324.469	126.63
324.683	85.67
324.896	57
325.109	83.63
325.322	1.71
325.535	26.28
325.748	85.67
325.962	11.95
326.175	36.52
326.388	24.23
326.601	46.76
326.814	44.71
327.027	116.39
327.24	85.67
327.453	16.04
327.666	59.05
327.879	-2.39
328.092	83.63
328.305	59.05
328.518	59.05
328.731	52.91
328.944	-6.49
329.157	36.52
329.37	13.99
329.583	75.43
329.796	81.58
330.009	32.43
330.222	24.23
330.435	75.43
330.648	73.39
330.861	77.48
331.073	93.87
331.286	91.82
331.499	106.15
331.712	77.48
331.925	-10.58
332.138	77.48
332.35	102.06
332.563	26.28
332.776	57
332.989	32.43
333.202	81.58
333.414	34.47
333.627	44.71
333.84	-8.53
334.053	-14.68
334.265	5.8
334.478	54.95
334.691	-45.4
334.903	91.82
335.116	73.39
335.329	32.43
335.541	38.57
335.754	85.67
335.966	42.67
336.179	-8.53
336.392	61.1
336.604	100.01
336.817	71.34
337.029	46.76
337.242	48.81
337.454	36.52
337.667	36.52
337.88	100.01
338.092	52.91
338.305	110.25
338.517	-12.63
338.729	48.81
338.942	67.24
339.154	11.95
339.367	52.91
339.579	83.63
339.792	65.19
340.004	73.39
340.217	38.57
340.429	61.1
340.641	-35.16
340.854	65.19
341.066	85.67
341.278	136.87
341.491	93.87
341.703	85.67
341.915	73.39
342.128	95.91
342.34	38.57
342.552	40.62
342.764	91.82
342.977	36.52
343.189	118.44
343.401	40.62
343.613	13.99
343.826	-37.2
344.038	118.44
344.25	44.71
344.462	-24.92
344.674	-0.34
344.886	61.1
345.099	136.87
345.311	9.9
345.523	73.39
345.735	46.76
345.947	32.43
346.159	52.91
346.371	114.34
346.583	85.67
346.795	171.69
347.007	30.38
347.219	48.81
347.431	108.2
347.643	65.19
347.855	89.77
348.067	52.91
348.279	16.04
348.491	95.91
348.703	20.14
348.915	40.62
349.127	77.48
349.339	69.29
349.551	-61.78
349.763	20.14
349.975	79.53
350.187	118.44
350.399	93.87
350.61	69.29
350.822	16.04
351.034	63.15
351.246	61.1
351.458	87.72
351.669	71.34
351.881	40.62
352.093	79.53
352.305	89.77
352.517	81.58
352.728	79.53
352.94	16.04
353.152	-8.53
353.363	63.15
353.575	52.91
353.787	110.25
353.999	83.63
354.21	159.4
354.422	106.15
354.633	110.25
354.845	91.82
355.057	59.05
355.268	36.52
355.48	57
355.692	75.43
355.903	-4.44
356.115	63.15
356.326	65.19
356.538	134.82
356.749	36.52
356.961	95.91
357.172	67.24
357.384	-6.49
357.595	67.24
357.807	34.47
358.018	38.57
358.23	-35.16
358.441	61.1
358.653	112.3
358.864	11.95
359.075	118.44
359.287	65.19
359.498	59.05
359.709	57
359.921	61.1
360.132	28.33
360.344	77.48
360.555	48.81
360.766	145.06
360.977	100.01
361.189	122.54
361.4	22.19
361.611	79.53
361.823	136.87
362.034	83.63
362.245	-35.16
362.456	69.29
362.667	54.95
362.879	46.76
363.09	48.81
363.301	26.28
363.512	50.86
363.723	32.43
363.935	18.09
364.146	87.72
364.357	36.52
364.568	83.63
364.779	50.86
364.99	165.54
365.201	-4.44
365.412	48.81
365.623	28.33
365.834	71.34
366.045	-10.58
366.256	120.49
366.467	128.68
366.678	75.43
366.889	89.77
367.1	28.33
367.311	159.4
367.522	24.23
367.733	61.1
367.944	177.83
368.155	18.09
368.366	67.24
368.577	95.91
368.788	91.82
368.999	81.58
369.209	102.06
369.42	69.29
369.631	106.15
369.842	52.91
370.053	44.71
370.264	126.63
370.474	61.1
370.685	46.76
370.896	9.9
371.107	163.5
371.317	118.44
371.528	59.05
371.739	126.63
371.95	106.15
372.16	110.25
372.371	73.39
372.582	34.47
372.792	159.4
373.003	54.95
373.214	16.04
373.424	179.88
373.635	1.71
373.846	106.15
374.056	147.11
374.267	57
374.477	151.21
374.688	16.04
374.898	124.58
375.109	95.91
375.319	75.43
375.53	52.91
375.74	63.15
375.951	89.77
376.161	48.81
376.372	112.3
376.582	100.01
376.793	110.25
377.003	18.09
377.214	52.91
377.424	140.97
377.635	71.34
377.845	120.49
378.055	102.06
378.266	65.19
378.476	36.52
378.686	91.82
378.897	83.63
379.107	118.44
379.317	36.52
379.528	52.91
379.738	106.15
379.948	73.39
380.158	77.48
380.369	18.09
380.579	116.39
380.789	30.38
380.999	140.97
381.21	65.19
381.42	110.25
381.63	57
381.84	171.69
382.05	63.15
382.261	36.52
382.471	50.86
382.681	114.34
382.891	61.1
383.101	106.15
383.311	38.57
383.521	42.67
383.731	151.21
383.941	140.97
384.151	65.19
384.361	34.47
384.571	52.91
384.781	83.63
384.991	57
385.201	196.26
385.411	118.44
385.621	30.38
385.831	118.44
386.041	112.3
386.251	52.91
386.461	97.96
386.671	81.58
386.881	75.43
387.091	-4.44
387.301	18.09
387.511	89.77
387.72	20.14
387.93	81.58
388.14	71.34
388.35	81.58
388.56	104.11
388.769	116.39
388.979	114.34
389.189	75.43
389.399	73.39
389.609	75.43
389.818	155.3
390.028	79.53
390.238	102.06
390.447	22.19
390.657	83.63
390.867	44.71
391.076	52.91
391.286	48.81
391.496	136.87
391.705	42.67
391.915	106.15
392.125	102.06
392.334	89.77
392.544	108.2
392.753	81.58
392.963	83.63
393.172	36.52
393.382	40.62
393.591	57
393.801	48.81
394.01	75.43
394.22	89.77
394.429	59.05
394.639	102.06
394.848	89.77
395.058	44.71
395.267	81.58
395.477	116.39
395.686	153.26
395.895	130.73
396.105	183.98
396.314	112.3
396.524	61.1
396.733	28.33
396.942	173.74
397.152	143.02
397.361	91.82
397.57	106.15
397.78	149.16
397.989	44.71
398.198	89.77
398.407	100.01
398.617	167.59
398.826	149.16
399.035	100.01
399.244	120.49
399.453	95.91
399.663	81.58
399.872	157.35
400.081	138.92
400.29	97.96
400.499	124.58
400.708	140.97
400.917	161.45
401.127	54.95
401.336	79.53
401.545	167.59
401.754	206.5
401.963	116.39
402.172	57
402.381	212.65
402.59	122.54
402.799	151.21
403.008	167.59
403.217	106.15
403.426	188.07
403.635	175.78
403.844	188.07
404.053	192.17
404.262	155.3
404.471	272.04
404.68	239.27
404.888	173.74
405.097	202.41
405.306	216.74
405.515	181.93
405.724	177.83
405.933	231.08
406.142	249.51
406.35	214.7
406.559	173.74
406.768	167.59
406.977	253.61
407.185	175.78
407.394	173.74
407.603	255.65
407.812	241.32
408.02	237.22
408.229	313
408.438	327.33
408.646	243.37
408.855	325.29
409.064	302.76
409.272	331.43
409.481	364.2
409.69	399.01
409.898	390.82
410.107	366.25
410.315	437.92
410.524	450.21
410.733	442.02
410.941	407.2
411.15	466.6
411.358	435.88
411.567	517.79
411.775	499.36
411.984	433.83
412.192	515.75
412.401	411.3
412.609	575.14
412.818	601.76
413.026	603.81
413.234	599.71
413.443	568.99
413.651	634.53
413.86	575.14
414.068	738.98
414.276	677.54
414.485	704.16
414.693	773.79
414.901	806.56
415.11	800.41
415.318	794.27
415.526	837.28
415.734	886.43
415.943	919.2
416.151	915.1
416.359	902.81
416.567	911
416.776	1009.31
416.984	1158.81
417.192	1128.09
417.4	1197.72
417.608	1246.87
417.817	1210.01
418.025	1146.52
418.233	1306.26
418.441	1230.49
418.649	1293.97
418.857	1519.25
419.065	1451.67
419.273	1472.15
419.481	1570.45
419.689	1650.32
419.897	1699.47
420.105	1722
420.313	1740.43
420.521	1844.88
420.729	1916.56
420.937	1875.6
421.145	1986.19
421.353	2113.16
421.561	2219.66
421.769	2199.18
421.977	2375.3
422.185	2303.62
422.393	2387.59
422.601	2526.85
422.809	2563.72
423.017	2596.48
423.224	2754.18
423.432	2920.06
423.64	2840.19
423.848	3042.94
424.056	2901.63
424.263	3165.82
424.471	3264.12
424.679	3262.07
424.887	3483.25
425.094	3475.06
425.302	3587.7
425.51	3663.47
425.718	3831.41
425.925	3825.26
426.133	4001.39
426.341	4177.51
426.548	4370.02
426.756	4384.36
426.964	4456.04
427.171	4697.7
427.379	4849.25
427.586	5033.57
427.794	4863.58
428.001	5250.65
428.209	5492.31
428.417	5457.5
428.624	5762.64
428.832	5819.99
429.039	5787.22
429.247	5920.34
429.454	6372.94
429.662	6899.27
429.869	6270.54
430.076	6905.41
430.284	6487.62
430.491	6936.13
430.699	7116.35
430.906	7274.04
431.114	7347.77
431.321	7646.77
431.528	7788.08
431.736	8390.19
431.943	8629.8
432.15	8459.82
432.358	8410.67
432.565	9043.49
432.772	8906.27
432.979	9313.82
433.187	9408.03
433.394	9465.37
433.601	10141.2
433.808	10307.09
434.016	10051.09
434.223	10526.22
434.43	11396.6
434.637	11030.02
434.844	11736.57
435.052	11996.66
435.259	11929.08
435.466	12097.01
435.673	11890.17
435.88	12668.39
436.087	13180.39
436.294	13469.15
436.501	13184.48
436.708	13151.71
436.915	13651.42
437.122	14304.72
437.329	14241.23
437.537	14722.51
437.743	14917.06
437.95	14634.44
438.157	15525.31
438.364	16156.08
438.571	16059.83
438.778	16063.93
438.985	17436.06
439.192	16895.4
439.399	17477.02
439.606	16932.26
439.813	17810.84
440.02	19363.2
440.227	18883.98
440.433	18718.09
440.64	19158.41
440.847	19105.16
441.054	19729.79
441.261	20618.61
441.467	20761.97
441.674	21173.61
441.881	21943.64
442.088	21724.51
442.294	21372.26
442.501	21970.27
442.708	22467.92
442.914	23289.16
443.121	24423.73
443.328	23592.26
443.534	25361.7
443.741	24649.01
443.948	24454.45
444.154	26025.25
444.361	25763.11
444.568	25711.91
444.774	25988.38
444.981	26283.29
445.187	27182.35
445.394	28312.83
445.6	27886.85
445.807	30403.8
446.013	29326.57
446.22	29816.04
446.426	30547.16
446.633	30878.93
446.839	31843.52
447.046	30653.65
447.252	32593.08
447.459	32531.64
447.665	32552.12
447.871	33914.02
448.078	34485.4
448.284	32943.28
448.491	33959.08
448.697	35548.3
448.903	35943.56
449.11	36318.34
449.316	35335.31
449.522	36271.23
449.728	37315.7
449.935	37278.83
450.141	37295.22
450.347	38081.64
450.553	37198.96
450.76	37436.53
450.966	38511.71
451.172	38001.77
451.378	38995.03
451.584	38237.28
451.791	39027.8
451.997	38978.65
452.203	39636.05
452.409	39435.34
452.615	39283.8
452.821	37985.38
453.027	37112.95
453.233	39191.64
453.44	37475.44
453.646	37981.29
453.852	38261.86
454.058	38722.65
454.264	37565.55
454.47	38542.43
454.676	37688.43
454.882	38597.73
455.088	35310.74
455.294	35863.69
455.5	36258.95
455.705	36787.32
455.911	35662.99
456.117	34675.87
456.323	33987.75
456.529	31935.68
456.735	33412.27
456.941	32593.08
457.147	32017.6
457.352	31239.37
457.558	30694.61
457.764	30934.23
457.97	30166.24
458.176	29613.29
458.381	29603.05
458.587	28077.31
458.793	28161.28
458.999	26602.77
459.204	28474.62
459.41	27933.95
459.616	25777.44
459.821	25924.9
460.027	25754.91
460.233	25406.76
460.438	24143.16
460.644	24497.46
460.85	23250.25
461.055	22918.48
461.261	22666.58
461.466	21255.53
461.672	20460.91
461.878	21607.78
462.083	20727.15
462.289	20092.28
462.494	20141.43
462.7	19174.79
462.905	18757
463.111	19309.96
463.316	19174.79
463.522	18912.65
463.727	19047.82
463.932	18779.53
464.138	18763.15
464.343	18615.69
464.549	18353.55
464.754	18783.63
464.959	18752.91
465.165	18568.59
465.37	18042.26
465.575	17374.63
465.781	18144.66
465.986	18331.03
466.191	17479.07
466.397	17206.69
466.602	16199.09
466.807	16762.28
467.012	17206.69
467.218	17083.81
467.423	16692.65
467.628	16893.35
467.833	17544.61
468.038	16844.2
468.244	16571.82
468.449	17024.42
468.654	16401.84
468.859	16420.27
469.064	16422.32
469.269	15578.56
469.474	15756.73
469.679	15812.03
469.885	15453.63
470.09	15572.41
470.295	15705.53
470.5	15226.31
470.705	15521.21
470.91	14740.94
471.115	14824.9
471.32	15291.84
471.525	14769.61
471.73	14677.45
471.935	14464.46
472.139	14101.97
472.344	14376.4
472.549	14177.75
472.754	13829.59
472.959	13725.15
473.164	13407.71
473.369	13305.31
473.574	13825.5
473.778	13675.99
473.983	13639.13
474.188	13604.32
474.393	12762.6
474.598	12953.06
474.802	12709.35
475.007	12600.81
475.212	12682.73
475.417	12226.03
475.621	12170.74
475.826	12359.15
476.031	11965.94
476.235	11951.6
476.44	12060.15
476.645	11929.08
476.849	11845.11
477.054	11716.09
477.259	11552.25
477.463	11777.53
477.668	11222.53
477.872	11363.84
478.077	11017.73
478.282	10845.7
478.486	10784.26
478.691	10817.03
478.895	10819.08
479.1	10690.06
479.304	10620.42
479.509	10550.79
479.713	10548.75
479.918	10399.24
480.122	10321.42
480.326	10372.62
480.531	10352.14
480.735	10415.63
480.94	10102.29
481.144	10370.57
481.348	9911.83
481.553	10114.58
481.757	10028.56
481.961	10151.44
482.166	10112.53
482.37	10028.56
482.574	9999.89
482.778	10044.95
482.983	10257.93
483.187	9965.07
483.391	10255.89
483.595	9856.53
483.8	9836.05
484.004	9983.51
484.208	10098.19
484.412	10083.86
484.616	9983.51
484.821	10157.58
485.025	9848.34
485.229	9977.36
485.433	10030.61
485.637	9991.7
485.841	9846.29
486.045	9803.29
486.249	10071.57
486.453	9911.83
486.657	9897.49
486.861	9901.59
487.065	9965.07
487.269	9862.68
487.473	9868.82
487.677	10008.08
487.881	10036.75
488.085	10016.27
488.289	10137.1
488.493	10006.03
488.697	10063.38
488.901	9954.83
489.105	10036.75
489.309	10290.7
489.512	10229.26
489.716	10096.14
489.92	10198.54
490.124	10059.28
490.328	10391.05
490.531	10231.31
490.735	10266.13
490.939	10470.92
491.143	10368.52
491.346	10331.66
491.55	10563.08
491.754	10382.86
491.958	10282.51
492.161	10505.74
492.365	10626.57
492.569	10634.76
492.772	10616.33
492.976	10724.87
493.18	10794.5
493.383	10896.9
493.587	11017.73
493.79	11075.07
493.994	10886.66
494.197	11032.07
494.401	11236.86
494.605	11007.49
494.808	11431.42
495.012	11429.37
495.215	11546.11
495.419	11775.48
495.622	11421.18
495.825	11865.59
496.029	11617.79
496.232	12000.76
496.436	11974.13
496.639	12445.16
496.843	12381.68
497.046	12518.89
497.249	12785.13
497.453	12631.53
497.656	12662.25
497.859	12996.07
498.063	13073.89
498.266	13196.77
498.469	13129.19
498.673	13153.76
498.876	13475.29
499.079	13608.41
499.282	13680.09
499.485	14116.31
499.689	14208.47
499.892	14243.28
500.095	14616.01
500.298	14581.2
500.501	14431.69
500.705	14988.74
500.908	14937.54
501.111	15080.9
501.314	15400.38
501.517	15519.17
501.72	15699.39
501.923	15832.51
502.126	16469.42
502.329	16156.08
502.532	16412.08
502.735	16745.9
502.938	16842.15
503.141	16805.29
503.344	17032.61
503.547	17067.43
503.75	17470.88
503.953	17624.48
504.156	17710.49
504.359	18038.17
504.562	18306.45
504.765	18531.73
504.968	18603.41
505.17	19037.58
505.373	18972.04
505.576	19264.9
505.779	19539.33
505.982	19688.83
506.185	19924.35
506.387	20127.1
506.59	20342.13
506.793	20745.58
506.996	20626.8
507.198	21009.77
507.401	21116.26
507.604	21192.04
507.807	21695.84
508.009	21851.49
508.212	22023.51
508.415	22478.16
508.617	22578.51
508.82	22576.47
509.022	22631.76
509.225	23176.52
509.428	23549.25
509.63	23469.38
509.833	23801.15
510.035	24294.71
510.238	23981.37
510.44	24272.18
510.643	25070.89
510.845	24995.12
511.048	25212.2
511.25	25175.34
511.453	25474.34
511.655	26309.91
511.858	26158.36
512.06	26129.69
512.262	26570.01
512.465	26756.37
512.667	27014.41
512.87	27540.74
513.072	27534.6
513.274	27888.9
513.477	28130.56
513.679	28552.44
513.881	28726.52
514.084	29168.88
514.286	29402.35
514.488	29383.91
514.69	30254.3
514.893	30209.25
515.095	29977.83
515.297	30704.85
515.499	30708.95
515.701	30979.28
515.904	31700.17
516.106	31835.33
516.308	32169.15
516.51	32328.89
516.712	32617.66
516.914	32885.94
517.116	33782.95
517.318	33381.55
517.52	34380.96
517.722	34413.73
517.925	34317.47
518.127	34636.95
518.329	34575.52
518.531	34792.6
518.733	35607.69
518.935	36060.29
519.136	35961.99
519.338	36361.34
519.54	36463.74
519.742	37102.71
519.944	37426.29
520.146	37747.82
520.348	37786.73
520.55	37807.21
520.752	38143.08
520.954	39261.27
521.155	38775.9
521.357	39496.78
521.559	39844.94
521.761	40399.94
521.963	39906.38
522.164	40334.4
522.366	40621.12
522.568	41059.38
522.77	41186.36
522.971	41808.94
523.173	41690.16
523.375	41991.21
523.576	41747.5
523.778	42300.45
523.98	42789.92
524.181	43078.68
524.383	43000.86
524.584	43529.23
524.786	43435.03
524.988	43668.5
525.189	44018.7
525.391	44215.3
525.592	44442.63
525.794	45110.27
525.995	44925.95
526.197	45169.66
526.398	45048.83
526.6	45820.91
526.801	45655.03
527.003	45571.06
527.204	45388.79
527.406	46162.92
527.607	46167.02
527.808	46859.23
528.01	45704.18
528.211	46730.21
528.412	47227.87
528.614	47209.43
528.815	47113.18
529.016	47567.83
529.218	46955.49
529.419	47096.8
529.62	47490.01
529.822	47846.35
530.023	47569.88
530.224	47557.59
530.425	48061.39
530.626	47586.26
530.828	48014.29
531.029	48444.36
531.23	48128.97
531.431	48339.91
531.632	48243.66
531.833	48364.49
532.035	48675.78
532.236	48894.91
532.437	48759.75
532.638	48468.94
532.839	48616.39
533.04	48862.15
533.241	48370.63
533.442	49433.53
533.643	49013.69
533.844	48903.1
534.045	48968.64
534.246	48632.77
534.447	49347.51
534.648	49099.71
534.849	49210.3
535.05	48665.54
535.251	49165.24
535.451	49066.94
535.652	49492.92
535.853	49275.83
536.054	49386.43
536.255	49380.28
536.456	49222.59
536.657	49642.42
536.857	49345.47
537.058	49234.88
537.259	49460.15
537.46	49425.34
537.66	49183.68
537.861	49527.73
538.062	49202.11
538.263	49298.36
538.463	49013.69
538.664	49419.19
538.865	49703.86
539.065	49634.23
539.266	48743.36
539.466	49607.61
539.667	48950.21
539.868	50140.08
540.068	49159.1
540.269	49003.45
540.469	49322.94
540.67	49013.69
540.87	49134.52
541.071	49165.24
541.271	49249.21
541.472	48839.62
541.672	48765.89
541.873	48776.13
542.073	48583.62
542.274	49238.97
542.474	48696.26
542.675	48939.97
542.875	49085.37
543.075	48812.99
543.276	48649.16
543.476	49224.64
543.676	48991.17
543.877	48493.51
544.077	49042.37
544.277	48706.5
544.478	49017.79
544.678	49116.09
544.878	48763.84
545.078	49062.85
545.279	48618.44
545.479	48567.24
545.679	48972.74
545.879	49261.5
546.079	48731.08
546.28	48571.33
546.48	48423.88
546.68	48944.06
546.88	48939.97
547.08	48788.42
547.28	48927.68
547.48	48282.57
547.68	48634.82
547.88	48507.85
548.081	49017.79
548.281	48638.92
548.481	48612.29
548.681	48890.82
548.881	48565.19
549.081	48745.41
549.28	48208.84
549.48	48935.87
549.68	48640.96
549.88	48776.13
550.08	47971.28
550.28	48661.44
550.48	48366.54
550.68	48716.74
550.88	48219.08
551.08	48501.7
551.279	48331.72
551.479	47858.64
551.679	48501.7
551.879	48223.18
552.079	48237.51
552.278	48157.64
552.478	47784.91
552.678	48178.12
552.878	48468.94
553.077	48380.87
553.277	48002
553.477	48812.99
553.676	47922.13
553.876	48200.65
554.076	47967.18
554.275	47993.81
554.475	47569.88
554.674	47877.07
554.874	47666.13
555.074	47653.84
555.273	48131.02
555.473	48335.82
555.672	47500.25
555.872	48006.09
556.071	47922.13
556.271	47731.67
556.47	47608.79
556.67	47637.46
556.869	47272.92
557.068	47606.74
557.268	47354.84
557.467	47051.74
557.667	47637.46
557.866	47469.53
558.065	46683.11
558.265	47219.67
558.464	46894.05
558.663	47436.76
558.863	46461.93
559.062	47277.02
559.261	46429.16
559.461	47399.9
559.66	46418.92
559.859	46769.12
560.058	46398.44
560.258	46449.64
560.457	45972.46
560.656	46650.34
560.855	46191.59
561.054	46644.19
561.253	45720.56
561.453	46056.43
561.652	46156.78
561.851	46384.1
562.05	45556.72
562.249	45618.16
562.448	46040.04
562.647	45650.93
562.846	45771.76
563.045	45691.89
563.244	45204.47
563.443	45538.29
563.642	44592.13
563.841	45362.17
564.04	45179.9
564.239	45216.76
564.438	44672
564.637	44975.1
564.836	44434.44
565.035	44270.6
565.234	44807.17
565.432	44030.99
565.631	44407.81
565.83	44045.32
566.029	44053.51
566.228	44127.24
566.427	43600.91
566.625	43467.8
566.824	43090.97
567.023	43627.54
567.222	42841.12
567.42	43523.09
567.619	43389.97
567.818	43461.65
568.016	43217.94
568.215	43297.81
568.414	42540.07
568.612	43076.63
568.811	42794.01
569.01	42855.45
569.208	42310.69
569.407	42603.55
569.605	42167.34
569.804	42583.07
570.002	42173.48
570.201	41964.59
570.4	42107.94
570.598	41712.69
570.797	41690.16
570.995	41487.41
571.193	41143.35
571.392	41552.94
571.59	40864.83
571.789	40985.66
571.987	40967.23
572.186	40776.76
572.384	40657.98
572.582	40997.95
572.781	40860.73
572.979	40625.21
573.177	40442.95
573.376	40858.68
573.574	40141.89
573.772	40447.04
573.971	40211.53
574.169	39978.06
574.367	39728.2
574.565	40002.63
574.763	39550.03
574.962	39982.15
575.16	38960.22
575.358	39519.31
575.556	39007.32
575.754	39482.45
575.952	38833.24
576.151	39181.4
576.349	38810.71
576.547	38620.25
576.745	38876.25
576.943	38644.83
577.141	38708.32
577.339	38476.9
577.537	38376.55
577.735	38409.31
577.933	37975.14
578.131	38368.35
578.329	38028.39
578.527	37690.48
578.725	37960.81
578.923	38003.81
579.121	37375.09
579.319	37231.73
579.516	37659.76
579.714	37391.47
579.912	37057.65
580.11	37041.27
580.308	37043.32
580.506	37106.8
580.704	36115.59
580.901	36942.97
581.099	37086.32
581.297	36711.55
581.495	36486.27
581.692	36801.66
581.89	36002.95
582.088	36652.16
582.285	36310.14
582.483	36562.04
582.681	36062.34
582.878	35853.45
583.076	35284.11
583.274	36045.96
583.471	35660.94
583.669	35683.47
583.866	35298.45
584.064	35562.64
584.262	34784.41
584.459	35755.15
584.657	34923.67
584.854	35308.69
585.052	34579.61
585.249	34983.06
585.447	34907.29
585.644	34522.27
585.841	34378.91
586.039	34653.34
586.236	34133.15
586.434	34186.4
586.631	34178.21
586.828	34170.02
587.026	34210.98
587.223	33707.18
587.42	33856.68
587.618	33889.45
587.815	33383.6
588.012	33186.99
588.21	33330.35
588.407	33416.36
588.604	33289.39
588.801	33109.17
588.999	33098.93
589.196	33117.36
589.393	32816.31
589.59	32505.02
589.787	32599.23
589.984	32361.66
590.182	32138.43
590.379	32507.07
590.576	32392.38
590.773	32554.17
590.97	32042.18
591.167	32269.5
591.364	31677.64
591.561	32132.29
591.758	31577.29
591.955	31777.99
592.152	31814.85
592.349	31339.72
592.546	31476.94
592.743	31478.99
592.94	30815.44
593.137	31108.3
593.334	30956.75
593.531	30768.34
593.727	31044.82
593.924	30926.03
594.121	31024.34
594.318	30942.42
594.515	29865.19
594.712	30610.65
594.908	29893.86
595.105	30428.38
595.302	29983.97
595.499	30305.5
595.696	29947.11
595.892	29654.25
596.089	29682.92
596.286	30094.56
596.482	29594.86
596.679	29793.51
596.876	29488.36
597.072	29304.04
597.269	29478.12
597.466	29412.59
597.662	28990.7
597.859	29082.86
598.055	29453.55
598.252	28673.27
598.448	28996.85
598.645	29177.07
598.841	28345.59
599.038	28589.3
599.234	28368.12
599.431	28439.8
599.627	28151.04
599.824	28318.97
600.02	28177.66
600.217	28435.7
600.413	27837.7
600.609	28087.55
600.806	27804.93
601.002	27628.81
601.198	27561.22
601.395	27458.82
601.591	27497.74
601.787	27622.66
601.984	27350.28
602.18	27403.53
602.376	27227.4
602.572	27346.19
602.769	27276.55
602.965	27313.42
603.161	27206.92
603.357	26787.09
603.553	26604.82
603.75	26711.32
603.946	26314.01
604.142	26692.88
604.338	26021.15
604.534	26326.3
604.73	26215.71
604.926	26113.31
605.122	26383.64
605.318	25892.13
605.514	25861.41
605.71	25564.45
605.906	25611.56
606.102	25752.87
606.298	25855.26
606.494	25507.11
606.69	25701.67
606.886	25677.09
607.082	25279.78
607.278	25486.63
607.474	25171.24
607.67	25181.48
607.866	24823.09
608.062	25265.45
608.257	25167.15
608.453	24923.44
608.649	25031.98
608.845	24665.39
609.041	24925.49
609.236	24659.25
609.432	24724.79
609.628	24489.27
609.824	24546.61
610.019	24284.47
610.215	24515.89
610.411	24409.4
610.606	24061.24
610.802	24466.74
610.998	24300.86
611.193	24169.79
611.389	24198.46
611.584	24134.97
611.78	23907.65
611.976	23997.76
612.171	24112.44
612.367	24268.09
612.562	23711.04
612.758	23219.53
612.953	23493.96
613.149	23840.06
613.344	23346.5
613.539	23936.32
613.735	23602.5
613.93	23432.52
614.126	23172.43
614.321	23479.62
614.517	23162.19
614.712	23135.56
614.907	23475.52
615.103	23303.5
615.298	23113.03
615.493	23248.2
615.688	22893.9
615.884	23278.92
616.079	22760.78
616.274	22744.4
616.47	22877.52
616.665	22822.22
616.86	22666.58
617.055	22762.83
617.25	22584.66
617.445	22594.9
617.641	22238.55
617.836	22572.37
618.031	22173.02
618.226	22660.43
618.421	22199.64
618.616	22293.85
618.811	21923.16
619.006	22506.84
619.201	21650.78
619.396	22379.86
619.591	21902.68
619.786	21839.2
619.981	21435.75
620.176	21513.57
620.371	21441.89
620.566	21431.65
620.761	21388.64
620.956	21464.42
621.151	21001.58
621.346	21175.66
621.541	20702.57
621.735	21034.35
621.93	20661.62
622.125	20569.46
622.32	20499.83
622.515	20600.18
622.709	20280.69
622.904	20069.75
623.099	20030.84
623.294	20286.84
623.488	19778.94
623.683	20313.46
623.878	19537.28
624.072	19604.86
624.267	19524.99
624.462	19148.17
624.656	19207.56
624.851	19152.26
625.046	18972.04
625.24	18941.32
625.435	18775.44
625.629	18804.11
625.824	18382.23
626.018	18924.94
626.213	18038.17
626.407	18492.82
626.602	18001.3
626.796	18204.05
626.991	18355.6
627.185	17882.52
627.38	17859.99
627.574	17808.79
627.768	17618.33
627.963	17575.33
628.157	17507.74
628.352	17509.79
628.546	17243.56
628.74	17350.05
628.935	16919.98
629.129	16985.51
629.323	17061.29
629.517	16864.68
629.712	16790.95
629.906	16807.34
630.1	16293.3
630.294	16588.21
630.489	16324.02
630.683	16549.29
630.877	16190.9
631.071	16031.16
631.265	15922.62
631.459	15941.05
631.653	15934.9
631.848	15988.15
632.042	15603.13
632.236	15635.9
632.43	15494.59
632.624	15494.59
632.818	15338.94
633.012	15263.17
633.206	15291.84
633.4	15146.44
633.594	14982.6
633.788	14888.39
633.982	15005.13
634.176	14656.97
634.369	14640.59
634.563	14659.02
634.757	14312.91
634.951	14599.63
635.145	14450.13
635.339	14259.67
635.533	14357.97
635.726	14208.47
635.92	13954.52
636.114	14130.64
636.308	14144.98
636.501	13970.9
636.695	13886.93
636.889	13716.95
637.083	13837.78
637.276	13481.44
637.47	13409.76
637.664	13579.74
637.857	13364.7
638.051	13319.65
638.244	13164
638.438	13127.14
638.632	13000.16
638.825	13051.36
639.019	12916.2
639.212	12877.29
639.406	12830.18
639.599	13008.36
639.793	12729.83
639.986	12494.32
640.18	12377.58
640.373	12434.92
640.567	12201.46
640.76	12445.16
640.954	12396.01
641.147	12174.83
641.34	11871.73
641.534	12119.54
641.727	12119.54
641.92	11820.53
642.114	11996.66
642.307	11898.36
642.5	11869.69
642.694	11359.74
642.887	11589.11
643.08	11697.66
643.273	11316.73
643.467	11179.52
643.66	11068.93
643.853	11146.75
644.046	10948.1
644.239	11007.49
644.432	10925.57
644.626	10993.15
644.819	10862.08
645.012	10728.97
645.205	10843.65
645.398	10874.37
645.591	10575.37
645.784	10595.85
645.977	10481.16
646.17	10618.38
646.363	10434.06
646.556	10515.98
646.749	10397.2
646.942	10266.13
647.135	10210.83
647.328	10145.3
647.521	10135.06
647.714	9975.31
647.907	9922.07
648.099	10014.23
648.292	9975.31
648.485	9885.2
648.678	9535
648.871	9694.74
649.064	9383.45
649.256	9637.4
649.449	9422.36
649.642	9438.75
649.835	9453.08
650.027	9432.6
650.22	9352.73
650.413	9272.86
650.605	9047.58
650.798	9324.06
650.991	9201.18
651.183	8990.24
651.376	9018.91
651.568	9016.87
651.761	8953.38
651.954	8967.71
652.146	8840.74
652.339	8904.23
652.531	8748.58
652.724	8697.38
652.916	8689.19
653.109	8695.33
653.301	8513.06
653.494	8465.96
653.686	8375.85
653.879	8355.37
654.071	8207.92
654.263	8146.48
654.456	8334.89
654.648	8212.01
654.84	8130.09
655.033	8195.63
655.225	8152.62
655.417	8064.56
655.61	8148.53
655.802	7921.2
655.994	7867.95
656.186	7827
656.379	7777.84
656.571	7792.18
656.763	7599.67
656.955	7687.73
657.148	7808.56
657.34	7677.49
657.532	7435.83
657.724	7368.25
657.916	7417.4
658.108	7509.56
658.3	7464.5
658.492	7532.09
658.684	7405.11
658.876	7321.15
659.068	7247.42
659.26	7171.65
659.452	7433.79
659.644	7269.95
659.836	7181.89
660.028	7077.44
660.22	7083.58
660.412	7052.86
660.604	6739.52
660.796	6862.4
660.988	7011.9
661.18	6913.6
661.372	6792.77
661.563	6966.85
661.755	6788.68
661.947	6770.24
662.139	6702.66
662.331	6770.24
662.522	6417.99
662.714	6536.77
662.906	6583.88
663.097	6512.2
663.289	6540.87
663.481	6473.29
663.673	6495.82
663.864	6561.35
664.056	6276.68
664.247	6323.79
664.439	6272.59
664.631	6366.79
664.822	6116.94
665.014	6235.72
665.205	6172.24
665.397	6135.37
665.588	6219.34
665.78	6176.33
665.971	6180.43
666.163	6067.79
666.354	6041.17
666.546	5908.05
666.737	5946.96
666.929	5963.34
667.12	5953.1
667.311	5811.79
667.503	5961.3
667.694	5865.04
667.885	5754.45
668.077	5957.2
668.268	5740.12
668.459	5619.28
668.651	5711.44
668.842	5721.68
669.033	5647.96
669.224	5660.24
669.416	5707.35
669.607	5647.96
669.798	5525.08
669.989	5604.95
670.18	5658.2
670.371	5430.87
670.563	5514.84
670.754	5451.35
670.945	5307.99
671.136	5611.09
671.327	5516.89
671.518	5453.4
671.709	5482.07
671.9	5416.54
672.091	5351
672.282	5277.27
672.473	5375.58
672.664	5301.85
672.855	5301.85
673.046	5355.1
673.237	5420.63
673.428	5070.43
673.619	5092.96
673.809	5123.68
674	5240.41
674.191	5320.28
674.382	5193.31
674.573	5183.07
674.764	5015.13
674.954	5074.53
675.145	5017.18
675.336	4974.17
675.527	5045.85
675.717	5088.86
675.908	5131.87
676.099	5029.47
676.289	5047.9
676.48	5068.38
676.671	5080.67
676.861	5047.9
677.052	4959.84
677.243	4974.17
677.433	4992.61
677.624	5025.37
677.814	4869.73
678.005	5099.1
678.195	5049.95
678.386	4888.16
678.576	4849.25
678.767	4763.23
678.957	4734.56
679.148	4828.77
679.338	4814.43
679.529	4828.77
679.719	4742.75
679.909	4816.48
680.1	4781.67
680.29	4900.45
680.481	4906.59
680.671	4845.15
680.861	4965.98
681.052	4734.56
681.242	4716.13
681.432	4851.3
681.622	4785.76
681.813	4820.58
682.003	4845.15
682.193	4734.56
682.383	4720.23
682.573	4712.03
682.764	4626.02
682.954	4826.72
683.144	4787.81
683.334	4798.05
683.524	4666.98
683.714	4646.5
683.904	4677.22
684.094	4677.22
684.284	4724.32
684.474	4650.6
684.664	4699.75
684.854	4779.62
685.044	4660.84
685.234	4630.12
685.424	4675.17
685.614	4654.69
685.804	4660.84
685.994	4460.13
686.184	4511.33
686.374	4464.23
686.564	4453.99
686.753	4533.86
686.943	4472.42
687.133	4589.16
687.323	4390.5
687.513	4445.8
687.702	4294.25
687.892	4501.09
688.082	4402.79
688.272	4556.39
688.461	4431.46
688.651	4306.54
688.841	4464.23
689.03	4390.5
689.22	4284.01
689.41	4281.96
689.599	4396.65
689.789	4335.21
689.979	4128.36
690.168	4218.47
690.358	4146.8
690.547	4171.37
690.737	4263.53
690.926	4193.9
691.116	3995.25
691.305	4161.13
691.495	4056.68
691.684	4058.73
691.874	4136.56
692.063	4236.91
692.252	3995.25
692.442	4056.68
692.631	4036.21
692.82	3862.13
693.01	4066.92
693.199	3864.18
693.388	3964.53
693.578	3870.32
693.767	3868.27
693.956	3935.85
694.146	3745.39
694.335	3837.55
694.524	4021.87
694.713	3792.5
694.902	3829.36
695.092	3870.32
695.281	3794.54
695.47	4030.06
695.659	3853.94
695.848	3720.82
696.037	3907.18
696.226	3769.97
696.415	3757.68
696.604	3876.46
696.793	3839.6
696.982	3927.66
697.171	3696.24
697.36	3698.29
697.549	3686
697.738	3726.96
697.927	3786.35
698.116	3737.2
698.305	3796.59
698.494	3640.95
698.683	3694.19
698.872	3741.3
699.061	3671.67
699.25	3614.32
699.438	3688.05
699.627	3679.86
699.816	3761.78
700.005	3681.91
700.193	3776.11
700.382	3735.15
700.571	3747.44
700.76	3708.53
700.948	3692.15
701.137	3544.69
701.326	3761.78
701.514	3583.6
701.703	3673.71
701.892	3731.06
702.08	3630.71
702.269	3677.81
702.457	3595.89
702.646	3675.76
702.834	3522.16
703.023	3665.52
703.212	3673.71
703.4	3606.13
703.589	3452.53
703.777	3640.95
703.965	3630.71
704.154	3522.16
704.342	3700.34
704.531	3620.47
704.719	3624.56
704.907	3661.43
705.096	3432.05
705.284	3567.22
705.472	3681.91
705.661	3587.7
705.849	3731.06
706.037	3546.74
706.226	3591.8
706.414	3690.1
706.602	3573.36
706.79	3563.12
706.979	3540.6
707.167	3571.32
707.355	3526.26
707.543	3575.41
707.731	3577.46
707.919	3643
708.107	3577.46
708.296	3608.18
708.484	3716.72
708.672	3524.21
708.86	3540.6
709.048	3567.22
709.236	3444.34
709.424	3466.87
709.612	3610.23
709.8	3483.25
709.988	3661.43
710.176	3622.52
710.364	3599.99
710.551	3575.41
710.739	3454.58
710.927	3509.88
711.115	3513.97
711.303	3559.03
711.491	3581.56
711.679	3526.26
711.866	3567.22
712.054	3526.26
712.242	3522.16
712.43	3616.37
712.617	3565.17
712.805	3604.08
712.993	3538.55
713.181	3509.88
713.368	3575.41
713.556	3489.4
713.744	3513.97
713.931	3618.42
714.119	3516.02
714.306	3614.32
714.494	3550.84
714.682	3501.69
714.869	3561.08
715.057	3518.07
715.244	3581.56
715.432	3616.37
715.619	3470.97
715.807	3522.16
715.994	3538.55
716.182	3511.93
716.369	3501.69
716.556	3524.21
716.744	3489.4
716.931	3616.37
717.119	3513.97
717.306	3577.46
717.493	3425.91
717.681	3487.35
717.868	3518.07
718.055	3436.15
718.242	3477.11
718.43	3513.97
718.617	3452.53
718.804	3409.53
718.991	3462.77
719.179	3532.4
719.366	3503.73
719.553	3626.61
719.74	3542.64
719.927	3589.75
720.114	3513.97
720.301	3548.79
720.488	3499.64
720.676	3370.62
720.863	3513.97
721.05	3575.41
721.237	3458.68
721.424	3520.12
721.611	3483.25
721.798	3366.52
721.985	3538.55
722.172	3458.68
722.358	3393.14
722.545	3470.97
722.732	3432.05
722.919	3473.01
723.106	3427.96
723.293	3350.14
723.48	3393.14
723.667	3493.49
723.853	3458.68
724.04	3417.72
724.227	3364.47
724.414	3477.11
724.6	3538.55
724.787	3421.81
724.974	3335.8
725.161	3395.19
725.347	3448.44
725.534	3475.06
725.72	3413.62
725.907	3311.22
726.094	3348.09
726.28	3522.16
726.467	3309.18
726.653	3321.46
726.84	3464.82
727.027	3284.6
727.213	3356.28
727.4	3321.46
727.586	3288.7
727.773	3303.03
727.959	3341.94
728.145	3290.74
728.332	3247.74
728.518	3309.18
728.705	3366.52
728.891	3376.76
729.077	3251.83
729.264	3329.66
729.45	3247.74
729.636	3409.53
729.823	3272.31
730.009	3249.79
730.195	3372.66
730.382	3188.35
730.568	3278.46
730.754	3290.74
730.94	3241.59
731.126	3364.47
731.313	3284.6
731.499	3278.46
731.685	3225.21
731.871	3253.88
732.057	3153.53
732.243	3276.41
732.429	3294.84
732.615	3346.04
732.801	3399.29
732.987	3255.93
733.173	3341.94
733.359	3321.46
733.545	3214.97
733.731	3245.69
733.917	3305.08
734.103	3122.81
734.289	3262.07
734.475	3192.44
734.661	3233.4
734.847	3196.54
735.033	3223.16
735.219	3276.41
735.404	3223.16
735.59	3253.88
735.776	3257.98
735.962	3135.1
736.148	3303.03
736.333	3174.01
736.519	3120.76
736.705	3253.88
736.89	3165.82
737.076	3108.48
737.262	3106.43
737.447	3085.95
737.633	3151.48
737.819	3169.91
738.004	3088
738.19	3131
738.375	3135.1
738.561	3149.43
738.747	2993.79
738.932	3157.63
739.118	3042.94
739.303	3182.2
739.489	3090.04
739.674	3094.14
739.859	2952.83
740.045	3016.32
740.23	2954.88
740.416	2954.88
740.601	2860.67
740.786	2971.26
740.972	2981.5
741.157	2956.93
741.342	2909.82
741.528	2887.29
741.713	2842.24
741.898	2840.19
742.084	2698.88
742.269	2844.29
742.454	2842.24
742.639	2838.14
742.824	2825.86
743.01	2936.45
743.195	2735.74
743.38	2795.14
743.565	2803.33
743.75	2893.44
743.935	2817.66
744.12	2745.98
744.305	2721.41
744.49	2721.41
744.675	2678.4
744.86	2682.5
745.045	2682.5
745.23	2614.91
745.415	2649.73
745.6	2782.85
745.785	2670.21
745.97	2702.98
746.155	2533
746.34	2629.25
746.525	2625.15
746.71	2514.56
746.895	2494.08
747.079	2479.75
747.264	2582.15
747.449	2600.58
747.634	2485.89
747.819	2467.46
748.003	2336.39
748.188	2412.17
748.373	2438.79
748.557	2340.49
748.742	2272.9
748.927	2459.27
749.111	2336.39
749.296	2346.63
749.481	2297.48
749.665	2295.43
749.85	2285.19
750.034	2260.62
750.219	2229.9
750.404	2262.66
750.588	2240.14
750.773	2098.83
750.957	2203.27
751.141	2139.79
751.326	2119.31
751.51	2147.98
751.695	2092.68
751.879	2066.06
752.064	2152.07
752.248	2072.2
752.432	2199.18
752.617	2127.5
752.801	2160.27
752.985	2008.72
753.17	2086.54
753.354	2049.68
753.538	1926.8
753.722	2000.52
753.907	2012.81
754.091	2053.77
754.275	2004.62
754.459	1965.71
754.643	1838.73
754.828	1906.32
755.012	1885.84
755.196	1859.21
755.38	1857.17
755.564	1787.54
755.748	1900.17
755.932	1859.21
756.116	1891.98
756.3	1756.82
756.484	1656.47
756.668	1732.24
756.852	1722
757.036	1748.62
757.22	1644.18
757.404	1627.79
757.588	1633.94
757.772	1678.99
757.956	1623.7
758.14	1613.46
758.323	1664.66
758.507	1705.62
758.691	1574.55
758.875	1775.25
759.059	1656.47
759.242	1607.31
759.426	1494.68
759.61	1601.17
759.794	1590.93
759.977	1506.96
760.161	1580.69
760.345	1541.78
760.528	1533.59
760.712	1470.1
760.895	1470.1
761.079	1537.68
761.263	1474.2
761.446	1443.48
761.63	1392.28
761.813	1502.87
761.997	1404.57
762.18	1388.18
762.364	1445.52
762.547	1293.97
762.731	1363.61
762.914	1388.18
763.098	1400.47
763.281	1347.22
763.464	1345.17
763.648	1402.52
763.831	1404.57
764.015	1404.57
764.198	1406.61
764.381	1298.07
764.564	1375.89
764.748	1314.45
764.931	1363.61
765.114	1261.21
765.297	1296.02
765.481	1240.73
765.664	1222.3
765.847	1283.74
766.03	1193.62
766.213	1306.26
766.397	1230.49
766.58	1371.8
766.763	1234.58
766.946	1167
767.129	1300.12
767.312	1183.38
767.495	1232.54
767.678	1367.7
767.861	1185.43
768.044	1207.96
768.227	1152.67
768.41	1263.26
768.593	1216.15
768.776	1197.72
768.959	1103.51
769.142	1236.63
769.324	1226.39
769.507	1150.62
769.69	1035.93
769.873	1183.38
770.056	1177.24
770.239	1154.71
770.421	1154.71
770.604	1121.95
770.787	1089.18
770.97	1009.31
771.152	1060.51
771.335	1130.14
771.518	1068.7
771.7	1142.43
771.883	1091.23
772.066	1056.41
772.248	1044.12
772.431	1142.43
772.613	1037.98
772.796	1085.08
772.978	1068.7
773.161	1058.46
773.343	999.07
773.526	1064.6
773.708	911
773.891	970.4
774.073	1058.46
774.256	984.73
774.438	962.2
774.621	990.88
774.803	1013.4
774.985	917.15
775.168	902.81
775.35	900.76
775.532	943.77
775.715	939.68
775.897	863.9
776.079	966.3
776.261	933.53
776.444	970.4
776.626	966.3
776.808	855.71
776.99	884.38
777.173	843.42
777.355	868
777.537	845.47
777.719	796.32
777.901	925.34
778.083	837.28
778.265	827.04
778.447	812.7
778.629	769.69
778.811	804.51
778.993	818.85
779.175	853.66
779.357	794.27
779.539	794.27
779.721	695.97
779.903	802.46
780.085	720.54
780.267	814.75
780.449	771.74
780.631	712.35
780.812	779.93
780.994	706.21
781.176	796.32
781.358	732.83
781.54	718.5
781.721	741.02
781.903	736.93
782.085	669.34
782.267	675.49
782.448	671.39
782.63	632.48
782.812	657.06
782.993	655.01
783.175	773.79
783.357	614.05
783.538	642.72
783.72	693.92
783.901	667.3
784.083	659.1
784.264	667.3
784.446	620.19
784.627	599.71
784.809	583.33
784.99	568.99
785.172	655.01
785.353	605.86
785.535	591.52
785.716	558.75
785.897	491.17
786.079	560.8
786.26	589.47
786.441	566.95
786.623	538.27
786.804	566.95
786.985	552.61
787.167	532.13
787.348	530.08
787.529	476.84
787.71	536.23
787.891	462.5
788.073	579.23
788.254	474.79
788.435	571.04
788.616	534.18
788.797	503.46
788.978	448.16
789.159	542.37
789.34	562.85
789.522	523.94
789.703	450.21
789.884	517.79
790.065	493.22
790.246	564.9
790.427	474.79
790.607	585.38
790.788	482.98
790.969	499.36
791.15	530.08
791.331	503.46
791.512	505.51
791.693	444.07
791.874	442.02
792.054	497.32
792.235	433.83
792.416	462.5
792.597	390.82
792.778	478.88
792.958	460.45
793.139	482.98
793.32	409.25
793.5	403.11
793.681	487.08
793.862	450.21
794.042	460.45
794.223	372.39
794.404	433.83
794.584	462.5
794.765	372.39
794.945	376.48
795.126	427.68
795.306	419.49
795.487	429.73
795.667	337.57
795.848	384.68
796.028	396.96
796.209	386.72
796.389	368.29
796.57	364.2
796.75	323.24
796.93	339.62
797.111	380.58
797.291	415.4
797.471	417.44
797.652	364.2
797.832	411.3
798.012	343.72
798.192	380.58
798.373	417.44
798.553	327.33
798.733	329.38
798.913	339.62
799.093	372.39
799.274	349.86
799.454	358.05
799.634	366.25
799.814	308.9
799.994	405.16
800.174	360.1
800.354	374.44
800.534	306.85
800.714	298.66
800.894	280.23
801.074	284.33
801.254	224.94
801.434	321.19
801.614	288.42
801.794	298.66
801.974	839.33
802.154	272.04
802.334	325.29
802.514	308.9
802.693	269.99
802.873	333.48
803.053	304.81
803.233	362.15
803.413	331.43
803.592	374.44
803.772	282.28
803.952	298.66
804.131	288.42
804.311	298.66
804.491	274.09
804.67	333.48
804.85	218.79
805.03	323.24
805.209	298.66
805.389	341.67
805.568	196.26
805.748	210.6
805.928	319.14
806.107	274.09
806.287	253.61
806.466	280.23
806.646	251.56
806.825	290.47
807.004	253.61
807.184	263.85
807.363	290.47
807.543	274.09
807.722	186.02
807.901	345.77
808.081	212.65
808.26	233.13
808.439	265.89
808.619	272.04
808.798	253.61
808.977	251.56
809.156	239.27
809.336	224.94
809.515	315.05
809.694	220.84
809.873	241.32
810.052	222.89
810.231	278.18
810.411	212.65
810.59	212.65
810.769	196.26
810.948	226.98
811.127	239.27
811.306	173.74
811.485	237.22
811.664	257.7
811.843	282.28
812.022	202.41
812.201	208.55
812.38	183.98
812.559	179.88
812.737	241.32
812.916	140.97
813.095	218.79
813.274	229.03
813.453	208.55
813.632	218.79
813.811	310.95
813.989	183.98
814.168	163.5
814.347	175.78
814.526	206.5
814.704	167.59
814.883	167.59
815.062	147.11
815.24	245.41
815.419	224.94
815.598	181.93
815.776	167.59
815.955	157.35
816.133	175.78
816.312	169.64
816.49	102.06
816.669	214.7
816.847	186.02
817.026	218.79
817.204	161.45
817.383	165.54
817.561	155.3
817.74	235.18
817.918	208.55
818.097	110.25
818.275	186.02
818.453	159.4
818.632	239.27
818.81	169.64
818.988	179.88
819.167	171.69
819.345	163.5
819.523	147.11
819.701	204.46
819.879	237.22
820.058	81.58
820.236	237.22
820.414	77.48
820.592	159.4
820.77	173.74
820.948	165.54
821.127	183.98
821.305	206.5
821.483	155.3
821.661	140.97
821.839	136.87
822.017	104.11
822.195	200.36
822.373	143.02
822.551	192.17
822.729	110.25
822.907	124.58
823.085	192.17
823.262	147.11
823.44	120.49
823.618	155.3
823.796	165.54
823.974	52.91
824.152	95.91
824.329	140.97
824.507	192.17
824.685	179.88
824.863	183.98
825.04	126.63
825.218	192.17
825.396	145.06
825.574	153.26
825.751	175.78
825.929	167.59
826.107	159.4
826.284	220.84
826.462	155.3
826.639	183.98
826.817	102.06
826.994	151.21
827.172	93.87
827.349	247.46
827.527	102.06
827.704	73.39
827.882	138.92
828.059	57
828.237	151.21
828.414	151.21
828.591	116.39
828.769	134.82
828.946	120.49
829.124	81.58
829.301	171.69
829.478	112.3
829.655	110.25
829.833	147.11
830.01	106.15
830.187	97.96
830.364	97.96
830.542	95.91
830.719	122.54
830.896	122.54
831.073	134.82
831.25	112.3
831.427	220.84
831.604	77.48
831.782	61.1
831.959	136.87
832.136	20.14
832.313	102.06
832.49	87.72
832.667	73.39
832.844	112.3
833.021	163.5
833.198	22.19
833.374	104.11
833.551	61.1
833.728	183.98
833.905	151.21
834.082	79.53
834.259	126.63
834.436	126.63
834.612	52.91
834.789	138.92
834.966	165.54
835.143	87.72
835.319	93.87
835.496	212.65
835.673	89.77
835.85	73.39
836.026	69.29
836.203	81.58
836.38	136.87
836.556	42.67
836.733	57
836.909	175.78
837.086	143.02
837.262	106.15
837.439	112.3
837.616	138.92
837.792	73.39
837.968	54.95
838.145	97.96
838.321	59.05
838.498	110.25
838.674	153.26
838.851	26.28
839.027	130.73
839.203	36.52
839.38	48.81
839.556	102.06
839.732	132.78
839.909	89.77
840.085	183.98
840.261	118.44
840.437	32.43
840.614	22.19
840.79	89.77
840.966	71.34
841.142	36.52
841.318	136.87
841.494	134.82
841.671	18.09
841.847	59.05
842.023	-35.16
842.199	54.95
842.375	147.11
842.551	87.72
842.727	151.21
842.903	147.11
843.079	57
843.255	167.59
843.431	67.24
843.607	81.58
843.783	118.44
843.959	65.19
844.134	57
844.31	24.23
844.486	147.11
844.662	52.91
844.838	106.15
845.013	91.82
845.189	118.44
845.365	100.01
845.541	36.52
845.716	102.06
845.892	40.62
846.068	57
846.244	18.09
846.419	57
846.595	102.06
846.77	59.05
846.946	116.39
847.122	40.62
847.297	34.47
847.473	118.44
847.648	114.34
847.824	75.43
847.999	28.33
848.175	67.24
848.35	77.48
848.526	71.34
848.701	52.91
848.876	95.91
849.052	116.39
849.227	7.85
849.403	20.14
849.578	32.43
849.753	-18.77
849.929	112.3
850.104	63.15
850.279	81.58
850.454	32.43
850.63	26.28
850.805	97.96
850.98	26.28
851.155	73.39
851.33	91.82
851.505	7.85
851.681	145.06
851.856	40.62
852.031	30.38
852.206	-20.82
852.381	63.15
852.556	44.71
852.731	34.47
852.906	65.19
853.081	75.43
853.256	149.16
853.431	7.85
853.606	54.95
853.781	102.06
853.956	20.14
854.131	-33.11
854.305	36.52
854.48	1.71
854.655	116.39
854.83	30.38
855.005	-31.06
855.18	102.06
855.354	20.14
855.529	38.57
855.704	32.43
855.879	46.76
856.053	38.57
856.228	34.47
856.403	32.43
856.577	73.39
856.752	32.43
856.926	-14.68
857.101	18.09
857.276	3.75
857.45	73.39
857.625	65.19
857.799	-16.73
857.974	108.2
858.148	9.9
858.323	3.75
858.497	-37.2
858.672	143.02
858.846	40.62
859.02	18.09
859.195	-14.68
859.369	151.21
859.543	26.28
859.718	54.95
859.892	44.71
860.066	69.29
860.241	44.71
860.415	143.02
860.589	87.72
860.763	32.43
860.938	40.62
861.112	77.48
861.286	-20.82
861.46	-16.73
861.634	114.34
861.808	73.39
861.982	-4.44
862.157	-12.63
862.331	69.29
862.505	13.99
862.679	18.09
862.853	24.23
863.027	69.29
863.201	97.96
863.375	89.77
863.549	100.01
863.722	93.87
863.896	73.39
864.07	93.87
864.244	28.33
864.418	77.48
864.592	93.87
864.766	42.67
864.939	110.25
865.113	24.23
865.287	114.34
865.461	42.67
865.634	118.44
865.808	46.76
865.982	18.09
866.156	26.28
866.329	-4.44
866.503	69.29
866.676	108.2
866.85	73.39
867.024	93.87
867.197	57
867.371	97.96
867.544	32.43
867.718	-20.82
867.891	91.82
868.065	-41.3
868.238	-20.82
868.412	48.81
868.585	28.33
868.759	-4.44
868.932	18.09
869.105	52.91
869.279	77.48
869.452	69.29
869.625	61.1
869.799	44.71
869.972	-55.64
870.145	-29.01
870.319	48.81
870.492	24.23
870.665	28.33
870.838	30.38
871.011	32.43
871.185	40.62
871.358	5.8
871.531	69.29
871.704	-4.44
871.877	-4.44
872.05	44.71
872.223	-33.11
872.396	28.33
872.569	50.86
872.742	85.67
872.915	42.67
873.088	5.8
873.261	93.87
873.434	87.72
873.607	-31.06
873.78	50.86
873.953	32.43
874.126	93.87
874.299	79.53
874.471	5.8
874.644	16.04
874.817	24.23
874.99	93.87
875.163	16.04
875.335	61.1
875.508	13.99
875.681	52.91
875.853	36.52
876.026	5.8
876.199	18.09
876.371	65.19
876.544	1.71
876.717	100.01
876.889	79.53
877.062	-24.92
877.234	-45.4
877.407	-12.63
877.579	44.71
877.752	24.23
877.924	83.63
878.097	69.29
878.269	85.67
878.442	-24.92
878.614	-74.07
878.786	38.57
878.959	-18.77
879.131	95.91
879.303	-31.06
879.476	-18.77
879.648	48.81
879.82	40.62
879.993	36.52
880.165	-16.73
880.337	-12.63
880.509	-6.49
880.681	102.06
880.854	1.71
881.026	32.43
881.198	44.71
881.37	-12.63
881.542	22.19
881.714	-14.68
881.886	11.95
882.058	-18.77
882.23	-14.68
882.402	32.43
882.574	63.15
882.746	61.1
882.918	69.29
883.09	48.81
883.262	-8.53
883.434	11.95
883.606	1.71
883.778	-12.63
883.95	54.95
884.122	104.11
884.293	32.43
884.465	34.47
884.637	50.86
884.809	-0.34
884.98	26.28
885.152	1.71
885.324	32.43
885.496	89.77
885.667	5.8
885.839	-0.34
886.011	26.28
886.182	28.33
886.354	44.71
886.525	9.9
886.697	46.76
886.869	71.34
887.04	-4.44
887.212	24.23
887.383	171.69
887.555	32.43
887.726	-16.73
887.897	30.38
888.069	16.04
888.24	-20.82
888.412	30.38
888.583	20.14
888.754	18.09
888.926	-31.06
889.097	-78.16
889.268	3.75
889.44	40.62
889.611	42.67
889.782	18.09
889.953	7.85
890.125	95.91
890.296	18.09
890.467	44.71
890.638	-24.92
890.809	-29.01
890.98	52.91
891.151	36.52
891.323	9.9
891.494	46.76
891.665	26.28
891.836	5.8
892.007	13.99
892.178	50.86
892.349	-2.39
892.52	50.86
892.691	-43.35
892.862	52.91
893.032	-78.16
893.203	26.28
893.374	46.76
893.545	28.33
893.716	-14.68
893.887	44.71
894.057	50.86
894.228	32.43
894.399	50.86
894.57	71.34
894.74	52.91
894.911	32.43
895.082	-29.01
895.253	-26.96
895.423	32.43
895.594	-12.63
895.764	26.28
895.935	9.9
896.106	-29.01
896.276	-29.01
896.447	44.71
896.617	-8.53
896.788	75.43
896.958	28.33
897.129	11.95
897.299	22.19
897.47	5.8
897.64	85.67
897.81	-0.34
897.981	26.28
898.151	-12.63
898.322	46.76
898.492	-86.36
898.662	24.23
898.832	36.52
899.003	-0.34
899.173	11.95
899.343	-31.06
899.513	-55.64
