Data from USB4F104151__209__10-29-51-904.txt Node

Date: Wed Mar 12 10:29:51 EDT 2025
User: louis
Spectrometer: USB4F10415
Trigger mode: 4
Integration Time (sec): 3.000000E-2
Scans to average: 1
Electric dark correction enabled: true
Nonlinearity correction enabled: false
Boxcar width: 0
XAxis mode: Wavelengths
Number of Pixels in Spectrum: 3648
>>>>>Begin Spectral Data<<<<<
178.204	-191.31
178.424	-191.31
178.644	-191.31
178.864	-156.5
179.084	-107.35
179.304	68.78
179.524	-31.57
179.744	-68.44
179.964	54.44
180.184	15.53
180.404	-33.62
180.624	-29.52
180.844	25.77
181.064	-21.33
181.283	95.4
181.503	-56.15
181.723	-19.29
181.943	19.63
182.163	85.16
182.383	42.15
182.602	113.83
182.822	50.35
183.042	40.11
183.262	17.58
183.482	79.02
183.701	-45.91
183.921	31.91
184.141	-56.15
184.361	21.67
184.58	46.25
184.8	60.59
185.02	25.77
185.239	46.25
185.459	52.39
185.679	56.49
185.898	40.11
186.118	50.35
186.338	33.96
186.557	7.34
186.777	9.39
186.997	38.06
187.216	89.26
187.436	29.87
187.655	122.02
187.875	60.59
188.095	19.63
188.314	81.07
188.534	38.06
188.753	48.3
188.973	42.15
189.192	60.59
189.412	27.82
189.631	36.01
189.851	56.49
190.07	56.49
190.29	-56.15
190.509	40.11
190.729	38.06
190.948	89.26
191.168	122.02
191.387	70.83
191.607	48.3
191.826	76.97
192.045	68.78
192.265	58.54
192.484	40.11
192.704	68.78
192.923	-43.86
193.142	181.42
193.362	15.53
193.581	97.45
193.8	42.15
194.02	74.92
194.239	72.87
194.458	117.93
194.678	-31.57
194.897	-31.57
195.116	21.67
195.335	-9.05
195.555	52.39
195.774	1.19
195.993	50.35
196.212	29.87
196.432	-41.81
196.651	72.87
196.87	25.77
197.089	76.97
197.308	95.4
197.528	91.31
197.747	-2.9
197.966	70.83
198.185	89.26
198.404	54.44
198.623	13.48
198.842	23.72
199.062	21.67
199.281	64.68
199.5	21.67
199.719	31.91
199.938	115.88
200.157	25.77
200.376	27.82
200.595	38.06
200.814	15.53
201.033	-11.09
201.252	107.69
201.471	64.68
201.69	27.82
201.909	50.35
202.128	48.3
202.347	101.55
202.566	60.59
202.785	21.67
203.004	-58.2
203.223	117.93
203.442	54.44
203.661	-76.63
203.879	66.73
204.098	76.97
204.317	-62.29
204.536	11.43
204.755	48.3
204.974	52.39
205.193	46.25
205.411	122.02
205.63	95.4
205.849	1.19
206.068	79.02
206.287	27.82
206.505	52.39
206.724	25.77
206.943	29.87
207.162	64.68
207.381	68.78
207.599	-17.24
207.818	54.44
208.037	-47.96
208.255	-7
208.474	72.87
208.693	64.68
208.911	54.44
209.13	-0.85
209.349	58.54
209.567	93.35
209.786	72.87
210.005	54.44
210.223	42.15
210.442	21.67
210.661	29.87
210.879	91.31
211.098	31.91
211.316	11.43
211.535	58.54
211.753	21.67
211.972	-21.33
212.191	9.39
212.409	27.82
212.628	29.87
212.846	23.72
213.065	138.41
213.283	76.97
213.502	122.02
213.72	60.59
213.938	21.67
214.157	9.39
214.375	21.67
214.594	15.53
214.812	27.82
215.031	-33.62
215.249	-15.19
215.467	105.64
215.686	42.15
215.904	31.91
216.122	-45.91
216.341	21.67
216.559	15.53
216.778	142.5
216.996	72.87
217.214	70.83
217.432	-35.67
217.651	-15.19
217.869	72.87
218.087	29.87
218.306	64.68
218.524	101.55
218.742	-27.48
218.96	107.69
219.179	48.3
219.397	89.26
219.615	132.26
219.833	50.35
220.051	-17.24
220.27	31.91
220.488	79.02
220.706	-7
220.924	89.26
221.142	40.11
221.36	46.25
221.578	36.01
221.796	50.35
222.015	44.2
222.233	46.25
222.451	87.21
222.669	38.06
222.887	107.69
223.105	-23.38
223.323	19.63
223.541	-9.05
223.759	68.78
223.977	29.87
224.195	97.45
224.413	9.39
224.631	58.54
224.849	38.06
225.067	144.55
225.285	-25.43
225.503	-29.52
225.721	72.87
225.939	-17.24
226.157	27.82
226.375	42.15
226.592	-19.29
226.81	23.72
227.028	58.54
227.246	101.55
227.464	25.77
227.682	54.44
227.9	60.59
228.117	124.07
228.335	95.4
228.553	42.15
228.771	74.92
228.989	87.21
229.206	3.24
229.424	48.3
229.642	-17.24
229.86	46.25
230.077	95.4
230.295	76.97
230.513	-9.05
230.731	64.68
230.948	74.92
231.166	40.11
231.384	21.67
231.601	-19.29
231.819	105.64
232.037	-9.05
232.254	48.3
232.472	-17.24
232.689	42.15
232.907	44.2
233.125	19.63
233.342	107.69
233.56	38.06
233.777	99.5
233.995	42.15
234.213	52.39
234.43	152.74
234.648	-35.67
234.865	-43.86
235.083	101.55
235.3	103.59
235.518	9.39
235.735	52.39
235.953	64.68
236.17	3.24
236.388	40.11
236.605	40.11
236.822	113.83
237.04	1.19
237.257	79.02
237.475	40.11
237.692	76.97
237.909	44.2
238.127	-37.72
238.344	17.58
238.562	85.16
238.779	11.43
238.996	101.55
239.214	21.67
239.431	-29.52
239.648	19.63
239.865	25.77
240.083	79.02
240.3	56.49
240.517	-41.81
240.735	23.72
240.952	72.87
241.169	-9.05
241.386	23.72
241.603	79.02
241.821	23.72
242.038	97.45
242.255	3.24
242.472	72.87
242.689	113.83
242.907	68.78
243.124	93.35
243.341	91.31
243.558	21.67
243.775	150.7
243.992	38.06
244.209	25.77
244.426	122.02
244.643	36.01
244.86	76.97
245.078	27.82
245.295	66.73
245.512	68.78
245.729	52.39
245.946	54.44
246.163	58.54
246.38	23.72
246.597	81.07
246.814	70.83
247.031	29.87
247.248	15.53
247.464	-27.48
247.681	99.5
247.898	60.59
248.115	-25.43
248.332	9.39
248.549	93.35
248.766	119.98
248.983	58.54
249.2	56.49
249.417	3.24
249.633	97.45
249.85	56.49
250.067	42.15
250.284	17.58
250.501	107.69
250.717	17.58
250.934	21.67
251.151	95.4
251.368	48.3
251.585	79.02
251.801	29.87
252.018	13.48
252.235	70.83
252.451	-25.43
252.668	19.63
252.885	167.08
253.102	29.87
253.318	17.58
253.535	15.53
253.752	52.39
253.968	48.3
254.185	79.02
254.401	68.78
254.618	-4.95
254.835	-0.85
255.051	119.98
255.268	101.55
255.484	74.92
255.701	54.44
255.917	66.73
256.134	-7
256.351	60.59
256.567	7.34
256.784	15.53
257	13.48
257.217	95.4
257.433	27.82
257.65	87.21
257.866	60.59
258.082	13.48
258.299	62.63
258.515	40.11
258.732	48.3
258.948	72.87
259.165	21.67
259.381	103.59
259.597	79.02
259.814	87.21
260.03	56.49
260.246	60.59
260.463	5.29
260.679	101.55
260.895	15.53
261.112	115.88
261.328	15.53
261.544	115.88
261.761	165.03
261.977	52.39
262.193	13.48
262.409	76.97
262.626	-4.95
262.842	48.3
263.058	13.48
263.274	60.59
263.49	-9.05
263.707	42.15
263.923	89.26
264.139	-9.05
264.355	-11.09
264.571	72.87
264.787	66.73
265.004	89.26
265.22	21.67
265.436	-29.52
265.652	7.34
265.868	64.68
266.084	-17.24
266.3	66.73
266.516	48.3
266.732	89.26
266.948	48.3
267.164	52.39
267.38	56.49
267.596	36.01
267.812	60.59
268.028	95.4
268.244	7.34
268.46	81.07
268.676	48.3
268.892	-13.14
269.108	46.25
269.324	87.21
269.54	42.15
269.756	105.64
269.972	23.72
270.188	29.87
270.403	-23.38
270.619	-17.24
270.835	56.49
271.051	119.98
271.267	58.54
271.483	79.02
271.698	38.06
271.914	46.25
272.13	74.92
272.346	36.01
272.562	38.06
272.777	25.77
272.993	31.91
273.209	-41.81
273.425	58.54
273.64	7.34
273.856	64.68
274.072	70.83
274.287	-29.52
274.503	109.74
274.719	89.26
274.934	-0.85
275.15	58.54
275.366	11.43
275.581	97.45
275.797	40.11
276.012	60.59
276.228	38.06
276.444	56.49
276.659	83.11
276.875	5.29
277.09	56.49
277.306	46.25
277.521	62.63
277.737	27.82
277.952	-41.81
278.168	25.77
278.383	132.26
278.599	31.91
278.814	81.07
279.03	5.29
279.245	83.11
279.461	68.78
279.676	109.74
279.892	-58.2
280.107	52.39
280.322	-2.9
280.538	89.26
280.753	89.26
280.969	64.68
281.184	52.39
281.399	64.68
281.615	-13.14
281.83	44.2
282.045	-35.67
282.26	89.26
282.476	7.34
282.691	68.78
282.906	91.31
283.122	36.01
283.337	5.29
283.552	76.97
283.767	36.01
283.983	117.93
284.198	17.58
284.413	79.02
284.628	-25.43
284.843	50.35
285.058	56.49
285.274	17.58
285.489	68.78
285.704	19.63
285.919	-9.05
286.134	154.79
286.349	56.49
286.564	52.39
286.779	128.17
286.995	36.01
287.21	81.07
287.425	56.49
287.64	-9.05
287.855	25.77
288.07	-0.85
288.285	-13.14
288.5	66.73
288.715	130.22
288.93	23.72
289.145	7.34
289.36	19.63
289.575	-23.38
289.79	23.72
290.004	3.24
290.219	46.25
290.434	48.3
290.649	-17.24
290.864	-7
291.079	46.25
291.294	36.01
291.509	76.97
291.724	-21.33
291.938	31.91
292.153	105.64
292.368	70.83
292.583	-11.09
292.798	122.02
293.012	70.83
293.227	-33.62
293.442	3.24
293.657	40.11
293.871	66.73
294.086	103.59
294.301	36.01
294.516	117.93
294.73	1.19
294.945	3.24
295.16	83.11
295.374	7.34
295.589	25.77
295.804	-39.76
296.018	42.15
296.233	111.78
296.447	58.54
296.662	15.53
296.877	54.44
297.091	27.82
297.306	-33.62
297.52	1.19
297.735	58.54
297.949	76.97
298.164	68.78
298.378	21.67
298.593	93.35
298.807	-41.81
299.022	87.21
299.236	97.45
299.451	72.87
299.665	60.59
299.88	36.01
300.094	46.25
300.309	36.01
300.523	70.83
300.737	7.34
300.952	85.16
301.166	93.35
301.381	21.67
301.595	15.53
301.809	-7
302.024	27.82
302.238	48.3
302.452	103.59
302.667	31.91
302.881	81.07
303.095	68.78
303.309	31.91
303.524	48.3
303.738	52.39
303.952	3.24
304.166	101.55
304.381	44.2
304.595	21.67
304.809	-47.96
305.023	48.3
305.237	99.5
305.452	-7
305.666	97.45
305.88	-9.05
306.094	91.31
306.308	13.48
306.522	91.31
306.736	93.35
306.95	56.49
307.164	74.92
307.379	-13.14
307.593	87.21
307.807	48.3
308.021	-31.57
308.235	52.39
308.449	46.25
308.663	15.53
308.877	109.74
309.091	27.82
309.305	-15.19
309.519	3.24
309.733	91.31
309.947	128.17
310.161	-13.14
310.374	50.35
310.588	113.83
310.802	7.34
311.016	25.77
311.23	52.39
311.444	50.35
311.658	38.06
311.872	113.83
312.085	95.4
312.299	87.21
312.513	42.15
312.727	76.97
312.941	15.53
313.154	15.53
313.368	13.48
313.582	48.3
313.796	27.82
314.009	52.39
314.223	54.44
314.437	64.68
314.651	87.21
314.864	146.6
315.078	23.72
315.292	1.19
315.505	27.82
315.719	11.43
315.933	19.63
316.146	-35.67
316.36	66.73
316.573	27.82
316.787	97.45
317.001	40.11
317.214	40.11
317.428	56.49
317.641	-62.29
317.855	15.53
318.068	85.16
318.282	42.15
318.495	130.22
318.709	109.74
318.922	83.11
319.136	97.45
319.349	46.25
319.563	38.06
319.776	105.64
319.99	25.77
320.203	81.07
320.417	33.96
320.63	46.25
320.843	54.44
321.057	91.31
321.27	3.24
321.483	15.53
321.697	85.16
321.91	29.87
322.124	85.16
322.337	17.58
322.55	56.49
322.763	146.6
322.977	68.78
323.19	15.53
323.403	64.68
323.617	13.48
323.83	128.17
324.043	36.01
324.256	107.69
324.469	36.01
324.683	40.11
324.896	25.77
325.109	70.83
325.322	68.78
325.535	83.11
325.748	27.82
325.962	25.77
326.175	36.01
326.388	62.63
326.601	89.26
326.814	23.72
327.027	68.78
327.24	81.07
327.453	62.63
327.666	66.73
327.879	126.12
328.092	42.15
328.305	79.02
328.518	54.44
328.731	9.39
328.944	89.26
329.157	-19.29
329.37	56.49
329.583	52.39
329.796	87.21
330.009	56.49
330.222	89.26
330.435	42.15
330.648	44.2
330.861	-84.82
331.073	87.21
331.286	50.35
331.499	40.11
331.712	44.2
331.925	52.39
332.138	87.21
332.35	85.16
332.563	33.96
332.776	31.91
332.989	3.24
333.202	13.48
333.414	38.06
333.627	13.48
333.84	36.01
334.053	21.67
334.265	48.3
334.478	83.11
334.691	64.68
334.903	60.59
335.116	105.64
335.329	17.58
335.541	9.39
335.754	105.64
335.966	9.39
336.179	27.82
336.392	64.68
336.604	23.72
336.817	70.83
337.029	15.53
337.242	36.01
337.454	89.26
337.667	21.67
337.88	99.5
338.092	1.19
338.305	89.26
338.517	52.39
338.729	23.72
338.942	70.83
339.154	7.34
339.367	85.16
339.579	-4.95
339.792	23.72
340.004	93.35
340.217	58.54
340.429	142.5
340.641	23.72
340.854	9.39
341.066	62.63
341.278	91.31
341.491	93.35
341.703	-4.95
341.915	-11.09
342.128	105.64
342.34	29.87
342.552	-0.85
342.764	68.78
342.977	68.78
343.189	36.01
343.401	25.77
343.613	-58.2
343.826	42.15
344.038	3.24
344.25	54.44
344.462	-41.81
344.674	48.3
344.886	68.78
345.099	83.11
345.311	13.48
345.523	62.63
345.735	-35.67
345.947	62.63
346.159	95.4
346.371	62.63
346.583	58.54
346.795	46.25
347.007	81.07
347.219	70.83
347.431	36.01
347.643	97.45
347.855	62.63
348.067	64.68
348.279	68.78
348.491	48.3
348.703	103.59
348.915	21.67
349.127	15.53
349.339	64.68
349.551	72.87
349.763	48.3
349.975	-29.52
350.187	64.68
350.399	50.35
350.61	42.15
350.822	76.97
351.034	103.59
351.246	36.01
351.458	38.06
351.669	31.91
351.881	101.55
352.093	74.92
352.305	54.44
352.517	85.16
352.728	122.02
352.94	48.3
353.152	66.73
353.363	56.49
353.575	58.54
353.787	105.64
353.999	33.96
354.21	101.55
354.422	19.63
354.633	58.54
354.845	72.87
355.057	50.35
355.268	72.87
355.48	122.02
355.692	68.78
355.903	56.49
356.115	36.01
356.326	-52.05
356.538	56.49
356.749	93.35
356.961	128.17
357.172	-0.85
357.384	56.49
357.595	140.46
357.807	72.87
358.018	-33.62
358.23	23.72
358.441	72.87
358.653	113.83
358.864	64.68
359.075	62.63
359.287	56.49
359.498	68.78
359.709	81.07
359.921	79.02
360.132	31.91
360.344	44.2
360.555	1.19
360.766	89.26
360.977	68.78
361.189	126.12
361.4	81.07
361.611	93.35
361.823	54.44
362.034	105.64
362.245	64.68
362.456	48.3
362.667	58.54
362.879	66.73
363.09	21.67
363.301	122.02
363.512	29.87
363.723	83.11
363.935	122.02
364.146	117.93
364.357	99.5
364.568	64.68
364.779	42.15
364.99	99.5
365.201	44.2
365.412	27.82
365.623	9.39
365.834	52.39
366.045	56.49
366.256	126.12
366.467	-41.81
366.678	33.96
366.889	62.63
367.1	87.21
367.311	19.63
367.522	42.15
367.733	48.3
367.944	91.31
368.155	40.11
368.366	68.78
368.577	44.2
368.788	89.26
368.999	68.78
369.209	52.39
369.42	101.55
369.631	109.74
369.842	62.63
370.053	81.07
370.264	101.55
370.474	89.26
370.685	-39.76
370.896	56.49
371.107	17.58
371.317	62.63
371.528	130.22
371.739	150.7
371.95	74.92
372.16	95.4
372.371	31.91
372.582	40.11
372.792	83.11
373.003	83.11
373.214	119.98
373.424	117.93
373.635	19.63
373.846	124.07
374.056	54.44
374.267	52.39
374.477	46.25
374.688	62.63
374.898	50.35
375.109	36.01
375.319	54.44
375.53	183.46
375.74	21.67
375.951	72.87
376.161	89.26
376.372	140.46
376.582	76.97
376.793	42.15
377.003	15.53
377.214	103.59
377.424	79.02
377.635	64.68
377.845	23.72
378.055	175.27
378.266	40.11
378.476	93.35
378.686	70.83
378.897	103.59
379.107	81.07
379.317	152.74
379.528	3.24
379.738	13.48
379.948	17.58
380.158	46.25
380.369	44.2
380.579	93.35
380.789	103.59
380.999	29.87
381.21	44.2
381.42	134.31
381.63	93.35
381.84	138.41
382.05	27.82
382.261	44.2
382.471	85.16
382.681	54.44
382.891	81.07
383.101	42.15
383.311	-17.24
383.521	89.26
383.731	122.02
383.941	5.29
384.151	27.82
384.361	162.98
384.571	36.01
384.781	44.2
384.991	132.26
385.201	111.78
385.411	68.78
385.621	40.11
385.831	76.97
386.041	62.63
386.251	76.97
386.461	70.83
386.671	33.96
386.881	38.06
387.091	56.49
387.301	-9.05
387.511	81.07
387.72	76.97
387.93	48.3
388.14	70.83
388.35	93.35
388.56	79.02
388.769	44.2
388.979	119.98
389.189	27.82
389.399	50.35
389.609	99.5
389.818	103.59
390.028	85.16
390.238	-9.05
390.447	76.97
390.657	52.39
390.867	81.07
391.076	19.63
391.286	101.55
391.496	31.91
391.705	-31.57
391.915	36.01
392.125	101.55
392.334	64.68
392.544	113.83
392.753	76.97
392.963	76.97
393.172	46.25
393.382	19.63
393.591	79.02
393.801	70.83
394.01	134.31
394.22	64.68
394.429	126.12
394.639	109.74
394.848	109.74
395.058	40.11
395.267	105.64
395.477	122.02
395.686	85.16
395.895	142.5
396.105	124.07
396.314	154.79
396.524	105.64
396.733	119.98
396.942	126.12
397.152	89.26
397.361	138.41
397.57	154.79
397.78	117.93
397.989	140.46
398.198	101.55
398.407	52.39
398.617	158.89
398.826	111.78
399.035	148.65
399.244	107.69
399.453	64.68
399.663	146.6
399.872	87.21
400.081	19.63
400.29	165.03
400.499	132.26
400.708	99.5
400.917	148.65
401.127	191.66
401.336	113.83
401.545	261.29
401.754	130.22
401.963	140.46
402.172	197.8
402.381	117.93
402.59	197.8
402.799	124.07
403.008	167.08
403.217	64.68
403.426	167.08
403.635	126.12
403.844	167.08
404.053	128.17
404.262	160.94
404.471	179.37
404.68	158.89
404.888	169.13
405.097	169.13
405.306	113.83
405.515	255.14
405.724	165.03
405.933	177.32
406.142	136.36
406.35	146.6
406.559	169.13
406.768	240.81
406.977	234.66
407.185	249
407.394	187.56
407.603	158.89
407.812	160.94
408.02	292.01
408.229	234.66
408.438	285.86
408.646	197.8
408.855	169.13
409.064	261.29
409.272	179.37
409.481	249
409.69	216.23
409.898	289.96
410.107	302.25
410.315	357.54
410.524	369.83
410.733	287.91
410.941	341.16
411.15	380.07
411.358	441.51
411.567	351.4
411.775	441.51
411.984	416.93
412.192	472.23
412.401	400.55
412.609	414.88
412.818	472.23
413.026	466.08
413.234	472.23
413.443	466.08
413.651	496.8
413.86	529.57
414.068	642.21
414.276	576.67
414.485	595.11
414.693	691.36
414.901	683.17
415.11	674.98
415.318	644.26
415.526	658.59
415.734	693.41
415.943	787.61
416.151	810.14
416.359	840.86
416.567	748.7
416.776	851.1
416.984	939.16
417.192	930.97
417.4	965.79
417.608	855.2
417.817	1037.47
418.025	1025.18
418.233	1090.71
418.441	1103
418.649	1043.61
418.857	1215.64
419.065	1270.94
419.273	1227.93
419.481	1244.31
419.689	1359
419.897	1426.58
420.105	1375.38
420.313	1373.33
420.521	1457.3
420.729	1428.63
420.937	1596.56
421.145	1524.88
421.353	1653.91
421.561	1770.64
421.769	1756.3
421.977	1959.05
422.185	1911.95
422.393	2032.78
422.601	2092.17
422.809	2075.79
423.017	2104.46
423.224	2169.99
423.432	2319.5
423.64	2237.58
423.848	2407.56
424.056	2403.46
424.263	2686.08
424.471	2657.41
424.679	2747.52
424.887	2843.78
425.094	2905.21
425.302	2892.93
425.51	3058.81
425.718	3021.95
425.925	3226.75
426.133	3374.2
426.341	3519.6
426.548	3562.61
426.756	3460.21
426.964	3675.25
427.171	3767.41
427.379	4041.84
427.586	4101.23
427.794	4150.38
428.001	4301.93
428.209	4494.44
428.417	4525.16
428.624	4689
428.832	4779.11
429.039	4660.32
429.247	4893.79
429.454	5233.75
429.662	5577.81
429.869	5168.22
430.076	5506.13
430.284	5426.26
430.491	5688.4
430.699	5782.61
430.906	5874.77
431.114	6063.18
431.321	6476.87
431.528	6399.05
431.736	6722.63
431.943	6937.66
432.15	6992.96
432.358	7011.39
432.565	7271.48
432.772	7361.59
432.979	7562.3
433.187	7728.18
433.394	7740.47
433.601	8373.29
433.808	8311.85
434.016	8148.01
434.223	8700.97
434.43	9061.41
434.637	9012.26
434.844	9671.7
435.052	9761.81
435.259	9747.48
435.466	9526.3
435.673	9567.26
435.88	10439.69
436.087	10800.13
436.294	10894.34
436.501	10220.56
436.708	10771.46
436.915	11131.9
437.122	11668.47
437.329	11441.15
437.537	12178.42
437.743	12061.68
437.95	11979.76
438.157	12645.35
438.364	13214.69
438.571	12930.02
438.778	13079.52
438.985	14175.19
439.192	13892.57
439.399	14246.87
439.606	14031.83
439.813	14711.75
440.02	15823.8
440.227	15115.2
440.433	15391.68
440.64	15666.11
440.847	15442.88
441.054	15989.69
441.261	17083.3
441.467	16655.28
441.674	17197.99
441.881	17447.84
442.088	17503.14
442.294	17335.2
442.501	18013.08
442.708	18285.46
442.914	18887.56
443.121	19708.8
443.328	19073.93
443.534	20507.51
443.741	19938.17
443.948	20036.47
444.154	21312.36
444.361	21193.58
444.568	21115.75
444.774	21265.25
444.981	21498.72
445.187	22205.27
445.394	23100.23
445.6	22739.79
445.807	24861.49
446.013	23798.59
446.22	24148.79
446.426	25129.77
446.633	25318.18
446.839	25565.99
447.046	25117.48
447.252	26481.43
447.459	26463
447.665	26354.46
447.871	27755.27
448.078	28875.51
448.284	27120.4
448.491	28164.86
448.697	29156.08
448.903	29506.28
449.11	29743.84
449.316	29223.66
449.522	29618.92
449.728	30376.67
449.935	30616.28
450.141	30329.56
450.347	31312.59
450.553	30313.18
450.76	30728.92
450.966	31404.75
451.172	30995.15
451.378	31998.66
451.584	31351.5
451.791	32076.48
451.997	31953.6
452.203	32142.02
452.409	32320.19
452.615	32289.47
452.821	31238.86
453.027	30876.37
453.233	32379.58
453.44	30868.18
453.646	31339.21
453.852	31032.02
454.058	32105.15
454.264	30782.16
454.47	31406.8
454.676	30708.44
454.882	31617.74
455.088	28979.95
455.294	29727.46
455.5	29588.2
455.705	29991.65
455.911	28859.12
456.117	28138.24
456.323	27636.48
456.529	26432.28
456.735	27417.35
456.941	26680.08
457.147	26327.83
457.352	25674.53
457.558	25121.58
457.764	25473.83
457.97	24718.13
458.176	24494.9
458.381	24343.35
458.587	22975.31
458.793	23102.28
458.999	21873.5
459.204	23350.09
459.41	23073.61
459.616	21207.91
459.821	21554.02
460.027	21341.03
460.233	20810.61
460.438	19655.55
460.644	19913.59
460.85	19227.53
461.055	18758.54
461.261	18758.54
461.466	17533.86
461.672	16839.59
461.878	18037.66
462.083	16993.19
462.289	16493.49
462.494	16362.42
462.7	15782.84
462.905	15403.97
463.111	15969.21
463.316	15981.49
463.522	15666.11
463.727	15729.59
463.932	15563.71
464.138	15637.44
464.343	15283.14
464.549	14885.83
464.754	15465.41
464.959	15197.12
465.165	15270.85
465.37	14736.33
465.575	14228.43
465.781	14814.15
465.986	14861.26
466.191	14195.67
466.397	14089.17
466.602	13532.12
466.807	13874.13
467.012	13810.65
467.218	13827.03
467.423	13616.09
467.628	13708.25
467.833	14431.18
468.038	13827.03
468.244	13503.45
468.449	13851.61
468.654	13444.06
468.859	13437.92
469.064	13308.9
469.269	12784.62
469.474	12858.34
469.679	13132.77
469.885	12608.49
470.09	13003.75
470.295	12778.47
470.5	12581.87
470.705	12600.3
470.91	12377.07
471.115	12182.51
471.32	12289.01
471.525	12282.86
471.73	11996.15
471.935	11947
472.139	11693.05
472.344	11578.36
472.549	11455.48
472.754	11260.93
472.959	11209.73
473.164	11043.84
473.369	10916.87
473.574	11258.88
473.778	11183.1
473.983	10966.02
474.188	10832.9
474.393	10415.12
474.598	10697.74
474.802	10363.92
475.007	10374.16
475.212	10451.98
475.417	9915.41
475.621	9948.18
475.826	10079.25
476.031	9759.77
476.235	9614.36
476.44	10019.86
476.645	9524.25
476.849	9853.97
477.054	9446.43
477.259	9489.43
477.463	9309.21
477.668	9169.95
477.872	9122.85
478.077	9151.52
478.282	9051.17
478.486	9036.83
478.691	8942.63
478.895	8928.29
479.1	8930.34
479.304	8877.09
479.509	8408.11
479.713	8653.86
479.918	8508.46
480.122	8469.55
480.326	8467.5
480.531	8494.12
480.735	8408.11
480.94	8207.41
481.144	8621.1
481.348	8203.31
481.553	8191.02
481.757	8201.26
481.961	8358.96
482.166	8401.96
482.37	8277.04
482.574	7990.32
482.778	8107.05
482.983	8270.89
483.187	8225.84
483.391	8240.17
483.595	7990.32
483.8	7943.22
484.004	8231.98
484.208	8068.14
484.412	8346.67
484.616	8207.41
484.821	8240.17
485.025	8008.75
485.229	8018.99
485.433	8068.14
485.637	8199.21
485.841	8084.53
486.045	7986.22
486.249	8148.01
486.453	8092.72
486.657	8156.21
486.861	8213.55
487.065	8008.75
487.269	8037.42
487.473	7959.6
487.677	8137.77
487.881	8221.74
488.085	7959.6
488.289	8066.1
488.493	8236.08
488.697	8135.73
488.901	8172.59
489.105	8129.58
489.309	8033.33
489.512	8221.74
489.716	8135.73
489.92	8313.9
490.124	8199.21
490.328	8485.93
490.531	8248.36
490.735	8424.49
490.939	8369.19
491.143	8305.71
491.346	8328.24
491.55	8444.97
491.754	8754.21
491.958	8576.04
492.161	8635.43
492.365	8780.84
492.569	8459.31
492.772	8602.66
492.976	8602.66
493.18	8870.95
493.383	8754.21
493.587	8969.25
493.79	8944.67
493.994	8932.39
494.197	9151.52
494.401	9231.39
494.605	9104.42
494.808	9442.33
495.012	9493.53
495.215	9489.43
495.419	9255.97
495.622	9518.11
495.825	9505.82
496.029	9526.3
496.232	9997.33
496.436	9817.11
496.639	10189.84
496.843	9853.97
497.046	10175.5
497.249	10282
497.453	10216.46
497.656	10363.92
497.859	10339.34
498.063	10558.47
498.266	10793.99
498.469	10638.34
498.673	10787.85
498.876	10943.49
499.079	11238.4
499.282	10994.69
499.485	11244.54
499.689	11305.98
499.892	11744.25
500.095	11574.27
500.298	11932.66
500.501	11801.59
500.705	12200.94
500.908	12149.75
501.111	12239.86
501.314	12395.5
501.517	12594.15
501.72	12755.94
501.923	12600.3
502.126	12942.31
502.329	13259.74
502.532	13222.88
502.735	13448.16
502.938	13743.06
503.141	13665.24
503.344	14058.45
503.547	13980.63
503.75	14320.59
503.953	14408.65
504.156	14721.99
504.359	14767.05
504.562	14535.63
504.765	15023.05
504.968	15252.42
505.17	15227.84
505.373	15395.78
505.576	15635.39
505.779	15653.82
505.982	15776.7
506.185	16008.12
506.387	16331.7
506.59	16608.17
506.793	16731.05
506.996	16688.04
507.198	17118.12
507.401	16997.29
507.604	17255.33
507.807	17626.01
508.009	17941.4
508.212	17959.83
508.415	18209.68
508.617	18469.78
508.82	18654.09
509.022	18477.97
509.225	18987.91
509.428	19069.83
509.63	19227.53
509.833	19483.52
510.035	19825.53
510.238	19477.38
510.44	19966.84
510.643	20511.6
510.845	20194.17
511.048	20626.29
511.25	20943.72
511.453	20992.87
511.655	21658.46
511.858	21404.52
512.06	21703.52
512.262	21941.08
512.465	21789.53
512.667	22324.05
512.87	22586.19
513.072	22688.59
513.274	23112.52
513.477	23315.27
513.679	23161.67
513.881	23739.2
514.084	23728.96
514.286	24095.55
514.488	24165.18
514.69	25066.28
514.893	24724.27
515.095	25004.85
515.297	25479.97
515.499	25449.25
515.701	25887.52
515.904	25709.35
516.106	26153.76
516.308	26327.83
516.51	26770.19
516.712	26985.23
516.914	26987.28
517.116	27525.89
517.318	27704.07
517.52	27716.36
517.722	28060.41
517.925	28259.07
518.127	28875.51
518.329	29258.48
518.531	28900.08
518.733	29457.13
518.935	29541.1
519.136	30030.56
519.338	30280.41
519.54	30370.52
519.742	30687.96
519.944	30696.15
520.146	31439.56
520.348	31441.61
520.55	31492.81
520.752	32047.81
520.954	32649.91
521.155	32479.93
521.357	32961.2
521.559	32993.97
521.761	33424.04
521.963	33698.47
522.164	33567.4
522.366	33809.06
522.568	34237.09
522.77	34509.47
522.971	34677.4
523.173	34749.08
523.375	35043.99
523.576	34923.16
523.778	35078.8
523.98	35793.54
524.181	36098.69
524.383	35988.1
524.584	36330.11
524.786	36508.29
524.988	36299.39
525.189	36817.53
525.391	37352.05
525.592	37585.52
525.794	37540.46
525.995	37775.98
526.197	37597.8
526.398	37730.92
526.6	38320.74
526.801	38126.18
527.003	38521.44
527.204	38677.08
527.406	38888.03
527.607	39068.25
527.808	38988.38
528.01	39119.45
528.211	39281.24
528.412	39625.29
528.614	39666.25
528.815	39787.08
529.016	40026.7
529.218	39715.4
529.419	40305.22
529.62	40245.83
529.822	40292.93
530.023	40557.12
530.224	40723.01
530.425	40337.99
530.626	40432.19
530.828	40325.7
531.029	41327.16
531.23	40589.89
531.431	40925.75
531.632	41036.34
531.833	40694.33
532.035	41116.22
532.236	41443.89
532.437	41314.87
532.638	41181.75
532.839	41794.09
533.04	41937.45
533.241	41103.93
533.442	41914.92
533.643	41804.33
533.844	41429.55
534.045	41880.11
534.246	41253.43
534.447	41648.69
534.648	41671.21
534.849	41810.48
535.05	41583.15
535.251	41847.34
535.451	41544.24
535.652	41939.5
535.853	41970.22
536.054	41937.45
536.255	41742.89
536.456	41648.69
536.657	42449.44
536.857	41863.72
537.058	41830.96
537.259	41937.45
537.46	42132.01
537.66	42172.97
537.861	42105.38
538.062	41800.24
538.263	41740.85
538.463	41902.64
538.664	41886.25
538.865	42123.82
539.065	42203.69
539.266	41759.28
539.466	42203.69
539.667	41902.64
539.868	42676.77
540.068	42320.42
540.269	42242.6
540.469	42312.23
540.67	41990.7
540.87	42129.96
541.071	41759.28
541.271	42426.92
541.472	41943.59
541.672	42095.14
541.873	41839.15
542.073	41833
542.274	42394.15
542.474	42154.54
542.675	41935.4
542.875	42158.63
543.075	42129.96
543.276	41499.19
543.476	42545.7
543.676	41554.48
543.877	41912.88
544.077	42035.75
544.277	42132.01
544.478	41800.24
544.678	42164.78
544.878	42150.44
545.078	42017.32
545.279	41914.92
545.479	41871.92
545.679	42189.35
545.879	41579.06
546.079	41595.44
546.28	41865.77
546.48	41505.33
546.68	42148.39
546.88	41658.93
547.08	42160.68
547.28	41779.76
547.48	41435.7
547.68	41949.74
547.88	41376.31
548.081	41910.83
548.281	41771.57
548.481	41562.67
548.681	41681.45
548.881	41876.01
549.081	41781.81
549.28	41515.57
549.48	41738.8
549.68	41632.3
549.88	42482.21
550.08	41382.45
550.28	41783.85
550.48	41427.51
550.68	42086.95
550.88	41214.52
551.08	41488.95
551.279	41751.09
551.479	41347.64
551.679	41218.61
551.879	41230.9
552.079	41935.4
552.278	41460.27
552.478	41452.08
552.678	41931.31
552.878	41585.2
553.077	41464.37
553.277	40925.75
553.477	41671.21
553.676	41275.96
553.876	41511.47
554.076	41050.68
554.275	41255.48
554.475	40809.02
554.674	40827.45
554.874	41103.93
555.074	41294.39
555.273	41478.71
555.473	41493.04
555.672	40489.54
555.872	41275.96
556.071	41609.78
556.271	41245.24
556.47	40389.19
556.67	40204.87
556.869	40237.64
557.068	40839.74
557.268	40518.21
557.467	40737.34
557.667	40741.44
557.866	40829.5
558.065	40061.51
558.265	40012.36
558.464	40288.84
558.663	40684.09
558.863	40102.47
559.062	40335.94
559.261	39766.6
559.461	40714.81
559.66	39336.53
559.859	39909.96
560.058	39404.11
560.258	40149.57
560.457	39539.28
560.656	39758.41
560.855	39428.69
561.054	39604.81
561.253	39414.35
561.453	39395.92
561.652	39555.66
561.851	39434.83
562.05	39426.64
562.249	39135.83
562.448	39520.85
562.647	39252.56
562.846	39129.69
563.045	38931.03
563.244	38558.3
563.443	39074.39
563.642	38320.74
563.841	38816.35
564.04	38163.04
564.239	38629.98
564.438	38115.94
564.637	37943.91
564.836	38466.14
565.035	37964.39
565.234	38019.69
565.432	37986.92
565.631	37685.87
565.83	37913.19
566.029	37476.97
566.228	37380.72
566.427	37628.52
566.625	37227.12
566.824	36774.52
567.023	37120.63
567.222	36512.38
567.42	37184.12
567.619	37147.25
567.818	36686.46
568.016	37067.38
568.215	36766.33
568.414	36508.29
568.612	36477.57
568.811	36160.13
569.01	36309.63
569.208	35725.96
569.407	36186.75
569.605	35832.46
569.804	36270.72
570.002	35766.92
570.201	35725.96
570.4	35336.85
570.598	35140.24
570.797	35453.58
570.995	35365.52
571.193	34519.71
571.392	35203.73
571.59	34753.18
571.789	35021.46
571.987	34597.53
572.186	34644.63
572.384	34591.39
572.582	34470.56
572.781	34460.32
572.979	34157.22
573.177	34261.66
573.376	34187.94
573.574	33901.22
573.772	34308.77
573.971	33804.97
574.169	33708.71
574.367	33538.73
574.565	33960.61
574.763	33684.14
574.962	33043.12
575.16	33016.5
575.358	33305.26
575.556	32905.91
575.754	33264.3
575.952	32809.65
576.151	33043.12
576.349	32582.33
576.547	32484.03
576.745	32613.05
576.943	32676.54
577.141	32307.9
577.339	32297.66
577.537	32074.43
577.735	31816.39
577.933	31865.54
578.131	31986.37
578.329	31967.94
578.527	31765.19
578.725	31707.85
578.923	31916.74
579.121	31584.97
579.319	31435.47
579.516	31511.24
579.714	31144.66
579.912	30984.91
580.11	31122.13
580.308	31052.5
580.506	30614.23
580.704	30325.47
580.901	31171.28
581.099	30864.08
581.297	30270.17
581.495	30167.77
581.692	30434.01
581.89	30200.54
582.088	30325.47
582.285	29850.34
582.483	30298.84
582.681	30118.62
582.878	29856.48
583.076	29661.93
583.274	29889.25
583.471	29567.72
583.669	29620.97
583.866	29379.31
584.064	29496.04
584.262	29248.24
584.459	29491.94
584.657	29106.93
584.854	29199.09
585.052	28668.66
585.249	28834.55
585.447	28902.13
585.644	28680.95
585.841	28658.42
586.039	28830.45
586.236	28408.57
586.434	28545.78
586.631	28410.62
586.828	28103.42
587.026	28396.28
587.223	27841.28
587.42	28025.6
587.618	27728.64
587.815	27929.34
588.012	27630.34
588.21	27427.59
588.407	27646.72
588.604	27472.65
588.801	27161.36
588.999	27265.8
589.196	27413.26
589.393	26884.88
589.59	27054.86
589.787	26690.32
589.984	26792.72
590.182	26708.76
590.379	26649.36
590.576	26528.53
590.773	26526.49
590.97	26073.88
591.167	26606.36
591.364	25840.42
591.561	26450.71
591.758	26086.17
591.955	25926.43
592.152	26106.65
592.349	25512.74
592.546	26102.56
592.743	26024.73
592.94	25379.62
593.137	25643.81
593.334	25654.05
593.531	25269.03
593.727	25475.88
593.924	25453.35
594.121	25099.05
594.318	25285.42
594.515	24646.45
594.712	25109.29
594.908	24918.83
595.105	25232.17
595.302	24767.28
595.499	24879.92
595.696	24613.68
595.892	24466.23
596.089	24720.18
596.286	24599.35
596.482	24494.9
596.679	24036.16
596.876	24003.39
597.072	24099.64
597.269	24417.08
597.466	23696.19
597.662	23761.73
597.859	23972.67
598.055	23835.45
598.252	23511.88
598.448	23393.09
598.645	23366.47
598.841	23186.25
599.038	23389
599.234	23360.33
599.431	22952.78
599.627	23196.49
599.824	23124.81
600.02	22938.44
600.217	23130.95
600.413	22629.2
600.609	22725.46
600.806	22682.45
601.002	22924.11
601.198	22674.26
601.395	22260.57
601.591	22209.37
601.787	22438.74
601.984	22356.82
602.18	22426.45
602.376	22209.37
602.572	22027.1
602.769	22168.41
602.965	21797.73
603.161	22149.98
603.357	21793.63
603.553	21640.03
603.75	21797.73
603.946	21537.63
604.142	21435.24
604.338	21402.47
604.534	21582.69
604.73	21257.06
604.926	21125.99
605.122	21351.27
605.318	21332.84
605.514	21142.38
605.71	21209.96
605.906	20790.13
606.102	21050.22
606.298	20982.63
606.494	20878.19
606.69	20888.43
606.886	20677.49
607.082	20255.61
607.278	20511.6
607.474	20204.41
607.67	20458.35
607.866	19966.84
608.062	20724.59
608.257	20337.52
608.453	20343.67
608.649	20138.87
608.845	20102.01
609.041	19815.29
609.236	19911.55
609.432	19999.61
609.628	19942.27
609.824	20108.15
610.019	19823.48
610.215	19884.92
610.411	19811.2
610.606	19827.58
610.802	19600.26
610.998	19768.19
611.193	19653.5
611.389	19497.86
611.584	19723.13
611.78	19501.95
611.976	19520.38
612.171	19399.55
612.367	19395.46
612.562	19325.83
612.758	19004.3
612.953	18611.09
613.149	19360.64
613.344	18684.81
613.539	19102.6
613.735	19102.6
613.93	19229.57
614.126	18776.97
614.321	18770.83
614.517	18684.81
614.712	19010.44
614.907	18660.24
615.103	19078.02
615.298	18576.27
615.493	19071.88
615.688	18396.05
615.884	18668.43
616.079	18226.07
616.274	18641.81
616.47	18684.81
616.665	18510.74
616.86	18326.42
617.055	18269.08
617.25	18394
617.445	18316.18
617.641	17888.15
617.836	18035.61
618.031	17910.68
618.226	18062.23
618.421	17941.4
618.616	18041.75
618.811	17576.86
619.006	17914.78
619.201	17523.62
619.396	17675.16
619.591	17410.98
619.786	17681.31
619.981	17353.63
620.176	17556.38
620.371	17165.22
620.566	17187.75
620.761	17261.48
620.956	17316.77
621.151	16817.07
621.346	17267.62
621.541	16792.49
621.735	16892.84
621.93	16661.42
622.125	16673.71
622.32	16083.89
622.515	16276.4
622.709	16286.64
622.904	16479.15
623.099	16350.13
623.294	16018.36
623.488	15905.72
623.683	16180.15
623.878	15719.35
624.072	15975.35
624.267	15815.61
624.462	15569.85
624.656	15510.46
624.851	15854.52
625.046	15326.14
625.24	15258.56
625.435	15092.68
625.629	15264.71
625.824	15057.86
626.018	15021
626.213	14658.51
626.407	15059.91
626.602	14676.94
626.796	14934.98
626.991	14621.64
627.185	14476.24
627.38	14490.57
627.574	14353.36
627.768	14345.17
627.963	14302.16
628.157	13933.53
628.352	14234.58
628.546	13669.34
628.74	13974.49
628.935	13788.12
629.129	13863.9
629.323	13624.28
629.517	13515.74
629.712	13358.05
629.906	13423.58
630.1	13345.76
630.294	13257.7
630.489	13229.02
630.683	13337.57
630.877	12944.36
631.071	13075.43
631.265	13057
631.459	12870.63
631.653	13032.42
631.848	12790.76
632.042	12516.33
632.236	12495.85
632.43	12473.32
632.624	12547.05
632.818	12295.15
633.012	12424.17
633.206	12352.49
633.4	12487.66
633.594	12334.06
633.788	12327.92
633.982	12020.72
634.176	12141.55
634.369	11873.27
634.563	11924.47
634.757	11785.21
634.951	11996.15
635.145	11688.95
635.339	11688.95
635.533	11449.34
635.726	11455.48
635.92	11359.23
636.114	11367.42
636.308	11312.13
636.501	11420.67
636.695	11213.82
636.889	11179.01
637.083	11023.36
637.276	11207.68
637.47	11101.19
637.664	11099.14
637.857	10865.67
638.051	10861.57
638.244	10681.35
638.438	10767.37
638.632	10931.2
638.825	10458.12
639.019	10546.19
639.212	10451.98
639.406	10533.9
639.599	10435.6
639.793	10130.45
639.986	10132.5
640.18	10308.62
640.373	10163.22
640.567	9776.15
640.76	10019.86
640.954	9950.23
641.147	9825.3
641.34	9856.02
641.534	9970.71
641.727	9829.4
641.92	9956.37
642.114	9669.66
642.307	9669.66
642.5	9638.94
642.694	9364.51
642.887	9387.04
643.08	9475.1
643.273	9335.84
643.467	9143.33
643.66	9362.46
643.853	9085.98
644.046	9047.07
644.239	9026.59
644.432	8946.72
644.626	8780.84
644.819	8903.71
645.012	8739.88
645.205	8885.28
645.398	8727.59
645.591	8760.36
645.784	8670.25
645.977	8635.43
646.17	8569.9
646.363	8422.44
646.556	8348.72
646.749	8279.08
646.942	8485.93
647.135	8346.67
647.328	8254.51
647.521	8379.43
647.714	8180.78
647.907	8209.45
648.099	8025.14
648.292	8068.14
648.485	8137.77
648.678	8006.7
648.871	7863.35
649.064	7842.87
649.256	8016.94
649.449	7883.83
649.642	7828.53
649.835	7717.94
650.027	7715.89
650.22	7746.61
650.413	7621.69
650.605	7586.87
650.798	7447.61
650.991	7547.96
651.183	7590.97
651.376	7365.69
651.568	7597.11
651.761	7339.07
651.954	7289.92
652.146	7459.9
652.339	7152.7
652.531	7175.23
652.724	7169.09
652.916	7115.84
653.109	7093.31
653.301	6966.34
653.494	7056.45
653.686	6714.44
653.879	7160.89
654.071	6968.38
654.263	6915.14
654.456	6843.46
654.648	6804.55
654.84	6812.74
655.033	6728.77
655.225	6908.99
655.417	6677.57
655.61	6585.41
655.802	6829.12
655.994	6720.58
656.186	6614.09
656.379	6431.82
656.571	6497.35
656.763	6501.45
656.955	6181.96
657.148	6409.29
657.34	6399.05
657.532	6384.71
657.724	6306.89
657.916	6448.2
658.108	6143.05
658.3	6116.43
658.492	6171.72
658.684	6081.61
658.876	6132.81
659.068	6040.65
659.26	5958.74
659.452	6034.51
659.644	5944.4
659.836	5958.74
660.028	5860.43
660.22	5745.75
660.412	5919.82
660.604	5663.83
660.796	5747.79
660.988	5872.72
661.18	5823.57
661.372	5747.79
661.563	5815.38
661.755	5766.23
661.947	5749.84
662.139	5614.68
662.331	5543
662.522	5532.76
662.714	5561.43
662.906	5516.37
663.097	5543
663.289	5633.11
663.481	5385.3
663.673	5395.54
663.864	5428.31
664.056	5327.96
664.247	5262.43
664.439	5346.39
664.631	5309.53
664.822	5205.08
665.014	5145.69
665.205	5074.01
665.397	5207.13
665.588	5254.23
665.78	5084.25
665.971	4969.57
666.163	5051.49
666.354	5127.26
666.546	5106.78
666.737	4944.99
666.929	5092.44
667.12	4940.9
667.311	5026.91
667.503	4922.46
667.694	5008.48
667.885	4959.33
668.077	4836.45
668.268	4983.9
668.459	5006.43
668.651	4766.82
668.842	4807.78
669.033	4768.87
669.224	4854.88
669.416	4959.33
669.607	4629.6
669.798	4719.71
669.989	4807.78
670.18	4701.28
670.371	4752.48
670.563	4611.17
670.754	4693.09
670.945	4691.04
671.136	4533.35
671.327	4590.69
671.518	4648.04
671.709	4650.08
671.9	4705.38
672.091	4576.36
672.282	4488.29
672.473	4662.37
672.664	4662.37
672.855	4559.97
673.046	4373.61
673.237	4793.44
673.428	4615.27
673.619	4441.19
673.809	4500.58
674	4410.47
674.191	4516.97
674.382	4467.81
674.573	4408.42
674.764	4459.62
674.954	4549.73
675.145	4332.65
675.336	4324.46
675.527	4531.3
675.717	4451.43
675.908	4373.61
676.099	4361.32
676.289	4441.19
676.48	4328.55
676.671	4246.63
676.861	4410.47
677.052	4330.6
677.243	4289.64
677.433	4402.28
677.624	4330.6
677.814	4410.47
678.005	4320.36
678.195	4355.18
678.386	4332.65
678.576	4265.07
678.767	4293.74
678.957	4320.36
679.148	4488.29
679.338	4228.2
679.529	4279.4
679.719	4166.76
679.909	4260.97
680.1	4297.83
680.29	4369.51
680.481	4330.6
680.671	4293.74
680.861	4318.31
681.052	4240.49
681.242	4154.48
681.432	4346.98
681.622	4172.91
681.813	4131.95
682.003	4232.3
682.193	4273.26
682.383	4330.6
682.573	4346.98
682.764	4121.71
682.954	4291.69
683.144	4387.94
683.334	4297.83
683.524	4215.91
683.714	4111.47
683.904	4248.68
684.094	4209.77
684.284	4177
684.474	4172.91
684.664	4260.97
684.854	4197.48
685.044	4281.45
685.234	4054.12
685.424	4162.67
685.614	3988.59
685.804	4152.43
685.994	4230.25
686.184	4119.66
686.374	4209.77
686.564	4029.55
686.753	4086.89
686.943	3900.53
687.133	4056.17
687.323	4025.45
687.513	4039.79
687.702	3959.92
687.892	3910.77
688.082	3820.66
688.272	4021.36
688.461	3927.15
688.651	4076.65
688.841	3789.94
689.03	3845.23
689.22	3875.95
689.41	3814.51
689.599	3882.1
689.789	3937.39
689.979	3742.83
690.168	3902.58
690.358	3699.83
690.547	3728.5
690.737	3837.04
690.926	3781.74
691.116	3656.82
691.305	3726.45
691.495	3746.93
691.684	3605.62
691.874	3845.23
692.063	3773.55
692.252	3611.76
692.442	3765.36
692.631	3505.27
692.82	3538.04
693.01	3570.8
693.199	3486.84
693.388	3529.84
693.578	3509.37
693.767	3601.52
693.956	3544.18
694.146	3433.59
694.335	3507.32
694.524	3476.6
694.713	3429.49
694.902	3449.97
695.092	3521.65
695.281	3468.41
695.47	3585.14
695.659	3468.41
695.848	3284.09
696.037	3279.99
696.226	3316.86
696.415	3505.27
696.604	3404.92
696.793	3415.16
696.982	3390.58
697.171	3576.95
697.36	3460.21
697.549	3417.21
697.738	3388.53
697.927	3259.51
698.116	3357.82
698.305	3370.1
698.494	3320.95
698.683	3431.54
698.872	3419.25
699.061	3271.8
699.25	3361.91
699.438	3382.39
699.627	3290.23
699.816	3425.4
700.005	3267.7
700.193	3361.91
700.382	3263.61
700.571	3286.14
700.76	3253.37
700.948	3359.86
701.137	3421.3
701.326	3312.76
701.514	3431.54
701.703	3239.03
701.892	3318.9
702.08	3378.3
702.269	3325.05
702.457	3304.57
702.646	3255.42
702.834	3380.34
703.023	3366.01
703.212	3333.24
703.4	3247.23
703.589	3230.84
703.777	3279.99
703.965	3320.95
704.154	3206.27
704.342	3191.93
704.531	3253.37
704.719	3189.88
704.907	3355.77
705.096	3372.15
705.284	3396.73
705.472	3316.86
705.661	3200.12
705.849	3251.32
706.037	3456.12
706.226	3312.76
706.414	3316.86
706.602	3308.66
706.79	3206.27
706.979	3298.42
707.167	3357.82
707.355	3318.9
707.543	3353.72
707.731	3419.25
707.919	3179.64
708.107	3304.57
708.296	3265.66
708.484	3261.56
708.672	3341.43
708.86	3302.52
709.048	3236.99
709.236	3273.85
709.424	3382.39
709.612	3212.41
709.8	3232.89
709.988	3396.73
710.176	3323
710.364	3325.05
710.551	3316.86
710.739	3345.53
710.927	3337.34
711.115	3308.66
711.303	3474.55
711.491	3353.72
711.679	3331.19
711.866	3376.25
712.054	3312.76
712.242	3214.46
712.43	3318.9
712.617	3189.88
712.805	3202.17
712.993	3286.14
713.181	3271.8
713.368	3316.86
713.556	3363.96
713.744	3224.7
713.931	3470.45
714.119	3261.56
714.306	3271.8
714.494	3169.4
714.682	3245.18
714.869	3294.33
715.057	3318.9
715.244	3294.33
715.432	3388.53
715.619	3366.01
715.807	3460.21
715.994	3335.29
716.182	3193.98
716.369	3193.98
716.556	3355.77
716.744	3175.55
716.931	3239.03
717.119	3361.91
717.306	3269.75
717.493	3310.71
717.681	3183.74
717.868	3398.77
718.055	3372.15
718.242	3392.63
718.43	3249.27
718.617	3142.78
718.804	3210.36
718.991	3404.92
719.179	3351.67
719.366	3273.85
719.553	3296.38
719.74	3173.5
719.927	3226.75
720.114	3202.17
720.301	3202.17
720.488	3167.35
720.676	3327.1
720.863	3302.52
721.05	3167.35
721.237	3288.18
721.424	3337.34
721.611	3241.08
721.798	3200.12
721.985	3257.46
722.172	3191.93
722.358	3323
722.545	3226.75
722.732	3251.32
722.919	3173.5
723.106	3306.62
723.293	3234.94
723.48	3343.48
723.667	3277.94
723.853	3169.4
724.04	3247.23
724.227	3214.46
724.414	3177.59
724.6	3239.03
724.787	3224.7
724.974	3212.41
725.161	3138.68
725.347	3112.06
725.534	3153.02
725.72	3230.84
725.907	3163.26
726.094	3290.23
726.28	3251.32
726.467	3140.73
726.653	3103.87
726.84	3071.1
727.027	3167.35
727.213	3204.22
727.4	3226.75
727.586	3185.79
727.773	3130.49
727.959	3179.64
728.145	3128.44
728.332	3218.55
728.518	3159.16
728.705	3128.44
728.891	3185.79
729.077	3187.83
729.264	3046.52
729.45	3136.63
729.636	3153.02
729.823	3091.58
730.009	3087.48
730.195	3054.72
730.382	3261.56
730.568	3165.31
730.754	3095.68
730.94	3060.86
731.126	3210.36
731.313	3126.39
731.499	3210.36
731.685	3093.63
731.871	3132.54
732.057	3169.4
732.243	3183.74
732.429	3009.66
732.615	3054.72
732.801	3067
732.987	3122.3
733.173	3069.05
733.359	3142.78
733.545	3089.53
733.731	3038.33
733.917	3079.29
734.103	2989.18
734.289	3003.52
734.475	2944.13
734.661	3157.11
734.847	3017.85
735.033	2944.13
735.219	2923.65
735.404	3062.91
735.59	3101.82
735.776	2940.03
735.962	2886.78
736.148	3071.1
736.333	3038.33
736.519	3054.72
736.705	3046.52
736.89	2972.8
737.076	2948.22
737.262	2980.99
737.447	2999.42
737.633	2835.58
737.819	3009.66
738.004	2768
738.19	2958.46
738.375	2835.58
738.561	2864.25
738.747	2882.69
738.932	2663.55
739.118	2894.97
739.303	2905.21
739.489	2970.75
739.674	2831.49
739.859	2913.41
740.045	2956.41
740.23	2864.25
740.416	2784.38
740.601	2729.09
740.786	2708.61
740.972	2784.38
741.157	2806.91
741.342	2788.48
741.528	2808.96
741.713	2821.25
741.898	2741.38
742.084	2731.14
742.269	2784.38
742.454	2798.72
742.639	2706.56
742.824	2720.9
743.01	2753.66
743.195	2608.26
743.38	2741.38
743.565	2651.27
743.75	2757.76
743.935	2657.41
744.12	2700.42
744.305	2579.59
744.49	2720.9
744.675	2673.79
744.86	2552.96
745.045	2546.82
745.23	2526.34
745.415	2448.52
745.6	2512
745.785	2555.01
745.97	2616.45
746.155	2477.19
746.34	2411.65
746.525	2419.85
746.71	2464.9
746.895	2374.79
747.079	2385.03
747.264	2372.74
747.449	2311.3
747.634	2350.21
747.819	2626.69
748.003	2346.12
748.188	2325.64
748.373	2354.31
748.557	2251.91
748.742	2249.86
748.927	2266.25
749.111	2235.53
749.296	2264.2
749.481	2231.43
749.665	2081.93
749.85	2225.29
750.034	2141.32
750.219	2192.52
750.404	2124.94
750.588	2167.95
750.773	2006.16
750.957	2088.07
751.141	2137.23
751.326	2045.07
751.51	2055.31
751.695	2028.68
751.879	2102.41
752.064	2010.25
752.248	2063.5
752.432	2002.06
752.617	2088.07
752.801	1885.33
752.985	1914
753.17	2081.93
753.354	1899.66
753.538	1856.65
753.722	1993.87
753.907	1741.97
754.091	1901.71
754.275	1838.22
754.459	1754.26
754.643	1823.89
754.828	1821.84
755.012	1758.35
755.196	1760.4
755.38	1817.74
755.564	1733.78
755.748	1664.15
755.932	1748.11
756.116	1727.63
756.3	1768.59
756.484	1643.67
756.668	1690.77
756.852	1739.92
757.036	1594.51
757.22	1635.47
757.404	1571.99
757.588	1569.94
757.772	1705.1
757.956	1600.66
758.14	1498.26
758.323	1539.22
758.507	1569.94
758.691	1496.21
758.875	1547.41
759.059	1461.4
759.242	1475.73
759.426	1459.35
759.61	1469.59
759.794	1459.35
759.977	1445.01
760.161	1580.18
760.345	1559.7
760.528	1457.3
760.712	1479.83
760.895	1418.39
761.079	1369.24
761.263	1406.1
761.446	1420.44
761.63	1422.48
761.813	1459.35
761.997	1379.48
762.18	1418.39
762.364	1451.16
762.547	1334.42
762.731	1326.23
762.914	1309.85
763.098	1338.52
763.281	1352.85
763.464	1264.79
763.648	1244.31
763.831	1275.03
764.015	1365.14
764.198	1375.38
764.381	1293.46
764.564	1346.71
764.748	1338.52
764.931	1473.68
765.114	1211.54
765.297	1195.16
765.481	1264.79
765.664	1252.5
765.847	1242.26
766.03	1297.56
766.213	1258.65
766.397	1195.16
766.58	1195.16
766.763	1215.64
766.946	1203.35
767.129	1307.8
767.312	1178.78
767.495	1176.73
767.678	1129.63
767.861	1121.43
768.044	1215.64
768.227	1172.63
768.41	1203.35
768.593	1240.22
768.776	1162.39
768.959	1146.01
769.142	1162.39
769.324	1031.32
769.507	1090.71
769.69	1115.29
769.873	1094.81
770.056	1078.43
770.239	1182.87
770.421	1174.68
770.604	1096.86
770.787	982.17
770.97	1021.08
771.152	994.46
771.335	959.64
771.518	1094.81
771.7	1074.33
771.883	1010.84
772.066	1117.34
772.248	1098.91
772.431	1012.89
772.613	918.68
772.796	1031.32
772.978	988.32
773.161	1064.09
773.343	992.41
773.526	910.49
773.708	969.88
773.891	951.45
774.073	986.27
774.256	832.67
774.438	967.84
774.621	890.01
774.803	904.35
774.985	894.11
775.168	896.16
775.35	922.78
775.532	894.11
775.715	863.39
775.897	847.01
776.079	838.81
776.261	838.81
776.444	869.53
776.626	775.33
776.808	779.42
776.99	920.73
777.173	851.1
777.355	832.67
777.537	877.73
777.719	744.61
777.901	715.94
778.083	701.6
778.265	861.34
778.447	834.72
778.629	738.46
778.811	789.66
778.993	720.03
779.175	779.42
779.357	814.24
779.539	787.61
779.721	695.46
779.903	752.8
780.085	717.98
780.267	771.23
780.449	730.27
780.631	752.8
780.812	765.09
780.994	722.08
781.176	681.12
781.358	724.13
781.54	605.35
781.721	670.88
781.903	705.7
782.085	627.87
782.267	674.98
782.448	629.92
782.63	701.6
782.812	584.87
782.993	713.89
783.175	640.16
783.357	656.54
783.538	568.48
783.72	593.06
783.901	734.37
784.083	605.35
784.264	539.81
784.446	644.26
784.627	572.58
784.809	572.58
784.99	521.38
785.172	642.21
785.353	625.83
785.535	588.96
785.716	513.19
785.897	490.66
786.079	545.95
786.26	474.28
786.441	521.38
786.623	494.76
786.804	476.32
786.985	484.52
787.167	525.47
787.348	525.47
787.529	582.82
787.71	537.76
787.891	459.94
788.073	504.99
788.254	507.04
788.435	492.71
788.616	492.71
788.797	511.14
788.978	461.99
789.159	543.91
789.34	548
789.522	418.98
789.703	525.47
789.884	478.37
790.065	511.14
790.246	513.19
790.427	437.41
790.607	550.05
790.788	447.65
790.969	408.74
791.15	498.85
791.331	490.66
791.512	484.52
791.693	431.27
791.874	451.75
792.054	457.89
792.235	431.27
792.416	488.61
792.597	404.64
792.778	478.37
792.958	418.98
793.139	425.12
793.32	466.08
793.5	349.35
793.681	476.32
793.862	443.56
794.042	357.54
794.223	328.87
794.404	382.12
794.584	451.75
794.765	390.31
794.945	386.21
795.126	441.51
795.306	400.55
795.487	384.16
795.667	341.16
795.848	326.82
796.028	384.16
796.209	392.36
796.389	322.73
796.57	371.88
796.75	384.16
796.93	390.31
797.111	283.81
797.291	310.44
797.471	359.59
797.652	353.45
797.832	343.21
798.012	361.64
798.192	373.92
798.373	371.88
798.553	373.92
798.733	322.73
798.913	353.45
799.093	275.62
799.274	367.78
799.454	300.2
799.634	292.01
799.814	390.31
799.994	343.21
800.174	300.2
800.354	314.53
800.534	265.38
800.714	345.25
800.894	335.01
801.074	214.18
801.254	310.44
801.434	298.15
801.614	230.57
801.794	302.25
801.974	787.61
802.154	277.67
802.334	234.66
802.514	298.15
802.693	298.15
802.873	302.25
803.053	289.96
803.233	296.1
803.413	228.52
803.592	335.01
803.772	275.62
803.952	332.97
804.131	263.33
804.311	343.21
804.491	205.99
804.67	298.15
804.85	324.77
805.03	201.9
805.209	283.81
805.389	208.04
805.568	234.66
805.748	212.14
805.928	277.67
806.107	302.25
806.287	263.33
806.466	253.09
806.646	230.57
806.825	277.67
807.004	251.05
807.184	208.04
807.363	240.81
807.543	214.18
807.722	285.86
807.901	230.57
808.081	304.29
808.26	162.98
808.439	283.81
808.619	294.05
808.798	175.27
808.977	187.56
809.156	318.63
809.336	208.04
809.515	244.9
809.694	128.17
809.873	173.22
810.052	283.81
810.231	212.14
810.411	275.62
810.59	195.75
810.769	267.43
810.948	251.05
811.127	156.84
811.306	240.81
811.485	240.81
811.664	306.34
811.843	160.94
812.022	212.14
812.201	197.8
812.38	187.56
812.559	224.42
812.737	216.23
812.916	150.7
813.095	285.86
813.274	310.44
813.453	218.28
813.632	253.09
813.811	238.76
813.989	199.85
814.168	224.42
814.347	138.41
814.526	187.56
814.704	244.9
814.883	162.98
815.062	230.57
815.24	251.05
815.419	132.26
815.598	181.42
815.776	138.41
815.955	146.6
816.133	152.74
816.312	238.76
816.49	150.7
816.669	195.75
816.847	171.18
817.026	117.93
817.204	117.93
817.383	203.94
817.561	195.75
817.74	150.7
817.918	251.05
818.097	134.31
818.275	115.88
818.453	181.42
818.632	152.74
818.81	136.36
818.988	199.85
819.167	179.37
819.345	187.56
819.523	183.46
819.701	177.32
819.879	197.8
820.058	124.07
820.236	199.85
820.414	138.41
820.592	162.98
820.77	160.94
820.948	126.12
821.127	142.5
821.305	210.09
821.483	167.08
821.661	208.04
821.839	144.55
822.017	113.83
822.195	38.06
822.373	148.65
822.551	117.93
822.729	169.13
822.907	167.08
823.085	165.03
823.262	189.61
823.44	83.11
823.618	187.56
823.796	169.13
823.974	187.56
824.152	212.14
824.329	122.02
824.507	130.22
824.685	146.6
824.863	50.35
825.04	124.07
825.218	195.75
825.396	128.17
825.574	167.08
825.751	101.55
825.929	193.7
826.107	99.5
826.284	187.56
826.462	162.98
826.639	107.69
826.817	89.26
826.994	162.98
827.172	58.54
827.349	150.7
827.527	154.79
827.704	187.56
827.882	140.46
828.059	148.65
828.237	107.69
828.414	201.9
828.591	44.2
828.769	97.45
828.946	158.89
829.124	62.63
829.301	148.65
829.478	126.12
829.655	128.17
829.833	105.64
830.01	124.07
830.187	109.74
830.364	138.41
830.542	138.41
830.719	150.7
830.896	105.64
831.073	56.49
831.25	91.31
831.427	154.79
831.604	89.26
831.782	81.07
831.959	199.85
832.136	124.07
832.313	173.22
832.49	222.38
832.667	124.07
832.844	40.11
833.021	136.36
833.198	105.64
833.374	126.12
833.551	119.98
833.728	93.35
833.905	126.12
834.082	93.35
834.259	99.5
834.436	150.7
834.612	187.56
834.789	154.79
834.966	85.16
835.143	50.35
835.319	60.59
835.496	48.3
835.673	91.31
835.85	136.36
836.026	97.45
836.203	109.74
836.38	160.94
836.556	74.92
836.733	-7
836.909	142.5
837.086	40.11
837.262	-0.85
837.439	105.64
837.616	56.49
837.792	95.4
837.968	74.92
838.145	31.91
838.321	66.73
838.498	111.78
838.674	111.78
838.851	150.7
839.027	87.21
839.203	85.16
839.38	126.12
839.556	109.74
839.732	68.78
839.909	54.44
840.085	154.79
840.261	62.63
840.437	134.31
840.614	68.78
840.79	152.74
840.966	72.87
841.142	95.4
841.318	72.87
841.494	70.83
841.671	111.78
841.847	62.63
842.023	128.17
842.199	7.34
842.375	66.73
842.551	81.07
842.727	89.26
842.903	105.64
843.079	58.54
843.255	128.17
843.431	103.59
843.607	134.31
843.783	60.59
843.959	25.77
844.134	7.34
844.31	87.21
844.486	31.91
844.662	44.2
844.838	97.45
845.013	52.39
845.189	68.78
845.365	103.59
845.541	64.68
845.716	56.49
845.892	105.64
846.068	33.96
846.244	81.07
846.419	76.97
846.595	62.63
846.77	62.63
846.946	146.6
847.122	89.26
847.297	95.4
847.473	132.26
847.648	-21.33
847.824	93.35
847.999	81.07
848.175	64.68
848.35	48.3
848.526	85.16
848.701	13.48
848.876	44.2
849.052	52.39
849.227	79.02
849.403	101.55
849.578	-54.1
849.753	27.82
849.929	7.34
850.104	-15.19
850.279	44.2
850.454	136.36
850.63	97.45
850.805	85.16
850.98	38.06
851.155	128.17
851.33	15.53
851.505	70.83
851.681	103.59
851.856	-39.76
852.031	101.55
852.206	113.83
852.381	62.63
852.556	91.31
852.731	81.07
852.906	-9.05
853.081	40.11
853.256	128.17
853.431	-0.85
853.606	29.87
853.781	74.92
853.956	19.63
854.131	5.29
854.305	-4.95
854.48	115.88
854.655	36.01
854.83	36.01
855.005	60.59
855.18	76.97
855.354	122.02
855.529	50.35
855.704	36.01
855.879	25.77
856.053	-17.24
856.228	105.64
856.403	95.4
856.577	11.43
856.752	56.49
856.926	115.88
857.101	48.3
857.276	68.78
857.45	-2.9
857.625	66.73
857.799	-39.76
857.974	23.72
858.148	-2.9
858.323	13.48
858.497	-11.09
858.672	38.06
858.846	97.45
859.02	3.24
859.195	72.87
859.369	91.31
859.543	58.54
859.718	-19.29
859.892	-29.52
860.066	64.68
860.241	-37.72
860.415	1.19
860.589	42.15
860.763	13.48
860.938	85.16
861.112	23.72
861.286	64.68
861.46	-37.72
861.634	15.53
861.808	68.78
861.982	-27.48
862.157	101.55
862.331	23.72
862.505	-4.95
862.679	-9.05
862.853	15.53
863.027	19.63
863.201	136.36
863.375	15.53
863.549	-15.19
863.722	64.68
863.896	66.73
864.07	29.87
864.244	23.72
864.418	46.25
864.592	25.77
864.766	7.34
864.939	85.16
865.113	19.63
865.287	40.11
865.461	81.07
865.634	107.69
865.808	19.63
865.982	33.96
866.156	19.63
866.329	29.87
866.503	27.82
866.676	36.01
866.85	-9.05
867.024	19.63
867.197	79.02
867.371	-0.85
867.544	87.21
867.718	36.01
867.891	3.24
868.065	-2.9
868.238	21.67
868.412	7.34
868.585	13.48
868.759	44.2
868.932	99.5
869.105	-2.9
869.279	27.82
869.452	25.77
869.625	50.35
869.799	25.77
869.972	-17.24
870.145	52.39
870.319	64.68
870.492	23.72
870.665	15.53
870.838	-4.95
871.011	50.35
871.185	42.15
871.358	44.2
871.531	7.34
871.704	38.06
871.877	23.72
872.05	81.07
872.223	-4.95
872.396	44.2
872.569	36.01
872.742	21.67
872.915	36.01
873.088	40.11
873.261	-15.19
873.434	9.39
873.607	38.06
873.78	122.02
873.953	58.54
874.126	-29.52
874.299	85.16
874.471	-4.95
874.644	74.92
874.817	113.83
874.99	36.01
875.163	56.49
875.335	-45.91
875.508	21.67
875.681	36.01
875.853	15.53
876.026	19.63
876.199	74.92
876.371	25.77
876.544	25.77
876.717	54.44
876.889	-13.14
877.062	52.39
877.234	11.43
877.407	3.24
877.579	68.78
877.752	42.15
877.924	38.06
878.097	27.82
878.269	52.39
878.442	50.35
878.614	15.53
878.786	19.63
878.959	105.64
879.131	40.11
879.303	19.63
879.476	13.48
879.648	19.63
879.82	36.01
879.993	11.43
880.165	-31.57
880.337	-41.81
880.509	-25.43
880.681	58.54
880.854	46.25
881.026	40.11
881.198	117.93
881.37	15.53
881.542	50.35
881.714	56.49
881.886	85.16
882.058	29.87
882.23	44.2
882.402	33.96
882.574	19.63
882.746	33.96
882.918	87.21
883.09	74.92
883.262	-7
883.434	15.53
883.606	11.43
883.778	-13.14
883.95	52.39
884.122	54.44
884.293	-17.24
884.465	-31.57
884.637	-50
884.809	9.39
884.98	62.63
885.152	-54.1
885.324	-37.72
885.496	33.96
885.667	33.96
885.839	50.35
886.011	81.07
886.182	21.67
886.354	-11.09
886.525	1.19
886.697	5.29
886.869	-0.85
887.04	68.78
887.212	23.72
887.383	17.58
887.555	83.11
887.726	-27.48
887.897	-33.62
888.069	15.53
888.24	66.73
888.412	11.43
888.583	72.87
888.754	-7
888.926	-41.81
889.097	52.39
889.268	44.2
889.44	36.01
889.611	-50
889.782	25.77
889.953	11.43
890.125	62.63
890.296	-35.67
890.467	-19.29
890.638	-4.95
890.809	5.29
890.98	48.3
891.151	-2.9
891.323	54.44
891.494	23.72
891.665	48.3
891.836	68.78
892.007	-13.14
892.178	-19.29
892.349	113.83
892.52	-41.81
892.691	-21.33
892.862	15.53
893.032	27.82
893.203	-15.19
893.374	38.06
893.545	66.73
893.716	19.63
893.887	66.73
894.057	-29.52
894.228	-4.95
894.399	-41.81
894.57	23.72
894.74	-13.14
894.911	91.31
895.082	23.72
895.253	31.91
895.423	87.21
895.594	29.87
895.764	68.78
895.935	-7
896.106	64.68
896.276	-17.24
896.447	23.72
896.617	-23.38
896.788	19.63
896.958	5.29
897.129	-58.2
897.299	-21.33
897.47	52.39
897.64	70.83
897.81	38.06
897.981	85.16
898.151	-45.91
898.322	101.55
898.492	72.87
898.662	72.87
898.832	60.59
899.003	68.78
899.173	21.67
899.343	40.11
899.513	-21.33
