Data from USB4F104151__170__10-27-25-760.txt Node

Date: Wed Mar 12 10:27:25 EDT 2025
User: louis
Spectrometer: USB4F10415
Trigger mode: 4
Integration Time (sec): 3.000000E-2
Scans to average: 1
Electric dark correction enabled: true
Nonlinearity correction enabled: false
Boxcar width: 0
XAxis mode: Wavelengths
Number of Pixels in Spectrum: 3648
>>>>>Begin Spectral Data<<<<<
178.204	-151.38
178.424	-151.38
178.644	-151.38
178.864	-126.8
179.084	-110.42
179.304	-32.6
179.524	-14.17
179.744	14.51
179.964	55.47
180.184	-1.88
180.404	-26.45
180.624	-5.97
180.844	-30.55
181.064	16.55
181.283	-10.07
181.503	34.99
181.723	0.17
181.943	26.79
182.163	59.56
182.383	-51.03
182.602	-69.46
182.822	6.31
183.042	16.55
183.262	-1.88
183.482	-10.07
183.701	-71.51
183.921	-44.88
184.141	-42.84
184.361	-38.74
184.58	-36.69
184.8	-18.26
185.02	47.27
185.239	2.22
185.459	-16.21
185.679	57.51
185.898	-69.46
186.118	75.95
186.338	20.65
186.557	-5.97
186.777	-59.22
186.997	-48.98
187.216	0.17
187.436	45.23
187.655	24.75
187.875	-10.07
188.095	-32.6
188.314	-16.21
188.534	67.75
188.753	22.7
188.973	-1.88
189.192	0.17
189.412	-10.07
189.631	47.27
189.851	43.18
190.07	41.13
190.29	-26.45
190.509	-51.03
190.729	12.46
190.948	18.6
191.168	121
191.387	12.46
191.607	-3.93
191.826	26.79
192.045	67.75
192.265	92.33
192.484	14.51
192.704	-20.31
192.923	-67.41
193.142	51.37
193.362	59.56
193.581	12.46
193.8	110.76
194.02	-40.79
194.239	32.94
194.458	61.61
194.678	16.55
194.897	22.7
195.116	28.84
195.335	24.75
195.555	67.75
195.774	-8.02
195.993	39.08
196.212	-65.36
196.432	-87.89
196.651	-42.84
196.87	61.61
197.089	-16.21
197.308	-55.12
197.528	-20.31
197.747	14.51
197.966	75.95
198.185	-32.6
198.404	-67.41
198.623	57.51
198.842	10.41
199.062	8.36
199.281	65.71
199.5	28.84
199.719	20.65
199.938	32.94
200.157	-57.17
200.376	-18.26
200.595	67.75
200.814	-1.88
201.033	30.89
201.252	0.17
201.471	-69.46
201.69	73.9
201.909	10.41
202.128	-8.02
202.347	67.75
202.566	20.65
202.785	2.22
203.004	-10.07
203.223	104.62
203.442	45.23
203.661	10.41
203.879	20.65
204.098	-46.93
204.317	20.65
204.536	-65.36
204.755	18.6
204.974	4.27
205.193	14.51
205.411	77.99
205.63	51.37
205.849	30.89
206.068	12.46
206.287	-12.12
206.505	53.42
206.724	-30.55
206.943	-1.88
207.162	-40.79
207.381	-18.26
207.599	-14.17
207.818	-73.56
208.037	49.32
208.255	-42.84
208.474	22.7
208.693	69.8
208.911	-10.07
209.13	-12.12
209.349	-46.93
209.567	65.71
209.786	8.36
210.005	37.03
210.223	-36.69
210.442	-18.26
210.661	10.41
210.879	-1.88
211.098	0.17
211.316	37.03
211.535	14.51
211.753	10.41
211.972	-22.36
212.191	4.27
212.409	-20.31
212.628	24.75
212.846	-12.12
213.065	14.51
213.283	57.51
213.502	88.23
213.72	32.94
213.938	59.56
214.157	-22.36
214.375	-30.55
214.594	-36.69
214.812	45.23
215.031	-1.88
215.249	71.85
215.467	92.33
215.686	-12.12
215.904	59.56
216.122	-10.07
216.341	22.7
216.559	-102.23
216.778	-14.17
216.996	30.89
217.214	-3.93
217.432	-20.31
217.651	-30.55
217.869	20.65
218.087	-3.93
218.306	49.32
218.524	37.03
218.742	-20.31
218.96	14.51
219.179	-34.64
219.397	28.84
219.615	57.51
219.833	-16.21
220.051	-12.12
220.27	0.17
220.488	-3.93
220.706	-20.31
220.924	-34.64
221.142	2.22
221.36	-61.27
221.578	-34.64
221.796	-26.45
222.015	75.95
222.233	18.6
222.451	37.03
222.669	-26.45
222.887	53.42
223.105	-30.55
223.323	-20.31
223.541	28.84
223.759	28.84
223.977	-48.98
224.195	28.84
224.413	45.23
224.631	30.89
224.849	-14.17
225.067	43.18
225.285	-1.88
225.503	10.41
225.721	-14.17
225.939	-10.07
226.157	30.89
226.375	112.81
226.592	22.7
226.81	2.22
227.028	37.03
227.246	65.71
227.464	12.46
227.682	39.08
227.9	18.6
228.117	8.36
228.335	-20.31
228.553	-24.4
228.771	37.03
228.989	98.47
229.206	-20.31
229.424	-81.75
229.642	-48.98
229.86	18.6
230.077	-28.5
230.295	-5.97
230.513	24.75
230.731	-18.26
230.948	-1.88
231.166	41.13
231.384	-16.21
231.601	-53.08
231.819	63.66
232.037	-10.07
232.254	-34.64
232.472	-40.79
232.689	-3.93
232.907	-10.07
233.125	-30.55
233.342	-42.84
233.56	2.22
233.777	22.7
233.995	2.22
234.213	102.57
234.43	-22.36
234.648	-16.21
234.865	71.85
235.083	39.08
235.3	10.41
235.518	6.31
235.735	77.99
235.953	30.89
236.17	59.56
236.388	32.94
236.605	-32.6
236.822	-14.17
237.04	4.27
237.257	-38.74
237.475	22.7
237.692	26.79
237.909	34.99
238.127	2.22
238.344	63.66
238.562	47.27
238.779	-38.74
238.996	-53.08
239.214	-1.88
239.431	14.51
239.648	71.85
239.865	-1.88
240.083	80.04
240.3	-40.79
240.517	63.66
240.735	63.66
240.952	22.7
241.169	39.08
241.386	63.66
241.603	53.42
241.821	-10.07
242.038	-67.41
242.255	-5.97
242.472	6.31
242.689	34.99
242.907	53.42
243.124	6.31
243.341	14.51
243.558	4.27
243.775	-34.64
243.992	20.65
244.209	-38.74
244.426	8.36
244.643	6.31
244.86	-34.64
245.078	6.31
245.295	4.27
245.512	-16.21
245.729	-51.03
245.946	84.14
246.163	26.79
246.38	10.41
246.597	43.18
246.814	104.62
247.031	-63.32
247.248	-26.45
247.464	59.56
247.681	39.08
247.898	59.56
248.115	-8.02
248.332	-26.45
248.549	2.22
248.766	18.6
248.983	63.66
249.2	-18.26
249.417	57.51
249.633	0.17
249.85	69.8
250.067	-3.93
250.284	-14.17
250.501	-12.12
250.717	0.17
250.934	-48.98
251.151	14.51
251.368	-3.93
251.585	43.18
251.801	63.66
252.018	8.36
252.235	30.89
252.451	-46.93
252.668	16.55
252.885	112.81
253.102	28.84
253.318	-46.93
253.535	-67.41
253.752	12.46
253.968	-24.4
254.185	26.79
254.401	-44.88
254.618	37.03
254.835	-14.17
255.051	0.17
255.268	-100.18
255.484	37.03
255.701	-18.26
255.917	77.99
256.134	12.46
256.351	57.51
256.567	-34.64
256.784	18.6
257	-3.93
257.217	114.86
257.433	-14.17
257.65	-22.36
257.866	55.47
258.082	-40.79
258.299	-42.84
258.515	63.66
258.732	2.22
258.948	-3.93
259.165	-22.36
259.381	-8.02
259.597	-34.64
259.814	51.37
260.03	14.51
260.246	-3.93
260.463	-30.55
260.679	-12.12
260.895	55.47
261.112	-36.69
261.328	-42.84
261.544	-34.64
261.761	12.46
261.977	30.89
262.193	41.13
262.409	51.37
262.626	34.99
262.842	-3.93
263.058	-61.27
263.274	-16.21
263.49	41.13
263.707	8.36
263.923	-55.12
264.139	-30.55
264.355	43.18
264.571	-10.07
264.787	-26.45
265.004	24.75
265.22	12.46
265.436	-5.97
265.652	-42.84
265.868	-32.6
266.084	-30.55
266.3	-40.79
266.516	-65.36
266.732	28.84
266.948	-22.36
267.164	63.66
267.38	57.51
267.596	10.41
267.812	20.65
268.028	20.65
268.244	-3.93
268.46	20.65
268.676	47.27
268.892	-51.03
269.108	-36.69
269.324	-34.64
269.54	-28.5
269.756	51.37
269.972	43.18
270.188	28.84
270.403	-12.12
270.619	-108.37
270.835	10.41
271.051	47.27
271.267	4.27
271.483	-18.26
271.698	2.22
271.914	67.75
272.13	0.17
272.346	16.55
272.562	-135
272.777	22.7
272.993	0.17
273.209	-44.88
273.425	55.47
273.64	-10.07
273.856	-10.07
274.072	-1.88
274.287	-59.22
274.503	30.89
274.719	102.57
274.934	-48.98
275.15	-20.31
275.366	14.51
275.581	-67.41
275.797	-22.36
276.012	55.47
276.228	-20.31
276.444	12.46
276.659	59.56
276.875	6.31
277.09	63.66
277.306	-42.84
277.521	80.04
277.737	10.41
277.952	4.27
278.168	114.86
278.383	26.79
278.599	-14.17
278.814	-46.93
279.03	80.04
279.245	49.32
279.461	-75.6
279.676	-3.93
279.892	-67.41
280.107	-34.64
280.322	-36.69
280.538	43.18
280.753	-46.93
280.969	43.18
281.184	2.22
281.399	0.17
281.615	-59.22
281.83	45.23
282.045	-16.21
282.26	-36.69
282.476	32.94
282.691	-12.12
282.906	-26.45
283.122	-28.5
283.337	34.99
283.552	88.23
283.767	-28.5
283.983	43.18
284.198	-28.5
284.413	63.66
284.628	-100.18
284.843	-46.93
285.058	94.38
285.274	-55.12
285.489	28.84
285.704	-12.12
285.919	-30.55
286.134	-1.88
286.349	-16.21
286.564	37.03
286.779	28.84
286.995	10.41
287.21	55.47
287.425	22.7
287.64	14.51
287.855	61.61
288.07	-26.45
288.285	67.75
288.5	75.95
288.715	28.84
288.93	8.36
289.145	-10.07
289.36	43.18
289.575	2.22
289.79	43.18
290.004	-1.88
290.219	10.41
290.434	-51.03
290.649	-18.26
290.864	-18.26
291.079	39.08
291.294	34.99
291.509	-5.97
291.724	16.55
291.938	39.08
292.153	41.13
292.368	45.23
292.583	14.51
292.798	10.41
293.012	77.99
293.227	53.42
293.442	-75.6
293.657	45.23
293.871	71.85
294.086	-10.07
294.301	71.85
294.516	8.36
294.73	18.6
294.945	61.61
295.16	-14.17
295.374	-3.93
295.589	30.89
295.804	28.84
296.018	26.79
296.233	32.94
296.447	-1.88
296.662	-67.41
296.877	-42.84
297.091	39.08
297.306	2.22
297.52	-28.5
297.735	41.13
297.949	-20.31
298.164	47.27
298.378	84.14
298.593	-34.64
298.807	-36.69
299.022	63.66
299.236	102.57
299.451	-1.88
299.665	-53.08
299.88	-26.45
300.094	-18.26
300.309	14.51
300.523	-36.69
300.737	-18.26
300.952	2.22
301.166	55.47
301.381	-48.98
301.595	86.19
301.809	-38.74
302.024	32.94
302.238	-5.97
302.452	43.18
302.667	-28.5
302.881	37.03
303.095	12.46
303.309	55.47
303.524	-10.07
303.738	-14.17
303.952	-36.69
304.166	30.89
304.381	-10.07
304.595	98.47
304.809	-10.07
305.023	47.27
305.237	37.03
305.452	39.08
305.666	71.85
305.88	86.19
306.094	43.18
306.308	-32.6
306.522	-1.88
306.736	-48.98
306.95	-42.84
307.164	-1.88
307.379	-69.46
307.593	41.13
307.807	-1.88
308.021	43.18
308.235	-40.79
308.449	30.89
308.663	-14.17
308.877	63.66
309.091	30.89
309.305	63.66
309.519	18.6
309.733	-12.12
309.947	26.79
310.161	47.27
310.374	-18.26
310.588	86.19
310.802	-40.79
311.016	37.03
311.23	30.89
311.444	-55.12
311.658	43.18
311.872	47.27
312.085	65.71
312.299	-5.97
312.513	14.51
312.727	137.38
312.941	-112.47
313.154	47.27
313.368	-75.6
313.582	14.51
313.796	39.08
314.009	-28.5
314.223	39.08
314.437	94.38
314.651	-26.45
314.864	-67.41
315.078	26.79
315.292	-30.55
315.505	-22.36
315.719	30.89
315.933	55.47
316.146	18.6
316.36	77.99
316.573	41.13
316.787	12.46
317.001	-20.31
317.214	-59.22
317.428	-28.5
317.641	-61.27
317.855	12.46
318.068	28.84
318.282	-8.02
318.495	94.38
318.709	77.99
318.922	49.32
319.136	61.61
319.349	55.47
319.563	-10.07
319.776	80.04
319.99	-5.97
320.203	32.94
320.417	-42.84
320.63	32.94
320.843	90.28
321.057	59.56
321.27	-77.65
321.483	59.56
321.697	-20.31
321.91	80.04
322.124	-53.08
322.337	30.89
322.55	-24.4
322.763	88.23
322.977	0.17
323.19	53.42
323.403	43.18
323.617	12.46
323.83	16.55
324.043	10.41
324.256	-14.17
324.469	-51.03
324.683	26.79
324.896	8.36
325.109	34.99
325.322	30.89
325.535	22.7
325.748	-63.32
325.962	16.55
326.175	45.23
326.388	39.08
326.601	73.9
326.814	39.08
327.027	37.03
327.24	88.23
327.453	51.37
327.666	12.46
327.879	121
328.092	12.46
328.305	-61.27
328.518	65.71
328.731	-38.74
328.944	-46.93
329.157	26.79
329.37	4.27
329.583	67.75
329.796	18.6
330.009	45.23
330.222	22.7
330.435	6.31
330.648	-42.84
330.861	14.51
331.073	-14.17
331.286	6.31
331.499	8.36
331.712	34.99
331.925	8.36
332.138	10.41
332.35	-1.88
332.563	-3.93
332.776	80.04
332.989	-1.88
333.202	43.18
333.414	75.95
333.627	-44.88
333.84	-55.12
334.053	-38.74
334.265	16.55
334.478	69.8
334.691	-8.02
334.903	26.79
335.116	-5.97
335.329	71.85
335.541	63.66
335.754	41.13
335.966	-20.31
336.179	6.31
336.392	59.56
336.604	22.7
336.817	32.94
337.029	-22.36
337.242	-67.41
337.454	63.66
337.667	63.66
337.88	88.23
338.092	4.27
338.305	12.46
338.517	-34.64
338.729	28.84
338.942	96.43
339.154	26.79
339.367	-71.51
339.579	41.13
339.792	-10.07
340.004	-16.21
340.217	77.99
340.429	26.79
340.641	-16.21
340.854	18.6
341.066	47.27
341.278	43.18
341.491	61.61
341.703	65.71
341.915	30.89
342.128	26.79
342.34	-67.41
342.552	6.31
342.764	12.46
342.977	-5.97
343.189	0.17
343.401	-34.64
343.613	-20.31
343.826	22.7
344.038	-48.98
344.25	61.61
344.462	0.17
344.674	67.75
344.886	-20.31
345.099	18.6
345.311	41.13
345.523	41.13
345.735	-61.27
345.947	30.89
346.159	-59.22
346.371	-26.45
346.583	59.56
346.795	30.89
347.007	34.99
347.219	47.27
347.431	-28.5
347.643	10.41
347.855	8.36
348.067	57.51
348.279	-16.21
348.491	28.84
348.703	-5.97
348.915	30.89
349.127	-28.5
349.339	-65.36
349.551	-1.88
349.763	6.31
349.975	-5.97
350.187	55.47
350.399	129.19
350.61	67.75
350.822	2.22
351.034	2.22
351.246	71.85
351.458	61.61
351.669	-5.97
351.881	121
352.093	63.66
352.305	18.6
352.517	-16.21
352.728	16.55
352.94	-40.79
353.152	30.89
353.363	-5.97
353.575	12.46
353.787	24.75
353.999	16.55
354.21	63.66
354.422	32.94
354.633	67.75
354.845	2.22
355.057	-3.93
355.268	6.31
355.48	-10.07
355.692	32.94
355.903	34.99
356.115	59.56
356.326	-53.08
356.538	188.58
356.749	63.66
356.961	-30.55
357.172	57.51
357.384	-24.4
357.595	96.43
357.807	55.47
358.018	20.65
358.23	30.89
358.441	116.9
358.653	51.37
358.864	22.7
359.075	26.79
359.287	-5.97
359.498	86.19
359.709	37.03
359.921	30.89
360.132	22.7
360.344	32.94
360.555	0.17
360.766	-5.97
360.977	-48.98
361.189	63.66
361.4	12.46
361.611	88.23
361.823	59.56
362.034	39.08
362.245	26.79
362.456	4.27
362.667	-40.79
362.879	26.79
363.09	22.7
363.301	41.13
363.512	30.89
363.723	-36.69
363.935	4.27
364.146	30.89
364.357	37.03
364.568	6.31
364.779	-36.69
364.99	69.8
365.201	28.84
365.412	-1.88
365.623	-36.69
365.834	129.19
366.045	82.09
366.256	20.65
366.467	-3.93
366.678	-5.97
366.889	-36.69
367.1	4.27
367.311	28.84
367.522	-34.64
367.733	-3.93
367.944	100.52
368.155	30.89
368.366	108.71
368.577	55.47
368.788	59.56
368.999	-20.31
369.209	6.31
369.42	121
369.631	88.23
369.842	39.08
370.053	6.31
370.264	57.51
370.474	18.6
370.685	-53.08
370.896	8.36
371.107	84.14
371.317	55.47
371.528	55.47
371.739	92.33
371.95	8.36
372.16	34.99
372.371	86.19
372.582	32.94
372.792	39.08
373.003	-8.02
373.214	104.62
373.424	10.41
373.635	-30.55
373.846	82.09
374.056	63.66
374.267	84.14
374.477	41.13
374.688	39.08
374.898	34.99
375.109	43.18
375.319	-8.02
375.53	75.95
375.74	22.7
375.951	6.31
376.161	2.22
376.372	123.05
376.582	-36.69
376.793	-10.07
377.003	47.27
377.214	28.84
377.424	-1.88
377.635	16.55
377.845	-32.6
378.055	28.84
378.266	-57.17
378.476	55.47
378.686	49.32
378.897	-26.45
379.107	34.99
379.317	2.22
379.528	88.23
379.738	71.85
379.948	-77.65
380.158	26.79
380.369	43.18
380.579	94.38
380.789	14.51
380.999	125.1
381.21	55.47
381.42	104.62
381.63	14.51
381.84	-10.07
382.05	43.18
382.261	53.42
382.471	65.71
382.681	73.9
382.891	65.71
383.101	51.37
383.311	47.27
383.521	6.31
383.731	-18.26
383.941	14.51
384.151	-12.12
384.361	82.09
384.571	65.71
384.781	6.31
384.991	77.99
385.201	75.95
385.411	53.42
385.621	14.51
385.831	67.75
386.041	-24.4
386.251	116.9
386.461	59.56
386.671	55.47
386.881	116.9
387.091	-26.45
387.301	-12.12
387.511	65.71
387.72	-1.88
387.93	51.37
388.14	10.41
388.35	30.89
388.56	106.67
388.769	10.41
388.979	65.71
389.189	71.85
389.399	8.36
389.609	80.04
389.818	57.51
390.028	63.66
390.238	65.71
390.447	45.23
390.657	77.99
390.867	30.89
391.076	4.27
391.286	96.43
391.496	57.51
391.705	-22.36
391.915	145.58
392.125	67.75
392.334	-18.26
392.544	-1.88
392.753	114.86
392.963	43.18
393.172	43.18
393.382	32.94
393.591	147.62
393.801	14.51
394.01	100.52
394.22	94.38
394.429	45.23
394.639	59.56
394.848	14.51
395.058	32.94
395.267	84.14
395.477	108.71
395.686	92.33
395.895	82.09
396.105	86.19
396.314	73.9
396.524	84.14
396.733	41.13
396.942	84.14
397.152	2.22
397.361	118.95
397.57	84.14
397.78	67.75
397.989	61.61
398.198	65.71
398.407	110.76
398.617	34.99
398.826	77.99
399.035	92.33
399.244	86.19
399.453	49.32
399.663	55.47
399.872	26.79
400.081	86.19
400.29	92.33
400.499	20.65
400.708	71.85
400.917	108.71
401.127	112.81
401.336	-1.88
401.545	96.43
401.754	86.19
401.963	127.14
402.172	108.71
402.381	59.56
402.59	149.67
402.799	28.84
403.008	77.99
403.217	96.43
403.426	129.19
403.635	94.38
403.844	28.84
404.053	77.99
404.262	149.67
404.471	194.73
404.68	30.89
404.888	123.05
405.097	75.95
405.306	151.72
405.515	151.72
405.724	114.86
405.933	149.67
406.142	155.82
406.35	112.81
406.559	145.58
406.768	137.38
406.977	151.72
407.185	219.3
407.394	186.54
407.603	141.48
407.812	280.74
408.02	268.45
408.229	186.54
408.438	207.02
408.646	233.64
408.855	207.02
409.064	264.36
409.272	229.54
409.481	237.74
409.69	223.4
409.898	256.17
410.107	217.26
410.315	311.46
410.524	225.45
410.733	272.55
410.941	293.03
411.15	315.56
411.358	309.41
411.567	381.09
411.775	354.47
411.984	379.04
412.192	383.14
412.401	374.95
412.609	381.09
412.818	473.25
413.026	473.25
413.234	424.1
413.443	559.27
413.651	614.56
413.86	489.64
414.068	573.6
414.276	589.99
414.485	602.27
414.693	581.79
414.901	592.03
415.11	671.9
415.318	696.48
415.526	690.34
415.734	755.87
415.943	731.3
416.151	729.25
416.359	772.25
416.567	813.21
416.776	778.4
416.984	874.65
417.192	858.27
417.4	970.91
417.608	952.48
417.817	948.38
418.025	1030.3
418.233	1038.49
418.441	1087.64
418.649	1095.83
418.857	1093.79
419.065	1149.08
419.273	1106.07
419.481	1337.49
419.689	1300.63
419.897	1347.73
420.105	1398.93
420.313	1386.65
420.521	1429.65
420.729	1497.24
420.937	1587.35
421.145	1616.02
421.353	1648.79
421.561	1706.13
421.769	1822.86
421.977	1880.21
422.185	1915.02
422.393	1902.73
422.601	2128.01
422.809	2175.11
423.017	2152.59
423.224	2240.65
423.432	2388.1
423.64	2263.18
423.848	2568.32
424.056	2484.36
424.263	2680.96
424.471	2640
424.679	2734.21
424.887	2928.77
425.094	3008.64
425.302	3022.97
425.51	3201.15
425.718	3096.7
425.925	3262.58
426.133	3467.38
426.341	3606.64
426.548	3534.96
426.756	3709.04
426.964	3668.08
427.171	3858.54
427.379	4096.11
427.586	4030.57
427.794	4245.61
428.001	4348.01
428.209	4515.94
428.417	4669.54
428.624	4851.81
428.832	4956.26
429.039	4677.73
429.247	4735.07
429.454	5345.37
429.662	5648.47
429.869	5300.31
430.076	5611.61
430.284	5478.49
430.491	5742.68
430.699	6047.82
430.906	6115.41
431.114	5920.85
431.321	6252.62
431.528	6457.42
431.736	6918.21
431.943	7188.54
432.15	6944.83
432.358	6998.08
432.565	7477.3
432.772	7522.36
432.979	7813.17
433.187	8079.41
433.394	7858.23
433.601	8542.25
433.808	8738.85
434.016	8452.14
434.223	8845.35
434.43	9412.64
434.637	9213.98
434.844	9617.43
435.052	9748.5
435.259	9820.18
435.466	9963.54
435.673	10006.55
435.88	10713.1
436.087	11116.55
436.294	11184.13
436.501	10864.64
436.708	11089.92
436.915	11427.84
437.122	11835.38
437.329	11978.74
437.537	12335.09
437.743	12486.64
437.95	12204.02
438.157	12996.58
438.364	13432.8
438.571	13352.93
438.778	13174.75
438.985	14532.56
439.192	14325.71
439.399	14542.8
439.606	14352.34
439.813	14985.16
440.02	15880.12
440.227	15583.16
440.433	15478.72
440.64	16246.71
440.847	15914.94
441.054	16410.54
441.261	17645.47
441.467	17379.23
441.674	17639.33
441.881	18239.38
442.088	18208.66
442.294	17833.88
442.501	18403.22
442.708	18988.94
442.914	19373.96
443.121	20404.08
443.328	20113.27
443.534	21221.22
443.741	20725.61
443.948	20273.01
444.154	22052.7
444.361	21587.81
444.568	22015.83
444.774	21796.7
444.981	22095.71
445.187	22607.7
445.394	23975.74
445.6	23148.36
445.807	25646.88
446.013	24262.46
446.22	24901.42
446.426	25992.99
446.633	26146.59
446.839	27029.26
447.046	25816.86
447.252	26971.92
447.459	27133.71
447.665	27240.2
447.871	28385.02
448.078	29581.03
448.284	28014.34
448.491	29046.51
448.697	30011.1
448.903	30674.65
449.11	30437.08
449.316	29763.3
449.522	30301.92
449.728	31309.52
449.935	31624.9
450.141	31342.28
450.347	32159.42
450.553	31069.9
450.76	31553.23
450.966	32499.39
451.172	32020.16
451.378	32835.25
451.584	32382.65
451.791	33019.57
451.997	32739
452.203	33318.57
452.409	33248.94
452.615	33062.58
452.821	31952.58
453.027	31971.01
453.233	33242.8
453.44	31778.5
453.646	32069.31
453.852	32636.6
454.058	33007.28
454.264	31780.55
454.47	32351.93
454.676	31690.44
454.882	32845.49
455.088	29470.44
455.294	29968.1
455.5	30584.54
455.705	31241.93
455.911	29587.18
456.117	29038.32
456.323	28471.03
456.529	26670.87
456.735	28075.77
456.941	27203.34
457.147	26818.32
457.352	26126.11
457.558	25927.46
457.764	25876.26
457.97	25515.81
458.176	24872.75
458.381	24850.22
458.587	23611.2
458.793	23385.93
458.999	22349.65
459.204	24076.09
459.41	23060.3
459.616	21518.18
459.821	21573.47
460.027	21385.06
460.233	21186.41
460.438	20275.06
460.644	20612.98
460.85	19142.53
461.055	19087.24
461.261	19298.18
461.466	17618.85
461.672	17004.46
461.878	18524.05
462.083	17061.8
462.289	16998.31
462.494	16730.03
462.7	16039.86
462.905	15570.88
463.111	16091.06
463.316	16215.99
463.522	15796.15
463.727	16009.14
463.932	15761.34
464.138	15476.67
464.343	15237.06
464.549	15085.51
464.754	15749.05
464.959	15753.15
465.165	15433.66
465.37	14919.62
465.575	14356.43
465.781	15083.46
465.986	15384.51
466.191	14639.05
466.397	14288.85
466.602	13578.2
466.807	14360.53
467.012	14239.7
467.218	14100.44
467.423	13930.45
467.628	14245.84
467.833	14653.39
468.038	14141.39
468.244	13696.99
468.449	14026.71
468.654	13764.57
468.859	13580.25
469.064	13543.39
469.269	13141.99
469.474	13090.79
469.679	13610.97
469.885	13049.83
470.09	13176.8
470.295	13017.06
470.5	12775.4
470.705	12969.96
470.91	12564.46
471.115	12396.53
471.32	12396.53
471.525	12580.84
471.73	12308.46
471.935	12161.01
472.139	11620.35
472.344	12009.46
472.549	11794.42
472.754	11304.96
472.959	11388.92
473.164	10979.33
473.369	11114.5
473.574	11429.88
473.778	11239.42
473.983	11161.6
474.188	11098.11
474.393	10698.76
474.598	10694.66
474.802	10496.01
475.007	10450.96
475.212	10659.85
475.417	10063.89
475.621	10102.8
475.826	10258.45
476.031	10151.95
476.235	10008.59
476.44	10100.75
476.645	9908.24
476.849	9793.56
477.054	9670.68
477.259	9447.45
477.463	9754.65
477.668	9236.51
477.872	9500.7
478.077	9173.02
478.282	9029.66
478.486	8945.7
478.691	8917.03
478.895	8661.03
479.1	9050.14
479.304	8749.09
479.509	8568.87
479.713	8949.79
479.918	8679.46
480.122	8405.03
480.326	8689.7
480.531	8771.62
480.735	8495.15
480.94	8448.04
481.144	8785.96
481.348	8255.53
481.553	8316.97
481.757	8308.78
481.961	8411.18
482.166	8540.2
482.37	8443.95
482.574	8083.5
482.778	8212.53
482.983	8423.47
483.187	8230.96
483.391	8527.91
483.595	8335.4
483.8	8153.13
484.004	8343.6
484.208	8425.51
484.412	8224.81
484.616	8325.16
484.821	8552.49
485.025	8140.85
485.229	8425.51
485.433	8114.22
485.637	8347.69
485.841	8173.61
486.045	8085.55
486.249	8099.89
486.453	8124.46
486.657	8101.94
486.861	8302.64
487.065	7997.49
487.269	8153.13
487.473	8118.32
487.677	8245.29
487.881	8445.99
488.085	8331.31
488.289	8364.08
488.493	8222.77
488.697	8466.47
488.901	8192.05
489.105	8171.57
489.309	8304.68
489.512	8249.39
489.716	8314.92
489.92	8294.44
490.124	8255.53
490.328	8570.92
490.531	8439.85
490.735	8611.88
490.939	8445.99
491.143	8400.94
491.346	8562.73
491.55	8697.89
491.754	8532.01
491.958	8771.62
492.161	8757.29
492.365	8609.83
492.569	8675.37
492.772	8620.07
492.976	8781.86
493.18	8898.59
493.383	9064.48
493.587	9048.1
493.79	9127.97
493.994	9023.52
494.197	9244.7
494.401	9437.21
494.605	9308.19
494.808	9263.13
495.012	9472.03
495.215	9347.1
495.419	9656.34
495.622	9531.42
495.825	9562.14
496.029	9439.26
496.232	9908.24
496.436	9682.97
496.639	10074.13
496.843	10166.29
497.046	10178.58
497.249	10336.27
497.453	10338.32
497.656	10571.79
497.859	10461.2
498.063	10647.56
498.266	10813.45
498.469	10874.88
498.673	10942.47
498.876	11077.63
499.079	11270.14
499.282	11114.5
499.485	11503.61
499.689	11567.1
499.892	11720.7
500.095	11657.21
500.298	12113.91
500.501	11933.68
500.705	12357.61
500.908	12519.4
501.111	12394.48
501.314	12462.06
501.517	12785.64
501.72	13004.77
501.923	12797.93
502.126	13359.07
502.329	13510.62
502.532	13576.16
502.735	13326.3
502.938	13815.77
503.141	13658.07
503.344	13707.23
503.547	14110.68
503.75	14397.39
503.953	14280.66
504.156	14723.02
504.359	14821.32
504.562	15001.54
504.765	15304.64
504.968	15099.84
505.17	15163.33
505.373	15378.37
505.576	15583.16
505.779	15796.15
505.982	16003
506.185	16271.28
506.387	16402.35
506.59	16611.25
506.793	16820.14
506.996	16701.36
507.198	17319.84
507.401	17080.23
507.604	17127.33
507.807	17600.41
508.009	17727.39
508.212	17844.12
508.415	17971.1
508.617	18255.76
508.82	18532.24
509.022	18179.99
509.225	18659.21
509.428	19066.76
509.63	19156.87
509.833	19453.83
510.035	19974.01
510.238	19515.26
510.44	19894.14
510.643	20037.5
510.845	20830.06
511.048	20045.69
511.25	20600.69
511.453	20694.89
511.655	21776.22
511.858	21251.94
512.06	21299.05
512.262	21729.12
512.465	21698.4
512.667	22026.07
512.87	22429.52
513.072	22439.76
513.274	22634.32
513.477	23408.45
513.679	23064.39
513.881	23613.25
514.084	23807.81
514.286	23398.21
514.488	23654.21
514.69	24473.4
514.893	24459.06
515.095	24567.6
515.297	24784.69
515.499	25188.14
515.701	25394.98
515.904	25624.36
516.106	25454.37
516.308	26054.43
516.51	26126.11
516.712	26191.64
516.914	26601.24
517.116	26703.64
517.318	26849.04
517.52	27152.14
517.722	27422.47
517.925	27555.59
518.127	28241.66
518.329	28188.41
518.531	27864.83
518.733	28702.45
518.935	28815.09
519.136	28993.26
519.338	29308.65
519.54	29658.85
519.742	29662.95
519.944	30013.15
520.146	30244.57
520.348	30193.37
520.55	30543.58
520.752	30557.91
520.954	31348.43
521.155	31114.96
521.357	31510.22
521.559	32036.55
521.761	32341.69
521.963	32138.94
522.164	32587.45
522.366	32650.94
522.568	33070.77
522.77	32829.11
522.971	33427.12
523.173	33308.33
523.375	33857.19
523.576	33867.43
523.778	34172.58
523.98	34182.82
524.181	34473.63
524.383	34023.08
524.584	34713.24
524.786	35059.35
524.988	35022.48
525.189	35104.4
525.391	35507.85
525.592	35413.65
525.794	35745.42
525.995	35731.08
526.197	35817.1
526.398	35946.12
526.6	36595.32
526.801	36388.48
527.003	36830.84
527.204	36732.54
527.406	37174.9
527.607	36624
527.808	37174.9
528.01	36662.91
528.211	36949.62
528.412	37879.4
528.614	37559.92
528.815	37801.58
529.016	37785.19
529.218	37715.56
529.419	37994.09
529.62	38188.64
529.822	37670.51
530.023	38043.24
530.224	38166.12
530.425	38190.69
530.626	37813.87
530.828	37944.94
531.029	38780.51
531.23	37879.4
531.431	38190.69
531.632	38649.44
531.833	38526.56
532.035	38598.24
532.236	38557.28
532.437	38866.52
532.638	38497.89
532.839	38950.49
533.04	38985.3
533.241	38432.35
533.442	39390.8
533.643	39126.61
533.844	38882.91
534.045	39351.89
534.246	38876.76
534.447	39349.84
534.648	38846.04
534.849	39181.91
535.05	38897.24
535.251	38854.23
535.451	38962.78
535.652	39165.53
535.853	38858.33
536.054	39460.43
536.255	39038.55
536.456	38784.6
536.657	39560.78
536.857	39042.65
537.058	38766.17
537.259	39390.8
537.46	39478.86
537.66	39106.13
537.861	39317.07
538.062	39341.65
538.263	39423.57
538.463	39151.19
538.664	38968.92
538.865	39577.17
539.065	39042.65
539.266	39013.98
539.466	39300.69
539.667	38880.86
539.868	39190.1
540.068	39288.4
540.269	38782.55
540.469	39095.89
540.67	39077.46
540.87	38964.82
541.071	39099.99
541.271	39198.29
541.472	38946.39
541.672	38962.78
541.873	39155.29
542.073	38544.99
542.274	39597.65
542.474	38800.99
542.675	38993.5
542.875	39132.76
543.075	39013.98
543.276	38645.34
543.476	39151.19
543.676	39190.1
543.877	39194.2
544.077	38917.72
544.277	38846.04
544.478	38800.99
544.678	38960.73
544.878	38864.47
545.078	39239.25
545.279	38856.28
545.479	38760.03
545.679	39016.02
545.879	38461.02
546.079	38557.28
546.28	38690.4
546.48	38751.84
546.68	39235.16
546.88	38950.49
547.08	38911.58
547.28	39077.46
547.48	38354.53
547.68	38749.79
547.88	38721.12
548.081	39165.53
548.281	38866.52
548.481	38438.5
548.681	39315.03
548.881	38993.5
549.081	38590.05
549.28	38659.68
549.48	38813.27
549.68	38647.39
549.88	39398.99
550.08	38616.67
550.28	38768.22
550.48	38727.26
550.68	38956.63
550.88	38495.84
551.08	38755.93
551.279	38784.6
551.479	38227.56
551.679	38620.77
551.879	38485.6
552.079	38923.86
552.278	38315.62
552.478	38192.74
552.678	38456.93
552.878	38694.49
553.077	38741.6
553.277	38110.82
553.477	38973.02
553.676	38061.67
553.876	38614.62
554.076	38276.71
554.275	37934.7
554.475	37695.08
554.674	38407.78
554.874	38262.37
555.074	38090.34
555.273	38092.39
555.473	38356.58
555.672	37887.59
555.872	38018.66
556.071	37834.35
556.271	38166.12
556.47	37568.11
556.67	37535.34
556.869	37674.6
557.068	37752.43
557.268	37658.22
557.467	37783.15
557.667	37885.54
557.866	37609.07
558.065	37414.51
558.265	37918.31
558.464	37430.9
558.663	37713.52
558.863	37052.02
559.062	37707.37
559.261	36849.27
559.461	37600.88
559.66	37111.41
559.859	37097.08
560.058	36832.89
560.258	37439.09
560.457	36411.01
560.656	36959.86
560.855	37058.17
561.054	37013.11
561.253	36560.51
561.453	36992.63
561.652	37002.87
561.851	37006.97
562.05	36195.97
562.249	36556.41
562.448	36951.67
562.647	36376.19
562.846	36716.15
563.045	36593.28
563.244	36021.89
563.443	36933.24
563.642	35825.29
563.841	36169.35
564.04	35765.9
564.239	36126.34
564.438	35604.11
564.637	36290.18
564.836	35716.75
565.035	35516.04
565.234	35733.13
565.432	35815.05
565.631	35444.37
565.83	35581.58
566.029	35251.86
566.228	34983.57
566.427	35462.8
566.625	34985.62
566.824	34375.33
567.023	35190.42
567.222	34102.95
567.42	35233.43
567.619	34606.75
567.818	34465.44
568.016	34305.7
568.215	34967.19
568.414	34619.03
568.612	34985.62
568.811	34193.06
569.01	34211.49
569.208	34012.84
569.407	34340.51
569.605	33703.59
569.804	34188.96
570.002	33877.67
570.201	33803.94
570.4	33578.67
570.598	33476.27
570.797	33222.32
570.995	33504.94
571.193	33275.57
571.392	33744.55
571.59	33472.17
571.789	33349.29
571.987	33240.75
572.186	33005.24
572.384	32988.85
572.582	33132.21
572.781	33038
572.979	32063.17
573.177	32583.35
573.376	32603.83
573.574	32284.35
573.772	32933.56
573.971	32403.13
574.169	32200.38
574.367	31925.96
574.565	32253.63
574.763	32083.65
574.962	32237.25
575.16	31649.48
575.358	32136.9
575.556	31450.83
575.754	31858.37
575.952	31266.51
576.151	31489.74
576.349	31151.82
576.547	31315.66
576.745	31256.27
576.943	31469.26
577.141	30936.79
577.339	31506.12
577.537	30873.3
577.735	30924.5
577.933	30488.28
578.131	30797.52
578.329	30717.65
578.527	30439.13
578.725	30361.31
578.923	30885.59
579.121	30439.13
579.319	30308.06
579.516	30105.31
579.714	30299.87
579.912	30328.54
580.11	30283.48
580.308	29906.66
580.506	29765.35
580.704	29472.49
580.901	29980.39
581.099	29806.31
581.297	29284.08
581.495	29761.25
581.692	29452.01
581.89	29179.63
582.088	29257.45
582.285	29202.16
582.483	29626.09
582.681	29243.12
582.878	28927.73
583.076	28532.47
583.274	28780.28
583.471	28464.89
583.669	29001.46
583.866	28460.79
584.064	28868.34
584.262	28032.77
584.459	28710.64
584.657	28272.38
584.854	28735.22
585.052	27918.08
585.249	28083.97
585.447	28290.81
585.644	27725.57
585.841	27748.1
586.039	28071.68
586.236	27750.15
586.434	27928.32
586.631	27483.91
586.828	27547.4
587.026	27393.8
587.223	27477.77
587.42	27037.45
587.618	27543.3
587.815	26822.42
588.012	26842.9
588.21	27027.21
588.407	27338.51
588.604	26597.14
588.801	26529.56
588.999	26646.29
589.196	26562.33
589.393	26586.9
589.59	26302.23
589.787	26349.34
589.984	25884.45
590.182	26056.48
590.379	25943.84
590.576	26232.6
590.773	26040.09
590.97	25902.88
591.167	26007.33
591.364	25730.85
591.561	25669.41
591.758	25530.15
591.955	25435.94
592.152	25857.82
592.349	25478.95
592.546	25485.09
592.743	25364.26
592.94	24979.25
593.137	25040.68
593.334	25227.05
593.531	24698.67
593.727	24760.11
593.924	24874.8
594.121	24674.1
594.318	24831.79
594.515	24645.43
594.712	24803.12
594.908	24303.42
595.105	24637.23
595.302	23963.45
595.499	24743.73
595.696	24026.94
595.892	24459.06
596.089	24379.19
596.286	24231.74
596.482	24153.91
596.679	23873.34
596.876	23934.78
597.072	23791.42
597.269	23506.76
597.466	23363.4
597.662	23340.87
597.859	23541.57
598.055	23410.5
598.252	23441.22
598.448	23473.99
598.645	23138.12
598.841	22691.66
599.038	22886.22
599.234	23025.48
599.431	22857.55
599.627	22951.76
599.824	23052.11
600.02	22499.16
600.217	22927.18
600.413	22298.45
600.609	22398.8
600.806	22603.6
601.002	22798.16
601.198	22216.54
601.395	22095.71
601.591	22048.6
601.787	22099.8
601.984	22038.36
602.18	22370.13
602.376	21864.29
602.572	21639.01
602.769	21847.9
602.965	21749.6
603.161	21665.63
603.357	21602.15
603.553	21725.02
603.75	21532.51
603.946	21573.47
604.142	21716.83
604.338	21184.36
604.534	21342.05
604.73	20932.46
604.926	20881.26
605.122	21258.09
605.318	20658.03
605.514	20897.64
605.71	20445.04
605.906	20881.26
606.102	20832.11
606.298	21129.06
606.494	20838.25
606.69	20633.46
606.886	20617.07
607.082	20258.68
607.278	20733.81
607.474	20170.61
607.67	20291.45
607.866	19951.48
608.062	20543.35
608.257	20150.14
608.453	20115.32
608.649	20363.12
608.845	20318.07
609.041	19959.67
609.236	20062.07
609.432	20055.93
609.628	20123.51
609.824	20084.6
610.019	19640.19
610.215	19638.14
610.411	19974.01
610.606	19597.18
610.802	19773.31
610.998	19500.93
611.193	19746.69
611.389	19652.48
611.584	19492.74
611.78	19330.95
611.976	19320.71
612.171	19400.58
612.367	19400.58
612.562	19244.93
612.758	19074.95
612.953	18849.68
613.149	19421.06
613.344	18808.72
613.539	19425.15
613.735	18993.03
613.93	19173.25
614.126	18730.89
614.321	19077
614.517	18730.89
614.712	19054.47
614.907	18853.77
615.103	18911.11
615.298	18745.23
615.493	18982.79
615.688	18638.73
615.884	18839.44
616.079	18567.06
616.274	18724.75
616.47	18540.43
616.665	18540.43
616.86	18472.85
617.055	18431.89
617.25	18126.74
617.445	18544.53
617.641	18155.41
617.836	18282.39
618.031	18237.33
618.226	18157.46
618.421	17915.8
618.616	18282.39
618.811	17858.46
619.006	18200.47
619.201	17850.27
619.396	17790.88
619.591	17700.76
619.786	17635.23
619.981	17524.64
620.176	17606.56
620.371	17239.97
620.566	17575.84
620.761	17553.31
620.956	17557.41
621.151	17100.71
621.346	17368.99
621.541	16902.06
621.735	17088.42
621.93	16752.56
622.125	16830.38
622.32	16656.3
622.515	16592.81
622.709	16512.94
622.904	16504.75
623.099	16381.87
623.294	16191.41
623.488	16054.2
623.683	16043.96
623.878	15994.81
624.072	16109.49
624.267	15767.48
624.462	15886.26
624.656	15722.43
624.851	15628.22
625.046	15486.91
625.24	15433.66
625.435	15273.92
625.629	15675.32
625.824	15120.32
626.018	15421.38
626.213	14770.12
626.407	15149
626.602	14864.33
626.796	14847.94
626.991	14897.1
627.185	14548.94
627.38	14559.18
627.574	14360.53
627.768	14434.25
627.963	14153.68
628.157	14188.5
628.352	14221.27
628.546	13793.24
628.74	14086.1
628.935	13948.89
629.129	13823.96
629.323	13797.34
629.517	13823.96
629.712	13645.79
629.906	13555.68
630.1	13524.96
630.294	13420.51
630.489	13404.13
630.683	13434.85
630.877	13234.14
631.071	13238.24
631.265	13146.08
631.459	13098.98
631.653	13109.22
631.848	12947.43
632.042	12896.23
632.236	13101.03
632.43	12644.33
632.624	12894.18
632.818	12572.65
633.012	12367.85
633.206	12195.82
633.4	12531.69
633.594	12287.98
633.788	12214.26
633.982	12480.49
634.176	12163.06
634.369	12255.22
634.563	12085.23
634.757	12064.75
634.951	12050.42
635.145	11718.65
635.339	11909.11
635.533	11581.43
635.726	11567.1
635.92	11694.07
636.114	11343.87
636.308	11450.36
636.501	11507.71
636.695	11407.36
636.889	11276.29
637.083	11190.27
637.276	11051.01
637.47	11130.88
637.664	11155.46
637.857	11268.09
638.051	11122.69
638.244	10719.24
638.438	10991.62
638.632	10889.22
638.825	10571.79
639.019	10645.51
639.212	10661.9
639.406	10782.73
639.599	10737.67
639.793	10420.24
639.986	10493.96
640.18	10410
640.373	10383.37
640.567	10145.81
640.76	10194.96
640.954	10256.4
641.147	10113.04
641.34	10139.66
641.534	10070.03
641.727	9924.63
641.92	9723.93
642.114	9920.53
642.307	9910.29
642.5	9652.25
642.694	9560.09
642.887	9719.83
643.08	9797.65
643.273	9510.94
643.467	9381.92
643.66	9398.3
643.853	9416.73
644.046	9420.83
644.239	9293.85
644.432	9234.46
644.626	9177.12
644.819	9101.34
645.012	9179.17
645.205	9132.06
645.398	9127.97
645.591	8960.03
645.784	9064.48
645.977	8669.22
646.17	8611.88
646.363	8794.15
646.556	8607.78
646.749	8665.13
646.942	8794.15
647.135	8597.54
647.328	8384.55
647.521	8593.45
647.714	8515.62
647.907	8316.97
648.099	8290.35
648.292	8308.78
648.485	8206.38
648.678	8024.11
648.871	8138.8
649.064	8112.17
649.256	8179.76
649.449	8081.46
649.642	7929.91
649.835	7800.88
650.027	7837.75
650.22	7874.61
650.413	7630.9
650.605	7911.47
650.798	7594.04
650.991	7569.46
651.183	7735.35
651.376	7579.7
651.568	7518.26
651.761	7641.14
651.954	7501.88
652.146	7469.11
652.339	7458.87
652.531	7286.84
652.724	7284.8
652.916	7239.74
653.109	7252.03
653.301	7151.68
653.494	7202.88
653.686	7223.36
653.879	7303.23
654.071	7075.9
654.263	7002.18
654.456	7008.32
654.648	7014.46
654.84	6729.8
655.033	6737.99
655.225	6680.64
655.417	6821.95
655.61	6858.82
655.802	6778.95
655.994	6688.84
656.186	6729.8
656.379	6727.75
656.571	6658.12
656.763	6672.45
656.955	6457.42
657.148	6457.42
657.34	6754.37
657.532	6457.42
657.724	6336.59
657.916	6426.7
658.108	6293.58
658.3	6176.84
658.492	6408.26
658.684	6258.76
658.876	6197.32
659.068	6312.01
659.26	5974.1
659.452	6070.35
659.644	6148.17
659.836	5945.42
660.028	6082.64
660.22	5892.18
660.412	5965.9
660.604	5900.37
660.796	5820.5
660.988	5896.27
661.18	5761.11
661.372	5767.25
661.563	5802.07
661.755	5617.75
661.947	5673.04
662.139	5687.38
662.331	5572.69
662.522	5716.05
662.714	5574.74
662.906	5638.23
663.097	5541.97
663.289	5541.97
663.481	5478.49
663.673	5584.98
663.864	5337.18
664.056	5482.58
664.247	5398.62
664.439	5167.2
664.631	5247.07
664.822	5339.23
665.014	5392.47
665.205	5148.76
665.397	5156.96
665.588	5179.48
665.78	5132.38
665.971	5120.09
666.163	5161.05
666.354	5140.57
666.546	5056.61
666.737	4950.11
666.929	4962.4
667.12	5023.84
667.311	4884.58
667.503	4786.27
667.694	4802.66
667.885	4933.73
668.077	4810.85
668.268	4753.51
668.459	4796.51
668.651	4644.96
668.842	4878.43
669.033	4677.73
669.224	4769.89
669.416	4790.37
669.607	4556.9
669.798	4630.63
669.989	4716.64
670.18	4563.05
670.371	4622.44
670.563	4583.52
670.754	4587.62
670.945	4458.6
671.136	4573.28
671.327	4423.78
671.518	4429.93
671.709	4503.65
671.9	4567.14
672.091	4462.69
672.282	4446.31
672.473	4343.91
672.664	4477.03
672.855	4460.65
673.046	4401.26
673.237	4284.52
673.428	4237.42
673.619	4462.69
673.809	4325.48
674	4239.47
674.191	4282.47
674.382	3991.66
674.573	4251.75
674.764	4147.31
674.954	4196.46
675.145	4034.67
675.336	4049
675.527	3948.65
675.717	4098.16
675.908	4157.55
676.099	4178.03
676.289	3944.56
676.48	4040.81
676.671	3971.18
676.861	4003.95
677.052	3950.7
677.243	4089.96
677.433	3979.37
677.624	3991.66
677.814	3967.09
678.005	3846.26
678.195	3885.17
678.386	4006
678.576	3819.63
678.767	3922.03
678.957	3983.47
679.148	3897.46
679.338	3836.02
679.529	3852.4
679.719	3801.2
679.909	3954.8
680.1	3856.5
680.29	3827.82
680.481	3756.15
680.671	3774.58
680.861	3795.06
681.052	3543.16
681.242	3770.48
681.432	3817.58
681.622	3651.7
681.813	3631.22
682.003	3793.01
682.193	3735.67
682.383	3686.51
682.573	3823.73
682.764	3651.7
682.954	3729.52
683.144	3768.43
683.334	3631.22
683.524	3629.17
683.714	3727.47
683.904	3639.41
684.094	3666.03
684.284	3563.64
684.474	3641.46
684.664	3565.68
684.854	3606.64
685.044	3582.07
685.234	3502.2
685.424	3600.5
685.614	3432.57
685.804	3424.37
685.994	3504.25
686.184	3487.86
686.374	3467.38
686.564	3571.83
686.753	3461.24
686.943	3348.6
687.133	3340.41
687.323	3403.89
687.513	3256.44
687.702	3197.05
687.892	3330.17
688.082	3188.86
688.272	3319.93
688.461	3375.22
688.651	3158.14
688.841	3278.97
689.03	3192.95
689.22	3192.95
689.41	3186.81
689.599	3096.7
689.789	3203.19
689.979	3127.42
690.168	3182.71
690.358	3133.56
690.547	3096.7
690.737	3160.19
690.926	3084.41
691.116	3090.56
691.305	3094.65
691.495	3025.02
691.684	3068.03
691.874	3057.79
692.063	3098.75
692.252	3094.65
692.442	3180.67
692.631	3037.31
692.82	2932.86
693.01	3147.9
693.199	3031.16
693.388	2984.06
693.578	3012.73
693.767	3004.54
693.956	2877.57
694.146	2912.38
694.335	2896
694.524	2922.62
694.713	2979.97
694.902	2941.05
695.092	2928.77
695.281	2820.22
695.47	2705.54
695.659	2775.17
695.848	2736.26
696.037	2814.08
696.226	2916.48
696.415	2797.7
696.604	2822.27
696.793	2873.47
696.982	2844.8
697.171	2793.6
697.36	2783.36
697.549	2721.92
697.738	2723.97
697.927	2840.7
698.116	2752.64
698.305	2799.74
698.494	2807.94
698.683	2855.04
698.872	2746.5
699.061	2721.92
699.25	2699.39
699.438	2705.54
699.627	2799.74
699.816	2744.45
700.005	2670.72
700.193	2625.67
700.382	2715.78
700.571	2672.77
700.76	2875.52
700.948	2812.03
701.137	2680.96
701.326	2779.26
701.514	2472.07
701.703	2687.11
701.892	2611.33
702.08	2726.02
702.269	2678.91
702.457	2699.39
702.646	2570.37
702.834	2705.54
703.023	2699.39
703.212	2875.52
703.4	2721.92
703.589	2590.85
703.777	2680.96
703.965	2697.35
704.154	2529.41
704.342	2547.84
704.531	2635.91
704.719	2683.01
704.907	2605.19
705.096	2656.39
705.284	2680.96
705.472	2613.38
705.661	2562.18
705.849	2687.11
706.037	2597
706.226	2631.81
706.414	2695.3
706.602	2498.69
706.79	2584.71
706.979	2586.76
707.167	2597
707.355	2564.23
707.543	2611.33
707.731	2654.34
707.919	2463.88
708.107	2574.47
708.296	2617.47
708.484	2506.88
708.672	2443.4
708.86	2551.94
709.048	2539.65
709.236	2615.43
709.424	2541.7
709.612	2551.94
709.8	2590.85
709.988	2570.37
710.176	2605.19
710.364	2549.89
710.551	2504.84
710.739	2568.32
710.927	2523.27
711.115	2586.76
711.303	2658.43
711.491	2599.04
711.679	2566.28
711.866	2515.08
712.054	2558.08
712.242	2566.28
712.43	2656.39
712.617	2609.28
712.805	2590.85
712.993	2551.94
713.181	2510.98
713.368	2539.65
713.556	2576.52
713.744	2490.5
713.931	2693.25
714.119	2472.07
714.306	2482.31
714.494	2525.32
714.682	2459.78
714.869	2560.13
715.057	2492.55
715.244	2480.26
715.432	2513.03
715.619	2492.55
715.807	2486.4
715.994	2644.1
716.182	2504.84
716.369	2482.31
716.556	2603.14
716.744	2549.89
716.931	2490.5
717.119	2437.25
717.306	2439.3
717.493	2568.32
717.681	2537.6
717.868	2453.64
718.055	2527.36
718.242	2486.4
718.43	2488.45
718.617	2619.52
718.804	2443.4
718.991	2373.77
719.179	2709.63
719.366	2394.25
719.553	2433.16
719.74	2447.49
719.927	2574.47
720.114	2414.73
720.301	2488.45
720.488	2406.53
720.676	2439.3
720.863	2394.25
721.05	2465.93
721.237	2361.48
721.424	2375.81
721.611	2371.72
721.798	2420.87
721.985	2470.02
722.172	2420.87
722.358	2388.1
722.545	2470.02
722.732	2435.21
722.919	2396.29
723.106	2439.3
723.293	2242.7
723.48	2400.39
723.667	2388.1
723.853	2295.94
724.04	2381.96
724.227	2439.3
724.414	2373.77
724.6	2338.95
724.787	2332.81
724.974	2291.85
725.161	2396.29
725.347	2304.14
725.534	2283.66
725.72	2306.18
725.907	2379.91
726.094	2492.55
726.28	2242.7
726.467	2158.73
726.653	2328.71
726.84	2338.95
727.027	2396.29
727.213	2304.14
727.4	2283.66
727.586	2388.1
727.773	2248.84
727.959	2263.18
728.145	2384.01
728.332	2336.9
728.518	2326.66
728.705	2312.33
728.891	2330.76
729.077	2207.88
729.264	2341
729.45	2341
729.636	2361.48
729.823	2160.78
730.009	2316.42
730.195	2185.35
730.382	2334.86
730.568	2152.59
730.754	2332.81
730.94	2322.57
731.126	2328.71
731.313	2187.4
731.499	2275.46
731.685	2316.42
731.871	2234.5
732.057	2277.51
732.243	2234.5
732.429	2273.42
732.615	2203.79
732.801	2175.11
732.987	2218.12
733.173	2205.83
733.359	2162.83
733.545	2214.02
733.731	2173.07
733.917	2216.07
734.103	2152.59
734.289	2226.31
734.475	2085
734.661	2162.83
734.847	2203.79
735.033	2158.73
735.219	2158.73
735.404	2103.43
735.59	2224.26
735.776	2177.16
735.962	2185.35
736.148	2103.43
736.333	2054.28
736.519	2160.78
736.705	2128.01
736.89	2037.9
737.076	2250.89
737.262	1996.94
737.447	2136.2
737.633	2072.72
737.819	2154.63
738.004	2107.53
738.19	1972.36
738.375	2027.66
738.561	2160.78
738.747	2144.39
738.932	2035.85
739.118	2148.49
739.303	2103.43
739.489	2066.57
739.674	2033.8
739.859	1974.41
740.045	1982.6
740.23	2105.48
740.416	1888.4
740.601	1972.36
740.786	1849.49
740.972	1964.17
741.157	1927.31
741.342	1970.32
741.528	2054.28
741.713	1945.74
741.898	1929.36
742.084	1935.5
742.269	1898.64
742.454	1919.12
742.639	1921.17
742.824	1863.82
743.01	1910.93
743.195	1888.4
743.38	1872.01
743.565	1869.97
743.75	1869.97
743.935	1857.68
744.12	1869.97
744.305	1771.66
744.49	1917.07
744.675	1804.43
744.86	1902.73
745.045	1818.77
745.23	1872.01
745.415	1790.1
745.6	1820.81
745.785	1636.5
745.97	1826.96
746.155	1779.86
746.34	1611.92
746.525	1697.94
746.71	1806.48
746.895	1716.37
747.079	1632.4
747.264	1726.61
747.449	1654.93
747.634	1740.94
747.819	1683.6
748.003	1659.03
748.188	1585.3
748.373	1628.31
748.557	1605.78
748.742	1538.2
748.927	1568.91
749.111	1564.82
749.296	1530
749.481	1609.87
749.665	1605.78
749.85	1429.65
750.034	1605.78
750.219	1333.4
750.404	1507.48
750.588	1593.49
750.773	1474.71
750.957	1454.23
751.141	1482.9
751.326	1603.73
751.51	1394.84
751.695	1437.84
751.879	1468.56
752.064	1411.22
752.248	1370.26
752.432	1476.76
752.617	1386.65
752.801	1407.13
752.985	1374.36
753.17	1347.73
753.354	1310.87
753.538	1333.4
753.722	1386.65
753.907	1312.92
754.091	1278.1
754.275	1274.01
754.459	1208.47
754.643	1308.82
754.828	1153.18
755.012	1280.15
755.196	1226.9
755.38	1251.48
755.564	1306.77
755.748	1198.23
755.932	1271.96
756.116	1177.75
756.3	1224.86
756.484	1106.07
756.668	1099.93
756.852	1173.66
757.036	1124.51
757.22	1231
757.404	1124.51
757.588	1040.54
757.772	997.53
757.956	1044.63
758.14	1054.87
758.323	1024.16
758.507	1157.27
758.691	1063.07
758.875	1175.7
759.059	1001.63
759.242	999.58
759.426	1038.49
759.61	1077.4
759.794	952.48
759.977	952.48
760.161	1081.5
760.345	997.53
760.528	1079.45
760.712	991.39
760.895	927.9
761.079	1005.72
761.263	921.76
761.446	923.8
761.63	1026.2
761.813	958.62
761.997	970.91
762.18	940.19
762.364	975
762.547	903.32
762.731	964.76
762.914	936.09
763.098	1015.96
763.281	954.52
763.464	1013.92
763.648	858.27
763.831	864.41
764.015	944.28
764.198	868.51
764.381	944.28
764.564	852.13
764.748	977.05
764.931	909.47
765.114	954.52
765.297	934.04
765.481	911.52
765.664	964.76
765.847	872.61
766.03	936.09
766.213	831.65
766.397	872.61
766.58	815.26
766.763	878.75
766.946	811.17
767.129	841.89
767.312	850.08
767.495	751.78
767.678	901.28
767.861	899.23
768.044	841.89
768.227	876.7
768.41	755.87
768.593	800.93
768.776	821.41
768.959	835.74
769.142	841.89
769.324	880.8
769.507	833.69
769.69	897.18
769.873	727.2
770.056	772.25
770.239	749.73
770.421	739.49
770.604	739.49
770.787	757.92
770.97	723.1
771.152	825.5
771.335	807.07
771.518	635.04
771.7	708.77
771.883	829.6
772.066	735.39
772.248	671.9
772.431	768.16
772.613	792.73
772.796	745.63
772.978	698.53
773.161	667.81
773.343	649.38
773.526	641.18
773.708	589.99
773.891	682.14
774.073	676
774.256	659.62
774.438	755.87
774.621	702.62
774.803	710.82
774.985	714.91
775.168	706.72
775.35	622.75
775.532	618.66
775.715	565.41
775.897	723.1
776.079	626.85
776.261	663.71
776.444	592.03
776.626	671.9
776.808	620.71
776.99	614.56
777.173	575.65
777.355	630.95
777.537	657.57
777.719	557.22
777.901	534.69
778.083	524.45
778.265	508.07
778.447	542.88
778.629	546.98
778.811	563.36
778.993	616.61
779.175	602.27
779.357	583.84
779.539	495.78
779.721	448.68
779.903	563.36
780.085	485.54
780.267	610.47
780.449	594.08
780.631	528.55
780.812	559.27
780.994	479.4
781.176	467.11
781.358	469.16
781.54	465.06
781.721	424.1
781.903	477.35
782.085	489.64
782.267	485.54
782.448	469.16
782.63	465.06
782.812	489.64
782.993	407.72
783.175	448.68
783.357	426.15
783.538	450.72
783.72	452.77
783.901	370.85
784.083	471.2
784.264	446.63
784.446	391.33
784.627	350.37
784.809	374.95
784.99	477.35
785.172	559.27
785.353	387.24
785.535	415.91
785.716	391.33
785.897	397.48
786.079	444.58
786.26	426.15
786.441	348.33
786.623	385.19
786.804	381.09
786.985	403.62
787.167	356.52
787.348	387.24
787.529	354.47
787.71	377
787.891	364.71
788.073	346.28
788.254	346.28
788.435	372.9
788.616	424.1
788.797	331.94
788.978	342.18
789.159	284.84
789.34	356.52
789.522	362.66
789.703	340.13
789.884	342.18
790.065	321.7
790.246	317.61
790.427	342.18
790.607	428.2
790.788	350.37
790.969	309.41
791.15	370.85
791.331	190.63
791.512	307.37
791.693	262.31
791.874	315.56
792.054	395.43
792.235	290.98
792.416	194.73
792.597	282.79
792.778	356.52
792.958	321.7
793.139	225.45
793.32	237.74
793.5	178.34
793.681	346.28
793.862	247.97
794.042	237.74
794.223	280.74
794.404	295.08
794.584	301.22
794.765	241.83
794.945	340.13
795.126	301.22
795.306	262.31
795.487	247.97
795.667	297.13
795.848	225.45
796.028	266.41
796.209	284.84
796.389	278.69
796.57	215.21
796.75	243.88
796.93	260.26
797.111	239.78
797.291	254.12
797.471	241.83
797.652	223.4
797.832	237.74
798.012	356.52
798.192	250.02
798.373	243.88
798.553	164.01
798.733	219.3
798.913	233.64
799.093	153.77
799.274	198.82
799.454	227.5
799.634	192.68
799.814	247.97
799.994	225.45
800.174	272.55
800.354	221.35
800.534	196.78
800.714	227.5
800.894	184.49
801.074	270.5
801.254	297.13
801.434	215.21
801.614	204.97
801.794	194.73
801.974	725.15
802.154	219.3
802.334	215.21
802.514	176.3
802.693	178.34
802.873	194.73
803.053	229.54
803.233	196.78
803.413	260.26
803.592	207.02
803.772	137.38
803.952	196.78
804.131	133.29
804.311	159.91
804.491	159.91
804.67	151.72
804.85	190.63
805.03	182.44
805.209	190.63
805.389	104.62
805.568	149.67
805.748	188.58
805.928	231.59
806.107	196.78
806.287	182.44
806.466	200.87
806.646	104.62
806.825	145.58
807.004	157.86
807.184	159.91
807.363	133.29
807.543	145.58
807.722	170.15
807.901	133.29
808.081	200.87
808.26	110.76
808.439	204.97
808.619	149.67
808.798	108.71
808.977	143.53
809.156	182.44
809.336	194.73
809.515	106.67
809.694	194.73
809.873	166.06
810.052	139.43
810.231	112.81
810.411	200.87
810.59	256.17
810.769	100.52
810.948	215.21
811.127	96.43
811.306	198.82
811.485	118.95
811.664	125.1
811.843	153.77
812.022	166.06
812.201	118.95
812.38	108.71
812.559	88.23
812.737	145.58
812.916	88.23
813.095	100.52
813.274	77.99
813.453	86.19
813.632	104.62
813.811	166.06
813.989	86.19
814.168	123.05
814.347	82.09
814.526	98.47
814.704	102.57
814.883	147.62
815.062	108.71
815.24	143.53
815.419	110.76
815.598	129.19
815.776	71.85
815.955	141.48
816.133	67.75
816.312	80.04
816.49	88.23
816.669	164.01
816.847	127.14
817.026	147.62
817.204	104.62
817.383	106.67
817.561	80.04
817.74	65.71
817.918	96.43
818.097	114.86
818.275	127.14
818.453	110.76
818.632	108.71
818.81	92.33
818.988	49.32
819.167	86.19
819.345	112.81
819.523	102.57
819.701	159.91
819.879	157.86
820.058	104.62
820.236	118.95
820.414	77.99
820.592	114.86
820.77	43.18
820.948	90.28
821.127	114.86
821.305	100.52
821.483	90.28
821.661	137.38
821.839	121
822.017	49.32
822.195	73.9
822.373	59.56
822.551	112.81
822.729	118.95
822.907	98.47
823.085	118.95
823.262	129.19
823.44	63.66
823.618	39.08
823.796	43.18
823.974	73.9
824.152	32.94
824.329	61.61
824.507	75.95
824.685	43.18
824.863	24.75
825.04	53.42
825.218	73.9
825.396	55.47
825.574	71.85
825.751	96.43
825.929	71.85
826.107	-18.26
826.284	71.85
826.462	59.56
826.639	127.14
826.817	34.99
826.994	75.95
827.172	45.23
827.349	63.66
827.527	108.71
827.704	69.8
827.882	86.19
828.059	41.13
828.237	28.84
828.414	92.33
828.591	-3.93
828.769	18.6
828.946	-12.12
829.124	61.61
829.301	80.04
829.478	37.03
829.655	45.23
829.833	24.75
830.01	8.36
830.187	98.47
830.364	55.47
830.542	90.28
830.719	63.66
830.896	133.29
831.073	116.9
831.25	71.85
831.427	39.08
831.604	55.47
831.782	34.99
831.959	67.75
832.136	84.14
832.313	12.46
832.49	82.09
832.667	92.33
832.844	67.75
833.021	55.47
833.198	6.31
833.374	43.18
833.551	-53.08
833.728	-18.26
833.905	63.66
834.082	55.47
834.259	-67.41
834.436	166.06
834.612	8.36
834.789	102.57
834.966	-16.21
835.143	12.46
835.319	-30.55
835.496	45.23
835.673	77.99
835.85	180.39
836.026	16.55
836.203	166.06
836.38	51.37
836.556	-22.36
836.733	-20.31
836.909	57.51
837.086	47.27
837.262	26.79
837.439	39.08
837.616	67.75
837.792	32.94
837.968	43.18
838.145	-3.93
838.321	16.55
838.498	12.46
838.674	30.89
838.851	20.65
839.027	110.76
839.203	-34.64
839.38	59.56
839.556	37.03
839.732	92.33
839.909	22.7
840.085	51.37
840.261	45.23
840.437	47.27
840.614	41.13
840.79	67.75
840.966	37.03
841.142	86.19
841.318	-18.26
841.494	41.13
841.671	51.37
841.847	34.99
842.023	24.75
842.199	4.27
842.375	51.37
842.551	-40.79
842.727	26.79
842.903	88.23
843.079	71.85
843.255	96.43
843.431	-16.21
843.607	34.99
843.783	-34.64
843.959	18.6
844.134	-30.55
844.31	110.76
844.486	-32.6
844.662	6.31
844.838	63.66
845.013	-20.31
845.189	34.99
845.365	-5.97
845.541	55.47
845.716	22.7
845.892	73.9
846.068	63.66
846.244	-1.88
846.419	-1.88
846.595	12.46
846.77	-34.64
846.946	-40.79
847.122	32.94
847.297	26.79
847.473	104.62
847.648	-20.31
847.824	104.62
847.999	-28.5
848.175	-63.32
848.35	75.95
848.526	63.66
848.701	34.99
848.876	-14.17
849.052	47.27
849.227	53.42
849.403	-10.07
849.578	-5.97
849.753	4.27
849.929	8.36
850.104	-24.4
850.279	8.36
850.454	37.03
850.63	55.47
850.805	-5.97
850.98	20.65
851.155	30.89
851.33	-16.21
851.505	30.89
851.681	121
851.856	2.22
852.031	82.09
852.206	-5.97
852.381	-46.93
852.556	-42.84
852.731	18.6
852.906	59.56
853.081	59.56
853.256	63.66
853.431	-26.45
853.606	-51.03
853.781	24.75
853.956	-22.36
854.131	86.19
854.305	22.7
854.48	-10.07
854.655	18.6
854.83	51.37
855.005	45.23
855.18	92.33
855.354	82.09
855.529	55.47
855.704	-12.12
855.879	0.17
856.053	-36.69
856.228	82.09
856.403	32.94
856.577	-22.36
856.752	37.03
856.926	26.79
857.101	-3.93
857.276	41.13
857.45	12.46
857.625	18.6
857.799	-8.02
857.974	63.66
858.148	-20.31
858.323	16.55
858.497	18.6
858.672	-32.6
858.846	-67.41
859.02	34.99
859.195	-40.79
859.369	-8.02
859.543	63.66
859.718	-57.17
859.892	65.71
860.066	26.79
860.241	51.37
860.415	-61.27
860.589	-5.97
860.763	51.37
860.938	-51.03
861.112	49.32
861.286	18.6
861.46	6.31
861.634	47.27
861.808	37.03
861.982	-14.17
862.157	-20.31
862.331	-38.74
862.505	-14.17
862.679	-12.12
862.853	-42.84
863.027	-51.03
863.201	96.43
863.375	14.51
863.549	34.99
863.722	18.6
863.896	121
864.07	-10.07
864.244	63.66
864.418	37.03
864.592	-3.93
864.766	-55.12
864.939	28.84
865.113	-5.97
865.287	-12.12
865.461	-26.45
865.634	30.89
865.808	59.56
865.982	18.6
866.156	-1.88
866.329	-24.4
866.503	-26.45
866.676	10.41
866.85	22.7
867.024	43.18
867.197	-18.26
867.371	28.84
867.544	49.32
867.718	-28.5
867.891	86.19
868.065	-42.84
868.238	8.36
868.412	10.41
868.585	4.27
868.759	-51.03
868.932	-38.74
869.105	-57.17
869.279	41.13
869.452	-22.36
869.625	16.55
869.799	18.6
869.972	0.17
870.145	28.84
870.319	45.23
870.492	-42.84
870.665	-38.74
870.838	28.84
871.011	-63.32
871.185	28.84
871.358	-12.12
871.531	-20.31
871.704	-18.26
871.877	4.27
872.05	0.17
872.223	-3.93
872.396	-18.26
872.569	-44.88
872.742	-44.88
872.915	26.79
873.088	-34.64
873.261	26.79
873.434	39.08
873.607	39.08
873.78	41.13
873.953	-34.64
874.126	-38.74
874.299	12.46
874.471	90.28
874.644	-24.4
874.817	34.99
874.99	39.08
875.163	-5.97
875.335	18.6
875.508	-12.12
875.681	-10.07
875.853	-36.69
876.026	18.6
876.199	-48.98
876.371	14.51
876.544	30.89
876.717	-28.5
876.889	51.37
877.062	67.75
877.234	6.31
877.407	-10.07
877.579	-26.45
877.752	45.23
877.924	22.7
878.097	32.94
878.269	22.7
878.442	-55.12
878.614	-3.93
878.786	-14.17
878.959	43.18
879.131	41.13
879.303	-100.18
879.476	47.27
879.648	2.22
879.82	-51.03
879.993	-20.31
880.165	73.9
880.337	-14.17
880.509	-36.69
880.681	-14.17
880.854	26.79
881.026	30.89
881.198	63.66
881.37	45.23
881.542	10.41
881.714	-46.93
881.886	2.22
882.058	4.27
882.23	-26.45
882.402	-1.88
882.574	16.55
882.746	2.22
882.918	39.08
883.09	-30.55
883.262	12.46
883.434	-14.17
883.606	-26.45
883.778	26.79
883.95	30.89
884.122	-42.84
884.293	43.18
884.465	30.89
884.637	39.08
884.809	-18.26
884.98	-44.88
885.152	18.6
885.324	-8.02
885.496	-59.22
885.667	-1.88
885.839	-14.17
886.011	-28.5
886.182	71.85
886.354	18.6
886.525	53.42
886.697	34.99
886.869	14.51
887.04	20.65
887.212	24.75
887.383	12.46
887.555	20.65
887.726	-51.03
887.897	-10.07
888.069	-65.36
888.24	-36.69
888.412	-61.27
888.583	-51.03
888.754	43.18
888.926	-14.17
889.097	12.46
889.268	-53.08
889.44	-20.31
889.611	0.17
889.782	-20.31
889.953	-106.32
890.125	-3.93
890.296	-108.37
890.467	-28.5
890.638	-12.12
890.809	30.89
890.98	-30.55
891.151	-26.45
891.323	14.51
891.494	59.56
891.665	6.31
891.836	-30.55
892.007	18.6
892.178	-46.93
892.349	22.7
892.52	-22.36
892.691	-26.45
892.862	6.31
893.032	-87.89
893.203	39.08
893.374	30.89
893.545	-81.75
893.716	-59.22
893.887	55.47
894.057	51.37
894.228	24.75
894.399	20.65
894.57	0.17
894.74	-26.45
894.911	-10.07
895.082	55.47
895.253	-89.94
895.423	0.17
895.594	-34.64
895.764	4.27
895.935	-10.07
896.106	6.31
896.276	-98.13
896.447	-12.12
896.617	-28.5
896.788	-83.8
896.958	-34.64
897.129	-36.69
897.299	-34.64
897.47	41.13
897.64	26.79
897.81	-18.26
897.981	65.71
898.151	-14.17
898.322	-34.64
898.492	-51.03
898.662	-18.26
898.832	-51.03
899.003	-24.4
899.173	-46.93
899.343	30.89
899.513	-36.69
