Data from USB4F104151__66__10-24-02-262.txt Node

Date: Wed Mar 12 10:24:02 EDT 2025
User: louis
Spectrometer: USB4F10415
Trigger mode: 4
Integration Time (sec): 3.000000E-2
Scans to average: 1
Electric dark correction enabled: true
Nonlinearity correction enabled: false
Boxcar width: 0
XAxis mode: Wavelengths
Number of Pixels in Spectrum: 3648
>>>>>Begin Spectral Data<<<<<
178.204	-102.06
178.424	-102.06
178.644	-102.06
178.864	-97.96
179.084	-157.35
179.304	-24.23
179.524	-1.71
179.744	33.11
179.964	-5.8
180.184	-7.85
180.404	16.73
180.624	-3.75
180.844	31.06
181.064	-59.05
181.283	-5.8
181.503	6.49
181.723	20.82
181.943	-65.19
182.163	16.73
182.383	35.16
182.602	2.39
182.822	-85.67
183.042	6.49
183.262	-61.1
183.482	41.3
183.701	-95.91
183.921	-34.47
184.141	-9.9
184.361	24.92
184.58	78.16
184.8	-38.57
185.02	37.2
185.239	39.25
185.459	-28.33
185.679	-1.71
185.898	-44.71
186.118	22.87
186.338	31.06
186.557	49.49
186.777	4.44
186.997	10.58
187.216	-30.38
187.436	65.88
187.655	-7.85
187.875	-102.06
188.095	24.92
188.314	53.59
188.534	16.73
188.753	0.34
188.973	41.3
189.192	61.78
189.412	-9.9
189.631	14.68
189.851	-48.81
190.07	108.88
190.29	-5.8
190.509	41.3
190.729	35.16
190.948	37.2
191.168	131.41
191.387	-73.39
191.607	31.06
191.826	-18.09
192.045	16.73
192.265	35.16
192.484	29.01
192.704	57.68
192.923	-75.43
193.142	12.63
193.362	47.44
193.581	57.68
193.8	55.64
194.02	57.68
194.239	2.39
194.458	-1.71
194.678	-28.33
194.897	-3.75
195.116	-34.47
195.335	-52.91
195.555	20.82
195.774	-1.71
195.993	90.45
196.212	6.49
196.432	-54.95
196.651	12.63
196.87	-28.33
197.089	39.25
197.308	33.11
197.528	22.87
197.747	22.87
197.966	24.92
198.185	104.79
198.404	-3.75
198.623	59.73
198.842	55.64
199.062	39.25
199.281	43.35
199.5	-26.28
199.719	31.06
199.938	41.3
200.157	67.92
200.376	37.2
200.595	26.96
200.814	61.78
201.033	-26.28
201.252	102.74
201.471	0.34
201.69	31.06
201.909	-9.9
202.128	45.4
202.347	26.96
202.566	24.92
202.785	-18.09
203.004	-18.09
203.223	63.83
203.442	41.3
203.661	-24.23
203.879	-30.38
204.098	20.82
204.317	-67.24
204.536	8.53
204.755	-48.81
204.974	53.59
205.193	90.45
205.411	8.53
205.63	8.53
205.849	0.34
206.068	8.53
206.287	24.92
206.505	-7.85
206.724	-22.19
206.943	45.4
207.162	-20.14
207.381	-26.28
207.599	33.11
207.818	37.2
208.037	82.26
208.255	-3.75
208.474	65.88
208.693	-24.23
208.911	6.49
209.13	74.07
209.349	33.11
209.567	-34.47
209.786	4.44
210.005	24.92
210.223	43.35
210.442	-57
210.661	-42.67
210.879	29.01
211.098	57.68
211.316	-48.81
211.535	26.96
211.753	4.44
211.972	16.73
212.191	-11.95
212.409	6.49
212.628	29.01
212.846	-3.75
213.065	65.88
213.283	-7.85
213.502	20.82
213.72	-18.09
213.938	6.49
214.157	24.92
214.375	-54.95
214.594	-42.67
214.812	4.44
215.031	-40.62
215.249	22.87
215.467	53.59
215.686	-40.62
215.904	80.21
216.122	-34.47
216.341	22.87
216.559	100.69
216.778	20.82
216.996	24.92
217.214	67.92
217.432	-20.14
217.651	12.63
217.869	-24.23
218.087	59.73
218.306	-1.71
218.524	-32.43
218.742	-42.67
218.96	-7.85
219.179	-48.81
219.397	2.39
219.615	-44.71
219.833	22.87
220.051	20.82
220.27	-24.23
220.488	-3.75
220.706	31.06
220.924	-28.33
221.142	-69.29
221.36	0.34
221.578	78.16
221.796	0.34
222.015	45.4
222.233	67.92
222.451	41.3
222.669	-28.33
222.887	-18.09
223.105	-13.99
223.323	-5.8
223.541	-77.48
223.759	39.25
223.977	26.96
224.195	110.93
224.413	0.34
224.631	16.73
224.849	61.78
225.067	45.4
225.285	55.64
225.503	47.44
225.721	-24.23
225.939	-38.57
226.157	22.87
226.375	117.08
226.592	6.49
226.81	45.4
227.028	-11.95
227.246	53.59
227.464	37.2
227.682	-36.52
227.9	-13.99
228.117	-32.43
228.335	-3.75
228.553	6.49
228.771	20.82
228.989	8.53
229.206	29.01
229.424	8.53
229.642	-18.09
229.86	-36.52
230.077	16.73
230.295	-50.86
230.513	-7.85
230.731	53.59
230.948	57.68
231.166	84.31
231.384	-13.99
231.601	33.11
231.819	33.11
232.037	37.2
232.254	-9.9
232.472	33.11
232.689	-16.04
232.907	-5.8
233.125	14.68
233.342	41.3
233.56	8.53
233.777	-22.19
233.995	53.59
234.213	78.16
234.43	33.11
234.648	-7.85
234.865	39.25
235.083	47.44
235.3	20.82
235.518	55.64
235.735	20.82
235.953	6.49
236.17	-9.9
236.388	24.92
236.605	-16.04
236.822	51.54
237.04	33.11
237.257	41.3
237.475	14.68
237.692	29.01
237.909	112.98
238.127	-67.24
238.344	-13.99
238.562	45.4
238.779	-42.67
238.996	-26.28
239.214	12.63
239.431	-28.33
239.648	33.11
239.865	-1.71
240.083	33.11
240.3	12.63
240.517	-18.09
240.735	2.39
240.952	74.07
241.169	37.2
241.386	22.87
241.603	-42.67
241.821	-36.52
242.038	31.06
242.255	53.59
242.472	-5.8
242.689	10.58
242.907	102.74
243.124	8.53
243.341	2.39
243.558	59.73
243.775	4.44
243.992	-5.8
244.209	98.64
244.426	41.3
244.643	-57
244.86	-61.1
245.078	31.06
245.295	8.53
245.512	-24.23
245.729	-11.95
245.946	45.4
246.163	49.49
246.38	4.44
246.597	2.39
246.814	29.01
247.031	16.73
247.248	65.88
247.464	14.68
247.681	22.87
247.898	35.16
248.115	-5.8
248.332	-20.14
248.549	24.92
248.766	90.45
248.983	41.3
249.2	8.53
249.417	102.74
249.633	-13.99
249.85	-7.85
250.067	55.64
250.284	-28.33
250.501	-9.9
250.717	22.87
250.934	-104.11
251.151	-5.8
251.368	22.87
251.585	-7.85
251.801	51.54
252.018	-7.85
252.235	24.92
252.451	-30.38
252.668	-26.28
252.885	-46.76
253.102	18.77
253.318	55.64
253.535	33.11
253.752	-36.52
253.968	8.53
254.185	6.49
254.401	-52.91
254.618	-16.04
254.835	39.25
255.051	39.25
255.268	24.92
255.484	18.77
255.701	-69.29
255.917	-11.95
256.134	-11.95
256.351	164.18
256.567	-16.04
256.784	35.16
257	33.11
257.217	98.64
257.433	0.34
257.65	49.49
257.866	61.78
258.082	-1.71
258.299	-3.75
258.515	12.63
258.732	18.77
258.948	16.73
259.165	69.97
259.381	-42.67
259.597	22.87
259.814	-5.8
260.03	16.73
260.246	47.44
260.463	26.96
260.679	6.49
260.895	-20.14
261.112	-16.04
261.328	16.73
261.544	-85.67
261.761	96.6
261.977	49.49
262.193	-7.85
262.409	45.4
262.626	-22.19
262.842	22.87
263.058	74.07
263.274	57.68
263.49	-42.67
263.707	37.2
263.923	45.4
264.139	-48.81
264.355	0.34
264.571	37.2
264.787	12.63
265.004	20.82
265.22	14.68
265.436	53.59
265.652	-32.43
265.868	41.3
266.084	59.73
266.3	-3.75
266.516	-32.43
266.732	110.93
266.948	29.01
267.164	47.44
267.38	80.21
267.596	-40.62
267.812	72.02
268.028	-11.95
268.244	-9.9
268.46	0.34
268.676	29.01
268.892	41.3
269.108	-18.09
269.324	-11.95
269.54	33.11
269.756	0.34
269.972	-5.8
270.188	0.34
270.403	37.2
270.619	37.2
270.835	4.44
271.051	-36.52
271.267	18.77
271.483	18.77
271.698	45.4
271.914	-24.23
272.13	-1.71
272.346	-32.43
272.562	-9.9
272.777	8.53
272.993	16.73
273.209	55.64
273.425	14.68
273.64	-34.47
273.856	-18.09
274.072	18.77
274.287	-9.9
274.503	-67.24
274.719	82.26
274.934	43.35
275.15	-16.04
275.366	72.02
275.581	-36.52
275.797	0.34
276.012	-36.52
276.228	53.59
276.444	123.22
276.659	102.74
276.875	10.58
277.09	-34.47
277.306	26.96
277.521	45.4
277.737	-38.57
277.952	-42.67
278.168	-5.8
278.383	-3.75
278.599	2.39
278.814	41.3
279.03	-3.75
279.245	35.16
279.461	-13.99
279.676	88.4
279.892	37.2
280.107	-65.19
280.322	-3.75
280.538	-11.95
280.753	-16.04
280.969	-87.72
281.184	8.53
281.399	49.49
281.615	65.88
281.83	-22.19
282.045	-34.47
282.26	-20.14
282.476	-28.33
282.691	29.01
282.906	-26.28
283.122	-22.19
283.337	-1.71
283.552	14.68
283.767	6.49
283.983	8.53
284.198	-5.8
284.413	45.4
284.628	-32.43
284.843	53.59
285.058	72.02
285.274	-26.28
285.489	35.16
285.704	35.16
285.919	2.39
286.134	24.92
286.349	-9.9
286.564	88.4
286.779	31.06
286.995	29.01
287.21	-20.14
287.425	45.4
287.64	-20.14
287.855	0.34
288.07	37.2
288.285	26.96
288.5	86.36
288.715	76.12
288.93	57.68
289.145	-16.04
289.36	20.82
289.575	-26.28
289.79	33.11
290.004	84.31
290.219	45.4
290.434	16.73
290.649	33.11
290.864	-28.33
291.079	20.82
291.294	-20.14
291.509	-20.14
291.724	6.49
291.938	-75.43
292.153	-73.39
292.368	-34.47
292.583	-9.9
292.798	20.82
293.012	-46.76
293.227	67.92
293.442	35.16
293.657	53.59
293.871	49.49
294.086	72.02
294.301	106.84
294.516	4.44
294.73	22.87
294.945	-1.71
295.16	10.58
295.374	-40.62
295.589	35.16
295.804	-20.14
296.018	-1.71
296.233	-38.57
296.447	-44.71
296.662	4.44
296.877	61.78
297.091	6.49
297.306	49.49
297.52	0.34
297.735	31.06
297.949	8.53
298.164	-46.76
298.378	22.87
298.593	45.4
298.807	-5.8
299.022	-3.75
299.236	31.06
299.451	43.35
299.665	-22.19
299.88	63.83
300.094	37.2
300.309	47.44
300.523	-44.71
300.737	41.3
300.952	49.49
301.166	-1.71
301.381	39.25
301.595	45.4
301.809	69.97
302.024	-61.1
302.238	-48.81
302.452	-24.23
302.667	47.44
302.881	41.3
303.095	100.69
303.309	65.88
303.524	-42.67
303.738	53.59
303.952	22.87
304.166	22.87
304.381	-97.96
304.595	74.07
304.809	-5.8
305.023	-9.9
305.237	24.92
305.452	26.96
305.666	41.3
305.88	14.68
306.094	8.53
306.308	35.16
306.522	47.44
306.736	106.84
306.95	33.11
307.164	12.63
307.379	-9.9
307.593	35.16
307.807	57.68
308.021	-20.14
308.235	76.12
308.449	-54.95
308.663	-32.43
308.877	112.98
309.091	6.49
309.305	63.83
309.519	-28.33
309.733	65.88
309.947	-48.81
310.161	12.63
310.374	4.44
310.588	20.82
310.802	39.25
311.016	31.06
311.23	8.53
311.444	26.96
311.658	2.39
311.872	24.92
312.085	24.92
312.299	31.06
312.513	-1.71
312.727	39.25
312.941	31.06
313.154	10.58
313.368	35.16
313.582	43.35
313.796	41.3
314.009	39.25
314.223	51.54
314.437	22.87
314.651	6.49
314.864	24.92
315.078	18.77
315.292	33.11
315.505	-7.85
315.719	41.3
315.933	22.87
316.146	-7.85
316.36	108.88
316.573	65.88
316.787	121.17
317.001	47.44
317.214	-24.23
317.428	20.82
317.641	-34.47
317.855	108.88
318.068	16.73
318.282	6.49
318.495	14.68
318.709	12.63
318.922	82.26
319.136	35.16
319.349	33.11
319.563	57.68
319.776	33.11
319.99	-71.34
320.203	86.36
320.417	24.92
320.63	67.92
320.843	24.92
321.057	55.64
321.27	-11.95
321.483	55.64
321.697	8.53
321.91	-65.19
322.124	88.4
322.337	-3.75
322.55	24.92
322.763	12.63
322.977	-67.24
323.19	16.73
323.403	35.16
323.617	-36.52
323.83	35.16
324.043	22.87
324.256	41.3
324.469	-24.23
324.683	20.82
324.896	0.34
325.109	-36.52
325.322	33.11
325.535	41.3
325.748	-36.52
325.962	26.96
326.175	14.68
326.388	-42.67
326.601	100.69
326.814	-16.04
327.027	31.06
327.24	92.5
327.453	-48.81
327.666	16.73
327.879	61.78
328.092	55.64
328.305	10.58
328.518	-54.95
328.731	53.59
328.944	-48.81
329.157	-16.04
329.37	10.58
329.583	45.4
329.796	-9.9
330.009	41.3
330.222	69.97
330.435	-7.85
330.648	22.87
330.861	31.06
331.073	61.78
331.286	18.77
331.499	-3.75
331.712	65.88
331.925	45.4
332.138	12.63
332.35	-7.85
332.563	35.16
332.776	80.21
332.989	37.2
333.202	35.16
333.414	-7.85
333.627	-73.39
333.84	16.73
334.053	26.96
334.265	35.16
334.478	10.58
334.691	59.73
334.903	31.06
335.116	33.11
335.329	12.63
335.541	57.68
335.754	92.5
335.966	-9.9
336.179	10.58
336.392	33.11
336.604	74.07
336.817	35.16
337.029	51.54
337.242	37.2
337.454	8.53
337.667	-18.09
337.88	55.64
338.092	61.78
338.305	72.02
338.517	98.64
338.729	8.53
338.942	61.78
339.154	35.16
339.367	-42.67
339.579	41.3
339.792	12.63
340.004	29.01
340.217	-7.85
340.429	-24.23
340.641	16.73
340.854	-3.75
341.066	-3.75
341.278	84.31
341.491	96.6
341.703	10.58
341.915	-83.63
342.128	61.78
342.34	63.83
342.552	41.3
342.764	37.2
342.977	20.82
343.189	63.83
343.401	57.68
343.613	-16.04
343.826	-28.33
344.038	69.97
344.25	-9.9
344.462	-5.8
344.674	35.16
344.886	47.44
345.099	4.44
345.311	-3.75
345.523	41.3
345.735	-13.99
345.947	49.49
346.159	41.3
346.371	57.68
346.583	6.49
346.795	92.5
347.007	57.68
347.219	-44.71
347.431	33.11
347.643	43.35
347.855	49.49
348.067	57.68
348.279	12.63
348.491	35.16
348.703	0.34
348.915	16.73
349.127	-11.95
349.339	24.92
349.551	78.16
349.763	63.83
349.975	20.82
350.187	106.84
350.399	16.73
350.61	84.31
350.822	26.96
351.034	49.49
351.246	31.06
351.458	24.92
351.669	88.4
351.881	94.55
352.093	63.83
352.305	22.87
352.517	61.78
352.728	47.44
352.94	-52.91
353.152	-24.23
353.363	-24.23
353.575	12.63
353.787	33.11
353.999	0.34
354.21	29.01
354.422	65.88
354.633	14.68
354.845	98.64
355.057	-48.81
355.268	106.84
355.48	-3.75
355.692	-11.95
355.903	-9.9
356.115	-3.75
356.326	33.11
356.538	69.97
356.749	41.3
356.961	57.68
357.172	115.03
357.384	-7.85
357.595	82.26
357.807	-36.52
358.018	-9.9
358.23	26.96
358.441	82.26
358.653	45.4
358.864	57.68
359.075	86.36
359.287	35.16
359.498	41.3
359.709	-26.28
359.921	69.97
360.132	57.68
360.344	-13.99
360.555	63.83
360.766	-7.85
360.977	-36.52
361.189	88.4
361.4	49.49
361.611	39.25
361.823	10.58
362.034	65.88
362.245	24.92
362.456	24.92
362.667	8.53
362.879	43.35
363.09	43.35
363.301	69.97
363.512	4.44
363.723	74.07
363.935	-34.47
364.146	61.78
364.357	45.4
364.568	-1.71
364.779	-3.75
364.99	53.59
365.201	12.63
365.412	59.73
365.623	-122.54
365.834	12.63
366.045	47.44
366.256	76.12
366.467	123.22
366.678	-30.38
366.889	16.73
367.1	12.63
367.311	88.4
367.522	14.68
367.733	76.12
367.944	29.01
368.155	-7.85
368.366	35.16
368.577	69.97
368.788	45.4
368.999	-11.95
369.209	65.88
369.42	61.78
369.631	76.12
369.842	102.74
370.053	51.54
370.264	98.64
370.474	33.11
370.685	47.44
370.896	33.11
371.107	102.74
371.317	90.45
371.528	0.34
371.739	102.74
371.95	74.07
372.16	-3.75
372.371	33.11
372.582	45.4
372.792	37.2
373.003	41.3
373.214	61.78
373.424	0.34
373.635	39.25
373.846	49.49
374.056	12.63
374.267	129.36
374.477	-26.28
374.688	33.11
374.898	78.16
375.109	37.2
375.319	8.53
375.53	94.55
375.74	-32.43
375.951	-22.19
376.161	41.3
376.372	-13.99
376.582	20.82
376.793	-18.09
377.003	22.87
377.214	16.73
377.424	31.06
377.635	49.49
377.845	41.3
378.055	123.22
378.266	69.97
378.476	39.25
378.686	78.16
378.897	61.78
379.107	24.92
379.317	22.87
379.528	-1.71
379.738	-16.04
379.948	18.77
380.158	76.12
380.369	-3.75
380.579	84.31
380.789	-3.75
380.999	-42.67
381.21	47.44
381.42	57.68
381.63	47.44
381.84	74.07
382.05	43.35
382.261	55.64
382.471	41.3
382.681	12.63
382.891	69.97
383.101	92.5
383.311	14.68
383.521	-63.15
383.731	22.87
383.941	135.51
384.151	-32.43
384.361	65.88
384.571	22.87
384.781	33.11
384.991	127.32
385.201	117.08
385.411	90.45
385.621	67.92
385.831	57.68
386.041	-9.9
386.251	29.01
386.461	102.74
386.671	-9.9
386.881	14.68
387.091	24.92
387.301	69.97
387.511	24.92
387.72	31.06
387.93	78.16
388.14	31.06
388.35	14.68
388.56	106.84
388.769	26.96
388.979	90.45
389.189	-9.9
389.399	-13.99
389.609	59.73
389.818	69.97
390.028	24.92
390.238	151.89
390.447	57.68
390.657	0.34
390.867	29.01
391.076	20.82
391.286	65.88
391.496	-16.04
391.705	82.26
391.915	129.36
392.125	35.16
392.334	57.68
392.544	29.01
392.753	102.74
392.963	37.2
393.172	55.64
393.382	22.87
393.591	119.12
393.801	35.16
394.01	39.25
394.22	33.11
394.429	69.97
394.639	65.88
394.848	57.68
395.058	33.11
395.267	67.92
395.477	82.26
395.686	39.25
395.895	139.6
396.105	67.92
396.314	94.55
396.524	-42.67
396.733	88.4
396.942	102.74
397.152	72.02
397.361	102.74
397.57	133.46
397.78	129.36
397.989	45.4
398.198	129.36
398.407	98.64
398.617	110.93
398.826	55.64
399.035	37.2
399.244	96.6
399.453	131.41
399.663	41.3
399.872	59.73
400.081	10.58
400.29	119.12
400.499	117.08
400.708	115.03
400.917	115.03
401.127	96.6
401.336	57.68
401.545	147.8
401.754	125.27
401.963	74.07
402.172	76.12
402.381	72.02
402.59	135.51
402.799	121.17
403.008	170.32
403.217	35.16
403.426	127.32
403.635	69.97
403.844	57.68
404.053	104.79
404.262	53.59
404.471	86.36
404.68	145.75
404.888	229.71
405.097	82.26
405.306	178.51
405.515	153.94
405.724	88.4
405.933	180.56
406.142	192.85
406.35	203.09
406.559	239.95
406.768	205.14
406.977	198.99
407.185	221.52
407.394	207.19
407.603	133.46
407.812	252.24
408.02	209.23
408.229	170.32
408.438	229.71
408.646	201.04
408.855	186.71
409.064	162.13
409.272	184.66
409.481	176.47
409.69	233.81
409.898	270.67
410.107	330.06
410.315	270.67
410.524	278.87
410.733	237.91
410.941	221.52
411.15	276.82
411.358	405.84
411.567	416.08
411.775	348.5
411.984	422.22
412.192	403.79
412.401	383.31
412.609	403.79
412.818	493.9
413.026	405.84
413.234	508.24
413.443	467.28
413.651	500.05
413.86	549.2
414.068	543.05
414.276	561.48
414.485	530.77
414.693	588.11
414.901	663.88
415.11	686.41
415.318	661.84
415.526	694.6
415.734	637.26
415.943	696.65
416.151	760.14
416.359	717.13
416.567	819.53
416.776	872.78
416.984	825.67
417.192	930.12
417.4	850.25
417.608	862.54
417.817	903.5
418.025	1042.76
418.233	1106.24
418.441	989.51
418.649	1079.62
418.857	1175.88
419.065	1300.8
419.273	1186.12
419.481	1276.23
419.689	1421.63
419.897	1352
420.105	1308.99
420.313	1460.54
420.521	1466.69
420.729	1474.88
420.937	1622.33
421.145	1608
421.353	1722.68
421.561	1759.55
421.769	1831.23
421.977	1913.14
422.185	1841.47
422.393	1921.34
422.601	2050.36
422.809	2146.61
423.017	2083.13
423.224	2076.98
423.432	2337.07
423.64	2326.83
423.848	2527.53
424.056	2515.25
424.263	2736.43
424.471	2644.27
424.679	2769.2
424.887	2879.79
425.094	2885.93
425.302	3047.72
425.51	2982.18
425.718	3197.22
425.925	3275.04
426.133	3309.86
426.341	3330.34
426.548	3580.19
426.756	3676.45
426.964	3752.22
427.171	3795.23
427.379	3961.11
427.586	3895.58
427.794	4202.77
428.001	4448.53
428.209	4612.37
428.417	4602.13
428.624	4876.55
428.832	4856.08
429.039	4827.4
429.247	4710.67
429.454	5208.33
429.662	5523.71
429.869	5136.65
430.076	5630.21
430.284	5409.03
430.491	5708.03
430.699	6043.9
430.906	5984.51
431.114	6150.39
431.321	6306.04
431.528	6400.24
431.736	7018.73
431.943	7002.35
432.15	6889.71
432.358	6973.67
432.565	7268.58
432.772	7391.46
432.979	7823.58
433.187	7835.87
433.394	7835.87
433.601	8501.46
433.808	8446.16
434.016	8323.29
434.223	8755.41
434.43	9384.13
434.637	9167.05
434.844	9693.38
435.052	9732.29
435.259	9853.12
435.466	9904.32
435.673	9726.14
435.88	10418.36
436.087	10909.87
436.294	11038.89
436.501	10582.2
436.708	10897.58
436.915	11231.4
437.122	11776.16
437.329	11630.76
437.537	12075.17
437.743	12327.07
437.95	12085.4
438.157	12746.9
438.364	13133.96
438.571	13138.06
438.778	13158.54
438.985	14459
439.192	13824.13
439.399	14479.48
439.606	14047.36
439.813	14940.27
440.02	15712.36
440.227	15515.75
440.433	15341.68
440.64	15970.4
440.847	15804.52
441.054	16089.18
441.261	17385.55
441.467	17082.45
441.674	17420.36
441.881	17891.4
442.088	17844.29
442.294	17602.63
442.501	18102.34
442.708	18645.05
442.914	19228.72
443.121	19886.12
443.328	19675.18
443.534	20936.73
443.741	20166.69
443.948	20166.69
444.154	21811.21
444.361	21557.26
444.568	21475.34
444.774	21667.85
444.981	21561.36
445.187	22294.53
445.394	23312.37
445.6	22740.99
445.807	25276.37
446.013	24143.84
446.22	24573.92
446.426	25763.79
446.633	25386.96
446.839	26290.12
447.046	25364.43
447.252	26875.84
447.459	26685.37
447.665	26595.26
447.871	27869.1
448.078	28823.45
448.284	27752.37
448.491	28180.39
448.697	29190.04
448.903	30044.04
449.11	29892.49
449.316	29874.06
449.522	30177.16
449.728	30490.5
449.935	30852.99
450.141	31094.65
450.347	31516.53
450.553	30908.29
450.76	31068.03
450.966	31889.26
451.172	31582.07
451.378	32124.78
451.584	31917.93
451.791	32497.51
451.997	32364.39
452.203	32894.82
452.409	32843.62
452.615	32444.26
452.821	31553.4
453.027	31342.46
453.233	32909.15
453.44	31324.02
453.646	31430.52
453.852	31545.2
454.058	32329.58
454.264	31543.16
454.47	31735.67
454.676	31276.92
454.882	32094.06
455.088	29317.01
455.294	29716.37
455.5	30066.57
455.705	30334.85
455.911	29347.73
456.117	28626.85
456.323	28366.76
456.529	26675.13
456.735	27938.73
456.941	26970.04
457.147	26847.16
457.352	25745.36
457.558	25649.1
457.764	25694.16
457.97	25051.1
458.176	24725.47
458.381	24451.04
458.587	23252.98
458.793	23318.51
458.999	22179.84
459.204	23681
459.41	23052.28
459.616	21811.21
459.821	21651.47
460.027	21372.94
460.233	21162
460.438	20230.18
460.644	20287.52
460.85	19585.07
461.055	19312.69
461.261	18763.83
461.466	17723.46
461.672	17109.07
461.878	18311.23
462.083	17215.57
462.289	16752.73
462.494	16746.58
462.7	16027.74
462.905	15345.77
463.111	15949.92
463.316	16060.51
463.522	15798.37
463.727	15802.47
463.932	15528.04
464.138	15589.48
464.343	15444.07
464.549	15288.43
464.754	15835.24
464.959	15628.39
465.165	15360.11
465.37	14839.92
465.575	14383.23
465.781	14915.7
465.986	15100.01
466.191	14536.82
466.397	14121.09
466.602	13547.65
466.807	14000.26
467.012	13854.85
467.218	13940.86
467.423	13901.95
467.628	13928.58
467.833	14671.99
468.038	13944.96
468.244	13389.96
468.449	14030.98
468.654	13531.27
468.859	13383.82
469.064	13539.46
469.269	12832.91
469.474	13047.95
469.679	13398.15
469.885	12779.67
470.09	12927.12
470.295	12847.25
470.5	12707.99
470.705	12765.33
470.91	12374.17
471.115	12202.14
471.32	12206.24
471.525	12365.98
471.73	12181.66
471.935	12021.92
472.139	11657.38
472.344	11739.3
472.549	11714.72
472.754	11423.91
472.959	11579.56
473.164	11012.27
473.369	10948.78
473.574	11253.93
473.778	11321.51
473.983	11112.62
474.188	11036.84
474.393	10518.71
474.598	10694.83
474.802	10588.34
475.007	10565.81
475.212	10416.31
475.417	10076.35
475.621	10070.2
475.826	9939.13
476.031	9795.78
476.235	9957.57
476.44	10066.11
476.645	9554.12
476.849	9689.28
477.054	9715.91
477.259	9496.77
477.463	9322.7
477.668	9177.29
477.872	9269.45
478.077	9068.75
478.282	9050.32
478.486	8810.7
478.691	8900.81
478.895	8900.81
479.1	8888.53
479.304	8888.53
479.509	8470.74
479.713	8913.1
479.918	8499.41
480.122	8564.95
480.326	8468.69
480.531	8683.73
480.735	8507.6
480.94	8073.43
481.144	8528.08
481.348	8194.26
481.553	8233.18
481.757	8169.69
481.961	8222.94
482.166	8335.57
482.37	8450.26
482.574	8022.23
482.778	8200.41
482.983	8442.07
483.187	8059.1
483.391	8102.11
483.595	8050.91
483.8	8208.6
484.004	8220.89
484.208	8216.79
484.412	8114.39
484.616	8261.85
484.821	8384.73
485.025	8087.77
485.229	8374.49
485.433	8206.55
485.637	8081.63
485.841	8036.57
486.045	8134.87
486.249	8241.37
486.453	8108.25
486.657	8329.43
486.861	8331.48
487.065	7987.42
487.269	8173.78
487.473	8073.43
487.677	8179.93
487.881	8194.26
488.085	8255.7
488.289	8257.75
488.493	8089.82
488.697	8233.18
488.901	8354.01
489.105	8118.49
489.309	8227.03
489.512	7983.32
489.716	8245.46
489.92	8241.37
490.124	8298.71
490.328	8403.16
490.531	8624.34
490.735	8532.18
490.939	8175.83
491.143	8425.68
491.346	8354.01
491.55	8593.62
491.754	8480.98
491.958	8667.35
492.161	8741.07
492.365	8624.34
492.569	8558.8
492.772	8589.52
492.976	8677.58
493.18	8761.55
493.383	8831.18
493.587	8886.48
493.79	9117.9
493.994	8802.51
494.197	8952.01
494.401	9054.41
494.605	9263.3
494.808	9287.88
495.012	9291.98
495.215	9347.27
495.419	9525.44
495.622	9214.15
495.825	9619.65
496.029	9715.91
496.232	9656.51
496.436	9736.38
496.639	10080.44
496.843	9959.61
497.046	10326.2
497.249	10295.48
497.453	10193.08
497.656	10498.23
497.859	10326.2
498.063	10444.98
498.266	10977.45
498.469	10582.2
498.673	10633.4
498.876	10840.24
499.079	11004.08
499.282	11133.1
499.485	11362.47
499.689	11305.13
499.892	11575.46
500.095	11669.67
500.298	11786.4
500.501	11704.48
500.705	12243.1
500.908	12214.43
501.111	12318.87
501.314	12411.03
501.517	12517.53
501.72	12789.91
501.923	12818.58
502.126	13047.95
502.329	13316.23
502.532	13346.95
502.735	13482.12
502.938	13785.22
503.141	13801.6
503.344	13906.05
503.547	13740.16
503.75	14221.44
503.953	14538.87
504.156	14696.57
504.359	14667.89
504.562	14729.33
504.765	15151.21
504.968	15157.36
505.17	15444.07
505.373	15548.52
505.576	15720.55
505.779	15935.59
505.982	16185.44
506.185	16328.8
506.387	16513.11
506.59	16529.5
506.793	16924.76
506.996	16795.73
507.198	17188.94
507.401	17057.87
507.604	17328.2
507.807	17725.51
508.009	17717.32
508.212	18194.5
508.415	18061.38
508.617	18438.2
508.82	18640.95
509.022	18477.12
509.225	19083.31
509.428	19103.79
509.63	19550.25
509.833	19431.47
510.035	19734.57
510.238	19896.36
510.44	20209.7
510.643	20600.86
510.845	20830.23
511.048	20660.25
511.25	21170.19
511.453	21125.14
511.655	21919.75
511.858	21295.12
512.06	21647.37
512.262	22024.2
512.465	22132.74
512.667	22231.04
512.87	22851.58
513.072	22532.09
513.274	22990.84
513.477	23465.97
513.679	23967.72
513.881	23789.55
514.084	24109.03
514.286	24281.06
514.488	24276.96
514.69	25075.67
514.893	24848.35
515.095	25298.9
515.297	25337.81
515.499	25554.9
515.701	26027.98
515.904	26396.61
516.106	26300.36
516.308	26343.36
516.51	27340.72
516.712	27117.5
516.914	27516.85
517.116	27735.98
517.318	28096.42
517.52	28184.49
517.722	28274.6
517.925	28817.31
518.127	29061.02
518.329	29114.27
518.531	29114.27
518.733	29841.29
518.935	29786
519.136	29992.84
519.338	30648.19
519.54	30805.89
519.742	31082.36
519.944	31133.56
520.146	31680.37
520.348	31842.16
520.55	32044.91
520.752	32065.39
520.954	32630.63
521.155	32513.89
521.357	33089.37
521.559	33789.78
521.761	33732.43
521.963	33830.74
522.164	34266.95
522.366	34135.88
522.568	34662.21
522.77	34934.59
522.971	35311.42
523.173	34907.97
523.375	35395.39
523.576	35395.39
523.778	35829.55
523.98	36402.99
524.181	36491.05
524.383	36478.76
524.584	37119.77
524.786	37488.41
524.988	37343
525.189	37599
525.391	37644.05
525.592	37844.76
525.794	38145.81
525.995	38037.26
526.197	38051.6
526.398	38682.38
526.6	38958.85
526.801	39032.58
527.003	39216.89
527.204	39008
527.406	39642.87
527.607	39444.22
527.808	39667.45
528.01	39175.94
528.211	40163.06
528.412	40756.97
528.614	40466.16
528.815	40414.96
529.016	40658.66
529.218	40064.75
529.419	40767.21
529.62	40998.63
529.822	40431.34
530.023	40982.24
530.224	40609.51
530.425	41350.88
530.626	40775.4
530.828	41078.5
531.029	41928.41
531.23	41168.61
531.431	41277.15
531.632	41760.47
531.833	41717.46
532.035	41793.24
532.236	42047.19
532.437	42059.48
532.638	41637.59
532.839	42305.23
533.04	42208.98
533.241	42141.39
533.442	42475.21
533.643	42145.49
533.844	42452.69
534.045	42526.41
534.246	41864.92
534.447	42616.52
534.648	42714.83
534.849	42700.49
535.05	42391.25
535.251	42766.02
535.451	42450.64
535.652	42464.97
535.853	42473.17
536.054	42266.32
536.255	42829.51
536.456	42739.4
536.657	43192
536.857	42866.38
537.058	42651.34
537.259	42919.62
537.46	43122.37
537.66	42516.17
537.861	43003.59
538.062	42477.26
538.263	42962.63
538.463	42718.92
538.664	42778.31
538.865	42757.83
539.065	43101.89
539.266	42483.41
539.466	43108.04
539.667	42444.49
539.868	43294.4
540.068	43048.64
540.269	42712.78
540.469	43243.2
540.67	42948.29
540.87	42788.55
541.071	42688.2
541.271	42966.73
541.472	42849.99
541.672	42434.25
541.873	43009.73
542.073	42241.74
542.274	43097.8
542.474	42888.9
542.675	42677.96
542.875	43112.13
543.075	42909.38
543.276	42389.2
543.476	42964.68
543.676	42682.06
543.877	43200.19
544.077	42559.18
544.277	42594
544.478	42315.47
544.678	42954.44
544.878	42587.85
545.078	42958.53
545.279	42503.88
545.479	42757.83
545.679	42686.15
545.879	42829.51
546.079	42495.69
546.28	42763.98
546.48	42264.27
546.68	42815.18
546.88	42845.9
547.08	42809.03
547.28	42561.23
547.48	42731.21
547.68	42606.28
547.88	42241.74
548.081	42686.15
548.281	42428.11
548.481	42333.9
548.681	42895.05
548.881	42235.6
549.081	42532.56
549.28	42440.4
549.48	43048.64
549.68	42145.49
549.88	43003.59
550.08	42239.7
550.28	42489.55
550.48	42266.32
550.68	42510.03
550.88	42485.45
551.08	41959.13
551.279	42452.69
551.479	42075.86
551.679	42389.2
551.879	42180.31
552.079	42391.25
552.278	42583.76
552.478	42739.4
552.678	42284.75
552.878	42579.66
553.077	42344.14
553.277	41993.94
553.477	42608.33
553.676	42247.89
553.876	42243.79
554.076	42317.52
554.275	42028.76
554.475	41715.42
554.674	42338
554.874	42010.32
555.074	41895.64
555.273	41840.34
555.473	42264.27
555.672	41801.43
555.872	41815.77
556.071	41961.17
556.271	41934.55
556.47	41660.12
556.67	41195.23
556.869	41334.49
557.068	41727.7
557.268	41506.52
557.467	41504.48
557.667	41608.92
557.866	41400.03
558.065	41418.46
558.265	41459.42
558.464	40943.33
558.663	41658.07
558.863	40638.19
559.062	41635.55
559.261	40560.36
559.461	40822.5
559.66	40398.57
559.859	40681.19
560.058	40947.43
560.258	40726.25
560.457	40472.3
560.656	40861.41
560.855	40460.01
561.054	40505.07
561.253	39843.57
561.453	40484.59
561.652	40568.55
561.851	40433.39
562.05	40036.08
562.249	39784.18
562.448	39851.77
562.647	40015.6
562.846	40054.51
563.045	39579.39
563.244	39522.04
563.443	40029.94
563.642	39089.92
563.841	39470.84
564.04	39094.02
564.239	39304.96
564.438	38991.62
564.637	38987.52
564.836	39130.88
565.035	38362.89
565.234	38688.52
565.432	38471.43
565.631	38627.08
565.83	38774.53
566.029	38455.05
566.228	38178.57
566.427	37885.72
566.625	37891.86
566.824	37455.64
567.023	38168.33
567.222	37179.17
567.42	37877.52
567.619	37467.93
567.818	37343
568.016	37201.69
568.215	37601.05
568.414	37224.22
568.612	37017.38
568.811	37291.8
569.01	36618.02
569.208	36333.35
569.407	37136.16
569.605	36507.43
569.804	36599.59
570.002	36249.39
570.201	36620.07
570.4	36079.41
570.598	35725.11
570.797	35997.49
570.995	35778.36
571.193	35450.68
571.392	35749.68
571.59	35557.17
571.789	35514.17
571.987	35301.18
572.186	35211.07
572.384	34957.12
572.582	35405.63
572.781	35299.13
572.979	34615.11
573.177	35082.05
573.376	34838.34
573.574	34420.55
573.772	34963.26
573.971	34445.13
574.169	34158.41
574.367	34056.01
574.565	34391.88
574.763	33978.19
574.962	33800.02
575.16	33699.67
575.358	33771.35
575.556	33556.31
575.754	33535.83
575.952	32853.86
576.151	33654.61
576.349	32868.19
576.547	32790.37
576.745	33165.15
576.943	33281.88
577.141	32798.56
577.339	33204.06
577.537	32735.07
577.735	32692.07
577.933	32591.72
578.131	32579.43
578.329	32546.66
578.527	31917.93
578.725	31758.19
578.923	32294.76
579.121	32157.55
579.319	32278.38
579.516	32073.58
579.714	31833.97
579.912	31686.51
580.11	31534.96
580.308	31430.52
580.506	31518.58
580.704	30961.53
580.901	31467.38
581.099	31412.09
581.297	31063.93
581.495	30920.57
581.692	31016.83
581.89	30867.33
582.088	30664.58
582.285	30492.55
582.483	30885.76
582.681	30611.33
582.878	30277.51
583.076	30478.21
583.274	30715.78
583.471	29976.46
583.669	30302.09
583.866	29888.4
584.064	30125.96
584.262	29892.49
584.459	29943.69
584.657	29564.82
584.854	29759.38
585.052	29226.9
585.249	29271.96
585.447	29265.81
585.644	28979.1
585.841	29149.08
586.039	29255.57
586.236	28485.54
586.434	28696.48
586.631	28663.71
586.828	28471.2
587.026	29022.11
587.223	28866.46
587.42	28684.19
587.618	28297.13
587.815	27729.84
588.012	28012.46
588.21	27967.4
588.407	28098.47
588.604	27926.44
588.801	27596.72
588.999	27889.58
589.196	27787.18
589.393	27776.94
589.59	27475.89
589.787	27471.79
589.984	27369.4
590.182	26986.43
590.379	27312.05
590.576	26660.8
590.773	26933.18
590.97	26978.23
591.167	26931.13
591.364	26386.37
591.561	26994.62
591.758	26300.36
591.955	26384.32
592.152	26609.6
592.349	25980.87
592.546	26265.54
592.743	26314.69
592.94	25862.09
593.137	26081.22
593.334	26206.15
593.531	25558.99
593.727	25995.21
593.924	25722.83
594.121	25528.27
594.318	25706.45
594.515	25575.38
594.712	25837.52
594.908	25327.57
595.105	25563.09
595.302	25094.1
595.499	25118.68
595.696	25036.76
595.892	24897.5
596.089	25010.14
596.286	24979.42
596.482	24694.75
596.679	24868.83
596.876	24741.85
597.072	24498.14
597.269	24412.13
597.466	24446.94
597.662	24104.93
597.859	24594.4
598.055	24346.59
598.252	24045.54
598.448	24045.54
598.645	23820.27
598.841	23687.15
599.038	24059.88
599.234	23887.85
599.431	23549.93
599.627	23752.68
599.824	23801.83
600.02	23547.89
600.217	23506.93
600.413	23420.91
600.609	23218.16
600.806	23091.19
601.002	23468.02
601.198	22906.87
601.395	22949.88
601.591	22820.86
601.787	22831.1
601.984	22704.12
602.18	22915.06
602.376	22726.65
602.572	22753.27
602.769	22732.79
602.965	22097.92
603.161	22374.4
603.357	22095.88
603.553	22177.79
603.75	21993.48
603.946	22044.68
604.142	21975.05
604.338	21708.81
604.534	21843.98
604.73	21884.94
604.926	21635.08
605.122	21841.93
605.318	21481.49
605.514	21461.01
605.71	21479.44
605.906	21399.57
606.102	21489.68
606.298	21442.57
606.494	21288.98
606.69	21159.95
606.886	21073.94
607.082	20717.59
607.278	20901.91
607.474	20756.5
607.67	20707.35
607.866	20557.85
608.062	20815.9
608.257	20635.67
608.453	20654.11
608.649	20801.56
608.845	20453.41
609.041	20617.24
609.236	20264.99
609.432	20486.17
609.628	20408.35
609.824	20480.03
610.019	20236.32
610.215	20080.67
610.411	20187.17
610.606	19961.89
610.802	20074.53
610.998	19886.12
611.193	20148.26
611.389	19675.18
611.584	19875.88
611.78	19757.1
611.976	19716.14
612.171	19503.15
612.367	19701.8
612.562	19589.16
612.758	19296.3
612.953	19433.52
613.149	19677.23
613.344	19421.23
613.539	19646.51
613.735	19486.76
613.93	19322.93
614.126	18880.57
614.321	19580.97
614.517	19154.99
614.712	19286.06
614.907	18937.91
615.103	19363.89
615.298	19122.23
615.493	19281.97
615.688	18860.09
615.884	18927.67
616.079	18950.2
616.274	19038.26
616.47	18831.41
616.665	18876.47
616.86	18616.38
617.055	18700.34
617.25	18655.29
617.445	18669.62
617.641	18190.4
617.836	18513.98
618.031	18292.8
618.226	18657.34
618.421	18192.45
618.616	18618.43
618.811	18110.53
619.006	18167.87
619.201	17893.44
619.396	18057.28
619.591	17815.62
619.786	17809.48
619.981	17809.48
620.176	17754.18
620.371	17328.2
620.566	17621.06
620.761	17360.97
620.956	17430.6
621.151	17184.85
621.346	17365.07
621.541	16832.6
621.735	17195.09
621.93	16609.37
622.125	16943.19
622.32	16676.95
622.515	16810.07
622.709	16445.53
622.904	16560.22
623.099	16523.35
623.294	16529.5
623.488	16087.14
623.683	16324.7
623.878	15931.49
624.072	16177.25
624.267	15839.33
624.462	15868
624.656	15743.08
624.851	15724.65
625.046	15882.34
625.24	15769.7
625.435	15339.63
625.629	15329.39
625.824	15411.31
626.018	15280.24
626.213	14887.03
626.407	15100.01
626.602	14979.18
626.796	14999.66
626.991	14923.89
627.185	14731.38
627.38	14647.41
627.574	14590.07
627.768	14336.12
627.963	14561.4
628.157	14133.37
628.352	14499.96
628.546	14258.3
628.74	14114.94
628.935	13979.78
629.129	14102.65
629.323	13881.47
629.517	13887.62
629.712	13471.88
629.906	13920.38
630.1	13398.15
630.294	13557.89
630.489	13373.58
630.683	13572.23
630.877	13232.27
631.071	13105.29
631.265	13279.37
631.459	13004.94
631.653	13066.38
631.848	13191.31
632.042	12738.71
632.236	12773.52
632.43	12857.49
632.624	12697.75
632.818	12744.85
633.012	12417.18
633.206	12402.84
633.4	12650.64
633.594	12234.91
633.788	12304.54
633.982	12300.44
634.176	12374.17
634.369	12011.68
634.563	12261.53
634.757	12034.21
634.951	12140.7
635.145	11937.95
635.339	11888.8
635.533	11667.62
635.726	11641
635.92	11542.69
636.114	11655.33
636.308	11438.25
636.501	11534.5
636.695	11438.25
636.889	11319.46
637.083	11305.13
637.276	11249.83
637.47	11120.81
637.664	11075.76
637.857	11126.96
638.051	10846.38
638.244	10883.25
638.438	10916.01
638.632	10698.93
638.825	10627.25
639.019	10672.31
639.212	10541.24
639.406	10619.06
639.599	10623.16
639.793	10295.48
639.986	10285.24
640.18	10354.87
640.373	10221.75
640.567	10207.42
640.76	10248.38
640.954	10082.49
641.147	9887.93
641.34	10086.59
641.534	9988.28
641.727	9900.22
641.92	9820.35
642.114	9818.3
642.307	9857.21
642.5	9732.29
642.694	9474.24
642.887	9584.84
643.08	9590.98
643.273	9111.75
643.467	9408.71
643.66	9429.19
643.853	9042.12
644.046	9105.61
644.239	8843.47
644.432	8909.01
644.626	9017.55
644.819	8925.39
645.012	8863.95
645.205	8970.44
645.398	8843.47
645.591	8794.32
645.784	8753.36
645.977	8558.8
646.17	8624.34
646.363	8458.45
646.556	8591.57
646.749	8489.17
646.942	8478.93
647.135	8366.29
647.328	8460.5
647.521	8468.69
647.714	8167.64
647.907	8194.26
648.099	8093.91
648.292	8253.66
648.485	7923.93
648.678	7930.08
648.871	7913.69
649.064	8108.25
649.256	8093.91
649.449	7733.47
649.642	7733.47
649.835	7731.42
650.027	7778.53
650.22	7872.73
650.413	7575.78
650.605	7651.55
650.798	7655.65
650.991	7608.55
651.183	7434.47
651.376	7557.35
651.568	7413.99
651.761	7332.07
651.954	7543.01
652.146	7354.6
652.339	7366.88
652.531	7340.26
652.724	7057.64
652.916	7172.33
653.109	7297.25
653.301	7180.52
653.494	7135.46
653.686	6979.82
653.879	6945
654.071	7106.79
654.263	6918.38
654.456	6744.3
654.648	6932.72
654.84	6686.96
655.033	6648.05
655.225	6770.93
655.417	6742.25
655.61	6924.52
655.802	6705.39
655.994	6607.09
656.186	6605.04
656.379	6650.1
656.571	6664.43
656.763	6547.7
656.955	6410.48
657.148	6562.03
657.34	6430.96
657.532	6324.47
657.724	6134.01
657.916	6224.12
658.108	6199.54
658.3	6060.28
658.492	6156.54
658.684	6191.35
658.876	6140.15
659.068	6129.91
659.26	5982.46
659.452	6062.33
659.644	6123.77
659.836	5910.78
660.028	5898.49
660.22	5943.55
660.412	5841.15
660.604	5763.33
660.796	5892.35
660.988	5886.2
661.18	5746.94
661.372	5628.16
661.563	5740.8
661.755	5716.22
661.947	5566.72
662.139	5695.74
662.331	5429.51
662.522	5538.05
662.714	5472.51
662.906	5574.91
663.097	5452.03
663.289	5503.23
663.481	5419.27
663.673	5323.01
663.864	5226.76
664.056	5445.89
664.247	5341.44
664.439	5294.34
664.631	5325.06
664.822	5245.19
665.014	5366.02
665.205	5292.29
665.397	5089.54
665.588	5030.15
665.78	5169.41
665.971	5095.69
666.163	5079.3
666.354	5075.21
666.546	5095.69
666.737	4978.95
666.929	4890.89
667.12	4927.75
667.311	4937.99
667.503	4794.64
667.694	5013.77
667.885	4843.79
668.077	4782.35
668.268	4798.73
668.459	4794.64
668.651	4745.48
668.842	4731.15
669.033	4643.09
669.224	4694.29
669.416	4802.83
669.607	4684.05
669.798	4575.5
669.989	4706.57
670.18	4741.39
670.371	4665.61
670.563	4684.05
670.754	4555.02
670.945	4595.98
671.136	4544.78
671.327	4567.31
671.518	4503.82
671.709	4528.4
671.9	4493.58
672.091	4430.1
672.282	4632.85
672.473	4489.49
672.664	4505.87
672.855	4368.66
673.046	4397.33
673.237	4561.17
673.428	4503.82
673.619	4346.13
673.809	4442.39
674	4346.13
674.191	4426
674.382	4360.47
674.573	4440.34
674.764	4428.05
674.954	4405.52
675.145	4286.74
675.336	4395.28
675.527	4346.13
675.717	4362.51
675.908	4241.68
676.099	4407.57
676.289	4346.13
676.48	4274.45
676.671	4155.67
676.861	4174.1
677.052	4243.73
677.243	4188.44
677.433	4176.15
677.624	4190.49
677.814	4223.25
678.005	4428.05
678.195	4276.5
678.386	4215.06
678.576	4268.31
678.767	4192.53
678.957	4227.35
679.148	4280.6
679.338	4260.12
679.529	4186.39
679.719	4083.99
679.909	4274.45
680.1	4043.03
680.29	4200.73
680.481	4088.09
680.671	4141.33
680.861	4120.85
681.052	4079.9
681.242	3993.88
681.432	4272.4
681.622	3977.5
681.813	4053.27
682.003	4284.69
682.193	4151.57
682.383	4178.2
682.573	4036.89
682.764	4157.72
682.954	4151.57
683.144	4057.37
683.334	4237.59
683.524	4110.61
683.714	4157.72
683.904	4155.67
684.094	4110.61
684.284	3924.25
684.474	4030.74
684.664	4167.96
684.854	4219.16
685.044	4016.41
685.234	3983.64
685.424	4010.26
685.614	4004.12
685.804	3948.83
685.994	4010.26
686.184	3944.73
686.374	3975.45
686.564	3987.74
686.753	4000.02
686.943	3803.42
687.133	3932.44
687.323	3952.92
687.513	3889.43
687.702	3889.43
687.892	3832.09
688.082	3946.78
688.272	3944.73
688.461	3746.08
688.651	3832.09
688.841	3938.59
689.03	3727.64
689.22	3809.56
689.41	3791.13
689.599	3762.46
689.789	3711.26
689.979	3547.42
690.168	3711.26
690.358	3676.45
690.547	3752.22
690.737	3660.06
690.926	3684.64
691.116	3610.91
691.305	3694.88
691.495	3545.38
691.684	3502.37
691.874	3676.45
692.063	3686.69
692.252	3584.29
692.442	3590.43
692.631	3576.09
692.82	3541.28
693.01	3518.75
693.199	3498.27
693.388	3578.14
693.578	3526.94
693.767	3557.66
693.956	3418.4
694.146	3348.77
694.335	3500.32
694.524	3488.03
694.713	3397.92
694.902	3514.66
695.092	3354.91
695.281	3399.97
695.47	3397.92
695.659	3393.83
695.848	3277.09
696.037	3402.02
696.226	3266.85
696.415	3320.1
696.604	3336.48
696.793	3322.15
696.982	3381.54
697.171	3160.36
697.36	3305.76
697.549	3361.06
697.738	3291.43
697.927	3367.2
698.116	3299.62
698.305	3416.35
698.494	3510.56
698.683	3318.05
698.872	3371.3
699.061	3270.95
699.25	3287.33
699.438	3246.37
699.627	3334.43
699.816	3414.31
700.005	3289.38
700.193	3346.72
700.382	3246.37
700.571	3348.77
700.76	3299.62
700.948	3348.77
701.137	3359.01
701.326	3346.72
701.514	3182.88
701.703	3387.68
701.892	3262.76
702.08	3332.39
702.269	3324.19
702.457	3205.41
702.646	3264.8
702.834	3256.61
703.023	3311.91
703.212	3299.62
703.4	3227.94
703.589	3361.06
703.777	3299.62
703.965	3129.64
704.154	3305.76
704.342	3234.08
704.531	3154.21
704.719	3223.84
704.907	3373.35
705.096	3154.21
705.284	3207.46
705.472	3211.56
705.661	3207.46
705.849	3320.1
706.037	3275.04
706.226	3279.14
706.414	3326.24
706.602	3232.04
706.79	3270.95
706.979	3139.88
707.167	3363.11
707.355	3303.71
707.543	3176.74
707.731	3408.16
707.919	3258.66
708.107	3170.6
708.296	3301.67
708.484	3244.32
708.672	3359.01
708.86	3397.92
709.048	3320.1
709.236	3289.38
709.424	3201.32
709.612	3305.76
709.8	3389.73
709.988	3291.43
710.176	3234.08
710.364	3328.29
710.551	3367.2
710.739	3107.11
710.927	3313.95
711.115	3324.19
711.303	3201.32
711.491	3328.29
711.679	3326.24
711.866	3158.31
712.054	3326.24
712.242	3436.83
712.43	3457.31
712.617	3291.43
712.805	3449.12
712.993	3275.04
713.181	3340.58
713.368	3328.29
713.556	3303.71
713.744	3135.78
713.931	3379.49
714.119	3287.33
714.306	3344.67
714.494	3262.76
714.682	3330.34
714.869	3176.74
715.057	3193.12
715.244	3281.19
715.432	3234.08
715.619	3297.57
715.807	3332.39
715.994	3234.08
716.182	3356.96
716.369	3332.39
716.556	3416.35
716.744	3232.04
716.931	3338.53
717.119	3199.27
717.306	3457.31
717.493	3227.94
717.681	3309.86
717.868	3334.43
718.055	3387.68
718.242	3236.13
718.43	3311.91
718.617	3354.91
718.804	3275.04
718.991	3289.38
719.179	3322.15
719.366	3205.41
719.553	3318.05
719.74	3264.8
719.927	3219.75
720.114	3268.9
720.301	3275.04
720.488	3252.52
720.676	3113.25
720.863	3125.54
721.05	3240.23
721.237	3324.19
721.424	3332.39
721.611	3260.71
721.798	3293.48
721.985	3260.71
722.172	3273
722.358	3203.36
722.545	3246.37
722.732	3184.93
722.919	3348.77
723.106	3232.04
723.293	3342.63
723.48	3234.08
723.667	3268.9
723.853	3326.24
724.04	3299.62
724.227	3258.66
724.414	3238.18
724.6	3197.22
724.787	3240.23
724.974	3184.93
725.161	3137.83
725.347	3238.18
725.534	3262.76
725.72	3238.18
725.907	3250.47
726.094	3074.34
726.28	3209.51
726.467	3207.46
726.653	3252.52
726.84	3148.07
727.027	3197.22
727.213	3168.55
727.4	3162.41
727.586	3199.27
727.773	3150.12
727.959	3166.5
728.145	3268.9
728.332	3105.06
728.518	3215.65
728.705	3238.18
728.891	3143.97
729.077	3217.7
729.264	3219.75
729.45	3039.53
729.636	3113.25
729.823	3100.97
730.009	3064.1
730.195	3141.93
730.382	3158.31
730.568	3090.73
730.754	3178.79
730.94	3109.16
731.126	3062.05
731.313	3154.21
731.499	3234.08
731.685	3148.07
731.871	3084.58
732.057	3213.6
732.243	3219.75
732.429	3109.16
732.615	3127.59
732.801	3137.83
732.987	3125.54
733.173	3100.97
733.359	3100.97
733.545	3168.55
733.731	3139.88
733.917	3057.96
734.103	3029.29
734.289	3031.34
734.475	3082.53
734.661	3092.77
734.847	3088.68
735.033	3047.72
735.219	2988.33
735.404	3039.53
735.59	2912.55
735.776	2853.16
735.962	3053.86
736.148	2914.6
736.333	3021.1
736.519	2945.32
736.705	2947.37
736.89	2924.84
737.076	3008.81
737.262	2873.64
737.447	2933.03
737.633	2924.84
737.819	2963.75
738.004	2933.03
738.19	3021.1
738.375	2885.93
738.561	3023.14
738.747	2867.5
738.932	3055.91
739.118	2980.14
739.303	2904.36
739.489	2822.44
739.674	2890.03
739.859	2939.18
740.045	2824.49
740.23	2890.03
740.416	2674.99
740.601	2873.64
740.786	2793.77
740.972	2687.28
741.157	2810.15
741.342	2744.62
741.528	2859.31
741.713	2806.06
741.898	2662.7
742.084	2730.28
742.269	2613.55
742.454	2822.44
742.639	2765.1
742.824	2662.7
743.01	2668.84
743.195	2804.01
743.38	2660.65
743.565	2621.74
743.75	2500.91
743.935	2486.58
744.12	2636.08
744.305	2556.21
744.49	2488.62
744.675	2558.25
744.86	2433.33
745.045	2449.71
745.23	2500.91
745.415	2552.11
745.6	2502.96
745.785	2527.53
745.97	2476.34
746.155	2513.2
746.34	2425.14
746.525	2498.86
746.71	2384.18
746.895	2427.18
747.079	2378.03
747.264	2361.65
747.449	2451.76
747.634	2339.12
747.819	2394.42
748.003	2306.35
748.188	2212.15
748.373	2271.54
748.557	2259.25
748.742	2363.7
748.927	2212.15
749.111	2181.43
749.296	2185.52
749.481	2423.09
749.665	2285.87
749.85	2087.22
750.034	2218.29
750.219	2046.26
750.404	2142.52
750.588	2013.49
750.773	2091.32
750.957	2074.93
751.141	2089.27
751.326	2064.69
751.51	2089.27
751.695	2019.64
751.879	2160.95
752.064	2023.73
752.248	2042.17
752.432	2031.93
752.617	1970.49
752.801	1988.92
752.985	1958.2
753.17	1913.14
753.354	1882.42
753.538	1956.15
753.722	1792.31
753.907	1800.51
754.091	1808.7
754.275	1753.4
754.459	1724.73
754.643	1818.94
754.828	1702.2
755.012	1737.02
755.196	1677.63
755.38	1808.7
755.564	1732.92
755.748	1696.06
755.932	1769.79
756.116	1784.12
756.3	1710.4
756.484	1753.4
756.668	1646.91
756.852	1521.98
757.036	1687.87
757.22	1554.75
757.404	1581.37
757.588	1595.71
757.772	1677.63
757.956	1573.18
758.14	1524.03
758.323	1491.26
758.507	1560.89
758.691	1476.93
758.875	1509.69
759.059	1546.56
759.242	1544.51
759.426	1483.07
759.61	1470.78
759.794	1505.6
759.977	1446.21
760.161	1554.75
760.345	1388.86
760.528	1413.44
760.712	1325.38
760.895	1468.73
761.079	1493.31
761.263	1472.83
761.446	1364.29
761.63	1454.4
761.813	1327.43
761.997	1378.62
762.18	1335.62
762.364	1395.01
762.547	1261.89
762.731	1380.67
762.914	1325.38
763.098	1333.57
763.281	1417.54
763.464	1247.55
763.648	1319.23
763.831	1255.75
764.015	1204.55
764.198	1313.09
764.381	1294.66
764.564	1333.57
764.748	1298.75
764.931	1218.88
765.114	1288.51
765.297	1268.03
765.481	1278.27
765.664	1220.93
765.847	1225.03
766.03	1331.52
766.213	1159.49
766.397	1145.16
766.58	1036.61
766.763	1163.59
766.946	1134.92
767.129	1147.2
767.312	1257.79
767.495	1167.68
767.678	1106.24
767.861	1155.4
768.044	1114.44
768.227	1134.92
768.41	1139.01
768.593	1204.55
768.776	1175.88
768.959	1141.06
769.142	1126.72
769.324	1081.67
769.507	1116.48
769.69	1087.81
769.873	1036.61
770.056	1091.91
770.239	997.7
770.421	991.56
770.604	1044.81
770.787	1001.8
770.97	1106.24
771.152	934.22
771.335	954.69
771.518	1005.89
771.7	1048.9
771.883	1057.09
772.066	1003.85
772.248	966.98
772.431	1050.95
772.613	1009.99
772.796	926.02
772.978	1034.57
773.161	985.41
773.343	913.74
773.526	917.83
773.708	917.83
773.891	999.75
774.073	926.02
774.256	950.6
774.438	895.3
774.621	1020.23
774.803	891.21
774.985	901.45
775.168	848.2
775.35	860.49
775.532	934.22
775.715	772.43
775.897	950.6
776.079	846.15
776.261	864.58
776.444	856.39
776.626	815.43
776.808	858.44
776.99	815.43
777.173	807.24
777.355	792.91
777.537	805.19
777.719	837.96
777.901	704.84
778.083	786.76
778.265	774.47
778.447	807.24
778.629	764.23
778.811	762.19
778.993	778.57
779.175	842.06
779.357	762.19
779.539	616.78
779.721	653.64
779.903	797
780.085	700.75
780.267	733.51
780.449	657.74
780.631	684.36
780.812	639.31
780.994	690.51
781.176	676.17
781.358	624.97
781.54	661.84
781.721	706.89
781.903	655.69
782.085	498
782.267	639.31
782.448	569.68
782.63	659.79
782.812	670.03
782.993	567.63
783.175	653.64
783.357	541.01
783.538	545.1
783.72	518.48
783.901	622.92
784.083	606.54
784.264	590.16
784.446	524.62
784.627	645.45
784.809	606.54
784.99	557.39
785.172	541.01
785.353	604.49
785.535	541.01
785.716	581.96
785.897	475.47
786.079	553.29
786.26	545.1
786.441	491.85
786.623	522.57
786.804	475.47
786.985	534.86
787.167	491.85
787.348	557.39
787.529	512.33
787.71	528.72
787.891	530.77
788.073	483.66
788.254	487.76
788.435	522.57
788.616	495.95
788.797	467.28
788.978	475.47
789.159	403.79
789.34	387.41
789.522	493.9
789.703	377.17
789.884	409.94
790.065	414.03
790.246	469.33
790.427	403.79
790.607	506.19
790.788	465.23
790.969	342.35
791.15	454.99
791.331	463.18
791.512	411.98
791.693	420.17
791.874	342.35
792.054	440.65
792.235	364.88
792.416	334.16
792.597	332.11
792.778	350.54
792.958	348.5
793.139	368.98
793.32	344.4
793.5	362.83
793.681	442.7
793.862	360.78
794.042	371.02
794.223	344.4
794.404	397.65
794.584	352.59
794.765	311.63
794.945	381.26
795.126	334.16
795.306	303.44
795.487	436.56
795.667	350.54
795.848	280.91
796.028	373.07
796.209	323.92
796.389	340.3
796.57	291.15
796.75	334.16
796.93	319.82
797.111	291.15
797.291	381.26
797.471	438.61
797.652	371.02
797.832	270.67
798.012	252.24
798.192	315.73
798.373	319.82
798.553	295.25
798.733	319.82
798.913	311.63
799.093	276.82
799.274	319.82
799.454	307.54
799.634	311.63
799.814	303.44
799.994	278.87
800.174	346.45
800.354	280.91
800.534	223.57
800.714	268.63
800.894	297.3
801.074	319.82
801.254	174.42
801.434	352.59
801.614	289.1
801.794	254.29
801.974	776.52
802.154	344.4
802.334	282.96
802.514	248.15
802.693	319.82
802.873	317.78
803.053	266.58
803.233	262.48
803.413	299.34
803.592	254.29
803.772	282.96
803.952	285.01
804.131	266.58
804.311	201.04
804.491	299.34
804.67	153.94
804.85	233.81
805.03	242
805.209	291.15
805.389	254.29
805.568	203.09
805.748	215.38
805.928	248.15
806.107	264.53
806.287	250.19
806.466	221.52
806.646	172.37
806.825	196.95
807.004	170.32
807.184	198.99
807.363	242
807.543	258.39
807.722	282.96
807.901	176.47
808.081	203.09
808.26	147.8
808.439	198.99
808.619	196.95
808.798	252.24
808.977	147.8
809.156	250.19
809.336	246.1
809.515	217.43
809.694	215.38
809.873	131.41
810.052	213.33
810.231	244.05
810.411	205.14
810.59	227.67
810.769	135.51
810.948	235.86
811.127	188.75
811.306	190.8
811.485	192.85
811.664	252.24
811.843	237.91
812.022	151.89
812.201	151.89
812.38	188.75
812.559	155.99
812.737	207.19
812.916	115.03
813.095	164.18
813.274	178.51
813.453	221.52
813.632	125.27
813.811	176.47
813.989	160.08
814.168	174.42
814.347	90.45
814.526	242
814.704	194.9
814.883	153.94
815.062	160.08
815.24	213.33
815.419	188.75
815.598	180.56
815.776	182.61
815.955	160.08
816.133	55.64
816.312	155.99
816.49	82.26
816.669	221.52
816.847	92.5
817.026	131.41
817.204	104.79
817.383	129.36
817.561	125.27
817.74	143.7
817.918	160.08
818.097	117.08
818.275	151.89
818.453	123.22
818.632	145.75
818.81	170.32
818.988	121.17
819.167	141.65
819.345	192.85
819.523	160.08
819.701	188.75
819.879	78.16
820.058	139.6
820.236	63.83
820.414	90.45
820.592	143.7
820.77	182.61
820.948	129.36
821.127	92.5
821.305	188.75
821.483	98.64
821.661	221.52
821.839	147.8
822.017	125.27
822.195	160.08
822.373	149.84
822.551	88.4
822.729	164.18
822.907	37.2
823.085	76.12
823.262	147.8
823.44	141.65
823.618	123.22
823.796	110.93
823.974	51.54
824.152	88.4
824.329	82.26
824.507	141.65
824.685	121.17
824.863	131.41
825.04	127.32
825.218	201.04
825.396	82.26
825.574	127.32
825.751	141.65
825.929	160.08
826.107	180.56
826.284	147.8
826.462	35.16
826.639	135.51
826.817	74.07
826.994	137.56
827.172	53.59
827.349	112.98
827.527	115.03
827.704	98.64
827.882	112.98
828.059	104.79
828.237	22.87
828.414	61.78
828.591	12.63
828.769	8.53
828.946	117.08
829.124	51.54
829.301	102.74
829.478	51.54
829.655	98.64
829.833	74.07
830.01	98.64
830.187	76.12
830.364	45.4
830.542	33.11
830.719	110.93
830.896	155.99
831.073	198.99
831.25	143.7
831.427	72.02
831.604	65.88
831.782	59.73
831.959	117.08
832.136	125.27
832.313	151.89
832.49	127.32
832.667	112.98
832.844	82.26
833.021	117.08
833.198	24.92
833.374	39.25
833.551	29.01
833.728	94.55
833.905	72.02
834.082	96.6
834.259	139.6
834.436	112.98
834.612	26.96
834.789	82.26
834.966	12.63
835.143	69.97
835.319	-5.8
835.496	59.73
835.673	90.45
835.85	86.36
836.026	131.41
836.203	14.68
836.38	55.64
836.556	94.55
836.733	96.6
836.909	115.03
837.086	43.35
837.262	37.2
837.439	135.51
837.616	63.83
837.792	33.11
837.968	59.73
838.145	2.39
838.321	26.96
838.498	67.92
838.674	90.45
838.851	4.44
839.027	59.73
839.203	29.01
839.38	127.32
839.556	41.3
839.732	57.68
839.909	26.96
840.085	47.44
840.261	49.49
840.437	94.55
840.614	16.73
840.79	72.02
840.966	29.01
841.142	53.59
841.318	49.49
841.494	47.44
841.671	24.92
841.847	-48.81
842.023	90.45
842.199	67.92
842.375	63.83
842.551	2.39
842.727	61.78
842.903	-32.43
843.079	72.02
843.255	129.36
843.431	-7.85
843.607	72.02
843.783	94.55
843.959	86.36
844.134	20.82
844.31	90.45
844.486	20.82
844.662	76.12
844.838	43.35
845.013	41.3
845.189	57.68
845.365	-40.62
845.541	61.78
845.716	86.36
845.892	39.25
846.068	18.77
846.244	65.88
846.419	31.06
846.595	31.06
846.77	39.25
846.946	63.83
847.122	37.2
847.297	49.49
847.473	102.74
847.648	55.64
847.824	121.17
847.999	-20.14
848.175	57.68
848.35	14.68
848.526	-20.14
848.701	106.84
848.876	51.54
849.052	117.08
849.227	24.92
849.403	55.64
849.578	10.58
849.753	29.01
849.929	51.54
850.104	-7.85
850.279	33.11
850.454	-38.57
850.63	135.51
850.805	12.63
850.98	110.93
851.155	39.25
851.33	76.12
851.505	53.59
851.681	43.35
851.856	8.53
852.031	96.6
852.206	37.2
852.381	-3.75
852.556	53.59
852.731	10.58
852.906	16.73
853.081	-11.95
853.256	6.49
853.431	6.49
853.606	20.82
853.781	0.34
853.956	-34.47
854.131	61.78
854.305	45.4
854.48	33.11
854.655	-5.8
854.83	49.49
855.005	14.68
855.18	-26.28
855.354	61.78
855.529	-7.85
855.704	-59.05
855.879	41.3
856.053	4.44
856.228	2.39
856.403	-3.75
856.577	53.59
856.752	26.96
856.926	10.58
857.101	20.82
857.276	33.11
857.45	115.03
857.625	47.44
857.799	26.96
857.974	65.88
858.148	8.53
858.323	-36.52
858.497	-46.76
858.672	-44.71
858.846	45.4
859.02	20.82
859.195	-11.95
859.369	6.49
859.543	-18.09
859.718	37.2
859.892	57.68
860.066	8.53
860.241	-38.57
860.415	-7.85
860.589	10.58
860.763	39.25
860.938	-32.43
861.112	74.07
861.286	16.73
861.46	43.35
861.634	-7.85
861.808	45.4
861.982	-57
862.157	-9.9
862.331	-34.47
862.505	-61.1
862.679	-9.9
862.853	10.58
863.027	74.07
863.201	131.41
863.375	-7.85
863.549	4.44
863.722	-16.04
863.896	-30.38
864.07	0.34
864.244	-42.67
864.418	31.06
864.592	-9.9
864.766	22.87
864.939	2.39
865.113	20.82
865.287	31.06
865.461	-9.9
865.634	-1.71
865.808	-44.71
865.982	96.6
866.156	-112.3
866.329	41.3
866.503	33.11
866.676	35.16
866.85	53.59
867.024	4.44
867.197	-7.85
867.371	33.11
867.544	16.73
867.718	-34.47
867.891	65.88
868.065	14.68
868.238	26.96
868.412	98.64
868.585	51.54
868.759	-32.43
868.932	-34.47
869.105	47.44
869.279	-22.19
869.452	-42.67
869.625	-32.43
869.799	24.92
869.972	-3.75
870.145	16.73
870.319	53.59
870.492	31.06
870.665	-59.05
870.838	39.25
871.011	14.68
871.185	-32.43
871.358	-42.67
871.531	-20.14
871.704	-24.23
871.877	49.49
872.05	-13.99
872.223	-16.04
872.396	-7.85
872.569	49.49
872.742	-59.05
872.915	31.06
873.088	-89.77
873.261	8.53
873.434	39.25
873.607	-28.33
873.78	47.44
873.953	49.49
874.126	74.07
874.299	22.87
874.471	-104.11
874.644	-5.8
874.817	-77.48
874.99	16.73
875.163	-20.14
875.335	33.11
875.508	102.74
875.681	33.11
875.853	-61.1
876.026	61.78
876.199	35.16
876.371	0.34
876.544	61.78
876.717	-11.95
876.889	24.92
877.062	-26.28
877.234	12.63
877.407	10.58
877.579	-38.57
877.752	24.92
877.924	67.92
878.097	22.87
878.269	-52.91
878.442	-16.04
878.614	-20.14
878.786	-18.09
878.959	-24.23
879.131	61.78
879.303	-83.63
879.476	33.11
879.648	4.44
879.82	-28.33
879.993	24.92
880.165	-7.85
880.337	24.92
880.509	14.68
880.681	-16.04
880.854	-59.05
881.026	33.11
881.198	67.92
881.37	29.01
881.542	39.25
881.714	18.77
881.886	37.2
882.058	-13.99
882.23	43.35
882.402	20.82
882.574	29.01
882.746	20.82
882.918	10.58
883.09	53.59
883.262	-16.04
883.434	35.16
883.606	-3.75
883.778	-36.52
883.95	18.77
884.122	4.44
884.293	49.49
884.465	-16.04
884.637	84.31
884.809	-36.52
884.98	65.88
885.152	-63.15
885.324	-61.1
885.496	41.3
885.667	-3.75
885.839	-9.9
886.011	39.25
886.182	-44.71
886.354	41.3
886.525	-71.34
886.697	39.25
886.869	12.63
887.04	12.63
887.212	-9.9
887.383	74.07
887.555	37.2
887.726	-59.05
887.897	-1.71
888.069	-54.95
888.24	37.2
888.412	-9.9
888.583	-38.57
888.754	-40.62
888.926	-34.47
889.097	18.77
889.268	4.44
889.44	20.82
889.611	-48.81
889.782	-11.95
889.953	-36.52
890.125	-32.43
890.296	-79.53
890.467	-38.57
890.638	-16.04
890.809	6.49
890.98	39.25
891.151	57.68
891.323	51.54
891.494	16.73
891.665	-81.58
891.836	26.96
892.007	-1.71
892.178	-65.19
892.349	-22.19
892.52	51.54
892.691	-38.57
892.862	-52.91
893.032	-11.95
893.203	-40.62
893.374	-16.04
893.545	51.54
893.716	-9.9
893.887	24.92
894.057	-97.96
894.228	-69.29
894.399	-24.23
894.57	-7.85
894.74	-32.43
894.911	-1.71
895.082	-40.62
895.253	-1.71
895.423	-20.14
895.594	6.49
895.764	-57
895.935	6.49
896.106	41.3
896.276	-77.48
896.447	26.96
896.617	16.73
896.788	-48.81
896.958	-24.23
897.129	18.77
897.299	-3.75
897.47	0.34
897.64	20.82
897.81	-63.15
897.981	-7.85
898.151	20.82
898.322	-11.95
898.492	-93.87
898.662	-71.34
898.832	-52.91
899.003	18.77
899.173	-5.8
899.343	-57
899.513	2.39
