Data from USB4F104151__198__10-29-31-536.txt Node

Date: Wed Mar 12 10:29:31 EDT 2025
User: louis
Spectrometer: USB4F10415
Trigger mode: 4
Integration Time (sec): 3.000000E-2
Scans to average: 1
Electric dark correction enabled: true
Nonlinearity correction enabled: false
Boxcar width: 0
XAxis mode: Wavelengths
Number of Pixels in Spectrum: 3648
>>>>>Begin Spectral Data<<<<<
178.204	-104.28
178.424	-104.28
178.644	-104.28
178.864	-102.23
179.084	-85.84
179.304	-8.02
179.524	24.75
179.744	18.6
179.964	43.18
180.184	-44.88
180.404	4.27
180.624	-24.4
180.844	-36.69
181.064	0.17
181.283	-22.36
181.503	34.99
181.723	10.41
181.943	-91.99
182.163	37.03
182.383	0.17
182.602	6.31
182.822	45.23
183.042	61.61
183.262	20.65
183.482	28.84
183.701	0.17
183.921	41.13
184.141	-12.12
184.361	51.37
184.58	18.6
184.8	-5.97
185.02	-36.69
185.239	118.95
185.459	14.51
185.679	114.86
185.898	-71.51
186.118	53.42
186.338	86.19
186.557	71.85
186.777	-46.93
186.997	53.42
187.216	63.66
187.436	24.75
187.655	49.32
187.875	61.61
188.095	77.99
188.314	71.85
188.534	75.95
188.753	12.46
188.973	53.42
189.192	77.99
189.412	18.6
189.631	37.03
189.851	73.9
190.07	96.43
190.29	-12.12
190.509	24.75
190.729	2.22
190.948	28.84
191.168	43.18
191.387	49.32
191.607	84.14
191.826	104.62
192.045	-1.88
192.265	67.75
192.484	-40.79
192.704	12.46
192.923	2.22
193.142	86.19
193.362	18.6
193.581	16.55
193.8	41.13
194.02	77.99
194.239	69.8
194.458	6.31
194.678	-16.21
194.897	28.84
195.116	102.57
195.335	67.75
195.555	18.6
195.774	-26.45
195.993	67.75
196.212	4.27
196.432	45.23
196.651	34.99
196.87	0.17
197.089	100.52
197.308	80.04
197.528	53.42
197.747	45.23
197.966	51.37
198.185	69.8
198.404	0.17
198.623	94.38
198.842	67.75
199.062	69.8
199.281	67.75
199.5	37.03
199.719	65.71
199.938	-34.64
200.157	143.53
200.376	82.09
200.595	6.31
200.814	69.8
201.033	80.04
201.252	77.99
201.471	84.14
201.69	32.94
201.909	32.94
202.128	12.46
202.347	82.09
202.566	28.84
202.785	57.51
203.004	94.38
203.223	73.9
203.442	73.9
203.661	92.33
203.879	-20.31
204.098	28.84
204.317	53.42
204.536	49.32
204.755	28.84
204.974	39.08
205.193	43.18
205.411	47.27
205.63	57.51
205.849	69.8
206.068	20.65
206.287	84.14
206.505	61.61
206.724	71.85
206.943	55.47
207.162	32.94
207.381	34.99
207.599	96.43
207.818	22.7
208.037	-8.02
208.255	-57.17
208.474	45.23
208.693	65.71
208.911	-51.03
209.13	65.71
209.349	4.27
209.567	45.23
209.786	110.76
210.005	34.99
210.223	45.23
210.442	20.65
210.661	45.23
210.879	16.55
211.098	39.08
211.316	94.38
211.535	53.42
211.753	28.84
211.972	57.51
212.191	4.27
212.409	73.9
212.628	61.61
212.846	59.56
213.065	65.71
213.283	94.38
213.502	6.31
213.72	-10.07
213.938	86.19
214.157	86.19
214.375	49.32
214.594	55.47
214.812	53.42
215.031	92.33
215.249	34.99
215.467	73.9
215.686	37.03
215.904	98.47
216.122	45.23
216.341	121
216.559	2.22
216.778	63.66
216.996	0.17
217.214	24.75
217.432	32.94
217.651	-65.36
217.869	-28.5
218.087	51.37
218.306	45.23
218.524	34.99
218.742	59.56
218.96	75.95
219.179	8.36
219.397	18.6
219.615	110.76
219.833	41.13
220.051	4.27
220.27	147.62
220.488	86.19
220.706	24.75
220.924	32.94
221.142	-18.26
221.36	-3.93
221.578	41.13
221.796	55.47
222.015	73.9
222.233	20.65
222.451	112.81
222.669	39.08
222.887	22.7
223.105	4.27
223.323	26.79
223.541	61.61
223.759	102.57
223.977	-18.26
224.195	61.61
224.413	133.29
224.631	2.22
224.849	55.47
225.067	125.1
225.285	4.27
225.503	49.32
225.721	20.65
225.939	82.09
226.157	59.56
226.375	172.2
226.592	4.27
226.81	-22.36
227.028	94.38
227.246	84.14
227.464	53.42
227.682	-8.02
227.9	2.22
228.117	73.9
228.335	-24.4
228.553	45.23
228.771	125.1
228.989	65.71
229.206	45.23
229.424	104.62
229.642	51.37
229.86	53.42
230.077	88.23
230.295	69.8
230.513	112.81
230.731	10.41
230.948	77.99
231.166	37.03
231.384	94.38
231.601	71.85
231.819	-8.02
232.037	14.51
232.254	28.84
232.472	108.71
232.689	-5.97
232.907	43.18
233.125	-10.07
233.342	22.7
233.56	61.61
233.777	61.61
233.995	114.86
234.213	75.95
234.43	100.52
234.648	12.46
234.865	-18.26
235.083	98.47
235.3	4.27
235.518	61.61
235.735	90.28
235.953	45.23
236.17	84.14
236.388	55.47
236.605	-18.26
236.822	37.03
237.04	-38.74
237.257	8.36
237.475	73.9
237.692	34.99
237.909	28.84
238.127	-8.02
238.344	63.66
238.562	59.56
238.779	10.41
238.996	57.51
239.214	65.71
239.431	45.23
239.648	10.41
239.865	112.81
240.083	59.56
240.3	127.14
240.517	59.56
240.735	98.47
240.952	84.14
241.169	43.18
241.386	-5.97
241.603	61.61
241.821	90.28
242.038	88.23
242.255	28.84
242.472	59.56
242.689	32.94
242.907	65.71
243.124	59.56
243.341	0.17
243.558	6.31
243.775	4.27
243.992	-42.84
244.209	84.14
244.426	53.42
244.643	67.75
244.86	28.84
245.078	106.67
245.295	22.7
245.512	53.42
245.729	53.42
245.946	59.56
246.163	106.67
246.38	-1.88
246.597	92.33
246.814	26.79
247.031	45.23
247.248	24.75
247.464	69.8
247.681	102.57
247.898	-55.12
248.115	110.76
248.332	-57.17
248.549	90.28
248.766	45.23
248.983	110.76
249.2	41.13
249.417	69.8
249.633	-30.55
249.85	34.99
250.067	-44.88
250.284	69.8
250.501	20.65
250.717	88.23
250.934	18.6
251.151	24.75
251.368	-38.74
251.585	-14.17
251.801	-48.98
252.018	69.8
252.235	77.99
252.451	-8.02
252.668	53.42
252.885	28.84
253.102	28.84
253.318	16.55
253.535	75.95
253.752	-14.17
253.968	32.94
254.185	80.04
254.401	30.89
254.618	14.51
254.835	-42.84
255.051	20.65
255.268	-46.93
255.484	82.09
255.701	18.6
255.917	82.09
256.134	-40.79
256.351	4.27
256.567	-48.98
256.784	26.79
257	41.13
257.217	65.71
257.433	26.79
257.65	73.9
257.866	116.9
258.082	14.51
258.299	24.75
258.515	92.33
258.732	37.03
258.948	41.13
259.165	65.71
259.381	-1.88
259.597	80.04
259.814	63.66
260.03	69.8
260.246	-12.12
260.463	61.61
260.679	59.56
260.895	51.37
261.112	45.23
261.328	-20.31
261.544	10.41
261.761	141.48
261.977	2.22
262.193	53.42
262.409	98.47
262.626	47.27
262.842	59.56
263.058	34.99
263.274	104.62
263.49	71.85
263.707	96.43
263.923	63.66
264.139	20.65
264.355	45.23
264.571	82.09
264.787	28.84
265.004	141.48
265.22	84.14
265.436	116.9
265.652	47.27
265.868	67.75
266.084	61.61
266.3	32.94
266.516	8.36
266.732	73.9
266.948	45.23
267.164	84.14
267.38	53.42
267.596	10.41
267.812	157.86
268.028	90.28
268.244	30.89
268.46	32.94
268.676	16.55
268.892	75.95
269.108	61.61
269.324	24.75
269.54	-46.93
269.756	45.23
269.972	61.61
270.188	28.84
270.403	24.75
270.619	34.99
270.835	-5.97
271.051	26.79
271.267	94.38
271.483	-20.31
271.698	94.38
271.914	10.41
272.13	49.32
272.346	45.23
272.562	-12.12
272.777	114.86
272.993	61.61
273.209	-5.97
273.425	73.9
273.64	53.42
273.856	39.08
274.072	20.65
274.287	47.27
274.503	-24.4
274.719	53.42
274.934	73.9
275.15	73.9
275.366	41.13
275.581	-32.6
275.797	26.79
276.012	-32.6
276.228	41.13
276.444	-42.84
276.659	41.13
276.875	34.99
277.09	41.13
277.306	43.18
277.521	61.61
277.737	57.51
277.952	0.17
278.168	67.75
278.383	69.8
278.599	45.23
278.814	20.65
279.03	32.94
279.245	118.95
279.461	28.84
279.676	53.42
279.892	-20.31
280.107	-40.79
280.322	102.57
280.538	98.47
280.753	0.17
280.969	77.99
281.184	49.32
281.399	43.18
281.615	92.33
281.83	49.32
282.045	24.75
282.26	86.19
282.476	57.51
282.691	67.75
282.906	96.43
283.122	90.28
283.337	-3.93
283.552	49.32
283.767	102.57
283.983	-1.88
284.198	63.66
284.413	121
284.628	26.79
284.843	26.79
285.058	16.55
285.274	-8.02
285.489	24.75
285.704	69.8
285.919	77.99
286.134	108.71
286.349	84.14
286.564	16.55
286.779	110.76
286.995	39.08
287.21	22.7
287.425	80.04
287.64	45.23
287.855	67.75
288.07	43.18
288.285	59.56
288.5	90.28
288.715	112.81
288.93	49.32
289.145	26.79
289.36	63.66
289.575	45.23
289.79	20.65
290.004	77.99
290.219	61.61
290.434	77.99
290.649	-1.88
290.864	151.72
291.079	12.46
291.294	53.42
291.509	51.37
291.724	-12.12
291.938	18.6
292.153	90.28
292.368	-3.93
292.583	59.56
292.798	71.85
293.012	96.43
293.227	24.75
293.442	39.08
293.657	53.42
293.871	53.42
294.086	53.42
294.301	98.47
294.516	47.27
294.73	88.23
294.945	8.36
295.16	20.65
295.374	32.94
295.589	108.71
295.804	4.27
296.018	61.61
296.233	63.66
296.447	69.8
296.662	4.27
296.877	104.62
297.091	65.71
297.306	80.04
297.52	-30.55
297.735	53.42
297.949	75.95
298.164	75.95
298.378	75.95
298.593	53.42
298.807	59.56
299.022	80.04
299.236	53.42
299.451	53.42
299.665	-14.17
299.88	41.13
300.094	4.27
300.309	75.95
300.523	96.43
300.737	10.41
300.952	65.71
301.166	63.66
301.381	65.71
301.595	65.71
301.809	63.66
302.024	43.18
302.238	14.51
302.452	67.75
302.667	32.94
302.881	112.81
303.095	94.38
303.309	80.04
303.524	24.75
303.738	80.04
303.952	69.8
304.166	110.76
304.381	-63.32
304.595	71.85
304.809	37.03
305.023	-20.31
305.237	63.66
305.452	34.99
305.666	55.47
305.88	92.33
306.094	145.58
306.308	77.99
306.522	112.81
306.736	39.08
306.95	94.38
307.164	65.71
307.379	10.41
307.593	80.04
307.807	71.85
308.021	88.23
308.235	53.42
308.449	28.84
308.663	92.33
308.877	26.79
309.091	43.18
309.305	51.37
309.519	14.51
309.733	63.66
309.947	-3.93
310.161	80.04
310.374	59.56
310.588	86.19
310.802	49.32
311.016	53.42
311.23	102.57
311.444	41.13
311.658	86.19
311.872	49.32
312.085	69.8
312.299	125.1
312.513	80.04
312.727	49.32
312.941	77.99
313.154	75.95
313.368	63.66
313.582	51.37
313.796	65.71
314.009	75.95
314.223	118.95
314.437	110.76
314.651	59.56
314.864	82.09
315.078	51.37
315.292	53.42
315.505	63.66
315.719	53.42
315.933	51.37
316.146	26.79
316.36	-40.79
316.573	14.51
316.787	-14.17
317.001	98.47
317.214	14.51
317.428	112.81
317.641	43.18
317.855	-1.88
318.068	20.65
318.282	96.43
318.495	98.47
318.709	65.71
318.922	37.03
319.136	92.33
319.349	94.38
319.563	69.8
319.776	92.33
319.99	88.23
320.203	-20.31
320.417	37.03
320.63	20.65
320.843	106.67
321.057	8.36
321.27	53.42
321.483	73.9
321.697	49.32
321.91	43.18
322.124	80.04
322.337	59.56
322.55	32.94
322.763	41.13
322.977	49.32
323.19	16.55
323.403	53.42
323.617	61.61
323.83	41.13
324.043	2.22
324.256	84.14
324.469	73.9
324.683	104.62
324.896	53.42
325.109	14.51
325.322	6.31
325.535	-26.45
325.748	53.42
325.962	18.6
326.175	90.28
326.388	88.23
326.601	22.7
326.814	-1.88
327.027	133.29
327.24	73.9
327.453	8.36
327.666	133.29
327.879	73.9
328.092	90.28
328.305	110.76
328.518	47.27
328.731	-10.07
328.944	80.04
329.157	39.08
329.37	51.37
329.583	45.23
329.796	63.66
330.009	145.58
330.222	118.95
330.435	84.14
330.648	61.61
330.861	49.32
331.073	57.51
331.286	166.06
331.499	92.33
331.712	53.42
331.925	63.66
332.138	137.38
332.35	196.78
332.563	-28.5
332.776	4.27
332.989	-28.5
333.202	65.71
333.414	-38.74
333.627	80.04
333.84	71.85
334.053	0.17
334.265	55.47
334.478	51.37
334.691	104.62
334.903	53.42
335.116	43.18
335.329	116.9
335.541	20.65
335.754	147.62
335.966	-22.36
336.179	39.08
336.392	77.99
336.604	63.66
336.817	67.75
337.029	28.84
337.242	22.7
337.454	61.61
337.667	116.9
337.88	92.33
338.092	32.94
338.305	63.66
338.517	86.19
338.729	135.34
338.942	139.43
339.154	84.14
339.367	-16.21
339.579	104.62
339.792	28.84
340.004	133.29
340.217	69.8
340.429	61.61
340.641	45.23
340.854	65.71
341.066	-18.26
341.278	143.53
341.491	94.38
341.703	55.47
341.915	69.8
342.128	53.42
342.34	53.42
342.552	41.13
342.764	51.37
342.977	104.62
343.189	77.99
343.401	84.14
343.613	51.37
343.826	53.42
344.038	-18.26
344.25	143.53
344.462	-16.21
344.674	69.8
344.886	28.84
345.099	94.38
345.311	51.37
345.523	57.51
345.735	59.56
345.947	49.32
346.159	20.65
346.371	145.58
346.583	45.23
346.795	129.19
347.007	92.33
347.219	41.13
347.431	34.99
347.643	153.77
347.855	118.95
348.067	32.94
348.279	-30.55
348.491	75.95
348.703	67.75
348.915	32.94
349.127	4.27
349.339	71.85
349.551	34.99
349.763	75.95
349.975	86.19
350.187	80.04
350.399	100.52
350.61	90.28
350.822	90.28
351.034	86.19
351.246	-1.88
351.458	88.23
351.669	110.76
351.881	69.8
352.093	116.9
352.305	90.28
352.517	39.08
352.728	84.14
352.94	37.03
353.152	14.51
353.363	67.75
353.575	22.7
353.787	53.42
353.999	12.46
354.21	100.52
354.422	57.51
354.633	96.43
354.845	22.7
355.057	77.99
355.268	63.66
355.48	168.1
355.692	43.18
355.903	22.7
356.115	39.08
356.326	-5.97
356.538	137.38
356.749	47.27
356.961	43.18
357.172	102.57
357.384	49.32
357.595	65.71
357.807	69.8
358.018	110.76
358.23	45.23
358.441	73.9
358.653	98.47
358.864	75.95
359.075	30.89
359.287	82.09
359.498	86.19
359.709	8.36
359.921	77.99
360.132	69.8
360.344	104.62
360.555	51.37
360.766	69.8
360.977	86.19
361.189	69.8
361.4	106.67
361.611	129.19
361.823	127.14
362.034	147.62
362.245	88.23
362.456	28.84
362.667	39.08
362.879	14.51
363.09	18.6
363.301	75.95
363.512	28.84
363.723	45.23
363.935	49.32
364.146	67.75
364.357	16.55
364.568	80.04
364.779	6.31
364.99	133.29
365.201	8.36
365.412	51.37
365.623	28.84
365.834	73.9
366.045	41.13
366.256	73.9
366.467	137.38
366.678	94.38
366.889	41.13
367.1	90.28
367.311	84.14
367.522	43.18
367.733	98.47
367.944	100.52
368.155	59.56
368.366	84.14
368.577	96.43
368.788	131.24
368.999	102.57
369.209	135.34
369.42	51.37
369.631	61.61
369.842	32.94
370.053	102.57
370.264	37.03
370.474	129.19
370.685	34.99
370.896	53.42
371.107	88.23
371.317	90.28
371.528	94.38
371.739	77.99
371.95	112.81
372.16	90.28
372.371	8.36
372.582	65.71
372.792	143.53
373.003	139.43
373.214	90.28
373.424	30.89
373.635	-12.12
373.846	43.18
374.056	90.28
374.267	0.17
374.477	84.14
374.688	-3.93
374.898	82.09
375.109	90.28
375.319	116.9
375.53	129.19
375.74	94.38
375.951	57.51
376.161	71.85
376.372	86.19
376.582	22.7
376.793	92.33
377.003	102.57
377.214	43.18
377.424	121
377.635	26.79
377.845	65.71
378.055	112.81
378.266	55.47
378.476	6.31
378.686	80.04
378.897	112.81
379.107	110.76
379.317	131.24
379.528	51.37
379.738	77.99
379.948	-8.02
380.158	24.75
380.369	75.95
380.579	92.33
380.789	98.47
380.999	-5.97
381.21	164.01
381.42	123.05
381.63	43.18
381.84	121
382.05	102.57
382.261	121
382.471	131.24
382.681	86.19
382.891	49.32
383.101	82.09
383.311	110.76
383.521	77.99
383.731	86.19
383.941	159.91
384.151	77.99
384.361	8.36
384.571	73.9
384.781	53.42
384.991	153.77
385.201	114.86
385.411	53.42
385.621	114.86
385.831	108.71
386.041	71.85
386.251	69.8
386.461	34.99
386.671	69.8
386.881	118.95
387.091	118.95
387.301	137.38
387.511	65.71
387.72	110.76
387.93	86.19
388.14	94.38
388.35	69.8
388.56	12.46
388.769	127.14
388.979	4.27
389.189	24.75
389.399	59.56
389.609	77.99
389.818	67.75
390.028	4.27
390.238	30.89
390.447	61.61
390.657	133.29
390.867	10.41
391.076	49.32
391.286	90.28
391.496	184.49
391.705	77.99
391.915	184.49
392.125	110.76
392.334	63.66
392.544	121
392.753	39.08
392.963	108.71
393.172	106.67
393.382	75.95
393.591	123.05
393.801	75.95
394.01	174.25
394.22	84.14
394.429	123.05
394.639	86.19
394.848	90.28
395.058	133.29
395.267	94.38
395.477	131.24
395.686	151.72
395.895	135.34
396.105	147.62
396.314	65.71
396.524	141.48
396.733	67.75
396.942	170.15
397.152	159.91
397.361	170.15
397.57	121
397.78	55.47
397.989	127.14
398.198	137.38
398.407	110.76
398.617	114.86
398.826	127.14
399.035	102.57
399.244	75.95
399.453	180.39
399.663	139.43
399.872	137.38
400.081	75.95
400.29	125.1
400.499	112.81
400.708	168.1
400.917	137.38
401.127	135.34
401.336	45.23
401.545	198.82
401.754	168.1
401.963	209.06
402.172	182.44
402.381	125.1
402.59	161.96
402.799	131.24
403.008	94.38
403.217	178.34
403.426	159.91
403.635	121
403.844	164.01
404.053	141.48
404.262	188.58
404.471	192.68
404.68	112.81
404.888	213.16
405.097	161.96
405.306	198.82
405.515	245.93
405.724	190.63
405.933	202.92
406.142	217.26
406.35	204.97
406.559	278.69
406.768	194.73
406.977	299.17
407.185	270.5
407.394	290.98
407.603	219.3
407.812	276.65
408.02	258.21
408.229	284.84
408.438	299.17
408.646	295.08
408.855	280.74
409.064	305.32
409.272	352.42
409.481	360.61
409.69	370.85
409.898	305.32
410.107	393.38
410.315	381.09
410.524	360.61
410.733	372.9
410.941	434.34
411.15	393.38
411.358	475.3
411.567	540.83
411.775	471.2
411.984	542.88
412.192	553.12
412.401	641.18
412.609	563.36
412.818	661.66
413.026	553.12
413.234	606.37
413.443	632.99
413.651	602.27
413.86	708.77
414.068	710.82
414.276	708.77
414.485	696.48
414.693	790.69
414.901	835.74
415.11	868.51
415.318	817.31
415.526	829.6
415.734	960.67
415.943	936.09
416.151	940.19
416.359	970.91
416.567	1003.68
416.776	1081.5
416.984	1171.61
417.192	1175.7
417.4	1245.34
417.608	1216.66
417.817	1212.57
418.025	1321.11
418.233	1280.15
418.441	1349.78
418.649	1423.51
418.857	1489.04
419.065	1413.27
419.273	1562.77
419.481	1650.83
419.689	1702.03
419.897	1765.52
420.105	1720.46
420.313	1831.05
420.521	1880.21
420.729	1894.54
420.937	1890.45
421.145	2031.76
421.353	2181.26
421.561	2224.26
421.769	2357.38
421.977	2373.77
422.185	2343.05
422.393	2504.84
422.601	2644.1
422.809	2678.91
423.017	2625.67
423.224	2736.26
423.432	2998.4
423.64	2951.29
423.848	3278.97
424.056	3076.22
424.263	3383.42
424.471	3393.65
424.679	3416.18
424.887	3608.69
425.094	3690.61
425.302	3729.52
425.51	3864.69
425.718	3897.46
425.925	4120.68
426.133	4202.6
426.341	4395.11
426.548	4593.76
426.756	4550.76
426.964	4554.85
427.171	4823.14
427.379	4991.07
427.586	5034.08
427.794	5335.13
428.001	5492.82
428.209	5785.68
428.417	5699.67
428.624	6234.19
428.832	6015.05
429.039	6123.6
429.247	6031.44
429.454	6662.21
429.662	7059.52
429.869	6584.39
430.076	7008.32
430.284	6809.67
430.491	7268.41
430.699	7479.35
430.906	7690.29
431.114	7757.88
431.321	7929.91
431.528	8228.91
431.736	8550.44
431.943	9046.05
432.15	8765.48
432.358	8732.71
432.565	9371.68
432.772	9359.39
432.979	9867.28
433.187	9898
433.394	9959.44
433.601	10747.91
433.808	10567.69
434.016	10571.79
434.223	10930.18
434.43	11954.16
434.637	11548.67
434.844	12195.82
435.052	12529.64
435.259	12249.07
435.466	12691.43
435.673	12308.46
435.88	13156.32
436.087	13862.87
436.294	13545.44
436.501	13395.93
436.708	13709.27
436.915	14346.19
437.122	15200.19
437.329	14862.28
437.537	15296.45
437.743	15755.19
437.95	15622.08
438.157	16062.39
438.364	16689.07
438.571	16605.1
438.778	16748.46
438.985	18499.47
439.192	17471.39
439.399	18431.89
439.606	17975.19
439.813	18915.21
440.02	20082.55
440.227	19652.48
440.433	19539.84
440.64	20363.12
440.847	20019.07
441.054	20512.63
441.261	21847.9
441.467	21708.64
441.674	22116.19
441.881	22843.21
442.088	22875.98
442.294	22421.33
442.501	23322.44
442.708	23490.37
442.914	24631.09
443.121	25706.27
443.328	24885.04
443.534	26945.3
443.741	25919.26
443.948	25495.33
444.154	27385.61
444.361	27174.67
444.568	27428.62
444.774	27295.5
444.981	27731.72
445.187	28546.81
445.394	29538.02
445.6	29296.36
445.807	32310.97
446.013	30584.54
446.22	30942.93
446.426	32118.46
446.633	32806.58
446.839	33914.53
447.046	32384.7
447.252	34088.61
447.459	34309.79
447.665	34066.08
447.871	35274.38
448.078	36923
448.284	34963.09
448.491	36167.3
448.697	37381.74
448.903	38207.08
449.11	38293.09
449.316	37334.64
449.522	38219.36
449.728	39073.37
449.935	39382.61
450.141	39468.62
450.347	40253
450.553	39196.24
450.76	39564.88
450.966	40564.29
451.172	40179.27
451.378	40912.44
451.584	40394.31
451.791	41401.91
451.997	41043.51
452.203	41975.34
452.409	41641.52
452.615	41213.49
452.821	40130.12
453.027	39720.52
453.233	41797.16
453.44	39730.76
453.646	40367.68
453.852	40398.4
454.058	41328.18
454.264	39779.92
454.47	40752.7
454.676	39700.04
454.882	40789.56
455.088	37430.9
455.294	37369.46
455.5	37932.65
455.705	38784.6
455.911	37330.55
456.117	36517.5
456.323	35997.32
456.529	34043.56
456.735	35653.26
456.941	34373.28
457.147	34145.95
457.352	32800.44
457.558	32757.43
457.764	32454.33
457.97	32188.1
458.176	31289.04
458.381	31545.03
458.587	29654.76
458.793	29562.6
458.999	28630.77
459.204	30181.09
459.41	29742.82
459.616	27578.12
459.821	27408.14
460.027	27703.04
460.233	26797.84
460.438	25671.46
460.644	25923.36
460.85	24766.26
461.055	24631.09
461.261	24506.16
461.466	22402.9
461.672	21911.39
461.878	23416.65
462.083	22021.98
462.289	21383.01
462.494	21475.17
462.7	20141.94
462.905	19603.33
463.111	20559.73
463.316	20584.3
463.522	20438.9
463.727	20201.33
463.932	20193.14
464.138	20080.5
464.343	19955.58
464.549	19591.04
464.754	20178.81
464.959	19918.71
465.165	19791.74
465.37	18843.53
465.575	18579.34
465.781	19261.32
465.986	19326.85
466.191	18673.55
466.397	18304.92
466.602	17485.73
466.807	18214.8
467.012	18263.96
467.218	18112.41
467.423	17465.25
467.628	17858.46
467.833	18616.21
468.038	17948.57
468.244	17500.06
468.449	18005.91
468.654	17405.86
468.859	17254.31
469.064	17663.9
469.269	16783.27
469.474	16619.44
469.679	17002.41
469.885	16492.46
470.09	16873.39
470.295	16691.12
470.5	16345.01
470.705	16355.25
470.91	16009.14
471.115	15704
471.32	15929.27
471.525	15933.37
471.73	15792.06
471.935	15558.59
472.139	14790.6
472.344	15058.88
472.549	15017.93
472.754	14952.39
472.959	14393.3
473.164	14032.85
473.369	14245.84
473.574	14800.84
473.778	14469.07
473.983	14335.95
474.188	14340.05
474.393	13623.26
474.598	13770.71
474.802	13674.46
475.007	13621.21
475.212	13506.52
475.417	12908.52
475.621	13189.09
475.826	13084.64
476.031	12855.27
476.235	12629.99
476.44	12611.56
476.645	12427.25
476.849	12601.32
477.054	12406.77
477.259	12204.02
477.463	12296.18
477.668	11810.81
477.872	12210.16
478.077	11927.54
478.282	11522.04
478.486	11417.6
478.691	11440.12
478.895	11603.96
479.1	11388.92
479.304	11507.71
479.509	10950.66
479.713	11241.47
479.918	11186.18
480.122	10862.6
480.326	11235.33
480.531	10844.17
480.735	10760.2
480.94	10801.16
481.144	11065.35
481.348	10481.67
481.553	10842.12
481.757	10342.41
481.961	10702.86
482.166	10735.62
482.37	10766.34
482.574	10541.07
482.778	10539.02
482.983	10817.54
483.187	10665.99
483.391	10592.27
483.595	10377.23
483.8	10610.7
484.004	10588.17
484.208	10694.66
484.412	10600.46
484.616	10618.89
484.821	10733.57
485.025	10465.29
485.229	10608.65
485.433	10547.21
485.637	10559.5
485.841	10475.53
486.045	10436.62
486.249	10489.87
486.453	10326.03
486.657	10512.39
486.861	10455.05
487.065	10285.07
487.269	10704.9
487.473	10457.1
487.677	10743.81
487.881	10661.9
488.085	10387.47
488.289	10594.31
488.493	10727.43
488.697	10680.33
488.901	10629.13
489.105	10653.7
489.309	10651.66
489.512	10702.86
489.716	10530.83
489.92	10479.63
490.124	10610.7
490.328	10799.11
490.531	10887.17
490.735	11112.45
490.939	11091.97
491.143	10768.39
491.346	10686.47
491.55	11286.53
491.754	11192.32
491.958	11118.59
492.161	10981.38
492.365	11073.54
492.569	11046.91
492.772	11278.33
492.976	11487.23
493.18	11481.08
493.383	11524.09
493.587	11497.47
493.79	11698.17
493.994	11552.76
494.197	11753.46
494.401	12081.14
494.605	11718.65
494.808	12074.99
495.012	12242.93
495.215	12081.14
495.419	12271.6
495.622	12140.53
495.825	12462.06
496.029	12408.81
496.232	12890.09
496.436	12869.61
496.639	12851.17
496.843	12720.1
497.046	13189.09
497.249	13207.52
497.453	13273.06
497.656	13504.48
497.859	13527
498.063	13567.96
498.266	13862.87
498.469	13795.29
498.673	14079.96
498.876	14067.67
499.079	14225.36
499.282	14401.49
499.485	14682.06
499.689	14735.31
499.892	15071.17
500.095	14839.75
500.298	15695.8
500.501	15200.19
500.705	15562.69
500.908	16005.05
501.111	15939.51
501.314	16121.78
501.517	16263.09
501.72	16711.6
501.923	16314.29
502.126	16830.38
502.329	16957.35
502.532	17233.83
502.735	17199.01
502.938	17551.26
503.141	17717.15
503.344	17973.14
503.547	18153.37
503.75	18507.66
503.953	18589.58
504.156	18763.66
504.359	18958.22
504.562	18853.77
504.765	19789.69
504.968	19556.22
505.17	20035.45
505.373	19847.04
505.576	20293.49
505.779	20479.86
505.982	20545.39
506.185	20979.56
506.387	20731.76
506.59	21073.77
506.793	21098.34
506.996	21389.16
507.198	22079.32
507.401	21872.48
507.604	22085.47
507.807	22921.04
508.009	22910.8
508.212	23191.37
508.415	23230.28
508.617	23435.08
508.82	23813.95
509.022	23457.6
509.225	24233.78
509.428	24438.58
509.63	24803.12
509.833	24438.58
510.035	25069.36
510.238	25079.6
510.44	25581.35
510.643	26048.29
510.845	25960.22
511.048	26081.05
511.25	26523.41
511.453	26756.88
511.655	27330.31
511.858	27080.46
512.06	27318.03
512.262	27899.65
512.465	27838.21
512.667	28284.67
512.87	28499.7
513.072	28428.02
513.274	29161.2
513.477	29413.1
513.679	29497.06
513.881	29849.32
514.084	30101.22
514.286	30152.41
514.488	30805.72
514.69	31049.42
514.893	31319.76
515.095	31479.5
515.297	31729.35
515.499	31815.37
515.701	32335.55
515.904	32841.4
516.106	33025.71
516.308	33212.08
516.51	33388.21
516.712	33605.29
516.914	33732.26
517.116	34143.91
517.318	35022.48
517.52	35042.96
517.722	35020.44
517.925	35640.97
518.127	36050.56
518.329	35962.5
518.531	36114.05
518.733	36589.18
518.935	36830.84
519.136	37377.65
519.338	37217.91
519.54	37447.28
519.742	37895.78
519.944	37869.16
520.146	39059.03
520.348	38913.62
520.55	39278.16
520.752	38989.4
520.954	39867.98
521.155	39765.58
521.357	40140.36
521.559	40302.15
521.761	41141.81
521.963	41293.36
522.164	41602.61
522.366	41692.72
522.568	41795.12
522.77	41948.71
522.971	42903.07
523.173	42247.72
523.375	43154.97
523.576	43107.86
523.778	43318.81
523.98	43867.66
524.181	43712.02
524.383	44049.93
524.584	44504.58
524.786	44342.79
524.988	44828.16
525.189	45534.71
525.391	45489.65
525.592	45450.74
525.794	45524.47
525.995	45735.41
526.197	45489.65
526.398	45911.53
526.6	46339.56
526.801	46376.42
527.003	46589.41
527.204	46552.55
527.406	47394.26
527.607	47482.33
527.808	47511
528.01	46816.74
528.211	47654.36
528.412	48412.1
528.614	48014.8
528.815	47820.24
529.016	48786.88
529.218	48154.06
529.419	48408.01
529.62	48489.93
529.822	48780.74
530.023	48434.63
530.224	48694.72
530.425	48465.35
530.626	48815.55
530.828	48416.2
531.029	49825.2
531.23	48823.75
531.431	49032.64
531.632	49051.07
531.833	49399.22
532.035	49544.63
532.236	49692.08
532.437	49726.9
532.638	49307.07
532.839	49642.93
533.04	49976.75
533.241	49364.41
533.442	50623.91
533.643	49563.06
533.844	50111.92
534.045	50230.7
534.246	49673.65
534.447	50263.47
534.648	49427.9
534.849	49763.76
535.05	49862.07
535.251	50472.36
535.451	49911.22
535.652	50394.54
535.853	50191.79
536.054	50245.04
536.255	50097.58
536.456	49927.6
536.657	50732.45
536.857	49974.7
537.058	50132.4
537.259	50931.11
537.46	50427.31
537.66	50154.93
537.861	50073.01
538.062	50322.86
538.263	50404.78
538.463	49874.35
538.664	50204.08
538.865	50460.07
539.065	50484.65
539.266	49982.9
539.466	50419.11
539.667	49671.6
539.868	51019.17
540.068	50271.66
540.269	50232.75
540.469	50558.38
540.67	50247.08
540.87	50269.61
541.071	50238.89
541.271	50435.5
541.472	50421.16
541.672	49986.99
541.873	50019.76
542.073	49606.07
542.274	50382.25
542.474	50460.07
542.675	49880.5
542.875	50644.39
543.075	50279.85
543.276	49771.96
543.476	50415.02
543.676	49716.66
543.877	50507.18
544.077	50050.48
544.277	49898.93
544.478	49964.46
544.678	50341.29
544.878	50236.84
545.078	50230.7
545.279	49794.48
545.479	49921.46
545.679	50009.52
545.879	50310.57
546.079	49821.11
546.28	49980.85
546.48	49337.79
546.68	50011.57
546.88	50142.64
547.08	49888.69
547.28	50128.3
547.48	49870.26
547.68	50488.74
547.88	49845.68
548.081	49976.75
548.281	50232.75
548.481	50079.15
548.681	49978.8
548.881	49927.6
549.081	49986.99
549.28	49747.38
549.48	50156.97
549.68	49728.95
549.88	50486.7
550.08	49391.03
550.28	49948.08
550.48	49569.21
550.68	49958.32
550.88	49452.47
551.08	49522.1
551.279	49896.88
551.479	49569.21
551.679	49960.37
551.879	49376.7
552.079	50113.97
552.278	49679.8
552.478	49567.16
552.678	49702.32
552.878	49872.31
553.077	49620.41
553.277	49124.8
553.477	49706.42
553.676	49116.61
553.876	49837.49
554.076	49165.76
554.275	49268.15
554.475	48649.67
554.674	49599.93
554.874	49399.22
555.074	49120.7
555.273	49264.06
555.473	49305.02
555.672	48768.45
555.872	49001.92
556.071	49083.84
556.271	49554.87
556.47	49110.46
556.67	48684.48
556.869	49173.95
557.068	49128.89
557.268	48846.27
557.467	48860.61
557.667	48682.44
557.866	48967.1
558.065	48960.96
558.265	48606.66
558.464	47998.41
558.663	48647.62
558.863	48018.89
559.062	48905.66
559.261	48020.94
559.461	48584.13
559.66	47863.25
559.859	48315.85
560.058	47814.1
560.258	48631.24
560.457	48086.48
560.656	48199.12
560.855	47746.51
561.054	47865.3
561.253	47554.01
561.453	47420.89
561.652	47496.66
561.851	47814.1
562.05	47621.59
562.249	47109.6
562.448	47676.88
562.647	47406.55
562.846	46994.91
563.045	47246.81
563.244	46628.32
563.443	47238.62
563.642	46953.95
563.841	46513.64
564.04	46839.26
564.239	47142.36
564.438	46386.66
564.637	46665.19
564.836	46644.71
565.035	46482.92
565.234	46321.13
565.432	45909.49
565.631	45653.49
565.83	46314.98
566.029	45436.41
566.228	45839.86
566.427	45270.52
566.625	45641.2
566.824	44926.46
567.023	45559.28
567.222	44750.34
567.42	45227.51
567.619	44975.61
567.818	45247.99
568.016	44627.46
568.215	45192.7
568.414	45055.48
568.612	45364.73
568.811	44549.63
569.01	44527.11
569.208	44021.26
569.407	44695.04
569.605	43949.58
569.804	44766.72
570.002	43681.3
570.201	44070.41
570.4	43834.89
570.598	43585.04
570.797	43386.39
570.995	44146.19
571.193	43144.73
571.392	43795.98
571.59	43109.91
571.789	43433.49
571.987	43079.19
572.186	43093.53
572.384	42769.95
572.582	42911.26
572.781	42845.72
572.979	42182.18
573.177	42659.36
573.376	42587.68
573.574	42212.9
573.772	42550.82
573.971	42260.01
574.169	42204.71
574.367	41815.6
574.565	41930.28
574.763	41791.02
574.962	41692.72
575.16	41391.67
575.358	41338.42
575.556	40801.85
575.754	41670.19
575.952	40869.44
576.151	41301.56
576.349	40316.48
576.547	40453.7
576.745	40994.36
576.943	41070.14
577.141	40644.16
577.339	40961.59
577.537	40568.38
577.735	40429.12
577.933	40154.69
578.131	40474.18
578.329	39945.8
578.527	39511.63
578.725	39872.07
578.923	39706.19
579.121	39329.36
579.319	39657.04
579.516	39444.05
579.714	39499.34
579.912	39177.81
580.11	38987.35
580.308	39136.85
580.506	38764.12
580.704	38413.92
580.901	38911.58
581.099	38549.09
581.297	38364.77
581.495	38465.12
581.692	38651.48
581.89	37916.26
582.088	38825.56
582.285	38059.62
582.483	38338.15
582.681	37871.21
582.878	37670.51
583.076	37394.03
583.274	37693.04
583.471	37129.84
583.669	37564.01
583.866	37254.77
584.064	37559.92
584.262	37017.21
584.459	37299.83
584.657	36681.34
584.854	37211.76
585.052	36542.08
585.249	36822.65
585.447	36763.26
585.644	36294.27
585.841	36337.28
586.039	36734.59
586.236	35944.07
586.434	36202.11
586.631	35835.53
586.828	36417.15
587.026	35993.22
587.223	35716.75
587.42	35657.35
587.618	35698.31
587.815	35352.21
588.012	35073.68
588.21	35186.32
588.407	35653.26
588.604	35192.47
588.801	34561.69
588.999	34721.43
589.196	34866.84
589.393	34735.77
589.59	34477.72
589.787	34309.79
589.984	34223.78
590.182	34152.1
590.379	34334.37
590.576	34274.98
590.773	34068.13
590.97	33652.39
591.167	34303.65
591.364	33459.88
591.561	33769.13
591.758	33541.8
591.955	33435.31
592.152	33789.61
592.349	33111.73
592.546	33257.14
592.743	32990.9
592.94	32683.7
593.137	32822.97
593.334	33062.58
593.531	32378.56
593.727	32538.3
593.924	32765.62
594.121	32335.55
594.318	32452.28
594.515	31764.17
594.712	32403.13
594.908	31622.86
595.105	32224.96
595.302	31579.85
595.499	31755.97
595.696	31737.54
595.892	31221.45
596.089	31467.21
596.286	31721.16
596.482	31215.31
596.679	31440.59
596.876	30879.44
597.072	30971.6
597.269	31121.1
597.466	30736.09
597.662	30967.51
597.859	30557.91
598.055	30668.5
598.252	30449.37
598.448	30287.58
598.645	30471.9
598.841	30076.64
599.038	30086.88
599.234	30172.89
599.431	29951.71
599.627	29904.61
599.824	30082.78
600.02	29685.48
600.217	29662.95
600.413	29695.72
600.609	29621.99
600.806	29497.06
601.002	29423.34
601.198	28946.16
601.395	29159.15
601.591	28796.66
601.787	28645.11
601.984	28827.38
602.18	28933.87
602.376	28632.82
602.572	28833.52
602.769	28237.56
602.965	27946.75
603.161	28471.03
603.357	28192.51
603.553	28094.21
603.75	28008.19
603.946	27518.73
604.142	28108.54
604.338	27737.86
604.534	28032.77
604.73	27440.9
604.926	27477.77
605.122	27451.14
605.318	27361.03
605.514	27358.99
605.71	27137.8
605.906	27064.08
606.102	27156.24
606.298	27062.03
606.494	26922.77
606.69	26646.29
606.886	26859.28
607.082	26654.48
607.278	27008.78
607.474	26187.55
607.67	26695.44
607.866	26205.98
608.062	26388.25
608.257	26150.68
608.453	26240.79
608.649	26296.09
608.845	26007.33
609.041	25974.56
609.236	26074.91
609.432	25900.83
609.628	26363.67
609.824	25960.22
610.019	25618.21
610.215	25855.78
610.411	25888.54
610.606	25159.47
610.802	25716.51
610.998	25628.45
611.193	25245.48
611.389	25173.8
611.584	24966.96
611.78	25337.64
611.976	25007.92
612.171	25120.56
612.367	25184.04
612.562	25257.77
612.758	24629.04
612.953	24776.5
613.149	25290.54
613.344	24366.9
613.539	24962.86
613.735	24917.81
613.93	24936.24
614.126	24667.95
614.321	24768.3
614.517	24766.26
614.712	24440.63
614.907	24446.77
615.103	24196.92
615.298	24346.42
615.493	24340.28
615.688	23908.16
615.884	24504.12
616.079	24047.42
616.274	24053.56
616.47	24026.94
616.665	23938.88
616.86	23920.45
617.055	23707.46
617.25	23893.82
617.445	23977.79
617.641	23338.82
617.836	23385.93
618.031	23410.5
618.226	23519.04
618.421	23201.61
618.616	23557.96
618.811	22947.66
619.006	23152.46
619.201	22869.84
619.396	23023.44
619.591	22697.81
619.786	22976.33
619.981	22476.63
620.176	22783.82
620.371	22419.28
620.566	22407
620.761	22474.58
620.956	22288.21
621.151	21821.28
621.346	22302.55
621.541	21849.95
621.735	22136.66
621.93	21503.84
622.125	21729.12
622.32	21122.92
622.515	21428.07
622.709	21215.08
622.904	21219.17
623.099	20926.32
623.294	21165.93
623.488	20991.85
623.683	20789.1
623.878	20735.85
624.072	20551.54
624.267	20514.67
624.462	20236.15
624.656	20295.54
624.851	20078.46
625.046	19926.91
625.24	19883.9
625.435	19806.08
625.629	19765.12
625.824	19281.8
626.018	19552.13
626.213	19193.73
626.407	19543.94
626.602	18792.33
626.796	19298.18
626.991	18911.11
627.185	18919.31
627.38	18913.16
627.574	18581.39
627.768	18481.04
627.963	18388.88
628.157	18280.34
628.352	18124.69
628.546	18075.54
628.74	18233.24
628.935	18085.78
629.129	17856.41
629.323	17551.26
629.517	17541.02
629.712	17606.56
629.906	17528.74
630.1	17493.92
630.294	17260.45
630.489	17227.68
630.683	17256.36
630.877	17113
631.071	17098.66
631.265	16816.04
631.459	16541.61
631.653	16883.63
631.848	16601.01
632.042	16398.26
632.236	16584.62
632.43	16293.81
632.624	16328.63
632.818	16152.5
633.012	16043.96
633.206	15949.75
633.4	15931.32
633.594	15697.85
633.788	15579.07
633.982	16025.53
634.176	15646.65
634.369	15335.36
634.563	15366.08
634.757	15220.67
634.951	15572.93
635.145	15222.72
635.339	15079.36
635.533	15052.74
635.726	15081.41
635.92	14772.17
636.114	14778.31
636.308	14886.86
636.501	15011.78
636.695	14612.43
636.889	14323.66
637.083	14528.46
637.276	14372.82
637.47	14194.64
637.664	14313.42
637.857	14133.2
638.051	14018.52
638.244	13862.87
638.438	13785.05
638.632	13932.5
638.825	13600.73
639.019	13932.5
639.212	13400.03
639.406	13408.22
639.599	13461.47
639.793	13621.21
639.986	13199.33
640.18	13316.06
640.373	12998.63
640.567	12898.28
640.76	13008.87
640.954	12861.41
641.147	12822.5
641.34	12775.4
641.534	12752.87
641.727	12693.48
641.92	12568.55
642.114	12634.09
642.307	12460.01
642.5	12535.79
642.694	12167.15
642.887	12128.24
643.08	12367.85
643.273	12060.66
643.467	12154.87
643.66	12009.46
643.853	12048.37
644.046	11821.05
644.239	11730.94
644.432	11835.38
644.626	11626.49
644.819	11556.86
645.012	11640.83
645.205	11503.61
645.398	11501.56
645.591	11390.97
645.784	11354.11
645.977	11175.94
646.17	11104.26
646.363	11278.33
646.556	10842.12
646.749	10895.36
646.942	11235.33
647.135	10866.69
647.328	10856.45
647.521	10858.5
647.714	10649.61
647.907	10758.15
648.099	10663.94
648.292	10649.61
648.485	10487.82
648.678	10315.79
648.871	10442.76
649.064	10280.97
649.256	10506.25
649.449	10393.61
649.642	10121.23
649.835	10031.12
650.027	10022.93
650.22	10065.94
650.413	9891.86
650.605	9850.9
650.798	9885.72
650.991	9918.48
651.183	9723.93
651.376	9590.81
651.568	9658.39
651.761	9779.22
651.954	9525.27
652.146	9609.24
652.339	9494.55
652.531	9420.83
652.724	9336.86
652.916	9183.26
653.109	9250.85
653.301	9404.44
653.494	9154.59
653.686	8988.71
653.879	9357.34
654.071	9000.99
654.263	9035.81
654.456	8964.13
654.648	8962.08
654.84	8792.1
655.033	8710.18
655.225	8855.59
655.417	8564.78
655.61	8681.51
655.802	8820.77
655.994	8767.52
656.186	8331.31
656.379	8658.98
656.571	8378.41
656.763	8566.82
656.955	8128.56
657.148	8335.4
657.34	8366.12
657.532	8126.51
657.724	8171.57
657.916	8206.38
658.108	8331.31
658.3	8095.79
658.492	7991.34
658.684	7909.43
658.876	7725.11
659.068	7727.16
659.26	7628.85
659.452	7890.99
659.644	7850.03
659.836	7696.44
660.028	7782.45
660.22	7708.73
660.412	7639.09
660.604	7618.61
660.796	7577.66
660.988	7657.53
661.18	7516.22
661.372	7399.48
661.563	7518.26
661.755	7221.31
661.947	7419.96
662.139	7505.98
662.331	7295.04
662.522	7313.47
662.714	7059.52
662.906	7123.01
663.097	7239.74
663.289	7100.48
663.481	7000.13
663.673	7030.85
663.864	6971.46
664.056	6998.08
664.247	6721.6
664.439	6891.59
664.631	6826.05
664.822	6942.78
665.014	6746.18
665.205	6776.9
665.397	6813.76
665.588	6750.28
665.78	6602.82
665.971	6455.37
666.163	6731.84
666.354	6490.18
666.546	6580.29
666.737	6455.37
666.929	6391.88
667.12	6289.48
667.311	6459.46
667.503	6320.2
667.694	6371.4
667.885	6295.63
668.077	6271.05
668.268	6187.08
668.459	6139.98
668.651	6152.27
668.842	6107.21
669.033	6086.73
669.224	6201.42
669.416	6086.73
669.607	6060.11
669.798	5914.7
669.989	5869.65
670.18	5976.14
670.371	5955.66
670.563	5843.03
670.754	5900.37
670.945	5789.78
671.136	5967.95
671.327	5916.75
671.518	5681.24
671.709	5857.36
671.9	5824.59
672.091	5804.11
672.282	5812.31
672.473	5609.56
672.664	5736.53
672.855	5664.85
673.046	5789.78
673.237	5906.51
673.428	5601.37
673.619	5597.27
673.809	5722.2
674	5640.28
674.191	5507.16
674.382	5591.13
674.573	5468.25
674.764	5650.52
674.954	5597.27
675.145	5492.82
675.336	5466.2
675.527	5486.68
675.717	5429.34
675.908	5404.76
676.099	5388.38
676.289	5410.9
676.48	5480.54
676.671	5400.66
676.861	5304.41
677.052	5310.55
677.243	5265.5
677.433	5242.97
677.624	5253.21
677.814	5312.6
678.005	5199.96
678.195	5142.62
678.386	5361.75
678.576	5179.48
678.767	5202.01
678.957	5015.65
679.148	5079.13
679.338	5222.49
679.529	5169.24
679.719	5138.52
679.909	5177.44
680.1	5179.48
680.29	5075.04
680.481	5025.89
680.671	5107.8
680.861	4935.78
681.052	4980.83
681.242	5044.32
681.432	5159
681.622	5120.09
681.813	5029.98
682.003	5113.95
682.193	4999.26
682.383	5064.8
682.573	5005.41
682.764	4931.68
682.954	4837.47
683.144	5007.45
683.334	5019.74
683.524	4956.26
683.714	4927.58
683.904	4915.3
684.094	4868.19
684.284	4868.19
684.474	4946.02
684.664	4900.96
684.854	4853.86
685.044	4773.99
685.234	4792.42
685.424	4890.72
685.614	4876.38
685.804	4728.93
685.994	4765.79
686.184	4683.88
686.374	4681.83
686.564	4743.27
686.753	4679.78
686.943	4694.12
687.133	4816.99
687.323	4608.1
687.513	4571.24
687.702	4663.4
687.892	4659.3
688.082	4608.1
688.272	4470.89
688.461	4429.93
688.651	4499.56
688.841	4522.09
689.03	4485.22
689.22	4305
689.41	4411.5
689.599	4345.96
689.789	4395.11
689.979	4507.75
690.168	4450.41
690.358	4360.3
690.547	4247.66
690.737	4325.48
690.926	4374.63
691.116	4200.55
691.305	4395.11
691.495	4264.04
691.684	4135.02
691.874	4141.16
692.063	4259.95
692.252	4141.16
692.442	4233.32
692.631	4116.59
692.82	4188.27
693.01	4030.57
693.199	4212.84
693.388	4089.96
693.578	4175.98
693.767	4057.2
693.956	4038.77
694.146	4014.19
694.335	4024.43
694.524	3899.5
694.713	4057.2
694.902	4006
695.092	3989.61
695.281	3930.22
695.47	4053.1
695.659	4028.53
695.848	3797.1
696.037	3819.63
696.226	3858.54
696.415	3752.05
696.604	3942.51
696.793	3838.06
696.982	3999.85
697.171	3924.08
697.36	3991.66
697.549	3805.3
697.738	3981.42
697.927	3706.99
698.116	3965.04
698.305	3960.94
698.494	3788.91
698.683	3801.2
698.872	3866.74
699.061	3764.34
699.25	3721.33
699.438	3782.77
699.627	3801.2
699.816	3825.78
700.005	3606.64
700.193	3797.1
700.382	3620.98
700.571	3706.99
700.76	3903.6
700.948	3848.3
701.137	3926.13
701.326	3709.04
701.514	3713.14
701.703	3823.73
701.892	3717.23
702.08	3756.15
702.269	3856.5
702.457	3616.88
702.646	3776.63
702.834	3678.32
703.023	3698.8
703.212	3709.04
703.4	3610.74
703.589	3688.56
703.777	3690.61
703.965	3680.37
704.154	3661.94
704.342	3618.93
704.531	3653.75
704.719	3616.88
704.907	3723.38
705.096	3580.02
705.284	3612.79
705.472	3696.75
705.661	3711.09
705.849	3534.96
706.037	3641.46
706.226	3672.18
706.414	3674.23
706.602	3711.09
706.79	3715.19
706.979	3573.88
707.167	3768.43
707.355	3522.68
707.543	3600.5
707.731	3727.47
707.919	3553.4
708.107	3688.56
708.296	3604.6
708.484	3555.44
708.672	3582.07
708.86	3684.47
709.048	3516.53
709.236	3469.43
709.424	3719.28
709.612	3494.01
709.8	3649.65
709.988	3532.92
710.176	3696.75
710.364	3639.41
710.551	3561.59
710.739	3586.16
710.927	3659.89
711.115	3514.49
711.303	3588.21
711.491	3643.51
711.679	3481.72
711.866	3643.51
712.054	3737.71
712.242	3600.5
712.43	3545.2
712.617	3512.44
712.805	3616.88
712.993	3473.53
713.181	3620.98
713.368	3569.78
713.556	3555.44
713.744	3500.15
713.931	3631.22
714.119	3629.17
714.306	3655.79
714.494	3598.45
714.682	3518.58
714.869	3594.36
715.057	3606.64
715.244	3436.66
715.432	3573.88
715.619	3502.2
715.807	3463.29
715.994	3512.44
716.182	3528.82
716.369	3633.27
716.556	3549.3
716.744	3465.33
716.931	3604.6
717.119	3620.98
717.306	3489.91
717.493	3518.58
717.681	3530.87
717.868	3491.96
718.055	3582.07
718.242	3473.53
718.43	3547.25
718.617	3670.13
718.804	3504.25
718.991	3487.86
719.179	3518.58
719.366	3469.43
719.553	3496.05
719.74	3539.06
719.927	3510.39
720.114	3518.58
720.301	3428.47
720.488	3416.18
720.676	3457.14
720.863	3461.24
721.05	3496.05
721.237	3424.37
721.424	3541.11
721.611	3434.61
721.798	3453.05
721.985	3401.85
722.172	3352.7
722.358	3383.42
722.545	3381.37
722.732	3387.51
722.919	3426.42
723.106	3491.96
723.293	3412.09
723.48	3332.22
723.667	3481.72
723.853	3256.44
724.04	3407.99
724.227	3393.65
724.414	3330.17
724.6	3364.98
724.787	3387.51
724.974	3463.29
725.161	3422.33
725.347	3395.7
725.534	3479.67
725.72	3289.21
725.907	3571.83
726.094	3500.15
726.28	3352.7
726.467	3342.46
726.653	3326.07
726.84	3410.04
727.027	3416.18
727.213	3281.02
727.4	3342.46
727.586	3393.65
727.773	3356.79
727.959	3395.7
728.145	3430.52
728.332	3254.39
728.518	3364.98
728.705	3328.12
728.891	3211.39
729.077	3348.6
729.264	3340.41
729.45	3377.27
729.636	3305.59
729.823	3291.26
730.009	3354.74
730.195	3233.91
730.382	3395.7
730.568	3305.59
730.754	3453.05
730.94	3293.3
731.126	3246.2
731.313	3311.74
731.499	3125.37
731.685	3211.39
731.871	3303.54
732.057	3205.24
732.243	3399.8
732.429	3285.11
732.615	3278.97
732.801	3268.73
732.987	3276.92
733.173	3240.06
733.359	3211.39
733.545	3174.52
733.731	3281.02
733.917	3205.24
734.103	3164.28
734.289	3266.68
734.475	3252.35
734.661	3235.96
734.847	3188.86
735.033	3256.44
735.219	3182.71
735.404	3195
735.59	3164.28
735.776	3049.6
735.962	3190.91
736.148	3145.85
736.333	3219.58
736.519	3061.88
736.705	3080.32
736.89	3098.75
737.076	3137.66
737.262	2957.44
737.447	3027.07
737.633	3111.04
737.819	3074.17
738.004	3014.78
738.19	3006.59
738.375	2850.94
738.561	3008.64
738.747	2951.29
738.932	3027.07
739.118	2982.01
739.303	3088.51
739.489	2902.14
739.674	3080.32
739.859	2984.06
740.045	2936.96
740.23	2939.01
740.416	2818.18
740.601	2885.76
740.786	2936.96
740.972	2910.33
741.157	2826.37
741.342	2756.74
741.528	2771.07
741.713	3051.64
741.898	2787.46
742.084	2902.14
742.269	2805.89
742.454	2885.76
742.639	2973.82
742.824	2738.3
743.01	2797.7
743.195	2859.14
743.38	2816.13
743.565	2852.99
743.75	2689.15
743.935	2744.45
744.12	2769.02
744.305	2654.34
744.49	2699.39
744.675	2605.19
744.86	2607.23
745.045	2625.67
745.23	2621.57
745.415	2605.19
745.6	2621.57
745.785	2537.6
745.97	2678.91
746.155	2605.19
746.34	2627.71
746.525	2572.42
746.71	2584.71
746.895	2510.98
747.079	2568.32
747.264	2394.25
747.449	2367.62
747.634	2502.79
747.819	2408.58
748.003	2476.16
748.188	2388.1
748.373	2281.61
748.557	2386.05
748.742	2277.51
748.927	2416.77
749.111	2316.42
749.296	2306.18
749.481	2345.09
749.665	2259.08
749.85	2289.8
750.034	2275.46
750.219	2250.89
750.404	2211.98
750.588	2164.87
750.773	2150.54
750.957	2175.11
751.141	2164.87
751.326	2216.07
751.51	2087.05
751.695	2052.24
751.879	2224.26
752.064	2224.26
752.248	2179.21
752.432	2052.24
752.617	2076.81
752.801	2058.38
752.985	2101.39
753.17	1968.27
753.354	2050.19
753.538	2003.08
753.722	1998.99
753.907	1964.17
754.091	1976.46
754.275	1927.31
754.459	1781.9
754.643	1945.74
754.828	1929.36
755.012	1843.34
755.196	1714.32
755.38	1781.9
755.564	1742.99
755.748	1796.24
755.932	1802.38
756.116	1757.33
756.3	1710.22
756.484	1730.7
756.668	1695.89
756.852	1654.93
757.036	1749.14
757.22	1726.61
757.404	1730.7
757.588	1708.18
757.772	1656.98
757.956	1826.96
758.14	1611.92
758.323	1540.24
758.507	1697.94
758.691	1570.96
758.875	1648.79
759.059	1585.3
759.242	1665.17
759.426	1552.53
759.61	1534.1
759.794	1597.59
759.977	1552.53
760.161	1626.26
760.345	1581.2
760.528	1616.02
760.712	1556.63
760.895	1577.11
761.079	1398.93
761.263	1491.09
761.446	1460.37
761.63	1468.56
761.813	1446.04
761.997	1407.13
762.18	1437.84
762.364	1464.47
762.547	1308.82
762.731	1394.84
762.914	1400.98
763.098	1374.36
763.281	1278.1
763.464	1349.78
763.648	1376.41
763.831	1337.49
764.015	1339.54
764.198	1382.55
764.381	1280.15
764.564	1300.63
764.748	1298.58
764.931	1368.21
765.114	1312.92
765.297	1276.06
765.481	1276.06
765.664	1300.63
765.847	1259.67
766.03	1274.01
766.213	1310.87
766.397	1349.78
766.58	1321.11
766.763	1192.09
766.946	1224.86
767.129	1251.48
767.312	1210.52
767.495	1243.29
767.678	1194.14
767.861	1161.37
768.044	1298.58
768.227	1302.68
768.41	1126.55
768.593	1245.34
768.776	1259.67
768.959	1108.12
769.142	1153.18
769.324	1155.23
769.507	1091.74
769.69	1173.66
769.873	1175.7
770.056	1257.62
770.239	1126.55
770.421	1169.56
770.604	1106.07
770.787	1151.13
770.97	1116.31
771.152	1110.17
771.335	1081.5
771.518	1132.7
771.7	1075.35
771.883	1128.6
772.066	1052.83
772.248	1022.11
772.431	1097.88
772.613	1009.82
772.796	1067.16
772.978	1063.07
773.161	1058.97
773.343	1042.59
773.526	966.81
773.708	1032.35
773.891	909.47
774.073	1085.59
774.256	1036.44
774.438	1114.27
774.621	983.2
774.803	977.05
774.985	991.39
775.168	1013.92
775.35	948.38
775.532	1022.11
775.715	903.32
775.897	901.28
776.079	954.52
776.261	792.73
776.444	860.32
776.626	913.56
776.808	845.98
776.99	864.41
777.173	852.13
777.355	905.37
777.537	870.56
777.719	874.65
777.901	884.89
778.083	872.61
778.265	829.6
778.447	901.28
778.629	811.17
778.811	821.41
778.993	802.97
779.175	848.03
779.357	690.34
779.539	751.78
779.721	823.45
779.903	856.22
780.085	798.88
780.267	839.84
780.449	712.86
780.631	811.17
780.812	776.35
780.994	735.39
781.176	733.34
781.358	745.63
781.54	632.99
781.721	802.97
781.903	704.67
782.085	716.96
782.267	676
782.448	676
782.63	694.43
782.812	735.39
782.993	659.62
783.175	614.56
783.357	690.34
783.538	622.75
783.72	704.67
783.901	618.66
784.083	649.38
784.264	602.27
784.446	643.23
784.627	587.94
784.809	651.42
784.99	614.56
785.172	700.58
785.353	639.14
785.535	671.9
785.716	635.04
785.897	602.27
786.079	516.26
786.26	596.13
786.441	557.22
786.623	516.26
786.804	551.07
786.985	559.27
787.167	624.8
787.348	542.88
787.529	569.51
787.71	596.13
787.891	497.83
788.073	489.64
788.254	536.74
788.435	559.27
788.616	530.59
788.797	473.25
788.978	551.07
789.159	573.6
789.34	409.76
789.522	522.4
789.703	460.96
789.884	475.3
790.065	522.4
790.246	516.26
790.427	469.16
790.607	495.78
790.788	436.39
790.969	544.93
791.15	503.97
791.331	397.48
791.512	520.35
791.693	485.54
791.874	452.77
792.054	487.59
792.235	524.45
792.416	436.39
792.597	397.48
792.778	442.53
792.958	528.55
793.139	463.01
793.32	477.35
793.5	413.86
793.681	530.59
793.862	460.96
794.042	385.19
794.223	420
794.404	358.57
794.584	358.57
794.765	405.67
794.945	446.63
795.126	434.34
795.306	379.04
795.487	473.25
795.667	401.57
795.848	393.38
796.028	360.61
796.209	377
796.389	362.66
796.57	434.34
796.75	278.69
796.93	391.33
797.111	395.43
797.291	438.44
797.471	372.9
797.652	413.86
797.832	364.71
798.012	348.33
798.192	282.79
798.373	262.31
798.553	360.61
798.733	362.66
798.913	331.94
799.093	364.71
799.274	379.04
799.454	338.09
799.634	333.99
799.814	327.85
799.994	331.94
800.174	329.89
800.354	307.37
800.534	260.26
800.714	362.66
800.894	338.09
801.074	256.17
801.254	286.89
801.434	315.56
801.614	235.69
801.794	256.17
801.974	815.26
802.154	286.89
802.334	346.28
802.514	311.46
802.693	340.13
802.873	264.36
803.053	311.46
803.233	325.8
803.413	278.69
803.592	295.08
803.772	258.21
803.952	348.33
804.131	278.69
804.311	329.89
804.491	213.16
804.67	325.8
804.85	225.45
805.03	284.84
805.209	282.79
805.389	346.28
805.568	227.5
805.748	317.61
805.928	245.93
806.107	270.5
806.287	309.41
806.466	313.51
806.646	223.4
806.825	268.45
807.004	268.45
807.184	247.97
807.363	311.46
807.543	280.74
807.722	243.88
807.901	293.03
808.081	266.41
808.26	223.4
808.439	250.02
808.619	233.64
808.798	288.93
808.977	241.83
809.156	323.75
809.336	217.26
809.515	207.02
809.694	250.02
809.873	209.06
810.052	286.89
810.231	241.83
810.411	227.5
810.59	260.26
810.769	221.35
810.948	229.54
811.127	258.21
811.306	280.74
811.485	114.86
811.664	299.17
811.843	213.16
812.022	250.02
812.201	213.16
812.38	241.83
812.559	301.22
812.737	204.97
812.916	237.74
813.095	131.24
813.274	229.54
813.453	256.17
813.632	184.49
813.811	241.83
813.989	174.25
814.168	278.69
814.347	196.78
814.526	239.78
814.704	190.63
814.883	260.26
815.062	157.86
815.24	229.54
815.419	256.17
815.598	278.69
815.776	188.58
815.955	137.38
816.133	239.78
816.312	184.49
816.49	118.95
816.669	176.3
816.847	114.86
817.026	198.82
817.204	192.68
817.383	123.05
817.561	233.64
817.74	239.78
817.918	207.02
818.097	192.68
818.275	129.19
818.453	123.05
818.632	227.5
818.81	211.11
818.988	196.78
819.167	141.48
819.345	243.88
819.523	168.1
819.701	207.02
819.879	264.36
820.058	159.91
820.236	159.91
820.414	209.06
820.592	192.68
820.77	157.86
820.948	168.1
821.127	204.97
821.305	209.06
821.483	213.16
821.661	184.49
821.839	118.95
822.017	159.91
822.195	161.96
822.373	194.73
822.551	127.14
822.729	151.72
822.907	192.68
823.085	172.2
823.262	133.29
823.44	129.19
823.618	166.06
823.796	198.82
823.974	123.05
824.152	92.33
824.329	69.8
824.507	143.53
824.685	209.06
824.863	166.06
825.04	118.95
825.218	151.72
825.396	155.82
825.574	118.95
825.751	129.19
825.929	112.81
826.107	147.62
826.284	75.95
826.462	176.3
826.639	141.48
826.817	164.01
826.994	96.43
827.172	131.24
827.349	129.19
827.527	114.86
827.704	172.2
827.882	88.23
828.059	45.23
828.237	94.38
828.414	164.01
828.591	110.76
828.769	69.8
828.946	69.8
829.124	75.95
829.301	186.54
829.478	168.1
829.655	155.82
829.833	135.34
830.01	92.33
830.187	200.87
830.364	118.95
830.542	190.63
830.719	178.34
830.896	168.1
831.073	131.24
831.25	108.71
831.427	100.52
831.604	145.58
831.782	69.8
831.959	139.43
832.136	176.3
832.313	180.39
832.49	114.86
832.667	131.24
832.844	67.75
833.021	168.1
833.198	125.1
833.374	139.43
833.551	102.57
833.728	92.33
833.905	196.78
834.082	94.38
834.259	155.82
834.436	143.53
834.612	137.38
834.789	41.13
834.966	141.48
835.143	80.04
835.319	39.08
835.496	73.9
835.673	118.95
835.85	92.33
836.026	61.61
836.203	108.71
836.38	53.42
836.556	82.09
836.733	65.71
836.909	153.77
837.086	123.05
837.262	94.38
837.439	77.99
837.616	73.9
837.792	75.95
837.968	71.85
838.145	77.99
838.321	121
838.498	80.04
838.674	118.95
838.851	106.67
839.027	20.65
839.203	108.71
839.38	143.53
839.556	71.85
839.732	127.14
839.909	67.75
840.085	106.67
840.261	110.76
840.437	63.66
840.614	125.1
840.79	69.8
840.966	96.43
841.142	131.24
841.318	37.03
841.494	125.1
841.671	174.25
841.847	102.57
842.023	24.75
842.199	77.99
842.375	196.78
842.551	59.56
842.727	43.18
842.903	139.43
843.079	94.38
843.255	125.1
843.431	49.32
843.607	100.52
843.783	-10.07
843.959	57.51
844.134	94.38
844.31	168.1
844.486	102.57
844.662	51.37
844.838	47.27
845.013	94.38
845.189	116.9
845.365	43.18
845.541	86.19
845.716	80.04
845.892	118.95
846.068	6.31
846.244	55.47
846.419	63.66
846.595	92.33
846.77	63.66
846.946	65.71
847.122	-10.07
847.297	49.32
847.473	98.47
847.648	37.03
847.824	118.95
847.999	47.27
848.175	63.66
848.35	69.8
848.526	149.67
848.701	80.04
848.876	92.33
849.052	164.01
849.227	94.38
849.403	80.04
849.578	34.99
849.753	63.66
849.929	92.33
850.104	-3.93
850.279	22.7
850.454	57.51
850.63	118.95
850.805	61.61
850.98	94.38
851.155	61.61
851.33	90.28
851.505	-5.97
851.681	129.19
851.856	77.99
852.031	-10.07
852.206	57.51
852.381	53.42
852.556	69.8
852.731	77.99
852.906	10.41
853.081	137.38
853.256	16.55
853.431	61.61
853.606	45.23
853.781	96.43
853.956	-28.5
854.131	47.27
854.305	47.27
854.48	73.9
854.655	61.61
854.83	-1.88
855.005	55.47
855.18	49.32
855.354	2.22
855.529	96.43
855.704	-8.02
855.879	102.57
856.053	53.42
856.228	39.08
856.403	-10.07
856.577	94.38
856.752	28.84
856.926	51.37
857.101	100.52
857.276	34.99
857.45	34.99
857.625	32.94
857.799	63.66
857.974	106.67
858.148	43.18
858.323	0.17
858.497	18.6
858.672	24.75
858.846	84.14
859.02	-22.36
859.195	69.8
859.369	34.99
859.543	0.17
859.718	0.17
859.892	26.79
860.066	106.67
860.241	75.95
860.415	57.51
860.589	2.22
860.763	49.32
860.938	45.23
861.112	69.8
861.286	-14.17
861.46	71.85
861.634	14.51
861.808	59.56
861.982	26.79
862.157	20.65
862.331	45.23
862.505	4.27
862.679	45.23
862.853	84.14
863.027	-20.31
863.201	41.13
863.375	114.86
863.549	112.81
863.722	80.04
863.896	37.03
864.07	18.6
864.244	71.85
864.418	110.76
864.592	22.7
864.766	4.27
864.939	34.99
865.113	20.65
865.287	47.27
865.461	45.23
865.634	86.19
865.808	67.75
865.982	32.94
866.156	-55.12
866.329	53.42
866.503	-20.31
866.676	129.19
866.85	47.27
867.024	6.31
867.197	71.85
867.371	121
867.544	80.04
867.718	-36.69
867.891	57.51
868.065	-10.07
868.238	10.41
868.412	49.32
868.585	69.8
868.759	57.51
868.932	55.47
869.105	47.27
869.279	-16.21
869.452	-3.93
869.625	63.66
869.799	37.03
869.972	-3.93
870.145	-8.02
870.319	16.55
870.492	-42.84
870.665	116.9
870.838	-3.93
871.011	37.03
871.185	-12.12
871.358	-3.93
871.531	41.13
871.704	8.36
871.877	34.99
872.05	82.09
872.223	22.7
872.396	12.46
872.569	45.23
872.742	4.27
872.915	86.19
873.088	8.36
873.261	8.36
873.434	108.71
873.607	90.28
873.78	34.99
873.953	43.18
874.126	26.79
874.299	110.76
874.471	-12.12
874.644	49.32
874.817	20.65
874.99	71.85
875.163	18.6
875.335	26.79
875.508	61.61
875.681	55.47
875.853	41.13
876.026	-12.12
876.199	20.65
876.371	53.42
876.544	-3.93
876.717	24.75
876.889	-12.12
877.062	37.03
877.234	-51.03
877.407	-3.93
877.579	0.17
877.752	114.86
877.924	30.89
878.097	43.18
878.269	45.23
878.442	61.61
878.614	51.37
878.786	43.18
878.959	69.8
879.131	88.23
879.303	26.79
879.476	84.14
879.648	18.6
879.82	65.71
879.993	37.03
880.165	-1.88
880.337	32.94
880.509	20.65
880.681	-8.02
880.854	-5.97
881.026	45.23
881.198	41.13
881.37	-14.17
881.542	139.43
881.714	-24.4
881.886	63.66
882.058	14.51
882.23	12.46
882.402	41.13
882.574	-8.02
882.746	4.27
882.918	55.47
883.09	61.61
883.262	30.89
883.434	41.13
883.606	26.79
883.778	73.9
883.95	69.8
884.122	47.27
884.293	18.6
884.465	-12.12
884.637	26.79
884.809	88.23
884.98	18.6
885.152	43.18
885.324	16.55
885.496	63.66
885.667	20.65
885.839	-20.31
886.011	43.18
886.182	43.18
886.354	8.36
886.525	57.51
886.697	12.46
886.869	-32.6
887.04	-3.93
887.212	49.32
887.383	82.09
887.555	47.27
887.726	39.08
887.897	-24.4
888.069	39.08
888.24	30.89
888.412	28.84
888.583	-5.97
888.754	53.42
888.926	-12.12
889.097	12.46
889.268	-55.12
889.44	-36.69
889.611	-30.55
889.782	45.23
889.953	-8.02
890.125	16.55
890.296	88.23
890.467	51.37
890.638	43.18
890.809	28.84
890.98	-14.17
891.151	18.6
891.323	75.95
891.494	30.89
891.665	-26.45
891.836	4.27
892.007	-30.55
892.178	-5.97
892.349	-20.31
892.52	8.36
892.691	63.66
892.862	12.46
893.032	2.22
893.203	16.55
893.374	2.22
893.545	55.47
893.716	-53.08
893.887	84.14
894.057	-12.12
894.228	41.13
894.399	-8.02
894.57	43.18
894.74	47.27
894.911	24.75
895.082	10.41
895.253	4.27
895.423	39.08
895.594	63.66
895.764	45.23
895.935	-10.07
896.106	39.08
896.276	26.79
896.447	73.9
896.617	45.23
896.788	-1.88
896.958	51.37
897.129	-16.21
897.299	-1.88
897.47	8.36
897.64	116.9
897.81	-42.84
897.981	-34.64
898.151	49.32
898.322	30.89
898.492	-8.02
898.662	37.03
898.832	-59.22
899.003	34.99
899.173	-1.88
899.343	4.27
899.513	53.42
