Data from USB4F104151__290__10-42-28-031.txt Node

Date: Wed Mar 12 10:42:28 EDT 2025
User: louis
Spectrometer: USB4F10415
Trigger mode: 4
Integration Time (sec): 3.000000E-2
Scans to average: 1
Electric dark correction enabled: true
Nonlinearity correction enabled: false
Boxcar width: 0
XAxis mode: Wavelengths
Number of Pixels in Spectrum: 3648
>>>>>Begin Spectral Data<<<<<
178.204	-144.21
178.424	-144.21
178.644	-144.21
178.864	-152.4
179.084	-90.96
179.304	-13.14
179.524	83.11
179.744	-23.38
179.964	1.19
180.184	-19.29
180.404	13.48
180.624	46.25
180.844	-54.1
181.064	-23.38
181.283	52.39
181.503	-2.9
181.723	-60.24
181.943	21.67
182.163	29.87
182.383	21.67
182.602	9.39
182.822	87.21
183.042	23.72
183.262	-54.1
183.482	68.78
183.701	29.87
183.921	29.87
184.141	13.48
184.361	9.39
184.58	27.82
184.8	68.78
185.02	56.49
185.239	-13.14
185.459	81.07
185.679	25.77
185.898	-19.29
186.118	58.54
186.338	48.3
186.557	46.25
186.777	-13.14
186.997	17.58
187.216	-2.9
187.436	36.01
187.655	5.29
187.875	29.87
188.095	33.96
188.314	52.39
188.534	66.73
188.753	25.77
188.973	-4.95
189.192	72.87
189.412	56.49
189.631	62.63
189.851	58.54
190.07	74.92
190.29	-27.48
190.509	-27.48
190.729	-23.38
190.948	109.74
191.168	177.32
191.387	62.63
191.607	5.29
191.826	60.59
192.045	-11.09
192.265	-2.9
192.484	13.48
192.704	46.25
192.923	-11.09
193.142	29.87
193.362	97.45
193.581	25.77
193.8	48.3
194.02	81.07
194.239	52.39
194.458	50.35
194.678	15.53
194.897	19.63
195.116	83.11
195.335	-11.09
195.555	-60.24
195.774	-2.9
195.993	38.06
196.212	42.15
196.432	-7
196.651	117.93
196.87	19.63
197.089	62.63
197.308	1.19
197.528	21.67
197.747	50.35
197.966	-9.05
198.185	93.35
198.404	-4.95
198.623	107.69
198.842	23.72
199.062	66.73
199.281	31.91
199.5	-2.9
199.719	5.29
199.938	62.63
200.157	54.44
200.376	36.01
200.595	19.63
200.814	23.72
201.033	93.35
201.252	93.35
201.471	25.77
201.69	91.31
201.909	50.35
202.128	42.15
202.347	-2.9
202.566	-58.2
202.785	5.29
203.004	38.06
203.223	74.92
203.442	68.78
203.661	70.83
203.879	13.48
204.098	52.39
204.317	36.01
204.536	29.87
204.755	64.68
204.974	46.25
205.193	52.39
205.411	91.31
205.63	19.63
205.849	83.11
206.068	44.2
206.287	42.15
206.505	-0.85
206.724	50.35
206.943	54.44
207.162	79.02
207.381	-15.19
207.599	81.07
207.818	23.72
208.037	1.19
208.255	-0.85
208.474	-56.15
208.693	60.59
208.911	52.39
209.13	95.4
209.349	72.87
209.567	13.48
209.786	89.26
210.005	21.67
210.223	-11.09
210.442	42.15
210.661	81.07
210.879	15.53
211.098	42.15
211.316	-25.43
211.535	101.55
211.753	7.34
211.972	17.58
212.191	25.77
212.409	15.53
212.628	46.25
212.846	11.43
213.065	58.54
213.283	146.6
213.502	-11.09
213.72	48.3
213.938	11.43
214.157	40.11
214.375	64.68
214.594	46.25
214.812	74.92
215.031	56.49
215.249	-4.95
215.467	-11.09
215.686	25.77
215.904	-37.72
216.122	76.97
216.341	58.54
216.559	-11.09
216.778	40.11
216.996	33.96
217.214	50.35
217.432	-21.33
217.651	-35.67
217.869	56.49
218.087	11.43
218.306	23.72
218.524	1.19
218.742	-2.9
218.96	33.96
219.179	19.63
219.397	52.39
219.615	54.44
219.833	25.77
220.051	19.63
220.27	42.15
220.488	74.92
220.706	58.54
220.924	-2.9
221.142	40.11
221.36	66.73
221.578	-15.19
221.796	15.53
222.015	17.58
222.233	19.63
222.451	46.25
222.669	-2.9
222.887	70.83
223.105	-0.85
223.323	27.82
223.541	-52.05
223.759	54.44
223.977	27.82
224.195	50.35
224.413	-15.19
224.631	17.58
224.849	54.44
225.067	54.44
225.285	-21.33
225.503	23.72
225.721	-43.86
225.939	36.01
226.157	89.26
226.375	74.92
226.592	40.11
226.81	7.34
227.028	89.26
227.246	36.01
227.464	56.49
227.682	50.35
227.9	54.44
228.117	113.83
228.335	-15.19
228.553	50.35
228.771	-19.29
228.989	1.19
229.206	38.06
229.424	40.11
229.642	31.91
229.86	-29.52
230.077	38.06
230.295	7.34
230.513	85.16
230.731	17.58
230.948	79.02
231.166	60.59
231.384	-56.15
231.601	9.39
231.819	152.74
232.037	31.91
232.254	-41.81
232.472	48.3
232.689	13.48
232.907	56.49
233.125	36.01
233.342	64.68
233.56	11.43
233.777	-23.38
233.995	29.87
234.213	27.82
234.43	99.5
234.648	33.96
234.865	46.25
235.083	68.78
235.3	99.5
235.518	17.58
235.735	83.11
235.953	38.06
236.17	5.29
236.388	-13.14
236.605	76.97
236.822	9.39
237.04	62.63
237.257	95.4
237.475	29.87
237.692	48.3
237.909	46.25
238.127	9.39
238.344	13.48
238.562	68.78
238.779	-39.76
238.996	-52.05
239.214	56.49
239.431	87.21
239.648	-15.19
239.865	23.72
240.083	27.82
240.3	-27.48
240.517	-37.72
240.735	3.24
240.952	36.01
241.169	40.11
241.386	124.07
241.603	25.77
241.821	19.63
242.038	42.15
242.255	52.39
242.472	62.63
242.689	42.15
242.907	54.44
243.124	27.82
243.341	-2.9
243.558	27.82
243.775	-99.16
243.992	-56.15
244.209	36.01
244.426	74.92
244.643	60.59
244.86	11.43
245.078	-11.09
245.295	13.48
245.512	46.25
245.729	11.43
245.946	42.15
246.163	50.35
246.38	13.48
246.597	72.87
246.814	31.91
247.031	21.67
247.248	-23.38
247.464	79.02
247.681	-13.14
247.898	107.69
248.115	64.68
248.332	5.29
248.549	81.07
248.766	44.2
248.983	38.06
249.2	44.2
249.417	79.02
249.633	-13.14
249.85	42.15
250.067	-29.52
250.284	44.2
250.501	103.59
250.717	79.02
250.934	89.26
251.151	15.53
251.368	58.54
251.585	46.25
251.801	50.35
252.018	48.3
252.235	9.39
252.451	27.82
252.668	-33.62
252.885	-25.43
253.102	-2.9
253.318	46.25
253.535	-11.09
253.752	-0.85
253.968	101.55
254.185	-43.86
254.401	9.39
254.618	74.92
254.835	-41.81
255.051	117.93
255.268	44.2
255.484	62.63
255.701	87.21
255.917	72.87
256.134	3.24
256.351	68.78
256.567	11.43
256.784	54.44
257	29.87
257.217	54.44
257.433	83.11
257.65	101.55
257.866	74.92
258.082	17.58
258.299	58.54
258.515	-2.9
258.732	36.01
258.948	-31.57
259.165	13.48
259.381	17.58
259.597	-9.05
259.814	-33.62
260.03	17.58
260.246	15.53
260.463	44.2
260.679	25.77
260.895	62.63
261.112	-11.09
261.328	21.67
261.544	25.77
261.761	87.21
261.977	31.91
262.193	9.39
262.409	70.83
262.626	31.91
262.842	89.26
263.058	-13.14
263.274	42.15
263.49	68.78
263.707	13.48
263.923	101.55
264.139	-4.95
264.355	72.87
264.571	76.97
264.787	17.58
265.004	54.44
265.22	38.06
265.436	-2.9
265.652	105.64
265.868	50.35
266.084	-43.86
266.3	44.2
266.516	3.24
266.732	70.83
266.948	44.2
267.164	58.54
267.38	27.82
267.596	156.84
267.812	83.11
268.028	31.91
268.244	72.87
268.46	3.24
268.676	21.67
268.892	117.93
269.108	5.29
269.324	15.53
269.54	-35.67
269.756	38.06
269.972	-7
270.188	9.39
270.403	27.82
270.619	9.39
270.835	87.21
271.051	-23.38
271.267	7.34
271.483	19.63
271.698	52.39
271.914	66.73
272.13	-7
272.346	27.82
272.562	44.2
272.777	91.31
272.993	-45.91
273.209	119.98
273.425	42.15
273.64	13.48
273.856	-7
274.072	5.29
274.287	50.35
274.503	48.3
274.719	48.3
274.934	15.53
275.15	15.53
275.366	31.91
275.581	-84.82
275.797	58.54
276.012	87.21
276.228	50.35
276.444	-7
276.659	70.83
276.875	46.25
277.09	-2.9
277.306	48.3
277.521	52.39
277.737	70.83
277.952	62.63
278.168	62.63
278.383	56.49
278.599	42.15
278.814	15.53
279.03	17.58
279.245	74.92
279.461	-21.33
279.676	38.06
279.892	-29.52
280.107	-7
280.322	-4.95
280.538	33.96
280.753	52.39
280.969	44.2
281.184	-47.96
281.399	27.82
281.615	31.91
281.83	3.24
282.045	56.49
282.26	60.59
282.476	-17.24
282.691	58.54
282.906	-25.43
283.122	15.53
283.337	-72.53
283.552	52.39
283.767	27.82
283.983	72.87
284.198	3.24
284.413	-4.95
284.628	-35.67
284.843	76.97
285.058	85.16
285.274	17.58
285.489	-13.14
285.704	79.02
285.919	54.44
286.134	5.29
286.349	9.39
286.564	21.67
286.779	111.78
286.995	-11.09
287.21	-13.14
287.425	54.44
287.64	7.34
287.855	115.88
288.07	62.63
288.285	38.06
288.5	25.77
288.715	1.19
288.93	38.06
289.145	40.11
289.36	-7
289.575	25.77
289.79	142.5
290.004	-15.19
290.219	60.59
290.434	-7
290.649	13.48
290.864	58.54
291.079	-25.43
291.294	91.31
291.509	70.83
291.724	36.01
291.938	64.68
292.153	54.44
292.368	-33.62
292.583	-21.33
292.798	46.25
293.012	85.16
293.227	36.01
293.442	13.48
293.657	140.46
293.871	79.02
294.086	-15.19
294.301	91.31
294.516	-2.9
294.73	-31.57
294.945	-0.85
295.16	9.39
295.374	58.54
295.589	91.31
295.804	-23.38
296.018	50.35
296.233	60.59
296.447	3.24
296.662	19.63
296.877	25.77
297.091	29.87
297.306	70.83
297.52	31.91
297.735	52.39
297.949	31.91
298.164	58.54
298.378	-13.14
298.593	-4.95
298.807	29.87
299.022	-21.33
299.236	130.22
299.451	-13.14
299.665	-29.52
299.88	21.67
300.094	91.31
300.309	19.63
300.523	107.69
300.737	-43.86
300.952	42.15
301.166	13.48
301.381	29.87
301.595	76.97
301.809	-52.05
302.024	60.59
302.238	-11.09
302.452	74.92
302.667	50.35
302.881	126.12
303.095	40.11
303.309	46.25
303.524	9.39
303.738	52.39
303.952	-21.33
304.166	3.24
304.381	-105.3
304.595	95.4
304.809	48.3
305.023	23.72
305.237	33.96
305.452	-7
305.666	52.39
305.88	58.54
306.094	62.63
306.308	44.2
306.522	103.59
306.736	60.59
306.95	25.77
307.164	38.06
307.379	27.82
307.593	74.92
307.807	74.92
308.021	44.2
308.235	25.77
308.449	72.87
308.663	56.49
308.877	60.59
309.091	5.29
309.305	89.26
309.519	-27.48
309.733	76.97
309.947	-13.14
310.161	107.69
310.374	74.92
310.588	140.46
310.802	-27.48
311.016	38.06
311.23	62.63
311.444	-39.76
311.658	33.96
311.872	146.6
312.085	83.11
312.299	93.35
312.513	13.48
312.727	11.43
312.941	21.67
313.154	93.35
313.368	-23.38
313.582	-19.29
313.796	44.2
314.009	-50
314.223	38.06
314.437	31.91
314.651	25.77
314.864	48.3
315.078	62.63
315.292	-19.29
315.505	-13.14
315.719	13.48
315.933	62.63
316.146	-70.48
316.36	-39.76
316.573	148.65
316.787	83.11
317.001	-25.43
317.214	52.39
317.428	181.42
317.641	-4.95
317.855	-11.09
318.068	15.53
318.282	119.98
318.495	64.68
318.709	44.2
318.922	64.68
319.136	95.4
319.349	29.87
319.563	42.15
319.776	72.87
319.99	124.07
320.203	38.06
320.417	25.77
320.63	44.2
320.843	97.45
321.057	-7
321.27	64.68
321.483	13.48
321.697	87.21
321.91	25.77
322.124	27.82
322.337	-62.29
322.55	13.48
322.763	52.39
322.977	83.11
323.19	58.54
323.403	66.73
323.617	40.11
323.83	50.35
324.043	38.06
324.256	13.48
324.469	-11.09
324.683	103.59
324.896	1.19
325.109	58.54
325.322	11.43
325.535	58.54
325.748	-7
325.962	89.26
326.175	68.78
326.388	-17.24
326.601	54.44
326.814	38.06
327.027	66.73
327.24	33.96
327.453	46.25
327.666	42.15
327.879	103.59
328.092	68.78
328.305	29.87
328.518	-17.24
328.731	33.96
328.944	9.39
329.157	72.87
329.37	50.35
329.583	29.87
329.796	3.24
330.009	60.59
330.222	13.48
330.435	-0.85
330.648	74.92
330.861	113.83
331.073	52.39
331.286	25.77
331.499	1.19
331.712	89.26
331.925	-11.09
332.138	76.97
332.35	36.01
332.563	68.78
332.776	25.77
332.989	29.87
333.202	-19.29
333.414	36.01
333.627	1.19
333.84	1.19
334.053	66.73
334.265	-2.9
334.478	36.01
334.691	66.73
334.903	23.72
335.116	42.15
335.329	27.82
335.541	38.06
335.754	119.98
335.966	1.19
336.179	97.45
336.392	83.11
336.604	91.31
336.817	11.43
337.029	42.15
337.242	-2.9
337.454	44.2
337.667	9.39
337.88	179.37
338.092	38.06
338.305	5.29
338.517	74.92
338.729	72.87
338.942	103.59
339.154	27.82
339.367	44.2
339.579	50.35
339.792	-11.09
340.004	13.48
340.217	107.69
340.429	9.39
340.641	9.39
340.854	13.48
341.066	95.4
341.278	52.39
341.491	132.26
341.703	72.87
341.915	-56.15
342.128	74.92
342.34	101.55
342.552	25.77
342.764	115.88
342.977	52.39
343.189	36.01
343.401	50.35
343.613	-41.81
343.826	-33.62
344.038	33.96
344.25	40.11
344.462	5.29
344.674	31.91
344.886	25.77
345.099	40.11
345.311	79.02
345.523	-21.33
345.735	5.29
345.947	36.01
346.159	62.63
346.371	5.29
346.583	42.15
346.795	52.39
347.007	-13.14
347.219	42.15
347.431	50.35
347.643	76.97
347.855	113.83
348.067	50.35
348.279	-13.14
348.491	33.96
348.703	25.77
348.915	79.02
349.127	64.68
349.339	42.15
349.551	13.48
349.763	62.63
349.975	-35.67
350.187	142.5
350.399	5.29
350.61	115.88
350.822	54.44
351.034	19.63
351.246	70.83
351.458	93.35
351.669	42.15
351.881	66.73
352.093	68.78
352.305	64.68
352.517	115.88
352.728	36.01
352.94	42.15
353.152	52.39
353.363	-13.14
353.575	54.44
353.787	134.31
353.999	-0.85
354.21	74.92
354.422	38.06
354.633	-7
354.845	54.44
355.057	-2.9
355.268	72.87
355.48	38.06
355.692	62.63
355.903	68.78
356.115	11.43
356.326	-17.24
356.538	62.63
356.749	122.02
356.961	54.44
357.172	111.78
357.384	13.48
357.595	132.26
357.807	27.82
358.018	21.67
358.23	144.55
358.441	99.5
358.653	9.39
358.864	93.35
359.075	103.59
359.287	62.63
359.498	66.73
359.709	58.54
359.921	74.92
360.132	23.72
360.344	21.67
360.555	91.31
360.766	25.77
360.977	46.25
361.189	58.54
361.4	-4.95
361.611	173.22
361.823	54.44
362.034	68.78
362.245	60.59
362.456	81.07
362.667	60.59
362.879	9.39
363.09	-27.48
363.301	-2.9
363.512	64.68
363.723	-39.76
363.935	70.83
364.146	76.97
364.357	-23.38
364.568	70.83
364.779	-41.81
364.99	99.5
365.201	70.83
365.412	1.19
365.623	25.77
365.834	99.5
366.045	89.26
366.256	99.5
366.467	27.82
366.678	3.24
366.889	44.2
367.1	-17.24
367.311	40.11
367.522	19.63
367.733	72.87
367.944	9.39
368.155	38.06
368.366	64.68
368.577	38.06
368.788	138.41
368.999	-31.57
369.209	54.44
369.42	79.02
369.631	105.64
369.842	70.83
370.053	13.48
370.264	19.63
370.474	66.73
370.685	38.06
370.896	21.67
371.107	85.16
371.317	68.78
371.528	23.72
371.739	101.55
371.95	48.3
372.16	13.48
372.371	11.43
372.582	79.02
372.792	113.83
373.003	132.26
373.214	38.06
373.424	-27.48
373.635	38.06
373.846	107.69
374.056	38.06
374.267	5.29
374.477	79.02
374.688	76.97
374.898	66.73
375.109	9.39
375.319	31.91
375.53	50.35
375.74	66.73
375.951	-9.05
376.161	54.44
376.372	138.41
376.582	58.54
376.793	44.2
377.003	46.25
377.214	126.12
377.424	115.88
377.635	25.77
377.845	33.96
378.055	13.48
378.266	-4.95
378.476	87.21
378.686	99.5
378.897	107.69
379.107	31.91
379.317	33.96
379.528	76.97
379.738	122.02
379.948	38.06
380.158	97.45
380.369	-23.38
380.579	38.06
380.789	11.43
380.999	74.92
381.21	40.11
381.42	109.74
381.63	54.44
381.84	62.63
382.05	60.59
382.261	54.44
382.471	103.59
382.681	91.31
382.891	36.01
383.101	72.87
383.311	97.45
383.521	36.01
383.731	36.01
383.941	68.78
384.151	62.63
384.361	105.64
384.571	128.17
384.781	64.68
384.991	76.97
385.201	87.21
385.411	85.16
385.621	107.69
385.831	38.06
386.041	60.59
386.251	58.54
386.461	113.83
386.671	99.5
386.881	50.35
387.091	21.67
387.301	46.25
387.511	60.59
387.72	36.01
387.93	89.26
388.14	33.96
388.35	40.11
388.56	29.87
388.769	54.44
388.979	29.87
389.189	93.35
389.399	3.24
389.609	38.06
389.818	160.94
390.028	40.11
390.238	113.83
390.447	56.49
390.657	119.98
390.867	74.92
391.076	40.11
391.286	74.92
391.496	48.3
391.705	79.02
391.915	91.31
392.125	62.63
392.334	33.96
392.544	111.78
392.753	36.01
392.963	76.97
393.172	23.72
393.382	83.11
393.591	99.5
393.801	62.63
394.01	128.17
394.22	99.5
394.429	74.92
394.639	97.45
394.848	54.44
395.058	105.64
395.267	46.25
395.477	81.07
395.686	144.55
395.895	130.22
396.105	146.6
396.314	87.21
396.524	142.5
396.733	103.59
396.942	76.97
397.152	165.03
397.361	191.66
397.57	117.93
397.78	68.78
397.989	117.93
398.198	128.17
398.407	126.12
398.617	122.02
398.826	136.36
399.035	58.54
399.244	128.17
399.453	144.55
399.663	138.41
399.872	138.41
400.081	70.83
400.29	124.07
400.499	54.44
400.708	122.02
400.917	95.4
401.127	185.51
401.336	87.21
401.545	144.55
401.754	244.9
401.963	132.26
402.172	150.7
402.381	99.5
402.59	128.17
402.799	132.26
403.008	189.61
403.217	150.7
403.426	146.6
403.635	85.16
403.844	152.74
404.053	156.84
404.262	171.18
404.471	183.46
404.68	199.85
404.888	122.02
405.097	79.02
405.306	201.9
405.515	185.51
405.724	160.94
405.933	165.03
406.142	177.32
406.35	214.18
406.559	181.42
406.768	187.56
406.977	279.72
407.185	265.38
407.394	201.9
407.603	263.33
407.812	214.18
408.02	349.35
408.229	228.52
408.438	257.19
408.646	232.62
408.855	181.42
409.064	351.4
409.272	312.49
409.481	275.62
409.69	308.39
409.898	300.2
410.107	347.3
410.315	402.6
410.524	394.4
410.733	429.22
410.941	349.35
411.15	521.38
411.358	480.42
411.567	402.6
411.775	482.47
411.984	504.99
412.192	451.75
412.401	539.81
412.609	461.99
412.818	535.71
413.026	545.95
413.234	500.9
413.443	580.77
413.651	560.29
413.86	656.54
414.068	652.45
414.276	656.54
414.485	638.11
414.693	754.85
414.901	713.89
415.11	746.66
415.318	763.04
415.526	887.97
415.734	887.97
415.943	887.97
416.151	965.79
416.359	953.5
416.567	1006.75
416.776	875.68
416.984	1027.23
417.192	1094.81
417.4	1115.29
417.608	1062.04
417.817	1178.78
418.025	1156.25
418.233	1295.51
418.441	1264.79
418.649	1356.95
418.857	1377.43
419.065	1332.37
419.273	1391.77
419.481	1524.88
419.689	1594.51
419.897	1703.06
420.105	1717.39
420.313	1746.06
420.521	1787.02
420.729	1764.5
420.937	1926.29
421.145	1942.67
421.353	2077.83
421.561	2231.43
421.769	2137.23
421.977	2286.73
422.185	2251.91
422.393	2258.06
422.601	2520.2
422.809	2559.11
423.017	2546.82
423.224	2794.62
423.432	2737.28
423.64	2724.99
423.848	3054.72
424.056	2950.27
424.263	3265.66
424.471	3224.7
424.679	3288.18
424.887	3425.4
425.094	3564.66
425.302	3548.28
425.51	3648.63
425.718	3751.03
425.925	3841.14
426.133	3949.68
426.341	4213.87
426.548	4349.03
426.756	4365.42
426.964	4455.53
427.171	4772.96
427.379	4770.91
427.586	4793.44
427.794	5078.11
428.001	5127.26
428.209	5540.95
428.417	5475.42
428.624	5831.76
428.832	5768.27
429.039	5667.92
429.247	5835.86
429.454	6110.29
429.662	6616.13
429.869	6188.11
430.076	6603.85
430.284	6507.59
430.491	6949.95
430.699	7128.13
430.906	7048.26
431.114	7218.24
431.321	7498.81
431.528	7623.73
431.736	8088.62
431.943	8571.94
432.15	8274.99
432.358	8287.28
432.565	8760.36
432.772	8739.88
432.979	9290.78
433.187	9466.91
433.394	9434.14
433.601	9999.38
433.808	10157.07
434.016	10009.62
434.223	10462.22
434.43	11164.67
434.637	11000.83
434.844	11351.04
435.052	11873.27
435.259	11471.87
435.466	11701.24
435.673	11658.23
435.88	12393.45
436.087	13102.05
436.294	13028.32
436.501	12792.81
436.708	12995.56
436.915	13472.73
437.122	14242.77
437.329	13923.29
437.537	14267.34
437.743	14910.41
437.95	14605.26
438.157	15369.15
438.364	15756.22
438.571	15829.95
438.778	16028.6
438.985	17603.49
439.192	16784.3
439.399	17540
439.606	16782.25
439.813	17832.86
440.02	18865.03
440.227	18602.89
440.433	18486.16
440.64	19108.74
440.847	18785.16
441.054	19518.34
441.261	20536.18
441.467	20347.76
441.674	21050.22
441.881	21506.91
442.088	21255.01
442.294	21328.74
442.501	22160.22
442.708	22426.45
442.914	23010.12
443.121	24138.55
443.328	23452.48
443.534	25107.24
443.741	24376.12
443.948	24255.29
444.154	25899.81
444.361	25752.35
444.568	25731.87
444.774	26346.26
444.981	26139.42
445.187	26778.39
445.394	28048.13
445.6	27947.78
445.807	30431.96
446.013	29338.35
446.22	29612.77
446.426	30903
446.633	30907.09
446.839	32058.05
447.046	30917.33
447.252	32694.97
447.459	32455.36
447.665	32281.28
447.871	33786.54
448.078	34929.3
448.284	33526.44
448.491	34564.76
448.697	35582.6
448.903	36395.65
449.11	36463.23
449.316	35598.99
449.522	36240
449.728	37595.76
449.935	37595.76
450.141	37403.25
450.347	38355.55
450.553	37030.52
450.76	37661.29
450.966	38535.77
451.172	38273.63
451.378	39180.88
451.584	38505.06
451.791	39424.59
451.997	38716
452.203	39772.75
452.409	39926.35
452.615	39127.64
452.821	38177.38
453.027	37622.38
453.233	39744.08
453.44	37698.16
453.646	38500.96
453.852	38935.13
454.058	39119.45
454.264	37659.24
454.47	38804.06
454.676	37536.37
454.882	39076.44
455.088	35539.6
455.294	36059.78
455.5	36465.28
455.705	37022.33
455.911	35162.77
456.117	34413.21
456.323	33708.71
456.529	32297.66
456.735	33661.61
456.941	32766.65
457.147	32406.2
457.352	31242.96
457.558	31218.38
457.764	31070.93
457.97	30161.63
458.176	29960.93
458.381	29909.73
458.587	28465.91
458.793	28177.15
458.999	27063.05
459.204	28488.44
459.41	28003.07
459.616	26133.28
459.821	25975.58
460.027	25783.07
460.233	25393.96
460.438	24073.02
460.644	24464.18
460.85	23384.9
461.055	22920.01
461.261	22598.48
461.466	21037.93
461.672	20665.2
461.878	21853.02
462.083	20855.66
462.289	20364.15
462.494	19925.88
462.7	19209.09
462.905	18516.88
463.111	19299.2
463.316	19573.63
463.522	19035.02
463.727	19196.81
463.932	19016.58
464.138	18822.03
464.343	18869.13
464.549	18398.1
464.754	19104.65
464.959	18957.19
465.165	18750.35
465.37	17990.55
465.575	17400.74
465.781	17998.74
465.986	18164.63
466.191	17525.66
466.397	17363.87
466.602	16397.23
466.807	17017.77
467.012	17093.54
467.218	16866.22
467.423	16907.18
467.628	16741.29
467.833	17550.24
468.038	17052.58
468.244	16372.66
468.449	16952.23
468.654	16579.5
468.859	16409.52
469.064	16307.12
469.269	16042.93
469.474	15623.1
469.679	16069.56
469.885	15414.21
470.09	15891.38
470.295	15606.72
470.5	15553.47
470.705	15475.65
470.91	15023.05
471.115	15016.9
471.32	14928.84
471.525	15158.21
471.73	14439.37
471.935	14711.75
472.139	14238.67
472.344	14306.26
472.549	14029.78
472.754	13835.22
472.959	13915.09
473.164	13433.82
473.369	13181.92
473.574	13775.83
473.778	13601.76
473.983	13411.29
474.188	13259.74
474.393	12813.29
474.598	12817.38
474.802	12598.25
475.007	12559.34
475.212	12401.65
475.417	12282.86
475.621	12319.73
475.826	12422.13
476.031	12067.83
476.235	11691
476.44	11899.89
476.645	11678.71
476.849	11707.38
477.054	11664.38
477.259	11445.24
477.463	11119.62
477.668	11054.08
477.872	11293.69
478.077	10978.31
478.282	10812.42
478.486	10568.71
478.691	10664.97
478.895	10642.44
479.1	10697.74
479.304	10718.22
479.509	10257.42
479.713	10335.24
479.918	10150.93
480.122	10155.02
480.326	10277.9
480.531	10357.77
480.735	10132.5
480.94	9907.22
481.144	10519.56
481.348	9921.56
481.553	9862.16
481.757	9835.54
481.961	10013.71
482.166	10226.7
482.37	9931.8
482.574	9741.33
482.778	9948.18
482.983	10210.32
483.187	9784.34
483.391	10011.67
483.595	9919.51
483.8	9804.82
484.004	9896.98
484.208	9905.17
484.412	9880.6
484.616	9874.45
484.821	10023.95
485.025	9737.24
485.229	9964.56
485.433	9782.29
485.637	9960.47
485.841	10015.76
486.045	9788.44
486.249	9946.13
486.453	9694.23
486.657	9835.54
486.861	9888.79
487.065	9534.49
487.269	9767.96
487.473	9665.56
487.677	9913.36
487.881	10116.11
488.085	9704.47
488.289	9817.11
488.493	9810.96
488.697	9823.25
488.901	9843.73
489.105	9643.03
489.309	9761.81
489.512	10050.58
489.716	9673.75
489.92	9825.3
490.124	9864.21
490.328	10146.83
490.531	10062.87
490.735	9960.47
490.939	10144.78
491.143	9954.32
491.346	9899.03
491.55	9980.95
491.754	10208.27
491.958	10353.68
492.161	10275.85
492.365	10226.7
492.569	9980.95
492.772	10365.96
492.976	10462.22
493.18	10509.32
493.383	10505.23
493.587	10435.6
493.79	10589.19
493.994	10615.82
494.197	10753.03
494.401	10910.72
494.605	10826.76
494.808	11072.51
495.012	10984.45
495.215	11148.29
495.419	11197.44
495.622	11207.68
495.825	11146.24
496.029	11482.11
496.232	11508.73
496.436	11590.65
496.639	11828.21
496.843	11742.2
497.046	12098.55
497.249	12399.6
497.453	12129.27
497.656	12200.94
497.859	12338.16
498.063	12409.84
498.266	12667.88
498.469	12930.02
498.673	12942.31
498.876	13282.27
499.079	13093.86
499.282	13120.48
499.485	13446.11
499.689	13528.03
499.892	13788.12
500.095	13763.54
500.298	14044.12
500.501	13984.73
500.705	14398.41
500.908	14451.66
501.111	14623.69
501.314	14797.77
501.517	14930.89
501.72	15064
501.923	15152.07
502.126	15543.23
502.329	15504.32
502.532	15791.03
502.735	16014.26
502.938	16061.37
503.141	16477.1
503.344	16536.49
503.547	16657.32
503.75	16708.52
503.953	16810.92
504.156	17206.18
504.359	17400.74
504.562	17611.68
504.765	17580.96
504.968	18113.43
505.17	18074.52
505.373	18039.7
505.576	18455.44
505.779	18619.28
505.982	18695.05
506.185	19362.69
506.387	19297.16
506.59	19659.65
506.793	19907.45
506.996	19757.95
507.198	20171.64
507.401	20116.34
507.604	20345.72
507.807	20806.51
508.009	20702.06
508.212	21009.26
508.415	21406.56
508.617	21803.87
508.82	21734.24
509.022	21787.49
509.225	22012.76
509.428	22221.66
509.63	22778.7
509.833	22874.96
510.035	23444.29
510.238	23194.44
510.44	23206.73
510.643	23651.14
510.845	24036.16
511.048	23900.99
511.25	24425.27
511.453	24556.34
511.655	25291.56
511.858	24853.3
512.06	25488.17
512.262	25604.9
512.465	25551.65
512.667	26051.36
512.87	26217.24
513.072	26319.64
513.274	26606.36
513.477	26999.57
513.679	27147.02
513.881	27734.79
514.084	28144.38
514.286	27706.12
514.488	28084.99
514.69	28996.34
514.893	29166.32
515.095	28766.96
515.297	29569.77
515.499	29254.38
515.701	29795.04
515.904	30270.17
516.106	30526.17
516.308	30669.53
516.51	30931.67
516.712	31122.13
516.914	31781.57
517.116	32045.76
517.318	32092.86
517.52	32064.19
517.722	32451.26
517.925	32893.62
518.127	33258.16
518.329	33446.57
518.531	33483.44
518.733	34235.04
518.935	34294.43
519.136	34081.44
519.338	34591.39
519.54	34695.83
519.742	35252.88
519.944	35132.05
520.146	36348.54
520.348	36346.5
520.55	36285.06
520.752	36428.41
520.954	37028.47
521.155	36967.03
521.357	37354.1
521.559	37825.13
521.761	38521.44
521.963	38138.47
522.164	38373.99
522.366	38824.54
522.568	38986.33
522.77	39117.4
522.971	39934.54
523.173	38939.22
523.375	39692.88
523.576	39899.72
523.778	40583.74
523.98	40745.53
524.181	40745.53
524.383	40723.01
524.584	41413.17
524.786	41194.04
524.988	41503.28
525.189	41841.2
525.391	42099.24
525.592	42166.82
525.794	42650.14
525.995	42222.12
526.197	42433.06
526.398	42277.41
526.6	43076.12
526.801	43145.75
527.003	43442.71
527.204	43221.53
527.406	44157.45
527.607	43620.88
527.808	44409.35
528.01	43614.74
528.211	43971.08
528.412	44622.34
528.614	44655.11
528.815	44935.68
529.016	45163
529.218	44720.64
529.419	45005.31
529.62	44995.07
529.822	44923.39
530.023	45744.62
530.224	45279.74
530.425	45242.87
530.626	45406.71
530.828	44712.45
531.029	45926.89
531.23	45705.71
531.431	45732.34
531.632	45873.65
531.833	45793.78
532.035	45885.93
532.236	46377.45
532.437	46062.06
532.638	45990.38
532.839	46111.21
533.04	46285.29
533.241	45906.41
533.442	47147.48
533.643	46428.65
533.844	46324.2
534.045	47104.48
534.246	46096.88
534.447	46572
534.648	46463.46
534.849	46166.51
535.05	46080.49
535.251	46197.23
535.451	46201.32
535.652	46383.59
535.853	46266.86
536.054	46537.19
536.255	46782.94
536.456	46418.41
536.657	47329.75
536.857	46545.38
537.058	46203.37
537.259	46797.28
537.46	46625.25
537.66	46666.21
537.861	46938.59
538.062	46590.44
538.263	46623.2
538.463	46522.85
538.664	46522.85
538.865	46610.92
539.065	46694.88
539.266	46291.43
539.466	47188.44
539.667	46381.54
539.868	47122.91
540.068	46592.48
540.269	46791.14
540.469	46952.93
540.67	46701.03
540.87	46588.39
541.071	46451.17
541.271	46797.28
541.472	46627.3
541.672	46045.68
541.873	46504.42
542.073	45943.28
542.274	46678.5
542.474	46297.58
542.675	45965.81
542.875	47065.56
543.075	46246.38
543.276	46055.92
543.476	46891.49
543.676	46283.24
543.877	46451.17
544.077	46193.13
544.277	46764.51
544.478	46488.04
544.678	47016.41
544.878	46098.92
545.078	46045.68
545.279	45996.52
545.479	46010.86
545.679	46440.93
545.879	46608.87
546.079	46416.36
546.28	46578.15
546.48	45939.18
546.68	45916.65
546.88	46457.32
547.08	46356.97
547.28	46135.79
547.48	45873.65
547.68	46410.21
547.88	45316.6
548.081	45906.41
548.281	46447.08
548.481	46062.06
548.681	46551.52
548.881	46289.38
549.081	46107.12
549.28	45568.5
549.48	46268.9
549.68	46062.06
549.88	46547.43
550.08	46006.76
550.28	45996.52
550.48	45853.17
550.68	46297.58
550.88	46115.31
551.08	45472.24
551.279	45744.62
551.479	45752.82
551.679	46107.12
551.879	45992.43
552.079	46008.81
552.278	45732.34
552.478	45840.88
552.678	45697.52
552.878	46006.76
553.077	45670.9
553.277	45398.52
553.477	46031.34
553.676	45396.47
553.876	45685.23
554.076	45556.21
554.275	45914.61
554.475	45160.95
554.674	45310.46
554.874	45384.18
555.074	45210.1
555.273	45314.55
555.473	45263.35
555.672	45007.36
555.872	45332.98
556.071	45431.29
556.271	45529.59
556.47	45347.32
556.67	45070.84
556.869	45033.98
557.068	45244.92
557.268	44597.76
557.467	44546.56
557.667	44521.99
557.866	44966.4
558.065	44616.19
558.265	44364.29
558.464	44399.11
558.663	45267.45
558.863	43754
559.062	44939.77
559.261	44108.3
559.461	44435.97
559.66	43645.46
559.859	44001.8
560.058	44085.77
560.258	43995.66
560.457	43805.2
560.656	44259.85
560.855	43268.63
561.054	43991.56
561.253	43672.08
561.453	43549.2
561.652	43424.28
561.851	44179.98
562.05	43383.32
562.249	43160.09
562.448	43422.23
562.647	43080.22
562.846	42910.24
563.045	43061.79
563.244	42533.41
563.443	43084.31
563.642	42256.93
563.841	42658.34
564.04	42398.24
564.239	42928.67
564.438	42373.67
564.637	42306.09
564.836	42553.89
565.035	42091.05
565.234	42465.83
565.432	41591.34
565.631	41509.43
565.83	41841.2
566.029	42121.77
566.228	41570.86
566.427	41441.84
566.625	41531.95
566.824	40624.7
567.023	41380.4
567.222	40319.56
567.42	41329.2
567.619	40802.88
567.818	41114.17
568.016	40729.15
568.215	40905.27
568.414	40895.03
568.612	40983.1
568.811	40360.51
569.01	41032.25
569.208	39795.28
569.407	39848.52
569.605	39869
569.804	39961.16
570.002	39809.61
570.201	40221.25
570.4	39324.24
570.598	39430.74
570.797	39123.54
570.995	39516.75
571.193	39107.16
571.392	39639.63
571.59	38806.11
571.789	39217.75
571.987	38394.46
572.186	38943.32
572.384	38662.75
572.582	38756.96
572.781	38691.42
572.979	38406.75
573.177	38558.3
573.376	38746.72
573.574	37706.35
573.772	38488.67
573.971	38001.25
574.169	37780.07
574.367	37065.33
574.565	37745.26
574.763	37794.41
574.962	37485.17
575.16	36723.32
575.358	37395.06
575.556	36842.1
575.754	37446.26
575.952	36618.88
576.151	36870.78
576.349	36334.21
576.547	36657.79
576.745	36455.04
576.943	36547.2
577.141	36420.22
577.339	36526.72
577.537	36299.39
577.735	35924.61
577.933	35795.59
578.131	36088.45
578.329	35568.27
578.527	35601.04
578.725	35414.67
578.923	35541.64
579.121	35084.95
579.319	35265.17
579.516	35488.4
579.714	34982.55
579.912	34984.6
580.11	34820.76
580.308	34751.13
580.506	34640.54
580.704	33884.84
580.901	34427.55
581.099	34536.09
581.297	34364.06
581.495	34175.65
581.692	34431.65
581.89	33567.4
582.088	34165.41
582.285	33495.72
582.483	33614.51
582.681	33579.69
582.878	33561.26
583.076	33049.27
583.274	33608.36
583.471	32965.3
583.669	33227.44
583.866	32774.84
584.064	33209.01
584.262	32637.62
584.459	32692.92
584.657	32475.84
584.854	32877.24
585.052	32238.27
585.249	32344.77
585.447	32508.6
585.644	31711.94
585.841	31937.22
586.039	32111.3
586.236	31836.87
586.434	31972.03
586.631	31750.85
586.828	32008.9
587.026	31589.06
587.223	31613.64
587.42	31316.68
587.618	31070.93
587.815	31032.02
588.012	30997.2
588.21	31103.7
588.407	31249.1
588.604	30776.02
588.801	30556.89
588.999	30474.97
589.196	30507.74
589.393	30384.86
589.59	30386.91
589.787	30085.86
589.984	30075.62
590.182	29760.23
590.379	29948.64
590.576	29811.43
590.773	29557.48
590.97	29444.84
591.167	29704.93
591.364	29258.48
591.561	29301.48
591.758	29260.52
591.955	29440.75
592.152	29352.68
592.349	28879.6
592.546	28965.62
592.743	28635.89
592.94	28535.54
593.137	28361.47
593.334	28777.2
593.531	28168.96
593.727	28402.43
593.924	28408.57
594.121	28189.44
594.318	28302.07
594.515	27794.18
594.712	27882.24
594.908	27800.32
595.105	27935.49
595.302	27654.92
595.499	27874.05
595.696	27300.62
595.892	27290.38
596.089	27351.82
596.286	27458.31
596.482	26927.89
596.679	27255.56
596.876	27179.79
597.072	27030.29
597.269	26950.42
597.466	26774.29
597.662	26796.82
597.859	26673.94
598.055	26784.53
598.252	26299.16
598.448	26489.62
598.645	26272.54
598.841	26286.87
599.038	26188.57
599.234	26174.24
599.431	25649.96
599.627	25709.35
599.824	25828.13
600.02	25758.5
600.217	25762.59
600.413	25811.74
600.609	25203.5
600.806	25666.34
601.002	25406.25
601.198	25146.15
601.395	24961.84
601.591	25051.95
601.787	24974.13
601.984	24548.15
602.18	25166.63
602.376	25015.08
602.572	24486.71
602.769	24597.3
602.965	24408.89
603.161	24519.48
603.357	24165.18
603.553	24128.31
603.75	24374.07
603.946	24021.82
604.142	23937.85
604.338	23819.07
604.534	23972.67
604.73	23425.86
604.926	23599.94
605.122	23458.63
605.318	23642.95
605.514	23589.7
605.71	23313.22
605.906	23335.75
606.102	23118.67
606.298	23302.98
606.494	22999.88
606.69	23247.69
606.886	23014.22
607.082	22727.5
607.278	22852.43
607.474	22612.82
607.67	22987.6
607.866	22459.22
608.062	22651.73
608.257	22379.35
608.453	22610.77
608.649	22788.94
608.845	22176.6
609.041	22385.49
609.236	22315.86
609.432	22117.21
609.628	22178.65
609.824	21797.73
610.019	21910.36
610.215	21764.96
610.411	22158.17
610.606	21771.1
610.802	21893.98
610.998	21758.81
611.193	21898.08
611.389	21678.94
611.584	21801.82
611.78	21457.76
611.976	21621.6
612.171	21349.22
612.367	21275.49
612.562	21349.22
612.758	21214.05
612.953	21162.86
613.149	21359.46
613.344	21082.98
613.539	21191.53
613.735	21060.46
613.93	21058.41
614.126	21091.18
614.321	21066.6
614.517	21267.3
614.712	21031.79
614.907	20749.17
615.103	21001.07
615.298	20534.13
615.493	20982.63
615.688	20540.27
615.884	21177.19
616.079	20163.45
616.274	20548.47
616.47	20538.23
616.665	20175.73
616.86	20188.02
617.055	20587.38
617.25	20185.97
617.445	20257.65
617.641	20028.28
617.836	20245.37
618.031	19981.18
618.226	20046.71
618.421	19899.26
618.616	19886.97
618.811	19489.67
619.006	19921.79
619.201	19460.99
619.396	19518.34
619.591	19190.66
619.786	19661.69
619.981	19200.9
620.176	19512.19
620.371	19213.19
620.566	19129.22
620.761	18916.23
620.956	19166.09
621.151	18559.89
621.346	18766.73
621.541	18498.45
621.735	18779.02
621.93	18240.4
622.125	18576.27
622.32	18398.1
622.515	18398.1
622.709	18037.66
622.904	18133.91
623.099	18205.59
623.294	18197.4
623.488	17466.27
623.683	17470.37
623.878	17394.59
624.072	17302.43
624.267	17501.09
624.462	17077.16
624.656	17378.21
624.851	17261.48
625.046	16868.27
625.24	17005.48
625.435	16909.22
625.629	16710.57
625.824	16663.47
626.018	16581.55
626.213	16362.42
626.407	16577.45
626.602	16178.1
626.796	16260.02
626.991	16288.69
627.185	16131
627.38	15938.49
627.574	15764.41
627.768	15602.62
627.963	15899.58
628.157	15451.07
628.352	15598.52
628.546	15352.77
628.74	15430.59
628.935	15061.96
629.129	15289.28
629.323	15205.31
629.517	15193.03
629.712	14832.58
629.906	14767.05
630.1	14949.32
630.294	14697.42
630.489	14912.46
630.683	14541.77
630.877	14676.94
631.071	14232.53
631.265	14476.24
631.459	14388.18
631.653	14250.96
631.848	14224.34
632.042	14085.08
632.236	14078.93
632.43	13767.64
632.624	14029.78
632.818	13790.17
633.012	13712.35
633.206	13620.19
633.4	13665.24
633.594	13362.14
633.788	13585.37
633.982	13454.3
634.176	13343.71
634.369	13069.28
634.563	13186.02
634.757	13022.18
634.951	13030.37
635.145	12848.1
635.339	12973.03
635.533	12903.4
635.726	12766.18
635.92	12489.71
636.114	12774.38
636.308	12575.72
636.501	12577.77
636.695	12430.32
636.889	12413.93
637.083	12450.8
637.276	12383.21
637.47	12237.81
637.664	12051.44
637.857	11789.3
638.051	11949.04
638.244	11662.33
638.438	11830.26
638.632	11795.45
638.825	11633.66
639.019	11693.05
639.212	11424.76
639.406	11435
639.599	11453.44
639.793	11445.24
639.986	10998.79
640.18	11305.98
640.373	11271.17
640.567	11166.72
640.76	11037.7
640.954	10894.34
641.147	10896.39
641.34	10865.67
641.534	10937.35
641.727	10873.86
641.92	10826.76
642.114	10542.09
642.307	10466.31
642.5	10273.81
642.694	10624.01
642.887	10351.63
643.08	10435.6
643.273	10236.94
643.467	10392.59
643.66	10050.58
643.853	10120.21
644.046	10056.72
644.239	10103.82
644.432	9835.54
644.626	9907.22
644.819	9757.72
645.012	10075.15
645.205	9763.86
645.398	9669.66
645.591	9544.73
645.784	9718.81
645.977	9507.87
646.17	9493.53
646.363	9251.87
646.556	9430.04
646.749	9481.24
646.942	9425.95
647.135	9237.53
647.328	9241.63
647.521	9253.92
647.714	8891.43
647.907	9085.98
648.099	9042.98
648.292	9012.26
648.485	9104.42
648.678	8805.41
648.871	8893.47
649.064	8817.7
649.256	8617
649.449	8582.18
649.642	8623.14
649.835	8494.12
650.027	8459.31
650.22	8473.64
650.413	8381.48
650.605	8328.24
650.798	8477.74
650.991	8098.86
651.183	8436.78
651.376	8105.01
651.568	8197.17
651.761	8014.9
651.954	8123.44
652.146	7885.87
652.339	8078.38
652.531	8084.53
652.724	7851.06
652.916	7801.91
653.109	7771.19
653.301	7959.6
653.494	7849.01
653.686	7726.13
653.879	7748.66
654.071	7676.98
654.263	7590.97
654.456	7597.11
654.648	7646.26
654.84	7513.14
655.033	7445.56
655.225	7357.5
655.417	7318.59
655.61	7425.08
655.802	7400.51
655.994	7324.73
656.186	7347.26
656.379	7306.3
656.571	7310.4
656.763	7124.03
656.955	7191.61
657.148	7015.49
657.34	6974.53
657.532	7048.26
657.724	6884.42
657.916	6935.62
658.108	6739.01
658.3	6849.6
658.492	6679.62
658.684	6726.72
658.876	6790.21
659.068	6798.4
659.26	6597.7
659.452	6542.41
659.644	6653
659.836	6585.41
660.028	6485.06
660.22	6612.04
660.412	6491.21
660.604	6401.1
660.796	6388.81
660.988	6308.94
661.18	6341.71
661.372	6196.3
661.563	6339.66
661.755	6280.27
661.947	6138.96
662.139	6286.41
662.331	6061.13
662.522	6050.89
662.714	6016.08
662.906	5993.55
663.097	5981.26
663.289	6108.24
663.481	5825.62
663.673	5928.02
663.864	5809.23
664.056	5887.06
664.247	5829.71
664.439	5641.3
664.631	5760.08
664.822	5755.99
665.014	5629.01
665.205	5686.36
665.397	5739.6
665.588	5739.6
665.78	5416.02
665.971	5481.56
666.163	5526.61
666.354	5440.6
666.546	5440.6
666.737	5506.13
666.929	5483.61
667.12	5383.26
667.311	5293.15
667.503	5370.97
667.694	5360.73
667.885	5397.59
668.077	5387.35
668.268	5334.11
668.459	5348.44
668.651	5213.28
668.842	5235.8
669.033	5196.89
669.224	5024.86
669.416	5266.52
669.607	5094.49
669.798	5018.72
669.989	5129.31
670.18	5006.43
670.371	4944.99
670.563	5188.7
670.754	4916.32
670.945	4959.33
671.136	5067.87
671.327	4836.45
671.518	4811.87
671.709	4863.07
671.9	4990.05
672.091	4791.39
672.282	4867.17
672.473	4793.44
672.664	4672.61
672.855	4930.66
673.046	4830.3
673.237	4846.69
673.428	4777.06
673.619	4715.62
673.809	4836.45
674	4809.83
674.191	4727.91
674.382	4652.13
674.573	4789.35
674.764	4562.02
674.954	4703.33
675.145	4586.6
675.336	4793.44
675.527	4471.91
675.717	4650.08
675.908	4557.93
676.099	4627.56
676.289	4781.15
676.48	4711.52
676.671	4508.77
676.861	4566.12
677.052	4611.17
677.243	4476.01
677.433	4437.09
677.624	4420.71
677.814	4521.06
678.005	4588.64
678.195	4508.77
678.386	4414.57
678.576	4406.38
678.767	4422.76
678.957	4439.14
679.148	4420.71
679.338	4482.15
679.529	4496.49
679.719	4461.67
679.909	4428.9
680.1	4418.66
680.29	4463.72
680.481	4297.83
680.671	4469.86
680.861	4353.13
681.052	4422.76
681.242	4287.59
681.432	4357.22
681.622	4238.44
681.813	4236.39
682.003	4367.46
682.193	4342.89
682.383	4367.46
682.573	4338.79
682.764	4201.58
682.954	4353.13
683.144	4424.81
683.334	4228.2
683.524	4119.66
683.714	4338.79
683.904	4215.91
684.094	4293.74
684.284	4392.04
684.474	4349.03
684.664	4349.03
684.854	4248.68
685.044	4183.15
685.234	4076.65
685.424	4207.72
685.614	4189.29
685.804	4123.76
685.994	4187.24
686.184	4220.01
686.374	4072.56
686.564	4205.67
686.753	4115.56
686.943	3986.54
687.133	3937.39
687.323	4033.65
687.513	3996.78
687.702	3974.25
687.892	3976.3
688.082	3921.01
688.272	3894.38
688.461	3931.25
688.651	3892.34
688.841	3832.94
689.03	3853.42
689.22	3841.14
689.41	3947.63
689.599	3769.46
689.789	3779.7
689.979	3908.72
690.168	3822.7
690.358	3748.98
690.547	3667.06
690.737	3757.17
690.926	3652.72
691.116	3695.73
691.305	3734.64
691.495	3716.21
691.684	3535.99
691.874	3718.26
692.063	3591.28
692.252	3552.37
692.442	3656.82
692.631	3646.58
692.82	3550.32
693.01	3560.56
693.199	3560.56
693.388	3513.46
693.578	3533.94
693.767	3679.35
693.956	3458.17
694.146	3519.6
694.335	3429.49
694.524	3406.97
694.713	3333.24
694.902	3452.02
695.092	3400.82
695.281	3259.51
695.47	3392.63
695.659	3241.08
695.848	3396.73
696.037	3372.15
696.226	3363.96
696.415	3337.34
696.604	3333.24
696.793	3261.56
696.982	3466.36
697.171	3308.66
697.36	3392.63
697.549	3296.38
697.738	3243.13
697.927	3253.37
698.116	3222.65
698.305	3200.12
698.494	3292.28
698.683	3265.66
698.872	3353.72
699.061	3232.89
699.25	3232.89
699.438	3452.02
699.627	3269.75
699.816	3251.32
700.005	3239.03
700.193	3095.68
700.382	3255.42
700.571	3273.85
700.76	3136.63
700.948	3259.51
701.137	3306.62
701.326	3273.85
701.514	3196.03
701.703	3148.92
701.892	3191.93
702.08	3267.7
702.269	3077.24
702.457	3167.35
702.646	3249.27
702.834	3093.63
703.023	3179.64
703.212	3034.24
703.4	3331.19
703.589	3003.52
703.777	3212.41
703.965	3058.81
704.154	3171.45
704.342	3136.63
704.531	3189.88
704.719	3103.87
704.907	3122.3
705.096	3157.11
705.284	2968.7
705.472	3114.11
705.661	3132.54
705.849	3120.25
706.037	3095.68
706.226	3132.54
706.414	3226.75
706.602	3058.81
706.79	3030.14
706.979	3032.19
707.167	3132.54
707.355	3214.46
707.543	3044.48
707.731	3236.99
707.919	3118.2
708.107	3157.11
708.296	3073.15
708.484	3058.81
708.672	2962.56
708.86	3185.79
709.048	3122.3
709.236	3101.82
709.424	3073.15
709.612	3091.58
709.8	3120.25
709.988	3179.64
710.176	3058.81
710.364	3134.59
710.551	3134.59
710.739	3011.71
710.927	3103.87
711.115	3064.96
711.303	3087.48
711.491	3099.77
711.679	3120.25
711.866	3189.88
712.054	3028.09
712.242	3019.9
712.43	3038.33
712.617	3171.45
712.805	3075.2
712.993	3017.85
713.181	3091.58
713.368	3013.76
713.556	3198.07
713.744	3001.47
713.931	3118.2
714.119	2980.99
714.306	3118.2
714.494	3073.15
714.682	3056.76
714.869	3157.11
715.057	3110.01
715.244	3038.33
715.432	3050.62
715.619	3140.73
715.807	3138.68
715.994	3138.68
716.182	3028.09
716.369	3181.69
716.556	3087.48
716.744	3150.97
716.931	3052.67
717.119	3081.34
717.306	3085.44
717.493	3150.97
717.681	3126.39
717.868	3126.39
718.055	3069.05
718.242	3052.67
718.43	3120.25
718.617	2976.89
718.804	3114.11
718.991	3118.2
719.179	2960.51
719.366	3273.85
719.553	3021.95
719.74	3001.47
719.927	3087.48
720.114	3069.05
720.301	3042.43
720.488	3056.76
720.676	3064.96
720.863	3036.28
721.05	3013.76
721.237	3058.81
721.424	3126.39
721.611	3079.29
721.798	2978.94
721.985	2954.37
722.172	3136.63
722.358	3050.62
722.545	3095.68
722.732	3062.91
722.919	3101.82
723.106	3110.01
723.293	2980.99
723.48	3038.33
723.667	3079.29
723.853	3015.8
724.04	3163.26
724.227	3075.2
724.414	3028.09
724.6	2964.61
724.787	2888.83
724.974	2952.32
725.161	3077.24
725.347	3019.9
725.534	2958.46
725.72	3062.91
725.907	3038.33
726.094	3116.16
726.28	3011.71
726.467	3030.14
726.653	2964.61
726.84	2999.42
727.027	3054.72
727.213	2913.41
727.4	2980.99
727.586	3007.61
727.773	2978.94
727.959	3050.62
728.145	3050.62
728.332	3122.3
728.518	2980.99
728.705	2942.08
728.891	3021.95
729.077	2929.79
729.264	2919.55
729.45	2892.93
729.636	3003.52
729.823	2958.46
730.009	2976.89
730.195	3040.38
730.382	2991.23
730.568	3005.56
730.754	2903.17
730.94	2886.78
731.126	2899.07
731.313	3038.33
731.499	2997.37
731.685	2913.41
731.871	2925.69
732.057	2985.09
732.243	2847.87
732.429	2903.17
732.615	2811.01
732.801	2923.65
732.987	2931.84
733.173	2874.49
733.359	2974.85
733.545	2880.64
733.731	2847.87
733.917	2950.27
734.103	2962.56
734.289	2948.22
734.475	2894.97
734.661	2962.56
734.847	2917.5
735.033	2903.17
735.219	2897.02
735.404	2831.49
735.59	2856.06
735.776	2692.23
735.962	2849.92
736.148	2862.21
736.333	2903.17
736.519	2712.71
736.705	2831.49
736.89	2776.19
737.076	2888.83
737.262	2722.95
737.447	2798.72
737.633	2778.24
737.819	2937.98
738.004	2831.49
738.19	2784.38
738.375	2833.54
738.561	2813.06
738.747	2745.47
738.932	2751.62
739.118	2649.22
739.303	2614.4
739.489	2749.57
739.674	2610.31
739.859	2630.79
740.045	2684.03
740.23	2770.05
740.416	2577.54
740.601	2577.54
740.786	2624.64
740.972	2733.18
741.157	2614.4
741.342	2489.48
741.528	2681.99
741.713	2536.58
741.898	2653.31
742.084	2565.25
742.269	2532.48
742.454	2552.96
742.639	2575.49
742.824	2552.96
743.01	2593.92
743.195	2641.03
743.38	2550.92
743.565	2587.78
743.75	2524.29
743.935	2546.82
744.12	2366.6
744.305	2454.66
744.49	2462.85
744.675	2485.38
744.86	2483.33
745.045	2473.09
745.23	2395.27
745.415	2450.57
745.6	2434.18
745.785	2368.65
745.97	2450.57
746.155	2385.03
746.34	2391.17
746.525	2360.45
746.71	2524.29
746.895	2180.23
747.079	2253.96
747.264	2192.52
747.449	2204.81
747.634	2278.54
747.819	2176.14
748.003	2292.87
748.188	2161.8
748.373	2204.81
748.557	2167.95
748.742	2192.52
748.927	2088.07
749.111	2153.61
749.296	2055.31
749.481	2198.67
749.665	2059.4
749.85	2161.8
750.034	2092.17
750.219	2129.03
750.404	1981.58
750.588	2022.54
750.773	1942.67
750.957	1961.1
751.141	1881.23
751.326	1971.34
751.51	1975.44
751.695	1957
751.879	1977.48
752.064	1969.29
752.248	1881.23
752.432	1946.76
752.617	1797.26
752.801	1901.71
752.985	1803.41
753.17	1776.78
753.354	1758.35
753.538	1801.36
753.722	1725.58
753.907	1807.5
754.091	1701.01
754.275	1707.15
754.459	1735.82
754.643	1684.62
754.828	1653.91
755.012	1555.6
755.196	1658
755.38	1551.51
755.564	1672.34
755.748	1610.9
755.932	1686.67
756.116	1705.1
756.3	1586.32
756.484	1559.7
756.668	1545.36
756.852	1467.54
757.036	1502.36
757.22	1467.54
757.404	1539.22
757.588	1518.74
757.772	1459.35
757.956	1477.78
758.14	1524.88
758.323	1590.42
758.507	1571.99
758.691	1420.44
758.875	1461.4
759.059	1465.49
759.242	1404.05
759.426	1311.89
759.61	1520.79
759.794	1389.72
759.977	1467.54
760.161	1406.1
760.345	1459.35
760.528	1434.77
760.712	1436.82
760.895	1356.95
761.079	1277.08
761.263	1287.32
761.446	1383.57
761.63	1297.56
761.813	1213.59
761.997	1295.51
762.18	1166.49
762.364	1371.29
762.547	1215.64
762.731	1348.76
762.914	1328.28
763.098	1336.47
763.281	1283.22
763.464	1240.22
763.648	1225.88
763.831	1291.41
764.015	1266.84
764.198	1287.32
764.381	1232.02
764.564	1244.31
764.748	1189.02
764.931	1180.82
765.114	1123.48
765.297	1229.98
765.481	1172.63
765.664	1170.58
765.847	1131.67
766.03	1160.34
766.213	1178.78
766.397	1168.54
766.58	1086.62
766.763	1166.49
766.946	1105.05
767.129	1105.05
767.312	1209.5
767.495	1156.25
767.678	1059.99
767.861	1148.06
768.044	1113.24
768.227	1094.81
768.41	1059.99
768.593	1131.67
768.776	1068.19
768.959	1062.04
769.142	1168.54
769.324	1103
769.507	1010.84
769.69	1092.76
769.873	1006.75
770.056	1057.95
770.239	1031.32
770.421	967.84
770.604	1057.95
770.787	894.11
770.97	1000.6
771.152	1039.51
771.335	965.79
771.518	1012.89
771.7	1051.8
771.883	1010.84
772.066	963.74
772.248	986.27
772.431	1025.18
772.613	933.02
772.796	947.36
772.978	978.08
773.161	1057.95
773.343	1092.76
773.526	838.81
773.708	939.16
773.891	947.36
774.073	902.3
774.256	896.16
774.438	861.34
774.621	898.2
774.803	992.41
774.985	937.12
775.168	857.25
775.35	830.62
775.532	914.59
775.715	840.86
775.897	824.48
776.079	877.73
776.261	861.34
776.444	824.48
776.626	787.61
776.808	842.91
776.99	781.47
777.173	726.18
777.355	781.47
777.537	801.95
777.719	738.46
777.901	799.9
778.083	736.42
778.265	775.33
778.447	736.42
778.629	760.99
778.811	804
778.993	799.9
779.175	713.89
779.357	781.47
779.539	713.89
779.721	748.7
779.903	754.85
780.085	652.45
780.267	711.84
780.449	695.46
780.631	644.26
780.812	658.59
780.994	711.84
781.176	728.22
781.358	693.41
781.54	650.4
781.721	636.06
781.903	683.17
782.085	578.72
782.267	607.39
782.448	631.97
782.63	586.91
782.812	537.76
782.993	595.11
783.175	672.93
783.357	631.97
783.538	568.48
783.72	588.96
783.901	611.49
784.083	533.67
784.264	478.37
784.446	531.62
784.627	535.71
784.809	568.48
784.99	511.14
785.172	597.15
785.353	543.91
785.535	593.06
785.716	545.95
785.897	537.76
786.079	564.39
786.26	504.99
786.441	472.23
786.623	504.99
786.804	507.04
786.985	525.47
787.167	472.23
787.348	537.76
787.529	459.94
787.71	603.3
787.891	494.76
788.073	478.37
788.254	455.84
788.435	466.08
788.616	451.75
788.797	394.4
788.978	429.22
789.159	421.03
789.34	502.95
789.522	445.6
789.703	494.76
789.884	382.12
790.065	410.79
790.246	470.18
790.427	404.64
790.607	513.19
790.788	461.99
790.969	453.8
791.15	433.32
791.331	455.84
791.512	416.93
791.693	353.45
791.874	457.89
792.054	412.84
792.235	367.78
792.416	373.92
792.597	388.26
792.778	388.26
792.958	412.84
793.139	429.22
793.32	404.64
793.5	353.45
793.681	369.83
793.862	361.64
794.042	384.16
794.223	386.21
794.404	308.39
794.584	359.59
794.765	341.16
794.945	406.69
795.126	363.69
795.306	402.6
795.487	398.5
795.667	312.49
795.848	287.91
796.028	347.3
796.209	330.92
796.389	431.27
796.57	355.49
796.75	300.2
796.93	396.45
797.111	392.36
797.291	355.49
797.471	296.1
797.652	302.25
797.832	228.52
798.012	316.58
798.192	304.29
798.373	279.72
798.553	339.11
798.733	275.62
798.913	226.47
799.093	320.68
799.274	285.86
799.454	343.21
799.634	255.14
799.814	343.21
799.994	326.82
800.174	283.81
800.354	316.58
800.534	287.91
800.714	292.01
800.894	308.39
801.074	298.15
801.254	304.29
801.434	347.3
801.614	292.01
801.794	304.29
801.974	887.97
802.154	281.77
802.334	322.73
802.514	304.29
802.693	210.09
802.873	228.52
803.053	285.86
803.233	289.96
803.413	302.25
803.592	322.73
803.772	212.14
803.952	289.96
804.131	224.42
804.311	240.81
804.491	249
804.67	296.1
804.85	220.33
805.03	306.34
805.209	253.09
805.389	306.34
805.568	224.42
805.748	222.38
805.928	246.95
806.107	251.05
806.287	341.16
806.466	175.27
806.646	234.66
806.825	185.51
807.004	167.08
807.184	249
807.363	230.57
807.543	210.09
807.722	242.85
807.901	285.86
808.081	240.81
808.26	187.56
808.439	259.24
808.619	169.13
808.798	226.47
808.977	165.03
809.156	234.66
809.336	169.13
809.515	197.8
809.694	175.27
809.873	197.8
810.052	255.14
810.231	185.51
810.411	173.22
810.59	208.04
810.769	187.56
810.948	242.85
811.127	152.74
811.306	232.62
811.485	255.14
811.664	234.66
811.843	208.04
812.022	226.47
812.201	169.13
812.38	160.94
812.559	132.26
812.737	240.81
812.916	224.42
813.095	199.85
813.274	197.8
813.453	212.14
813.632	230.57
813.811	269.48
813.989	124.07
814.168	144.55
814.347	187.56
814.526	197.8
814.704	144.55
814.883	183.46
815.062	140.46
815.24	220.33
815.419	189.61
815.598	185.51
815.776	62.63
815.955	238.76
816.133	160.94
816.312	144.55
816.49	187.56
816.669	156.84
816.847	214.18
817.026	191.66
817.204	205.99
817.383	169.13
817.561	142.5
817.74	240.81
817.918	236.71
818.097	179.37
818.275	124.07
818.453	183.46
818.632	220.33
818.81	179.37
818.988	169.13
819.167	158.89
819.345	160.94
819.523	146.6
819.701	169.13
819.879	165.03
820.058	109.74
820.236	185.51
820.414	148.65
820.592	119.98
820.77	144.55
820.948	148.65
821.127	210.09
821.305	185.51
821.483	105.64
821.661	162.98
821.839	93.35
822.017	126.12
822.195	93.35
822.373	126.12
822.551	128.17
822.729	101.55
822.907	97.45
823.085	191.66
823.262	191.66
823.44	193.7
823.618	107.69
823.796	171.18
823.974	87.21
824.152	99.5
824.329	154.79
824.507	124.07
824.685	132.26
824.863	103.59
825.04	136.36
825.218	85.16
825.396	122.02
825.574	70.83
825.751	148.65
825.929	109.74
826.107	52.39
826.284	113.83
826.462	169.13
826.639	109.74
826.817	29.87
826.994	175.27
827.172	38.06
827.349	107.69
827.527	113.83
827.704	111.78
827.882	83.11
828.059	150.7
828.237	128.17
828.414	113.83
828.591	91.31
828.769	115.88
828.946	62.63
829.124	171.18
829.301	185.51
829.478	144.55
829.655	124.07
829.833	64.68
830.01	68.78
830.187	122.02
830.364	101.55
830.542	101.55
830.719	171.18
830.896	95.4
831.073	128.17
831.25	74.92
831.427	99.5
831.604	54.44
831.782	115.88
831.959	144.55
832.136	142.5
832.313	179.37
832.49	152.74
832.667	89.26
832.844	-23.38
833.021	87.21
833.198	91.31
833.374	89.26
833.551	62.63
833.728	58.54
833.905	66.73
834.082	17.58
834.259	-27.48
834.436	119.98
834.612	17.58
834.789	156.84
834.966	107.69
835.143	79.02
835.319	74.92
835.496	44.2
835.673	103.59
835.85	72.87
836.026	124.07
836.203	109.74
836.38	68.78
836.556	46.25
836.733	23.72
836.909	89.26
837.086	95.4
837.262	68.78
837.439	62.63
837.616	62.63
837.792	109.74
837.968	158.89
838.145	9.39
838.321	126.12
838.498	95.4
838.674	136.36
838.851	56.49
839.027	62.63
839.203	19.63
839.38	144.55
839.556	56.49
839.732	93.35
839.909	38.06
840.085	70.83
840.261	13.48
840.437	158.89
840.614	126.12
840.79	46.25
840.966	46.25
841.142	87.21
841.318	13.48
841.494	97.45
841.671	91.31
841.847	23.72
842.023	-7
842.199	81.07
842.375	91.31
842.551	111.78
842.727	42.15
842.903	68.78
843.079	58.54
843.255	107.69
843.431	52.39
843.607	79.02
843.783	46.25
843.959	44.2
844.134	50.35
844.31	89.26
844.486	19.63
844.662	44.2
844.838	74.92
845.013	79.02
845.189	87.21
845.365	113.83
845.541	9.39
845.716	93.35
845.892	64.68
846.068	70.83
846.244	72.87
846.419	103.59
846.595	7.34
846.77	138.41
846.946	66.73
847.122	72.87
847.297	60.59
847.473	103.59
847.648	54.44
847.824	25.77
847.999	-4.95
848.175	54.44
848.35	13.48
848.526	95.4
848.701	87.21
848.876	70.83
849.052	74.92
849.227	21.67
849.403	54.44
849.578	62.63
849.753	56.49
849.929	7.34
850.104	3.24
850.279	50.35
850.454	48.3
850.63	29.87
850.805	76.97
850.98	91.31
851.155	-4.95
851.33	33.96
851.505	44.2
851.681	115.88
851.856	58.54
852.031	52.39
852.206	105.64
852.381	27.82
852.556	87.21
852.731	-41.81
852.906	70.83
853.081	36.01
853.256	76.97
853.431	9.39
853.606	17.58
853.781	38.06
853.956	15.53
854.131	76.97
854.305	-33.62
854.48	97.45
854.655	9.39
854.83	101.55
855.005	9.39
855.18	68.78
855.354	46.25
855.529	70.83
855.704	-25.43
855.879	70.83
856.053	15.53
856.228	15.53
856.403	15.53
856.577	44.2
856.752	25.77
856.926	36.01
857.101	113.83
857.276	-7
857.45	42.15
857.625	140.46
857.799	-21.33
857.974	9.39
858.148	25.77
858.323	97.45
858.497	25.77
858.672	7.34
858.846	27.82
859.02	-15.19
859.195	-2.9
859.369	-31.57
859.543	17.58
859.718	38.06
859.892	3.24
860.066	3.24
860.241	-9.05
860.415	56.49
860.589	48.3
860.763	50.35
860.938	-0.85
861.112	46.25
861.286	-25.43
861.46	101.55
861.634	21.67
861.808	58.54
861.982	-43.86
862.157	54.44
862.331	-2.9
862.505	-9.05
862.679	15.53
862.853	36.01
863.027	3.24
863.201	74.92
863.375	13.48
863.549	-35.67
863.722	-15.19
863.896	29.87
864.07	74.92
864.244	60.59
864.418	101.55
864.592	3.24
864.766	-7
864.939	140.46
865.113	70.83
865.287	87.21
865.461	-9.05
865.634	29.87
865.808	50.35
865.982	40.11
866.156	-43.86
866.329	-4.95
866.503	-0.85
866.676	-4.95
866.85	-7
867.024	13.48
867.197	46.25
867.371	70.83
867.544	54.44
867.718	-33.62
867.891	21.67
868.065	13.48
868.238	-35.67
868.412	19.63
868.585	-58.2
868.759	-4.95
868.932	36.01
869.105	-23.38
869.279	68.78
869.452	-35.67
869.625	-27.48
869.799	89.26
869.972	25.77
870.145	5.29
870.319	25.77
870.492	-17.24
870.665	11.43
870.838	-56.15
871.011	-29.52
871.185	7.34
871.358	-35.67
871.531	17.58
871.704	7.34
871.877	-2.9
872.05	11.43
872.223	85.16
872.396	17.58
872.569	119.98
872.742	-11.09
872.915	52.39
873.088	-21.33
873.261	58.54
873.434	95.4
873.607	36.01
873.78	36.01
873.953	9.39
874.126	-13.14
874.299	79.02
874.471	54.44
874.644	-62.29
874.817	-33.62
874.99	52.39
875.163	-93.01
875.335	-47.96
875.508	60.59
875.681	76.97
875.853	1.19
876.026	66.73
876.199	9.39
876.371	38.06
876.544	54.44
876.717	13.48
876.889	52.39
877.062	33.96
877.234	-35.67
877.407	-60.24
877.579	3.24
877.752	25.77
877.924	36.01
878.097	54.44
878.269	-29.52
878.442	-2.9
878.614	40.11
878.786	31.91
878.959	54.44
879.131	-13.14
879.303	-15.19
879.476	-52.05
879.648	25.77
879.82	40.11
879.993	66.73
880.165	9.39
880.337	-64.34
880.509	25.77
880.681	17.58
880.854	17.58
881.026	7.34
881.198	40.11
881.37	-15.19
881.542	42.15
881.714	-29.52
881.886	81.07
882.058	-43.86
882.23	5.29
882.402	46.25
882.574	36.01
882.746	-0.85
882.918	23.72
883.09	9.39
883.262	33.96
883.434	3.24
883.606	-62.29
883.778	29.87
883.95	68.78
884.122	-0.85
884.293	60.59
884.465	58.54
884.637	-33.62
884.809	17.58
884.98	38.06
885.152	13.48
885.324	13.48
885.496	21.67
885.667	-45.91
885.839	52.39
886.011	58.54
886.182	25.77
886.354	38.06
886.525	9.39
886.697	27.82
886.869	9.39
887.04	-47.96
887.212	52.39
887.383	66.73
887.555	38.06
887.726	38.06
887.897	-21.33
888.069	1.19
888.24	76.97
888.412	-4.95
888.583	1.19
888.754	-2.9
888.926	-39.76
889.097	56.49
889.268	-15.19
889.44	36.01
889.611	68.78
889.782	-64.34
889.953	62.63
890.125	36.01
890.296	-41.81
890.467	17.58
890.638	-56.15
890.809	33.96
890.98	-101.2
891.151	-9.05
891.323	42.15
891.494	-9.05
891.665	-33.62
891.836	5.29
892.007	-27.48
892.178	68.78
892.349	113.83
892.52	21.67
892.691	-29.52
892.862	-19.29
893.032	5.29
893.203	50.35
893.374	25.77
893.545	19.63
893.716	-13.14
893.887	40.11
894.057	5.29
894.228	50.35
894.399	-68.44
894.57	21.67
894.74	-21.33
894.911	-7
895.082	5.29
895.253	72.87
895.423	3.24
895.594	70.83
895.764	-29.52
895.935	-21.33
896.106	3.24
896.276	-78.68
896.447	5.29
896.617	-56.15
896.788	-19.29
896.958	-27.48
897.129	-0.85
897.299	-29.52
897.47	60.59
897.64	66.73
897.81	-68.44
897.981	50.35
898.151	-4.95
898.322	36.01
898.492	54.44
898.662	1.19
898.832	-11.09
899.003	-2.9
899.173	-19.29
899.343	1.19
899.513	-72.53
