Data from USB4F104151__135__10-25-47-100.txt Node

Date: Wed Mar 12 10:25:47 EDT 2025
User: louis
Spectrometer: USB4F10415
Trigger mode: 4
Integration Time (sec): 3.000000E-2
Scans to average: 1
Electric dark correction enabled: true
Nonlinearity correction enabled: false
Boxcar width: 0
XAxis mode: Wavelengths
Number of Pixels in Spectrum: 3648
>>>>>Begin Spectral Data<<<<<
178.204	-91.99
178.424	-91.99
178.644	-91.99
178.864	-157.52
179.084	-34.64
179.304	-16.21
179.524	-14.17
179.744	43.18
179.964	53.42
180.184	-32.6
180.404	22.7
180.624	37.03
180.844	-18.26
181.064	-85.84
181.283	-28.5
181.503	16.55
181.723	22.7
181.943	-53.08
182.163	24.75
182.383	47.27
182.602	57.51
182.822	86.19
183.042	34.99
183.262	14.51
183.482	-89.94
183.701	30.89
183.921	-22.36
184.141	57.51
184.361	2.22
184.58	12.46
184.8	26.79
185.02	49.32
185.239	28.84
185.459	-36.69
185.679	37.03
185.898	-16.21
186.118	-1.88
186.338	14.51
186.557	-18.26
186.777	106.67
186.997	28.84
187.216	-14.17
187.436	106.67
187.655	82.09
187.875	0.17
188.095	20.65
188.314	112.81
188.534	71.85
188.753	10.41
188.973	37.03
189.192	45.23
189.412	65.71
189.631	0.17
189.851	28.84
190.07	63.66
190.29	14.51
190.509	20.65
190.729	-1.88
190.948	55.47
191.168	121
191.387	20.65
191.607	-1.88
191.826	90.28
192.045	0.17
192.265	4.27
192.484	55.47
192.704	-1.88
192.923	18.6
193.142	75.95
193.362	59.56
193.581	4.27
193.8	0.17
194.02	26.79
194.239	47.27
194.458	39.08
194.678	-46.93
194.897	80.04
195.116	-38.74
195.335	102.57
195.555	-32.6
195.774	41.13
195.993	43.18
196.212	2.22
196.432	-12.12
196.651	47.27
196.87	10.41
197.089	82.09
197.308	73.9
197.528	65.71
197.747	-44.88
197.966	8.36
198.185	26.79
198.404	-44.88
198.623	-36.69
198.842	61.61
199.062	127.14
199.281	61.61
199.5	-18.26
199.719	-40.79
199.938	67.75
200.157	-5.97
200.376	69.8
200.595	65.71
200.814	51.37
201.033	-81.75
201.252	110.76
201.471	49.32
201.69	-8.02
201.909	28.84
202.128	41.13
202.347	10.41
202.566	2.22
202.785	-96.08
203.004	12.46
203.223	155.82
203.442	0.17
203.661	32.94
203.879	-3.93
204.098	32.94
204.317	22.7
204.536	47.27
204.755	67.75
204.974	12.46
205.193	57.51
205.411	108.71
205.63	-34.64
205.849	86.19
206.068	45.23
206.287	53.42
206.505	-3.93
206.724	41.13
206.943	-1.88
207.162	34.99
207.381	8.36
207.599	-59.22
207.818	8.36
208.037	49.32
208.255	37.03
208.474	0.17
208.693	71.85
208.911	-10.07
209.13	49.32
209.349	-57.17
209.567	28.84
209.786	37.03
210.005	12.46
210.223	55.47
210.442	-48.98
210.661	30.89
210.879	47.27
211.098	10.41
211.316	-51.03
211.535	43.18
211.753	-3.93
211.972	-28.5
212.191	-12.12
212.409	20.65
212.628	59.56
212.846	63.66
213.065	14.51
213.283	30.89
213.502	-38.74
213.72	-28.5
213.938	86.19
214.157	0.17
214.375	139.43
214.594	16.55
214.812	32.94
215.031	41.13
215.249	51.37
215.467	67.75
215.686	-30.55
215.904	39.08
216.122	0.17
216.341	86.19
216.559	-16.21
216.778	24.75
216.996	34.99
217.214	-32.6
217.432	20.65
217.651	98.47
217.869	14.51
218.087	32.94
218.306	-24.4
218.524	53.42
218.742	-34.64
218.96	12.46
219.179	57.51
219.397	16.55
219.615	71.85
219.833	4.27
220.051	-112.47
220.27	24.75
220.488	88.23
220.706	14.51
220.924	-12.12
221.142	41.13
221.36	39.08
221.578	45.23
221.796	-1.88
222.015	-40.79
222.233	55.47
222.451	114.86
222.669	65.71
222.887	6.31
223.105	16.55
223.323	43.18
223.541	43.18
223.759	59.56
223.977	2.22
224.195	20.65
224.413	24.75
224.631	16.55
224.849	-16.21
225.067	2.22
225.285	73.9
225.503	-12.12
225.721	-36.69
225.939	37.03
226.157	47.27
226.375	164.01
226.592	24.75
226.81	-10.07
227.028	-32.6
227.246	63.66
227.464	0.17
227.682	-16.21
227.9	-8.02
228.117	77.99
228.335	-12.12
228.553	73.9
228.771	22.7
228.989	57.51
229.206	114.86
229.424	6.31
229.642	32.94
229.86	28.84
230.077	86.19
230.295	32.94
230.513	32.94
230.731	73.9
230.948	84.14
231.166	114.86
231.384	37.03
231.601	2.22
231.819	86.19
232.037	22.7
232.254	24.75
232.472	-32.6
232.689	67.75
232.907	30.89
233.125	10.41
233.342	63.66
233.56	-22.36
233.777	65.71
233.995	59.56
234.213	164.01
234.43	88.23
234.648	24.75
234.865	39.08
235.083	41.13
235.3	-10.07
235.518	-10.07
235.735	53.42
235.953	67.75
236.17	10.41
236.388	18.6
236.605	-20.31
236.822	104.62
237.04	-18.26
237.257	6.31
237.475	8.36
237.692	14.51
237.909	75.95
238.127	69.8
238.344	24.75
238.562	82.09
238.779	-5.97
238.996	20.65
239.214	26.79
239.431	22.7
239.648	-16.21
239.865	6.31
240.083	24.75
240.3	65.71
240.517	28.84
240.735	28.84
240.952	55.47
241.169	24.75
241.386	73.9
241.603	18.6
241.821	10.41
242.038	104.62
242.255	39.08
242.472	12.46
242.689	41.13
242.907	63.66
243.124	24.75
243.341	-18.26
243.558	-57.17
243.775	22.7
243.992	-12.12
244.209	-8.02
244.426	-12.12
244.643	104.62
244.86	-20.31
245.078	6.31
245.295	26.79
245.512	45.23
245.729	16.55
245.946	51.37
246.163	45.23
246.38	20.65
246.597	55.47
246.814	-3.93
247.031	37.03
247.248	-14.17
247.464	34.99
247.681	30.89
247.898	4.27
248.115	12.46
248.332	59.56
248.549	69.8
248.766	65.71
248.983	14.51
249.2	37.03
249.417	24.75
249.633	45.23
249.85	12.46
250.067	-10.07
250.284	-10.07
250.501	8.36
250.717	-32.6
250.934	-16.21
251.151	18.6
251.368	55.47
251.585	86.19
251.801	-24.4
252.018	-1.88
252.235	2.22
252.451	73.9
252.668	-81.75
252.885	8.36
253.102	-8.02
253.318	-18.26
253.535	-8.02
253.752	32.94
253.968	-12.12
254.185	16.55
254.401	-28.5
254.618	20.65
254.835	-1.88
255.051	102.57
255.268	43.18
255.484	18.6
255.701	-10.07
255.917	57.51
256.134	77.99
256.351	61.61
256.567	49.32
256.784	90.28
257	-3.93
257.217	69.8
257.433	75.95
257.65	18.6
257.866	-20.31
258.082	18.6
258.299	24.75
258.515	-20.31
258.732	84.14
258.948	-32.6
259.165	2.22
259.381	71.85
259.597	14.51
259.814	22.7
260.03	73.9
260.246	41.13
260.463	18.6
260.679	43.18
260.895	24.75
261.112	51.37
261.328	49.32
261.544	67.75
261.761	73.9
261.977	80.04
262.193	-40.79
262.409	55.47
262.626	86.19
262.842	-28.5
263.058	4.27
263.274	71.85
263.49	-22.36
263.707	-24.4
263.923	-16.21
264.139	22.7
264.355	18.6
264.571	55.47
264.787	14.51
265.004	69.8
265.22	6.31
265.436	16.55
265.652	41.13
265.868	49.32
266.084	43.18
266.3	106.67
266.516	-10.07
266.732	-48.98
266.948	47.27
267.164	24.75
267.38	4.27
267.596	-1.88
267.812	121
268.028	-24.4
268.244	0.17
268.46	14.51
268.676	37.03
268.892	67.75
269.108	22.7
269.324	-10.07
269.54	-32.6
269.756	16.55
269.972	-59.22
270.188	73.9
270.403	-20.31
270.619	55.47
270.835	6.31
271.051	53.42
271.267	114.86
271.483	-34.64
271.698	129.19
271.914	-10.07
272.13	57.51
272.346	-20.31
272.562	-10.07
272.777	104.62
272.993	41.13
273.209	67.75
273.425	37.03
273.64	43.18
273.856	22.7
274.072	43.18
274.287	-5.97
274.503	12.46
274.719	49.32
274.934	37.03
275.15	-8.02
275.366	4.27
275.581	53.42
275.797	8.36
276.012	0.17
276.228	67.75
276.444	-10.07
276.659	90.28
276.875	-16.21
277.09	-1.88
277.306	8.36
277.521	8.36
277.737	22.7
277.952	-30.55
278.168	-1.88
278.383	30.89
278.599	41.13
278.814	30.89
279.03	37.03
279.245	88.23
279.461	37.03
279.676	71.85
279.892	-18.26
280.107	-8.02
280.322	-32.6
280.538	61.61
280.753	45.23
280.969	51.37
281.184	-44.88
281.399	34.99
281.615	37.03
281.83	41.13
282.045	16.55
282.26	-36.69
282.476	30.89
282.691	20.65
282.906	-67.41
283.122	53.42
283.337	45.23
283.552	6.31
283.767	26.79
283.983	43.18
284.198	-63.32
284.413	24.75
284.628	-42.84
284.843	28.84
285.058	34.99
285.274	-20.31
285.489	-18.26
285.704	100.52
285.919	-57.17
286.134	16.55
286.349	-40.79
286.564	-14.17
286.779	57.51
286.995	41.13
287.21	6.31
287.425	51.37
287.64	-30.55
287.855	45.23
288.07	6.31
288.285	90.28
288.5	39.08
288.715	28.84
288.93	0.17
289.145	24.75
289.36	49.32
289.575	-8.02
289.79	-8.02
290.004	-28.5
290.219	82.09
290.434	12.46
290.649	30.89
290.864	24.75
291.079	82.09
291.294	34.99
291.509	-1.88
291.724	65.71
291.938	65.71
292.153	61.61
292.368	57.51
292.583	12.46
292.798	75.95
293.012	86.19
293.227	80.04
293.442	82.09
293.657	-18.26
293.871	67.75
294.086	-12.12
294.301	71.85
294.516	65.71
294.73	41.13
294.945	65.71
295.16	26.79
295.374	41.13
295.589	143.53
295.804	-18.26
296.018	20.65
296.233	30.89
296.447	47.27
296.662	-24.4
296.877	0.17
297.091	55.47
297.306	-32.6
297.52	2.22
297.735	-10.07
297.949	98.47
298.164	51.37
298.378	49.32
298.593	37.03
298.807	-22.36
299.022	32.94
299.236	51.37
299.451	-10.07
299.665	32.94
299.88	47.27
300.094	43.18
300.309	12.46
300.523	114.86
300.737	-3.93
300.952	2.22
301.166	49.32
301.381	45.23
301.595	-10.07
301.809	86.19
302.024	0.17
302.238	14.51
302.452	34.99
302.667	-8.02
302.881	80.04
303.095	-28.5
303.309	-10.07
303.524	34.99
303.738	4.27
303.952	2.22
304.166	-24.4
304.381	-20.31
304.595	65.71
304.809	8.36
305.023	32.94
305.237	-51.03
305.452	-8.02
305.666	16.55
305.88	82.09
306.094	67.75
306.308	-12.12
306.522	26.79
306.736	37.03
306.95	100.52
307.164	8.36
307.379	-71.51
307.593	145.58
307.807	98.47
308.021	20.65
308.235	53.42
308.449	59.56
308.663	0.17
308.877	65.71
309.091	-24.4
309.305	116.9
309.519	30.89
309.733	16.55
309.947	4.27
310.161	20.65
310.374	10.41
310.588	34.99
310.802	-16.21
311.016	-8.02
311.23	6.31
311.444	69.8
311.658	61.61
311.872	129.19
312.085	69.8
312.299	133.29
312.513	4.27
312.727	67.75
312.941	24.75
313.154	53.42
313.368	43.18
313.582	41.13
313.796	45.23
314.009	-14.17
314.223	-16.21
314.437	57.51
314.651	-14.17
314.864	63.66
315.078	22.7
315.292	32.94
315.505	6.31
315.719	49.32
315.933	53.42
316.146	37.03
316.36	-14.17
316.573	16.55
316.787	41.13
317.001	94.38
317.214	55.47
317.428	-30.55
317.641	20.65
317.855	26.79
318.068	57.51
318.282	102.57
318.495	77.99
318.709	28.84
318.922	8.36
319.136	67.75
319.349	16.55
319.563	34.99
319.776	71.85
319.99	-18.26
320.203	39.08
320.417	34.99
320.63	53.42
320.843	84.14
321.057	12.46
321.27	53.42
321.483	26.79
321.697	67.75
321.91	-12.12
322.124	-1.88
322.337	47.27
322.55	0.17
322.763	-1.88
322.977	43.18
323.19	-34.64
323.403	43.18
323.617	41.13
323.83	47.27
324.043	63.66
324.256	28.84
324.469	41.13
324.683	96.43
324.896	45.23
325.109	47.27
325.322	24.75
325.535	108.71
325.748	16.55
325.962	-10.07
326.175	51.37
326.388	73.9
326.601	-5.97
326.814	112.81
327.027	65.71
327.24	57.51
327.453	-32.6
327.666	-8.02
327.879	71.85
328.092	61.61
328.305	-12.12
328.518	8.36
328.731	-1.88
328.944	108.71
329.157	82.09
329.37	24.75
329.583	65.71
329.796	104.62
330.009	-61.27
330.222	16.55
330.435	108.71
330.648	57.51
330.861	8.36
331.073	59.56
331.286	123.05
331.499	41.13
331.712	-32.6
331.925	39.08
332.138	41.13
332.35	104.62
332.563	45.23
332.776	49.32
332.989	0.17
333.202	-3.93
333.414	37.03
333.627	59.56
333.84	-16.21
334.053	2.22
334.265	-32.6
334.478	30.89
334.691	-32.6
334.903	41.13
335.116	-30.55
335.329	4.27
335.541	37.03
335.754	112.81
335.966	-18.26
336.179	30.89
336.392	90.28
336.604	14.51
336.817	53.42
337.029	65.71
337.242	71.85
337.454	6.31
337.667	30.89
337.88	129.19
338.092	10.41
338.305	49.32
338.517	4.27
338.729	75.95
338.942	69.8
339.154	-8.02
339.367	47.27
339.579	24.75
339.792	-8.02
340.004	32.94
340.217	39.08
340.429	47.27
340.641	-3.93
340.854	6.31
341.066	24.75
341.278	104.62
341.491	55.47
341.703	32.94
341.915	0.17
342.128	71.85
342.34	-8.02
342.552	-20.31
342.764	43.18
342.977	39.08
343.189	20.65
343.401	65.71
343.613	-30.55
343.826	69.8
344.038	8.36
344.25	41.13
344.462	16.55
344.674	77.99
344.886	28.84
345.099	-26.45
345.311	8.36
345.523	88.23
345.735	16.55
345.947	49.32
346.159	65.71
346.371	47.27
346.583	20.65
346.795	131.24
347.007	32.94
347.219	0.17
347.431	41.13
347.643	16.55
347.855	-42.84
348.067	69.8
348.279	37.03
348.491	139.43
348.703	-18.26
348.915	61.61
349.127	71.85
349.339	37.03
349.551	6.31
349.763	30.89
349.975	45.23
350.187	14.51
350.399	92.33
350.61	16.55
350.822	47.27
351.034	39.08
351.246	-16.21
351.458	-1.88
351.669	110.76
351.881	65.71
352.093	-36.69
352.305	102.57
352.517	82.09
352.728	67.75
352.94	69.8
353.152	129.19
353.363	43.18
353.575	0.17
353.787	75.95
353.999	16.55
354.21	88.23
354.422	10.41
354.633	16.55
354.845	82.09
355.057	-12.12
355.268	69.8
355.48	4.27
355.692	-14.17
355.903	-40.79
356.115	4.27
356.326	39.08
356.538	69.8
356.749	61.61
356.961	47.27
357.172	16.55
357.384	37.03
357.595	32.94
357.807	28.84
358.018	-3.93
358.23	32.94
358.441	24.75
358.653	63.66
358.864	0.17
359.075	0.17
359.287	43.18
359.498	37.03
359.709	80.04
359.921	61.61
360.132	65.71
360.344	-8.02
360.555	2.22
360.766	69.8
360.977	8.36
361.189	30.89
361.4	47.27
361.611	88.23
361.823	39.08
362.034	69.8
362.245	-40.79
362.456	-22.36
362.667	57.51
362.879	43.18
363.09	37.03
363.301	86.19
363.512	45.23
363.723	96.43
363.935	45.23
364.146	4.27
364.357	6.31
364.568	49.32
364.779	-1.88
364.99	121
365.201	-44.88
365.412	37.03
365.623	-61.27
365.834	2.22
366.045	-18.26
366.256	94.38
366.467	98.47
366.678	-28.5
366.889	20.65
367.1	49.32
367.311	6.31
367.522	2.22
367.733	-44.88
367.944	4.27
368.155	47.27
368.366	67.75
368.577	53.42
368.788	86.19
368.999	24.75
369.209	32.94
369.42	82.09
369.631	121
369.842	82.09
370.053	16.55
370.264	37.03
370.474	49.32
370.685	16.55
370.896	-32.6
371.107	34.99
371.317	49.32
371.528	-3.93
371.739	98.47
371.95	63.66
372.16	14.51
372.371	61.61
372.582	26.79
372.792	63.66
373.003	26.79
373.214	45.23
373.424	-30.55
373.635	20.65
373.846	94.38
374.056	61.61
374.267	69.8
374.477	71.85
374.688	32.94
374.898	84.14
375.109	123.05
375.319	86.19
375.53	32.94
375.74	-12.12
375.951	2.22
376.161	28.84
376.372	100.52
376.582	12.46
376.793	123.05
377.003	65.71
377.214	59.56
377.424	-24.4
377.635	16.55
377.845	34.99
378.055	131.24
378.266	41.13
378.476	20.65
378.686	30.89
378.897	80.04
379.107	86.19
379.317	65.71
379.528	8.36
379.738	92.33
379.948	41.13
380.158	61.61
380.369	53.42
380.579	92.33
380.789	8.36
380.999	4.27
381.21	73.9
381.42	98.47
381.63	32.94
381.84	65.71
382.05	114.86
382.261	73.9
382.471	92.33
382.681	49.32
382.891	139.43
383.101	-5.97
383.311	112.81
383.521	59.56
383.731	2.22
383.941	86.19
384.151	65.71
384.361	37.03
384.571	73.9
384.781	53.42
384.991	10.41
385.201	80.04
385.411	43.18
385.621	73.9
385.831	6.31
386.041	123.05
386.251	100.52
386.461	77.99
386.671	16.55
386.881	98.47
387.091	53.42
387.301	30.89
387.511	24.75
387.72	4.27
387.93	37.03
388.14	32.94
388.35	-5.97
388.56	121
388.769	41.13
388.979	53.42
389.189	43.18
389.399	82.09
389.609	41.13
389.818	32.94
390.028	90.28
390.238	18.6
390.447	100.52
390.657	90.28
390.867	90.28
391.076	65.71
391.286	0.17
391.496	118.95
391.705	18.6
391.915	32.94
392.125	61.61
392.334	102.57
392.544	82.09
392.753	39.08
392.963	-14.17
393.172	22.7
393.382	22.7
393.591	94.38
393.801	71.85
394.01	80.04
394.22	96.43
394.429	61.61
394.639	8.36
394.848	96.43
395.058	49.32
395.267	121
395.477	24.75
395.686	88.23
395.895	133.29
396.105	100.52
396.314	69.8
396.524	51.37
396.733	69.8
396.942	121
397.152	102.57
397.361	104.62
397.57	92.33
397.78	63.66
397.989	82.09
398.198	209.06
398.407	135.34
398.617	90.28
398.826	67.75
399.035	88.23
399.244	39.08
399.453	88.23
399.663	65.71
399.872	18.6
400.081	49.32
400.29	110.76
400.499	106.67
400.708	106.67
400.917	100.52
401.127	94.38
401.336	92.33
401.545	106.67
401.754	123.05
401.963	182.44
402.172	106.67
402.381	69.8
402.59	114.86
402.799	135.34
403.008	155.82
403.217	114.86
403.426	96.43
403.635	45.23
403.844	155.82
404.053	84.14
404.262	53.42
404.471	174.25
404.68	73.9
404.888	135.34
405.097	139.43
405.306	84.14
405.515	151.72
405.724	174.25
405.933	229.54
406.142	133.29
406.35	192.68
406.559	192.68
406.768	153.77
406.977	231.59
407.185	204.97
407.394	174.25
407.603	204.97
407.812	190.63
408.02	245.93
408.229	184.49
408.438	188.58
408.646	223.4
408.855	247.97
409.064	256.17
409.272	303.27
409.481	268.45
409.69	286.89
409.898	213.16
410.107	336.04
410.315	362.66
410.524	290.98
410.733	401.57
410.941	290.98
411.15	463.01
411.358	344.23
411.567	342.18
411.775	385.19
411.984	440.48
412.192	487.59
412.401	448.68
412.609	514.21
412.818	463.01
413.026	520.35
413.234	557.22
413.443	497.83
413.651	485.54
413.86	569.51
414.068	651.42
414.276	592.03
414.485	659.62
414.693	540.83
414.901	657.57
415.11	643.23
415.318	632.99
415.526	729.25
415.734	774.3
415.943	798.88
416.151	807.07
416.359	749.73
416.567	882.85
416.776	860.32
416.984	878.75
417.192	958.62
417.4	1022.11
417.608	950.43
417.817	1093.79
418.025	972.96
418.233	1185.94
418.441	1099.93
418.649	1077.4
418.857	1300.63
419.065	1325.21
419.273	1276.06
419.481	1388.69
419.689	1450.13
419.897	1505.43
420.105	1519.76
420.313	1515.67
420.521	1677.46
420.729	1656.98
420.937	1566.87
421.145	1912.97
421.353	1945.74
421.561	1892.49
421.769	1941.65
421.977	1882.25
422.185	2091.15
422.393	2119.82
422.601	2259.08
422.809	2203.79
423.017	2177.16
423.224	2398.34
423.432	2580.61
423.64	2521.22
423.848	2742.4
424.056	2588.8
424.263	2805.89
424.471	2818.18
424.679	2930.81
424.887	3072.12
425.094	3125.37
425.302	3031.16
425.51	3158.14
425.718	3375.22
425.925	3356.79
426.133	3571.83
426.341	3706.99
426.548	3799.15
426.756	3752.05
426.964	4008.05
427.171	4102.25
427.379	4186.22
427.586	4321.38
427.794	4391.02
428.001	4806.75
428.209	4698.21
428.417	4595.81
428.624	5156.96
428.832	5056.61
429.039	4968.54
429.247	5054.56
429.454	5533.78
429.662	5791.83
429.869	5589.08
430.076	5941.33
430.284	5820.5
430.491	5986.38
430.699	6602.82
430.906	6426.7
431.114	6441.03
431.321	6713.41
431.528	6770.76
431.736	7149.63
431.943	7569.46
432.15	7346.23
432.358	7395.39
432.565	7698.49
432.772	7909.43
432.979	8157.23
433.187	8286.25
433.394	8304.68
433.601	9087.01
433.808	9105.44
434.016	8771.62
434.223	9154.59
434.43	9738.26
434.637	9527.32
434.844	10199.06
435.052	10493.96
435.259	10340.36
435.466	10524.68
435.673	10125.33
435.88	11026.43
436.087	11546.62
436.294	11632.63
436.501	11229.18
436.708	11630.59
436.915	11857.91
437.122	12560.36
437.329	12623.85
437.537	12642.28
437.743	13197.28
437.95	12967.91
438.157	13504.48
438.364	14118.87
438.571	14161.87
438.778	14092.24
438.985	15536.06
439.192	14884.81
439.399	15267.78
439.606	15081.41
439.813	15716.28
440.02	16846.76
440.227	16320.43
440.433	16111.54
440.64	16824.23
440.847	16695.21
441.054	17129.38
441.261	18225.04
441.467	18016.15
441.674	18409.36
441.881	19011.46
442.088	19175.3
442.294	18380.69
442.501	19148.68
442.708	19734.4
442.914	20576.11
443.121	21405.54
443.328	20760.43
443.534	22161.24
443.741	21507.94
443.948	21116.78
444.154	22996.81
444.361	22349.65
444.568	23007.05
444.774	22845.26
444.981	23123.79
445.187	23328.58
445.394	24600.37
445.6	24465.21
445.807	26879.76
446.013	25612.07
446.22	26298.14
446.426	26840.85
446.633	27422.47
446.839	28002.05
447.046	27107.09
447.252	28540.66
447.459	28178.17
447.665	28493.56
447.871	29521.64
448.078	30736.09
448.284	28937.97
448.491	29765.35
448.697	31188.69
448.903	31717.06
449.11	31653.58
449.316	30987.99
449.522	31692.49
449.728	32810.68
449.935	32628.41
450.141	32812.73
450.347	33461.93
450.553	32370.36
450.76	32925.36
450.966	34043.56
451.172	33560.23
451.378	34014.88
451.584	33711.78
451.791	34236.06
451.997	34172.58
452.203	34762.39
452.409	34684.57
452.615	34588.31
452.821	33255.09
453.027	32868.02
453.233	34582.17
453.44	33099.44
453.646	33621.67
453.852	33687.21
454.058	34088.61
454.264	32689.85
454.47	33828.52
454.676	32919.22
454.882	34137.76
455.088	31188.69
455.294	31192.78
455.5	31645.38
455.705	32200.38
455.911	30703.32
456.117	30242.53
456.323	29796.07
456.529	28575.48
456.735	29150.96
456.941	28438.26
457.147	27924.22
457.352	27268.87
457.558	26957.58
457.764	27047.69
457.97	26314.52
458.176	25730.85
458.381	26162.97
458.587	24844.08
458.793	24428.34
458.999	23318.34
459.204	25157.42
459.41	23930.69
459.616	22826.83
459.821	22624.08
460.027	22572.88
460.233	22200.15
460.438	21079.91
460.644	21641.06
460.85	20279.16
461.055	20244.34
461.261	19982.2
461.466	18495.38
461.672	17727.39
461.878	19242.89
462.083	17934.23
462.289	17612.7
462.494	17588.13
462.7	16512.94
462.905	16254.9
463.111	16838.57
463.316	16785.32
463.522	16482.22
463.727	16504.75
463.932	16424.88
464.138	16478.13
464.343	16420.78
464.549	15970.23
464.754	16572.33
464.959	16328.63
465.165	16097.21
465.37	15435.71
465.575	14893
465.781	15665.08
465.986	15812.54
466.191	15251.39
466.397	14852.04
466.602	14327.76
466.807	14890.95
467.012	14632.91
467.218	14712.78
467.423	14444.49
467.628	14608.33
467.833	15157.19
468.038	14671.82
468.244	14178.26
468.449	14563.28
468.654	14288.85
468.859	14208.98
469.064	14219.22
469.269	13627.35
469.474	13770.71
469.679	14010.32
469.885	13408.22
470.09	13627.35
470.295	13377.5
470.5	13066.21
470.705	13242.34
470.91	13096.93
471.115	13174.75
471.32	12902.37
471.525	12976.1
471.73	12699.62
471.935	12820.46
472.139	12251.12
472.344	12488.68
472.549	12474.35
472.754	12146.67
472.959	12025.84
473.164	11790.33
473.369	11468.8
473.574	12085.23
473.778	11796.47
473.983	11749.37
474.188	11536.38
474.393	11139.07
474.598	11204.61
474.802	11126.78
475.007	10790.92
475.212	10940.42
475.417	10887.17
475.621	10428.43
475.826	10590.22
476.031	10502.15
476.235	10024.98
476.44	10362.89
476.645	10186.77
476.849	10082.32
477.054	10192.91
477.259	9947.15
477.463	10018.83
477.668	9596.95
477.872	9955.35
478.077	9674.78
478.282	9340.96
478.486	9392.16
478.691	9291.8
478.895	9142.3
479.1	9285.66
479.304	9281.57
479.509	8859.68
479.713	9078.82
479.918	9058.34
480.122	8712.23
480.326	8962.08
480.531	8953.89
480.735	8908.83
480.94	8912.93
481.144	9019.43
481.348	8523.82
481.553	8763.43
481.757	8548.39
481.961	8636.45
482.166	8683.56
482.37	8880.16
482.574	8550.44
482.778	8689.7
482.983	8732.71
483.187	8597.54
483.391	8728.61
483.595	8431.66
483.8	8634.41
484.004	8622.12
484.208	8826.92
484.412	8581.16
484.616	8568.87
484.821	8552.49
485.025	8515.62
485.229	8493.1
485.433	8478.76
485.637	8482.86
485.841	8329.26
486.045	8583.21
486.249	8736.81
486.453	8507.43
486.657	8505.38
486.861	8532.01
487.065	8396.84
487.269	8575.02
487.473	8335.4
487.677	8388.65
487.881	8704.04
488.085	8470.57
488.289	8624.17
488.493	8413.23
488.697	8499.24
488.901	8736.81
489.105	8507.43
489.309	8597.54
489.512	8620.07
489.716	8593.45
489.92	8634.41
490.124	8736.81
490.328	8648.74
490.531	8581.16
490.735	8839.2
490.939	8882.21
491.143	8701.99
491.346	8869.92
491.55	8841.25
491.754	8947.75
491.958	9037.86
492.161	8945.7
492.365	9140.26
492.569	8857.64
492.772	8937.51
492.976	8894.5
493.18	9097.25
493.383	9211.93
493.587	9224.22
493.79	9431.07
493.994	9236.51
494.197	9250.85
494.401	9527.32
494.605	9586.71
494.808	9685.01
495.012	9752.6
495.215	9787.41
495.419	9912.34
495.622	9709.59
495.825	10141.71
496.029	9912.34
496.232	9998.35
496.436	10067.99
496.639	10410
496.843	10276.88
497.046	10506.25
497.249	10749.96
497.453	10897.41
497.656	10928.13
497.859	10903.56
498.063	10965
498.266	11030.53
498.469	11159.55
498.673	11388.92
498.876	11503.61
499.079	11634.68
499.282	11470.84
499.485	11935.73
499.689	11825.14
499.892	12034.04
500.095	11950.07
500.298	12533.74
500.501	12326.89
500.705	12603.37
500.908	12787.69
501.111	12892.13
501.314	13023.2
501.517	13469.66
501.72	13193.19
501.923	13246.43
502.126	13610.97
502.329	13864.92
502.532	13684.7
502.735	14088.15
502.938	14333.9
503.141	14276.56
503.344	14329.81
503.547	14684.11
503.75	14624.72
503.953	15009.73
504.156	15079.36
504.359	15333.31
504.562	15472.57
504.765	15579.07
504.968	15730.62
505.17	16035.77
505.373	16091.06
505.576	16101.3
505.779	16474.03
505.982	16543.66
506.185	16684.97
506.387	17004.46
506.59	17098.66
506.793	17520.54
506.996	17416.1
507.198	17817.5
507.401	17776.54
507.604	18018.2
507.807	18169.75
508.009	18608.01
508.212	18612.11
508.415	18663.31
508.617	18941.83
508.82	18976.65
509.022	18941.83
509.225	19685.25
509.428	19675.01
509.63	19746.69
509.833	20111.22
510.035	20524.91
510.238	20297.59
510.44	20604.78
510.643	21018.47
510.845	21036.91
511.048	21051.24
511.25	21421.92
511.453	21878.62
511.655	22230.87
511.858	21886.81
512.06	22308.69
512.262	22687.57
512.465	22458.2
512.667	22986.57
512.87	23232.33
513.072	23000.91
513.274	23654.21
513.477	23828.29
513.679	24051.52
513.881	24100.67
514.084	24403.77
514.286	24536.88
514.488	24889.13
514.69	25732.9
514.893	25757.47
515.095	25587.49
515.297	25909.02
515.499	26048.29
515.701	26398.49
515.904	26816.27
516.106	26937.1
516.308	26982.16
516.51	27569.93
516.712	27205.39
516.914	27922.18
517.116	28233.47
517.318	28722.93
517.52	28301.05
517.722	28716.79
517.925	28690.16
518.127	29722.34
518.329	29849.32
518.531	29275.88
518.733	29968.1
518.935	30260.96
519.136	30260.96
519.338	30838.48
519.54	30787.28
519.742	31043.28
519.944	31205.07
520.146	31913.67
520.348	31643.34
520.55	32296.64
520.752	32122.56
520.954	33119.92
521.155	32536.25
521.357	33033.91
521.559	33662.63
521.761	33844.9
521.963	33488.56
522.164	33926.82
522.366	34193.06
522.568	34625.18
522.77	34950.81
522.971	35239.57
523.173	34926.23
523.375	35276.43
523.576	35473.04
523.778	35786.38
523.98	36032.13
524.181	36314.75
524.383	36472.45
524.584	36568.7
524.786	36644.48
524.988	36802.17
525.189	37152.37
525.391	37541.49
525.592	37777
525.794	37680.75
525.995	37846.63
526.197	38196.84
526.398	38065.77
526.6	38225.51
526.801	38561.37
527.003	39048.79
527.204	38631.01
527.406	39122.52
527.607	38878.81
527.808	39208.53
528.01	38798.94
528.211	38987.35
528.412	39808.59
528.614	39904.84
528.815	39956.04
529.016	40283.72
529.218	39702.09
529.419	40420.93
529.62	39984.71
529.822	40451.65
530.023	40064.58
530.224	40130.12
530.425	40457.79
530.626	40023.62
530.828	40330.82
531.029	41041.46
531.23	40494.66
531.431	40603.2
531.632	40717.89
531.833	40605.25
532.035	40973.88
532.236	41094.71
532.437	40816.19
532.638	41117.24
532.839	41475.63
533.04	41293.36
533.241	40697.41
533.442	41985.58
533.643	41426.48
533.844	41483.83
534.045	41616.94
534.246	41096.76
534.447	41449.01
534.648	41356.85
534.849	41168.44
535.05	41139.77
535.251	41186.87
535.451	41479.73
535.652	41453.11
535.853	41231.93
536.054	41690.67
536.255	41903.66
536.456	41014.84
536.657	42126.89
536.857	41246.26
537.058	41461.3
537.259	41600.56
537.46	41752.11
537.66	41578.03
537.861	41614.9
538.062	41492.02
538.263	42253.86
538.463	41150.01
538.664	41850.41
538.865	41924.14
539.065	41539.12
539.266	41143.86
539.466	41911.85
539.667	41340.47
539.868	42309.16
540.068	41305.65
540.269	41561.65
540.469	41666.09
540.67	41754.16
540.87	41410.1
541.071	41662
541.271	41551.41
541.472	41637.42
541.672	41391.67
541.873	41567.79
542.073	40812.09
542.274	41444.91
542.474	41072.18
542.675	41338.42
542.875	41700.91
543.075	41344.56
543.276	41059.9
543.476	41471.54
543.676	41375.28
543.877	41592.37
544.077	41647.66
544.277	41307.7
544.478	41377.33
544.678	41688.62
544.878	41094.71
545.078	41350.71
545.279	41203.25
545.479	41272.88
545.679	41188.92
545.879	41180.73
546.079	40959.55
546.28	41297.46
546.48	41256.5
546.68	41391.67
546.88	41201.21
547.08	41027.13
547.28	41281.08
547.48	41236.02
547.68	41297.46
547.88	41147.96
548.081	41397.81
548.281	40801.85
548.481	41190.97
548.681	41008.7
548.881	40511.04
549.081	41172.53
549.28	41023.03
549.48	41573.94
549.68	41002.55
549.88	41555.5
550.08	40703.55
550.28	41203.25
550.48	40957.5
550.68	41403.95
550.88	40457.79
551.08	40724.03
551.279	40977.98
551.479	40592.96
551.679	40879.67
551.879	40894.01
552.079	41176.63
552.278	40461.89
552.478	40691.26
552.678	40941.11
552.878	41109.05
553.077	40597.06
553.277	40599.1
553.477	40957.5
553.676	40474.18
553.876	40744.51
554.076	40617.53
554.275	40613.44
554.475	39870.03
554.674	40996.41
554.874	40668.73
555.074	40427.07
555.273	40453.7
555.473	40910.39
555.672	40277.57
555.872	40427.07
556.071	40425.03
556.271	40554.05
556.47	39902.79
556.67	39913.03
556.869	39839.31
557.068	39937.61
557.268	39966.28
557.467	40195.65
557.667	40126.02
557.866	40265.28
558.065	39530.06
558.265	39323.22
558.464	39212.63
558.663	39880.27
558.863	39366.23
559.062	40222.28
559.261	39382.61
559.461	39630.41
559.66	39444.05
559.859	39564.88
560.058	39315.03
560.258	39480.91
560.457	38983.26
560.656	39366.23
560.855	39388.75
561.054	39016.02
561.253	38370.91
561.453	39179.86
561.652	39122.52
561.851	39325.27
562.05	38563.42
562.249	38671.96
562.448	38485.6
562.647	38510.18
562.846	38764.12
563.045	38618.72
563.244	37926.5
563.443	38590.05
563.642	37789.29
563.841	37635.69
564.04	38037.09
564.239	38147.68
564.438	37785.19
564.637	38250.08
564.836	37899.88
565.035	37187.19
565.234	37496.43
565.432	37402.22
565.631	37469.81
565.83	37414.51
566.029	37480.05
566.228	37240.43
566.427	36812.41
566.625	36947.57
566.824	36710.01
567.023	36890.23
567.222	36009.61
567.42	36857.46
567.619	36318.85
567.818	36722.3
568.016	36341.38
568.215	36185.73
568.414	36361.86
568.612	36382.34
568.811	35911.3
569.01	36241.03
569.208	35946.12
569.407	36066.95
569.605	35284.62
569.804	35907.21
570.002	35294.86
570.201	35759.75
570.4	34645.66
570.598	35333.78
570.797	35337.87
570.995	35083.92
571.193	34485.92
571.392	35255.95
571.59	34584.22
571.789	34727.58
571.987	34784.92
572.186	34188.96
572.384	34203.3
572.582	34311.84
572.781	34387.61
572.979	33609.39
573.177	34180.77
573.376	34244.26
573.574	33711.78
573.772	34104.99
573.971	34141.86
574.169	33722.02
574.367	33549.99
574.565	33527.47
574.763	33326.77
574.962	33115.83
575.16	33019.57
575.358	33210.03
575.556	33095.35
575.754	33181.36
575.952	32755.38
576.151	33025.71
576.349	32827.06
576.547	32425.66
576.745	32689.85
576.943	32319.17
577.141	32358.08
577.339	32659.13
577.537	32335.55
577.735	32274.11
577.933	31817.41
578.131	32038.59
578.329	31919.81
578.527	31590.09
578.725	31526.6
578.923	31522.51
579.121	31590.09
579.319	31309.52
579.516	31411.92
579.714	31258.32
579.912	31225.55
580.11	31133.39
580.308	30854.87
580.506	31407.82
580.704	30713.56
580.901	30832.34
581.099	31213.26
581.297	30510.81
581.495	30322.4
581.692	30639.83
581.89	30207.71
582.088	30338.78
582.285	30275.29
582.483	30322.4
582.681	30426.84
582.878	30258.91
583.076	29542.12
583.274	30129.89
583.471	29961.95
583.669	29329.13
583.866	29505.26
584.064	29671.14
584.262	29255.4
584.459	29615.85
584.657	29083.37
584.854	29372.14
585.052	28749.56
585.249	29265.64
585.447	29085.42
585.644	28985.07
585.841	28964.59
586.039	29085.42
586.236	28555
586.434	28473.08
586.631	28358.39
586.828	28481.27
587.026	28296.95
587.223	28012.29
587.42	27989.76
587.618	28071.68
587.815	28016.38
588.012	27705.09
588.21	27864.83
588.407	27934.46
588.604	27432.71
588.801	27692.8
588.999	27596.55
589.196	27703.04
589.393	27389.7
589.59	27012.88
589.787	27225.87
589.984	27027.21
590.182	26734.35
590.379	27189
590.576	27107.09
590.773	26965.78
590.97	26552.09
591.167	26752.79
591.364	26900.24
591.561	26251.03
591.758	26111.77
591.955	26312.47
592.152	26345.24
592.349	26160.92
592.546	26349.34
592.743	25995.04
592.94	25657.12
593.137	26091.29
593.334	25978.65
593.531	25446.18
593.727	25741.09
593.924	25636.64
594.121	25216.81
594.318	25247.53
594.515	25239.34
594.712	25571.11
594.908	25202.47
595.105	25528.1
595.302	24901.42
595.499	24993.58
595.696	25079.6
595.892	24801.07
596.089	25079.6
596.286	24598.32
596.482	24696.63
596.679	24727.35
596.876	24764.21
597.072	24444.73
597.269	24577.84
597.466	24137.53
597.662	24284.98
597.859	24223.55
598.055	24360.76
598.252	24270.65
598.448	23811.9
598.645	23963.45
598.841	23549.76
599.038	24012.6
599.234	24094.52
599.431	23850.81
599.627	23680.83
599.824	23383.88
600.02	23324.49
600.217	23525.19
600.413	23326.53
600.609	22959.95
600.806	23287.62
601.002	23111.5
601.198	23029.58
601.395	22628.18
601.591	22789.97
601.787	22421.33
601.984	22507.35
602.18	22720.34
602.376	22589.27
602.572	22521.68
602.769	22308.69
602.965	22060.89
603.161	22316.89
603.357	22148.95
603.553	22153.05
603.75	21890.91
603.946	22185.82
604.142	22028.12
604.338	21673.82
604.534	21858.14
604.73	21839.71
604.926	21563.23
605.122	21679.97
605.318	21485.41
605.514	21544.8
605.71	21221.22
605.906	21448.55
606.102	21458.79
606.298	21352.29
606.494	21151.59
606.69	21464.93
606.886	21297
607.082	20809.58
607.278	21094.25
607.474	20561.78
607.67	20981.61
607.866	20600.69
608.062	20887.4
608.257	20682.61
608.453	20739.95
608.649	20817.77
608.845	20330.36
609.041	20541.3
609.236	20328.31
609.432	20498.29
609.628	20397.94
609.824	20326.26
610.019	20293.49
610.215	20178.81
610.411	20125.56
610.606	20209.53
610.802	20041.59
610.998	20082.55
611.193	20242.29
611.389	19779.45
611.584	19926.91
611.78	20000.63
611.976	20035.45
612.171	20037.5
612.367	19836.8
612.562	19799.93
612.758	19576.7
612.953	19445.63
613.149	19756.93
613.344	19525.5
613.539	19918.71
613.735	19351.43
613.93	19857.28
614.126	19308.42
614.321	19763.07
614.517	19548.03
614.712	19097.48
614.907	19056.52
615.103	19160.97
615.298	19060.62
615.493	19308.42
615.688	19007.37
615.884	19406.72
616.079	18911.11
616.274	19077
616.47	18864.01
616.665	19031.94
616.86	18849.68
617.055	19044.23
617.25	18767.76
617.445	19089.29
617.641	18407.31
617.836	18706.32
618.031	18513.81
618.226	18921.35
618.421	18300.82
618.616	18655.12
618.811	18155.41
619.006	18519.95
619.201	18050.97
619.396	18509.71
619.591	17956.76
619.786	17948.57
619.981	17878.94
620.176	18044.82
620.371	17670.05
620.566	17600.41
620.761	17676.19
620.956	18120.6
621.151	17661.85
621.346	17446.82
621.541	17311.65
621.735	17459.1
621.93	17313.7
622.125	17223.59
622.32	16883.63
622.515	17119.14
622.709	16838.57
622.904	16850.86
623.099	16832.43
623.294	16693.16
623.488	16330.67
623.683	16816.04
623.878	16476.08
624.072	16469.94
624.267	16381.87
624.462	16234.42
624.656	15898.55
624.851	15804.35
625.046	15783.87
625.24	16084.92
625.435	15574.97
625.629	15644.6
625.824	15699.9
626.018	15570.88
626.213	14972.87
626.407	15681.47
626.602	15144.9
626.796	15286.21
626.991	15226.82
627.185	15048.65
627.38	14723.02
627.574	14874.57
627.768	14698.44
627.963	14680.01
628.157	14301.14
628.352	14462.93
628.546	14227.41
628.74	14415.82
628.935	14282.7
629.129	14233.55
629.323	14131.16
629.517	14057.43
629.712	14114.77
629.906	14098.39
630.1	13598.68
630.294	13942.74
630.489	13848.54
630.683	13776.86
630.877	13262.82
631.071	13371.36
631.265	13570.01
631.459	13365.21
631.653	13422.56
631.848	13148.13
632.042	12849.13
632.236	13129.7
632.43	13002.72
632.624	13062.12
632.818	12830.69
633.012	12769.26
633.206	12644.33
633.4	12894.18
633.594	12330.99
633.788	12632.04
633.982	12574.7
634.176	12476.4
634.369	12513.26
634.563	12400.62
634.757	12214.26
634.951	12423.15
635.145	12292.08
635.339	12013.56
635.533	11870.2
635.726	12042.23
635.92	11872.25
636.114	11696.12
636.308	11616.25
636.501	11517.95
636.695	11519.99
636.889	11448.32
637.083	11362.3
637.276	11325.44
637.47	11333.63
637.664	11220.99
637.857	11335.68
638.051	11069.44
638.244	11079.68
638.438	10932.23
638.632	11077.63
638.825	10928.13
639.019	10995.71
639.212	10663.94
639.406	10786.82
639.599	10569.74
639.793	10618.89
639.986	10274.83
640.18	10698.76
640.373	10342.41
640.567	10412.04
640.76	10303.5
640.954	10199.06
641.147	10027.03
641.34	10231.82
641.534	10213.39
641.727	10162.19
641.92	10217.49
642.114	10022.93
642.307	9965.59
642.5	9875.48
642.694	9838.61
642.887	9695.25
643.08	9877.52
643.273	9549.85
643.467	9578.52
643.66	9541.66
643.853	9562.14
644.046	9484.31
644.239	9633.82
644.432	9392.16
644.626	9347.1
644.819	9254.94
645.012	9162.78
645.205	9433.11
645.398	9267.23
645.591	9113.63
645.784	8994.85
645.977	8974.37
646.17	8847.4
646.363	8794.15
646.556	8636.45
646.749	8833.06
646.942	8886.31
647.135	8671.27
647.328	8710.18
647.521	8671.27
647.714	8540.2
647.907	8536.1
648.099	8558.63
648.292	8466.47
648.485	8423.47
648.678	8312.88
648.871	8396.84
649.064	8185.9
649.256	8212.53
649.449	8179.76
649.642	8146.99
649.835	8073.26
650.027	7958.58
650.22	8040.5
650.413	7862.32
650.605	7870.51
650.798	7901.23
650.991	7882.8
651.183	7847.99
651.376	7602.23
651.568	7700.53
651.761	7798.84
651.954	7741.49
652.146	7534.65
652.339	7503.93
652.531	7608.37
652.724	7321.66
652.916	7376.95
653.109	7274.56
653.301	7260.22
653.494	7379
653.686	7211.07
653.879	7258.17
654.071	7211.07
654.263	7012.42
654.456	6883.39
654.648	7069.76
654.84	6889.54
655.033	7098.43
655.225	6885.44
655.417	6801.47
655.61	6910.02
655.802	6895.68
655.994	6717.51
656.186	6867.01
656.379	6651.97
656.571	6762.56
656.763	6555.72
656.955	6750.28
657.148	6617.16
657.34	6580.29
657.532	6426.7
657.724	6455.37
657.916	6434.89
658.108	6414.41
658.3	6541.38
658.492	6324.3
658.684	6379.59
658.876	6262.86
659.068	6352.97
659.26	6369.35
659.452	6262.86
659.644	6377.55
659.836	6053.97
660.028	6139.98
660.22	6101.07
660.412	6021.2
660.604	5978.19
660.796	6037.58
660.988	5959.76
661.18	5941.33
661.372	5867.6
661.563	5845.07
661.755	5886.03
661.947	5926.99
662.139	6039.63
662.331	5806.16
662.522	5840.98
662.714	5619.8
662.906	5623.89
663.097	5640.28
663.289	5539.93
663.481	5421.14
663.673	5679.19
663.864	5484.63
664.056	5486.68
664.247	5554.26
664.439	5288.03
664.631	5447.77
664.822	5357.66
665.014	5427.29
665.205	5359.7
665.397	5417.05
665.588	5269.59
665.78	5263.45
665.971	5206.11
666.163	5167.2
666.354	5277.79
666.546	5183.58
666.737	4952.16
666.929	5023.84
667.12	5181.53
667.311	5097.56
667.503	5015.65
667.694	5034.08
667.885	5128.28
668.077	5120.09
668.268	4919.39
668.459	5023.84
668.651	4966.49
668.842	4907.1
669.033	4917.34
669.224	4927.58
669.416	4909.15
669.607	4829.28
669.798	4921.44
669.989	4939.87
670.18	4804.71
670.371	4870.24
670.563	4647.01
670.754	4749.41
670.945	4687.97
671.136	4677.73
671.327	4642.92
671.518	4747.36
671.709	4759.65
671.9	4685.92
672.091	4622.44
672.282	4735.07
672.473	4655.2
672.664	4669.54
672.855	4491.37
673.046	4653.16
673.237	4608.1
673.428	4438.12
673.619	4540.52
673.809	4505.7
674	4491.37
674.191	4546.66
674.382	4487.27
674.573	4427.88
674.764	4399.21
674.954	4503.65
675.145	4411.5
675.336	4407.4
675.527	4440.17
675.717	4446.31
675.908	4360.3
676.099	4448.36
676.289	4319.34
676.48	4345.96
676.671	4243.56
676.861	4266.09
677.052	4335.72
677.243	4286.57
677.433	4335.72
677.624	4368.49
677.814	4407.4
678.005	4233.32
678.195	4266.09
678.386	4280.43
678.576	4089.96
678.767	4218.99
678.957	4208.75
679.148	4202.6
679.338	4321.38
679.529	4214.89
679.719	4208.75
679.909	4151.4
680.1	4083.82
680.29	4163.69
680.481	4116.59
680.671	4210.79
680.861	4120.68
681.052	4077.68
681.242	4051.05
681.432	4124.78
681.622	4249.71
681.813	4077.68
682.003	3999.85
682.193	4094.06
682.383	4094.06
682.573	4165.74
682.764	4006
682.954	4139.12
683.144	4020.33
683.334	4147.31
683.524	4087.92
683.714	4026.48
683.904	3997.81
684.094	4030.57
684.284	3993.71
684.474	4081.77
684.664	4044.91
684.854	3876.98
685.044	4053.1
685.234	3913.84
685.424	3868.78
685.614	3975.28
685.804	4032.62
685.994	3897.46
686.184	4032.62
686.374	4010.09
686.564	4038.77
686.753	4014.19
686.943	3848.3
687.133	3915.89
687.323	3801.2
687.513	3946.61
687.702	3801.2
687.892	3774.58
688.082	3692.66
688.272	3809.39
688.461	3754.1
688.651	3776.63
688.841	3631.22
689.03	3682.42
689.22	3620.98
689.41	3635.32
689.599	3651.7
689.789	3571.83
689.979	3604.6
690.168	3600.5
690.358	3590.26
690.547	3520.63
690.737	3543.16
690.926	3586.16
691.116	3526.77
691.305	3465.33
691.495	3526.77
691.684	3391.61
691.874	3506.29
692.063	3514.49
692.252	3479.67
692.442	3385.46
692.631	3338.36
692.82	3430.52
693.01	3438.71
693.199	3262.58
693.388	3301.5
693.578	3414.13
693.767	3395.7
693.956	3281.02
694.146	3393.65
694.335	3377.27
694.524	3285.11
694.713	3502.2
694.902	3199.1
695.092	3375.22
695.281	3299.45
695.47	3197.05
695.659	3190.91
695.848	3160.19
696.037	3278.97
696.226	3248.25
696.415	3274.87
696.604	3098.75
696.793	3229.82
696.982	3051.64
697.171	3192.95
697.36	3192.95
697.549	3190.91
697.738	3145.85
697.927	3129.47
698.116	3260.54
698.305	3344.5
698.494	3035.26
698.683	3106.94
698.872	3100.8
699.061	3121.28
699.25	3070.08
699.438	3115.13
699.627	3002.49
699.816	3084.41
700.005	3068.03
700.193	3123.32
700.382	3039.36
700.571	3121.28
700.76	3170.43
700.948	3043.45
701.137	3080.32
701.326	3012.73
701.514	3031.16
701.703	3072.12
701.892	3070.08
702.08	3088.51
702.269	3098.75
702.457	3061.88
702.646	3059.84
702.834	3043.45
703.023	2975.87
703.212	3008.64
703.4	2990.21
703.589	2955.39
703.777	2990.21
703.965	2875.52
704.154	3063.93
704.342	3065.98
704.531	3004.54
704.719	3012.73
704.907	2932.86
705.096	2945.15
705.284	2922.62
705.472	3131.51
705.661	3043.45
705.849	3039.36
706.037	2912.38
706.226	3027.07
706.414	3047.55
706.602	2969.73
706.79	2906.24
706.979	2893.95
707.167	3063.93
707.355	2887.81
707.543	3039.36
707.731	3082.36
707.919	3100.8
708.107	2930.81
708.296	3020.92
708.484	2963.58
708.672	2926.72
708.86	2857.09
709.048	2900.09
709.236	2900.09
709.424	2955.39
709.612	2934.91
709.8	2865.28
709.988	2838.66
710.176	3004.54
710.364	2979.97
710.551	2955.39
710.739	3000.44
710.927	2896
711.115	2881.66
711.303	2945.15
711.491	2906.24
711.679	2996.35
711.866	2965.63
712.054	2982.01
712.242	2920.57
712.43	3068.03
712.617	2850.94
712.805	3018.88
712.993	2867.33
713.181	2912.38
713.368	2867.33
713.556	2953.34
713.744	2902.14
713.931	3111.04
714.119	2955.39
714.306	2936.96
714.494	2885.76
714.682	2779.26
714.869	2900.09
715.057	3002.49
715.244	2879.61
715.432	2910.33
715.619	2900.09
715.807	2908.29
715.994	2848.9
716.182	3014.78
716.369	2936.96
716.556	3074.17
716.744	2846.85
716.931	2879.61
717.119	3010.68
717.306	3012.73
717.493	2836.61
717.681	2914.43
717.868	2977.92
718.055	3031.16
718.242	3047.55
718.43	2900.09
718.617	2896
718.804	2908.29
718.991	2873.47
719.179	3049.6
719.366	2904.19
719.553	2953.34
719.74	2910.33
719.927	2850.94
720.114	2912.38
720.301	2877.57
720.488	2879.61
720.676	2744.45
720.863	2930.81
721.05	2850.94
721.237	2922.62
721.424	2816.13
721.611	2828.42
721.798	2838.66
721.985	2809.98
722.172	2887.81
722.358	2748.54
722.545	2918.53
722.732	2934.91
722.919	2906.24
723.106	2816.13
723.293	2801.79
723.48	2916.48
723.667	2875.52
723.853	2842.75
724.04	2932.86
724.227	2871.42
724.414	2717.83
724.6	2785.41
724.787	2742.4
724.974	2867.33
725.161	2850.94
725.347	2689.15
725.534	2902.14
725.72	2840.7
725.907	2793.6
726.094	2752.64
726.28	2707.59
726.467	2824.32
726.653	2801.79
726.84	2879.61
727.027	2934.91
727.213	2773.12
727.4	2758.78
727.586	2685.06
727.773	2809.98
727.959	2830.46
728.145	2820.22
728.332	2717.83
728.518	2799.74
728.705	2838.66
728.891	2766.98
729.077	2769.02
729.264	2789.5
729.45	2709.63
729.636	2898.05
729.823	2693.25
730.009	2744.45
730.195	2775.17
730.382	2832.51
730.568	2773.12
730.754	2586.76
730.94	2711.68
731.126	2742.4
731.313	2801.79
731.499	2728.07
731.685	2758.78
731.871	2758.78
732.057	2820.22
732.243	2697.35
732.429	2791.55
732.615	2705.54
732.801	2787.46
732.987	2705.54
733.173	2740.35
733.359	2697.35
733.545	2799.74
733.731	2699.39
733.917	2756.74
734.103	2734.21
734.289	2646.15
734.475	2658.43
734.661	2711.68
734.847	2635.91
735.033	2547.84
735.219	2603.14
735.404	2605.19
735.59	2701.44
735.776	2605.19
735.962	2629.76
736.148	2605.19
736.333	2615.43
736.519	2625.67
736.705	2619.52
736.89	2637.95
737.076	2650.24
737.262	2474.12
737.447	2588.8
737.633	2594.95
737.819	2635.91
738.004	2580.61
738.19	2597
738.375	2453.64
738.561	2564.23
738.747	2588.8
738.932	2510.98
739.118	2510.98
739.303	2621.57
739.489	2535.56
739.674	2418.82
739.859	2416.77
740.045	2386.05
740.23	2459.78
740.416	2508.93
740.601	2601.09
740.786	2465.93
740.972	2410.63
741.157	2478.21
741.342	2498.69
741.528	2302.09
741.713	2474.12
741.898	2447.49
742.084	2400.39
742.269	2478.21
742.454	2373.77
742.639	2322.57
742.824	2345.09
743.01	2330.76
743.195	2273.42
743.38	2269.32
743.565	2406.53
743.75	2316.42
743.935	2277.51
744.12	2375.81
744.305	2244.74
744.49	2250.89
744.675	2244.74
744.86	2250.89
745.045	2261.13
745.23	2244.74
745.415	2119.82
745.6	2173.07
745.785	2173.07
745.97	2195.59
746.155	2179.21
746.34	2146.44
746.525	2168.97
746.71	2115.72
746.895	2039.95
747.079	2121.87
747.264	2111.63
747.449	2017.42
747.634	1990.8
747.819	2029.71
748.003	2056.33
748.188	2025.61
748.373	2064.52
748.557	1986.7
748.742	1982.6
748.927	1960.08
749.111	1921.17
749.296	1978.51
749.481	1908.88
749.665	1888.4
749.85	1765.52
750.034	1859.73
750.219	1808.53
750.404	1818.77
750.588	1786
750.773	1888.4
750.957	1876.11
751.141	1802.38
751.326	1779.86
751.51	1714.32
751.695	1632.4
751.879	1761.42
752.064	1765.52
752.248	1708.18
752.432	1749.14
752.617	1706.13
752.801	1702.03
752.985	1654.93
753.17	1779.86
753.354	1611.92
753.538	1628.31
753.722	1472.66
753.907	1697.94
754.091	1495.19
754.275	1618.07
754.459	1489.04
754.643	1552.53
754.828	1585.3
755.012	1697.94
755.196	1515.67
755.38	1560.72
755.564	1482.9
755.748	1548.44
755.932	1491.09
756.116	1443.99
756.3	1415.32
756.484	1491.09
756.668	1523.86
756.852	1452.18
757.036	1439.89
757.22	1355.93
757.404	1394.84
757.588	1419.41
757.772	1468.56
757.956	1380.5
758.14	1392.79
758.323	1292.44
758.507	1280.15
758.691	1423.51
758.875	1368.21
759.059	1509.52
759.242	1274.01
759.426	1310.87
759.61	1239.19
759.794	1200.28
759.977	1267.86
760.161	1331.35
760.345	1220.76
760.528	1290.39
760.712	1286.3
760.895	1306.77
761.079	1259.67
761.263	1183.9
761.446	1220.76
761.63	1251.48
761.813	1177.75
761.997	1253.53
762.18	1228.95
762.364	1163.42
762.547	1091.74
762.731	1140.89
762.914	1169.56
763.098	1208.47
763.281	1144.99
763.464	1132.7
763.648	1140.89
763.831	1159.32
764.015	1132.7
764.198	1093.79
764.381	1114.27
764.564	1114.27
764.748	1097.88
764.931	1065.11
765.114	1149.08
765.297	1112.22
765.481	1042.59
765.664	1056.92
765.847	1087.64
766.03	1175.7
766.213	1130.65
766.397	1040.54
766.58	1118.36
766.763	1132.7
766.946	1061.02
767.129	1007.77
767.312	995.48
767.495	1040.54
767.678	1044.63
767.861	999.58
768.044	989.34
768.227	1048.73
768.41	925.85
768.593	1056.92
768.776	1052.83
768.959	952.48
769.142	983.2
769.324	989.34
769.507	1007.77
769.69	915.61
769.873	1005.72
770.056	981.15
770.239	962.72
770.421	911.52
770.604	989.34
770.787	929.95
770.97	866.46
771.152	872.61
771.335	815.26
771.518	901.28
771.7	884.89
771.883	958.62
772.066	897.18
772.248	942.24
772.431	954.52
772.613	876.7
772.796	905.37
772.978	860.32
773.161	872.61
773.343	876.7
773.526	868.51
773.708	753.82
773.891	833.69
774.073	815.26
774.256	800.93
774.438	868.51
774.621	805.02
774.803	843.93
774.985	792.73
775.168	766.11
775.35	798.88
775.532	794.78
775.715	788.64
775.897	925.85
776.079	831.65
776.261	772.25
776.444	721.06
776.626	817.31
776.808	696.48
776.99	686.24
777.173	704.67
777.355	753.82
777.537	706.72
777.719	653.47
777.901	622.75
778.083	751.78
778.265	721.06
778.447	747.68
778.629	684.19
778.811	643.23
778.993	688.29
779.175	655.52
779.357	655.52
779.539	628.9
779.721	661.66
779.903	680.1
780.085	696.48
780.267	622.75
780.449	665.76
780.631	612.51
780.812	706.72
780.994	596.13
781.176	608.42
781.358	725.15
781.54	577.7
781.721	622.75
781.903	544.93
782.085	628.9
782.267	565.41
782.448	499.88
782.63	508.07
782.812	557.22
782.993	559.27
783.175	551.07
783.357	510.11
783.538	567.46
783.72	473.25
783.901	501.92
784.083	473.25
784.264	530.59
784.446	446.63
784.627	528.55
784.809	510.11
784.99	407.72
785.172	530.59
785.353	544.93
785.535	583.84
785.716	506.02
785.897	487.59
786.079	499.88
786.26	465.06
786.441	395.43
786.623	420
786.804	471.2
786.985	460.96
787.167	372.9
787.348	471.2
787.529	409.76
787.71	452.77
787.891	440.48
788.073	465.06
788.254	360.61
788.435	483.49
788.616	526.5
788.797	329.89
788.978	465.06
789.159	438.44
789.34	354.47
789.522	469.16
789.703	405.67
789.884	446.63
790.065	450.72
790.246	440.48
790.427	430.24
790.607	426.15
790.788	342.18
790.969	256.17
791.15	377
791.331	395.43
791.512	350.37
791.693	321.7
791.874	377
792.054	426.15
792.235	372.9
792.416	340.13
792.597	299.17
792.778	293.03
792.958	422.05
793.139	366.76
793.32	323.75
793.5	391.33
793.681	323.75
793.862	340.13
794.042	301.22
794.223	237.74
794.404	327.85
794.584	307.37
794.765	307.37
794.945	336.04
795.126	374.95
795.306	346.28
795.487	288.93
795.667	221.35
795.848	323.75
796.028	233.64
796.209	303.27
796.389	305.32
796.57	323.75
796.75	231.59
796.93	309.41
797.111	260.26
797.291	250.02
797.471	344.23
797.652	260.26
797.832	325.8
798.012	325.8
798.192	211.11
798.373	233.64
798.553	274.6
798.733	260.26
798.913	262.31
799.093	239.78
799.274	268.45
799.454	338.09
799.634	399.52
799.814	346.28
799.994	204.97
800.174	282.79
800.354	239.78
800.534	170.15
800.714	202.92
800.894	252.07
801.074	260.26
801.254	247.97
801.434	209.06
801.614	252.07
801.794	207.02
801.974	696.48
802.154	186.54
802.334	235.69
802.514	225.45
802.693	213.16
802.873	196.78
803.053	274.6
803.233	237.74
803.413	198.82
803.592	194.73
803.772	239.78
803.952	254.12
804.131	235.69
804.311	266.41
804.491	194.73
804.67	192.68
804.85	225.45
805.03	198.82
805.209	198.82
805.389	233.64
805.568	243.88
805.748	143.53
805.928	260.26
806.107	262.31
806.287	209.06
806.466	194.73
806.646	209.06
806.825	202.92
807.004	170.15
807.184	186.54
807.363	258.21
807.543	250.02
807.722	166.06
807.901	280.74
808.081	262.31
808.26	180.39
808.439	237.74
808.619	190.63
808.798	250.02
808.977	194.73
809.156	137.38
809.336	213.16
809.515	317.61
809.694	180.39
809.873	202.92
810.052	112.81
810.231	241.83
810.411	200.87
810.59	207.02
810.769	204.97
810.948	180.39
811.127	96.43
811.306	166.06
811.485	121
811.664	217.26
811.843	176.3
812.022	192.68
812.201	155.82
812.38	166.06
812.559	174.25
812.737	180.39
812.916	200.87
813.095	211.11
813.274	135.34
813.453	63.66
813.632	112.81
813.811	164.01
813.989	157.86
814.168	135.34
814.347	96.43
814.526	207.02
814.704	190.63
814.883	178.34
815.062	77.99
815.24	200.87
815.419	151.72
815.598	125.1
815.776	137.38
815.955	170.15
816.133	47.27
816.312	172.2
816.49	166.06
816.669	145.58
816.847	96.43
817.026	161.96
817.204	211.11
817.383	139.43
817.561	90.28
817.74	157.86
817.918	137.38
818.097	108.71
818.275	168.1
818.453	133.29
818.632	110.76
818.81	209.06
818.988	98.47
819.167	84.14
819.345	129.19
819.523	151.72
819.701	59.56
819.879	188.58
820.058	159.91
820.236	116.9
820.414	131.24
820.592	127.14
820.77	188.58
820.948	133.29
821.127	98.47
821.305	192.68
821.483	129.19
821.661	141.48
821.839	71.85
822.017	47.27
822.195	53.42
822.373	166.06
822.551	139.43
822.729	131.24
822.907	67.75
823.085	118.95
823.262	92.33
823.44	110.76
823.618	123.05
823.796	145.58
823.974	77.99
824.152	100.52
824.329	34.99
824.507	102.57
824.685	37.03
824.863	131.24
825.04	145.58
825.218	219.3
825.396	129.19
825.574	106.67
825.751	188.58
825.929	125.1
826.107	129.19
826.284	98.47
826.462	98.47
826.639	77.99
826.817	77.99
826.994	41.13
827.172	112.81
827.349	116.9
827.527	102.57
827.704	153.77
827.882	116.9
828.059	86.19
828.237	180.39
828.414	77.99
828.591	96.43
828.769	141.48
828.946	63.66
829.124	88.23
829.301	96.43
829.478	116.9
829.655	90.28
829.833	90.28
830.01	41.13
830.187	51.37
830.364	73.9
830.542	37.03
830.719	112.81
830.896	112.81
831.073	123.05
831.25	110.76
831.427	153.77
831.604	73.9
831.782	12.46
831.959	102.57
832.136	110.76
832.313	153.77
832.49	20.65
832.667	164.01
832.844	82.09
833.021	125.1
833.198	90.28
833.374	65.71
833.551	100.52
833.728	123.05
833.905	53.42
834.082	55.47
834.259	49.32
834.436	123.05
834.612	10.41
834.789	114.86
834.966	98.47
835.143	80.04
835.319	53.42
835.496	112.81
835.673	32.94
835.85	102.57
836.026	65.71
836.203	114.86
836.38	41.13
836.556	82.09
836.733	49.32
836.909	164.01
837.086	43.18
837.262	67.75
837.439	59.56
837.616	98.47
837.792	73.9
837.968	49.32
838.145	51.37
838.321	69.8
838.498	73.9
838.674	67.75
838.851	86.19
839.027	96.43
839.203	22.7
839.38	24.75
839.556	57.51
839.732	75.95
839.909	47.27
840.085	51.37
840.261	12.46
840.437	73.9
840.614	73.9
840.79	112.81
840.966	94.38
841.142	108.71
841.318	-12.12
841.494	82.09
841.671	-8.02
841.847	32.94
842.023	30.89
842.199	55.47
842.375	98.47
842.551	127.14
842.727	20.65
842.903	20.65
843.079	49.32
843.255	37.03
843.431	28.84
843.607	57.51
843.783	-32.6
843.959	135.34
844.134	82.09
844.31	86.19
844.486	-36.69
844.662	2.22
844.838	43.18
845.013	49.32
845.189	-18.26
845.365	67.75
845.541	45.23
845.716	57.51
845.892	53.42
846.068	47.27
846.244	-5.97
846.419	63.66
846.595	77.99
846.77	96.43
846.946	114.86
847.122	57.51
847.297	16.55
847.473	82.09
847.648	-3.93
847.824	82.09
847.999	45.23
848.175	61.61
848.35	96.43
848.526	22.7
848.701	147.62
848.876	96.43
849.052	51.37
849.227	-20.31
849.403	0.17
849.578	69.8
849.753	-28.5
849.929	14.51
850.104	65.71
850.279	8.36
850.454	53.42
850.63	41.13
850.805	22.7
850.98	55.47
851.155	73.9
851.33	-8.02
851.505	22.7
851.681	118.95
851.856	18.6
852.031	118.95
852.206	18.6
852.381	65.71
852.556	-16.21
852.731	80.04
852.906	22.7
853.081	65.71
853.256	20.65
853.431	12.46
853.606	-73.56
853.781	12.46
853.956	37.03
854.131	77.99
854.305	-8.02
854.48	47.27
854.655	-8.02
854.83	-30.55
855.005	39.08
855.18	63.66
855.354	65.71
855.529	65.71
855.704	-44.88
855.879	30.89
856.053	-10.07
856.228	-5.97
856.403	8.36
856.577	88.23
856.752	18.6
856.926	14.51
857.101	135.34
857.276	2.22
857.45	49.32
857.625	28.84
857.799	34.99
857.974	63.66
858.148	-16.21
858.323	82.09
858.497	34.99
858.672	8.36
858.846	131.24
859.02	63.66
859.195	-38.74
859.369	63.66
859.543	41.13
859.718	37.03
859.892	34.99
860.066	80.04
860.241	-24.4
860.415	65.71
860.589	-28.5
860.763	22.7
860.938	12.46
861.112	16.55
861.286	49.32
861.46	82.09
861.634	-16.21
861.808	12.46
861.982	32.94
862.157	-30.55
862.331	24.75
862.505	-65.36
862.679	-24.4
862.853	-20.31
863.027	20.65
863.201	86.19
863.375	-12.12
863.549	18.6
863.722	8.36
863.896	69.8
864.07	12.46
864.244	43.18
864.418	-3.93
864.592	22.7
864.766	30.89
864.939	45.23
865.113	77.99
865.287	45.23
865.461	-53.08
865.634	61.61
865.808	43.18
865.982	0.17
866.156	-5.97
866.329	69.8
866.503	16.55
866.676	39.08
866.85	22.7
867.024	-30.55
867.197	-57.17
867.371	88.23
867.544	26.79
867.718	6.31
867.891	65.71
868.065	-20.31
868.238	57.51
868.412	4.27
868.585	6.31
868.759	37.03
868.932	-24.4
869.105	-75.6
869.279	133.29
869.452	10.41
869.625	-26.45
869.799	-5.97
869.972	-67.41
870.145	-40.79
870.319	112.81
870.492	59.56
870.665	-57.17
870.838	-3.93
871.011	-53.08
871.185	71.85
871.358	-3.93
871.531	51.37
871.704	-53.08
871.877	-55.12
872.05	14.51
872.223	-10.07
872.396	12.46
872.569	30.89
872.742	-10.07
872.915	18.6
873.088	14.51
873.261	20.65
873.434	-26.45
873.607	-40.79
873.78	73.9
873.953	-40.79
874.126	-36.69
874.299	-12.12
874.471	73.9
874.644	26.79
874.817	73.9
874.99	71.85
875.163	4.27
875.335	6.31
875.508	20.65
875.681	0.17
875.853	8.36
876.026	41.13
876.199	-53.08
876.371	61.61
876.544	-40.79
876.717	53.42
876.889	2.22
877.062	28.84
877.234	-51.03
877.407	-26.45
877.579	-3.93
877.752	-5.97
877.924	14.51
878.097	-46.93
878.269	73.9
878.442	14.51
878.614	4.27
878.786	-8.02
878.959	8.36
879.131	-79.7
879.303	-38.74
879.476	-10.07
879.648	18.6
879.82	0.17
879.993	12.46
880.165	49.32
880.337	-28.5
880.509	32.94
880.681	0.17
880.854	-5.97
881.026	-16.21
881.198	20.65
881.37	6.31
881.542	24.75
881.714	24.75
881.886	-18.26
882.058	0.17
882.23	10.41
882.402	-28.5
882.574	51.37
882.746	30.89
882.918	-22.36
883.09	20.65
883.262	71.85
883.434	53.42
883.606	20.65
883.778	-51.03
883.95	47.27
884.122	-36.69
884.293	71.85
884.465	-10.07
884.637	53.42
884.809	-18.26
884.98	4.27
885.152	0.17
885.324	0.17
885.496	-44.88
885.667	53.42
885.839	30.89
886.011	30.89
886.182	82.09
886.354	104.62
886.525	-16.21
886.697	10.41
886.869	-16.21
887.04	4.27
887.212	-1.88
887.383	4.27
887.555	28.84
887.726	24.75
887.897	43.18
888.069	43.18
888.24	14.51
888.412	-1.88
888.583	49.32
888.754	24.75
888.926	-34.64
889.097	30.89
889.268	-10.07
889.44	16.55
889.611	-69.46
889.782	41.13
889.953	4.27
890.125	8.36
890.296	-8.02
890.467	4.27
890.638	45.23
890.809	51.37
890.98	-48.98
891.151	28.84
891.323	2.22
891.494	-12.12
891.665	22.7
891.836	-48.98
892.007	-48.98
892.178	2.22
892.349	37.03
892.52	12.46
892.691	6.31
892.862	4.27
893.032	61.61
893.203	-18.26
893.374	-42.84
893.545	59.56
893.716	10.41
893.887	-5.97
894.057	-69.46
894.228	-61.27
894.399	-32.6
894.57	4.27
894.74	6.31
894.911	2.22
895.082	28.84
895.253	18.6
895.423	-1.88
895.594	16.55
895.764	12.46
895.935	12.46
896.106	32.94
896.276	-30.55
896.447	-57.17
896.617	41.13
896.788	10.41
896.958	-51.03
897.129	8.36
897.299	4.27
897.47	57.51
897.64	69.8
897.81	-63.32
897.981	28.84
898.151	-91.99
898.322	67.75
898.492	-32.6
898.662	14.51
898.832	-10.07
899.003	-8.02
899.173	16.55
899.343	-63.32
899.513	-38.74
