Data from USB4F104151__48__10-23-28-006.txt Node

Date: Wed Mar 12 10:23:28 EDT 2025
User: louis
Spectrometer: USB4F10415
Trigger mode: 4
Integration Time (sec): 3.000000E-2
Scans to average: 1
Electric dark correction enabled: true
Nonlinearity correction enabled: false
Boxcar width: 0
XAxis mode: Wavelengths
Number of Pixels in Spectrum: 3648
>>>>>Begin Spectral Data<<<<<
178.204	-76.8
178.424	-76.8
178.644	-76.8
178.864	-148.48
179.084	-99.33
179.304	7.17
179.524	-27.65
179.744	13.31
179.964	64.51
180.184	-54.27
180.404	35.84
180.624	-15.36
180.844	-3.07
181.064	-58.37
181.283	-17.41
181.503	66.56
181.723	-11.26
181.943	-9.22
182.163	50.18
182.383	27.65
182.602	25.6
182.822	64.51
183.042	3.07
183.262	89.09
183.482	60.42
183.701	72.7
183.921	-9.22
184.141	-19.46
184.361	33.79
184.58	7.17
184.8	-11.26
185.02	11.26
185.239	72.7
185.459	-9.22
185.679	29.7
185.898	11.26
186.118	41.98
186.338	70.65
186.557	-11.26
186.777	-15.36
186.997	11.26
187.216	52.22
187.436	60.42
187.655	78.85
187.875	76.8
188.095	-3.07
188.314	93.18
188.534	82.94
188.753	7.17
188.973	66.56
189.192	44.03
189.412	-5.12
189.631	56.32
189.851	25.6
190.07	105.47
190.29	-1.02
190.509	7.17
190.729	64.51
190.948	74.75
191.168	123.9
191.387	46.08
191.607	50.18
191.826	48.13
192.045	25.6
192.265	19.46
192.484	1.02
192.704	101.37
192.923	-5.12
193.142	109.57
193.362	31.74
193.581	56.32
193.8	107.52
194.02	58.37
194.239	76.8
194.458	76.8
194.678	60.42
194.897	-21.5
195.116	25.6
195.335	1.02
195.555	101.37
195.774	76.8
195.993	50.18
196.212	31.74
196.432	95.23
196.651	19.46
196.87	-5.12
197.089	66.56
197.308	105.47
197.528	25.6
197.747	-17.41
197.966	56.32
198.185	44.03
198.404	56.32
198.623	82.94
198.842	103.42
199.062	19.46
199.281	52.22
199.5	113.66
199.719	93.18
199.938	91.13
200.157	162.81
200.376	74.75
200.595	33.79
200.814	31.74
201.033	13.31
201.252	35.84
201.471	41.98
201.69	41.98
201.909	44.03
202.128	74.75
202.347	64.51
202.566	44.03
202.785	11.26
203.004	27.65
203.223	58.37
203.442	-7.17
203.661	11.26
203.879	21.5
204.098	31.74
204.317	46.08
204.536	97.28
204.755	84.99
204.974	-7.17
205.193	103.42
205.411	58.37
205.63	121.85
205.849	78.85
206.068	46.08
206.287	-7.17
206.505	-11.26
206.724	11.26
206.943	25.6
207.162	-3.07
207.381	27.65
207.599	84.99
207.818	37.89
208.037	29.7
208.255	-17.41
208.474	-17.41
208.693	46.08
208.911	50.18
209.13	80.89
209.349	76.8
209.567	99.33
209.786	35.84
210.005	17.41
210.223	87.04
210.442	-17.41
210.661	84.99
210.879	52.22
211.098	70.65
211.316	58.37
211.535	84.99
211.753	41.98
211.972	-13.31
212.191	3.07
212.409	23.55
212.628	68.61
212.846	9.22
213.065	58.37
213.283	52.22
213.502	58.37
213.72	66.56
213.938	27.65
214.157	-9.22
214.375	41.98
214.594	-37.89
214.812	46.08
215.031	-9.22
215.249	54.27
215.467	64.51
215.686	119.81
215.904	109.57
216.122	3.07
216.341	41.98
216.559	-41.98
216.778	29.7
216.996	60.42
217.214	27.65
217.432	-5.12
217.651	37.89
217.869	62.46
218.087	-25.6
218.306	64.51
218.524	44.03
218.742	7.17
218.96	19.46
219.179	52.22
219.397	52.22
219.615	66.56
219.833	101.37
220.051	13.31
220.27	46.08
220.488	60.42
220.706	50.18
220.924	35.84
221.142	-17.41
221.36	-21.5
221.578	119.81
221.796	52.22
222.015	21.5
222.233	1.02
222.451	-5.12
222.669	-9.22
222.887	35.84
223.105	-13.31
223.323	46.08
223.541	33.79
223.759	27.65
223.977	95.23
224.195	84.99
224.413	23.55
224.631	60.42
224.849	33.79
225.067	99.33
225.285	-17.41
225.503	35.84
225.721	15.36
225.939	109.57
226.157	27.65
226.375	62.46
226.592	39.94
226.81	52.22
227.028	60.42
227.246	134.14
227.464	37.89
227.682	44.03
227.9	72.7
228.117	35.84
228.335	48.13
228.553	19.46
228.771	78.85
228.989	33.79
229.206	54.27
229.424	78.85
229.642	48.13
229.86	58.37
230.077	72.7
230.295	-5.12
230.513	56.32
230.731	29.7
230.948	3.07
231.166	54.27
231.384	62.46
231.601	58.37
231.819	39.94
232.037	44.03
232.254	-7.17
232.472	119.81
232.689	-15.36
232.907	89.09
233.125	-46.08
233.342	44.03
233.56	21.5
233.777	37.89
233.995	41.98
234.213	62.46
234.43	54.27
234.648	39.94
234.865	119.81
235.083	54.27
235.3	56.32
235.518	41.98
235.735	76.8
235.953	119.81
236.17	99.33
236.388	52.22
236.605	13.31
236.822	60.42
237.04	66.56
237.257	68.61
237.475	3.07
237.692	25.6
237.909	41.98
238.127	35.84
238.344	15.36
238.562	99.33
238.779	1.02
238.996	107.52
239.214	39.94
239.431	91.13
239.648	-1.02
239.865	54.27
240.083	54.27
240.3	107.52
240.517	-25.6
240.735	3.07
240.952	56.32
241.169	41.98
241.386	74.75
241.603	52.22
241.821	23.55
242.038	62.46
242.255	84.99
242.472	39.94
242.689	9.22
242.907	99.33
243.124	52.22
243.341	50.18
243.558	9.22
243.775	-7.17
243.992	9.22
244.209	31.74
244.426	74.75
244.643	66.56
244.86	25.6
245.078	72.7
245.295	19.46
245.512	19.46
245.729	29.7
245.946	29.7
246.163	31.74
246.38	80.89
246.597	58.37
246.814	17.41
247.031	78.85
247.248	25.6
247.464	11.26
247.681	70.65
247.898	56.32
248.115	66.56
248.332	-46.08
248.549	97.28
248.766	58.37
248.983	50.18
249.2	25.6
249.417	27.65
249.633	31.74
249.85	95.23
250.067	-1.02
250.284	11.26
250.501	87.04
250.717	109.57
250.934	60.42
251.151	60.42
251.368	9.22
251.585	15.36
251.801	25.6
252.018	19.46
252.235	91.13
252.451	130.05
252.668	19.46
252.885	84.99
253.102	89.09
253.318	101.37
253.535	-41.98
253.752	-1.02
253.968	48.13
254.185	58.37
254.401	46.08
254.618	60.42
254.835	89.09
255.051	58.37
255.268	74.75
255.484	60.42
255.701	-25.6
255.917	70.65
256.134	11.26
256.351	35.84
256.567	29.7
256.784	78.85
257	17.41
257.217	132.09
257.433	37.89
257.65	11.26
257.866	41.98
258.082	54.27
258.299	31.74
258.515	21.5
258.732	-46.08
258.948	89.09
259.165	15.36
259.381	82.94
259.597	7.17
259.814	82.94
260.03	19.46
260.246	68.61
260.463	82.94
260.679	37.89
260.895	46.08
261.112	101.37
261.328	19.46
261.544	-21.5
261.761	101.37
261.977	52.22
262.193	13.31
262.409	-13.31
262.626	93.18
262.842	72.7
263.058	78.85
263.274	29.7
263.49	115.71
263.707	41.98
263.923	33.79
264.139	33.79
264.355	56.32
264.571	52.22
264.787	27.65
265.004	62.46
265.22	113.66
265.436	76.8
265.652	44.03
265.868	-15.36
266.084	-17.41
266.3	93.18
266.516	54.27
266.732	76.8
266.948	117.76
267.164	103.42
267.38	107.52
267.596	50.18
267.812	152.57
268.028	115.71
268.244	33.79
268.46	89.09
268.676	27.65
268.892	72.7
269.108	48.13
269.324	33.79
269.54	-56.32
269.756	-13.31
269.972	33.79
270.188	60.42
270.403	-50.18
270.619	33.79
270.835	44.03
271.051	35.84
271.267	37.89
271.483	21.5
271.698	48.13
271.914	-7.17
272.13	58.37
272.346	74.75
272.562	70.65
272.777	70.65
272.993	52.22
273.209	41.98
273.425	82.94
273.64	33.79
273.856	80.89
274.072	60.42
274.287	105.47
274.503	52.22
274.719	80.89
274.934	25.6
275.15	-7.17
275.366	46.08
275.581	89.09
275.797	76.8
276.012	39.94
276.228	-25.6
276.444	35.84
276.659	17.41
276.875	35.84
277.09	107.52
277.306	76.8
277.521	27.65
277.737	84.99
277.952	97.28
278.168	29.7
278.383	72.7
278.599	41.98
278.814	101.37
279.03	68.61
279.245	56.32
279.461	93.18
279.676	91.13
279.892	41.98
280.107	11.26
280.322	-44.03
280.538	-7.17
280.753	17.41
280.969	113.66
281.184	19.46
281.399	64.51
281.615	31.74
281.83	56.32
282.045	41.98
282.26	-21.5
282.476	48.13
282.691	142.33
282.906	33.79
283.122	50.18
283.337	17.41
283.552	80.89
283.767	23.55
283.983	113.66
284.198	93.18
284.413	48.13
284.628	-1.02
284.843	72.7
285.058	74.75
285.274	-15.36
285.489	1.02
285.704	48.13
285.919	41.98
286.134	56.32
286.349	1.02
286.564	5.12
286.779	95.23
286.995	58.37
287.21	31.74
287.425	-3.07
287.64	48.13
287.855	56.32
288.07	3.07
288.285	50.18
288.5	74.75
288.715	-13.31
288.93	107.52
289.145	-1.02
289.36	84.99
289.575	78.85
289.79	52.22
290.004	19.46
290.219	64.51
290.434	48.13
290.649	60.42
290.864	41.98
291.079	84.99
291.294	60.42
291.509	33.79
291.724	68.61
291.938	-7.17
292.153	52.22
292.368	66.56
292.583	41.98
292.798	66.56
293.012	35.84
293.227	66.56
293.442	17.41
293.657	154.62
293.871	117.76
294.086	66.56
294.301	109.57
294.516	25.6
294.73	113.66
294.945	29.7
295.16	7.17
295.374	50.18
295.589	138.24
295.804	33.79
296.018	17.41
296.233	125.95
296.447	37.89
296.662	33.79
296.877	89.09
297.091	91.13
297.306	35.84
297.52	-68.61
297.735	64.51
297.949	56.32
298.164	72.7
298.378	74.75
298.593	41.98
298.807	-25.6
299.022	84.99
299.236	70.65
299.451	91.13
299.665	29.7
299.88	44.03
300.094	105.47
300.309	41.98
300.523	54.27
300.737	17.41
300.952	56.32
301.166	-15.36
301.381	35.84
301.595	48.13
301.809	68.61
302.024	23.55
302.238	66.56
302.452	82.94
302.667	44.03
302.881	60.42
303.095	82.94
303.309	39.94
303.524	52.22
303.738	68.61
303.952	19.46
304.166	31.74
304.381	37.89
304.595	82.94
304.809	76.8
305.023	70.65
305.237	117.76
305.452	54.27
305.666	66.56
305.88	56.32
306.094	60.42
306.308	52.22
306.522	62.46
306.736	78.85
306.95	29.7
307.164	-9.22
307.379	91.13
307.593	27.65
307.807	39.94
308.021	41.98
308.235	93.18
308.449	125.95
308.663	52.22
308.877	105.47
309.091	25.6
309.305	87.04
309.519	-37.89
309.733	70.65
309.947	99.33
310.161	50.18
310.374	93.18
310.588	64.51
310.802	-13.31
311.016	39.94
311.23	154.62
311.444	1.02
311.658	91.13
311.872	27.65
312.085	89.09
312.299	66.56
312.513	41.98
312.727	-29.7
312.941	107.52
313.154	72.7
313.368	-3.07
313.582	56.32
313.796	15.36
314.009	25.6
314.223	105.47
314.437	41.98
314.651	48.13
314.864	-37.89
315.078	7.17
315.292	11.26
315.505	68.61
315.719	64.51
315.933	44.03
316.146	37.89
316.36	50.18
316.573	66.56
316.787	19.46
317.001	138.24
317.214	50.18
317.428	27.65
317.641	-31.74
317.855	1.02
318.068	64.51
318.282	33.79
318.495	64.51
318.709	25.6
318.922	35.84
319.136	93.18
319.349	91.13
319.563	19.46
319.776	134.14
319.99	27.65
320.203	173.05
320.417	19.46
320.63	41.98
320.843	95.23
321.057	56.32
321.27	27.65
321.483	74.75
321.697	89.09
321.91	72.7
322.124	74.75
322.337	68.61
322.55	11.26
322.763	5.12
322.977	-5.12
323.19	68.61
323.403	-9.22
323.617	101.37
323.83	105.47
324.043	58.37
324.256	117.76
324.469	-13.31
324.683	23.55
324.896	52.22
325.109	21.5
325.322	56.32
325.535	56.32
325.748	50.18
325.962	93.18
326.175	27.65
326.388	70.65
326.601	17.41
326.814	91.13
327.027	50.18
327.24	56.32
327.453	9.22
327.666	44.03
327.879	72.7
328.092	154.62
328.305	29.7
328.518	58.37
328.731	66.56
328.944	41.98
329.157	107.52
329.37	48.13
329.583	31.74
329.796	128
330.009	13.31
330.222	33.79
330.435	3.07
330.648	-33.79
330.861	78.85
331.073	19.46
331.286	52.22
331.499	68.61
331.712	31.74
331.925	68.61
332.138	-19.46
332.35	99.33
332.563	19.46
332.776	87.04
332.989	1.02
333.202	72.7
333.414	44.03
333.627	62.46
333.84	44.03
334.053	39.94
334.265	19.46
334.478	35.84
334.691	64.51
334.903	68.61
335.116	7.17
335.329	154.62
335.541	33.79
335.754	168.96
335.966	58.37
336.179	76.8
336.392	52.22
336.604	66.56
336.817	37.89
337.029	21.5
337.242	1.02
337.454	44.03
337.667	64.51
337.88	68.61
338.092	46.08
338.305	62.46
338.517	41.98
338.729	21.5
338.942	123.9
339.154	-58.37
339.367	60.42
339.579	121.85
339.792	21.5
340.004	50.18
340.217	87.04
340.429	1.02
340.641	84.99
340.854	9.22
341.066	-13.31
341.278	84.99
341.491	123.9
341.703	60.42
341.915	-5.12
342.128	21.5
342.34	31.74
342.552	56.32
342.764	31.74
342.977	62.46
343.189	50.18
343.401	99.33
343.613	-9.22
343.826	-7.17
344.038	87.04
344.25	68.61
344.462	64.51
344.674	84.99
344.886	-1.02
345.099	74.75
345.311	-5.12
345.523	3.07
345.735	27.65
345.947	181.25
346.159	115.71
346.371	5.12
346.583	29.7
346.795	111.61
347.007	46.08
347.219	62.46
347.431	25.6
347.643	164.86
347.855	68.61
348.067	128
348.279	31.74
348.491	46.08
348.703	132.09
348.915	23.55
349.127	3.07
349.339	21.5
349.551	25.6
349.763	52.22
349.975	93.18
350.187	31.74
350.399	-15.36
350.61	52.22
350.822	21.5
351.034	52.22
351.246	31.74
351.458	89.09
351.669	95.23
351.881	44.03
352.093	60.42
352.305	78.85
352.517	52.22
352.728	132.09
352.94	50.18
353.152	87.04
353.363	-29.7
353.575	68.61
353.787	142.33
353.999	27.65
354.21	121.85
354.422	44.03
354.633	27.65
354.845	105.47
355.057	95.23
355.268	62.46
355.48	70.65
355.692	-5.12
355.903	101.37
356.115	101.37
356.326	68.61
356.538	46.08
356.749	113.66
356.961	123.9
357.172	52.22
357.384	17.41
357.595	115.71
357.807	25.6
358.018	115.71
358.23	76.8
358.441	68.61
358.653	-29.7
358.864	3.07
359.075	48.13
359.287	91.13
359.498	19.46
359.709	91.13
359.921	-39.94
360.132	115.71
360.344	39.94
360.555	33.79
360.766	19.46
360.977	60.42
361.189	101.37
361.4	78.85
361.611	56.32
361.823	132.09
362.034	91.13
362.245	27.65
362.456	29.7
362.667	52.22
362.879	68.61
363.09	11.26
363.301	80.89
363.512	21.5
363.723	11.26
363.935	11.26
364.146	80.89
364.357	76.8
364.568	93.18
364.779	41.98
364.99	50.18
365.201	76.8
365.412	50.18
365.623	35.84
365.834	68.61
366.045	64.51
366.256	195.58
366.467	125.95
366.678	113.66
366.889	50.18
367.1	134.14
367.311	68.61
367.522	52.22
367.733	132.09
367.944	37.89
368.155	52.22
368.366	138.24
368.577	74.75
368.788	154.62
368.999	-15.36
369.209	56.32
369.42	121.85
369.631	134.14
369.842	74.75
370.053	29.7
370.264	121.85
370.474	121.85
370.685	82.94
370.896	52.22
371.107	93.18
371.317	115.71
371.528	84.99
371.739	80.89
371.95	1.02
372.16	17.41
372.371	37.89
372.582	72.7
372.792	70.65
373.003	84.99
373.214	95.23
373.424	89.09
373.635	123.9
373.846	80.89
374.056	74.75
374.267	7.17
374.477	117.76
374.688	87.04
374.898	89.09
375.109	68.61
375.319	72.7
375.53	93.18
375.74	37.89
375.951	39.94
376.161	80.89
376.372	39.94
376.582	58.37
376.793	41.98
377.003	89.09
377.214	33.79
377.424	136.19
377.635	74.75
377.845	33.79
378.055	93.18
378.266	7.17
378.476	66.56
378.686	109.57
378.897	44.03
379.107	74.75
379.317	33.79
379.528	107.52
379.738	91.13
379.948	-5.12
380.158	101.37
380.369	15.36
380.579	23.55
380.789	113.66
380.999	101.37
381.21	111.61
381.42	37.89
381.63	68.61
381.84	152.57
382.05	64.51
382.261	181.25
382.471	125.95
382.681	50.18
382.891	113.66
383.101	44.03
383.311	21.5
383.521	56.32
383.731	89.09
383.941	82.94
384.151	72.7
384.361	72.7
384.571	52.22
384.781	91.13
384.991	95.23
385.201	115.71
385.411	62.46
385.621	117.76
385.831	136.19
386.041	50.18
386.251	50.18
386.461	93.18
386.671	105.47
386.881	80.89
387.091	115.71
387.301	84.99
387.511	84.99
387.72	142.33
387.93	107.52
388.14	-5.12
388.35	95.23
388.56	52.22
388.769	101.37
388.979	91.13
389.189	-17.41
389.399	76.8
389.609	109.57
389.818	41.98
390.028	154.62
390.238	91.13
390.447	70.65
390.657	89.09
390.867	33.79
391.076	66.56
391.286	80.89
391.496	109.57
391.705	50.18
391.915	140.29
392.125	148.48
392.334	80.89
392.544	173.05
392.753	78.85
392.963	132.09
393.172	50.18
393.382	37.89
393.591	140.29
393.801	117.76
394.01	230.4
394.22	97.28
394.429	150.53
394.639	93.18
394.848	134.14
395.058	76.8
395.267	80.89
395.477	107.52
395.686	150.53
395.895	132.09
396.105	152.57
396.314	150.53
396.524	107.52
396.733	117.76
396.942	181.25
397.152	113.66
397.361	148.48
397.57	99.33
397.78	107.52
397.989	105.47
398.198	138.24
398.407	41.98
398.617	60.42
398.826	144.38
399.035	166.91
399.244	142.33
399.453	154.62
399.663	162.81
399.872	142.33
400.081	136.19
400.29	195.58
400.499	48.13
400.708	211.96
400.917	132.09
401.127	113.66
401.336	84.99
401.545	185.34
401.754	248.83
401.963	152.57
402.172	87.04
402.381	80.89
402.59	109.57
402.799	218.11
403.008	158.72
403.217	109.57
403.426	177.15
403.635	152.57
403.844	150.53
404.053	111.61
404.262	183.29
404.471	187.39
404.68	220.16
404.888	164.86
405.097	109.57
405.306	187.39
405.515	289.79
405.724	283.64
405.933	220.16
406.142	177.15
406.35	191.49
406.559	187.39
406.768	277.5
406.977	277.5
407.185	287.74
407.394	252.92
407.603	142.33
407.812	291.84
408.02	254.97
408.229	257.02
408.438	293.88
408.646	293.88
408.855	279.55
409.064	285.69
409.272	279.55
409.481	418.81
409.69	332.79
409.898	336.89
410.107	369.66
410.315	400.38
410.524	355.32
410.733	453.63
410.941	357.37
411.15	402.43
411.358	451.58
411.567	482.3
411.775	455.67
411.984	490.49
412.192	498.68
412.401	523.26
412.609	560.12
412.818	558.07
413.026	590.84
413.234	541.69
413.443	670.71
413.651	588.79
413.86	617.46
414.068	703.48
414.276	744.44
414.485	713.72
414.693	764.92
414.901	695.29
415.11	838.64
415.318	840.69
415.526	748.53
415.734	793.59
415.943	838.64
416.151	904.18
416.359	965.62
416.567	994.29
416.776	977.91
416.984	1059.82
417.192	1063.92
417.4	1135.6
417.608	1094.64
417.817	1164.27
418.025	1264.62
418.233	1291.24
418.441	1252.33
418.649	1362.92
418.857	1354.73
419.065	1428.46
419.273	1371.12
419.481	1450.99
419.689	1686.5
419.897	1623.02
420.105	1651.69
420.313	1752.04
420.521	1739.75
420.729	1747.94
420.937	1911.78
421.145	1960.93
421.353	2048.99
421.561	2059.23
421.769	2227.17
421.977	2288.61
422.185	2247.65
422.393	2415.58
422.601	2698.2
422.809	2552.79
423.017	2556.89
423.224	2595.8
423.432	2792.41
423.64	2829.27
423.848	2974.67
424.056	2941.91
424.263	3283.92
424.471	3218.38
424.679	3328.97
424.887	3546.06
425.094	3621.83
425.302	3468.24
425.51	3728.33
425.718	3757
425.925	3746.76
426.133	4135.87
426.341	4357.05
426.548	4402.11
426.756	4424.64
426.964	4545.47
427.171	4635.58
427.379	4799.41
427.586	4934.58
427.794	5071.79
428.001	5303.22
428.209	5553.07
428.417	5233.58
428.624	5815.21
428.832	5845.93
429.039	5833.64
429.247	5809.06
429.454	6364.06
429.662	6833.05
429.869	6384.54
430.076	6693.79
430.284	6689.69
430.491	6849.43
430.699	7168.91
430.906	7183.25
431.114	7289.74
431.321	7625.61
431.528	7746.44
431.736	8235.91
431.943	8692.6
432.15	8483.71
432.358	8555.39
432.565	9036.66
432.772	8790.91
432.979	9233.27
433.187	9778.03
433.394	9593.71
433.601	10126.18
433.808	10310.5
434.016	10406.75
434.223	10765.15
434.43	11311.96
434.637	10898.27
434.844	11782.99
435.052	11995.98
435.259	11912.01
435.466	12170.05
435.673	11864.91
435.88	12757.82
436.087	13529.91
436.294	13161.27
436.501	12927.8
436.708	13460.27
436.915	13681.46
437.122	14308.13
437.329	14324.52
437.537	14514.98
437.743	14924.57
437.95	15069.98
438.157	15729.42
438.364	16184.07
438.571	16081.67
438.778	16032.52
438.985	17687.28
439.192	16902.91
439.399	17500.92
439.606	17076.99
439.813	17961.71
440.02	19239.64
440.227	18860.77
440.433	18338.54
440.64	19122.91
440.847	18889.44
441.054	19702.48
441.261	20763.33
441.467	20478.66
441.674	20961.98
441.881	21656.25
442.088	21578.42
442.294	21363.39
442.501	22209.2
442.708	22682.28
442.914	23521.95
443.121	24525.45
443.328	23569.05
443.534	25582.2
443.741	24853.12
443.948	24210.06
444.154	26155.63
444.361	25672.31
444.568	26249.84
444.774	26059.38
444.981	26249.84
445.187	27095.65
445.394	28330.58
445.6	28148.31
445.807	30521.9
446.013	29186.63
446.22	29712.95
446.426	30640.68
446.633	30941.74
446.839	32045.59
447.046	30878.25
447.252	32748.04
447.459	32346.64
447.665	32354.83
447.871	33378.82
448.078	35166.7
448.284	33274.37
448.491	34089.46
448.697	35467.75
448.903	36067.8
449.11	36463.06
449.316	35647.97
449.522	36418
449.728	36989.39
449.935	37654.98
450.141	36966.86
450.347	38408.63
450.553	36848.08
450.76	37548.48
450.966	38334.9
451.172	38289.85
451.378	39061.93
451.584	38326.71
451.791	38904.24
451.997	38719.92
452.203	39403.94
452.409	39453.09
452.615	39608.74
452.821	37761.47
453.027	37376.45
453.233	39408.04
453.44	37691.84
453.646	38324.66
453.852	38234.55
454.058	38785.46
454.264	37753.28
454.47	38537.65
454.676	37589.44
454.882	38896.05
455.088	35295.72
455.294	35977.69
455.5	36389.33
455.705	36637.14
455.911	34976.23
456.117	34456.05
456.323	33972.73
456.529	32272.92
456.735	33501.7
456.941	32915.98
457.147	31935
457.352	31244.84
457.558	31001.13
457.764	30855.72
457.97	30130.74
458.176	29504.06
458.381	29469.25
458.587	28103.25
458.793	28238.42
458.999	26792.55
459.204	28787.27
459.41	27669.08
459.616	25952.88
459.821	26362.48
460.027	26026.61
460.233	25150.08
460.438	24056.46
460.644	24375.95
460.85	23204.51
461.055	23036.58
461.261	23077.54
461.466	21332.67
461.672	20712.13
461.878	22004.4
462.083	20681.41
462.289	20126.41
462.494	19884.75
462.7	19409.62
462.905	18703.07
463.111	19479.25
463.316	19374.81
463.522	19262.17
463.727	19151.58
463.932	19063.52
464.138	18672.36
464.343	18895.58
464.549	18313.96
464.754	18715.36
464.959	18719.46
465.165	18436.84
465.37	17992.43
465.575	17369.85
465.781	18088.68
465.986	18359.02
466.191	17734.39
466.397	17208.06
466.602	16288.52
466.807	16950.01
467.012	16888.57
467.218	16861.95
467.423	16519.94
467.628	16818.94
467.833	17513.2
468.038	16569.09
468.244	16251.66
468.449	17189.63
468.654	16614.15
468.859	16370.44
469.064	16249.61
469.269	15751.95
469.474	15735.57
469.679	16278.28
469.885	15440.66
470.09	15788.82
470.295	15667.98
470.5	15440.66
470.705	15530.77
470.91	14990.11
471.115	15155.99
471.32	15219.48
471.525	15137.56
471.73	14834.46
471.935	14592.8
472.139	14187.3
472.344	14265.13
472.549	14467.88
472.754	14203.69
472.959	13802.29
473.164	13560.63
473.369	13398.84
473.574	14054.19
473.778	13599.54
473.983	13435.7
474.188	13460.27
474.393	13101.88
474.598	12938.04
474.802	12757.82
475.007	12849.98
475.212	12639.04
475.417	12301.12
475.621	12475.2
475.826	12464.96
476.031	12004.17
476.235	11963.21
476.44	12149.57
476.645	11656.01
476.849	11709.26
477.054	11582.29
477.259	11545.42
477.463	11420.5
477.668	11152.21
477.872	11389.78
478.077	11193.17
478.282	10918.75
478.486	11002.71
478.691	10877.79
478.895	10949.46
479.1	10808.16
479.304	10888.03
479.509	10408.8
479.713	10707.8
479.918	10373.99
480.122	10226.53
480.326	10384.23
480.531	10367.84
480.735	10052.45
480.94	10216.29
481.144	10578.78
481.348	10056.55
481.553	10128.23
481.757	10031.97
481.961	10173.28
482.166	10314.59
482.37	10128.23
482.574	10011.5
482.778	9747.31
482.983	10156.9
483.187	10027.88
483.391	10156.9
483.595	10060.65
483.8	9800.55
484.004	10117.99
484.208	10177.38
484.412	9966.44
484.616	10156.9
484.821	9993.06
485.025	9843.56
485.229	10185.57
485.433	9851.75
485.637	10034.02
485.841	10111.85
486.045	9896.81
486.249	9876.33
486.453	9968.49
486.657	10095.46
486.861	10027.88
487.065	9849.71
487.269	9888.62
487.473	9845.61
487.677	10142.57
487.881	10036.07
488.085	10152.81
488.289	10021.74
488.493	9984.87
488.697	10185.57
488.901	10107.75
489.105	10148.71
489.309	10376.03
489.512	10115.94
489.716	9890.67
489.92	10146.66
490.124	10017.64
490.328	10070.89
490.531	10156.9
490.735	10431.33
490.939	10554.21
491.143	10206.05
491.346	10386.27
491.55	10457.95
491.754	10451.81
491.958	10656.61
492.161	10543.97
492.365	10507.1
492.569	10416.99
492.772	10568.54
492.976	10859.35
493.18	10861.4
493.383	11123.54
493.587	10992.47
493.79	11105.11
493.994	10736.48
494.197	10910.55
494.401	11340.63
494.605	11340.63
494.808	11455.31
495.012	11504.46
495.215	11709.26
495.419	11520.85
495.622	11529.04
495.825	11920.2
496.029	11934.54
496.232	12165.96
496.436	12170.05
496.639	12344.13
496.843	12192.58
497.046	12444.48
497.249	12520.26
497.453	12610.37
497.656	13028.15
497.859	12862.27
498.063	12884.8
498.266	13044.54
498.469	13155.13
498.673	13437.75
498.876	13617.97
499.079	13601.58
499.282	13802.29
499.485	14082.86
499.689	14072.62
499.892	14248.74
500.095	14326.57
500.298	14775.07
500.501	14711.58
500.705	14859.04
500.908	15024.92
501.111	15151.9
501.314	15295.25
501.517	15641.36
501.72	15821.58
501.923	15653.65
502.126	16020.24
502.329	16392.97
502.532	16268.04
502.735	16206.6
502.938	16605.95
503.141	16935.68
503.344	17195.77
503.547	17111.8
503.75	17443.57
503.953	17718
504.156	17963.76
504.359	17969.9
504.562	18250.47
504.765	18485.99
504.968	18688.74
505.17	18957.02
505.373	19002.08
505.576	19329.75
505.779	19516.12
505.982	19817.17
506.185	19944.14
506.387	19917.52
506.59	20011.73
506.793	20738.76
506.996	20687.56
507.198	21150.4
507.401	21017.28
507.604	21172.92
507.807	21506.74
508.009	22270.64
508.212	22160.05
508.415	22344.36
508.617	22583.98
508.82	22788.77
509.022	22717.09
509.225	23120.54
509.428	23487.13
509.63	23644.82
509.833	23511.71
510.035	24406.67
510.238	23966.35
510.44	24709.77
510.643	24926.85
510.845	25031.3
511.048	24918.66
511.25	25635.45
511.453	25703.03
511.655	26503.79
511.858	25789.05
512.06	26425.96
512.262	26940
512.465	26585.71
512.667	27105.89
512.87	27288.16
513.072	27767.38
513.274	28375.63
513.477	28402.25
513.679	28641.87
513.881	28809.8
514.084	29397.57
514.286	29229.63
514.488	29489.73
514.69	30431.79
514.893	29983.29
515.095	30472.75
515.297	30855.72
515.499	31072.81
515.701	31310.37
515.904	31687.2
516.106	31744.54
516.308	32367.12
516.51	32543.25
516.712	32363.03
516.914	32926.22
517.116	33417.73
517.318	33624.57
517.52	33767.93
517.722	33907.19
517.925	34077.18
518.127	35242.47
518.329	35267.05
518.531	34943.47
518.733	35688.93
518.935	35938.78
519.136	35828.19
519.338	36295.13
519.54	36757.97
519.742	37233.1
519.944	37251.53
520.146	37982.65
520.348	37927.36
520.55	38015.42
520.752	38535.6
520.954	39166.38
521.155	39190.95
521.357	39250.35
521.559	39715.23
521.761	40284.57
521.963	39969.18
522.164	40202.65
522.366	40800.66
522.568	41245.07
522.77	41058.7
522.971	42215.8
523.173	41724.29
523.375	42248.57
523.576	42267
523.778	42369.4
523.98	42924.4
524.181	42953.07
524.383	43532.65
524.584	43757.92
524.786	43266.41
524.988	43532.65
525.189	44167.52
525.391	44388.7
525.592	44321.12
525.794	44826.96
525.995	44898.64
526.197	44964.18
526.398	45168.97
526.6	45379.92
526.801	45519.18
527.003	45963.59
527.204	46080.32
527.406	46391.61
527.607	46682.42
527.808	46915.89
528.01	46022.98
528.211	46459.2
528.412	47235.38
528.614	47415.6
528.815	46799.16
529.016	48025.89
529.218	47137.07
529.419	47712.55
529.62	47554.86
529.822	47700.26
530.023	48226.59
530.224	47575.34
530.425	47968.55
530.626	47497.52
530.828	47700.26
531.029	48675.1
531.23	48632.09
531.431	48599.32
531.632	48556.32
531.833	48501.02
532.035	48423.2
532.236	48845.08
532.437	48881.94
532.638	48632.09
532.839	48836.89
533.04	49287.44
533.241	48578.84
533.442	49897.73
533.643	49058.07
533.844	48961.81
534.045	48707.86
534.246	49074.45
534.447	49451.28
534.648	49006.87
534.849	49015.06
535.05	49279.25
535.251	49119.51
535.451	48970
535.652	49508.62
535.853	49373.45
536.054	49426.7
536.255	49541.39
536.456	49064.21
536.657	49647.88
536.857	49092.88
537.058	49195.28
537.259	49623.31
537.46	49496.33
537.66	49164.56
537.861	49707.27
538.062	49615.11
538.263	49033.49
538.463	49164.56
538.664	49144.08
538.865	49320.21
539.065	49508.62
539.266	48763.16
539.466	49797.38
539.667	48849.17
539.868	49809.67
540.068	49389.84
540.269	49299.73
540.469	49295.63
540.67	49232.14
540.87	49017.11
541.071	48931.09
541.271	49504.52
541.472	49115.41
541.672	48984.34
541.873	49070.36
542.073	48724.25
542.274	49559.82
542.474	48832.79
542.675	48484.64
542.875	49303.82
543.075	49025.3
543.276	48705.82
543.476	49295.63
543.676	49230.1
543.877	49328.4
544.077	48816.41
544.277	48869.65
544.478	48902.42
544.678	49236.24
544.878	49010.96
545.078	49164.56
545.279	48576.79
545.479	49125.65
545.679	48683.29
545.879	49338.64
546.079	49019.16
546.28	49035.54
546.48	48525.6
546.68	48812.31
546.88	48836.89
547.08	48847.13
547.28	48535.84
547.48	48533.79
547.68	48851.22
547.88	48374.05
548.081	48714.01
548.281	48544.03
548.481	48312.61
548.681	49076.5
548.881	48484.64
549.081	48984.34
549.28	48625.95
549.48	48750.87
549.68	48517.4
549.88	49219.86
550.08	47917.35
550.28	48642.33
550.48	48779.54
550.68	49019.16
550.88	48394.53
551.08	48288.03
551.279	48529.69
551.479	47913.25
551.679	48474.4
551.879	48044.32
552.079	48486.68
552.278	47927.59
552.478	48165.15
552.678	48183.58
552.878	48013.6
553.077	48245.02
553.277	47683.88
553.477	48759.06
553.676	47743.27
553.876	48238.88
554.076	47999.27
554.275	48150.82
554.475	47405.36
554.674	48214.3
554.874	48271.65
555.074	48034.08
555.273	48017.7
555.473	48253.22
555.672	47440.17
555.872	48159.01
556.071	47837.48
556.271	47839.53
556.47	47317.29
556.67	46883.12
556.869	47251.76
557.068	47845.67
557.268	47397.16
557.467	47786.28
557.667	47681.83
557.866	47444.27
558.065	47399.21
558.265	47010.1
558.464	46577.98
558.663	47067.44
558.863	46960.95
559.062	47374.64
559.261	46727.48
559.461	47294.77
559.66	46346.56
559.859	47036.72
560.058	46401.85
560.258	46780.73
560.457	46424.38
560.656	46866.74
560.855	46047.55
561.054	46283.07
561.253	45822.28
561.453	46084.42
561.652	46213.44
561.851	46176.58
562.05	45943.11
562.249	45711.69
562.448	45599.05
562.647	45855.04
562.846	45740.36
563.045	45721.93
563.244	45373.77
563.443	45902.15
563.642	45060.43
563.841	45087.06
564.04	44798.29
564.239	45807.94
564.438	44958.03
564.637	44743
564.836	44976.47
565.035	44493.15
565.234	45089.1
565.432	44056.93
565.631	44317.02
565.83	44996.95
566.029	44249.44
566.228	43884.9
566.427	44284.25
566.625	43340.14
566.824	43422.06
567.023	44091.74
567.222	42971.5
567.42	43772.26
567.619	43385.19
567.818	43606.37
568.016	43299.18
568.215	43311.47
568.414	43016.56
568.612	43348.33
568.811	42578.29
569.01	43065.71
569.208	42604.92
569.407	42641.78
569.605	42213.76
569.804	42645.88
570.002	42162.56
570.201	42613.11
570.4	42060.16
570.598	41865.6
570.797	41615.75
570.995	41595.27
571.193	41247.11
571.392	41789.83
571.59	41421.19
571.789	41421.19
571.987	41419.14
572.186	40939.92
572.384	40675.73
572.582	41171.34
572.781	41075.09
572.979	40319.38
573.177	40436.12
573.376	40655.25
573.574	40518.04
573.772	40270.23
573.971	40120.73
574.169	40055.2
574.367	39657.89
574.565	40120.73
574.763	39256.49
574.962	39735.71
575.16	39547.3
575.358	39319.98
575.556	39465.38
575.754	39678.37
575.952	38992.3
576.151	39352.74
576.349	38951.34
576.547	38488.5
576.745	38961.58
576.943	38998.44
577.141	38488.5
577.339	38779.31
577.537	37941.69
577.735	38984.11
577.933	38181.31
578.131	38314.42
578.329	38261.18
578.527	37611.97
578.725	37984.7
578.923	37913.02
579.121	37548.48
579.319	37642.69
579.516	38261.18
579.714	37630.4
579.912	37298.63
580.11	36964.81
580.308	36950.48
580.506	37165.51
580.704	36372.95
580.901	37214.66
581.099	36829.65
581.297	36471.25
581.495	36422.1
581.692	36948.43
581.89	36063.71
582.088	36581.84
582.285	36360.66
582.483	36311.51
582.681	36200.92
582.878	35873.24
583.076	35465.7
583.274	36073.95
583.471	35353.06
583.669	35807.71
583.866	35631.58
584.064	35740.13
584.262	34845.16
584.459	35508.71
584.657	35070.44
584.854	35690.98
585.052	34613.74
585.249	35004.91
585.447	34527.73
585.644	34314.74
585.841	34607.6
586.039	34763.25
586.236	34148.85
586.434	34128.38
586.631	34075.13
586.828	34052.6
587.026	34097.66
587.223	34017.78
587.42	33270.28
587.618	33624.57
587.815	33391.11
588.012	33413.63
588.21	33071.62
588.407	33550.85
588.604	33085.96
588.801	33116.68
588.999	33083.91
589.196	33075.72
589.393	32844.3
589.59	32846.35
589.787	32535.06
589.984	32553.49
590.182	32283.16
590.379	32739.85
590.576	32078.36
590.773	32231.96
590.97	32031.26
591.167	32451.09
591.364	31898.14
591.561	31990.3
591.758	31308.32
591.955	31658.52
592.152	31812.12
592.349	31169.06
592.546	31861.27
592.743	31470.11
592.94	30935.59
593.137	30954.02
593.334	31216.16
593.531	31099.43
593.727	31253.03
593.924	30695.98
594.121	30403.12
594.318	30788.14
594.515	30313.01
594.712	30984.74
594.908	30323.25
595.105	30589.49
595.302	29930.04
595.499	30589.49
595.696	30118.45
595.892	29907.51
596.089	30188.08
596.286	29837.88
596.482	29745.72
596.679	29694.52
596.876	30009.91
597.072	29332.03
597.269	29717.05
597.466	29362.75
597.662	29180.48
597.859	29176.39
598.055	28990.02
598.252	29045.32
598.448	29088.32
598.645	29041.22
598.841	28432.97
599.038	28930.63
599.234	28656.2
599.431	28328.53
599.627	28400.21
599.824	28459.6
600.02	28426.83
600.217	28121.68
600.413	27763.29
600.609	28080.72
600.806	27554.4
601.002	27800.15
601.198	27603.55
601.395	27765.34
601.591	27400.8
601.787	27406.94
601.984	27476.57
602.18	27855.45
602.376	27073.12
602.572	27171.43
602.769	26792.55
602.965	26612.33
603.161	26911.33
603.357	26905.19
603.553	26794.6
603.75	26808.93
603.946	26321.52
604.142	26647.15
604.338	26126.96
604.534	26296.94
604.73	26198.64
604.926	25911.92
605.122	26311.28
605.318	26108.53
605.514	25823.86
605.71	25797.24
605.906	25836.15
606.102	25563.77
606.298	25932.4
606.494	25610.87
606.69	25604.73
606.886	25291.39
607.082	24853.12
607.278	25590.39
607.474	25170.56
607.67	24994.43
607.866	25293.44
608.062	25377.4
608.257	25240.19
608.453	25375.36
608.649	24945.28
608.845	24834.69
609.041	24820.36
609.236	24629.9
609.432	24613.51
609.628	24691.34
609.824	24791.69
610.019	24572.55
610.215	24765.06
610.411	24693.38
610.606	24312.46
610.802	24322.7
610.998	24253.07
611.193	24466.06
611.389	24046.23
611.584	24218.25
611.78	23880.34
611.976	23980.69
612.171	24181.39
612.367	24115.86
612.562	23892.63
612.758	23491.23
612.953	23519.9
613.149	23673.49
613.344	23280.28
613.539	24019.6
613.735	23624.34
613.93	23634.58
614.126	23386.78
614.321	23642.78
614.517	23401.11
614.712	23618.2
614.907	22928.03
615.103	23100.06
615.298	22905.51
615.493	23065.25
615.688	23052.96
615.884	23149.21
616.079	22678.18
616.274	22950.56
616.47	22989.47
616.665	22784.68
616.86	23032.48
617.055	22749.86
617.25	23028.38
617.445	23016.1
617.641	22553.26
617.836	22862.5
618.031	22327.98
618.226	22280.88
618.421	22317.74
618.616	22465.19
618.811	22039.22
619.006	22293.16
619.201	21967.54
619.396	21865.14
619.591	21646.01
619.786	21740.21
619.981	21455.54
620.176	21887.67
620.371	21377.72
620.566	21363.39
620.761	21217.98
620.956	21373.63
621.151	21131.97
621.346	21209.79
621.541	20892.35
621.735	21041.85
621.93	20609.73
622.125	20716.23
622.32	20361.93
622.515	20550.34
622.709	20421.32
622.904	20261.58
623.099	20073.17
623.294	20175.56
623.488	19849.94
623.683	19938
623.878	19534.55
624.072	19784.4
624.267	19661.52
624.462	19518.17
624.656	19163.87
624.851	19200.73
625.046	19235.55
625.24	19356.38
625.435	18744.03
625.629	18922.21
625.824	18651.88
626.018	18686.69
626.213	18373.35
626.407	18475.75
626.602	17947.37
626.796	18295.53
626.991	17957.61
627.185	18135.79
627.38	17910.51
627.574	17722.1
627.768	17578.74
627.963	17822.45
628.157	17672.95
628.352	17634.03
628.546	17054.46
628.74	17253.11
628.935	16997.12
629.129	17255.16
629.323	16601.86
629.517	16833.28
629.712	16855.81
629.906	16886.53
630.1	16507.65
630.294	16661.25
630.489	16270.09
630.683	16380.68
630.877	16081.67
631.071	16333.57
631.265	16096.01
631.459	15878.93
631.653	15850.25
631.848	15979.28
632.042	15772.43
632.236	15719.18
632.43	15614.74
632.624	15543.06
632.818	15321.88
633.012	15332.12
633.206	15321.88
633.4	15276.82
633.594	14805.79
633.788	15207.19
633.982	14779.17
634.176	14789.41
634.369	14748.45
634.563	14721.82
634.757	14551.84
634.951	14684.96
635.145	14512.93
635.339	14474.02
635.533	14234.41
635.726	14072.62
635.92	13912.88
636.114	14089
636.308	14033.71
636.501	13976.36
636.695	13781.81
636.889	13775.66
637.083	13447.99
637.276	13599.54
637.47	13497.14
637.664	13378.36
637.857	13556.53
638.051	13431.6
638.244	13110.07
638.438	13161.27
638.632	13028.15
638.825	12962.62
639.019	12915.51
639.212	12821.31
639.406	12733.25
639.599	12698.43
639.793	12680
639.986	12467.01
640.18	12501.83
640.373	12243.78
640.567	12266.31
640.76	12366.66
640.954	12344.13
641.147	12063.56
641.34	12112.71
641.534	12096.33
641.727	11850.57
641.92	11938.63
642.114	11815.76
642.307	11797.32
642.5	11776.84
642.694	11359.06
642.887	11543.38
643.08	11578.19
643.273	11275.09
643.467	11553.62
643.66	11344.72
643.853	11058.01
644.046	10994.52
644.239	11152.21
644.432	11068.25
644.626	10996.57
644.819	10814.3
645.012	10953.56
645.205	10926.94
645.398	10681.18
645.591	10785.63
645.784	10429.28
645.977	10400.61
646.17	10240.87
646.363	10435.42
646.556	10314.59
646.749	10310.5
646.942	10255.2
647.135	10175.33
647.328	10058.6
647.521	9972.58
647.714	9999.21
647.907	10062.69
648.099	9892.71
648.292	9825.13
648.485	9933.67
648.678	9657.2
648.871	9689.96
649.064	9558.89
649.256	9526.13
649.449	9630.57
649.642	9567.09
649.835	9448.3
650.027	9401.2
650.22	9464.69
650.413	9370.48
650.605	9206.64
650.798	9380.72
650.991	9343.86
651.183	9214.84
651.376	8928.12
651.568	9128.82
651.761	9030.52
651.954	8874.87
652.146	9028.47
652.339	8784.76
652.531	8805.24
652.724	8772.47
652.916	8551.29
653.109	8715.13
653.301	8377.22
653.494	8573.82
653.686	8432.51
653.879	8559.49
654.071	8426.37
654.263	8473.47
654.456	8260.48
654.648	8274.82
654.84	8055.69
655.033	8205.19
655.225	7830.41
655.417	8049.54
655.61	8153.99
655.802	8174.47
655.994	8055.69
656.186	8041.35
656.379	7938.95
656.571	7775.11
656.763	7680.91
656.955	7601.04
657.148	7850.89
657.34	7777.16
657.532	7560.08
657.724	7515.02
657.916	7625.61
658.108	7433.1
658.3	7404.43
658.492	7433.1
658.684	7289.74
658.876	7236.5
659.068	7338.9
659.26	7140.24
659.452	7254.93
659.644	7265.17
659.836	7275.41
660.028	7195.54
660.22	6935.45
660.412	7076.76
660.604	6937.49
660.796	6917.01
660.988	7144.34
661.18	6857.62
661.372	6720.41
661.563	6835.1
661.755	6927.25
661.947	6753.18
662.139	6878.1
662.331	6677.4
662.522	6605.72
662.714	6564.76
662.906	6532
663.097	6488.99
663.289	6628.25
663.481	6452.13
663.673	6589.34
663.864	6390.69
664.056	6349.73
664.247	6458.27
664.439	6288.29
664.631	6300.58
664.822	6204.32
665.014	6183.84
665.205	6179.75
665.397	6134.69
665.588	6220.71
665.78	6024.1
665.971	6120.35
666.163	6204.32
666.354	6069.16
666.546	6073.25
666.737	5968.8
666.929	5950.37
667.12	6024.1
667.311	5815.21
667.503	5850.02
667.694	5999.52
667.885	5856.17
668.077	5831.59
668.268	5786.54
668.459	5718.95
668.651	5743.53
668.842	5721
669.033	5589.93
669.224	5667.75
669.416	5821.35
669.607	5759.91
669.798	5557.16
669.989	5616.55
670.18	5516.2
670.371	5557.16
670.563	5612.46
670.754	5471.15
670.945	5467.05
671.136	5495.72
671.327	5485.48
671.518	5438.38
671.709	5424.05
671.9	5311.41
672.091	5393.33
672.282	5270.45
672.473	5227.44
672.664	5233.58
672.855	5368.75
673.046	5313.45
673.237	5301.17
673.428	5241.78
673.619	5358.51
673.809	5133.23
674	5252.02
674.191	5272.5
674.382	5258.16
674.573	5229.49
674.764	5247.92
674.954	5145.52
675.145	5079.99
675.336	5065.65
675.527	5098.42
675.717	5161.91
675.908	4967.35
676.099	5024.69
676.289	4873.14
676.48	4852.66
676.671	5047.22
676.861	4959.16
677.052	5006.26
677.243	5079.99
677.433	4832.18
677.624	5073.84
677.814	5061.55
678.005	5174.19
678.195	5047.22
678.386	4883.38
678.576	4819.89
678.767	4883.38
678.957	4830.13
679.148	5073.84
679.338	4897.72
679.529	4920.24
679.719	4891.57
679.909	5034.93
680.1	4922.29
680.29	4948.92
680.481	4805.56
680.671	4981.68
680.861	4748.22
681.052	4901.81
681.242	4832.18
681.432	4916.15
681.622	4815.8
681.813	4744.12
682.003	4828.09
682.193	4701.11
682.383	4901.81
682.573	4813.75
682.764	4864.95
682.954	4785.08
683.144	4715.45
683.334	4823.99
683.524	4656.06
683.714	4727.74
683.904	4713.4
684.094	4852.66
684.284	4713.4
684.474	4735.93
684.664	4832.18
684.854	4584.38
685.044	4641.72
685.234	4705.21
685.424	4664.25
685.614	4584.38
685.804	4660.15
685.994	4586.43
686.184	4666.3
686.374	4555.71
686.564	4549.56
686.753	4606.91
686.943	4516.8
687.133	4553.66
687.323	4406.2
687.513	4363.2
687.702	4461.5
687.892	4428.73
688.082	4312
688.272	4291.52
688.461	4357.05
688.651	4414.4
688.841	4195.26
689.03	4279.23
689.22	4430.78
689.41	4334.53
689.599	4389.82
689.789	4369.34
689.979	4268.99
690.168	4385.73
690.358	4027.33
690.547	4111.3
690.737	4174.78
690.926	4174.78
691.116	4211.65
691.305	4303.81
691.495	4148.16
691.684	4015.04
691.874	4150.21
692.063	4088.77
692.252	4060.1
692.442	4109.25
692.631	4180.93
692.82	4064.19
693.01	4004.8
693.199	3939.27
693.388	4017.09
693.578	3859.4
693.767	3959.75
693.956	3888.07
694.146	3859.4
694.335	3886.02
694.524	3791.81
694.713	3963.84
694.902	3795.91
695.092	3875.78
695.281	3830.73
695.47	3865.54
695.659	3824.58
695.848	3922.88
696.037	3812.29
696.226	3851.21
696.415	3830.73
696.604	3769.29
696.793	3724.23
696.982	3627.98
697.171	3900.36
697.36	3668.94
697.549	3701.7
697.738	3830.73
697.927	3724.23
698.116	3734.47
698.305	3638.22
698.494	3783.62
698.683	3742.66
698.872	3781.57
699.061	3713.99
699.25	3605.45
699.438	3691.46
699.627	3578.83
699.816	3752.9
700.005	3767.24
700.193	3771.33
700.382	3742.66
700.571	3730.38
700.76	3576.78
700.948	3658.7
701.137	3707.85
701.326	3746.76
701.514	3587.02
701.703	3632.07
701.892	3615.69
702.08	3713.99
702.269	3699.66
702.457	3697.61
702.646	3738.57
702.834	3603.4
703.023	3742.66
703.212	3683.27
703.4	3634.12
703.589	3656.65
703.777	3617.74
703.965	3591.11
704.154	3615.69
704.342	3572.68
704.531	3632.07
704.719	3648.46
704.907	3670.98
705.096	3668.94
705.284	3625.93
705.472	3476.43
705.661	3558.35
705.849	3689.42
706.037	3597.26
706.226	3619.78
706.414	3615.69
706.602	3578.83
706.79	3595.21
706.979	3369.93
707.167	3597.26
707.355	3656.65
707.543	3603.4
707.731	3699.66
707.919	3615.69
708.107	3568.59
708.296	3527.63
708.484	3578.83
708.672	3611.59
708.86	3556.3
709.048	3550.15
709.236	3539.91
709.424	3621.83
709.612	3636.17
709.8	3574.73
709.988	3472.33
710.176	3466.19
710.364	3601.35
710.551	3451.85
710.739	3587.02
710.927	3494.86
711.115	3562.44
711.303	3648.46
711.491	3644.36
711.679	3673.03
711.866	3591.11
712.054	3603.4
712.242	3517.39
712.43	3640.26
712.617	3537.87
712.805	3623.88
712.993	3515.34
713.181	3580.87
713.368	3644.36
713.556	3498.95
713.744	3509.19
713.931	3615.69
714.119	3587.02
714.306	3632.07
714.494	3539.91
714.682	3652.55
714.869	3541.96
715.057	3541.96
715.244	3580.87
715.432	3558.35
715.619	3591.11
715.807	3531.72
715.994	3558.35
716.182	3505.1
716.369	3511.24
716.556	3601.35
716.744	3517.39
716.931	3482.57
717.119	3644.36
717.306	3544.01
717.493	3640.26
717.681	3501
717.868	3613.64
718.055	3623.88
718.242	3617.74
718.43	3441.61
718.617	3607.5
718.804	3484.62
718.991	3634.12
719.179	3453.9
719.366	3521.48
719.553	3564.49
719.74	3443.66
719.927	3513.29
720.114	3455.95
720.301	3394.51
720.488	3423.18
720.676	3548.11
720.863	3570.63
721.05	3531.72
721.237	3455.95
721.424	3552.2
721.611	3519.43
721.798	3525.58
721.985	3429.32
722.172	3527.63
722.358	3484.62
722.545	3435.47
722.732	3488.71
722.919	3505.1
723.106	3425.23
723.293	3394.51
723.48	3388.36
723.667	3513.29
723.853	3437.52
724.04	3539.91
724.227	3398.6
724.414	3408.84
724.6	3486.67
724.787	3437.52
724.974	3337.17
725.161	3513.29
725.347	3308.49
725.534	3537.87
725.72	3353.55
725.907	3433.42
726.094	3431.37
726.28	3328.97
726.467	3394.51
726.653	3398.6
726.84	3380.17
727.027	3437.52
727.213	3261.39
727.4	3378.12
727.586	3378.12
727.773	3314.64
727.959	3288.01
728.145	3300.3
728.332	3283.92
728.518	3339.21
728.705	3451.85
728.891	3335.12
729.077	3275.73
729.264	3253.2
729.45	3431.37
729.636	3392.46
729.823	3214.29
730.009	3390.41
730.195	3318.73
730.382	3453.9
730.568	3314.64
730.754	3271.63
730.94	3249.1
731.126	3181.52
731.313	3294.16
731.499	3328.97
731.685	3345.36
731.871	3247.05
732.057	3392.46
732.243	3320.78
732.429	3234.77
732.615	3271.63
732.801	3343.31
732.987	3271.63
733.173	3378.12
733.359	3349.45
733.545	3242.96
733.731	3193.81
733.917	3242.96
734.103	3226.57
734.289	3290.06
734.475	3251.15
734.661	3345.36
734.847	3230.67
735.033	3310.54
735.219	3263.44
735.404	3165.14
735.59	3232.72
735.776	3230.67
735.962	3206.1
736.148	3161.04
736.333	3242.96
736.519	3070.93
736.705	3122.13
736.89	3187.66
737.076	3181.52
737.262	3083.22
737.447	3099.6
737.633	3058.64
737.819	3072.98
738.004	3060.69
738.19	3120.08
738.375	3091.41
738.561	3005.39
738.747	3046.35
738.932	2956.24
739.118	3060.69
739.303	3107.79
739.489	2929.62
739.674	2999.25
739.859	3048.4
740.045	3120.08
740.23	3058.64
740.416	2982.87
740.601	2872.28
740.786	2886.61
740.972	2923.48
741.157	3001.3
741.342	2878.42
741.528	3011.54
741.713	2999.25
741.898	2825.17
742.084	2890.71
742.269	2794.45
742.454	2802.65
742.639	2876.37
742.824	2870.23
743.01	2913.24
743.195	2792.41
743.38	2769.88
743.565	2712.53
743.75	2776.02
743.935	2685.91
744.12	2853.84
744.305	2667.48
744.49	2603.99
744.675	2681.82
744.86	2745.3
745.045	2669.53
745.23	2634.71
745.415	2595.8
745.6	2659.29
745.785	2651.1
745.97	2567.13
746.155	2517.98
746.34	2589.66
746.525	2542.55
746.71	2542.55
746.895	2530.27
747.079	2520.03
747.264	2571.22
747.449	2474.97
747.634	2421.72
747.819	2481.11
748.003	2554.84
748.188	2524.12
748.373	2325.47
748.557	2450.39
748.742	2407.39
748.927	2331.61
749.111	2345.95
749.296	2321.37
749.481	2362.33
749.665	2268.13
749.85	2245.6
750.034	2243.55
750.219	2202.59
750.404	2212.83
750.588	2214.88
750.773	2212.83
750.957	2190.3
751.141	2180.06
751.326	2180.06
751.51	2067.42
751.695	2188.25
751.879	2100.19
752.064	2075.62
752.248	2026.47
752.432	2024.42
752.617	2110.43
752.801	2130.91
752.985	2057.18
753.17	2083.81
753.354	1999.84
753.538	1993.7
753.722	1969.12
753.907	2057.18
754.091	1911.78
754.275	1981.41
754.459	2008.03
754.643	1915.87
754.828	1960.93
755.012	1885.16
755.196	1813.48
755.38	1872.87
755.564	1815.52
755.748	1854.44
755.932	1733.61
756.116	1809.38
756.3	1762.28
756.484	1756.13
756.668	1760.23
756.852	1747.94
757.036	1788.9
757.22	1786.85
757.404	1711.08
757.588	1719.27
757.772	1678.31
757.956	1575.91
758.14	1704.93
758.323	1606.63
758.507	1610.73
758.691	1623.02
758.875	1598.44
759.059	1612.78
759.242	1592.3
759.426	1493.99
759.61	1625.06
759.794	1463.27
759.977	1608.68
760.161	1643.49
760.345	1448.94
760.528	1493.99
760.712	1428.46
760.895	1498.09
761.079	1508.33
761.263	1459.18
761.446	1389.55
761.63	1506.28
761.813	1569.77
761.997	1493.99
762.18	1491.95
762.364	1450.99
762.547	1436.65
762.731	1477.61
762.914	1334.25
763.098	1362.92
763.281	1436.65
763.464	1420.27
763.648	1448.94
763.831	1289.2
764.015	1326.06
764.198	1426.41
764.381	1307.63
764.564	1379.31
764.748	1375.21
764.931	1352.68
765.114	1248.24
765.297	1373.16
765.481	1340.4
765.664	1362.92
765.847	1334.25
766.03	1336.3
766.213	1227.76
766.397	1274.86
766.58	1326.06
766.763	1326.06
766.946	1360.88
767.129	1172.46
767.312	1235.95
767.495	1278.96
767.678	1227.76
767.861	1160.17
768.044	1164.27
768.227	1164.27
768.41	1125.36
768.593	1244.14
768.776	1205.23
768.959	1238
769.142	1272.81
769.324	1147.89
769.507	1135.6
769.69	1158.13
769.873	1217.52
770.056	1151.98
770.239	1190.89
770.421	1272.81
770.604	1074.16
770.787	1098.74
770.97	1057.78
771.152	1072.11
771.335	1121.26
771.518	1100.78
771.7	1106.93
771.883	1063.92
772.066	1047.54
772.248	1043.44
772.431	1057.78
772.613	1043.44
772.796	1016.82
772.978	1070.06
773.161	1012.72
773.343	1000.43
773.526	992.24
773.708	965.62
773.891	1018.86
774.073	920.56
774.256	1027.06
774.438	957.43
774.621	918.51
774.803	1000.43
774.985	912.37
775.168	988.14
775.35	996.34
775.532	977.91
775.715	1027.06
775.897	949.23
776.079	957.43
776.261	871.41
776.444	951.28
776.626	949.23
776.808	902.13
776.99	848.88
777.173	820.21
777.355	875.51
777.537	848.88
777.719	807.92
777.901	855.03
778.083	783.35
778.265	889.84
778.447	938.99
778.629	740.34
778.811	838.64
778.993	879.6
779.175	824.31
779.357	830.45
779.539	723.96
779.721	809.97
779.903	752.63
780.085	799.73
780.267	785.4
780.449	769.01
780.631	771.06
780.812	760.82
780.994	869.36
781.176	719.86
781.358	646.13
781.54	701.43
781.721	781.3
781.903	730.1
782.085	713.72
782.267	779.25
782.448	650.23
782.63	660.47
782.812	666.61
782.993	631.8
783.175	701.43
783.357	619.51
783.538	629.75
783.72	691.19
783.901	580.6
784.083	572.41
784.264	615.41
784.446	513.02
784.627	615.41
784.809	635.89
784.99	629.75
785.172	629.75
785.353	596.98
785.535	609.27
785.716	560.12
785.897	687.09
786.079	637.94
786.26	463.86
786.441	537.59
786.623	474.1
786.804	582.65
786.985	551.93
787.167	480.25
787.348	551.93
787.529	449.53
787.71	599.03
787.891	525.3
788.073	549.88
788.254	457.72
788.435	515.06
788.616	580.6
788.797	447.48
788.978	547.83
789.159	443.39
789.34	523.26
789.522	523.26
789.703	513.02
789.884	541.69
790.065	572.41
790.246	506.87
790.427	441.34
790.607	504.82
790.788	480.25
790.969	457.72
791.15	455.67
791.331	498.68
791.512	451.58
791.693	463.86
791.874	451.58
792.054	449.53
792.235	545.78
792.416	453.63
792.597	420.86
792.778	484.34
792.958	504.82
793.139	457.72
793.32	396.28
793.5	363.51
793.681	451.58
793.862	449.53
794.042	465.91
794.223	396.28
794.404	412.67
794.584	347.13
794.765	404.47
794.945	375.8
795.126	455.67
795.306	347.13
795.487	482.3
795.667	400.38
795.848	416.76
796.028	353.27
796.209	381.95
796.389	390.14
796.57	383.99
796.75	302.08
796.93	355.32
797.111	302.08
797.291	443.39
797.471	379.9
797.652	300.03
797.832	349.18
798.012	404.47
798.192	375.8
798.373	306.17
798.553	336.89
798.733	267.26
798.913	338.94
799.093	328.7
799.274	314.36
799.454	404.47
799.634	371.71
799.814	265.21
799.994	297.98
800.174	392.19
800.354	326.65
800.534	334.84
800.714	359.42
800.894	377.85
801.074	328.7
801.254	259.07
801.434	324.6
801.614	297.98
801.794	242.68
801.974	773.11
802.154	252.92
802.334	295.93
802.514	326.65
802.693	257.02
802.873	244.73
803.053	357.37
803.233	361.47
803.413	392.19
803.592	285.69
803.772	334.84
803.952	289.79
804.131	199.68
804.311	273.4
804.491	353.27
804.67	216.06
804.85	177.15
805.03	314.36
805.209	295.93
805.389	308.22
805.568	265.21
805.748	211.96
805.928	252.92
806.107	250.88
806.287	205.82
806.466	279.55
806.646	275.45
806.825	263.16
807.004	242.68
807.184	226.3
807.363	302.08
807.543	207.87
807.722	197.63
807.901	261.12
808.081	228.35
808.26	248.83
808.439	232.44
808.619	285.69
808.798	179.2
808.977	320.51
809.156	334.84
809.336	295.93
809.515	275.45
809.694	310.27
809.873	252.92
810.052	257.02
810.231	271.36
810.411	177.15
810.59	228.35
810.769	220.16
810.948	265.21
811.127	181.25
811.306	230.4
811.485	289.79
811.664	263.16
811.843	197.63
812.022	203.77
812.201	232.44
812.38	285.69
812.559	199.68
812.737	254.97
812.916	224.25
813.095	179.2
813.274	222.2
813.453	109.57
813.632	271.36
813.811	216.06
813.989	158.72
814.168	156.67
814.347	187.39
814.526	179.2
814.704	279.55
814.883	248.83
815.062	158.72
815.24	265.21
815.419	195.58
815.598	265.21
815.776	164.86
815.955	150.53
816.133	199.68
816.312	209.92
816.49	123.9
816.669	230.4
816.847	275.45
817.026	191.49
817.204	261.12
817.383	232.44
817.561	195.58
817.74	191.49
817.918	207.87
818.097	265.21
818.275	232.44
818.453	179.2
818.632	142.33
818.81	162.81
818.988	142.33
819.167	115.71
819.345	138.24
819.523	99.33
819.701	123.9
819.879	144.38
820.058	150.53
820.236	166.91
820.414	142.33
820.592	183.29
820.77	183.29
820.948	162.81
821.127	164.86
821.305	193.53
821.483	189.44
821.661	150.53
821.839	205.82
822.017	142.33
822.195	171.01
822.373	228.35
822.551	232.44
822.729	156.67
822.907	130.05
823.085	152.57
823.262	125.95
823.44	109.57
823.618	185.34
823.796	152.57
823.974	154.62
824.152	95.23
824.329	89.09
824.507	228.35
824.685	171.01
824.863	191.49
825.04	154.62
825.218	173.05
825.396	103.42
825.574	187.39
825.751	66.56
825.929	138.24
826.107	125.95
826.284	95.23
826.462	173.05
826.639	93.18
826.817	177.15
826.994	107.52
827.172	89.09
827.349	154.62
827.527	123.9
827.704	168.96
827.882	158.72
828.059	168.96
828.237	125.95
828.414	142.33
828.591	119.81
828.769	99.33
828.946	109.57
829.124	171.01
829.301	123.9
829.478	181.25
829.655	105.47
829.833	128
830.01	31.74
830.187	80.89
830.364	156.67
830.542	25.6
830.719	173.05
830.896	78.85
831.073	148.48
831.25	183.29
831.427	185.34
831.604	103.42
831.782	76.8
831.959	74.75
832.136	84.99
832.313	125.95
832.49	128
832.667	125.95
832.844	125.95
833.021	105.47
833.198	132.09
833.374	89.09
833.551	84.99
833.728	115.71
833.905	166.91
834.082	89.09
834.259	105.47
834.436	134.14
834.612	111.61
834.789	115.71
834.966	105.47
835.143	130.05
835.319	74.75
835.496	60.42
835.673	107.52
835.85	158.72
836.026	117.76
836.203	72.7
836.38	177.15
836.556	117.76
836.733	99.33
836.909	150.53
837.086	111.61
837.262	80.89
837.439	-5.12
837.616	56.32
837.792	82.94
837.968	74.75
838.145	70.65
838.321	117.76
838.498	125.95
838.674	101.37
838.851	91.13
839.027	119.81
839.203	76.8
839.38	113.66
839.556	84.99
839.732	134.14
839.909	64.51
840.085	99.33
840.261	48.13
840.437	121.85
840.614	89.09
840.79	148.48
840.966	181.25
841.142	72.7
841.318	84.99
841.494	111.61
841.671	84.99
841.847	142.33
842.023	62.46
842.199	72.7
842.375	101.37
842.551	103.42
842.727	23.55
842.903	70.65
843.079	117.76
843.255	103.42
843.431	84.99
843.607	39.94
843.783	-25.6
843.959	82.94
844.134	19.46
844.31	146.43
844.486	76.8
844.662	84.99
844.838	31.74
845.013	66.56
845.189	154.62
845.365	128
845.541	74.75
845.716	99.33
845.892	72.7
846.068	152.57
846.244	101.37
846.419	101.37
846.595	72.7
846.77	158.72
846.946	50.18
847.122	23.55
847.297	11.26
847.473	140.29
847.648	121.85
847.824	146.43
847.999	3.07
848.175	33.79
848.35	50.18
848.526	74.75
848.701	84.99
848.876	56.32
849.052	60.42
849.227	60.42
849.403	27.65
849.578	39.94
849.753	-52.22
849.929	58.37
850.104	74.75
850.279	105.47
850.454	50.18
850.63	117.76
850.805	52.22
850.98	97.28
851.155	-37.89
851.33	125.95
851.505	64.51
851.681	68.61
851.856	87.04
852.031	41.98
852.206	101.37
852.381	7.17
852.556	-19.46
852.731	115.71
852.906	99.33
853.081	117.76
853.256	101.37
853.431	31.74
853.606	9.22
853.781	-31.74
853.956	68.61
854.131	44.03
854.305	91.13
854.48	35.84
854.655	-35.84
854.83	37.89
855.005	76.8
855.18	68.61
855.354	44.03
855.529	91.13
855.704	3.07
855.879	23.55
856.053	93.18
856.228	41.98
856.403	17.41
856.577	25.6
856.752	56.32
856.926	52.22
857.101	35.84
857.276	19.46
857.45	107.52
857.625	80.89
857.799	89.09
857.974	91.13
858.148	23.55
858.323	91.13
858.497	3.07
858.672	80.89
858.846	44.03
859.02	35.84
859.195	29.7
859.369	-95.23
859.543	48.13
859.718	80.89
859.892	50.18
860.066	35.84
860.241	-1.02
860.415	52.22
860.589	27.65
860.763	31.74
860.938	-41.98
861.112	66.56
861.286	82.94
861.46	66.56
861.634	41.98
861.808	62.46
861.982	-31.74
862.157	3.07
862.331	80.89
862.505	44.03
862.679	-1.02
862.853	11.26
863.027	27.65
863.201	93.18
863.375	-11.26
863.549	130.05
863.722	25.6
863.896	84.99
864.07	46.08
864.244	91.13
864.418	33.79
864.592	111.61
864.766	99.33
864.939	56.32
865.113	-7.17
865.287	9.22
865.461	29.7
865.634	17.41
865.808	-1.02
865.982	1.02
866.156	35.84
866.329	3.07
866.503	80.89
866.676	37.89
866.85	35.84
867.024	-37.89
867.197	84.99
867.371	109.57
867.544	58.37
867.718	-52.22
867.891	41.98
868.065	91.13
868.238	21.5
868.412	41.98
868.585	-44.03
868.759	27.65
868.932	80.89
869.105	-48.13
869.279	35.84
869.452	27.65
869.625	58.37
869.799	25.6
869.972	19.46
870.145	17.41
870.319	93.18
870.492	37.89
870.665	17.41
870.838	82.94
871.011	37.89
871.185	74.75
871.358	58.37
871.531	9.22
871.704	17.41
871.877	13.31
872.05	33.79
872.223	35.84
872.396	52.22
872.569	46.08
872.742	23.55
872.915	46.08
873.088	31.74
873.261	56.32
873.434	13.31
873.607	11.26
873.78	27.65
873.953	44.03
874.126	68.61
874.299	25.6
874.471	64.51
874.644	7.17
874.817	11.26
874.99	52.22
875.163	39.94
875.335	41.98
875.508	-11.26
875.681	33.79
875.853	-17.41
876.026	-25.6
876.199	3.07
876.371	-9.22
876.544	9.22
876.717	80.89
876.889	1.02
877.062	105.47
877.234	19.46
877.407	50.18
877.579	39.94
877.752	25.6
877.924	15.36
878.097	-29.7
878.269	64.51
878.442	93.18
878.614	-15.36
878.786	23.55
878.959	23.55
879.131	11.26
879.303	-15.36
879.476	35.84
879.648	44.03
879.82	39.94
879.993	89.09
880.165	-70.65
880.337	-13.31
880.509	35.84
880.681	-11.26
880.854	15.36
881.026	76.8
881.198	113.66
881.37	76.8
881.542	17.41
881.714	70.65
881.886	-37.89
882.058	48.13
882.23	-41.98
882.402	7.17
882.574	33.79
882.746	-3.07
882.918	64.51
883.09	-5.12
883.262	44.03
883.434	64.51
883.606	-58.37
883.778	44.03
883.95	9.22
884.122	-21.5
884.293	99.33
884.465	27.65
884.637	1.02
884.809	39.94
884.98	62.46
885.152	-9.22
885.324	27.65
885.496	17.41
885.667	17.41
885.839	41.98
886.011	146.43
886.182	-19.46
886.354	87.04
886.525	78.85
886.697	82.94
886.869	-62.46
887.04	7.17
887.212	-3.07
887.383	138.24
887.555	-1.02
887.726	-13.31
887.897	33.79
888.069	60.42
888.24	66.56
888.412	23.55
888.583	23.55
888.754	-11.26
888.926	3.07
889.097	-17.41
889.268	11.26
889.44	-70.65
889.611	39.94
889.782	23.55
889.953	-23.55
890.125	15.36
890.296	68.61
890.467	58.37
890.638	-19.46
890.809	-97.28
890.98	-33.79
891.151	95.23
891.323	128
891.494	29.7
891.665	-7.17
891.836	-1.02
892.007	21.5
892.178	-21.5
892.349	11.26
892.52	-44.03
892.691	15.36
892.862	52.22
893.032	-13.31
893.203	21.5
893.374	-33.79
893.545	68.61
893.716	27.65
893.887	-62.46
894.057	44.03
894.228	15.36
894.399	15.36
894.57	31.74
894.74	11.26
894.911	-1.02
895.082	19.46
895.253	-7.17
895.423	-13.31
895.594	19.46
895.764	-3.07
895.935	3.07
896.106	84.99
896.276	27.65
896.447	19.46
896.617	27.65
896.788	5.12
896.958	80.89
897.129	1.02
897.299	15.36
897.47	64.51
897.64	19.46
897.81	64.51
897.981	46.08
898.151	9.22
898.322	31.74
898.492	48.13
898.662	3.07
898.832	7.17
899.003	50.18
899.173	11.26
899.343	27.65
899.513	-3.07
