Data from USB4F104151__108__10-24-50-527.txt Node

Date: Wed Mar 12 10:24:50 EDT 2025
User: louis
Spectrometer: USB4F10415
Trigger mode: 4
Integration Time (sec): 3.000000E-2
Scans to average: 1
Electric dark correction enabled: true
Nonlinearity correction enabled: false
Boxcar width: 0
XAxis mode: Wavelengths
Number of Pixels in Spectrum: 3648
>>>>>Begin Spectral Data<<<<<
178.204	-99.5
178.424	-99.5
178.644	-99.5
178.864	-107.69
179.084	-62.63
179.304	9.05
179.524	-60.59
179.744	15.19
179.964	99.16
180.184	-13.48
180.404	-40.11
180.624	-21.67
180.844	-5.29
181.064	-25.77
181.283	27.48
181.503	88.92
181.723	-72.87
181.943	-44.2
182.163	56.15
182.383	2.9
182.602	-9.39
182.822	0.85
183.042	25.43
183.262	-13.48
183.482	-1.19
183.701	4.95
183.921	-17.58
184.141	23.38
184.361	37.72
184.58	68.44
184.8	-42.15
185.02	-56.49
185.239	-9.39
185.459	97.11
185.679	64.34
185.898	-36.01
186.118	-11.43
186.338	64.34
186.557	66.39
186.777	-42.15
186.997	66.39
187.216	2.9
187.436	78.68
187.655	-3.24
187.875	131.92
188.095	45.91
188.314	74.58
188.534	37.72
188.753	72.53
188.973	88.92
189.192	9.05
189.412	19.29
189.631	29.52
189.851	19.29
190.07	43.86
190.29	4.95
190.509	43.86
190.729	80.72
190.948	47.96
191.168	56.15
191.387	21.33
191.607	39.76
191.826	35.67
192.045	41.81
192.265	7
192.484	23.38
192.704	-3.24
192.923	7
193.142	111.44
193.362	4.95
193.581	7
193.8	111.44
194.02	56.15
194.239	-5.29
194.458	27.48
194.678	27.48
194.897	31.57
195.116	58.2
195.335	-5.29
195.555	70.48
195.774	35.67
195.993	23.38
196.212	64.34
196.432	72.53
196.651	84.82
196.87	-27.82
197.089	62.29
197.308	50
197.528	-1.19
197.747	-21.67
197.966	-17.58
198.185	47.96
198.404	-48.3
198.623	17.24
198.842	47.96
199.062	74.58
199.281	76.63
199.5	41.81
199.719	78.68
199.938	80.72
200.157	31.57
200.376	68.44
200.595	33.62
200.814	47.96
201.033	-36.01
201.252	47.96
201.471	56.15
201.69	90.96
201.909	45.91
202.128	15.19
202.347	80.72
202.566	29.52
202.785	-13.48
203.004	-1.19
203.223	117.59
203.442	113.49
203.661	-13.48
203.879	-21.67
204.098	19.29
204.317	-13.48
204.536	54.1
204.755	-9.39
204.974	162.64
205.193	78.68
205.411	119.64
205.63	17.24
205.849	56.15
206.068	58.2
206.287	-5.29
206.505	15.19
206.724	15.19
206.943	52.05
207.162	39.76
207.381	54.1
207.599	70.48
207.818	-3.24
208.037	93.01
208.255	7
208.474	7
208.693	-13.48
208.911	-3.24
209.13	103.25
209.349	80.72
209.567	-11.43
209.786	31.57
210.005	41.81
210.223	29.52
210.442	-70.83
210.661	82.77
210.879	54.1
211.098	64.34
211.316	11.09
211.535	52.05
211.753	7
211.972	117.59
212.191	7
212.409	43.86
212.628	39.76
212.846	60.24
213.065	90.96
213.283	31.57
213.502	-29.87
213.72	62.29
213.938	-5.29
214.157	25.43
214.375	21.33
214.594	11.09
214.812	9.05
215.031	33.62
215.249	15.19
215.467	9.05
215.686	43.86
215.904	64.34
216.122	7
216.341	47.96
216.559	60.24
216.778	27.48
216.996	88.92
217.214	19.29
217.432	-31.91
217.651	15.19
217.869	4.95
218.087	72.53
218.306	-17.58
218.524	56.15
218.742	-13.48
218.96	31.57
219.179	33.62
219.397	64.34
219.615	95.06
219.833	2.9
220.051	-23.72
220.27	27.48
220.488	66.39
220.706	-17.58
220.924	60.24
221.142	-7.34
221.36	-17.58
221.578	64.34
221.796	13.14
222.015	47.96
222.233	68.44
222.451	93.01
222.669	39.76
222.887	50
223.105	-50.35
223.323	-9.39
223.541	-38.06
223.759	76.63
223.977	-9.39
224.195	105.3
224.413	2.9
224.631	86.87
224.849	-5.29
225.067	52.05
225.285	-13.48
225.503	-52.39
225.721	33.62
225.939	2.9
226.157	45.91
226.375	93.01
226.592	13.14
226.81	27.48
227.028	43.86
227.246	31.57
227.464	-9.39
227.682	15.19
227.9	29.52
228.117	54.1
228.335	0.85
228.553	-15.53
228.771	13.14
228.989	101.2
229.206	45.91
229.424	17.24
229.642	-11.43
229.86	-9.39
230.077	62.29
230.295	15.19
230.513	50
230.731	17.24
230.948	23.38
231.166	13.14
231.384	39.76
231.601	13.14
231.819	19.29
232.037	15.19
232.254	19.29
232.472	43.86
232.689	52.05
232.907	47.96
233.125	7
233.342	19.29
233.56	-3.24
233.777	97.11
233.995	35.67
234.213	11.09
234.43	129.88
234.648	0.85
234.865	2.9
235.083	47.96
235.3	50
235.518	7
235.735	113.49
235.953	127.83
236.17	11.09
236.388	109.4
236.605	58.2
236.822	60.24
237.04	82.77
237.257	52.05
237.475	62.29
237.692	35.67
237.909	17.24
238.127	72.53
238.344	37.72
238.562	35.67
238.779	-85.16
238.996	13.14
239.214	70.48
239.431	82.77
239.648	9.05
239.865	-17.58
240.083	39.76
240.3	2.9
240.517	19.29
240.735	97.11
240.952	62.29
241.169	78.68
241.386	23.38
241.603	19.29
241.821	19.29
242.038	60.24
242.255	60.24
242.472	27.48
242.689	41.81
242.907	64.34
243.124	-44.2
243.341	-3.24
243.558	39.76
243.775	-3.24
243.992	17.24
244.209	43.86
244.426	56.15
244.643	123.73
244.86	9.05
245.078	101.2
245.295	31.57
245.512	52.05
245.729	4.95
245.946	60.24
246.163	58.2
246.38	45.91
246.597	76.63
246.814	62.29
247.031	-17.58
247.248	29.52
247.464	43.86
247.681	-33.96
247.898	76.63
248.115	39.76
248.332	-11.43
248.549	21.33
248.766	111.44
248.983	25.43
249.2	74.58
249.417	56.15
249.633	0.85
249.85	60.24
250.067	-9.39
250.284	-9.39
250.501	50
250.717	29.52
250.934	-50.35
251.151	41.81
251.368	13.14
251.585	47.96
251.801	27.48
252.018	-29.87
252.235	17.24
252.451	54.1
252.668	-21.67
252.885	60.24
253.102	31.57
253.318	39.76
253.535	-79.02
253.752	-21.67
253.968	-21.67
254.185	41.81
254.401	39.76
254.618	70.48
254.835	9.05
255.051	54.1
255.268	45.91
255.484	27.48
255.701	41.81
255.917	35.67
256.134	11.09
256.351	37.72
256.567	-27.82
256.784	-87.21
257	-36.01
257.217	21.33
257.433	66.39
257.65	27.48
257.866	-9.39
258.082	21.33
258.299	-13.48
258.515	-72.87
258.732	60.24
258.948	58.2
259.165	50
259.381	39.76
259.597	31.57
259.814	23.38
260.03	-38.06
260.246	-44.2
260.463	39.76
260.679	17.24
260.895	-31.91
261.112	52.05
261.328	2.9
261.544	9.05
261.761	64.34
261.977	33.62
262.193	-38.06
262.409	23.38
262.626	21.33
262.842	25.43
263.058	52.05
263.274	62.29
263.49	41.81
263.707	7
263.923	56.15
264.139	39.76
264.355	60.24
264.571	133.97
264.787	-13.48
265.004	4.95
265.22	31.57
265.436	7
265.652	13.14
265.868	33.62
266.084	74.58
266.3	62.29
266.516	35.67
266.732	41.81
266.948	82.77
267.164	33.62
267.38	72.53
267.596	58.2
267.812	93.01
268.028	60.24
268.244	21.33
268.46	-31.91
268.676	50
268.892	37.72
269.108	37.72
269.324	31.57
269.54	45.91
269.756	45.91
269.972	43.86
270.188	60.24
270.403	15.19
270.619	23.38
270.835	31.57
271.051	25.43
271.267	-17.58
271.483	15.19
271.698	95.06
271.914	-27.82
272.13	56.15
272.346	-3.24
272.562	4.95
272.777	11.09
272.993	60.24
273.209	56.15
273.425	15.19
273.64	64.34
273.856	64.34
274.072	-3.24
274.287	13.14
274.503	4.95
274.719	25.43
274.934	31.57
275.15	27.48
275.366	47.96
275.581	64.34
275.797	86.87
276.012	64.34
276.228	31.57
276.444	-23.72
276.659	39.76
276.875	-13.48
277.09	0.85
277.306	64.34
277.521	39.76
277.737	37.72
277.952	39.76
278.168	19.29
278.383	56.15
278.599	-9.39
278.814	56.15
279.03	-27.82
279.245	43.86
279.461	-11.43
279.676	136.02
279.892	9.05
280.107	2.9
280.322	-27.82
280.538	27.48
280.753	-50.35
280.969	2.9
281.184	99.16
281.399	103.25
281.615	-27.82
281.83	58.2
282.045	13.14
282.26	19.29
282.476	80.72
282.691	66.39
282.906	88.92
283.122	84.82
283.337	64.34
283.552	15.19
283.767	15.19
283.983	54.1
284.198	35.67
284.413	47.96
284.628	-25.77
284.843	50
285.058	27.48
285.274	60.24
285.489	37.72
285.704	62.29
285.919	37.72
286.134	19.29
286.349	2.9
286.564	64.34
286.779	29.52
286.995	4.95
287.21	7
287.425	-5.29
287.64	62.29
287.855	86.87
288.07	-11.43
288.285	50
288.5	72.53
288.715	56.15
288.93	-1.19
289.145	19.29
289.36	86.87
289.575	45.91
289.79	-1.19
290.004	23.38
290.219	52.05
290.434	2.9
290.649	50
290.864	64.34
291.079	23.38
291.294	11.09
291.509	-46.25
291.724	-21.67
291.938	47.96
292.153	-27.82
292.368	35.67
292.583	103.25
292.798	170.83
293.012	23.38
293.227	84.82
293.442	21.33
293.657	33.62
293.871	70.48
294.086	70.48
294.301	35.67
294.516	37.72
294.73	-31.91
294.945	21.33
295.16	66.39
295.374	80.72
295.589	72.53
295.804	50
296.018	43.86
296.233	66.39
296.447	19.29
296.662	21.33
296.877	76.63
297.091	-9.39
297.306	107.35
297.52	29.52
297.735	27.48
297.949	21.33
298.164	52.05
298.378	-33.96
298.593	29.52
298.807	-25.77
299.022	56.15
299.236	125.78
299.451	58.2
299.665	56.15
299.88	60.24
300.094	-38.06
300.309	4.95
300.523	54.1
300.737	9.05
300.952	64.34
301.166	0.85
301.381	-33.96
301.595	58.2
301.809	-25.77
302.024	23.38
302.238	47.96
302.452	78.68
302.667	74.58
302.881	-1.19
303.095	23.38
303.309	47.96
303.524	15.19
303.738	66.39
303.952	97.11
304.166	86.87
304.381	-36.01
304.595	27.48
304.809	31.57
305.023	72.53
305.237	58.2
305.452	-15.53
305.666	93.01
305.88	60.24
306.094	-3.24
306.308	35.67
306.522	64.34
306.736	101.2
306.95	-1.19
307.164	45.91
307.379	-21.67
307.593	82.77
307.807	70.48
308.021	111.44
308.235	58.2
308.449	-13.48
308.663	58.2
308.877	35.67
309.091	52.05
309.305	113.49
309.519	-17.58
309.733	105.3
309.947	43.86
310.161	88.92
310.374	80.72
310.588	90.96
310.802	70.48
311.016	146.26
311.23	45.91
311.444	29.52
311.658	54.1
311.872	66.39
312.085	47.96
312.299	45.91
312.513	84.82
312.727	17.24
312.941	0.85
313.154	78.68
313.368	84.82
313.582	80.72
313.796	62.29
314.009	66.39
314.223	68.44
314.437	39.76
314.651	56.15
314.864	9.05
315.078	47.96
315.292	84.82
315.505	19.29
315.719	64.34
315.933	-1.19
316.146	74.58
316.36	-52.39
316.573	117.59
316.787	27.48
317.001	101.2
317.214	7
317.428	56.15
317.641	70.48
317.855	39.76
318.068	76.63
318.282	52.05
318.495	103.25
318.709	23.38
318.922	-1.19
319.136	76.63
319.349	37.72
319.563	29.52
319.776	25.43
319.99	-5.29
320.203	39.76
320.417	37.72
320.63	21.33
320.843	156.5
321.057	60.24
321.27	82.77
321.483	4.95
321.697	99.16
321.91	101.2
322.124	117.59
322.337	9.05
322.55	27.48
322.763	62.29
322.977	4.95
323.19	62.29
323.403	47.96
323.617	-25.77
323.83	58.2
324.043	50
324.256	86.87
324.469	-1.19
324.683	84.82
324.896	54.1
325.109	84.82
325.322	88.92
325.535	31.57
325.748	-42.15
325.962	64.34
326.175	56.15
326.388	-1.19
326.601	2.9
326.814	54.1
327.027	50
327.24	117.59
327.453	56.15
327.666	-1.19
327.879	56.15
328.092	107.35
328.305	7
328.518	2.9
328.731	23.38
328.944	31.57
329.157	88.92
329.37	43.86
329.583	72.53
329.796	144.21
330.009	-25.77
330.222	-17.58
330.435	9.05
330.648	47.96
330.861	58.2
331.073	84.82
331.286	27.48
331.499	-5.29
331.712	2.9
331.925	86.87
332.138	86.87
332.35	52.05
332.563	-21.67
332.776	97.11
332.989	60.24
333.202	52.05
333.414	62.29
333.627	27.48
333.84	82.77
334.053	-11.43
334.265	7
334.478	25.43
334.691	31.57
334.903	76.63
335.116	-21.67
335.329	25.43
335.541	68.44
335.754	183.12
335.966	-11.43
336.179	15.19
336.392	64.34
336.604	64.34
336.817	88.92
337.029	7
337.242	7
337.454	23.38
337.667	11.09
337.88	47.96
338.092	25.43
338.305	68.44
338.517	-11.43
338.729	23.38
338.942	62.29
339.154	7
339.367	27.48
339.579	15.19
339.792	7
340.004	62.29
340.217	39.76
340.429	25.43
340.641	-23.72
340.854	9.05
341.066	-29.87
341.278	56.15
341.491	56.15
341.703	-13.48
341.915	47.96
342.128	86.87
342.34	60.24
342.552	17.24
342.764	129.88
342.977	64.34
343.189	56.15
343.401	140.12
343.613	11.09
343.826	52.05
344.038	21.33
344.25	72.53
344.462	-21.67
344.674	-1.19
344.886	29.52
345.099	64.34
345.311	29.52
345.523	35.67
345.735	31.57
345.947	25.43
346.159	-1.19
346.371	29.52
346.583	33.62
346.795	146.26
347.007	29.52
347.219	86.87
347.431	52.05
347.643	86.87
347.855	23.38
348.067	27.48
348.279	-21.67
348.491	21.33
348.703	25.43
348.915	74.58
349.127	-42.15
349.339	97.11
349.551	-17.58
349.763	68.44
349.975	-31.91
350.187	172.88
350.399	68.44
350.61	7
350.822	84.82
351.034	84.82
351.246	-1.19
351.458	64.34
351.669	64.34
351.881	93.01
352.093	80.72
352.305	58.2
352.517	111.44
352.728	56.15
352.94	17.24
353.152	35.67
353.363	21.33
353.575	-25.77
353.787	52.05
353.999	105.3
354.21	74.58
354.422	47.96
354.633	54.1
354.845	76.63
355.057	78.68
355.268	58.2
355.48	43.86
355.692	-21.67
355.903	-1.19
356.115	88.92
356.326	-60.59
356.538	72.53
356.749	23.38
356.961	31.57
357.172	80.72
357.384	-91.31
357.595	43.86
357.807	4.95
358.018	50
358.23	62.29
358.441	93.01
358.653	107.35
358.864	25.43
359.075	72.53
359.287	56.15
359.498	123.73
359.709	-11.43
359.921	23.38
360.132	54.1
360.344	0.85
360.555	113.49
360.766	74.58
360.977	17.24
361.189	88.92
361.4	115.54
361.611	62.29
361.823	11.09
362.034	131.92
362.245	-7.34
362.456	29.52
362.667	97.11
362.879	72.53
363.09	45.91
363.301	64.34
363.512	-9.39
363.723	11.09
363.935	78.68
364.146	101.2
364.357	64.34
364.568	86.87
364.779	35.67
364.99	66.39
365.201	31.57
365.412	86.87
365.623	-33.96
365.834	72.53
366.045	43.86
366.256	43.86
366.467	50
366.678	60.24
366.889	-7.34
367.1	15.19
367.311	95.06
367.522	35.67
367.733	-21.67
367.944	93.01
368.155	31.57
368.366	56.15
368.577	125.78
368.788	78.68
368.999	-21.67
369.209	68.44
369.42	101.2
369.631	97.11
369.842	17.24
370.053	25.43
370.264	97.11
370.474	15.19
370.685	68.44
370.896	41.81
371.107	74.58
371.317	146.26
371.528	76.63
371.739	146.26
371.95	82.77
372.16	84.82
372.371	-9.39
372.582	72.53
372.792	72.53
373.003	7
373.214	72.53
373.424	15.19
373.635	-11.43
373.846	72.53
374.056	58.2
374.267	123.73
374.477	58.2
374.688	103.25
374.898	15.19
375.109	72.53
375.319	31.57
375.53	52.05
375.74	-9.39
375.951	56.15
376.161	47.96
376.372	88.92
376.582	23.38
376.793	15.19
377.003	31.57
377.214	45.91
377.424	54.1
377.635	80.72
377.845	43.86
378.055	39.76
378.266	52.05
378.476	88.92
378.686	52.05
378.897	70.48
379.107	97.11
379.317	93.01
379.528	-9.39
379.738	93.01
379.948	31.57
380.158	43.86
380.369	47.96
380.579	88.92
380.789	23.38
380.999	62.29
381.21	62.29
381.42	74.58
381.63	109.4
381.84	133.97
382.05	70.48
382.261	-25.77
382.471	93.01
382.681	-38.06
382.891	47.96
383.101	25.43
383.311	70.48
383.521	-3.24
383.731	74.58
383.941	97.11
384.151	119.64
384.361	74.58
384.571	41.81
384.781	37.72
384.991	152.4
385.201	47.96
385.411	88.92
385.621	47.96
385.831	21.33
386.041	68.44
386.251	-1.19
386.461	183.12
386.671	45.91
386.881	125.78
387.091	105.3
387.301	54.1
387.511	17.24
387.72	35.67
387.93	109.4
388.14	21.33
388.35	21.33
388.56	31.57
388.769	119.64
388.979	84.82
389.189	45.91
389.399	80.72
389.609	84.82
389.818	70.48
390.028	58.2
390.238	95.06
390.447	-42.15
390.657	60.24
390.867	11.09
391.076	60.24
391.286	41.81
391.496	60.24
391.705	72.53
391.915	35.67
392.125	187.22
392.334	66.39
392.544	156.5
392.753	82.77
392.963	105.3
393.172	101.2
393.382	2.9
393.591	82.77
393.801	76.63
394.01	66.39
394.22	117.59
394.429	103.25
394.639	56.15
394.848	123.73
395.058	103.25
395.267	101.2
395.477	109.4
395.686	56.15
395.895	121.68
396.105	136.02
396.314	97.11
396.524	90.96
396.733	15.19
396.942	50
397.152	54.1
397.361	101.2
397.57	82.77
397.78	66.39
397.989	70.48
398.198	119.64
398.407	158.55
398.617	136.02
398.826	144.21
399.035	158.55
399.244	76.63
399.453	95.06
399.663	164.69
399.872	152.4
400.081	80.72
400.29	152.4
400.499	39.76
400.708	170.83
400.917	97.11
401.127	93.01
401.336	142.16
401.545	181.07
401.754	144.21
401.963	88.92
402.172	142.16
402.381	64.34
402.59	156.5
402.799	193.36
403.008	82.77
403.217	136.02
403.426	131.92
403.635	72.53
403.844	129.88
404.053	172.88
404.262	74.58
404.471	162.64
404.68	195.41
404.888	181.07
405.097	195.41
405.306	183.12
405.515	168.79
405.724	228.18
405.933	150.36
406.142	152.4
406.35	193.36
406.559	205.65
406.768	201.55
406.977	131.92
407.185	258.9
407.394	185.17
407.603	281.43
407.812	244.56
408.02	267.09
408.229	215.89
408.438	187.22
408.646	168.79
408.855	199.51
409.064	256.85
409.272	240.47
409.481	275.28
409.69	275.28
409.898	297.81
410.107	402.26
410.315	326.48
410.524	385.87
410.733	332.62
410.941	400.21
411.15	420.69
411.358	340.82
411.567	410.45
411.775	435.02
411.984	478.03
412.192	457.55
412.401	387.92
412.609	535.37
412.818	490.32
413.026	576.33
413.234	502.61
413.443	541.52
413.651	516.94
413.86	602.96
414.068	693.07
414.276	549.71
414.485	609.1
414.693	768.84
414.901	760.65
415.11	756.55
415.318	766.79
415.526	805.71
415.734	736.07
415.943	797.51
416.151	822.09
416.359	951.11
416.567	867.14
416.776	969.54
416.984	965.45
417.192	1039.17
417.4	1102.66
417.608	977.73
417.817	1004.36
418.025	1162.05
418.233	1164.1
418.441	1137.48
418.649	1274.69
418.857	1317.7
419.065	1418.05
419.273	1381.18
419.481	1450.82
419.689	1416
419.897	1583.93
420.105	1510.21
420.313	1784.63
420.521	1702.72
420.729	1729.34
420.937	1780.54
421.145	1813.31
421.353	1880.89
421.561	1971
421.769	2114.36
421.977	2329.39
422.185	2222.9
422.393	2179.89
422.601	2372.4
422.809	2421.55
423.017	2372.4
423.224	2564.91
423.432	2665.26
423.64	2616.11
423.848	2857.77
424.056	2751.28
424.263	3095.33
424.471	3029.8
424.679	2980.65
424.887	3023.66
425.094	3339.04
425.302	3343.14
425.51	3410.72
425.718	3595.04
425.925	3664.67
426.133	3668.77
426.341	3914.52
426.548	4023.06
426.756	4025.11
426.964	4211.48
427.171	4446.99
427.379	4549.39
427.586	4492.05
427.794	4705.04
428.001	4811.53
428.209	5067.53
428.417	5180.17
428.624	5356.29
428.832	5513.99
429.039	5362.44
429.247	5495.55
429.454	5970.68
429.662	6214.39
429.869	5950.2
430.076	6427.38
430.284	6021.88
430.491	6460.15
430.699	6777.58
430.906	6802.16
431.114	6863.6
431.321	7205.61
431.528	7240.42
431.736	7609.06
431.943	8092.38
432.15	7826.14
432.358	7981.79
432.565	8481.49
432.772	8383.19
432.979	8780.5
433.187	8993.48
433.394	8936.14
433.601	9650.88
433.808	9644.74
434.016	9339.59
434.223	10025.66
434.43	10418.87
434.637	10320.57
434.844	10853.04
435.052	11039.4
435.259	10855.09
435.466	11168.43
435.673	11027.12
435.88	11874.98
436.087	12358.3
436.294	12182.17
436.501	11958.94
436.708	12176.03
436.915	12587.67
437.122	13372.04
437.329	13240.97
437.537	13507.21
437.743	13914.75
437.95	13619.85
438.157	14762.61
438.364	15100.53
438.571	15002.22
438.778	15045.23
438.985	16454.23
439.192	15774.31
439.399	16314.97
439.606	15743.59
439.813	16671.32
440.02	17857.09
440.227	17592.9
440.433	17422.92
440.64	18086.47
440.847	17967.68
441.054	18481.72
441.261	19358.25
441.467	18928.18
441.674	19624.49
441.881	20458.01
442.088	20095.52
442.294	19888.68
442.501	20810.26
442.708	20916.76
442.914	21889.54
443.121	22530.56
443.328	22061.57
443.534	23839.21
443.741	23169.52
443.948	22548.99
444.154	24443.36
444.361	24195.56
444.568	24363.49
444.774	24476.13
444.981	24553.95
445.187	25164.25
445.394	26083.78
445.6	25792.97
445.807	28588.45
446.013	27560.37
446.22	28123.56
446.426	28690.85
446.633	29057.43
446.839	29872.53
447.046	28670.37
447.252	30357.89
447.459	30546.31
447.665	30056.84
447.871	31506.8
448.078	32641.38
448.284	31441.27
448.491	32166.25
448.697	33376.6
448.903	33911.12
449.11	33689.94
449.316	33124.7
449.522	33712.47
449.728	34906.43
449.935	35074.37
450.141	35197.24
450.347	35754.29
450.553	34736.45
450.76	34855.23
450.966	35805.49
451.172	35707.19
451.378	36960.55
451.584	35920.18
451.791	36575.53
451.997	36690.21
452.203	37181.73
452.409	36852
452.615	37302.56
452.821	35529.02
453.027	34906.43
453.233	36868.39
453.44	35139.9
453.646	36221.23
453.852	36079.92
454.058	36598.05
454.264	35356.99
454.47	36110.64
454.676	34869.57
454.882	36401.45
455.088	33401.18
455.294	33620.31
455.5	34113.87
455.705	34496.84
455.911	33212.76
456.117	32125.29
456.323	31914.35
456.529	29862.29
456.735	31492.47
456.941	30718.34
457.147	30325.13
457.352	29292.95
457.558	28570.02
457.764	29110.68
457.97	28307.88
458.176	27918.76
458.381	27675.06
458.587	26507.71
458.793	26417.6
458.999	24986.07
459.204	26735.04
459.41	26141.13
459.616	24162.79
459.821	24265.19
460.027	24295.91
460.233	23658.99
460.438	22653.44
460.644	22946.3
460.85	21799.43
461.055	21449.23
461.261	21475.85
461.466	19954.21
461.672	19229.23
461.878	20486.68
462.083	19327.53
462.289	18868.79
462.494	18772.53
462.7	17898.05
462.905	17263.18
463.111	18086.47
463.316	18209.34
463.522	17828.42
463.727	17756.74
463.932	17625.67
464.138	17584.71
464.343	17670.73
464.549	17048.15
464.754	17670.73
464.959	17533.51
465.165	17363.53
465.37	16943.7
465.575	16120.42
465.781	16955.99
465.986	17025.62
466.191	16314.97
466.397	16022.11
466.602	15284.84
466.807	15942.24
467.012	15782.5
467.218	16034.4
467.423	15559.27
467.628	15774.31
467.833	16431.71
468.038	15813.22
468.244	15422.06
468.449	15827.56
468.654	15192.69
468.859	15395.43
469.064	14981.74
469.269	14641.78
469.474	14764.66
469.679	14856.82
469.885	14555.77
470.09	14613.11
470.295	14680.69
470.5	14195.32
470.705	14340.73
470.91	14051.97
471.115	13892.23
471.32	14281.34
471.525	14160.51
471.73	13523.59
471.935	13673.09
472.139	13144.72
472.344	13351.56
472.549	13396.62
472.754	13159.05
472.959	12939.92
473.164	12602.01
473.369	12483.22
473.574	12489.37
473.778	12645.01
473.983	12470.94
474.188	12632.72
474.393	11866.78
474.598	12032.67
474.802	11936.42
475.007	12067.49
475.212	11754.15
475.417	11270.83
475.621	11287.21
475.826	11262.63
476.031	11242.15
476.235	10967.73
476.44	11311.78
476.645	10951.34
476.849	11002.54
477.054	10703.54
477.259	10422.97
477.463	10398.39
477.668	10357.43
477.872	10449.59
478.077	10185.4
478.282	10222.27
478.486	10134.2
478.691	9917.12
478.895	10076.86
479.1	9966.27
479.304	9919.17
479.509	9607.87
479.713	9896.64
479.918	9407.17
480.122	9611.97
480.326	9681.6
480.531	9661.12
480.735	9278.15
480.94	9429.7
481.144	9755.33
481.348	9198.28
481.553	9282.25
481.757	9145.03
481.961	9345.73
482.166	9286.34
482.37	9222.86
482.574	9140.94
482.778	9239.24
482.983	9290.44
483.187	9317.06
483.391	9110.22
483.595	9372.36
483.8	9214.66
484.004	9120.46
484.208	9374.41
484.412	9190.09
484.616	9167.56
484.821	9132.75
485.025	8925.9
485.229	9331.4
485.433	9020.11
485.637	9190.09
485.841	9155.27
486.045	9185.99
486.249	9198.28
486.453	9120.46
486.657	9288.39
486.861	9185.99
487.065	9081.55
487.269	9263.82
487.473	8936.14
487.677	9089.74
487.881	9349.83
488.085	8899.28
488.289	9116.36
488.493	9036.49
488.697	9286.34
488.901	9267.91
489.105	9104.07
489.309	9452.23
489.512	9382.6
489.716	9167.56
489.92	9308.87
490.124	9327.3
490.328	9503.43
490.531	9278.15
490.735	9536.2
490.939	9401.03
491.143	9468.61
491.346	9390.79
491.55	9673.41
491.754	9571.01
491.958	9759.42
492.161	9505.48
492.365	9736.9
492.569	9808.58
492.772	9589.44
492.976	9740.99
493.18	9833.15
493.383	10048.19
493.587	10072.76
493.79	10339
493.994	10005.18
494.197	10103.48
494.401	10265.27
494.605	10304.18
494.808	10463.93
495.012	10414.77
495.215	10465.97
495.419	10625.72
495.622	10607.28
495.825	10687.15
496.029	10672.82
496.232	11063.98
496.436	10750.64
496.639	11156.14
496.843	11080.36
497.046	11193
497.249	11369.13
497.453	11551.4
497.656	11561.64
497.859	11743.91
498.063	11610.79
498.266	12018.33
498.469	12128.92
498.673	12151.45
498.876	12524.18
499.079	12524.18
499.282	12352.15
499.485	12765.84
499.689	12868.24
499.892	13255.31
500.095	12933.78
500.298	13390.47
500.501	13249.16
500.705	13810.31
500.908	13652.61
501.111	13818.5
501.314	14082.69
501.517	14082.69
501.72	13968
501.923	14195.32
502.126	14703.22
502.329	14776.95
502.532	15067.76
502.735	15020.66
502.938	15198.83
503.141	15526.5
503.344	15555.18
503.547	15688.29
503.75	15633
503.953	15979.11
504.156	16284.25
504.359	16351.84
504.562	16542.3
504.765	16986.71
504.968	16960.08
505.17	17052.24
505.373	17074.77
505.576	17527.37
505.779	17625.67
505.982	17742.41
506.185	18252.35
506.387	18162.24
506.59	18248.25
506.793	18983.48
506.996	18551.35
507.198	19104.31
507.401	19032.63
507.604	19382.83
507.807	19810.86
508.009	20265.5
508.212	19950.12
508.415	20566.56
508.617	20679.19
508.82	20589.08
509.022	20552.22
509.225	21127.7
509.428	21379.6
509.63	21660.17
509.833	21592.59
510.035	22108.68
510.238	21774.86
510.44	22315.52
510.643	22735.35
510.845	22757.88
511.048	22794.75
511.25	22923.77
511.453	23439.86
511.655	24144.36
511.858	23822.83
512.06	24019.43
512.262	24668.64
512.465	24396.26
512.667	25127.38
512.87	25309.65
513.072	25174.49
513.274	25625.04
513.477	25768.4
513.679	26208.71
513.881	26431.94
514.084	26735.04
514.286	26390.98
514.488	26874.3
514.69	27752.88
514.893	27378.1
515.095	27752.88
515.297	28105.13
515.499	28295.59
515.701	28656.03
515.904	28707.23
516.106	29319.57
516.308	29340.05
516.51	29528.47
516.712	29770.13
516.914	29806.99
517.116	30728.58
517.318	30531.97
517.52	31005.05
517.722	31142.27
517.925	31463.8
518.127	32008.56
518.329	32115.05
518.531	32119.15
518.733	32729.44
518.935	33020.25
519.136	32883.04
519.338	33372.5
519.54	33595.73
519.742	33634.64
519.944	33919.31
520.146	34867.52
520.348	34867.52
520.55	35146.05
520.752	34879.81
520.954	36155.69
521.155	35670.33
521.357	36266.28
521.559	36479.27
521.761	37277.98
521.963	37030.18
522.164	37400.86
522.366	37531.93
522.568	37486.87
522.77	37949.71
522.971	38611.21
523.173	38293.77
523.375	38838.53
523.576	38902.02
523.778	39026.95
523.98	39594.23
524.181	39565.56
524.383	39887.09
524.584	40083.7
524.786	40163.57
524.988	40446.19
525.189	40698.09
525.391	41085.15
525.592	41228.51
525.794	41337.05
525.995	41601.24
526.197	41533.66
526.398	41529.56
526.6	42291.41
526.801	42127.57
527.003	42244.3
527.204	42488.01
527.406	42860.74
527.607	43018.44
527.808	43178.18
528.01	42866.89
528.211	42864.84
528.412	43808.95
528.614	43559.1
528.815	43966.65
529.016	44288.18
529.218	43835.58
529.419	44122.29
529.62	44079.28
529.822	44355.76
530.023	44409.01
530.224	44888.23
530.425	44310.71
530.626	44265.65
530.828	44378.29
531.029	45353.12
531.23	44656.81
531.431	44875.94
531.632	45101.22
531.833	45359.27
532.035	45430.94
532.236	45240.48
532.437	45674.65
532.638	45133.99
532.839	45392.03
533.04	45490.34
533.241	45357.22
533.442	46481.55
533.643	45430.94
533.844	45736.09
534.045	45916.31
534.246	45476
534.447	45791.39
534.648	45797.53
534.849	45482.14
535.05	45234.34
535.251	46153.88
535.451	45760.67
535.652	46020.76
535.853	45961.37
536.054	46125.21
536.255	46356.63
536.456	45570.21
536.657	46960.78
536.857	45576.35
537.058	45942.94
537.259	45967.51
537.46	46383.25
537.66	46008.47
537.861	46289.04
538.062	46268.56
538.263	46399.63
538.463	45506.72
538.664	45861.02
538.865	46196.88
539.065	46631.05
539.266	45750.43
539.466	46477.46
539.667	45570.21
539.868	46524.56
540.068	46094.49
540.269	46280.85
540.469	46426.26
540.67	46454.93
540.87	45891.74
541.071	46119.06
541.271	46002.33
541.472	46176.4
541.672	46084.25
541.873	45944.98
542.073	45453.47
542.274	46545.04
542.474	46117.01
542.675	45801.63
542.875	46459.02
543.075	46256.28
543.276	45389.98
543.476	46442.64
543.676	45441.18
543.877	46018.71
544.077	45639.84
544.277	45885.59
544.478	46176.4
544.678	46008.47
544.878	45650.08
545.078	45842.59
545.279	45848.73
545.479	45967.51
545.679	45957.27
545.879	46061.72
546.079	45592.73
546.28	45764.76
546.48	45686.94
546.68	45756.57
546.88	45951.13
547.08	46055.57
547.28	45748.38
547.48	45111.46
547.68	45582.49
547.88	45572.25
548.081	46041.24
548.281	45932.7
548.481	45285.54
548.681	46053.53
548.881	45850.78
549.081	45539.49
549.28	45588.64
549.48	45906.07
549.68	45531.29
549.88	46014.62
550.08	45007.01
550.28	45666.46
550.48	45473.95
550.68	45846.68
550.88	45598.88
551.08	45295.78
551.279	45209.76
551.479	45365.41
551.679	45580.45
551.879	45228.2
552.079	45451.42
552.278	45338.79
552.478	45322.4
552.678	45336.74
552.878	45469.86
553.077	45301.92
553.277	45101.22
553.477	45576.35
553.676	45000.87
553.876	45568.16
554.076	44708.01
554.275	44712.11
554.475	44634.28
554.674	45142.18
554.874	45252.77
555.074	44814.51
555.273	44935.34
555.473	44949.67
555.672	44593.32
555.872	44695.72
556.071	44679.34
556.271	45052.07
556.47	44581.04
556.67	44435.63
556.869	44523.69
557.068	44748.97
557.268	44193.97
557.467	44501.17
557.667	44048.57
557.866	44228.79
558.065	43813.05
558.265	44292.27
558.464	43612.35
558.663	44466.35
558.863	43405.5
559.062	44308.66
559.261	43671.74
559.461	44628.14
559.66	43442.37
559.859	43806.9
560.058	43622.59
560.258	43712.7
560.457	43229.38
560.656	43376.83
560.855	43198.66
561.054	43276.48
561.253	42973.38
561.453	43098.31
561.652	43346.11
561.851	42954.95
562.05	43147.46
562.249	42860.74
562.448	42787.02
562.647	43018.44
562.846	42348.75
563.045	42705.1
563.244	42293.46
563.443	42911.94
563.642	42432.72
563.841	42019.03
564.04	41756.89
564.239	41928.92
564.438	41744.6
564.637	41717.98
564.836	42238.16
565.035	41464.03
565.234	41615.58
565.432	41421.02
565.631	41357.53
565.83	41357.53
566.029	41124.07
566.228	41277.66
566.427	40943.84
566.625	41132.26
566.824	40308.97
567.023	40845.54
567.222	40055.03
567.42	40687.85
567.619	40499.44
567.818	40460.52
568.016	40370.41
568.215	40419.56
568.414	39975.16
568.612	40186.1
568.811	39543.03
569.01	39528.7
569.208	39059.71
569.407	39602.43
569.605	39020.8
569.804	39227.65
570.002	38912.26
570.201	39119.1
570.4	38623.5
570.598	38560.01
570.797	38281.49
570.995	39125.25
571.193	38185.23
571.392	38611.21
571.59	38461.71
571.789	38093.07
571.987	38045.97
572.186	37886.23
572.384	37880.08
572.582	38088.98
572.781	37959.95
572.979	37212.45
573.177	37298.46
573.376	37493.02
573.574	37261.6
573.772	37163.29
573.971	36892.96
574.169	36935.97
574.367	36518.18
574.565	36895.01
574.763	36294.96
574.962	36559.14
575.16	36143.41
575.358	36684.07
575.556	36159.79
575.754	36323.63
575.952	35731.76
576.151	36272.43
576.349	35733.81
576.547	35799.35
576.745	35682.61
576.943	35686.71
577.141	35490.1
577.339	35866.93
577.537	34963.78
577.735	35262.78
577.933	34883.91
578.131	35430.71
578.329	34677.06
578.527	34666.82
578.725	34775.36
578.923	34545.99
579.121	34173.26
579.319	34525.51
579.516	34402.63
579.714	34505.03
579.912	33937.74
580.11	33966.42
580.308	34109.77
580.506	33829.2
580.704	33530.2
580.901	33788.24
581.099	33476.95
581.297	33698.13
581.495	33198.43
581.692	33411.42
581.89	33186.14
582.088	33470.81
582.285	33083.74
582.483	33495.38
582.681	33036.64
582.878	33014.11
583.076	32481.64
583.274	32973.15
583.471	32266.6
583.669	32276.84
583.866	32135.53
584.064	32328.04
584.262	31816.05
584.459	32301.42
584.657	32244.07
584.854	32270.7
585.052	31656.31
585.249	31848.82
585.447	31902.06
585.644	31261.05
585.841	31459.7
586.039	31365.49
586.236	31121.79
586.434	30966.14
586.631	30898.56
586.828	31105.4
587.026	30865.79
587.223	30728.58
587.42	30685.57
587.618	31093.11
587.815	30310.79
588.012	30536.07
588.21	30728.58
588.407	30353.8
588.604	30288.26
588.801	29911.44
588.999	30058.89
589.196	30153.1
589.393	29653.39
589.59	29872.53
589.787	29675.92
589.984	29354.39
590.182	29362.58
590.379	30030.22
590.576	29286.81
590.773	29491.6
590.97	29008.28
591.167	29428.12
591.364	28680.61
591.561	28887.45
591.758	28756.38
591.955	29045.15
592.152	28692.9
592.349	28518.82
592.546	29000.09
592.743	28445.09
592.94	27765.17
593.137	28236.2
593.334	28318.12
593.531	27867.56
593.727	28182.95
593.924	27900.33
594.121	27820.46
594.318	28164.52
594.515	27394.48
594.712	27982.25
594.908	27339.19
595.105	27365.81
595.302	27232.69
595.499	27308.47
595.696	27349.43
595.892	27093.43
596.089	27201.97
596.286	27087.29
596.482	26851.77
596.679	26651.07
596.876	26739.13
597.072	26499.52
597.269	26812.86
597.466	26692.03
597.662	26563.01
597.859	26628.54
598.055	26520
598.252	26227.14
598.448	25838.03
598.645	26073.54
598.841	25747.92
599.038	25946.57
599.234	25829.84
599.431	25391.57
599.627	25321.94
599.824	25864.65
600.02	25170.39
600.217	25194.96
600.413	25565.65
600.609	25229.78
600.806	25065.94
601.002	25690.57
601.198	25033.18
601.395	24959.45
601.591	25145.81
601.787	24906.2
601.984	24789.47
602.18	25059.8
602.376	24490.46
602.572	24426.98
602.769	24508.9
602.965	24300
603.161	24383.97
603.357	24222.18
603.553	24173.03
603.75	23994.86
603.946	23628.27
604.142	23951.85
604.338	23767.53
604.534	23943.66
604.73	23718.38
604.926	23779.82
605.122	23376.37
605.318	23269.87
605.514	23550.45
605.71	23405.04
605.906	22989.3
606.102	23611.89
606.298	23163.38
606.494	23116.28
606.69	23165.43
606.886	23218.68
607.082	22817.27
607.278	23249.39
607.474	22618.62
607.67	23028.21
607.866	22587.9
608.062	22843.9
608.257	22438.4
608.453	22376.96
608.649	22325.76
608.845	22432.26
609.041	22258.18
609.236	22546.94
609.432	22385.15
609.628	22432.26
609.824	21860.87
610.019	22424.06
610.215	22061.57
610.411	22245.89
610.606	22157.83
610.802	22014.47
610.998	21617.16
611.193	21828.1
611.389	21778.95
611.584	21608.97
611.78	21391.89
611.976	21711.37
612.171	21422.61
612.367	21580.3
612.562	21703.18
612.758	21240.34
612.953	21207.57
613.149	21316.11
613.344	20982.29
613.539	21576.2
613.735	21432.85
613.93	21484.05
614.126	20967.96
614.321	21088.79
614.517	21127.7
614.712	20976.15
614.907	20791.83
615.103	21144.08
615.298	20990.49
615.493	21121.56
615.688	20783.64
615.884	20994.58
616.079	20630.04
616.274	20580.89
616.47	20881.94
616.665	20736.54
616.86	20328.99
617.055	20556.32
617.25	20267.55
617.445	20527.64
617.641	20113.95
617.836	20279.84
618.031	19921.45
618.226	20464.16
618.421	20281.89
618.616	20193.83
618.811	19741.22
619.006	20169.25
619.201	19309.1
619.396	19743.27
619.591	19337.77
619.786	19819.05
619.981	19489.32
620.176	19745.32
620.371	19462.7
620.566	19319.34
620.761	19458.6
620.956	19395.12
621.151	18743.86
621.346	19139.12
621.541	18846.26
621.735	18803.25
621.93	18584.12
622.125	18582.07
622.32	18346.56
622.515	18324.03
622.709	18315.84
622.904	18545.21
623.099	18305.6
623.294	17908.29
623.488	18133.57
623.683	17906.24
623.878	17629.77
624.072	17756.74
624.267	17787.46
624.462	17490.51
624.656	17478.22
624.851	17353.29
625.046	17427.02
625.24	17211.98
625.435	17001.04
625.629	16921.17
625.824	16919.12
626.018	16743
626.213	16425.56
626.407	16945.75
626.602	16400.99
626.796	16620.12
626.991	16564.82
627.185	16296.54
627.38	16200.29
627.574	16116.32
627.768	15983.2
627.963	15815.27
628.157	15876.71
628.352	15932
628.546	15518.31
628.74	15719.01
628.935	15483.5
629.129	15610.47
629.323	15204.97
629.517	15272.56
629.712	15129.2
629.906	15243.88
630.1	14991.98
630.294	15096.43
630.489	14774.9
630.683	14971.5
630.877	14703.22
631.071	14672.5
631.265	14643.83
631.459	14465.66
631.653	14578.29
631.848	14594.68
632.042	14213.76
632.236	14131.84
632.43	14033.54
632.624	14160.51
632.818	14133.89
633.012	14013.06
633.206	13759.11
633.4	13892.23
633.594	13875.84
633.788	13740.68
633.982	13625.99
634.176	13625.99
634.369	13290.12
634.563	13699.72
634.757	13269.64
634.951	13238.92
635.145	13038.22
635.339	13130.38
635.533	13124.24
635.726	13075.09
635.92	12880.53
636.114	12819.09
636.308	12937.87
636.501	12810.9
636.695	12606.1
636.889	12655.25
637.083	12384.92
637.276	12610.2
637.47	12429.98
637.664	12149.4
637.857	12276.38
638.051	12206.75
638.244	12329.63
638.438	12112.54
638.632	12049.05
638.825	11856.54
639.019	11952.8
639.212	11651.75
639.406	11768.48
639.599	11723.43
639.793	11539.11
639.986	11504.29
640.18	11311.78
640.373	11500.2
640.567	11246.25
640.76	11217.58
640.954	11270.83
641.147	11088.56
641.34	11080.36
641.534	10939.05
641.727	11102.89
641.92	10945.2
642.114	10719.92
642.307	10693.3
642.5	10756.79
642.694	10588.85
642.887	10443.45
643.08	10662.58
643.273	10709.68
643.467	10465.97
643.66	10181.31
643.853	10326.71
644.046	10164.92
644.239	10107.58
644.432	10138.3
644.626	10203.83
644.819	9960.13
645.012	9986.75
645.205	9919.17
645.398	9888.45
645.591	9804.48
645.784	9855.68
645.977	9710.27
646.17	9841.34
646.363	9497.28
646.556	9335.49
646.749	9657.03
646.942	9419.46
647.135	9366.21
647.328	9446.09
647.521	9312.97
647.714	9194.19
647.907	9302.73
648.099	8981.2
648.292	9149.13
648.485	9059.02
648.678	8991.44
648.871	8948.43
649.064	8893.13
649.256	9020.11
649.449	8901.33
649.642	8807.12
649.835	8698.58
650.027	8792.78
650.22	8680.14
650.413	8714.96
650.605	8497.88
650.798	8641.23
650.991	8514.26
651.183	8559.31
651.376	8448.72
651.568	8309.46
651.761	8299.22
651.954	8282.84
652.146	8258.26
652.339	8262.36
652.531	8065.75
652.724	8075.99
652.916	7899.87
653.109	7774.94
653.301	8088.28
653.494	8198.87
653.686	7725.79
653.879	7740.13
654.071	7834.33
654.263	7793.37
654.456	7680.74
654.648	7699.17
654.84	7725.79
655.033	7764.7
655.225	7568.1
655.417	7613.15
655.61	7457.51
655.802	7609.06
655.994	7297.77
656.186	7297.77
656.379	7391.97
656.571	7308.01
656.763	7410.4
656.955	7181.03
657.148	7254.76
657.34	7353.06
657.532	7187.18
657.724	6974.19
657.916	7144.17
658.108	7125.74
658.3	6951.66
658.492	7035.63
658.684	6892.27
658.876	6902.51
659.068	6773.49
659.26	6871.79
659.452	6712.05
659.644	6798.06
659.836	6718.19
660.028	6611.7
660.22	6560.5
660.412	6787.82
660.604	6546.16
660.796	6634.22
660.988	6449.91
661.18	6435.57
661.372	6447.86
661.563	6497.01
661.755	6417.14
661.947	6406.9
662.139	6372.08
662.331	6331.12
662.522	6040.31
662.714	6103.8
662.906	6302.45
663.097	6302.45
663.289	5982.97
663.481	5987.07
663.673	6056.7
663.864	5962.49
664.056	6075.13
664.247	5978.87
664.439	5827.32
664.631	6015.74
664.822	5884.67
665.014	5819.13
665.205	5907.2
665.397	5872.38
665.588	5784.32
665.78	5747.45
665.971	5892.86
666.163	5878.52
666.354	5780.22
666.546	5677.82
666.737	5591.81
666.929	5552.9
667.12	5724.93
667.311	5645.06
667.503	5649.15
667.694	5501.7
667.885	5516.03
668.077	5368.58
668.268	5524.23
668.459	5389.06
668.651	5436.16
668.842	5460.74
669.033	5376.77
669.224	5462.79
669.416	5489.41
669.607	5378.82
669.798	5331.72
669.989	5405.44
670.18	5266.18
670.371	5280.52
670.563	5251.85
670.754	5395.2
670.945	5268.23
671.136	5155.59
671.327	5067.53
671.518	5214.98
671.709	5200.65
671.9	5196.55
672.091	5137.16
672.282	5229.32
672.473	5018.38
672.664	5135.11
672.855	5090.06
673.046	5014.28
673.237	5006.09
673.428	5120.78
673.619	5075.72
673.809	4856.59
674	4893.45
674.191	5016.33
674.382	4823.82
674.573	5020.42
674.764	4952.84
674.954	4887.31
675.145	4909.83
675.336	4860.68
675.527	4840.2
675.717	4791.05
675.908	4875.02
676.099	4864.78
676.289	4922.12
676.48	4846.35
676.671	4700.94
676.861	4836.11
677.052	4809.48
677.243	4750.09
677.433	4893.45
677.624	4772.62
677.814	4666.13
678.005	4680.46
678.195	4778.76
678.386	4692.75
678.576	4684.56
678.767	4639.5
678.957	4688.65
679.148	4842.25
679.338	4774.67
679.529	4713.23
679.719	4789
679.909	4782.86
680.1	4756.24
680.29	4750.09
680.481	4680.46
680.671	4782.86
680.861	4582.16
681.052	4735.76
681.242	4487.95
681.432	4666.13
681.622	4631.31
681.813	4522.77
682.003	4389.65
682.193	4602.64
682.383	4682.51
682.573	4631.31
682.764	4506.38
682.954	4801.29
683.144	4674.32
683.334	4627.21
683.524	4666.13
683.714	4680.46
683.904	4625.17
684.094	4664.08
684.284	4653.84
684.474	4518.67
684.664	4549.39
684.854	4526.86
685.044	4553.49
685.234	4553.49
685.424	4621.07
685.614	4463.38
685.804	4569.87
685.994	4502.29
686.184	4518.67
686.374	4535.06
686.564	4430.61
686.753	4467.47
686.943	4469.52
687.133	4356.88
687.323	4234
687.513	4565.78
687.702	4395.79
687.892	4287.25
688.082	4272.92
688.272	4340.5
688.461	4403.99
688.651	4238.1
688.841	4244.24
689.03	4320.02
689.22	4371.22
689.41	4133.65
689.599	4303.64
689.789	4348.69
689.979	4238.1
690.168	4234
690.358	4100.89
690.547	4270.87
690.737	4070.17
690.926	4172.57
691.116	4010.78
691.305	4174.61
691.495	4057.88
691.684	3973.91
691.874	3926.81
692.063	4131.61
692.252	4021.02
692.442	4012.82
692.631	3832.6
692.82	4008.73
693.01	3869.47
693.199	3922.71
693.388	3756.83
693.578	3816.22
693.767	3957.53
693.956	3853.08
694.146	3756.83
694.335	3824.41
694.524	3808.03
694.713	3750.68
694.902	3808.03
695.092	3902.23
695.281	3676.96
695.47	3822.36
695.659	3795.74
695.848	3814.17
696.037	3685.15
696.226	3898.14
696.415	3752.73
696.604	3832.6
696.793	3805.98
696.982	3713.82
697.171	3859.23
697.36	3715.87
697.549	3644.19
697.738	3644.19
697.927	3799.84
698.116	3705.63
698.305	3636
698.494	3693.34
698.683	3689.25
698.872	3654.43
699.061	3650.33
699.25	3597.09
699.438	3644.19
699.627	3638.05
699.816	3617.57
700.005	3595.04
700.193	3672.86
700.382	3670.81
700.571	3658.53
700.76	3543.84
700.948	3722.01
701.137	3627.81
701.326	3595.04
701.514	3595.04
701.703	3732.25
701.892	3539.74
702.08	3578.65
702.269	3586.85
702.457	3566.37
702.646	3750.68
702.834	3660.57
703.023	3652.38
703.212	3607.33
703.4	3564.32
703.589	3521.31
703.777	3502.88
703.965	3668.77
704.154	3642.14
704.342	3568.41
704.531	3629.85
704.719	3470.11
704.907	3742.49
705.096	3619.61
705.284	3664.67
705.472	3603.23
705.661	3607.33
705.849	3498.78
706.037	3529.5
706.226	3648.29
706.414	3633.95
706.602	3631.9
706.79	3619.61
706.979	3568.41
707.167	3666.72
707.355	3476.26
707.543	3509.02
707.731	3545.89
707.919	3615.52
708.107	3558.18
708.296	3701.53
708.484	3572.51
708.672	3621.66
708.86	3740.44
709.048	3609.37
709.236	3644.19
709.424	3769.12
709.612	3506.98
709.8	3533.6
709.988	3564.32
710.176	3670.81
710.364	3679.01
710.551	3676.96
710.739	3636
710.927	3500.83
711.115	3719.96
711.303	3717.92
711.491	3687.2
711.679	3613.47
711.866	3570.46
712.054	3599.13
712.242	3562.27
712.43	3611.42
712.617	3636
712.805	3613.47
712.993	3703.58
713.181	3578.65
713.368	3564.32
713.556	3568.41
713.744	3517.22
713.931	3734.3
714.119	3480.35
714.306	3693.34
714.494	3545.89
714.682	3713.82
714.869	3709.72
715.057	3752.73
715.244	3701.53
715.432	3719.96
715.619	3592.99
715.807	3656.48
715.994	3683.1
716.182	3521.31
716.369	3633.95
716.556	3681.05
716.744	3836.7
716.931	3726.11
717.119	3582.75
717.306	3742.49
717.493	3781.4
717.681	3711.77
717.868	3689.25
718.055	3652.38
718.242	3717.92
718.43	3732.25
718.617	3676.96
718.804	3629.85
718.991	3681.05
719.179	3762.97
719.366	3681.05
719.553	3781.4
719.74	3601.18
719.927	3648.29
720.114	3586.85
720.301	3719.96
720.488	3773.21
720.676	3691.29
720.863	3664.67
721.05	3717.92
721.237	3685.15
721.424	3676.96
721.611	3670.81
721.798	3726.11
721.985	3595.04
722.172	3586.85
722.358	3654.43
722.545	3736.35
722.732	3595.04
722.919	3625.76
723.106	3472.16
723.293	3537.7
723.48	3552.03
723.667	3566.37
723.853	3590.94
724.04	3556.13
724.227	3595.04
724.414	3586.85
724.6	3607.33
724.787	3607.33
724.974	3570.46
725.161	3556.13
725.347	3597.09
725.534	3660.57
725.72	3588.89
725.907	3609.37
726.094	3656.48
726.28	3531.55
726.467	3545.89
726.653	3707.68
726.84	3724.06
727.027	3703.58
727.213	3453.73
727.4	3666.72
727.586	3603.23
727.773	3504.93
727.959	3584.8
728.145	3492.64
728.332	3394.34
728.518	3783.45
728.705	3533.6
728.891	3504.93
729.077	3531.55
729.264	3521.31
729.45	3609.37
729.636	3592.99
729.823	3609.37
730.009	3611.42
730.195	3496.74
730.382	3523.36
730.568	3619.61
730.754	3474.21
730.94	3545.89
731.126	3611.42
731.313	3549.98
731.499	3529.5
731.685	3443.49
731.871	3656.48
732.057	3605.28
732.243	3525.41
732.429	3480.35
732.615	3554.08
732.801	3582.75
732.987	3588.89
733.173	3537.7
733.359	3392.29
733.545	3496.74
733.731	3373.86
733.917	3601.18
734.103	3445.54
734.289	3369.76
734.475	3453.73
734.661	3541.79
734.847	3414.82
735.033	3562.27
735.219	3414.82
735.404	3443.49
735.59	3433.25
735.776	3554.08
735.962	3482.4
736.148	3439.39
736.333	3492.64
736.519	3377.95
736.705	3457.82
736.89	3267.36
737.076	3324.71
737.262	3255.08
737.447	3345.19
737.633	3400.48
737.819	3466.02
738.004	3369.76
738.19	3402.53
738.375	3324.71
738.561	3402.53
738.747	3242.79
738.932	3359.52
739.118	3365.67
739.303	3332.9
739.489	3355.43
739.674	3296.04
739.859	3298.08
740.045	3228.45
740.23	3218.21
740.416	3250.98
740.601	3154.73
740.786	3193.64
740.972	3248.93
741.157	3203.88
741.342	3201.83
741.528	3091.24
741.713	3085.09
741.898	3076.9
742.084	3121.96
742.269	3156.77
742.454	3007.27
742.639	3132.2
742.824	3134.25
743.01	3158.82
743.195	3054.37
743.38	2972.46
743.565	3029.8
743.75	3015.46
743.935	2904.87
744.12	3144.49
744.305	2968.36
744.49	2941.74
744.675	2915.11
744.86	3035.94
745.045	2929.45
745.23	2919.21
745.415	2825
745.6	2990.89
745.785	2863.91
745.97	2958.12
746.155	2738.99
746.34	2788.14
746.525	2763.56
746.71	2718.51
746.895	2775.85
747.079	2751.28
747.264	2577.2
747.449	2812.71
747.634	2751.28
747.819	2650.92
748.003	2640.69
748.188	2612.01
748.373	2736.94
748.557	2648.88
748.742	2667.31
748.927	2642.73
749.111	2581.29
749.296	2499.38
749.481	2612.01
749.665	2509.62
749.85	2577.2
750.034	2439.98
750.219	2437.94
750.404	2390.83
750.588	2372.4
750.773	2476.85
750.957	2360.11
751.141	2435.89
751.326	2366.26
751.51	2351.92
751.695	2181.94
751.879	2347.83
752.064	2399.02
752.248	2304.82
752.432	2284.34
752.617	2208.56
752.801	2210.61
752.985	2222.9
753.17	2265.91
753.354	2249.52
753.538	2206.52
753.722	2235.19
753.907	2044.73
754.091	2143.03
754.275	2081.59
754.459	2095.93
754.643	2032.44
754.828	2034.49
755.012	2014.01
755.196	2022.2
755.38	2104.12
755.564	1925.94
755.748	1948.47
755.932	2030.39
756.116	1999.67
756.3	1905.46
756.484	1927.99
756.668	1733.43
756.852	1835.83
757.036	1897.27
757.22	1841.98
757.404	1862.46
757.588	1731.39
757.772	1774.39
757.956	1841.98
758.14	1891.13
758.323	1825.59
758.507	1805.11
758.691	1776.44
758.875	1807.16
759.059	1735.48
759.242	1774.39
759.426	1653.56
759.61	1678.14
759.794	1639.23
759.977	1616.7
760.161	1755.96
760.345	1661.76
760.528	1641.28
760.712	1684.28
760.895	1612.6
761.079	1643.32
761.263	1485.63
761.446	1616.7
761.63	1600.32
761.813	1514.3
761.997	1555.26
762.18	1612.6
762.364	1575.74
762.547	1434.43
762.731	1461.06
762.914	1563.45
763.098	1444.67
763.281	1444.67
763.464	1512.25
763.648	1514.3
763.831	1370.94
764.015	1356.61
764.198	1579.84
764.381	1514.3
764.564	1440.58
764.748	1420.1
764.931	1438.53
765.114	1348.42
765.297	1469.25
765.481	1407.81
765.664	1424.19
765.847	1430.34
766.03	1338.18
766.213	1366.85
766.397	1299.27
766.58	1297.22
766.763	1407.81
766.946	1428.29
767.129	1266.5
767.312	1389.38
767.495	1262.4
767.678	1348.42
767.861	1393.47
768.044	1334.08
768.227	1305.41
768.41	1248.07
768.593	1252.16
768.776	1329.99
768.959	1256.26
769.142	1307.46
769.324	1258.31
769.507	1252.16
769.69	1266.5
769.873	1203.01
770.056	1291.07
770.239	1209.15
770.421	1262.4
770.604	1188.68
770.787	1174.34
770.97	1162.05
771.152	1112.9
771.335	1141.57
771.518	1207.11
771.7	1227.59
771.883	1131.33
772.066	1166.15
772.248	1209.15
772.431	1209.15
772.613	1045.32
772.796	1096.52
772.978	1024.84
773.161	1082.18
773.343	1053.51
773.526	1030.98
773.708	1080.13
773.891	1149.76
774.073	1065.8
774.256	1084.23
774.438	1119.04
774.621	1030.98
774.803	1004.36
774.985	953.16
775.168	1098.56
775.35	969.54
775.532	1061.7
775.715	985.93
775.897	1008.45
776.079	1008.45
776.261	897.86
776.444	944.97
776.626	1000.26
776.808	1026.89
776.99	998.21
777.173	957.25
777.355	916.3
777.537	1037.13
777.719	899.91
777.901	932.68
778.083	803.66
778.265	840.52
778.447	947.01
778.629	904.01
778.811	914.25
778.993	836.42
779.175	861
779.357	920.39
779.539	750.41
779.721	817.99
779.903	861
780.085	824.14
780.267	807.75
780.449	754.51
780.631	844.62
780.812	774.99
780.994	840.52
781.176	774.99
781.358	830.28
781.54	750.41
781.721	748.36
781.903	834.38
782.085	715.59
782.267	836.42
782.448	650.06
782.63	740.17
782.812	731.98
782.993	711.5
783.175	764.75
783.357	717.64
783.538	660.3
783.72	711.5
783.901	625.48
784.083	709.45
784.264	705.35
784.446	648.01
784.627	645.96
784.809	602.96
784.99	641.87
785.172	727.88
785.353	660.3
785.535	621.39
785.716	633.68
785.897	684.87
786.079	564.04
786.26	535.37
786.441	621.39
786.623	523.09
786.804	555.85
786.985	615.24
787.167	609.1
787.348	473.93
787.529	549.71
787.71	580.43
787.891	584.52
788.073	525.13
788.254	506.7
788.435	465.74
788.616	494.41
788.797	557.9
788.978	525.13
789.159	537.42
789.34	496.46
789.522	539.47
789.703	471.89
789.884	559.95
790.065	494.41
790.246	463.69
790.427	432.97
790.607	514.89
790.788	549.71
790.969	420.69
791.15	596.81
791.331	580.43
791.512	461.65
791.693	469.84
791.874	531.28
792.054	490.32
792.235	449.36
792.416	408.4
792.597	455.5
792.778	469.84
792.958	457.55
793.139	428.88
793.32	494.41
793.5	402.26
793.681	531.28
793.862	471.89
794.042	383.82
794.223	422.73
794.404	408.4
794.584	355.15
794.765	453.45
794.945	359.25
795.126	404.3
795.306	447.31
795.487	420.69
795.667	373.58
795.848	318.29
796.028	473.93
796.209	402.26
796.389	383.82
796.57	398.16
796.75	363.34
796.93	301.9
797.111	332.62
797.291	420.69
797.471	353.1
797.652	351.06
797.832	332.62
798.012	359.25
798.192	318.29
798.373	324.43
798.553	340.82
798.733	312.14
798.913	332.62
799.093	336.72
799.274	367.44
799.454	385.87
799.634	400.21
799.814	392.02
799.994	346.96
800.174	340.82
800.354	353.1
800.534	320.34
800.714	369.49
800.894	297.81
801.074	373.58
801.254	267.09
801.434	293.71
801.614	344.91
801.794	273.23
801.974	744.27
802.154	215.89
802.334	330.58
802.514	324.43
802.693	363.34
802.873	262.99
803.053	379.73
803.233	283.47
803.413	332.62
803.592	365.39
803.772	283.47
803.952	330.58
804.131	271.19
804.311	289.62
804.491	318.29
804.67	281.43
804.85	185.17
805.03	365.39
805.209	252.75
805.389	238.42
805.568	310.1
805.748	265.04
805.928	209.75
806.107	265.04
806.287	287.57
806.466	285.52
806.646	285.52
806.825	308.05
807.004	267.09
807.184	211.79
807.363	273.23
807.543	240.47
807.722	275.28
807.901	236.37
808.081	289.62
808.26	236.37
808.439	242.51
808.619	260.95
808.798	279.38
808.977	281.43
809.156	322.38
809.336	256.85
809.515	289.62
809.694	252.75
809.873	232.27
810.052	332.62
810.231	267.09
810.411	314.19
810.59	154.45
810.769	269.14
810.948	260.95
811.127	219.99
811.306	281.43
811.485	207.7
811.664	324.43
811.843	224.08
812.022	224.08
812.201	289.62
812.38	197.46
812.559	201.55
812.737	150.36
812.916	217.94
813.095	179.03
813.274	193.36
813.453	250.71
813.632	234.32
813.811	269.14
813.989	262.99
814.168	236.37
814.347	219.99
814.526	197.46
814.704	283.47
814.883	205.65
815.062	111.44
815.24	213.84
815.419	148.31
815.598	88.92
815.776	232.27
815.955	168.79
816.133	170.83
816.312	207.7
816.49	176.98
816.669	133.97
816.847	162.64
817.026	242.51
817.204	219.99
817.383	154.45
817.561	215.89
817.74	164.69
817.918	146.26
818.097	179.03
818.275	234.32
818.453	174.93
818.632	176.98
818.81	162.64
818.988	142.16
819.167	230.23
819.345	189.27
819.523	142.16
819.701	154.45
819.879	181.07
820.058	133.97
820.236	199.51
820.414	125.78
820.592	162.64
820.77	72.53
820.948	144.21
821.127	185.17
821.305	195.41
821.483	162.64
821.661	160.59
821.839	150.36
822.017	170.83
822.195	160.59
822.373	127.83
822.551	183.12
822.729	164.69
822.907	127.83
823.085	136.02
823.262	185.17
823.44	179.03
823.618	170.83
823.796	117.59
823.974	152.4
824.152	156.5
824.329	166.74
824.507	187.22
824.685	144.21
824.863	183.12
825.04	140.12
825.218	150.36
825.396	123.73
825.574	166.74
825.751	209.75
825.929	93.01
826.107	97.11
826.284	168.79
826.462	90.96
826.639	80.72
826.817	109.4
826.994	88.92
827.172	158.55
827.349	144.21
827.527	105.3
827.704	84.82
827.882	170.83
828.059	133.97
828.237	123.73
828.414	68.44
828.591	84.82
828.769	127.83
828.946	97.11
829.124	144.21
829.301	127.83
829.478	121.68
829.655	140.12
829.833	123.73
830.01	15.19
830.187	156.5
830.364	97.11
830.542	113.49
830.719	70.48
830.896	136.02
831.073	111.44
831.25	203.6
831.427	146.26
831.604	129.88
831.782	127.83
831.959	154.45
832.136	162.64
832.313	103.25
832.49	113.49
832.667	158.55
832.844	105.3
833.021	152.4
833.198	76.63
833.374	150.36
833.551	117.59
833.728	119.64
833.905	154.45
834.082	138.07
834.259	47.96
834.436	154.45
834.612	60.24
834.789	101.2
834.966	11.09
835.143	109.4
835.319	82.77
835.496	103.25
835.673	170.83
835.85	119.64
836.026	43.86
836.203	152.4
836.38	119.64
836.556	140.12
836.733	97.11
836.909	90.96
837.086	129.88
837.262	93.01
837.439	146.26
837.616	109.4
837.792	64.34
837.968	109.4
838.145	64.34
838.321	131.92
838.498	170.83
838.674	127.83
838.851	144.21
839.027	107.35
839.203	56.15
839.38	60.24
839.556	31.57
839.732	80.72
839.909	64.34
840.085	103.25
840.261	-7.34
840.437	64.34
840.614	109.4
840.79	84.82
840.966	195.41
841.142	68.44
841.318	47.96
841.494	23.38
841.671	97.11
841.847	125.78
842.023	21.33
842.199	119.64
842.375	146.26
842.551	2.9
842.727	88.92
842.903	47.96
843.079	31.57
843.255	115.54
843.431	68.44
843.607	84.82
843.783	9.05
843.959	56.15
844.134	76.63
844.31	166.74
844.486	62.29
844.662	101.2
844.838	90.96
845.013	60.24
845.189	37.72
845.365	105.3
845.541	39.76
845.716	-19.63
845.892	125.78
846.068	58.2
846.244	21.33
846.419	54.1
846.595	60.24
846.77	29.52
846.946	105.3
847.122	64.34
847.297	43.86
847.473	136.02
847.648	7
847.824	101.2
847.999	84.82
848.175	80.72
848.35	50
848.526	78.68
848.701	62.29
848.876	23.38
849.052	107.35
849.227	101.2
849.403	62.29
849.578	86.87
849.753	82.77
849.929	7
850.104	47.96
850.279	72.53
850.454	99.16
850.63	84.82
850.805	4.95
850.98	72.53
851.155	27.48
851.33	62.29
851.505	58.2
851.681	80.72
851.856	103.25
852.031	11.09
852.206	17.24
852.381	4.95
852.556	-54.44
852.731	35.67
852.906	52.05
853.081	166.74
853.256	84.82
853.431	17.24
853.606	66.39
853.781	-9.39
853.956	4.95
854.131	11.09
854.305	11.09
854.48	41.81
854.655	31.57
854.83	60.24
855.005	17.24
855.18	35.67
855.354	21.33
855.529	97.11
855.704	43.86
855.879	17.24
856.053	-7.34
856.228	45.91
856.403	74.58
856.577	39.76
856.752	-44.2
856.926	-27.82
857.101	31.57
857.276	86.87
857.45	105.3
857.625	15.19
857.799	101.2
857.974	88.92
858.148	43.86
858.323	72.53
858.497	31.57
858.672	2.9
858.846	-5.29
859.02	7
859.195	-46.25
859.369	29.52
859.543	109.4
859.718	45.91
859.892	97.11
860.066	41.81
860.241	23.38
860.415	11.09
860.589	23.38
860.763	31.57
860.938	62.29
861.112	27.48
861.286	-74.92
861.46	47.96
861.634	-1.19
861.808	64.34
861.982	31.57
862.157	15.19
862.331	88.92
862.505	0.85
862.679	11.09
862.853	76.63
863.027	27.48
863.201	58.2
863.375	4.95
863.549	119.64
863.722	31.57
863.896	105.3
864.07	-42.15
864.244	-5.29
864.418	27.48
864.592	62.29
864.766	47.96
864.939	7
865.113	35.67
865.287	72.53
865.461	45.91
865.634	-40.11
865.808	-5.29
865.982	21.33
866.156	-38.06
866.329	-3.24
866.503	35.67
866.676	50
866.85	68.44
867.024	54.1
867.197	9.05
867.371	37.72
867.544	68.44
867.718	88.92
867.891	-25.77
868.065	15.19
868.238	23.38
868.412	39.76
868.585	-21.67
868.759	-52.39
868.932	-33.96
869.105	-13.48
869.279	52.05
869.452	11.09
869.625	2.9
869.799	-17.58
869.972	31.57
870.145	-13.48
870.319	47.96
870.492	4.95
870.665	-36.01
870.838	35.67
871.011	0.85
871.185	-5.29
871.358	-23.72
871.531	41.81
871.704	-9.39
871.877	-42.15
872.05	-11.43
872.223	-9.39
872.396	74.58
872.569	60.24
872.742	-1.19
872.915	15.19
873.088	7
873.261	27.48
873.434	-13.48
873.607	-44.2
873.78	43.86
873.953	-23.72
874.126	-60.59
874.299	72.53
874.471	15.19
874.644	-36.01
874.817	62.29
874.99	78.68
875.163	17.24
875.335	13.14
875.508	23.38
875.681	56.15
875.853	-11.43
876.026	4.95
876.199	-25.77
876.371	2.9
876.544	-48.3
876.717	43.86
876.889	-25.77
877.062	-1.19
877.234	-13.48
877.407	107.35
877.579	45.91
877.752	52.05
877.924	-9.39
878.097	-33.96
878.269	-5.29
878.442	58.2
878.614	-33.96
878.786	111.44
878.959	-3.24
879.131	-3.24
879.303	13.14
879.476	56.15
879.648	33.62
879.82	2.9
879.993	43.86
880.165	-54.44
880.337	35.67
880.509	-17.58
880.681	68.44
880.854	66.39
881.026	64.34
881.198	47.96
881.37	35.67
881.542	-1.19
881.714	43.86
881.886	-7.34
882.058	15.19
882.23	4.95
882.402	-25.77
882.574	-13.48
882.746	17.24
882.918	84.82
883.09	56.15
883.262	86.87
883.434	-11.43
883.606	15.19
883.778	25.43
883.95	29.52
884.122	-1.19
884.293	-25.77
884.465	23.38
884.637	97.11
884.809	2.9
884.98	-7.34
885.152	-1.19
885.324	37.72
885.496	27.48
885.667	-3.24
885.839	2.9
886.011	17.24
886.182	7
886.354	19.29
886.525	41.81
886.697	-7.34
886.869	-13.48
887.04	-15.53
887.212	113.49
887.383	123.73
887.555	23.38
887.726	58.2
887.897	4.95
888.069	39.76
888.24	19.29
888.412	19.29
888.583	15.19
888.754	35.67
888.926	-72.87
889.097	-31.91
889.268	-19.63
889.44	-1.19
889.611	-11.43
889.782	33.62
889.953	-15.53
890.125	56.15
890.296	-36.01
890.467	-42.15
890.638	-5.29
890.809	2.9
890.98	-38.06
891.151	82.77
891.323	29.52
891.494	31.57
891.665	37.72
891.836	72.53
892.007	25.43
892.178	31.57
892.349	17.24
892.52	-62.63
892.691	-3.24
892.862	33.62
893.032	-46.25
893.203	21.33
893.374	39.76
893.545	2.9
893.716	15.19
893.887	-13.48
894.057	19.29
894.228	19.29
894.399	-17.58
894.57	105.3
894.74	-38.06
894.911	39.76
895.082	-1.19
895.253	-1.19
895.423	-42.15
895.594	88.92
895.764	7
895.935	-38.06
896.106	11.09
896.276	-25.77
896.447	-7.34
896.617	7
896.788	19.29
896.958	2.9
897.129	-48.3
897.299	11.09
897.47	13.14
897.64	62.29
897.81	4.95
897.981	-5.29
898.151	88.92
898.322	-11.43
898.492	60.24
898.662	-21.67
898.832	-1.19
899.003	56.15
899.173	80.72
899.343	0.85
899.513	-25.77
