Data from USB4F104151__268__10-40-39-442.txt Node

Date: Wed Mar 12 10:40:39 EDT 2025
User: louis
Spectrometer: USB4F10415
Trigger mode: 4
Integration Time (sec): 3.000000E-2
Scans to average: 1
Electric dark correction enabled: true
Nonlinearity correction enabled: false
Boxcar width: 0
XAxis mode: Wavelengths
Number of Pixels in Spectrum: 3648
>>>>>Begin Spectral Data<<<<<
178.204	-137.21
178.424	-137.21
178.644	-137.21
178.864	-137.21
179.084	-116.73
179.304	-59.39
179.524	10.24
179.744	-75.77
179.964	-16.38
180.184	12.29
180.404	79.87
180.624	34.82
180.844	57.34
181.064	-24.58
181.283	22.53
181.503	-30.72
181.723	-10.24
181.943	-139.26
182.163	26.62
182.383	79.87
182.602	-40.96
182.822	-6.14
183.042	32.77
183.262	-10.24
183.482	28.67
183.701	-32.77
183.921	30.72
184.141	59.39
184.361	32.77
184.58	-22.53
184.8	40.96
185.02	-2.05
185.239	-14.34
185.459	20.48
185.679	96.25
185.898	-34.82
186.118	14.34
186.338	34.82
186.557	-28.67
186.777	-30.72
186.997	14.34
187.216	-8.19
187.436	16.38
187.655	-24.58
187.875	-32.77
188.095	40.96
188.314	38.91
188.534	-38.91
188.753	-6.14
188.973	24.58
189.192	22.53
189.412	43.01
189.631	24.58
189.851	-14.34
190.07	43.01
190.29	-51.2
190.509	-6.14
190.729	43.01
190.948	59.39
191.168	45.06
191.387	63.49
191.607	-14.34
191.826	98.3
192.045	4.1
192.265	-22.53
192.484	-55.3
192.704	-6.14
192.923	34.82
193.142	83.97
193.362	-10.24
193.581	-4.1
193.8	-28.67
194.02	-14.34
194.239	-14.34
194.458	65.54
194.678	4.1
194.897	43.01
195.116	-8.19
195.335	-45.06
195.555	32.77
195.774	-18.43
195.993	83.97
196.212	-43.01
196.432	-20.48
196.651	-24.58
196.87	-22.53
197.089	51.2
197.308	-22.53
197.528	86.01
197.747	-12.29
197.966	-22.53
198.185	69.63
198.404	2.05
198.623	20.48
198.842	36.86
199.062	26.62
199.281	0
199.5	51.2
199.719	22.53
199.938	88.06
200.157	49.15
200.376	-10.24
200.595	-16.38
200.814	14.34
201.033	55.3
201.252	18.43
201.471	-51.2
201.69	57.34
201.909	-34.82
202.128	81.92
202.347	26.62
202.566	-32.77
202.785	24.58
203.004	-28.67
203.223	114.69
203.442	34.82
203.661	10.24
203.879	12.29
204.098	40.96
204.317	10.24
204.536	59.39
204.755	24.58
204.974	12.29
205.193	-71.68
205.411	34.82
205.63	20.48
205.849	-28.67
206.068	-36.86
206.287	34.82
206.505	38.91
206.724	16.38
206.943	0
207.162	2.05
207.381	-75.77
207.599	-40.96
207.818	18.43
208.037	59.39
208.255	65.54
208.474	139.26
208.693	53.25
208.911	100.35
209.13	-12.29
209.349	65.54
209.567	-38.91
209.786	100.35
210.005	12.29
210.223	22.53
210.442	-16.38
210.661	32.77
210.879	-18.43
211.098	40.96
211.316	-22.53
211.535	2.05
211.753	10.24
211.972	-65.53
212.191	-73.73
212.409	26.62
212.628	2.05
212.846	-38.91
213.065	16.38
213.283	81.92
213.502	-2.05
213.72	-110.59
213.938	-22.53
214.157	30.72
214.375	40.96
214.594	-6.14
214.812	14.34
215.031	0
215.249	-8.19
215.467	-8.19
215.686	-26.62
215.904	69.63
216.122	-8.19
216.341	43.01
216.559	26.62
216.778	0
216.996	83.97
217.214	2.05
217.432	4.1
217.651	6.14
217.869	-10.24
218.087	2.05
218.306	30.72
218.524	28.67
218.742	2.05
218.96	10.24
219.179	30.72
219.397	2.05
219.615	63.49
219.833	26.62
220.051	-22.53
220.27	18.43
220.488	30.72
220.706	-2.05
220.924	10.24
221.142	-47.1
221.36	16.38
221.578	-16.38
221.796	-8.19
222.015	-10.24
222.233	-36.86
222.451	8.19
222.669	10.24
222.887	67.58
223.105	-30.72
223.323	22.53
223.541	24.58
223.759	34.82
223.977	-4.1
224.195	32.77
224.413	36.86
224.631	-34.82
224.849	73.73
225.067	65.54
225.285	-47.1
225.503	22.53
225.721	0
225.939	-30.72
226.157	12.29
226.375	102.4
226.592	-22.53
226.81	8.19
227.028	24.58
227.246	8.19
227.464	43.01
227.682	4.1
227.9	34.82
228.117	24.58
228.335	-18.43
228.553	24.58
228.771	-65.53
228.989	18.43
229.206	43.01
229.424	-6.14
229.642	-24.58
229.86	-43.01
230.077	32.77
230.295	53.25
230.513	49.15
230.731	36.86
230.948	10.24
231.166	86.01
231.384	-36.86
231.601	-4.1
231.819	-28.67
232.037	10.24
232.254	43.01
232.472	10.24
232.689	-30.72
232.907	-2.05
233.125	-69.63
233.342	12.29
233.56	36.86
233.777	-53.25
233.995	75.77
234.213	47.1
234.43	24.58
234.648	-28.67
234.865	45.06
235.083	0
235.3	43.01
235.518	30.72
235.735	79.87
235.953	73.73
236.17	-36.86
236.388	-65.53
236.605	-63.49
236.822	90.11
237.04	59.39
237.257	-28.67
237.475	-30.72
237.692	2.05
237.909	-59.39
238.127	-26.62
238.344	10.24
238.562	30.72
238.779	-45.06
238.996	-14.34
239.214	20.48
239.431	92.16
239.648	16.38
239.865	12.29
240.083	43.01
240.3	-8.19
240.517	34.82
240.735	-16.38
240.952	-10.24
241.169	34.82
241.386	-6.14
241.603	36.86
241.821	-47.1
242.038	16.38
242.255	32.77
242.472	16.38
242.689	43.01
242.907	18.43
243.124	-55.3
243.341	-18.43
243.558	-65.53
243.775	20.48
243.992	-4.1
244.209	102.4
244.426	10.24
244.643	22.53
244.86	55.3
245.078	-28.67
245.295	67.58
245.512	57.34
245.729	43.01
245.946	-40.96
246.163	-6.14
246.38	10.24
246.597	-8.19
246.814	0
247.031	12.29
247.248	-53.25
247.464	-34.82
247.681	-32.77
247.898	2.05
248.115	71.68
248.332	-2.05
248.549	45.06
248.766	88.06
248.983	106.49
249.2	88.06
249.417	98.3
249.633	36.86
249.85	16.38
250.067	65.54
250.284	151.55
250.501	75.77
250.717	2.05
250.934	-30.72
251.151	38.91
251.368	24.58
251.585	30.72
251.801	14.34
252.018	-96.25
252.235	-4.1
252.451	10.24
252.668	-14.34
252.885	88.06
253.102	-43.01
253.318	63.49
253.535	77.82
253.752	14.34
253.968	4.1
254.185	-20.48
254.401	18.43
254.618	18.43
254.835	-43.01
255.051	38.91
255.268	-47.1
255.484	-8.19
255.701	-45.06
255.917	59.39
256.134	4.1
256.351	-38.91
256.567	-16.38
256.784	4.1
257	18.43
257.217	32.77
257.433	10.24
257.65	18.43
257.866	14.34
258.082	-110.59
258.299	14.34
258.515	47.1
258.732	-8.19
258.948	-53.25
259.165	34.82
259.381	18.43
259.597	30.72
259.814	-6.14
260.03	34.82
260.246	-43.01
260.463	10.24
260.679	2.05
260.895	32.77
261.112	12.29
261.328	4.1
261.544	-43.01
261.761	65.54
261.977	24.58
262.193	4.1
262.409	22.53
262.626	18.43
262.842	30.72
263.058	-26.62
263.274	-12.29
263.49	24.58
263.707	-6.14
263.923	18.43
264.139	28.67
264.355	2.05
264.571	67.58
264.787	-6.14
265.004	47.1
265.22	51.2
265.436	-40.96
265.652	-30.72
265.868	-24.58
266.084	28.67
266.3	67.58
266.516	-2.05
266.732	-8.19
266.948	61.44
267.164	40.96
267.38	63.49
267.596	36.86
267.812	-10.24
268.028	0
268.244	-4.1
268.46	51.2
268.676	-24.58
268.892	28.67
269.108	-26.62
269.324	-6.14
269.54	79.87
269.756	12.29
269.972	12.29
270.188	47.1
270.403	16.38
270.619	18.43
270.835	14.34
271.051	16.38
271.267	20.48
271.483	-59.39
271.698	-6.14
271.914	-36.86
272.13	-24.58
272.346	20.48
272.562	32.77
272.777	18.43
272.993	8.19
273.209	8.19
273.425	10.24
273.64	32.77
273.856	14.34
274.072	49.15
274.287	-8.19
274.503	90.11
274.719	10.24
274.934	-10.24
275.15	18.43
275.366	28.67
275.581	34.82
275.797	73.73
276.012	55.3
276.228	32.77
276.444	12.29
276.659	63.49
276.875	-63.49
277.09	63.49
277.306	0
277.521	8.19
277.737	38.91
277.952	10.24
278.168	18.43
278.383	-38.91
278.599	4.1
278.814	53.25
279.03	10.24
279.245	34.82
279.461	2.05
279.676	6.14
279.892	24.58
280.107	53.25
280.322	-22.53
280.538	18.43
280.753	-43.01
280.969	36.86
281.184	-10.24
281.399	8.19
281.615	22.53
281.83	30.72
282.045	38.91
282.26	-36.86
282.476	49.15
282.691	55.3
282.906	-4.1
283.122	38.91
283.337	59.39
283.552	69.63
283.767	-10.24
283.983	30.72
284.198	18.43
284.413	51.2
284.628	26.62
284.843	57.34
285.058	45.06
285.274	0
285.489	-20.48
285.704	63.49
285.919	28.67
286.134	51.2
286.349	67.58
286.564	22.53
286.779	59.39
286.995	47.1
287.21	-53.25
287.425	71.68
287.64	-24.58
287.855	-22.53
288.07	-30.72
288.285	32.77
288.5	26.62
288.715	51.2
288.93	-16.38
289.145	-16.38
289.36	0
289.575	2.05
289.79	32.77
290.004	-6.14
290.219	-20.48
290.434	-40.96
290.649	-38.91
290.864	2.05
291.079	-4.1
291.294	14.34
291.509	51.2
291.724	-36.86
291.938	38.91
292.153	73.73
292.368	-22.53
292.583	90.11
292.798	38.91
293.012	-73.73
293.227	34.82
293.442	38.91
293.657	8.19
293.871	94.21
294.086	92.16
294.301	110.59
294.516	55.3
294.73	28.67
294.945	10.24
295.16	-22.53
295.374	45.06
295.589	18.43
295.804	4.1
296.018	6.14
296.233	77.82
296.447	4.1
296.662	-40.96
296.877	45.06
297.091	79.87
297.306	26.62
297.52	6.14
297.735	32.77
297.949	57.34
298.164	0
298.378	90.11
298.593	-57.34
298.807	8.19
299.022	-8.19
299.236	-18.43
299.451	40.96
299.665	4.1
299.88	24.58
300.094	120.83
300.309	24.58
300.523	51.2
300.737	36.86
300.952	-34.82
301.166	14.34
301.381	30.72
301.595	-2.05
301.809	10.24
302.024	10.24
302.238	38.91
302.452	51.2
302.667	-16.38
302.881	30.72
303.095	73.73
303.309	75.77
303.524	-112.64
303.738	24.58
303.952	-8.19
304.166	139.26
304.381	-2.05
304.595	24.58
304.809	2.05
305.023	98.3
305.237	96.25
305.452	45.06
305.666	20.48
305.88	36.86
306.094	-45.06
306.308	24.58
306.522	96.25
306.736	88.06
306.95	71.68
307.164	45.06
307.379	18.43
307.593	94.21
307.807	94.21
308.021	53.25
308.235	-2.05
308.449	28.67
308.663	63.49
308.877	47.1
309.091	14.34
309.305	114.69
309.519	32.77
309.733	-43.01
309.947	-71.68
310.161	65.54
310.374	-20.48
310.588	30.72
310.802	28.67
311.016	34.82
311.23	6.14
311.444	26.62
311.658	-28.67
311.872	-30.72
312.085	126.97
312.299	38.91
312.513	61.44
312.727	34.82
312.941	43.01
313.154	65.54
313.368	-8.19
313.582	0
313.796	102.4
314.009	-12.29
314.223	100.35
314.437	-8.19
314.651	43.01
314.864	10.24
315.078	104.45
315.292	-75.77
315.505	-32.77
315.719	34.82
315.933	94.21
316.146	36.86
316.36	55.3
316.573	59.39
316.787	51.2
317.001	6.14
317.214	38.91
317.428	81.92
317.641	18.43
317.855	10.24
318.068	18.43
318.282	6.14
318.495	106.49
318.709	20.48
318.922	6.14
319.136	75.77
319.349	40.96
319.563	63.49
319.776	10.24
319.99	-4.1
320.203	61.44
320.417	-8.19
320.63	49.15
320.843	79.87
321.057	10.24
321.27	-10.24
321.483	30.72
321.697	43.01
321.91	53.25
322.124	26.62
322.337	22.53
322.55	40.96
322.763	47.1
322.977	-24.58
323.19	-30.72
323.403	18.43
323.617	43.01
323.83	28.67
324.043	-59.39
324.256	43.01
324.469	-6.14
324.683	49.15
324.896	20.48
325.109	10.24
325.322	-22.53
325.535	0
325.748	26.62
325.962	67.58
326.175	43.01
326.388	45.06
326.601	28.67
326.814	26.62
327.027	26.62
327.24	98.3
327.453	-67.58
327.666	75.77
327.879	43.01
328.092	120.83
328.305	75.77
328.518	47.1
328.731	-32.77
328.944	30.72
329.157	24.58
329.37	6.14
329.583	55.3
329.796	86.01
330.009	4.1
330.222	-38.91
330.435	26.62
330.648	112.64
330.861	22.53
331.073	59.39
331.286	57.34
331.499	10.24
331.712	-26.62
331.925	18.43
332.138	-55.3
332.35	22.53
332.563	-12.29
332.776	63.49
332.989	49.15
333.202	20.48
333.414	34.82
333.627	-12.29
333.84	94.21
334.053	32.77
334.265	24.58
334.478	-12.29
334.691	96.25
334.903	0
335.116	26.62
335.329	-2.05
335.541	57.34
335.754	106.49
335.966	34.82
336.179	47.1
336.392	18.43
336.604	63.49
336.817	16.38
337.029	14.34
337.242	16.38
337.454	67.58
337.667	-22.53
337.88	38.91
338.092	38.91
338.305	110.59
338.517	8.19
338.729	-2.05
338.942	10.24
339.154	36.86
339.367	-12.29
339.579	24.58
339.792	-20.48
340.004	45.06
340.217	24.58
340.429	24.58
340.641	22.53
340.854	-18.43
341.066	-16.38
341.278	63.49
341.491	59.39
341.703	10.24
341.915	43.01
342.128	38.91
342.34	-88.06
342.552	-34.82
342.764	14.34
342.977	26.62
343.189	53.25
343.401	90.11
343.613	-2.05
343.826	51.2
344.038	-45.06
344.25	51.2
344.462	-55.3
344.674	10.24
344.886	18.43
345.099	8.19
345.311	28.67
345.523	-14.34
345.735	-69.63
345.947	30.72
346.159	-8.19
346.371	55.3
346.583	2.05
346.795	100.35
347.007	-4.1
347.219	57.34
347.431	43.01
347.643	65.54
347.855	16.38
348.067	75.77
348.279	67.58
348.491	0
348.703	43.01
348.915	-6.14
349.127	-108.54
349.339	40.96
349.551	47.1
349.763	63.49
349.975	26.62
350.187	30.72
350.399	63.49
350.61	43.01
350.822	47.1
351.034	63.49
351.246	96.25
351.458	69.63
351.669	67.58
351.881	43.01
352.093	-26.62
352.305	120.83
352.517	-2.05
352.728	-26.62
352.94	4.1
353.152	-24.58
353.363	-32.77
353.575	65.54
353.787	4.1
353.999	104.45
354.21	8.19
354.422	53.25
354.633	20.48
354.845	-26.62
355.057	18.43
355.268	49.15
355.48	45.06
355.692	83.97
355.903	-16.38
356.115	22.53
356.326	-53.25
356.538	34.82
356.749	59.39
356.961	124.93
357.172	8.19
357.384	47.1
357.595	100.35
357.807	47.1
358.018	47.1
358.23	77.82
358.441	22.53
358.653	92.16
358.864	63.49
359.075	-8.19
359.287	43.01
359.498	120.83
359.709	55.3
359.921	75.77
360.132	2.05
360.344	-8.19
360.555	18.43
360.766	57.34
360.977	-57.34
361.189	90.11
361.4	22.53
361.611	83.97
361.823	-36.86
362.034	34.82
362.245	10.24
362.456	92.16
362.667	53.25
362.879	28.67
363.09	34.82
363.301	49.15
363.512	59.39
363.723	43.01
363.935	-26.62
364.146	49.15
364.357	26.62
364.568	22.53
364.779	-40.96
364.99	73.73
365.201	-4.1
365.412	47.1
365.623	2.05
365.834	55.3
366.045	51.2
366.256	2.05
366.467	43.01
366.678	51.2
366.889	28.67
367.1	14.34
367.311	49.15
367.522	55.3
367.733	47.1
367.944	49.15
368.155	16.38
368.366	-2.05
368.577	49.15
368.788	67.58
368.999	10.24
369.209	51.2
369.42	75.77
369.631	43.01
369.842	71.68
370.053	32.77
370.264	18.43
370.474	-14.34
370.685	24.58
370.896	-4.1
371.107	65.54
371.317	10.24
371.528	59.39
371.739	49.15
371.95	100.35
372.16	30.72
372.371	-8.19
372.582	26.62
372.792	49.15
373.003	30.72
373.214	71.68
373.424	55.3
373.635	10.24
373.846	75.77
374.056	90.11
374.267	36.86
374.477	61.44
374.688	73.73
374.898	-14.34
375.109	-10.24
375.319	2.05
375.53	71.68
375.74	51.2
375.951	6.14
376.161	94.21
376.372	38.91
376.582	2.05
376.793	26.62
377.003	63.49
377.214	36.86
377.424	124.93
377.635	77.82
377.845	-6.14
378.055	51.2
378.266	26.62
378.476	-6.14
378.686	26.62
378.897	110.59
379.107	57.34
379.317	57.34
379.528	120.83
379.738	69.63
379.948	-47.1
380.158	8.19
380.369	10.24
380.579	77.82
380.789	116.73
380.999	100.35
381.21	38.91
381.42	133.12
381.63	30.72
381.84	-26.62
382.05	-47.1
382.261	45.06
382.471	59.39
382.681	40.96
382.891	67.58
383.101	26.62
383.311	26.62
383.521	0
383.731	-10.24
383.941	94.21
384.151	45.06
384.361	0
384.571	67.58
384.781	65.54
384.991	67.58
385.201	79.87
385.411	94.21
385.621	116.73
385.831	47.1
386.041	-14.34
386.251	71.68
386.461	120.83
386.671	59.39
386.881	81.92
387.091	65.54
387.301	133.12
387.511	26.62
387.72	65.54
387.93	14.34
388.14	34.82
388.35	53.25
388.56	124.93
388.769	65.54
388.979	65.54
389.189	75.77
389.399	59.39
389.609	30.72
389.818	47.1
390.028	26.62
390.238	96.25
390.447	65.54
390.657	108.54
390.867	6.14
391.076	45.06
391.286	-14.34
391.496	18.43
391.705	0
391.915	63.49
392.125	43.01
392.334	34.82
392.544	57.34
392.753	24.58
392.963	90.11
393.172	47.1
393.382	-47.1
393.591	110.59
393.801	98.3
394.01	133.12
394.22	122.88
394.429	161.79
394.639	110.59
394.848	45.06
395.058	126.97
395.267	83.97
395.477	184.32
395.686	126.97
395.895	124.93
396.105	36.86
396.314	38.91
396.524	65.54
396.733	51.2
396.942	81.92
397.152	106.49
397.361	106.49
397.57	159.74
397.78	49.15
397.989	83.97
398.198	159.74
398.407	65.54
398.617	118.78
398.826	43.01
399.035	81.92
399.244	202.75
399.453	114.69
399.663	83.97
399.872	126.97
400.081	90.11
400.29	112.64
400.499	102.4
400.708	104.45
400.917	141.31
401.127	165.89
401.336	65.54
401.545	169.98
401.754	67.58
401.963	163.84
402.172	79.87
402.381	143.36
402.59	92.16
402.799	104.45
403.008	110.59
403.217	108.54
403.426	145.41
403.635	83.97
403.844	194.56
404.053	104.45
404.262	153.6
404.471	145.41
404.68	149.5
404.888	133.12
405.097	180.22
405.306	116.73
405.515	235.52
405.724	235.52
405.933	163.84
406.142	100.35
406.35	165.89
406.559	145.41
406.768	165.89
406.977	237.56
407.185	180.22
407.394	217.08
407.603	223.23
407.812	229.37
408.02	344.06
408.229	225.28
408.438	178.17
408.646	221.18
408.855	296.96
409.064	241.66
409.272	268.28
409.481	399.35
409.69	321.53
409.898	270.33
410.107	305.15
410.315	331.77
410.524	335.87
410.733	360.44
410.941	378.87
411.15	450.55
411.358	395.26
411.567	442.36
411.775	419.83
411.984	432.12
412.192	524.28
412.401	479.22
412.609	538.62
412.818	618.49
413.026	557.05
413.234	528.38
413.443	567.29
413.651	614.39
413.86	638.97
414.068	700.41
414.276	690.17
414.485	638.97
414.693	747.51
414.901	784.37
415.11	745.46
415.318	729.08
415.526	870.39
415.734	788.47
415.943	919.54
416.151	935.92
416.359	956.4
416.567	907.25
416.776	980.98
416.984	1046.51
417.192	1134.57
417.4	1144.81
417.608	1077.23
417.817	1245.16
418.025	1331.18
418.233	1353.71
418.441	1222.64
418.649	1345.52
418.857	1466.35
419.065	1439.72
419.273	1499.11
419.481	1578.98
419.689	1738.73
419.897	1628.14
420.105	1859.56
420.313	1904.61
420.521	1941.47
420.729	1902.56
420.937	1955.81
421.145	2093.02
421.353	2193.37
421.561	2281.44
421.769	2234.33
421.977	2414.56
422.185	2342.88
422.393	2506.71
422.601	2785.24
422.809	2770.9
423.017	2652.12
423.224	2854.87
423.432	3008.47
423.64	2887.64
423.848	3102.67
424.056	3094.48
424.263	3313.61
424.471	3407.82
424.679	3436.49
424.887	3622.86
425.094	3700.68
425.302	3669.96
425.51	3932.1
425.718	4018.11
425.925	3991.49
426.133	4177.86
426.341	4315.07
426.548	4679.61
426.756	4528.06
426.964	4644.79
427.171	5117.87
427.379	5101.49
427.586	5203.89
427.794	5169.07
428.001	5595.05
428.209	5789.61
428.417	5748.65
428.624	6231.97
428.832	6070.18
429.039	6127.52
429.247	6150.05
429.454	6776.73
429.662	7120.79
429.869	6756.25
430.076	7225.23
430.284	6928.28
430.491	7255.95
430.699	7716.75
430.906	7569.29
431.114	7690.12
431.321	8050.57
431.528	8198.02
431.736	8978.29
431.943	9047.93
432.15	8931.19
432.358	8953.72
432.565	9504.62
432.772	9318.26
432.979	9914.22
433.187	10057.57
433.394	10209.12
433.601	10948.44
433.808	10927.96
434.016	10796.89
434.223	11214.68
434.43	11970.38
434.637	11749.2
434.844	12576.58
435.052	12650.3
435.259	12560.19
435.466	12703.55
435.673	12736.32
435.88	13387.57
436.087	14358.31
436.294	14198.57
436.501	13881.13
436.708	14313.25
436.915	14620.45
437.122	15273.75
437.329	15214.36
437.537	15771.41
437.743	16123.66
437.95	16070.41
438.157	16836.35
438.364	17407.73
438.571	17479.41
438.778	17317.62
438.985	18642.66
439.192	18083.56
439.399	18734.82
439.606	18398.95
439.813	19369.69
440.02	20831.94
440.227	20172.49
440.433	19986.13
440.64	20827.84
440.847	20598.47
441.054	21116.61
441.261	22462.12
441.467	22228.65
441.674	22421.16
441.881	23512.73
442.088	23420.57
442.294	23045.79
442.501	24120.98
442.708	24446.6
442.914	25239.17
443.121	26373.74
443.328	25697.91
443.534	27471.45
443.741	26750.57
443.948	26312.3
444.154	28378.7
444.361	27803.22
444.568	28292.69
444.774	28186.19
444.981	28708.43
445.187	29285.95
445.394	30567.98
445.6	30205.49
445.807	33185.29
446.013	31870.49
446.22	32157.21
446.426	33263.11
446.633	33803.77
446.839	35124.71
447.046	33566.21
447.252	35294.69
447.459	35278.31
447.665	34991.59
447.871	36791.76
448.078	37830.08
448.284	36515.28
448.491	37350.85
448.697	38768.05
448.903	39347.62
449.11	39081.39
449.316	38837.68
449.522	39603.62
449.728	40146.33
449.935	40668.56
450.141	41213.32
450.347	41186.7
450.553	39853.47
450.76	40725.91
450.966	41776.51
451.172	41508.23
451.378	42511.74
451.584	41590.15
451.791	42429.82
451.997	42495.35
452.203	43187.56
452.409	43257.2
452.615	42626.42
452.821	41131.4
453.027	40836.5
453.233	42814.83
453.44	40961.42
453.646	41377.16
453.852	41438.6
454.058	42085.76
454.264	40394.14
454.47	41409.93
454.676	40668.56
454.882	41536.9
455.088	37821.89
455.294	38446.52
455.5	38944.17
455.705	39185.83
455.911	38018.49
456.117	36951.5
456.323	36681.17
456.529	34778.61
456.735	36154.84
456.941	35122.66
457.147	34700.78
457.352	33218.05
457.558	33267.2
457.764	33218.05
457.97	32318.99
458.176	31481.38
458.381	31802.91
458.587	30299.7
458.793	30029.37
458.999	28223.06
459.204	30527.02
459.41	29771.32
459.616	27854.42
459.821	27760.22
460.027	27584.09
460.233	27041.38
460.438	25646.71
460.644	25874.04
460.85	25065.09
461.055	24252.05
461.261	24245.9
461.466	22439.59
461.672	21792.44
461.878	23496.35
462.083	21870.26
462.289	21612.21
462.494	21415.61
462.7	20321.99
462.905	19918.54
463.111	20573.89
463.316	20549.32
463.522	20436.68
463.727	20229.84
463.932	20276.94
464.138	20156.11
464.343	20233.93
464.549	19521.24
464.754	20201.16
464.959	20266.7
465.165	20025.04
465.37	18931.42
465.575	18603.75
465.781	19287.77
465.986	19543.77
466.191	18835.17
466.397	18460.39
466.602	17534.71
466.807	18370.28
467.012	18353.9
467.218	18136.81
467.423	18018.03
467.628	18335.46
467.833	18847.46
468.038	18124.52
468.244	17811.18
468.449	18083.56
468.654	17706.74
468.859	17413.88
469.064	17510.13
469.269	16652.03
469.474	16793.34
469.679	17178.36
469.885	16916.22
470.09	16813.82
470.295	16920.32
470.5	16158.47
470.705	16586.5
470.91	16070.41
471.115	15886.09
471.32	16224.01
471.525	16111.37
471.73	15873.81
471.935	15609.62
472.139	15195.93
472.344	15279.89
472.549	15167.26
472.754	15003.42
472.959	14659.36
473.164	14364.45
473.369	14309.16
473.574	14681.89
473.778	14849.82
473.983	14489.38
474.188	14436.13
474.393	13956.91
474.598	13807.41
474.802	13621.04
475.007	13524.79
475.212	13416.24
475.417	12836.67
475.621	13262.65
475.826	13276.98
476.031	12873.53
476.235	12580.67
476.44	12832.57
476.645	12615.49
476.849	12748.61
477.054	12586.82
477.259	12453.7
477.463	12318.53
477.668	11843.4
477.872	12160.84
478.077	12191.56
478.282	11784.01
478.486	11597.65
478.691	11435.86
478.895	11626.32
479.1	11663.18
479.304	11657.04
479.509	11224.92
479.713	11222.87
479.918	11237.2
480.122	10970.97
480.326	11220.82
480.531	10991.45
480.735	10913.63
480.94	11059.03
481.144	11413.33
481.348	10590.05
481.553	10983.26
481.757	10567.52
481.961	10694.49
482.166	10911.58
482.37	10930.01
482.574	10696.54
482.778	10741.6
482.983	10817.37
483.187	10856.28
483.391	10770.27
483.595	10737.5
483.8	10686.3
484.004	10577.76
484.208	11026.26
484.412	10884.95
484.616	10757.98
484.821	10622.81
485.025	10774.36
485.229	10868.57
485.433	10829.66
485.637	10944.35
485.841	10772.32
486.045	10575.71
486.249	10772.32
486.453	10798.94
486.657	10770.27
486.861	10805.08
487.065	10360.67
487.269	10721.12
487.473	10553.18
487.677	10843.99
487.881	10753.88
488.085	10942.3
488.289	10887
488.493	10585.95
488.697	10725.21
488.901	10878.81
489.105	10983.26
489.309	11063.13
489.512	10952.54
489.716	10940.25
489.92	10899.29
490.124	10852.19
490.328	11229.01
490.531	11016.02
490.735	11235.16
490.939	11147.09
491.143	11001.69
491.346	11206.49
491.55	11216.72
491.754	11286.36
491.958	11294.55
492.161	11304.79
492.365	11507.54
492.569	11427.67
492.772	11218.77
492.976	11708.24
493.18	11417.43
493.383	11784.01
493.587	11808.59
493.79	12111.69
493.994	11751.24
494.197	12007.24
494.401	12273.48
494.605	12029.77
494.808	12515.14
495.012	12287.81
495.215	12592.96
495.419	12597.06
495.622	12357.44
495.825	12629.82
496.029	12601.15
496.232	12945.21
496.436	12789.56
496.639	13424.44
496.843	13211.45
497.046	13371.19
497.249	13655.86
497.453	13641.52
497.656	14014.25
497.859	13829.93
498.063	13920.04
498.266	14354.21
498.469	14280.49
498.673	14399.27
498.876	14839.58
499.079	14851.87
499.282	14911.26
499.485	15165.21
499.689	15073.05
499.892	15335.19
500.095	15580.95
500.298	15740.69
500.501	15750.93
500.705	16226.06
500.908	16258.82
501.111	16670.47
501.314	16658.18
501.517	16832.26
501.72	16912.13
501.923	17209.08
502.126	17282.81
502.329	17727.22
502.532	17639.15
502.735	17784.56
502.938	18300.65
503.141	18183.91
503.344	18874.08
503.547	18708.19
503.75	18843.36
503.953	19189.47
504.156	19390.17
504.359	19365.59
504.562	19455.7
504.765	20199.12
504.968	20111.05
505.17	20297.42
505.373	20672.2
505.576	21190.33
505.779	21139.13
505.982	21354.17
506.185	21776.05
506.387	22017.71
506.59	21937.84
506.793	22509.22
506.996	22142.64
507.198	22845.09
507.401	22742.69
507.604	22789.8
507.807	23447.19
508.009	23615.13
508.212	23889.56
508.415	24440.46
508.617	24698.5
508.82	24508.04
509.022	24508.04
509.225	24952.45
509.428	25259.65
509.63	25532.03
509.833	25568.89
510.035	26091.12
510.238	26242.67
510.44	26793.58
510.643	26818.15
510.845	26947.17
511.048	26883.69
511.25	27465.31
511.453	27723.35
511.655	28653.13
511.858	28397.13
512.06	28268.11
512.262	28833.35
512.465	29034.05
512.667	29517.37
512.87	29570.62
513.072	29808.19
513.274	30291.51
513.477	30420.53
513.679	30735.92
513.881	31053.35
514.084	31184.42
514.286	31305.25
514.488	31626.78
514.69	32249.36
514.893	32638.48
515.095	32828.94
515.297	32810.51
515.499	33152.52
515.701	33787.39
515.904	34065.91
516.106	34094.58
516.308	34868.72
516.51	34612.72
516.712	34885.1
516.914	35294.69
517.116	35749.34
517.318	36222.42
517.52	36240.85
517.722	36130.26
517.925	36924.88
518.127	37137.87
518.329	37279.18
518.531	37410.25
518.733	37760.45
518.935	38059.45
519.136	38624.69
519.338	39128.49
519.54	38880.69
519.742	39802.27
519.944	39785.89
520.146	40476.05
520.348	40295.83
520.55	40504.73
520.752	40795.54
520.954	41317.77
521.155	41078.16
521.357	41760.13
521.559	41958.78
521.761	42763.64
521.963	42704.24
522.164	42935.66
522.366	42827.12
522.568	43531.62
522.77	43447.66
522.971	44004.7
523.173	43963.75
523.375	44715.35
523.576	44064.1
523.778	44535.13
523.98	45272.4
524.181	44879.19
524.383	45423.95
524.584	45827.4
524.786	46257.47
524.988	45817.16
525.189	46533.95
525.391	46843.19
525.592	47023.41
525.794	47263.02
525.995	47709.48
526.197	47390
526.398	47336.75
526.6	47605.03
526.801	47858.98
527.003	48090.4
527.204	48022.82
527.406	48731.42
527.607	48579.87
527.808	48749.85
528.01	48022.82
528.211	48799
528.412	49421.58
528.614	49253.65
528.815	49442.06
529.016	49614.09
529.218	49597.71
529.419	49372.43
529.62	49767.69
529.822	50224.39
530.023	49837.32
530.224	49868.04
530.425	49962.25
530.626	49927.43
530.828	49763.59
531.029	50773.24
531.23	50228.48
531.431	50459.9
531.632	50605.31
531.833	50859.26
532.035	50535.68
532.236	50978.04
532.437	51072.24
532.638	50775.29
532.839	50935.03
533.04	51600.62
533.241	50668.79
533.442	51592.43
533.643	51121.4
533.844	51088.63
534.045	51713.26
534.246	50801.91
534.447	51285.23
534.648	51057.91
534.849	51299.57
535.05	50984.18
535.251	51490.03
535.451	51133.68
535.652	51465.45
535.853	51338.48
536.054	51389.68
536.255	51406.06
536.456	50963.7
536.657	51850.47
536.857	51043.57
537.058	51113.2
537.259	51465.45
537.46	51514.61
537.66	51154.16
537.861	51713.26
538.062	51305.71
538.263	51385.58
538.463	51268.85
538.664	51453.17
538.865	51440.88
539.065	51883.24
539.266	51182.83
539.466	51854.57
539.667	50902.26
539.868	51782.89
540.068	51111.16
540.269	51260.66
540.469	51672.3
540.67	51260.66
540.87	50978.04
541.071	51408.11
541.271	51664.11
541.472	51492.08
541.672	51320.05
541.873	51148.02
542.073	50941.17
542.274	51453.17
542.474	51440.88
542.675	50822.39
542.875	51496.17
543.075	51256.56
543.276	50464
543.476	51420.4
543.676	50875.64
543.877	51098.87
544.077	51358.96
544.277	51336.43
544.478	51082.48
544.678	51285.23
544.878	50998.52
545.078	51059.96
545.279	50351.36
545.479	50965.75
545.679	51088.63
545.879	50814.2
546.079	51023.09
546.28	50816.25
546.48	50658.55
546.68	50941.17
546.88	51197.17
547.08	50973.94
547.28	50756.86
547.48	50183.43
547.68	51080.44
547.88	50232.58
548.081	51105.01
548.281	50744.57
548.481	50523.39
548.681	50978.04
548.881	50758.91
549.081	50541.82
549.28	50558.2
549.48	50990.33
549.68	50031.88
549.88	51170.55
550.08	50175.23
550.28	50994.42
550.48	50502.91
550.68	51434.74
550.88	50154.75
551.08	50480.38
551.279	50386.18
551.479	50208
551.679	50445.57
551.879	50134.27
552.079	50627.84
552.278	50128.13
552.478	50416.89
552.678	50478.33
552.878	50124.04
553.077	50449.66
553.277	49878.28
553.477	50730.23
553.676	50105.6
553.876	50007.3
554.076	50146.56
554.275	50021.64
554.475	49618.19
554.674	50019.59
554.874	50115.84
555.074	49736.97
555.273	50099.46
555.473	50410.75
555.672	49827.08
555.872	49491.21
556.071	49683.72
556.271	50289.92
556.47	49239.31
556.67	48942.36
556.869	49417.49
557.068	49636.62
557.268	49294.61
557.467	49308.94
557.667	49265.94
557.866	49470.73
558.065	49255.7
558.265	49075.48
558.464	49044.76
558.663	49632.52
558.863	48463.13
559.062	49444.11
559.261	48282.91
559.461	49417.49
559.66	48672.03
559.859	48602.39
560.058	49067.28
560.258	48805.14
560.457	48446.75
560.656	48715.03
560.855	48129.31
561.054	48545.05
561.253	47942.95
561.453	48545.05
561.652	48450.84
561.851	48307.49
562.05	47967.52
562.249	47809.83
562.448	48303.39
562.647	47682.86
562.846	47897.89
563.045	47949.09
563.244	47121.71
563.443	48016.68
563.642	46828.85
563.841	47453.48
564.04	47060.27
564.239	47435.05
564.438	46855.48
564.637	46925.11
564.836	47168.82
565.035	46511.42
565.234	46781.75
565.432	46535.99
565.631	46417.21
565.83	46576.95
566.029	46142.78
566.228	46202.17
566.427	46067.01
566.625	46081.34
566.824	45741.38
567.023	46312.77
567.222	45010.26
567.42	45923.65
567.619	45477.19
567.818	45811.01
568.016	45274.45
568.215	45720.9
568.414	45124.94
568.612	45665.61
568.811	45075.79
569.01	44850.52
569.208	44367.19
569.407	44944.72
569.605	44221.79
569.804	44991.83
570.002	44410.2
570.201	44961.11
570.4	43988.32
570.598	43906.4
570.797	44072.29
570.995	44037.47
571.193	43410.79
571.392	44248.41
571.59	43320.68
571.789	43560.3
571.987	43617.64
572.186	43513.19
572.384	43005.3
572.582	43570.54
572.781	43353.45
572.979	42667.38
573.177	42694
573.376	43482.47
573.574	42427.77
573.772	42593.65
573.971	42440.06
574.169	42380.67
574.367	42134.91
574.565	42511.74
574.763	42061.18
574.962	42124.67
575.16	41442.7
575.358	41878.91
575.556	41393.54
575.754	41934.21
575.952	41100.68
576.151	41743.75
576.349	41164.17
576.547	41397.64
576.745	41201.04
576.943	41270.67
577.141	41309.58
577.339	41289.1
577.537	40510.87
577.735	40691.09
577.933	40218.01
578.131	40596.88
578.329	40504.73
578.527	39927.2
578.725	40297.88
578.923	40455.57
579.121	40111.52
579.319	39798.18
579.516	40048.03
579.714	39865.76
579.912	39407.01
580.11	39577
580.308	39437.73
580.506	39370.15
580.704	38790.58
580.901	39431.59
581.099	39392.68
581.297	38725.04
581.495	38972.85
581.692	39009.71
581.89	38839.73
582.088	38899.12
582.285	38581.68
582.483	39071.15
582.681	38116.79
582.878	38129.08
583.076	37930.43
583.274	38213.05
583.471	37748.16
583.669	37838.27
583.866	37666.24
584.064	38090.17
584.262	37563.84
584.459	37598.66
584.657	37305.8
584.854	37862.85
585.052	36736.46
585.249	37334.47
585.447	36980.17
585.644	37010.89
585.841	37006.8
586.039	37055.95
586.236	36783.57
586.434	36771.28
586.631	36302.29
586.828	36873.68
587.026	36474.32
587.223	36320.73
587.42	35966.43
587.618	36249.05
587.815	35335.65
588.012	35511.78
588.21	35601.89
588.407	36158.94
588.604	35554.79
588.801	35390.95
588.999	35358.18
589.196	35040.75
589.393	35173.86
589.59	34969.07
589.787	34700.78
589.984	34713.07
590.182	34442.74
590.379	34655.73
590.576	34119.16
590.773	34618.86
590.97	34323.96
591.167	34663.92
591.364	33746.43
591.561	33981.95
591.758	33889.79
591.955	33627.65
592.152	33916.41
592.349	33814.01
592.546	34061.82
592.743	33779.2
592.94	33091.08
593.137	33428.99
593.334	33789.44
593.531	33031.69
593.727	33039.88
593.924	33308.16
594.121	32611.85
594.318	32964.1
594.515	32654.86
594.712	32753.16
594.908	32493.07
595.105	32437.78
595.302	32259.6
595.499	32245.27
595.696	32198.16
595.892	31692.32
596.089	31976.98
596.286	31790.62
596.482	31782.43
596.679	31739.42
596.876	32177.69
597.072	31340.07
597.269	31628.83
597.466	31311.39
597.662	30776.87
597.859	30926.38
598.055	30811.69
598.252	30654
598.448	30936.62
598.645	30928.42
598.841	30291.51
599.038	30760.49
599.234	30774.83
599.431	30578.22
599.627	29746.75
599.824	30522.93
600.02	29883.96
600.217	30225.97
600.413	30062.13
600.609	29644.35
600.806	29996.6
601.002	30066.23
601.198	29687.35
601.395	29580.86
601.591	29273.67
601.787	29877.82
601.984	29318.72
602.18	29478.46
602.376	29283.91
602.572	29298.24
602.769	29163.08
602.965	28657.23
603.161	29109.83
603.357	28485.2
603.553	28526.16
603.75	28626.51
603.946	28448.33
604.142	28415.57
604.338	28034.64
604.534	28370.51
604.73	27854.42
604.926	28085.84
605.122	28180.05
605.318	27946.58
605.514	27835.99
605.71	27768.41
605.906	27455.07
606.102	27604.57
606.298	27811.42
606.494	27442.78
606.69	27516.51
606.886	27258.46
607.082	26984.04
607.278	27078.24
607.474	26820.2
607.67	27358.81
607.866	26504.81
608.062	26975.84
608.257	26631.79
608.453	26809.96
608.649	26787.43
608.845	26590.83
609.041	26648.17
609.236	26375.79
609.432	26605.16
609.628	26478.19
609.824	26412.65
610.019	26039.92
610.215	26218.1
610.411	26177.14
610.606	25919.09
610.802	26265.2
610.998	26041.97
611.193	25964.15
611.389	26058.35
611.584	25890.42
611.78	25765.49
611.976	25589.37
612.171	25536.12
612.367	25507.45
612.562	25452.16
612.758	25015.94
612.953	25058.95
613.149	25534.07
613.344	25028.23
613.539	25718.39
613.735	25347.71
613.93	25132.67
614.126	25101.95
614.321	25493.11
614.517	25267.84
614.712	25220.74
614.907	24839.81
615.103	25101.95
615.298	24913.54
615.493	25079.43
615.688	24120.98
615.884	24688.26
616.079	24493.71
616.274	25015.94
616.47	24241.81
616.665	24639.11
616.86	24096.4
617.055	24532.62
617.25	24348.3
617.445	24592.01
617.641	24006.29
617.836	24225.42
618.031	24032.91
618.226	24206.99
618.421	23654.04
618.616	24030.87
618.811	23402.14
619.006	24004.24
619.201	23152.29
619.396	23733.91
619.591	23140
619.786	23463.58
619.981	22879.91
620.176	23565.98
620.371	22902.43
620.566	22992.55
620.761	22714.02
620.956	22830.76
621.151	22453.93
621.346	22709.93
621.541	22384.3
621.735	22675.11
621.93	22296.24
622.125	22218.41
622.32	21647.03
622.515	22046.38
622.709	22060.72
622.904	21728.95
623.099	21468.86
623.294	21683.89
623.488	21085.89
623.683	21491.38
623.878	20930.24
624.072	21161.66
624.267	21028.54
624.462	20885.19
624.656	20477.64
624.851	20649.67
625.046	20467.4
625.24	20606.66
625.435	20086.48
625.629	20260.55
625.824	20199.12
626.018	20297.42
626.213	19625.68
626.407	20033.23
626.602	19517.14
626.796	19709.65
626.991	19572.44
627.185	19240.67
627.38	19244.76
627.574	19076.83
627.768	18759.39
627.963	18786.02
628.157	18667.24
628.352	18820.83
628.546	18206.44
628.74	18652.9
628.935	18388.71
629.129	18546.4
629.323	18224.87
629.517	17975.02
629.712	17821.42
629.906	17956.59
630.1	17698.55
630.294	17846
630.489	17669.87
630.683	17690.35
630.877	17266.42
631.071	17194.75
631.265	17336.06
631.459	17180.41
631.653	17004.28
631.848	17215.23
632.042	16721.66
632.236	17149.69
632.43	16305.93
632.624	16803.58
632.818	16738.05
633.012	16361.22
633.206	16471.81
633.4	16506.63
633.594	16174.86
633.788	16013.07
633.982	16127.75
634.176	16099.08
634.369	16021.26
634.563	15988.49
634.757	15750.93
634.951	15972.11
635.145	15523.6
635.339	15677.2
635.533	15398.68
635.726	15429.4
635.92	15138.58
636.114	15490.84
636.308	15171.35
636.501	15056.67
636.695	14933.79
636.889	14671.65
637.083	14677.79
637.276	14700.32
637.47	14493.47
637.664	14604.07
637.857	14587.68
638.051	14423.84
638.244	14509.86
638.438	14378.79
638.632	13956.91
638.825	14188.33
639.019	14149.42
639.212	13885.23
639.406	13682.48
639.599	13547.31
639.793	13874.99
639.986	13600.56
640.18	13791.02
640.373	13483.83
640.567	13190.97
640.76	13328.18
640.954	13442.87
641.147	12953.4
641.34	13190.97
641.534	13061.94
641.727	12900.16
641.92	13053.75
642.114	12834.62
642.307	12760.89
642.5	12519.23
642.694	12488.51
642.887	12379.97
643.08	12607.3
643.273	12468.03
643.467	12097.35
643.66	12097.35
643.853	12306.24
644.046	12130.12
644.239	12003.14
644.432	12117.83
644.626	11786.06
644.819	11659.09
645.012	11700.05
645.205	11829.07
645.398	11878.22
645.591	11597.65
645.784	11595.6
645.977	11489.1
646.17	11446.1
646.363	11179.86
646.556	11009.88
646.749	11075.42
646.942	11114.33
647.135	11069.27
647.328	11022.17
647.521	11132.76
647.714	10657.63
647.907	10878.81
648.099	10780.51
648.292	10940.25
648.485	10456.93
648.678	10522.46
648.871	10538.85
649.064	10458.98
649.256	10518.37
649.449	10379.11
649.642	10315.62
649.835	10288.99
650.027	10182.5
650.22	10198.88
650.413	9910.12
650.605	10135.4
650.798	9998.18
650.991	9934.7
651.183	9930.6
651.376	9885.55
651.568	9693.04
651.761	9590.64
651.954	9529.2
652.146	9566.06
652.339	9629.55
652.531	9500.53
652.724	9361.27
652.916	9201.52
653.109	9289.59
653.301	9363.31
653.494	9285.49
653.686	9125.75
653.879	9205.62
654.071	8994.68
654.263	8765.31
654.456	8879.99
654.648	9006.97
654.84	8759.16
655.033	8849.27
655.225	8646.52
655.417	8800.12
655.61	8935.29
655.802	8941.43
655.994	8736.63
656.186	8746.87
656.379	8523.65
656.571	8560.51
656.763	8478.59
656.955	8167.3
657.148	8394.62
657.34	8517.5
657.532	8451.97
657.724	8238.98
657.916	8167.3
658.108	8120.2
658.3	8150.92
658.492	7956.36
658.684	7915.4
658.876	7860.1
659.068	7810.95
659.26	7858.06
659.452	7866.25
659.644	7939.97
659.836	7757.71
660.028	7671.69
660.22	7665.55
660.412	7571.34
660.604	7575.44
660.796	7563.15
660.988	7518.09
661.18	7462.8
661.372	7382.93
661.563	7423.89
661.755	7348.11
661.947	7303.06
662.139	7346.06
662.331	7301.01
662.522	7253.91
662.714	7151.51
662.906	7174.03
663.097	7079.83
663.289	7067.54
663.481	6911.89
663.673	7030.68
663.864	6895.51
664.056	6928.28
664.247	6817.69
664.439	6668.19
664.631	6772.63
664.822	6741.91
665.014	6774.68
665.205	6729.63
665.397	6727.58
665.588	6643.61
665.78	6420.38
665.971	6541.21
666.163	6612.89
666.354	6457.25
666.546	6506.4
666.737	6393.76
666.929	6432.67
667.12	6481.82
667.311	6283.17
667.503	6369.18
667.694	6307.74
667.885	6174.63
668.077	6424.48
668.268	6164.39
668.459	6295.46
668.651	6240.16
668.842	6143.91
669.033	6254.5
669.224	6021.03
669.416	6119.33
669.607	5994.4
669.798	6123.43
669.989	5971.88
670.18	5980.07
670.371	5924.77
670.563	5752.74
670.754	5867.43
670.945	5945.25
671.136	5728.17
671.327	5756.84
671.518	5707.69
671.709	5717.93
671.9	5910.44
672.091	5740.46
672.282	5533.61
672.473	5609.39
672.664	5687.21
672.855	5676.97
673.046	5572.52
673.237	5521.32
673.428	5537.71
673.619	5416.88
673.809	5535.66
674	5445.55
674.191	5459.88
674.382	5296.05
674.573	5494.7
674.764	5214.13
674.954	5425.07
675.145	5162.93
675.336	5341.1
675.527	5373.87
675.717	5439.4
675.908	5248.94
676.099	5179.31
676.289	5074.87
676.48	5142.45
676.671	5103.54
676.861	5148.59
677.052	5162.93
677.243	5066.67
677.433	4958.13
677.624	5197.74
677.814	4917.17
678.005	5107.63
678.195	5154.74
678.386	5044.15
678.576	5003.19
678.767	4876.21
678.957	4949.94
679.148	4960.18
679.338	4927.41
679.529	4974.52
679.719	4956.08
679.909	4868.02
680.1	5035.96
680.29	4913.08
680.481	4833.21
680.671	4908.98
680.861	4859.83
681.052	4794.29
681.242	5003.19
681.432	4974.52
681.622	4900.79
681.813	4847.54
682.003	4814.77
682.193	4851.64
682.383	4829.11
682.573	4661.18
682.764	4730.81
682.954	4679.61
683.144	4777.91
683.334	4675.51
683.524	4704.18
683.714	4728.76
683.904	4601.79
684.094	4726.71
684.284	4626.36
684.474	4732.86
684.664	4583.35
684.854	4700.09
685.044	4609.98
685.234	4523.96
685.424	4741.05
685.614	4458.43
685.804	4589.5
685.994	4642.75
686.184	4493.24
686.374	4532.15
686.564	4474.81
686.753	4499.39
686.943	4437.95
687.133	4442.04
687.323	4456.38
687.513	4388.8
687.702	4327.36
687.892	4470.72
688.082	4515.77
688.272	4286.4
688.461	4370.37
688.651	4294.59
688.841	4313.02
689.03	4233.15
689.22	4147.14
689.41	4231.1
689.599	4276.16
689.789	4009.92
689.979	4052.93
690.168	4044.74
690.358	4061.12
690.547	4100.03
690.737	4153.28
690.926	4155.33
691.116	4075.46
691.305	4165.57
691.495	4093.89
691.684	3940.29
691.874	4003.78
692.063	3946.44
692.252	3991.49
692.442	3966.92
692.631	3936.2
692.82	3839.94
693.01	3772.36
693.199	3856.33
693.388	3854.28
693.578	3772.36
693.767	3815.37
693.956	3684.3
694.146	3788.74
694.335	3815.37
694.524	3631.05
694.713	3657.67
694.902	3766.21
695.092	3801.03
695.281	3700.68
695.47	3647.43
695.659	3747.78
695.848	3698.63
696.037	3575.75
696.226	3676.1
696.415	3702.73
696.604	3704.78
696.793	3700.68
696.982	3680.2
697.171	3577.8
697.36	3639.24
697.549	3479.5
697.738	3540.94
697.927	3508.17
698.116	3717.06
698.305	3610.57
698.494	3633.1
698.683	3471.31
698.872	3661.77
699.061	3549.13
699.25	3555.27
699.438	3520.46
699.627	3590.09
699.816	3596.23
700.005	3497.93
700.193	3606.47
700.382	3528.65
700.571	3532.75
700.76	3442.64
700.948	3456.97
701.137	3461.07
701.326	3411.92
701.514	3549.13
701.703	3502.03
701.892	3479.5
702.08	3422.16
702.269	3504.07
702.457	3448.78
702.646	3473.35
702.834	3463.12
703.023	3434.44
703.212	3581.9
703.4	3565.51
703.589	3360.72
703.777	3405.77
703.965	3413.96
704.154	3579.85
704.342	3315.66
704.531	3489.74
704.719	3442.64
704.907	3303.37
705.096	3299.28
705.284	3297.23
705.472	3432.4
705.661	3336.14
705.849	3448.78
706.037	3360.72
706.226	3528.65
706.414	3268.56
706.602	3444.68
706.79	3368.91
706.979	3393.48
707.167	3413.96
707.355	3307.47
707.543	3405.77
707.731	3430.35
707.919	3291.09
708.107	3284.94
708.296	3260.37
708.484	3340.24
708.672	3598.28
708.86	3446.73
709.048	3368.91
709.236	3401.68
709.424	3262.41
709.612	3422.16
709.8	3327.95
709.988	3352.52
710.176	3426.25
710.364	3469.26
710.551	3315.66
710.739	3334.09
710.927	3393.48
711.115	3420.11
711.303	3350.48
711.491	3225.55
711.679	3295.18
711.866	3407.82
712.054	3471.31
712.242	3280.85
712.43	3368.91
712.617	3385.29
712.805	3377.1
712.993	3448.78
713.181	3246.03
713.368	3315.66
713.556	3440.59
713.744	3176.4
713.931	3399.63
714.119	3510.22
714.306	3407.82
714.494	3325.9
714.682	3358.67
714.869	3262.41
715.057	3397.58
715.244	3200.98
715.432	3336.14
715.619	3299.28
715.807	3401.68
715.994	3293.13
716.182	3299.28
716.369	3416.01
716.556	3295.18
716.744	3356.62
716.931	3309.52
717.119	3512.27
717.306	3286.99
717.493	3311.57
717.681	3325.9
717.868	3426.25
718.055	3332.05
718.242	3375.05
718.43	3434.44
718.617	3336.14
718.804	3289.04
718.991	3379.15
719.179	3377.1
719.366	3401.68
719.553	3192.78
719.74	3303.37
719.927	3448.78
720.114	3327.95
720.301	3291.09
720.488	3307.47
720.676	3325.9
720.863	3317.71
721.05	3422.16
721.237	3379.15
721.424	3309.52
721.611	3311.57
721.798	3266.51
721.985	3319.76
722.172	3278.8
722.358	3317.71
722.545	3237.84
722.732	3215.31
722.919	3340.24
723.106	3364.81
723.293	3229.65
723.48	3250.13
723.667	3157.97
723.853	3213.26
724.04	3297.23
724.227	3252.17
724.414	3194.83
724.6	3168.21
724.787	3342.28
724.974	3233.74
725.161	3327.95
725.347	3313.61
725.534	3227.6
725.72	3391.44
725.907	3233.74
726.094	3248.08
726.28	3182.54
726.467	3090.38
726.653	3213.26
726.84	3276.75
727.027	3323.85
727.213	3162.06
727.4	3268.56
727.586	3282.89
727.773	3194.83
727.959	3139.54
728.145	3409.87
728.332	3200.98
728.518	3346.38
728.705	3170.26
728.891	3276.75
729.077	3074
729.264	3176.4
729.45	3016.66
729.636	3213.26
729.823	3098.58
730.009	3131.34
730.195	3151.82
730.382	3160.02
730.568	3139.54
730.754	3203.02
730.94	3137.49
731.126	3233.74
731.313	3121.1
731.499	3186.64
731.685	3188.69
731.871	3053.52
732.057	3039.19
732.243	3178.45
732.429	3117.01
732.615	3090.38
732.801	3096.53
732.987	3098.58
733.173	3139.54
733.359	3080.14
733.545	3088.34
733.731	3049.43
733.917	3080.14
734.103	3168.21
734.289	3235.79
734.475	3080.14
734.661	3151.82
734.847	3108.82
735.033	3114.96
735.219	3045.33
735.404	3076.05
735.59	3200.98
735.776	3106.77
735.962	3037.14
736.148	3110.86
736.333	3020.75
736.519	3026.9
736.705	2959.31
736.89	3004.37
737.076	3071.95
737.262	3037.14
737.447	2942.93
737.633	2947.03
737.819	2930.64
738.004	2912.21
738.19	3047.38
738.375	2965.46
738.561	2990.03
738.747	3020.75
738.932	2985.94
739.118	2824.15
739.303	2893.78
739.489	2875.35
739.674	2955.22
739.859	2858.96
740.045	2985.94
740.23	2791.38
740.416	2940.88
740.601	2807.77
740.786	2914.26
740.972	2760.66
741.157	2648.02
741.342	2818.01
741.528	2770.9
741.713	2764.76
741.898	2877.4
742.084	2787.29
742.269	2785.24
742.454	2783.19
742.639	2807.77
742.824	2826.2
743.01	2758.61
743.195	2736.09
743.38	2672.6
743.565	2713.56
743.75	2625.5
743.935	2660.31
744.12	2717.65
744.305	2596.82
744.49	2738.13
744.675	2633.69
744.86	2539.48
745.045	2568.15
745.23	2584.54
745.415	2500.57
745.6	2508.76
745.785	2516.95
745.97	2555.86
746.155	2521.05
746.34	2562.01
746.525	2562.01
746.71	2549.72
746.895	2312.16
747.079	2398.17
747.264	2467.8
747.449	2502.62
747.634	2353.12
747.819	2516.95
748.003	2287.58
748.188	2365.4
748.373	2275.29
748.557	2349.02
748.742	2199.52
748.927	2340.83
749.111	2289.63
749.296	2336.73
749.481	2324.44
749.665	2367.45
749.85	2193.37
750.034	2189.28
750.219	2203.61
750.404	2172.89
750.588	2211.81
750.773	2238.43
750.957	2131.94
751.141	2095.07
751.326	2095.07
751.51	2039.78
751.695	2041.82
751.879	2037.73
752.064	2115.55
752.248	1980.39
752.432	2011.11
752.617	1988.58
752.801	1978.34
752.985	2015.2
753.17	2000.87
753.354	1984.48
753.538	2023.39
753.722	1943.52
753.907	1820.64
754.091	1955.81
754.275	1869.8
754.459	1826.79
754.643	1822.69
754.828	1939.43
755.012	1871.84
755.196	1755.11
755.38	1744.87
755.564	1615.85
755.748	1800.16
755.932	1742.82
756.116	1742.82
756.3	1722.34
756.484	1730.53
756.668	1693.67
756.852	1679.33
757.036	1656.81
757.22	1660.9
757.404	1587.18
757.588	1669.09
757.772	1617.9
757.956	1638.38
758.14	1591.27
758.323	1517.54
758.507	1570.79
758.691	1533.93
758.875	1585.13
759.059	1644.52
759.242	1558.5
759.426	1615.85
759.61	1527.78
759.794	1554.41
759.977	1484.78
760.161	1646.57
760.345	1470.44
760.528	1484.78
760.712	1525.74
760.895	1529.83
761.079	1447.91
761.263	1437.67
761.446	1458.15
761.63	1470.44
761.813	1402.86
761.997	1458.15
762.18	1388.52
762.364	1390.57
762.547	1249.26
762.731	1433.58
762.914	1353.71
763.098	1329.13
763.281	1220.59
763.464	1462.25
763.648	1261.55
763.831	1314.8
764.015	1333.23
764.198	1333.23
764.381	1366
764.564	1329.13
764.748	1331.18
764.931	1300.46
765.114	1284.08
765.297	1228.78
765.481	1409
765.664	1257.45
765.847	1292.27
766.03	1157.1
766.213	1308.65
766.397	1198.06
766.58	1202.16
766.763	1284.08
766.946	1161.2
767.129	1212.4
767.312	1161.2
767.495	1177.58
767.678	1150.96
767.861	1200.11
768.044	1161.2
768.227	1193.97
768.41	1210.35
768.593	1120.24
768.776	1142.77
768.959	1177.58
769.142	1171.44
769.324	1144.81
769.507	1185.77
769.69	1159.15
769.873	1107.95
770.056	1144.81
770.239	1142.77
770.421	1054.7
770.604	1128.43
770.787	1026.03
770.97	1198.06
771.152	1034.22
771.335	1087.47
771.518	1034.22
771.7	1128.43
771.883	1146.86
772.066	1034.22
772.248	1071.09
772.431	1048.56
772.613	1028.08
772.796	1034.22
772.978	995.31
773.161	1017.84
773.343	995.31
773.526	1056.75
773.708	952.31
773.891	991.22
774.073	950.26
774.256	989.17
774.438	956.4
774.621	931.83
774.803	948.21
774.985	923.63
775.168	995.31
775.35	845.81
775.532	940.02
775.715	946.16
775.897	882.67
776.079	894.96
776.261	901.11
776.444	888.82
776.626	925.68
776.808	905.2
776.99	911.35
777.173	860.15
777.355	919.54
777.537	798.71
777.719	808.95
777.901	780.28
778.083	782.32
778.265	835.57
778.447	823.28
778.629	792.56
778.811	823.28
778.993	819.19
779.175	792.56
779.357	774.13
779.539	747.51
779.721	694.26
779.903	868.34
780.085	765.94
780.267	794.61
780.449	837.62
780.631	757.75
780.812	788.47
780.994	688.12
781.176	784.37
781.358	714.74
781.54	731.12
781.721	704.5
781.903	700.41
782.085	694.26
782.267	679.93
782.448	708.6
782.63	661.49
782.812	686.07
782.993	692.21
783.175	753.65
783.357	620.53
783.538	575.48
783.72	686.07
783.901	606.2
784.083	624.63
784.264	575.48
784.446	485.37
784.627	616.44
784.809	608.25
784.99	598.01
785.172	542.71
785.353	602.1
785.535	563.19
785.716	522.23
785.897	591.86
786.079	514.04
786.26	589.82
786.441	546.81
786.623	532.47
786.804	434.17
786.985	563.19
787.167	587.77
787.348	534.52
787.529	522.23
787.71	559.1
787.891	567.29
788.073	546.81
788.254	538.62
788.435	593.91
788.616	524.28
788.797	485.37
788.978	497.66
789.159	546.81
789.34	524.28
789.522	509.94
789.703	468.98
789.884	448.51
790.065	479.22
790.246	491.51
790.427	434.17
790.607	561.14
790.788	587.77
790.969	432.12
791.15	489.46
791.331	442.36
791.512	514.04
791.693	419.83
791.874	413.69
792.054	503.8
792.235	442.36
792.416	387.07
792.597	350.2
792.778	399.35
792.958	425.98
793.139	401.4
793.32	391.16
793.5	419.83
793.681	397.31
793.862	335.87
794.042	342.01
794.223	362.49
794.404	382.97
794.584	368.63
794.765	399.35
794.945	399.35
795.126	411.64
795.306	403.45
795.487	315.39
795.667	362.49
795.848	452.6
796.028	380.92
796.209	301.05
796.389	421.88
796.57	417.79
796.75	346.11
796.93	268.28
797.111	342.01
797.291	329.72
797.471	309.24
797.652	385.02
797.832	321.53
798.012	329.72
798.192	403.45
798.373	266.24
798.553	327.67
798.733	315.39
798.913	368.63
799.093	278.52
799.274	290.81
799.454	292.86
799.634	305.15
799.814	294.91
799.994	262.14
800.174	280.57
800.354	256
800.534	307.2
800.714	290.81
800.894	288.76
801.074	192.51
801.254	307.2
801.434	256
801.614	266.24
801.794	301.05
801.974	829.43
802.154	239.61
802.334	325.63
802.514	249.85
802.693	284.67
802.873	235.52
803.053	264.19
803.233	249.85
803.413	243.71
803.592	309.24
803.772	239.61
803.952	286.72
804.131	225.28
804.311	247.8
804.491	192.51
804.67	212.99
804.85	251.9
805.03	233.47
805.209	284.67
805.389	253.95
805.568	206.84
805.748	231.42
805.928	288.76
806.107	313.34
806.287	264.19
806.466	262.14
806.646	176.13
806.825	178.17
807.004	163.84
807.184	247.8
807.363	333.82
807.543	204.8
807.722	241.66
807.901	268.28
808.081	264.19
808.26	182.27
808.439	239.61
808.619	243.71
808.798	133.12
808.977	182.27
809.156	229.37
809.336	186.37
809.515	256
809.694	169.98
809.873	208.89
810.052	253.95
810.231	266.24
810.411	290.81
810.59	274.43
810.769	223.23
810.948	217.08
811.127	122.88
811.306	131.07
811.485	219.13
811.664	223.23
811.843	217.08
812.022	253.95
812.201	186.37
812.38	159.74
812.559	90.11
812.737	186.37
812.916	116.73
813.095	36.86
813.274	169.98
813.453	223.23
813.632	124.93
813.811	200.7
813.989	133.12
814.168	141.31
814.347	126.97
814.526	239.61
814.704	290.81
814.883	258.04
815.062	63.49
815.24	204.8
815.419	124.93
815.598	253.95
815.776	71.68
815.955	233.47
816.133	172.03
816.312	110.59
816.49	155.65
816.669	182.27
816.847	161.79
817.026	149.5
817.204	182.27
817.383	157.69
817.561	141.31
817.74	153.6
817.918	219.13
818.097	169.98
818.275	133.12
818.453	186.37
818.632	153.6
818.81	124.93
818.988	176.13
819.167	124.93
819.345	167.93
819.523	167.93
819.701	96.25
819.879	174.08
820.058	96.25
820.236	137.21
820.414	98.3
820.592	114.69
820.77	182.27
820.948	47.1
821.127	126.97
821.305	151.55
821.483	114.69
821.661	120.83
821.839	120.83
822.017	145.41
822.195	86.01
822.373	169.98
822.551	98.3
822.729	172.03
822.907	192.51
823.085	104.45
823.262	133.12
823.44	100.35
823.618	169.98
823.796	141.31
823.974	129.02
824.152	118.78
824.329	71.68
824.507	108.54
824.685	131.07
824.863	260.09
825.04	67.58
825.218	92.16
825.396	51.2
825.574	151.55
825.751	102.4
825.929	135.17
826.107	73.73
826.284	53.25
826.462	157.69
826.639	83.97
826.817	153.6
826.994	53.25
827.172	102.4
827.349	75.77
827.527	75.77
827.704	145.41
827.882	174.08
828.059	198.65
828.237	30.72
828.414	90.11
828.591	92.16
828.769	126.97
828.946	141.31
829.124	137.21
829.301	104.45
829.478	141.31
829.655	124.93
829.833	108.54
830.01	16.38
830.187	98.3
830.364	69.63
830.542	47.1
830.719	133.12
830.896	83.97
831.073	122.88
831.25	133.12
831.427	65.54
831.604	137.21
831.782	120.83
831.959	143.36
832.136	98.3
832.313	112.64
832.49	126.97
832.667	69.63
832.844	90.11
833.021	155.65
833.198	30.72
833.374	65.54
833.551	143.36
833.728	129.02
833.905	106.49
834.082	0
834.259	116.73
834.436	157.69
834.612	116.73
834.789	186.37
834.966	36.86
835.143	69.63
835.319	16.38
835.496	143.36
835.673	116.73
835.85	135.17
836.026	38.91
836.203	116.73
836.38	69.63
836.556	26.62
836.733	18.43
836.909	108.54
837.086	79.87
837.262	83.97
837.439	26.62
837.616	14.34
837.792	71.68
837.968	108.54
838.145	6.14
838.321	122.88
838.498	59.39
838.674	133.12
838.851	81.92
839.027	26.62
839.203	100.35
839.38	67.58
839.556	45.06
839.732	38.91
839.909	20.48
840.085	155.65
840.261	114.69
840.437	86.01
840.614	61.44
840.79	71.68
840.966	32.77
841.142	79.87
841.318	24.58
841.494	53.25
841.671	38.91
841.847	83.97
842.023	22.53
842.199	94.21
842.375	61.44
842.551	24.58
842.727	43.01
842.903	83.97
843.079	75.77
843.255	133.12
843.431	26.62
843.607	112.64
843.783	-22.53
843.959	18.43
844.134	129.02
844.31	100.35
844.486	38.91
844.662	-51.2
844.838	96.25
845.013	108.54
845.189	65.54
845.365	77.82
845.541	59.39
845.716	12.29
845.892	81.92
846.068	-6.14
846.244	2.05
846.419	83.97
846.595	-26.62
846.77	26.62
846.946	43.01
847.122	36.86
847.297	178.17
847.473	26.62
847.648	104.45
847.824	67.58
847.999	36.86
848.175	102.4
848.35	43.01
848.526	6.14
848.701	45.06
848.876	108.54
849.052	16.38
849.227	43.01
849.403	-14.34
849.578	79.87
849.753	8.19
849.929	43.01
850.104	-10.24
850.279	-51.2
850.454	32.77
850.63	65.54
850.805	51.2
850.98	71.68
851.155	34.82
851.33	61.44
851.505	-18.43
851.681	69.63
851.856	26.62
852.031	45.06
852.206	40.96
852.381	-16.38
852.556	92.16
852.731	-2.05
852.906	40.96
853.081	2.05
853.256	36.86
853.431	26.62
853.606	-20.48
853.781	32.77
853.956	32.77
854.131	32.77
854.305	-12.29
854.48	2.05
854.655	34.82
854.83	-22.53
855.005	32.77
855.18	-16.38
855.354	36.86
855.529	14.34
855.704	32.77
855.879	0
856.053	4.1
856.228	65.54
856.403	98.3
856.577	18.43
856.752	55.3
856.926	75.77
857.101	20.48
857.276	38.91
857.45	36.86
857.625	26.62
857.799	-10.24
857.974	-6.14
858.148	-22.53
858.323	34.82
858.497	90.11
858.672	24.58
858.846	18.43
859.02	55.3
859.195	0
859.369	-38.91
859.543	-14.34
859.718	-40.96
859.892	12.29
860.066	59.39
860.241	47.1
860.415	4.1
860.589	53.25
860.763	-2.05
860.938	38.91
861.112	20.48
861.286	-63.49
861.46	114.69
861.634	-10.24
861.808	55.3
861.982	14.34
862.157	6.14
862.331	36.86
862.505	-8.19
862.679	20.48
862.853	24.58
863.027	4.1
863.201	96.25
863.375	-57.34
863.549	12.29
863.722	14.34
863.896	-16.38
864.07	-26.62
864.244	-6.14
864.418	4.1
864.592	34.82
864.766	32.77
864.939	45.06
865.113	-34.82
865.287	38.91
865.461	-18.43
865.634	8.19
865.808	-14.34
865.982	59.39
866.156	-73.73
866.329	-73.73
866.503	34.82
866.676	26.62
866.85	26.62
867.024	6.14
867.197	-131.07
867.371	137.21
867.544	24.58
867.718	49.15
867.891	12.29
868.065	8.19
868.238	-20.48
868.412	-18.43
868.585	8.19
868.759	8.19
868.932	-12.29
869.105	-38.91
869.279	-71.68
869.452	-55.3
869.625	102.4
869.799	28.67
869.972	2.05
870.145	-75.77
870.319	34.82
870.492	-6.14
870.665	12.29
870.838	12.29
871.011	-20.48
871.185	14.34
871.358	-24.58
871.531	90.11
871.704	-75.77
871.877	8.19
872.05	-43.01
872.223	26.62
872.396	2.05
872.569	53.25
872.742	-24.58
872.915	38.91
873.088	10.24
873.261	32.77
873.434	-14.34
873.607	10.24
873.78	22.53
873.953	-14.34
874.126	34.82
874.299	90.11
874.471	20.48
874.644	6.14
874.817	-28.67
874.99	49.15
875.163	-38.91
875.335	55.3
875.508	-59.39
875.681	10.24
875.853	65.54
876.026	30.72
876.199	-10.24
876.371	8.19
876.544	-118.78
876.717	-6.14
876.889	4.1
877.062	28.67
877.234	-98.3
877.407	-51.2
877.579	26.62
877.752	4.1
877.924	53.25
878.097	16.38
878.269	-18.43
878.442	40.96
878.614	-10.24
878.786	38.91
878.959	0
879.131	2.05
879.303	-4.1
879.476	-10.24
879.648	-6.14
879.82	-2.05
879.993	2.05
880.165	24.58
880.337	-67.58
880.509	-53.25
880.681	-34.82
880.854	-53.25
881.026	-6.14
881.198	18.43
881.37	16.38
881.542	22.53
881.714	20.48
881.886	2.05
882.058	-14.34
882.23	-10.24
882.402	-45.06
882.574	-26.62
882.746	20.48
882.918	47.1
883.09	-57.34
883.262	53.25
883.434	-8.19
883.606	-49.15
883.778	-32.77
883.95	38.91
884.122	-63.49
884.293	-2.05
884.465	-51.2
884.637	4.1
884.809	-22.53
884.98	22.53
885.152	-12.29
885.324	-57.34
885.496	-12.29
885.667	28.67
885.839	-2.05
886.011	94.21
886.182	30.72
886.354	24.58
886.525	-20.48
886.697	-10.24
886.869	-59.39
887.04	12.29
887.212	38.91
887.383	22.53
887.555	30.72
887.726	61.44
887.897	-40.96
888.069	12.29
888.24	14.34
888.412	2.05
888.583	-83.97
888.754	28.67
888.926	-30.72
889.097	-8.19
889.268	16.38
889.44	32.77
889.611	-61.44
889.782	-79.87
889.953	-43.01
890.125	-18.43
890.296	2.05
890.467	63.49
890.638	-88.06
890.809	2.05
890.98	-53.25
891.151	22.53
891.323	-14.34
891.494	-32.77
891.665	4.1
891.836	-16.38
892.007	57.34
892.178	-18.43
892.349	6.14
892.52	16.38
892.691	-40.96
892.862	-53.25
893.032	-100.35
893.203	-34.82
893.374	-30.72
893.545	90.11
893.716	-71.68
893.887	55.3
894.057	-47.1
894.228	-32.77
894.399	49.15
894.57	-20.48
894.74	-88.06
894.911	4.1
895.082	-32.77
895.253	-36.86
895.423	-49.15
895.594	-38.91
895.764	-49.15
895.935	10.24
896.106	6.14
896.276	-90.11
896.447	-6.14
896.617	-40.96
896.788	-28.67
896.958	8.19
897.129	-49.15
897.299	-4.1
897.47	-4.1
897.64	28.67
897.81	55.3
897.981	51.2
898.151	-26.62
898.322	-8.19
898.492	16.38
898.662	16.38
898.832	-10.24
899.003	26.62
899.173	36.86
899.343	-32.77
899.513	-55.3
