Data from USB4F104151__40__10-22-39-795.txt Node

Date: Wed Mar 12 10:22:39 EDT 2025
User: louis
Spectrometer: USB4F10415
Trigger mode: 4
Integration Time (sec): 3.000000E-2
Scans to average: 1
Electric dark correction enabled: true
Nonlinearity correction enabled: false
Boxcar width: 0
XAxis mode: Wavelengths
Number of Pixels in Spectrum: 3648
>>>>>Begin Spectral Data<<<<<
178.204	-107.86
178.424	-107.86
178.644	-107.86
178.864	-126.29
179.084	-105.81
179.304	-85.33
179.524	-5.46
179.744	88.75
179.964	25.26
180.184	-19.8
180.404	-21.85
180.624	4.78
180.844	-25.94
181.064	6.83
181.283	-15.7
181.503	-1.37
181.723	49.83
181.943	64.17
182.163	74.41
182.383	29.35
182.602	105.13
182.822	-1.37
183.042	2.73
183.262	21.16
183.482	12.97
183.701	25.26
183.921	84.65
184.141	-38.23
184.361	55.98
184.58	82.6
184.8	-13.65
185.02	-23.89
185.239	33.45
185.459	2.73
185.679	8.87
185.898	-83.28
186.118	43.69
186.338	12.97
186.557	64.17
186.777	31.4
186.997	64.17
187.216	27.31
187.436	107.18
187.655	72.36
187.875	8.87
188.095	45.74
188.314	119.46
188.534	129.7
188.753	-3.41
188.973	62.12
189.192	76.46
189.412	35.5
189.631	25.26
189.851	23.21
190.07	70.31
190.29	-5.46
190.509	70.31
190.729	113.32
190.948	-1.37
191.168	80.55
191.387	74.41
191.607	21.16
191.826	39.59
192.045	70.31
192.265	-36.18
192.484	86.7
192.704	19.11
192.923	53.93
193.142	121.51
193.362	55.98
193.581	-11.61
193.8	21.16
194.02	-25.94
194.239	51.88
194.458	15.02
194.678	76.46
194.897	10.92
195.116	27.31
195.335	-17.75
195.555	4.78
195.774	33.45
195.993	-3.41
196.212	64.17
196.432	-13.65
196.651	84.65
196.87	4.78
197.089	92.84
197.308	58.03
197.528	76.46
197.747	12.97
197.966	31.4
198.185	23.21
198.404	41.64
198.623	2.73
198.842	23.21
199.062	62.12
199.281	123.56
199.5	55.98
199.719	68.27
199.938	88.75
200.157	82.6
200.376	23.21
200.595	39.59
200.814	86.7
201.033	-13.65
201.252	76.46
201.471	53.93
201.69	43.69
201.909	23.21
202.128	141.99
202.347	62.12
202.566	15.02
202.785	-27.99
203.004	-3.41
203.223	23.21
203.442	35.5
203.661	98.99
203.879	37.55
204.098	101.03
204.317	62.12
204.536	4.78
204.755	-7.51
204.974	64.17
205.193	-3.41
205.411	103.08
205.63	27.31
205.849	68.27
206.068	-5.46
206.287	105.13
206.505	72.36
206.724	70.31
206.943	55.98
207.162	31.4
207.381	15.02
207.599	31.4
207.818	2.73
208.037	21.16
208.255	62.12
208.474	-1.37
208.693	62.12
208.911	80.55
209.13	25.26
209.349	-5.46
209.567	86.7
209.786	70.31
210.005	76.46
210.223	66.22
210.442	-36.18
210.661	-21.85
210.879	58.03
211.098	119.46
211.316	62.12
211.535	-13.65
211.753	53.93
211.972	19.11
212.191	62.12
212.409	10.92
212.628	47.79
212.846	21.16
213.065	150.18
213.283	82.6
213.502	64.17
213.72	29.35
213.938	72.36
214.157	47.79
214.375	60.07
214.594	-60.76
214.812	88.75
215.031	51.88
215.249	6.83
215.467	-1.37
215.686	51.88
215.904	43.69
216.122	-25.94
216.341	45.74
216.559	68.27
216.778	29.35
216.996	53.93
217.214	-9.56
217.432	88.75
217.651	21.16
217.869	-3.41
218.087	60.07
218.306	-48.47
218.524	68.27
218.742	6.83
218.96	70.31
219.179	45.74
219.397	115.37
219.615	154.28
219.833	64.17
220.051	21.16
220.27	90.79
220.488	29.35
220.706	92.84
220.924	55.98
221.142	15.02
221.36	139.94
221.578	23.21
221.796	62.12
222.015	-5.46
222.233	31.4
222.451	70.31
222.669	90.79
222.887	60.07
223.105	23.21
223.323	10.92
223.541	19.11
223.759	53.93
223.977	35.5
224.195	23.21
224.413	-38.23
224.631	66.22
224.849	43.69
225.067	23.21
225.285	78.51
225.503	64.17
225.721	12.97
225.939	82.6
226.157	10.92
226.375	53.93
226.592	37.55
226.81	62.12
227.028	62.12
227.246	101.03
227.464	64.17
227.682	72.36
227.9	41.64
228.117	64.17
228.335	62.12
228.553	68.27
228.771	37.55
228.989	78.51
229.206	92.84
229.424	29.35
229.642	27.31
229.86	60.07
230.077	60.07
230.295	37.55
230.513	-1.37
230.731	53.93
230.948	101.03
231.166	62.12
231.384	31.4
231.601	49.83
231.819	82.6
232.037	10.92
232.254	2.73
232.472	27.31
232.689	53.93
232.907	98.99
233.125	88.75
233.342	21.16
233.56	39.59
233.777	-46.42
233.995	-30.04
234.213	25.26
234.43	6.83
234.648	-1.37
234.865	8.87
235.083	49.83
235.3	80.55
235.518	-25.94
235.735	10.92
235.953	103.08
236.17	88.75
236.388	-1.37
236.605	-56.66
236.822	92.84
237.04	119.46
237.257	27.31
237.475	60.07
237.692	37.55
237.909	-30.04
238.127	-17.75
238.344	105.13
238.562	76.46
238.779	-19.8
238.996	10.92
239.214	23.21
239.431	98.99
239.648	33.45
239.865	51.88
240.083	47.79
240.3	10.92
240.517	-3.41
240.735	21.16
240.952	158.38
241.169	103.08
241.386	-5.46
241.603	51.88
241.821	70.31
242.038	98.99
242.255	88.75
242.472	19.11
242.689	31.4
242.907	66.22
243.124	21.16
243.341	-58.71
243.558	17.07
243.775	-21.85
243.992	-11.61
244.209	58.03
244.426	15.02
244.643	92.84
244.86	39.59
245.078	6.83
245.295	-9.56
245.512	58.03
245.729	76.46
245.946	98.99
246.163	80.55
246.38	131.75
246.597	-9.56
246.814	8.87
247.031	90.79
247.248	88.75
247.464	8.87
247.681	19.11
247.898	72.36
248.115	-5.46
248.332	31.4
248.549	-3.41
248.766	125.61
248.983	53.93
249.2	31.4
249.417	-46.42
249.633	64.17
249.85	80.55
250.067	29.35
250.284	60.07
250.501	39.59
250.717	58.03
250.934	31.4
251.151	35.5
251.368	109.22
251.585	74.41
251.801	74.41
252.018	15.02
252.235	-21.85
252.451	45.74
252.668	27.31
252.885	66.22
253.102	64.17
253.318	55.98
253.535	39.59
253.752	6.83
253.968	21.16
254.185	-13.65
254.401	68.27
254.618	-15.7
254.835	21.16
255.051	113.32
255.268	-13.65
255.484	27.31
255.701	10.92
255.917	76.46
256.134	19.11
256.351	19.11
256.567	21.16
256.784	86.7
257	25.26
257.217	-9.56
257.433	-3.41
257.65	88.75
257.866	103.08
258.082	-17.75
258.299	15.02
258.515	35.5
258.732	15.02
258.948	27.31
259.165	58.03
259.381	43.69
259.597	43.69
259.814	31.4
260.03	101.03
260.246	49.83
260.463	49.83
260.679	82.6
260.895	27.31
261.112	39.59
261.328	-36.18
261.544	76.46
261.761	117.42
261.977	17.07
262.193	39.59
262.409	53.93
262.626	84.65
262.842	-5.46
263.058	31.4
263.274	109.22
263.49	-9.56
263.707	49.83
263.923	64.17
264.139	2.73
264.355	-19.8
264.571	96.94
264.787	12.97
265.004	70.31
265.22	113.32
265.436	55.98
265.652	-15.7
265.868	51.88
266.084	-9.56
266.3	86.7
266.516	4.78
266.732	19.11
266.948	62.12
267.164	55.98
267.38	64.17
267.596	105.13
267.812	160.42
268.028	2.73
268.244	80.55
268.46	51.88
268.676	66.22
268.892	45.74
269.108	2.73
269.324	64.17
269.54	27.31
269.756	53.93
269.972	-17.75
270.188	51.88
270.403	27.31
270.619	96.94
270.835	21.16
271.051	-19.8
271.267	41.64
271.483	17.07
271.698	121.51
271.914	23.21
272.13	80.55
272.346	-27.99
272.562	101.03
272.777	86.7
272.993	23.21
273.209	72.36
273.425	8.87
273.64	60.07
273.856	72.36
274.072	76.46
274.287	123.56
274.503	86.7
274.719	127.66
274.934	2.73
275.15	15.02
275.366	31.4
275.581	49.83
275.797	105.13
276.012	27.31
276.228	90.79
276.444	64.17
276.659	17.07
276.875	-58.71
277.09	0.68
277.306	53.93
277.521	43.69
277.737	-17.75
277.952	68.27
278.168	72.36
278.383	68.27
278.599	19.11
278.814	64.17
279.03	64.17
279.245	84.65
279.461	33.45
279.676	82.6
279.892	60.07
280.107	64.17
280.322	-17.75
280.538	53.93
280.753	21.16
280.969	45.74
281.184	15.02
281.399	47.79
281.615	90.79
281.83	55.98
282.045	-38.23
282.26	27.31
282.476	23.21
282.691	72.36
282.906	58.03
283.122	6.83
283.337	-7.51
283.552	66.22
283.767	12.97
283.983	19.11
284.198	47.79
284.413	94.89
284.628	53.93
284.843	49.83
285.058	78.51
285.274	17.07
285.489	-9.56
285.704	144.04
285.919	90.79
286.134	4.78
286.349	-7.51
286.564	45.74
286.779	76.46
286.995	78.51
287.21	2.73
287.425	68.27
287.64	-7.51
287.855	121.51
288.07	6.83
288.285	86.7
288.5	80.55
288.715	58.03
288.93	21.16
289.145	86.7
289.36	27.31
289.575	74.41
289.79	39.59
290.004	10.92
290.219	72.36
290.434	144.04
290.649	62.12
290.864	17.07
291.079	-36.18
291.294	60.07
291.509	101.03
291.724	49.83
291.938	29.35
292.153	80.55
292.368	78.51
292.583	51.88
292.798	55.98
293.012	60.07
293.227	53.93
293.442	-27.99
293.657	-34.13
293.871	113.32
294.086	41.64
294.301	86.7
294.516	49.83
294.73	92.84
294.945	29.35
295.16	86.7
295.374	23.21
295.589	58.03
295.804	39.59
296.018	45.74
296.233	39.59
296.447	172.71
296.662	2.73
296.877	19.11
297.091	92.84
297.306	62.12
297.52	17.07
297.735	64.17
297.949	133.8
298.164	88.75
298.378	80.55
298.593	41.64
298.807	35.5
299.022	27.31
299.236	4.78
299.451	74.41
299.665	51.88
299.88	-36.18
300.094	80.55
300.309	101.03
300.523	45.74
300.737	15.02
300.952	53.93
301.166	6.83
301.381	-19.8
301.595	-3.41
301.809	90.79
302.024	96.94
302.238	45.74
302.452	2.73
302.667	-21.85
302.881	43.69
303.095	70.31
303.309	113.32
303.524	111.27
303.738	78.51
303.952	53.93
304.166	68.27
304.381	-17.75
304.595	101.03
304.809	66.22
305.023	117.42
305.237	64.17
305.452	51.88
305.666	98.99
305.88	105.13
306.094	66.22
306.308	45.74
306.522	96.94
306.736	2.73
306.95	74.41
307.164	19.11
307.379	64.17
307.593	152.23
307.807	41.64
308.021	39.59
308.235	23.21
308.449	-32.08
308.663	17.07
308.877	92.84
309.091	-25.94
309.305	72.36
309.519	15.02
309.733	74.41
309.947	-50.52
310.161	86.7
310.374	60.07
310.588	121.51
310.802	19.11
311.016	51.88
311.23	51.88
311.444	27.31
311.658	55.98
311.872	78.51
312.085	39.59
312.299	43.69
312.513	92.84
312.727	27.31
312.941	-21.85
313.154	23.21
313.368	43.69
313.582	45.74
313.796	68.27
314.009	51.88
314.223	17.07
314.437	53.93
314.651	45.74
314.864	53.93
315.078	-32.08
315.292	39.59
315.505	23.21
315.719	60.07
315.933	19.11
316.146	8.87
316.36	39.59
316.573	101.03
316.787	78.51
317.001	70.31
317.214	27.31
317.428	27.31
317.641	66.22
317.855	111.27
318.068	113.32
318.282	55.98
318.495	152.23
318.709	74.41
318.922	47.79
319.136	64.17
319.349	60.07
319.563	-50.52
319.776	58.03
319.99	23.21
320.203	137.9
320.417	33.45
320.63	86.7
320.843	119.46
321.057	86.7
321.27	101.03
321.483	76.46
321.697	76.46
321.91	80.55
322.124	92.84
322.337	55.98
322.55	39.59
322.763	31.4
322.977	74.41
323.19	101.03
323.403	125.61
323.617	33.45
323.83	105.13
324.043	39.59
324.256	37.55
324.469	-1.37
324.683	68.27
324.896	37.55
325.109	127.66
325.322	64.17
325.535	72.36
325.748	76.46
325.962	31.4
326.175	72.36
326.388	96.94
326.601	27.31
326.814	43.69
327.027	19.11
327.24	98.99
327.453	-7.51
327.666	113.32
327.879	94.89
328.092	31.4
328.305	74.41
328.518	-15.7
328.731	-48.47
328.944	29.35
329.157	53.93
329.37	55.98
329.583	141.99
329.796	78.51
330.009	33.45
330.222	68.27
330.435	117.42
330.648	96.94
330.861	19.11
331.073	78.51
331.286	92.84
331.499	55.98
331.712	72.36
331.925	96.94
332.138	-1.37
332.35	64.17
332.563	21.16
332.776	41.64
332.989	37.55
333.202	117.42
333.414	29.35
333.627	94.89
333.84	21.16
334.053	62.12
334.265	60.07
334.478	88.75
334.691	25.26
334.903	74.41
335.116	12.97
335.329	29.35
335.541	72.36
335.754	113.32
335.966	39.59
336.179	78.51
336.392	-46.42
336.604	76.46
336.817	154.28
337.029	60.07
337.242	-9.56
337.454	31.4
337.667	68.27
337.88	41.64
338.092	17.07
338.305	37.55
338.517	25.26
338.729	60.07
338.942	137.9
339.154	37.55
339.367	35.5
339.579	115.37
339.792	-5.46
340.004	86.7
340.217	37.55
340.429	129.7
340.641	-3.41
340.854	58.03
341.066	58.03
341.278	37.55
341.491	178.86
341.703	92.84
341.915	70.31
342.128	68.27
342.34	113.32
342.552	68.27
342.764	4.78
342.977	78.51
343.189	64.17
343.401	64.17
343.613	6.83
343.826	76.46
344.038	70.31
344.25	-1.37
344.462	0.68
344.674	96.94
344.886	10.92
345.099	72.36
345.311	64.17
345.523	29.35
345.735	-11.61
345.947	88.75
346.159	84.65
346.371	68.27
346.583	121.51
346.795	187.05
347.007	82.6
347.219	21.16
347.431	-5.46
347.643	109.22
347.855	27.31
348.067	55.98
348.279	70.31
348.491	160.42
348.703	86.7
348.915	-15.7
349.127	90.79
349.339	53.93
349.551	12.97
349.763	74.41
349.975	47.79
350.187	64.17
350.399	113.32
350.61	43.69
350.822	10.92
351.034	31.4
351.246	6.83
351.458	92.84
351.669	17.07
351.881	109.22
352.093	29.35
352.305	121.51
352.517	121.51
352.728	107.18
352.94	88.75
353.152	70.31
353.363	-15.7
353.575	98.99
353.787	101.03
353.999	115.37
354.21	58.03
354.422	84.65
354.633	51.88
354.845	27.31
355.057	96.94
355.268	51.88
355.48	23.21
355.692	39.59
355.903	80.55
356.115	62.12
356.326	113.32
356.538	80.55
356.749	117.42
356.961	27.31
357.172	103.08
357.384	15.02
357.595	78.51
357.807	103.08
358.018	47.79
358.23	31.4
358.441	129.7
358.653	70.31
358.864	96.94
359.075	-7.51
359.287	84.65
359.498	113.32
359.709	39.59
359.921	27.31
360.132	49.83
360.344	60.07
360.555	10.92
360.766	-9.56
360.977	96.94
361.189	107.18
361.4	49.83
361.611	115.37
361.823	6.83
362.034	15.02
362.245	-52.56
362.456	10.92
362.667	31.4
362.879	111.27
363.09	103.08
363.301	53.93
363.512	2.73
363.723	105.13
363.935	62.12
364.146	70.31
364.357	49.83
364.568	101.03
364.779	-32.08
364.99	64.17
365.201	103.08
365.412	37.55
365.623	35.5
365.834	27.31
366.045	47.79
366.256	8.87
366.467	129.7
366.678	64.17
366.889	131.75
367.1	105.13
367.311	39.59
367.522	105.13
367.733	60.07
367.944	82.6
368.155	12.97
368.366	125.61
368.577	84.65
368.788	107.18
368.999	39.59
369.209	53.93
369.42	129.7
369.631	78.51
369.842	53.93
370.053	80.55
370.264	121.51
370.474	47.79
370.685	41.64
370.896	64.17
371.107	72.36
371.317	53.93
371.528	47.79
371.739	80.55
371.95	39.59
372.16	92.84
372.371	72.36
372.582	103.08
372.792	82.6
373.003	58.03
373.214	62.12
373.424	105.13
373.635	55.98
373.846	80.55
374.056	47.79
374.267	64.17
374.477	139.94
374.688	43.69
374.898	96.94
375.109	62.12
375.319	125.61
375.53	55.98
375.74	92.84
375.951	19.11
376.161	86.7
376.372	86.7
376.582	60.07
376.793	6.83
377.003	60.07
377.214	103.08
377.424	70.31
377.635	55.98
377.845	53.93
378.055	135.85
378.266	60.07
378.476	35.5
378.686	35.5
378.897	84.65
379.107	47.79
379.317	23.21
379.528	90.79
379.738	64.17
379.948	55.98
380.158	121.51
380.369	78.51
380.579	35.5
380.789	121.51
380.999	62.12
381.21	146.09
381.42	72.36
381.63	86.7
381.84	72.36
382.05	68.27
382.261	53.93
382.471	64.17
382.681	92.84
382.891	58.03
383.101	27.31
383.311	15.02
383.521	80.55
383.731	60.07
383.941	127.66
384.151	41.64
384.361	133.8
384.571	39.59
384.781	66.22
384.991	164.52
385.201	82.6
385.411	0.68
385.621	78.51
385.831	39.59
386.041	103.08
386.251	107.18
386.461	88.75
386.671	152.23
386.881	62.12
387.091	33.45
387.301	88.75
387.511	162.47
387.72	80.55
387.93	92.84
388.14	90.79
388.35	78.51
388.56	105.13
388.769	23.21
388.979	86.7
389.189	113.32
389.399	47.79
389.609	66.22
389.818	96.94
390.028	101.03
390.238	131.75
390.447	6.83
390.657	-17.75
390.867	31.4
391.076	141.99
391.286	0.68
391.496	74.41
391.705	66.22
391.915	49.83
392.125	45.74
392.334	98.99
392.544	135.85
392.753	135.85
392.963	105.13
393.172	101.03
393.382	35.5
393.591	96.94
393.801	121.51
394.01	164.52
394.22	64.17
394.429	96.94
394.639	166.57
394.848	103.08
395.058	70.31
395.267	51.88
395.477	55.98
395.686	84.65
395.895	131.75
396.105	101.03
396.314	105.13
396.524	111.27
396.733	101.03
396.942	228.01
397.152	103.08
397.361	96.94
397.57	193.19
397.78	62.12
397.989	150.18
398.198	209.58
398.407	168.62
398.617	207.53
398.826	92.84
399.035	129.7
399.244	154.28
399.453	92.84
399.663	111.27
399.872	164.52
400.081	137.9
400.29	154.28
400.499	144.04
400.708	203.43
400.917	64.17
401.127	121.51
401.336	109.22
401.545	154.28
401.754	150.18
401.963	144.04
402.172	125.61
402.381	94.89
402.59	113.32
402.799	182.95
403.008	182.95
403.217	219.82
403.426	111.27
403.635	150.18
403.844	168.62
404.053	135.85
404.262	178.86
404.471	193.19
404.68	225.96
404.888	295.59
405.097	111.27
405.306	131.75
405.515	144.04
405.724	144.04
405.933	260.77
406.142	176.81
406.35	225.96
406.559	217.77
406.768	137.9
406.977	287.4
407.185	228.01
407.394	223.91
407.603	180.9
407.812	219.82
408.02	338.6
408.229	209.58
408.438	258.73
408.646	260.77
408.855	301.73
409.064	314.02
409.272	244.39
409.481	295.59
409.69	250.53
409.898	309.93
410.107	324.26
410.315	449.19
410.524	293.54
410.733	383.65
410.941	408.23
411.15	506.53
411.358	350.89
411.567	494.24
411.775	383.65
411.984	514.72
412.192	565.92
412.401	494.24
412.609	559.78
412.818	594.59
413.026	598.69
413.234	514.72
413.443	617.12
413.651	627.36
413.86	543.39
414.068	653.98
414.276	803.49
414.485	651.94
414.693	709.28
414.901	858.78
415.11	783.01
415.318	842.4
415.526	772.77
415.734	809.63
415.943	879.26
416.151	985.76
416.359	922.27
416.567	899.74
416.776	1043.1
416.984	1098.39
417.192	1075.87
417.4	1067.67
417.608	1071.77
417.817	1165.98
418.025	1200.79
418.233	1305.24
418.441	1278.62
418.649	1192.6
418.857	1399.45
419.065	1391.25
419.273	1356.44
419.481	1563.28
419.689	1467.03
419.897	1667.73
420.105	1665.68
420.313	1720.98
420.521	1757.84
420.729	1862.29
420.937	1911.44
421.145	1950.35
421.353	2026.12
421.561	2048.65
421.769	2192.01
421.977	2310.79
422.185	2194.06
422.393	2312.84
422.601	2495.11
422.809	2497.16
423.017	2591.36
423.224	2583.17
423.432	2658.95
423.64	2652.8
423.848	2912.89
424.056	2871.93
424.263	3091.07
424.471	3162.75
424.679	3295.86
424.887	3388.02
425.094	3578.48
425.302	3572.34
425.51	3762.8
425.718	3707.51
425.925	3711.6
426.133	4004.46
426.341	4070
426.548	4364.9
426.756	4217.45
426.964	4285.03
427.171	4651.62
427.379	4483.69
427.586	4803.17
427.794	4758.11
428.001	5118.56
428.209	5349.98
428.417	5229.15
428.624	5667.41
428.832	5696.08
429.039	5591.64
429.247	5741.14
429.454	6017.61
429.662	6681.16
429.869	6117.97
430.076	6453.83
430.284	6408.78
430.491	6697.54
430.699	7150.14
430.906	7103.04
431.114	7121.47
431.321	7402.04
431.528	7426.62
431.736	7778.87
431.943	8350.25
432.15	8258.09
432.358	8133.17
432.565	8628.77
432.772	8497.7
432.979	9148.96
433.187	9103.9
433.394	9138.72
433.601	9812.5
433.808	9929.24
434.016	9822.74
434.223	10142.22
434.43	10760.71
434.637	10695.18
434.844	11297.28
435.052	11719.16
435.259	11579.9
435.466	11649.53
435.673	11319.81
435.88	12251.63
436.087	12573.16
436.294	12716.52
436.501	12491.24
436.708	12765.67
436.915	13316.58
437.122	13584.86
437.329	13715.93
437.537	14107.09
437.743	14490.06
437.95	14307.79
438.157	14971.33
438.364	15446.46
438.571	15335.87
438.778	15292.87
438.985	17031.59
439.192	16224.69
439.399	16824.75
439.606	16271.79
439.813	17691.04
440.02	18739.6
440.227	18219.41
440.433	18172.31
440.64	18608.53
440.847	18182.55
441.054	18880.91
441.261	19966.33
441.467	19775.87
441.674	20124.02
441.881	20961.64
442.088	20975.98
442.294	20871.53
442.501	21162.34
442.708	21750.11
442.914	22597.97
443.121	23652.67
443.328	22868.3
443.534	24488.24
443.741	23664.96
443.948	23456.07
444.154	25184.55
444.361	25096.49
444.568	25119.02
444.774	25227.56
444.981	25405.74
445.187	26030.37
445.394	27107.6
445.6	26857.74
445.807	29346.03
446.013	28236.03
446.22	28647.67
446.426	29520.1
446.633	30007.52
446.839	30574.81
447.046	29591.78
447.252	31580.36
447.459	31549.64
447.665	31406.28
447.871	32809.14
448.078	34017.44
448.284	32573.63
448.491	32841.91
448.697	34353.31
448.903	35195.03
449.11	34791.58
449.316	34592.92
449.522	35012.76
449.728	35858.57
449.935	36280.45
450.141	36065.41
450.347	36804.73
450.553	35725.45
450.76	36130.95
450.966	37470.32
451.172	36683.9
451.378	37632.11
451.584	36960.37
451.791	37564.53
451.997	37783.66
452.203	38355.04
452.409	38031.46
452.615	38633.57
452.821	36634.75
453.027	36163.71
453.233	38336.61
453.44	36065.41
453.646	37032.05
453.852	36915.32
454.058	37529.71
454.264	36053.12
454.47	37314.67
454.676	36673.66
454.882	37359.73
455.088	34246.82
455.294	34984.08
455.5	35578
455.705	35602.57
455.911	33945.76
456.117	33493.16
456.323	33009.84
456.529	31350.99
456.735	32618.68
456.941	31486.15
457.147	31457.48
457.352	30351.58
457.558	29855.97
457.764	30044.38
457.97	29550.82
458.176	28877.04
458.381	28705.01
458.587	27351.31
458.793	27357.45
458.999	25884.96
459.204	27812.1
459.41	27042.06
459.616	25059.63
459.821	25235.75
460.027	25090.35
460.233	24498.48
460.438	23382.34
460.644	23705.92
460.85	22948.17
461.055	22458.71
461.261	22137.18
461.466	20529.52
461.672	20015.48
461.878	21528.93
462.083	20087.16
462.289	19468.67
462.494	19528.06
462.7	18604.43
462.905	17885.59
463.111	18762.12
463.316	18813.32
463.522	18379.15
463.727	18299.28
463.932	18338.19
464.138	18237.84
464.343	18207.12
464.549	17705.37
464.754	18235.8
464.959	18213.27
465.165	18145.69
465.37	17385.89
465.575	16693.68
465.781	17617.31
465.986	17430.94
466.191	16726.44
466.397	16632.24
466.602	16036.28
466.807	16523.69
467.012	16619.95
467.218	16241.07
467.423	16343.47
467.628	16316.85
467.833	16832.94
468.038	16658.86
468.244	15735.23
468.449	16449.97
468.654	16044.47
468.859	16071.09
469.064	15591.87
469.269	15110.6
469.474	15389.12
469.679	15217.09
469.885	15143.36
470.09	15399.36
470.295	15368.64
470.5	14946.76
470.705	15040.97
470.91	14490.06
471.115	14440.91
471.32	14520.78
471.525	14584.27
471.73	14299.6
471.935	14197.2
472.139	13890.01
472.344	13679.07
472.549	14078.42
472.754	13593.05
472.959	12978.66
473.164	13255.14
473.369	12792.3
473.574	13365.73
473.778	13054.44
473.983	13064.68
474.188	12999.14
474.393	12579.31
474.598	12530.16
474.802	12134.9
475.007	12378.61
475.212	12282.35
475.417	11926
475.621	11835.89
475.826	11856.37
476.031	11540.99
476.235	11364.86
476.44	11481.6
476.645	11424.25
476.849	11426.3
477.054	11237.89
477.259	11106.82
477.463	10975.75
477.668	10490.38
477.872	10957.32
478.077	10568.2
478.282	10580.49
478.486	10596.87
478.691	10318.35
478.895	10443.28
479.1	10387.98
479.304	10181.14
479.509	9765.4
479.713	10230.29
479.918	10007.06
480.122	9800.21
480.326	10099.22
480.531	9902.61
480.735	10043.92
480.94	9730.58
481.144	10140.18
481.348	9572.89
481.553	9869.84
481.757	9421.34
481.961	9699.86
482.166	9740.82
482.37	9808.4
482.574	9466.39
482.778	9669.14
482.983	9689.62
483.187	9548.31
483.391	9632.28
483.595	9722.39
483.8	9390.62
484.004	9509.4
484.208	9673.24
484.412	9474.59
484.616	9650.71
484.821	9472.54
485.025	9523.74
485.229	9716.25
485.433	9564.7
485.637	9503.26
485.841	9548.31
486.045	9300.51
486.249	9398.81
486.453	9462.3
486.657	9626.14
486.861	9609.75
487.065	9257.5
487.269	9427.48
487.473	9271.84
487.677	9843.22
487.881	9429.53
488.085	9452.06
488.289	9714.2
488.493	9617.94
488.697	9640.47
488.901	9677.33
489.105	9611.8
489.309	9591.32
489.512	9687.57
489.716	9583.13
489.92	9589.27
490.124	9435.67
490.328	9718.29
490.531	9818.64
490.735	9759.25
490.939	9644.57
491.143	9765.4
491.346	9908.76
491.55	10045.97
491.754	9843.22
491.958	9919
492.161	10154.51
492.365	9994.77
492.569	9988.63
492.772	10002.96
492.976	10183.18
493.18	10246.67
493.383	10306.06
493.587	10365.45
493.79	10654.22
493.994	10203.66
494.197	10770.95
494.401	10574.35
494.605	10744.33
494.808	10916.36
495.012	10834.44
495.215	10891.78
495.419	11082.24
495.622	10844.68
495.825	11180.54
496.029	11418.11
496.232	11502.08
496.436	11358.72
496.639	11731.45
496.843	11651.58
497.046	11794.93
497.249	11909.62
497.453	12024.31
497.656	11895.29
497.859	12071.41
498.063	12161.52
498.266	12485.1
498.469	12161.52
498.673	12728.81
498.876	12737
499.079	12866.02
499.282	13154.79
499.485	13048.29
499.689	13158.88
499.892	13414.88
500.095	13445.6
500.298	13677.02
500.501	13724.12
500.705	14107.09
500.908	14234.07
501.111	14531.02
501.314	14662.09
501.517	14653.9
501.72	14870.98
501.923	14993.86
502.126	15196.61
502.329	15501.76
502.532	15448.51
502.735	15620.54
502.938	16046.52
503.141	15854.01
503.344	16179.64
503.547	16279.99
503.75	16572.85
503.953	16673.2
504.156	16452.02
504.359	16875.95
504.562	17314.21
504.765	17371.55
504.968	17971.61
505.17	17899.93
505.373	17719.71
505.576	18223.51
505.779	18272.66
505.982	18373.01
506.185	18829.71
506.387	18827.66
506.59	18928.01
506.793	19437.95
506.996	19372.42
507.198	19843.45
507.401	19704.19
507.604	20052.34
507.807	20398.45
508.009	20382.07
508.212	20765.04
508.415	20963.69
508.617	21215.59
508.82	21209.45
509.022	21447.01
509.225	21909.85
509.428	22102.36
509.63	22020.44
509.833	22638.93
510.035	23140.68
510.238	22778.19
510.44	23132.49
510.643	23267.66
510.845	23570.76
511.048	23388.49
511.25	23982.4
511.453	24111.42
511.655	25057.58
511.858	24410.42
512.06	24828.21
512.262	25149.74
512.465	25145.64
512.667	25475.37
512.87	25854.24
513.072	26024.22
513.274	26458.39
513.477	26442.01
513.679	26667.28
513.881	27015.44
514.084	27353.35
514.286	27443.46
514.488	27707.65
514.69	28383.48
514.893	28473.59
515.095	28682.49
515.297	28920.05
515.499	29055.22
515.701	29520.1
515.904	29573.35
516.106	30134.49
516.308	30343.39
516.51	30515.42
516.712	30591.19
516.914	31113.42
517.116	31555.79
517.318	31490.25
517.52	32123.07
517.722	31854.79
517.925	32350.4
518.127	33173.68
518.329	32704.7
518.531	33173.68
518.733	33601.71
518.935	34011.3
519.136	34252.96
519.338	34480.28
519.54	34570.4
519.742	35602.57
519.944	34959.51
520.146	35752.07
520.348	35877
520.55	35723.4
520.752	36030.6
520.954	36718.71
521.155	36434.05
521.357	36995.19
521.559	37724.27
521.761	38121.57
521.963	37963.88
522.164	38160.48
522.366	38387.81
522.568	38719.58
522.77	39026.78
522.971	39108.69
523.173	39381.07
523.375	39518.29
523.576	39878.73
523.778	39841.87
523.98	40570.94
524.181	40906.81
524.383	40575.04
524.584	41302.07
524.786	41330.74
524.988	41232.44
525.189	42043.43
525.391	42000.43
525.592	42129.45
525.794	42483.75
525.995	42227.75
526.197	42493.99
526.398	42541.09
526.6	43382.8
526.801	43503.63
527.003	43350.04
527.204	43554.83
527.406	43876.37
527.607	43790.35
527.808	44507.14
528.01	43554.83
528.211	44081.16
528.412	45225.98
528.614	44955.64
528.815	44619.78
529.016	45244.41
529.218	44969.98
529.419	45213.69
529.62	45285.37
529.822	45207.54
530.023	45066.24
530.224	45068.28
530.425	45473.78
530.626	45367.29
530.828	45250.55
531.029	46313.45
531.23	45469.68
531.431	45770.74
531.632	46071.79
531.833	46395.37
532.035	46147.56
532.236	45993.96
532.437	46487.53
532.638	46147.56
532.839	46745.57
533.04	46256.1
533.241	45862.89
533.442	47142.88
533.643	46745.57
533.844	46637.03
534.045	46729.19
534.246	46311.4
534.447	47075.29
534.648	46604.26
534.849	46694.37
535.05	46665.7
535.251	46677.99
535.451	46897.12
535.652	46536.68
535.853	46710.75
536.054	47075.29
536.255	46974.94
536.456	46481.38
536.657	47992.78
536.857	46827.49
537.058	46936.03
537.259	47458.26
537.46	47222.75
537.66	46983.13
537.861	47267.8
538.062	46917.6
538.263	47136.73
538.463	47335.38
538.664	47343.58
538.865	47265.75
539.065	47505.37
539.266	46933.98
539.466	47763.41
539.667	46993.37
539.868	47781.84
540.068	47067.1
540.269	47130.59
540.469	47069.15
540.67	46960.61
540.87	46845.92
541.071	47017.95
541.271	47431.64
541.472	47204.31
541.672	46817.25
541.873	46768.1
542.073	46538.72
542.274	47103.96
542.474	47169.5
542.675	46608.36
542.875	47466.45
543.075	47173.59
543.276	46663.65
543.476	47327.19
543.676	47034.33
543.877	46952.41
544.077	47153.12
544.277	46813.15
544.478	46925.79
544.678	47439.83
544.878	47126.49
545.078	47263.71
545.279	46417.89
545.479	46696.42
545.679	46901.21
545.879	47015.9
546.079	46704.61
546.28	46890.98
546.48	46968.8
546.68	46968.8
546.88	47005.66
547.08	47067.1
547.28	46962.65
547.48	46655.46
547.68	46630.88
547.88	46432.23
548.081	46829.54
548.281	46645.22
548.481	46659.55
548.681	47046.62
548.881	46895.07
549.081	46866.4
549.28	46440.42
549.48	46942.17
549.68	46884.83
549.88	47087.58
550.08	46778.34
550.28	46252.01
550.48	46720.99
550.68	47353.82
550.88	46434.28
551.08	46616.55
551.279	46530.53
551.479	46221.29
551.679	46749.67
551.879	46575.59
552.079	46628.84
552.278	46753.76
552.478	46661.6
552.678	46024.68
552.878	46733.28
553.077	46520.29
553.277	46643.17
553.477	46815.2
553.676	46249.96
553.876	46608.36
554.076	46252.01
554.275	46297.06
554.475	45934.57
554.674	46378.98
554.874	46096.36
555.074	46229.48
555.273	46364.65
555.473	46493.67
555.672	45920.24
555.872	46114.79
556.071	46120.94
556.271	46270.44
556.47	45711.35
556.67	45563.89
556.869	45610.99
557.068	45760.5
557.268	45871.09
557.467	45744.11
557.667	45832.18
557.866	45596.66
558.065	45901.81
558.265	45350.9
558.464	45285.37
558.663	45707.25
558.863	45285.37
559.062	45764.59
559.261	45238.26
559.461	45809.65
559.66	44898.3
559.859	45178.87
560.058	44961.79
560.258	45244.41
560.457	44650.5
560.656	44523.52
560.855	44640.26
561.054	44826.62
561.253	44621.83
561.453	44775.42
561.652	44888.06
561.851	44804.1
562.05	44267.53
562.249	43884.56
562.448	44453.89
562.647	44113.93
562.846	44003.34
563.045	43814.93
563.244	43280.41
563.443	44412.93
563.642	43354.13
563.841	43634.7
564.04	43391
564.239	43753.49
564.438	43331.61
564.637	43331.61
564.836	43221.02
565.035	43155.48
565.234	42958.88
565.432	42874.91
565.631	42631.2
565.83	43261.97
566.029	42647.58
566.228	42876.96
566.427	42375.2
566.625	42274.85
566.824	41494.58
567.023	42651.68
567.222	41695.28
567.42	41869.36
567.619	41928.75
567.818	41875.5
568.016	41764.91
568.215	41785.39
568.414	41959.47
568.612	42158.12
568.811	41302.07
569.01	41392.18
569.208	41084.98
569.407	41162.81
569.605	40656.96
569.804	41189.43
570.002	40437.83
570.201	40935.48
570.4	40847.42
570.598	40370.24
570.797	40298.56
570.995	40448.07
571.193	39954.5
571.392	40611.9
571.59	39694.41
571.789	40169.54
571.987	39862.35
572.186	39540.82
572.384	39741.52
572.582	39735.37
572.781	39813.2
572.979	39037.01
573.177	39090.26
573.376	39166.04
573.574	38723.68
573.772	39327.83
573.971	38604.89
574.169	38813.79
574.367	38551.65
574.565	38461.54
574.763	38543.45
574.962	38656.09
575.16	38183.01
575.358	38379.62
575.556	37652.59
575.754	38320.23
575.952	37879.91
576.151	38084.71
576.349	37587.05
576.547	37478.51
576.745	37455.98
576.943	37562.48
577.141	37142.64
577.339	37546.09
577.537	37023.86
577.735	36886.65
577.933	36776.06
578.131	37355.63
578.329	37007.48
578.527	36601.98
578.725	36587.64
578.923	36632.7
579.121	36311.17
579.319	36442.24
579.516	36055.17
579.714	36042.88
579.912	35752.07
580.11	35676.3
580.308	36003.97
580.506	35944.58
580.704	35332.24
580.901	35760.26
581.099	36157.57
581.297	35328.14
581.495	35283.09
581.692	35477.65
581.89	35018.9
582.088	35502.22
582.285	34832.54
582.483	35203.22
582.681	34998.42
582.878	34599.07
583.076	34615.45
583.274	34900.12
583.471	34154.66
583.669	34341.02
583.866	33843.37
584.064	34365.6
584.262	34021.54
584.459	34201.76
584.657	34005.16
584.854	34212
585.052	33345.71
585.249	33751.21
585.447	33374.38
585.644	33177.78
585.841	33616.04
586.039	33482.92
586.236	33007.79
586.434	33056.95
586.631	32932.02
586.828	33046.71
587.026	33079.47
587.223	32833.72
587.42	32598.2
587.618	32839.86
587.815	32000.19
588.012	32100.54
588.21	32139.46
588.407	32248
588.604	32084.16
588.801	32008.39
588.999	31459.53
589.196	31557.83
589.393	31840.45
589.59	31570.12
589.787	31189.2
589.984	31178.96
590.182	31054.03
590.379	31336.65
590.576	30959.83
590.773	31219.92
590.97	31006.93
591.167	31013.07
591.364	30380.25
591.561	30746.84
591.758	30040.29
591.955	30615.77
592.152	30599.38
592.349	30189.79
592.546	30316.76
592.743	30146.78
592.94	29368.55
593.137	29896.93
593.334	30089.44
593.531	29499.62
593.727	29450.47
593.924	29917.41
594.121	29346.03
594.318	29479.14
594.515	29413.61
594.712	29675.75
594.908	29223.15
595.105	29217
595.302	28676.34
595.499	28672.25
595.696	28612.85
595.892	28899.57
596.089	28891.38
596.286	28985.58
596.482	28709.11
596.679	28766.45
596.876	28547.32
597.072	28350.71
597.269	27961.6
597.466	27812.1
597.662	27590.92
597.859	28102.91
598.055	28123.39
598.252	27853.06
598.448	27656.45
598.645	27605.25
598.841	27461.9
599.038	27652.36
599.234	27216.14
599.431	26939.66
599.627	27207.95
599.824	27076.88
600.02	27171.08
600.217	27015.44
600.413	26824.98
600.609	26804.5
600.806	26216.73
601.002	26650.9
601.198	26312.99
601.395	26269.98
601.591	26224.92
601.787	26106.14
601.984	26312.99
602.18	26067.23
602.376	25919.78
602.572	25866.53
602.769	25760.03
602.965	25829.66
603.161	25788.71
603.357	25684.26
603.553	25588
603.75	25571.62
603.946	25094.44
604.142	25473.32
604.338	24764.72
604.534	25350.44
604.73	25014.57
604.926	24768.82
605.122	25010.48
605.318	24615.22
605.514	24529.2
605.71	24967.47
605.906	24521.01
606.102	24439.09
606.298	24435
606.494	24418.61
606.69	24398.13
606.886	24580.4
607.082	24119.61
607.278	24287.54
607.474	23732.54
607.67	23908.67
607.866	23654.72
608.062	24119.61
608.257	23671.11
608.453	23804.22
608.649	24166.71
608.845	23697.73
609.041	23560.52
609.236	23574.85
609.432	23441.73
609.628	23664.96
609.824	23398.73
610.019	23134.54
610.215	23052.62
610.411	23368.01
610.606	23193.93
610.802	22989.13
610.998	23269.7
611.193	22966.6
611.389	22970.7
611.584	23005.52
611.78	22618.45
611.976	22858.06
612.171	22759.76
612.367	23007.56
612.562	22679.89
612.758	22483.28
612.953	22253.91
613.149	22577.49
613.344	22460.76
613.539	22653.26
613.735	22487.38
613.93	22241.62
614.126	22167.9
614.321	22663.5
614.517	22307.16
614.712	22022.49
614.907	22245.72
615.103	22270.29
615.298	22147.42
615.493	22036.83
615.688	21741.92
615.884	22106.46
616.079	21797.21
616.274	21860.7
616.47	21651.81
616.665	21510.5
616.86	21678.43
617.055	21414.24
617.25	21438.82
617.445	21549.41
617.641	21375.33
617.836	21496.16
618.031	21156.2
618.226	21324.13
618.421	20879.72
618.616	21301.61
618.811	20570.48
619.006	20971.88
619.201	20543.86
619.396	21082.47
619.591	20658.54
619.786	20648.3
619.981	20152.7
620.176	20556.15
620.371	20330.87
620.566	20486.51
620.761	20187.51
620.956	20267.38
621.151	20046.2
621.346	20138.36
621.541	19661.18
621.735	19999.1
621.93	19421.57
622.125	19372.42
622.32	19353.99
622.515	19263.88
622.709	19102.09
622.904	19128.71
623.099	19040.65
623.294	19435.91
623.488	18819.47
623.683	19020.17
623.878	18563.47
624.072	18674.06
624.267	18889.1
624.462	18489.74
624.656	18321.81
624.851	18364.82
625.046	17951.13
625.24	18133.4
625.435	17682.84
625.629	17580.45
625.824	17922.46
626.018	17848.73
626.213	17523.1
626.407	17500.58
626.602	17164.71
626.796	17037.73
626.991	17416.61
627.185	16978.34
627.38	17260.96
627.574	16683.44
627.768	16650.67
627.963	16716.2
628.157	16507.31
628.352	16644.52
628.546	16101.81
628.74	16476.59
628.935	16329.14
629.129	16249.27
629.323	15946.17
629.517	16079.29
629.712	16155.06
629.906	15856.06
630.1	15743.42
630.294	15755.71
630.489	15636.92
630.683	15587.77
630.877	15282.63
631.071	15362.5
631.265	15243.71
631.459	15108.55
631.653	15020.49
631.848	15208.9
632.042	14938.57
632.236	15006.15
632.43	14789.06
632.624	14539.21
632.818	14621.13
633.012	14416.33
633.206	14297.55
633.4	14551.5
633.594	14354.9
633.788	14490.06
633.982	14080.47
634.176	14229.97
634.369	14164.43
634.563	13928.92
634.757	13810.14
634.951	13724.12
635.145	13672.92
635.339	13797.85
635.533	13400.54
635.726	13560.28
635.92	13154.79
636.114	13695.45
636.308	13226.46
636.501	13404.64
636.695	13060.58
636.889	12825.06
637.083	13122.02
637.276	12900.84
637.47	12831.21
637.664	12900.84
637.857	12597.74
638.051	12839.4
638.244	12636.65
638.438	12679.66
638.632	12534.25
638.825	12399.09
639.019	12354.03
639.212	12229.1
639.406	12216.82
639.599	12018.16
639.793	12149.23
639.986	11854.33
640.18	12134.9
640.373	11700.73
640.567	11563.51
640.76	11749.88
640.954	11899.38
641.147	11583.99
641.34	11379.2
641.534	11479.55
641.727	11321.85
641.92	11436.54
642.114	11270.65
642.307	10949.12
642.5	11141.63
642.694	10953.22
642.887	11121.15
643.08	11143.68
643.273	11055.62
643.467	10596.87
643.66	10686.98
643.853	10758.66
644.046	10701.32
644.239	10500.62
644.432	10646.02
644.626	10592.78
644.819	10525.19
645.012	10572.3
645.205	10344.97
645.398	10240.53
645.591	10234.38
645.784	10066.45
645.977	10123.79
646.17	10164.75
646.363	9835.03
646.556	9980.43
646.749	9916.95
646.942	9619.99
647.135	9832.98
647.328	9630.23
647.521	9628.18
647.714	9480.73
647.907	9728.53
648.099	9396.76
648.292	9452.06
648.485	9589.27
648.678	9345.56
648.871	9312.8
649.064	9267.74
649.256	9441.82
649.449	9196.06
649.642	9075.23
649.835	9050.66
650.027	8809
650.22	8964.64
650.413	8960.55
650.605	9093.66
650.798	8935.97
650.991	8745.51
651.183	8907.3
651.376	8651.3
651.568	8655.4
651.761	8718.89
651.954	8628.77
652.146	8589.86
652.339	8526.38
652.531	8675.88
652.724	8518.18
652.916	8135.21
653.109	8378.92
653.301	8239.66
653.494	8364.59
653.686	8198.7
653.879	8219.18
654.071	8036.91
654.263	8047.15
654.456	7952.95
654.648	8055.34
654.84	8014.38
655.033	7899.7
655.225	7825.97
655.417	7809.59
655.61	7918.13
655.802	7653.94
655.994	7592.5
656.186	7811.64
656.379	7412.28
656.571	7840.31
656.763	7651.89
656.955	7522.87
657.148	7479.86
657.34	7547.45
657.532	7383.61
657.724	7240.25
657.916	7219.77
658.108	7316.03
658.3	7146.05
658.492	7289.4
658.684	7060.03
658.876	7064.13
659.068	7098.94
659.26	7133.76
659.452	7035.46
659.644	6984.26
659.836	6877.76
660.028	6883.91
660.22	6785.6
660.412	6672.96
660.604	6746.69
660.796	6675.01
660.988	6857.28
661.18	6642.25
661.372	6648.39
661.563	6681.16
661.755	6621.77
661.947	6709.83
662.139	6584.9
662.331	6509.13
662.522	6390.35
662.714	6480.46
662.906	6310.47
663.097	6464.07
663.289	6314.57
663.481	6271.56
663.673	6472.26
663.864	6156.88
664.056	6269.51
664.247	6187.6
664.439	6195.79
664.631	6120.01
664.822	6087.25
665.014	6210.12
665.205	6193.74
665.397	5890.64
665.588	5892.69
665.78	5968.46
665.971	5919.31
666.163	5974.61
666.354	5814.87
666.546	6040.14
666.737	5902.93
666.929	5937.74
667.12	5909.07
667.311	5818.96
667.503	5691.99
667.694	5845.59
667.885	5569.11
668.077	5640.79
668.268	5546.58
668.459	5599.83
668.651	5519.96
668.842	5565.01
669.033	5487.19
669.224	5587.54
669.416	5577.3
669.607	5298.78
669.798	5388.89
669.989	5390.94
670.18	5446.23
670.371	5440.09
670.563	5257.82
670.754	5216.86
670.945	5245.53
671.136	5317.21
671.327	5315.16
671.518	5169.76
671.709	5321.31
671.9	5376.6
672.091	5239.39
672.282	5163.61
672.473	5180
672.664	5247.58
672.855	5180
673.046	5272.15
673.237	5073.5
673.428	5149.28
673.619	5003.87
673.809	4913.76
674	4921.95
674.191	4854.37
674.382	5032.54
674.573	4938.34
674.764	5024.35
674.954	5100.12
675.145	4932.19
675.336	4921.95
675.527	4829.79
675.717	4930.14
675.908	4799.07
676.099	4887.14
676.289	4815.46
676.48	4868.7
676.671	4842.08
676.861	4840.03
677.052	4614.76
677.243	4768.35
677.433	4803.17
677.624	4893.28
677.814	4837.98
678.005	4778.59
678.195	4737.63
678.386	4733.54
678.576	4563.56
678.767	4690.53
678.957	4725.35
679.148	4733.54
679.338	4551.27
679.529	4850.27
679.719	4627.04
679.909	4608.61
680.1	4608.61
680.29	4639.33
680.481	4754.02
680.671	4590.18
680.861	4592.23
681.052	4549.22
681.242	4577.89
681.432	4610.66
681.622	4498.02
681.813	4584.04
682.003	4614.76
682.193	4541.03
682.383	4579.94
682.573	4463.21
682.764	4442.73
682.954	4459.11
683.144	4526.69
683.334	4495.97
683.524	4493.93
683.714	4553.32
683.904	4459.11
684.094	4498.02
684.284	4358.76
684.474	4502.12
684.664	4364.9
684.854	4295.27
685.044	4424.3
685.234	4342.38
685.424	4299.37
685.614	4332.14
685.804	4334.18
685.994	4369
686.184	4254.31
686.374	4389.48
686.564	4266.6
686.753	4360.81
686.943	4235.88
687.133	4213.35
687.323	4239.98
687.513	4205.16
687.702	4135.53
687.892	4166.25
688.082	4143.72
688.272	4158.06
688.461	4102.76
688.651	4221.55
688.841	3938.93
689.03	4100.72
689.22	4035.18
689.41	4067.95
689.599	4020.85
689.789	4045.42
689.979	4045.42
690.168	4012.65
690.358	3871.34
690.547	3832.43
690.737	3891.82
690.926	3922.54
691.116	3959.41
691.305	3783.28
691.495	3779.19
691.684	3768.95
691.874	3850.86
692.063	3820.14
692.252	3936.88
692.442	3809.9
692.631	3818.1
692.82	3850.86
693.01	3791.47
693.199	3711.6
693.388	3617.4
693.578	3697.27
693.767	3682.93
693.956	3770.99
694.146	3660.4
694.335	3697.27
694.524	3684.98
694.713	3619.44
694.902	3562.1
695.092	3588.72
695.281	3713.65
695.47	3615.35
695.659	3570.29
695.848	3650.16
696.037	3664.5
696.226	3742.32
696.415	3558
696.604	3594.87
696.793	3723.89
696.982	3570.29
697.171	3598.96
697.36	3512.95
697.549	3588.72
697.738	3455.61
697.927	3582.58
698.116	3562.1
698.305	3603.06
698.494	3644.02
698.683	3601.01
698.872	3441.27
699.061	3433.08
699.25	3500.66
699.438	3594.87
699.627	3517.05
699.816	3494.52
700.005	3553.91
700.193	3439.22
700.382	3582.58
700.571	3451.51
700.76	3463.8
700.948	3502.71
701.137	3539.57
701.326	3549.81
701.514	3580.53
701.703	3478.13
701.892	3467.89
702.08	3453.56
702.269	3537.52
702.457	3451.51
702.646	3510.9
702.834	3437.17
703.023	3422.84
703.212	3412.6
703.4	3512.95
703.589	3369.59
703.777	3482.23
703.965	3437.17
704.154	3390.07
704.342	3521.14
704.531	3732.08
704.719	3357.3
704.907	3377.78
705.096	3512.95
705.284	3560.05
705.472	3488.37
705.661	3549.81
705.849	3545.72
706.037	3455.61
706.226	3461.75
706.414	3308.15
706.602	3476.09
706.79	3359.35
706.979	3402.36
707.167	3439.22
707.355	3385.98
707.543	3398.26
707.731	3490.42
707.919	3457.65
708.107	3439.22
708.296	3336.82
708.484	3418.74
708.672	3420.79
708.86	3590.77
709.048	3383.93
709.236	3474.04
709.424	3455.61
709.612	3414.65
709.8	3404.41
709.988	3457.65
710.176	3607.16
710.364	3414.65
710.551	3455.61
710.739	3324.54
710.927	3340.92
711.115	3498.61
711.303	3340.92
711.491	3422.84
711.679	3404.41
711.866	3517.05
712.054	3494.52
712.242	3449.46
712.43	3435.13
712.617	3416.69
712.805	3394.17
712.993	3488.37
713.181	3402.36
713.368	3611.25
713.556	3488.37
713.744	3453.56
713.931	3414.65
714.119	3529.33
714.306	3394.17
714.494	3535.48
714.682	3312.25
714.869	3433.08
715.057	3504.76
715.244	3351.16
715.432	3322.49
715.619	3336.82
715.807	3322.49
715.994	3457.65
716.182	3424.89
716.369	3408.5
716.556	3492.47
716.744	3404.41
716.931	3414.65
717.119	3566.2
717.306	3474.04
717.493	3437.17
717.681	3453.56
717.868	3445.37
718.055	3471.99
718.242	3269.24
718.43	3459.7
718.617	3398.26
718.804	3408.5
718.991	3422.84
719.179	3445.37
719.366	3433.08
719.553	3230.33
719.74	3392.12
719.927	3297.91
720.114	3232.38
720.301	3392.12
720.488	3277.43
720.676	3308.15
720.863	3340.92
721.05	3312.25
721.237	3562.1
721.424	3324.54
721.611	3351.16
721.798	3357.3
721.985	3373.69
722.172	3365.5
722.358	3332.73
722.545	3336.82
722.732	3324.54
722.919	3308.15
723.106	3326.58
723.293	3115.64
723.48	3414.65
723.667	3281.53
723.853	3236.47
724.04	3265.14
724.227	3273.34
724.414	3199.61
724.6	3299.96
724.787	3291.77
724.974	3254.9
725.161	3175.03
725.347	3259
725.534	3285.62
725.72	3293.82
725.907	3291.77
726.094	3287.67
726.28	3234.43
726.467	3367.54
726.653	3195.51
726.84	3263.1
727.027	3238.52
727.213	3248.76
727.4	3250.81
727.586	3250.81
727.773	3306.1
727.959	3138.17
728.145	3222.14
728.332	3244.67
728.518	3242.62
728.705	3269.24
728.891	3197.56
729.077	3244.67
729.264	3177.08
729.45	3279.48
729.636	3279.48
729.823	3132.03
730.009	3197.56
730.195	3097.21
730.382	3168.89
730.568	3150.46
730.754	3209.85
730.94	3209.85
731.126	3215.99
731.313	3050.11
731.499	3267.19
731.685	3205.75
731.871	3095.16
732.057	3064.44
732.243	3095.16
732.429	3275.38
732.615	3132.03
732.801	3209.85
732.987	3070.59
733.173	3138.17
733.359	3084.92
733.545	3205.75
733.731	3117.69
733.917	3054.2
734.103	3062.4
734.289	3086.97
734.475	3043.96
734.661	3181.18
734.847	3084.92
735.033	3011.2
735.219	3074.68
735.404	3029.63
735.59	3029.63
735.776	2980.48
735.962	2972.29
736.148	3027.58
736.333	3043.96
736.519	2890.37
736.705	2880.13
736.89	2957.95
737.076	3066.49
737.262	2980.48
737.447	3000.96
737.633	2976.38
737.819	2931.33
738.004	2798.21
738.19	2962.05
738.375	2849.41
738.561	2972.29
738.747	2871.93
738.932	2904.7
739.118	2937.47
739.303	2898.56
739.489	2857.6
739.674	2853.5
739.859	2695.81
740.045	2810.5
740.23	2767.49
740.416	2822.78
740.601	2816.64
740.786	2769.54
740.972	2747.01
741.157	2822.78
741.342	2747.01
741.528	2853.5
741.713	2792.06
741.898	2663.04
742.084	2755.2
742.269	2806.4
742.454	2603.65
742.639	2681.47
742.824	2628.23
743.01	2794.11
743.195	2701.95
743.38	2517.64
743.565	2650.75
743.75	2636.42
743.935	2544.26
744.12	2615.94
744.305	2583.17
744.49	2562.69
744.675	2632.32
744.86	2542.21
745.045	2673.28
745.23	2423.43
745.415	2488.96
745.6	2601.6
745.785	2554.5
745.97	2488.96
746.155	2409.09
746.34	2470.53
746.525	2374.28
746.71	2488.96
746.895	2419.33
747.079	2456.2
747.264	2374.28
747.449	2341.51
747.634	2341.51
747.819	2384.52
748.003	2284.17
748.188	2230.92
748.373	2282.12
748.557	2300.55
748.742	2284.17
748.927	2253.45
749.111	2169.48
749.296	2232.97
749.481	2167.43
749.665	2144.91
749.85	2179.72
750.034	2183.82
750.219	2179.72
750.404	2165.39
750.588	1974.92
750.773	2134.67
750.957	2101.9
751.141	2071.18
751.326	2103.95
751.51	2013.84
751.695	1890.96
751.879	1974.92
752.064	2015.88
752.248	1970.83
752.432	2032.27
752.617	1938.06
752.801	1825.42
752.985	1962.64
753.17	1878.67
753.354	1858.19
753.538	1925.77
753.722	1841.81
753.907	1884.81
754.091	1784.46
754.275	1675.92
754.459	1723.02
754.643	1751.7
754.828	1770.13
755.012	1784.46
755.196	1755.79
755.38	1712.78
755.564	1766.03
755.748	1806.99
755.932	1649.3
756.116	1710.74
756.3	1727.12
756.484	1630.87
756.668	1700.5
756.852	1718.93
757.036	1649.3
757.22	1749.65
757.404	1579.67
757.588	1616.53
757.772	1577.62
757.956	1626.77
758.14	1550.99
758.323	1530.52
758.507	1536.66
758.691	1534.61
758.875	1503.89
759.059	1536.66
759.242	1454.74
759.426	1546.9
759.61	1514.13
759.794	1399.45
759.977	1473.17
760.161	1577.62
760.345	1383.06
760.528	1479.32
760.712	1354.39
760.895	1352.34
761.079	1338.01
761.263	1381.01
761.446	1467.03
761.63	1430.16
761.813	1415.83
761.997	1313.43
762.18	1446.55
762.364	1419.92
762.547	1366.68
762.731	1295
762.914	1350.29
763.098	1329.81
763.281	1249.94
763.464	1346.2
763.648	1372.82
763.831	1344.15
764.015	1227.42
764.198	1370.77
764.381	1329.81
764.564	1301.14
764.748	1282.71
764.931	1254.04
765.114	1239.7
765.297	1245.85
765.481	1292.95
765.664	1266.33
765.847	1321.62
766.03	1178.26
766.213	1249.94
766.397	1297.05
766.58	1290.9
766.763	1213.08
766.946	1153.69
767.129	1206.94
767.312	1196.7
767.495	1127.07
767.678	1159.83
767.861	1131.16
768.044	1208.98
768.227	1194.65
768.41	1198.74
768.593	1176.22
768.776	1178.26
768.959	1137.31
769.142	1305.24
769.324	1094.3
769.507	1114.78
769.69	1170.07
769.873	1061.53
770.056	1135.26
770.239	1053.34
770.421	1065.63
770.604	1100.44
770.787	1082.01
770.97	1133.21
771.152	1034.91
771.335	1071.77
771.518	1073.82
771.7	1022.62
771.883	1110.68
772.066	1008.28
772.248	971.42
772.431	1075.87
772.613	1084.06
772.796	1120.92
772.978	1020.57
773.161	1071.77
773.343	932.51
773.526	981.66
773.708	916.12
773.891	938.65
774.073	1014.43
774.256	948.89
774.438	993.95
774.621	983.71
774.803	967.32
774.985	899.74
775.168	940.7
775.35	965.28
775.532	926.36
775.715	885.41
775.897	1006.24
776.079	897.69
776.261	901.79
776.444	905.88
776.626	871.07
776.808	830.11
776.99	836.25
777.173	883.36
777.355	875.17
777.537	889.5
777.719	762.53
777.901	842.4
778.083	813.73
778.265	737.95
778.447	936.6
778.629	801.44
778.811	740
778.993	785.05
779.175	774.81
779.357	875.17
779.539	760.48
779.721	899.74
779.903	768.67
780.085	705.18
780.267	846.49
780.449	801.44
780.631	744.1
780.812	760.48
780.994	742.05
781.176	731.81
781.358	649.89
781.54	721.57
781.721	826.01
781.903	715.42
782.085	645.79
782.267	694.94
782.448	643.74
782.63	694.94
782.812	656.03
782.993	658.08
783.175	703.14
783.357	746.14
783.538	586.4
783.72	651.94
783.901	664.22
784.083	600.74
784.264	608.93
784.446	617.12
784.627	610.98
784.809	610.98
784.99	629.41
785.172	522.91
785.353	610.98
785.535	567.97
785.716	572.07
785.897	588.45
786.079	567.97
786.26	670.37
786.441	598.69
786.623	559.78
786.804	496.29
786.985	567.97
787.167	522.91
787.348	537.25
787.529	580.26
787.71	615.07
787.891	531.11
788.073	488.1
788.254	533.15
788.435	547.49
788.616	496.29
788.797	518.82
788.978	467.62
789.159	498.34
789.34	504.48
789.522	463.52
789.703	473.76
789.884	461.48
790.065	541.35
790.246	527.01
790.427	563.87
790.607	518.82
790.788	502.43
790.969	441
791.15	473.76
791.331	441
791.512	430.76
791.693	397.99
791.874	434.85
792.054	531.11
792.235	477.86
792.416	373.41
792.597	410.28
792.778	453.28
792.958	404.13
793.139	447.14
793.32	385.7
793.5	412.32
793.681	436.9
793.862	373.41
794.042	481.96
794.223	379.56
794.404	381.6
794.584	406.18
794.765	397.99
794.945	441
795.126	381.6
795.306	397.99
795.487	361.13
795.667	273.06
795.848	404.13
796.028	379.56
796.209	469.67
796.389	350.89
796.57	357.03
796.75	367.27
796.93	393.89
797.111	293.54
797.291	332.45
797.471	318.12
797.652	330.41
797.832	295.59
798.012	422.56
798.192	406.18
798.373	318.12
798.553	348.84
798.733	268.97
798.913	344.74
799.093	283.3
799.274	436.9
799.454	367.27
799.634	271.01
799.814	301.73
799.994	318.12
800.174	385.7
800.354	338.6
800.534	318.12
800.714	383.65
800.894	299.69
801.074	305.83
801.254	273.06
801.434	363.17
801.614	352.93
801.794	209.58
801.974	877.21
802.154	299.69
802.334	346.79
802.514	180.9
802.693	400.04
802.873	318.12
803.053	316.07
803.233	301.73
803.413	246.44
803.592	316.07
803.772	215.72
803.952	301.73
804.131	266.92
804.311	207.53
804.491	291.49
804.67	332.45
804.85	223.91
805.03	277.16
805.209	219.82
805.389	324.26
805.568	248.49
805.748	268.97
805.928	268.97
806.107	301.73
806.287	234.15
806.466	275.11
806.646	246.44
806.825	228.01
807.004	248.49
807.184	199.34
807.363	174.76
807.543	299.69
807.722	191.14
807.901	139.94
808.081	309.93
808.26	293.54
808.439	271.01
808.619	217.77
808.798	238.25
808.977	271.01
809.156	309.93
809.336	273.06
809.515	178.86
809.694	133.8
809.873	158.38
810.052	266.92
810.231	240.29
810.411	195.24
810.59	228.01
810.769	154.28
810.948	277.16
811.127	250.53
811.306	213.67
811.485	232.1
811.664	258.73
811.843	193.19
812.022	240.29
812.201	211.62
812.38	150.18
812.559	168.62
812.737	240.29
812.916	240.29
813.095	176.81
813.274	137.9
813.453	246.44
813.632	201.38
813.811	168.62
813.989	137.9
814.168	189.1
814.347	248.49
814.526	240.29
814.704	223.91
814.883	166.57
815.062	96.94
815.24	236.2
815.419	254.63
815.598	92.84
815.776	162.47
815.955	213.67
816.133	172.71
816.312	234.15
816.49	133.8
816.669	236.2
816.847	191.14
817.026	195.24
817.204	180.9
817.383	193.19
817.561	141.99
817.74	248.49
817.918	236.2
818.097	127.66
818.275	148.14
818.453	211.62
818.632	178.86
818.81	219.82
818.988	139.94
819.167	170.66
819.345	191.14
819.523	150.18
819.701	135.85
819.879	123.56
820.058	225.96
820.236	146.09
820.414	215.72
820.592	180.9
820.77	170.66
820.948	178.86
821.127	217.77
821.305	174.76
821.483	92.84
821.661	228.01
821.839	55.98
822.017	141.99
822.195	66.22
822.373	121.51
822.551	207.53
822.729	111.27
822.907	187.05
823.085	129.7
823.262	105.13
823.44	98.99
823.618	133.8
823.796	133.8
823.974	127.66
824.152	70.31
824.329	201.38
824.507	164.52
824.685	195.24
824.863	156.33
825.04	201.38
825.218	156.33
825.396	176.81
825.574	139.94
825.751	195.24
825.929	201.38
826.107	125.61
826.284	137.9
826.462	117.42
826.639	109.22
826.817	119.46
826.994	90.79
827.172	160.42
827.349	166.57
827.527	103.08
827.704	146.09
827.882	121.51
828.059	146.09
828.237	137.9
828.414	105.13
828.591	70.31
828.769	121.51
828.946	117.42
829.124	135.85
829.301	182.95
829.478	92.84
829.655	141.99
829.833	164.52
830.01	29.35
830.187	107.18
830.364	152.23
830.542	96.94
830.719	96.94
830.896	111.27
831.073	103.08
831.25	121.51
831.427	125.61
831.604	96.94
831.782	70.31
831.959	146.09
832.136	121.51
832.313	82.6
832.49	137.9
832.667	129.7
832.844	68.27
833.021	84.65
833.198	160.42
833.374	146.09
833.551	103.08
833.728	43.69
833.905	4.78
834.082	125.61
834.259	76.46
834.436	137.9
834.612	88.75
834.789	84.65
834.966	113.32
835.143	146.09
835.319	51.88
835.496	70.31
835.673	113.32
835.85	115.37
836.026	113.32
836.203	86.7
836.38	92.84
836.556	47.79
836.733	96.94
836.909	125.61
837.086	150.18
837.262	62.12
837.439	31.4
837.616	19.11
837.792	133.8
837.968	144.04
838.145	135.85
838.321	84.65
838.498	72.36
838.674	74.41
838.851	88.75
839.027	111.27
839.203	133.8
839.38	60.07
839.556	72.36
839.732	148.14
839.909	58.03
840.085	133.8
840.261	94.89
840.437	152.23
840.614	105.13
840.79	80.55
840.966	49.83
841.142	72.36
841.318	88.75
841.494	119.46
841.671	64.17
841.847	105.13
842.023	31.4
842.199	195.24
842.375	-3.41
842.551	39.59
842.727	31.4
842.903	133.8
843.079	12.97
843.255	80.55
843.431	80.55
843.607	80.55
843.783	21.16
843.959	55.98
844.134	72.36
844.31	199.34
844.486	21.16
844.662	187.05
844.838	80.55
845.013	88.75
845.189	47.79
845.365	121.51
845.541	29.35
845.716	58.03
845.892	133.8
846.068	19.11
846.244	-1.37
846.419	105.13
846.595	76.46
846.77	80.55
846.946	80.55
847.122	-5.46
847.297	21.16
847.473	94.89
847.648	53.93
847.824	88.75
847.999	47.79
848.175	51.88
848.35	92.84
848.526	82.6
848.701	47.79
848.876	80.55
849.052	90.79
849.227	29.35
849.403	92.84
849.578	88.75
849.753	80.55
849.929	68.27
850.104	-27.99
850.279	86.7
850.454	66.22
850.63	123.56
850.805	-17.75
850.98	82.6
851.155	80.55
851.33	78.51
851.505	78.51
851.681	127.66
851.856	121.51
852.031	51.88
852.206	35.5
852.381	68.27
852.556	111.27
852.731	64.17
852.906	76.46
853.081	113.32
853.256	78.51
853.431	39.59
853.606	76.46
853.781	103.08
853.956	27.31
854.131	76.46
854.305	70.31
854.48	23.21
854.655	107.18
854.83	2.73
855.005	-1.37
855.18	47.79
855.354	19.11
855.529	88.75
855.704	6.83
855.879	-3.41
856.053	94.89
856.228	96.94
856.403	55.98
856.577	111.27
856.752	92.84
856.926	105.13
857.101	43.69
857.276	64.17
857.45	33.45
857.625	53.93
857.799	15.02
857.974	60.07
858.148	23.21
858.323	47.79
858.497	-36.18
858.672	90.79
858.846	-3.41
859.02	41.64
859.195	72.36
859.369	84.65
859.543	4.78
859.718	162.47
859.892	-9.56
860.066	92.84
860.241	12.97
860.415	62.12
860.589	88.75
860.763	43.69
860.938	-21.85
861.112	-9.56
861.286	47.79
861.46	60.07
861.634	33.45
861.808	25.26
861.982	23.21
862.157	70.31
862.331	27.31
862.505	78.51
862.679	21.16
862.853	115.37
863.027	-13.65
863.201	78.51
863.375	66.22
863.549	98.99
863.722	35.5
863.896	78.51
864.07	29.35
864.244	60.07
864.418	-3.41
864.592	-23.89
864.766	43.69
864.939	35.5
865.113	-42.32
865.287	45.74
865.461	23.21
865.634	-11.61
865.808	0.68
865.982	82.6
866.156	64.17
866.329	15.02
866.503	-13.65
866.676	70.31
866.85	64.17
867.024	19.11
867.197	160.42
867.371	35.5
867.544	49.83
867.718	17.07
867.891	84.65
868.065	19.11
868.238	60.07
868.412	25.26
868.585	74.41
868.759	39.59
868.932	15.02
869.105	80.55
869.279	27.31
869.452	47.79
869.625	98.99
869.799	-7.51
869.972	2.73
870.145	-34.13
870.319	-34.13
870.492	31.4
870.665	43.69
870.838	-34.13
871.011	80.55
871.185	-7.51
871.358	88.75
871.531	74.41
871.704	64.17
871.877	90.79
872.05	0.68
872.223	47.79
872.396	109.22
872.569	68.27
872.742	-1.37
872.915	76.46
873.088	-1.37
873.261	39.59
873.434	72.36
873.607	58.03
873.78	105.13
873.953	72.36
874.126	72.36
874.299	78.51
874.471	31.4
874.644	15.02
874.817	78.51
874.99	109.22
875.163	49.83
875.335	-3.41
875.508	-15.7
875.681	109.22
875.853	23.21
876.026	19.11
876.199	15.02
876.371	21.16
876.544	-23.89
876.717	2.73
876.889	88.75
877.062	27.31
877.234	-7.51
877.407	23.21
877.579	-3.41
877.752	70.31
877.924	-50.52
878.097	119.46
878.269	-17.75
878.442	45.74
878.614	105.13
878.786	15.02
878.959	-44.37
879.131	-3.41
879.303	-19.8
879.476	72.36
879.648	74.41
879.82	-5.46
879.993	68.27
880.165	12.97
880.337	74.41
880.509	15.02
880.681	47.79
880.854	29.35
881.026	92.84
881.198	96.94
881.37	12.97
881.542	10.92
881.714	6.83
881.886	72.36
882.058	21.16
882.23	55.98
882.402	127.66
882.574	43.69
882.746	39.59
882.918	68.27
883.09	35.5
883.262	0.68
883.434	45.74
883.606	15.02
883.778	4.78
883.95	119.46
884.122	6.83
884.293	-42.32
884.465	12.97
884.637	55.98
884.809	6.83
884.98	37.55
885.152	51.88
885.324	55.98
885.496	-3.41
885.667	12.97
885.839	31.4
886.011	33.45
886.182	51.88
886.354	39.59
886.525	45.74
886.697	-7.51
886.869	53.93
887.04	-5.46
887.212	2.73
887.383	127.66
887.555	6.83
887.726	-7.51
887.897	21.16
888.069	70.31
888.24	66.22
888.412	2.73
888.583	2.73
888.754	-9.56
888.926	39.59
889.097	86.7
889.268	25.26
889.44	88.75
889.611	4.78
889.782	17.07
889.953	-3.41
890.125	51.88
890.296	-11.61
890.467	-23.89
890.638	-30.04
890.809	-15.7
890.98	-44.37
891.151	64.17
891.323	-7.51
891.494	23.21
891.665	53.93
891.836	6.83
892.007	51.88
892.178	82.6
892.349	0.68
892.52	47.79
892.691	-40.28
892.862	-40.28
893.032	58.03
893.203	39.59
893.374	90.79
893.545	90.79
893.716	43.69
893.887	72.36
894.057	39.59
894.228	-21.85
894.399	68.27
894.57	31.4
894.74	76.46
894.911	-1.37
895.082	60.07
895.253	-3.41
895.423	-17.75
895.594	76.46
895.764	60.07
895.935	35.5
896.106	39.59
896.276	6.83
896.447	62.12
896.617	90.79
896.788	6.83
896.958	-58.71
897.129	86.7
897.299	-13.65
897.47	-5.46
897.64	39.59
897.81	43.69
897.981	88.75
898.151	39.59
898.322	33.45
898.492	19.11
898.662	-17.75
898.832	51.88
899.003	6.83
899.173	19.11
899.343	-9.56
899.513	-1.37
