Data from USB4F104151__115__10-24-57-756.txt Node

Date: Wed Mar 12 10:24:57 EDT 2025
User: louis
Spectrometer: USB4F10415
Trigger mode: 4
Integration Time (sec): 3.000000E-2
Scans to average: 1
Electric dark correction enabled: true
Nonlinearity correction enabled: false
Boxcar width: 0
XAxis mode: Wavelengths
Number of Pixels in Spectrum: 3648
>>>>>Begin Spectral Data<<<<<
178.204	-108.88
178.424	-108.88
178.644	-108.88
178.864	-158.03
179.084	-80.21
179.304	16.04
179.524	16.04
179.744	1.71
179.964	-51.54
180.184	-59.73
180.404	11.95
180.624	42.67
180.844	26.28
181.064	13.99
181.283	-8.53
181.503	-14.68
181.723	5.8
181.943	-51.54
182.163	63.15
182.383	44.71
182.602	50.86
182.822	77.48
183.042	42.67
183.262	61.1
183.482	-6.49
183.701	13.99
183.921	13.99
184.141	-4.44
184.361	112.3
184.58	-31.06
184.8	-35.16
185.02	-35.16
185.239	100.01
185.459	38.57
185.679	13.99
185.898	-31.06
186.118	46.76
186.338	36.52
186.557	50.86
186.777	36.52
186.997	54.95
187.216	20.14
187.436	69.29
187.655	75.43
187.875	-10.58
188.095	-14.68
188.314	89.77
188.534	63.15
188.753	87.72
188.973	95.91
189.192	48.81
189.412	34.47
189.631	57
189.851	46.76
190.07	7.85
190.29	1.71
190.509	18.09
190.729	85.67
190.948	30.38
191.168	116.39
191.387	65.19
191.607	5.8
191.826	79.53
192.045	83.63
192.265	61.1
192.484	36.52
192.704	50.86
192.923	54.95
193.142	89.77
193.362	11.95
193.581	63.15
193.8	26.28
194.02	95.91
194.239	-41.3
194.458	-49.49
194.678	20.14
194.897	59.05
195.116	-33.11
195.335	57
195.555	91.82
195.774	48.81
195.993	87.72
196.212	18.09
196.432	-22.87
196.651	52.91
196.87	11.95
197.089	120.49
197.308	36.52
197.528	-31.06
197.747	-10.58
197.966	20.14
198.185	9.9
198.404	18.09
198.623	20.14
198.842	-4.44
199.062	77.48
199.281	104.11
199.5	61.1
199.719	11.95
199.938	85.67
200.157	22.19
200.376	59.05
200.595	26.28
200.814	61.1
201.033	32.43
201.252	71.34
201.471	61.1
201.69	61.1
201.909	34.47
202.128	36.52
202.347	67.24
202.566	-10.58
202.785	22.19
203.004	-22.87
203.223	61.1
203.442	28.33
203.661	-22.87
203.879	81.58
204.098	93.87
204.317	50.86
204.536	65.19
204.755	-26.96
204.974	38.57
205.193	54.95
205.411	87.72
205.63	5.8
205.849	13.99
206.068	9.9
206.287	83.63
206.505	46.76
206.724	57
206.943	34.47
207.162	18.09
207.381	63.15
207.599	69.29
207.818	102.06
208.037	20.14
208.255	-51.54
208.474	26.28
208.693	1.71
208.911	-10.58
209.13	67.24
209.349	126.63
209.567	69.29
209.786	18.09
210.005	65.19
210.223	36.52
210.442	3.75
210.661	106.15
210.879	59.05
211.098	24.23
211.316	48.81
211.535	18.09
211.753	77.48
211.972	3.75
212.191	26.28
212.409	77.48
212.628	32.43
212.846	-4.44
213.065	34.47
213.283	50.86
213.502	-0.34
213.72	-4.44
213.938	57
214.157	48.81
214.375	79.53
214.594	5.8
214.812	57
215.031	95.91
215.249	26.28
215.467	-29.01
215.686	93.87
215.904	11.95
216.122	30.38
216.341	24.23
216.559	-10.58
216.778	42.67
216.996	48.81
217.214	9.9
217.432	3.75
217.651	40.62
217.869	-20.82
218.087	9.9
218.306	26.28
218.524	87.72
218.742	22.19
218.96	44.71
219.179	-51.54
219.397	5.8
219.615	69.29
219.833	83.63
220.051	22.19
220.27	75.43
220.488	-10.58
220.706	50.86
220.924	44.71
221.142	30.38
221.36	85.67
221.578	52.91
221.796	30.38
222.015	30.38
222.233	22.19
222.451	26.28
222.669	59.05
222.887	67.24
223.105	-20.82
223.323	-8.53
223.541	16.04
223.759	83.63
223.977	63.15
224.195	91.82
224.413	1.71
224.631	38.57
224.849	59.05
225.067	63.15
225.285	28.33
225.503	38.57
225.721	34.47
225.939	67.24
226.157	116.39
226.375	44.71
226.592	-76.12
226.81	9.9
227.028	40.62
227.246	54.95
227.464	22.19
227.682	153.26
227.9	54.95
228.117	11.95
228.335	85.67
228.553	50.86
228.771	26.28
228.989	83.63
229.206	79.53
229.424	46.76
229.642	9.9
229.86	1.71
230.077	118.44
230.295	65.19
230.513	34.47
230.731	93.87
230.948	71.34
231.166	-0.34
231.384	-4.44
231.601	-14.68
231.819	77.48
232.037	50.86
232.254	61.1
232.472	71.34
232.689	18.09
232.907	11.95
233.125	-20.82
233.342	9.9
233.56	-8.53
233.777	-18.77
233.995	22.19
234.213	136.87
234.43	83.63
234.648	-6.49
234.865	38.57
235.083	42.67
235.3	11.95
235.518	87.72
235.735	52.91
235.953	26.28
236.17	38.57
236.388	46.76
236.605	30.38
236.822	110.25
237.04	28.33
237.257	81.58
237.475	38.57
237.692	-16.73
237.909	65.19
238.127	69.29
238.344	13.99
238.562	42.67
238.779	-35.16
238.996	69.29
239.214	18.09
239.431	38.57
239.648	63.15
239.865	118.44
240.083	36.52
240.3	112.3
240.517	71.34
240.735	54.95
240.952	67.24
241.169	54.95
241.386	73.39
241.603	11.95
241.821	73.39
242.038	97.96
242.255	95.91
242.472	-20.82
242.689	112.3
242.907	52.91
243.124	-10.58
243.341	-6.49
243.558	-22.87
243.775	100.01
243.992	13.99
244.209	50.86
244.426	48.81
244.643	44.71
244.86	77.48
245.078	97.96
245.295	7.85
245.512	79.53
245.729	-51.54
245.946	28.33
246.163	28.33
246.38	71.34
246.597	-16.73
246.814	20.14
247.031	38.57
247.248	69.29
247.464	-43.35
247.681	87.72
247.898	44.71
248.115	69.29
248.332	13.99
248.549	54.95
248.766	65.19
248.983	91.82
249.2	-8.53
249.417	136.87
249.633	-26.96
249.85	50.86
250.067	38.57
250.284	116.39
250.501	-24.92
250.717	126.63
250.934	97.96
251.151	38.57
251.368	34.47
251.585	63.15
251.801	30.38
252.018	13.99
252.235	-8.53
252.451	-2.39
252.668	30.38
252.885	65.19
253.102	44.71
253.318	26.28
253.535	16.04
253.752	67.24
253.968	93.87
254.185	34.47
254.401	-20.82
254.618	93.87
254.835	3.75
255.051	69.29
255.268	112.3
255.484	46.76
255.701	38.57
255.917	108.2
256.134	-0.34
256.351	7.85
256.567	-33.11
256.784	-2.39
257	-96.6
257.217	24.23
257.433	63.15
257.65	159.4
257.866	32.43
258.082	-35.16
258.299	63.15
258.515	110.25
258.732	18.09
258.948	-10.58
259.165	83.63
259.381	87.72
259.597	-49.49
259.814	54.95
260.03	38.57
260.246	83.63
260.463	69.29
260.679	1.71
260.895	-2.39
261.112	75.43
261.328	-4.44
261.544	54.95
261.761	26.28
261.977	-2.39
262.193	40.62
262.409	116.39
262.626	34.47
262.842	34.47
263.058	71.34
263.274	46.76
263.49	120.49
263.707	71.34
263.923	97.96
264.139	61.1
264.355	81.58
264.571	13.99
264.787	42.67
265.004	32.43
265.22	124.58
265.436	32.43
265.652	44.71
265.868	-0.34
266.084	16.04
266.3	50.86
266.516	-0.34
266.732	44.71
266.948	-63.83
267.164	18.09
267.38	3.75
267.596	118.44
267.812	46.76
268.028	34.47
268.244	20.14
268.46	83.63
268.676	-31.06
268.892	42.67
269.108	75.43
269.324	65.19
269.54	-8.53
269.756	54.95
269.972	52.91
270.188	26.28
270.403	3.75
270.619	18.09
270.835	-53.59
271.051	87.72
271.267	-45.4
271.483	5.8
271.698	-67.92
271.914	83.63
272.13	57
272.346	-12.63
272.562	89.77
272.777	26.28
272.993	20.14
273.209	46.76
273.425	52.91
273.64	77.48
273.856	87.72
274.072	54.95
274.287	38.57
274.503	95.91
274.719	44.71
274.934	67.24
275.15	-14.68
275.366	16.04
275.581	5.8
275.797	75.43
276.012	63.15
276.228	50.86
276.444	16.04
276.659	50.86
276.875	-18.77
277.09	24.23
277.306	-8.53
277.521	61.1
277.737	91.82
277.952	34.47
278.168	91.82
278.383	13.99
278.599	40.62
278.814	18.09
279.03	-39.25
279.245	65.19
279.461	38.57
279.676	89.77
279.892	-2.39
280.107	18.09
280.322	81.58
280.538	48.81
280.753	-33.11
280.969	73.39
281.184	-43.35
281.399	104.11
281.615	5.8
281.83	71.34
282.045	50.86
282.26	75.43
282.476	30.38
282.691	50.86
282.906	-2.39
283.122	69.29
283.337	132.78
283.552	65.19
283.767	22.19
283.983	50.86
284.198	71.34
284.413	100.01
284.628	-2.39
284.843	46.76
285.058	102.06
285.274	5.8
285.489	-33.11
285.704	83.63
285.919	38.57
286.134	-16.73
286.349	52.91
286.564	-24.92
286.779	104.11
286.995	16.04
287.21	7.85
287.425	81.58
287.64	54.95
287.855	100.01
288.07	69.29
288.285	91.82
288.5	20.14
288.715	79.53
288.93	7.85
289.145	67.24
289.36	59.05
289.575	3.75
289.79	50.86
290.004	24.23
290.219	1.71
290.434	7.85
290.649	20.14
290.864	65.19
291.079	34.47
291.294	67.24
291.509	22.19
291.724	100.01
291.938	77.48
292.153	110.25
292.368	42.67
292.583	75.43
292.798	87.72
293.012	73.39
293.227	73.39
293.442	54.95
293.657	22.19
293.871	79.53
294.086	40.62
294.301	77.48
294.516	13.99
294.73	16.04
294.945	-18.77
295.16	67.24
295.374	85.67
295.589	108.2
295.804	50.86
296.018	11.95
296.233	-8.53
296.447	26.28
296.662	1.71
296.877	118.44
297.091	95.91
297.306	50.86
297.52	50.86
297.735	34.47
297.949	87.72
298.164	112.3
298.378	28.33
298.593	30.38
298.807	79.53
299.022	50.86
299.236	59.05
299.451	75.43
299.665	-16.73
299.88	83.63
300.094	22.19
300.309	73.39
300.523	36.52
300.737	32.43
300.952	114.34
301.166	67.24
301.381	54.95
301.595	3.75
301.809	34.47
302.024	7.85
302.238	16.04
302.452	50.86
302.667	38.57
302.881	149.16
303.095	67.24
303.309	69.29
303.524	11.95
303.738	46.76
303.952	83.63
304.166	59.05
304.381	-29.01
304.595	87.72
304.809	-12.63
305.023	54.95
305.237	30.38
305.452	-0.34
305.666	126.63
305.88	40.62
306.094	71.34
306.308	11.95
306.522	-18.77
306.736	34.47
306.95	79.53
307.164	26.28
307.379	22.19
307.593	91.82
307.807	79.53
308.021	32.43
308.235	79.53
308.449	-0.34
308.663	30.38
308.877	75.43
309.091	54.95
309.305	3.75
309.519	22.19
309.733	91.82
309.947	50.86
310.161	34.47
310.374	79.53
310.588	50.86
310.802	71.34
311.016	57
311.23	59.05
311.444	95.91
311.658	120.49
311.872	59.05
312.085	40.62
312.299	34.47
312.513	26.28
312.727	65.19
312.941	-45.4
313.154	22.19
313.368	22.19
313.582	102.06
313.796	44.71
314.009	93.87
314.223	5.8
314.437	48.81
314.651	75.43
314.864	-16.73
315.078	110.25
315.292	-31.06
315.505	50.86
315.719	63.15
315.933	-12.63
316.146	36.52
316.36	18.09
316.573	52.91
316.787	65.19
317.001	40.62
317.214	159.4
317.428	112.3
317.641	-20.82
317.855	3.75
318.068	-4.44
318.282	48.81
318.495	136.87
318.709	7.85
318.922	18.09
319.136	108.2
319.349	91.82
319.563	71.34
319.776	93.87
319.99	20.14
320.203	54.95
320.417	69.29
320.63	-14.68
320.843	59.05
321.057	57
321.27	73.39
321.483	28.33
321.697	112.3
321.91	59.05
322.124	18.09
322.337	57
322.55	95.91
322.763	61.1
322.977	75.43
323.19	-20.82
323.403	50.86
323.617	57
323.83	59.05
324.043	54.95
324.256	46.76
324.469	-10.58
324.683	46.76
324.896	87.72
325.109	59.05
325.322	-72.02
325.535	44.71
325.748	54.95
325.962	50.86
326.175	71.34
326.388	69.29
326.601	69.29
326.814	-43.35
327.027	38.57
327.24	85.67
327.453	52.91
327.666	63.15
327.879	83.63
328.092	71.34
328.305	71.34
328.518	46.76
328.731	11.95
328.944	67.24
329.157	11.95
329.37	42.67
329.583	69.29
329.796	24.23
330.009	30.38
330.222	114.34
330.435	-2.39
330.648	-8.53
330.861	50.86
331.073	83.63
331.286	97.96
331.499	73.39
331.712	-29.01
331.925	52.91
332.138	40.62
332.35	89.77
332.563	54.95
332.776	24.23
332.989	50.86
333.202	61.1
333.414	11.95
333.627	85.67
333.84	83.63
334.053	65.19
334.265	22.19
334.478	110.25
334.691	50.86
334.903	52.91
335.116	63.15
335.329	-2.39
335.541	48.81
335.754	169.64
335.966	26.28
336.179	28.33
336.392	13.99
336.604	153.26
336.817	-37.2
337.029	46.76
337.242	93.87
337.454	34.47
337.667	26.28
337.88	95.91
338.092	79.53
338.305	42.67
338.517	106.15
338.729	52.91
338.942	83.63
339.154	40.62
339.367	42.67
339.579	44.71
339.792	26.28
340.004	1.71
340.217	9.9
340.429	38.57
340.641	34.47
340.854	24.23
341.066	83.63
341.278	79.53
341.491	100.01
341.703	108.2
341.915	91.82
342.128	61.1
342.34	22.19
342.552	67.24
342.764	42.67
342.977	38.57
343.189	22.19
343.401	128.68
343.613	57
343.826	42.67
344.038	42.67
344.25	100.01
344.462	30.38
344.674	77.48
344.886	81.58
345.099	79.53
345.311	89.77
345.523	1.71
345.735	-26.96
345.947	71.34
346.159	95.91
346.371	85.67
346.583	44.71
346.795	63.15
347.007	-0.34
347.219	63.15
347.431	28.33
347.643	36.52
347.855	54.95
348.067	138.92
348.279	-10.58
348.491	30.38
348.703	112.3
348.915	-31.06
349.127	36.52
349.339	20.14
349.551	93.87
349.763	63.15
349.975	75.43
350.187	5.8
350.399	-2.39
350.61	136.87
350.822	46.76
351.034	95.91
351.246	38.57
351.458	34.47
351.669	145.06
351.881	87.72
352.093	34.47
352.305	91.82
352.517	85.67
352.728	112.3
352.94	54.95
353.152	79.53
353.363	36.52
353.575	59.05
353.787	52.91
353.999	20.14
354.21	18.09
354.422	22.19
354.633	79.53
354.845	61.1
355.057	5.8
355.268	63.15
355.48	91.82
355.692	20.14
355.903	83.63
356.115	-18.77
356.326	26.28
356.538	134.82
356.749	59.05
356.961	59.05
357.172	38.57
357.384	36.52
357.595	85.67
357.807	69.29
358.018	87.72
358.23	57
358.441	30.38
358.653	59.05
358.864	106.15
359.075	79.53
359.287	32.43
359.498	42.67
359.709	26.28
359.921	75.43
360.132	112.3
360.344	120.49
360.555	42.67
360.766	48.81
360.977	28.33
361.189	75.43
361.4	54.95
361.611	173.74
361.823	93.87
362.034	87.72
362.245	85.67
362.456	40.62
362.667	38.57
362.879	192.17
363.09	11.95
363.301	95.91
363.512	65.19
363.723	85.67
363.935	44.71
364.146	75.43
364.357	73.39
364.568	40.62
364.779	20.14
364.99	75.43
365.201	83.63
365.412	91.82
365.623	57
365.834	77.48
366.045	13.99
366.256	93.87
366.467	138.92
366.678	75.43
366.889	7.85
367.1	59.05
367.311	85.67
367.522	22.19
367.733	81.58
367.944	52.91
368.155	22.19
368.366	93.87
368.577	83.63
368.788	30.38
368.999	1.71
369.209	18.09
369.42	102.06
369.631	161.45
369.842	102.06
370.053	81.58
370.264	134.82
370.474	75.43
370.685	46.76
370.896	110.25
371.107	143.02
371.317	69.29
371.528	36.52
371.739	124.58
371.95	93.87
372.16	65.19
372.371	28.33
372.582	32.43
372.792	81.58
373.003	30.38
373.214	5.8
373.424	110.25
373.635	-45.4
373.846	52.91
374.056	116.39
374.267	79.53
374.477	118.44
374.688	50.86
374.898	63.15
375.109	75.43
375.319	44.71
375.53	54.95
375.74	100.01
375.951	30.38
376.161	77.48
376.372	124.58
376.582	54.95
376.793	75.43
377.003	13.99
377.214	71.34
377.424	73.39
377.635	57
377.845	16.04
378.055	22.19
378.266	40.62
378.476	38.57
378.686	100.01
378.897	-16.73
379.107	65.19
379.317	97.96
379.528	30.38
379.738	100.01
379.948	9.9
380.158	28.33
380.369	126.63
380.579	118.44
380.789	126.63
380.999	44.71
381.21	20.14
381.42	36.52
381.63	-12.63
381.84	128.68
382.05	16.04
382.261	83.63
382.471	36.52
382.681	57
382.891	3.75
383.101	22.19
383.311	26.28
383.521	20.14
383.731	93.87
383.941	95.91
384.151	106.15
384.361	30.38
384.571	112.3
384.781	77.48
384.991	65.19
385.201	149.16
385.411	75.43
385.621	106.15
385.831	81.58
386.041	28.33
386.251	75.43
386.461	69.29
386.671	81.58
386.881	-10.58
387.091	71.34
387.301	85.67
387.511	73.39
387.72	104.11
387.93	36.52
388.14	11.95
388.35	116.39
388.56	54.95
388.769	118.44
388.979	34.47
389.189	77.48
389.399	1.71
389.609	59.05
389.818	71.34
390.028	18.09
390.238	149.16
390.447	-37.2
390.657	110.25
390.867	93.87
391.076	63.15
391.286	30.38
391.496	93.87
391.705	38.57
391.915	108.2
392.125	63.15
392.334	79.53
392.544	71.34
392.753	102.06
392.963	36.52
393.172	161.45
393.382	32.43
393.591	145.06
393.801	46.76
394.01	136.87
394.22	124.58
394.429	26.28
394.639	69.29
394.848	140.97
395.058	18.09
395.267	112.3
395.477	116.39
395.686	167.59
395.895	130.73
396.105	140.97
396.314	110.25
396.524	102.06
396.733	46.76
396.942	145.06
397.152	145.06
397.361	149.16
397.57	69.29
397.78	173.74
397.989	95.91
398.198	171.69
398.407	132.78
398.617	169.64
398.826	102.06
399.035	126.63
399.244	210.6
399.453	147.11
399.663	165.54
399.872	95.91
400.081	40.62
400.29	126.63
400.499	128.68
400.708	104.11
400.917	87.72
401.127	128.68
401.336	140.97
401.545	128.68
401.754	110.25
401.963	120.49
402.172	79.53
402.381	126.63
402.59	79.53
402.799	183.98
403.008	116.39
403.217	214.7
403.426	161.45
403.635	136.87
403.844	134.82
404.053	136.87
404.262	169.64
404.471	177.83
404.68	124.58
404.888	202.41
405.097	235.18
405.306	212.65
405.515	206.5
405.724	194.22
405.933	272.04
406.142	226.98
406.35	239.27
406.559	163.5
406.768	229.03
406.977	226.98
407.185	327.33
407.394	229.03
407.603	245.41
407.812	253.61
408.02	276.13
408.229	274.09
408.438	341.67
408.646	276.13
408.855	304.81
409.064	263.85
409.272	261.8
409.481	327.33
409.69	333.48
409.898	288.42
410.107	339.62
410.315	388.77
410.524	319.14
410.733	376.48
410.941	341.67
411.15	382.63
411.358	452.26
411.567	454.31
411.775	452.26
411.984	415.4
412.192	476.84
412.401	552.61
412.609	548.51
412.818	558.75
413.026	489.12
413.234	501.41
413.443	632.48
413.651	566.95
413.86	616.1
414.068	607.91
414.276	655.01
414.485	648.86
414.693	765.6
414.901	878.24
415.11	792.22
415.318	814.75
415.526	851.61
415.734	898.72
415.943	886.43
416.151	994.97
416.359	890.53
416.567	1013.4
416.776	904.86
416.984	1056.41
417.192	1181.34
417.4	1175.19
417.608	1111.71
417.817	1140.38
418.025	1142.43
418.233	1351.32
418.441	1224.34
418.649	1271.45
418.857	1443.48
419.065	1496.72
419.273	1404.57
419.481	1476.24
419.689	1660.56
419.897	1691.28
420.105	1719.95
420.313	1765.01
420.521	1828.49
420.729	1793.68
420.937	1928.85
421.145	1902.22
421.353	2021
421.561	2115.21
421.769	2131.59
421.977	2348.68
422.185	2262.66
422.393	2365.06
422.601	2565.76
422.809	2666.11
423.017	2567.81
423.224	2680.45
423.432	2774.66
423.64	2799.23
423.848	3010.17
424.056	2991.74
424.263	3081.85
424.471	3147.39
424.679	3292.79
424.887	3407.48
425.094	3516.02
425.302	3501.69
425.51	3712.63
425.718	3776.11
425.925	3825.26
426.133	4056.68
426.341	4122.22
426.548	4232.81
426.756	4413.03
426.964	4554.34
427.171	4572.77
427.379	4752.99
427.586	4861.54
427.794	5006.94
428.001	5224.03
428.209	5535.32
428.417	5537.37
428.624	5641.81
428.832	5611.09
429.039	5676.63
429.247	5748.31
429.454	6344.27
429.662	6702.66
429.869	6194.76
430.076	6581.83
430.284	6622.79
430.491	7005.76
430.699	7214.65
430.906	7157.31
431.114	7304.76
431.321	7384.63
431.528	7704.12
431.736	8234.54
431.943	8496.68
432.15	8234.54
432.358	8388.14
432.565	9008.67
432.772	8865.32
432.979	9328.16
433.187	9381.4
433.394	9416.22
433.601	10083.86
433.808	10108.43
434.016	10061.33
434.223	10503.69
434.43	11275.77
434.637	10860.04
434.844	11617.79
435.052	11787.77
435.259	11791.86
435.466	12031.48
435.673	11730.42
435.88	12455.4
436.087	13037.03
436.294	13252.06
436.501	12908.01
436.708	13336.03
436.915	13573.6
437.122	14274
437.329	14050.77
437.537	14480.85
437.743	14755.27
437.95	14685.64
438.157	15410.62
438.364	16008.63
438.571	15945.14
438.778	15922.62
438.985	17714.59
439.192	16825.77
439.399	17376.67
439.606	17272.23
439.813	17915.29
440.02	19150.21
440.227	18607.5
440.433	18484.62
440.64	19006.86
440.847	19092.87
441.054	19383.68
441.261	20563.31
441.467	20651.38
441.674	21032.3
441.881	21292.39
442.088	21665.12
442.294	21431.65
442.501	21986.65
442.708	22371.67
442.914	23506.24
443.121	24327.48
443.328	23450.95
443.534	25093.42
443.741	24530.23
443.948	24077.63
444.154	25912.61
444.361	25429.29
444.568	26144.03
444.774	25996.57
444.981	26045.73
445.187	26889.49
445.394	27907.33
445.6	27596.04
445.807	30289.12
446.013	28880.11
446.22	29218.03
446.426	30348.51
446.633	30940.37
446.839	31638.73
447.046	30338.27
447.252	32296.13
447.459	32492.73
447.665	32199.87
447.871	34073.76
448.078	34843.8
448.284	33514.67
448.491	34380.96
448.697	35751.05
448.903	36146.31
449.11	36066.44
449.316	35484.81
449.522	36154.5
449.728	36768.89
449.935	37270.64
450.141	37127.28
450.347	38196.32
450.553	36543.61
450.76	37174.39
450.966	38495.33
451.172	38061.16
451.378	38724.7
451.584	38253.67
451.791	39087.19
451.997	38749.28
452.203	39230.55
452.409	39328.85
452.615	39251.03
452.821	37377.14
453.027	37078.13
453.233	39066.71
453.44	37657.71
453.646	38141.03
453.852	38519.9
454.058	38829.15
454.264	37514.35
454.47	38214.76
454.676	36850.81
454.882	38411.36
455.088	35335.31
455.294	36111.49
455.5	36398.21
455.705	36699.26
455.911	34946.2
456.117	34546.84
456.323	34020.52
456.529	31997.12
456.735	33328.3
456.941	32494.78
457.147	32185.54
457.352	31104.21
457.558	30694.61
457.764	30751.96
457.97	30379.23
458.176	29517.03
458.381	29265.13
458.587	28105.98
458.793	28163.32
458.999	26662.16
459.204	28554.49
459.41	27845.89
459.616	25933.09
459.821	25718.05
460.027	25687.33
460.233	24958.25
460.438	24030.52
460.644	24618.29
460.85	23272.78
461.055	23039.31
461.261	22805.84
461.466	20958.57
461.672	20467.06
461.878	21976.41
462.083	20424.05
462.289	20125.05
462.494	19930.49
462.7	19164.55
462.905	18570.64
463.111	19387.78
463.316	19332.48
463.522	18894.22
463.727	18881.93
463.932	18908.55
464.138	18681.23
464.343	18701.71
464.549	18216.34
464.754	18873.74
464.959	18808.2
465.165	18294.16
465.37	17737.12
465.575	17288.61
465.781	17890.71
465.986	18103.7
466.191	17450.4
466.397	16973.22
466.602	16344.5
466.807	16770.47
467.012	16864.68
467.218	16836.01
467.423	16475.57
467.628	16750
467.833	17405.35
468.038	16944.55
468.244	16307.63
468.449	17087.91
468.654	16518.57
468.859	16184.76
469.064	16324.02
469.269	15500.73
469.474	15603.13
469.679	15775.16
469.885	15519.17
470.09	15717.82
470.295	15564.22
470.5	15218.11
470.705	15271.36
470.91	15226.31
471.115	14677.45
471.32	15209.92
471.525	15128
471.73	14841.29
471.935	14503.37
472.139	14075.35
472.344	14046.68
472.549	14378.45
472.754	13860.31
472.959	13583.84
473.164	13278.69
473.369	13233.63
473.574	13829.59
473.778	13704.67
473.983	13735.39
474.188	13170.15
474.393	12914.15
474.598	12932.58
474.802	12785.13
475.007	12559.85
475.212	12678.63
475.417	12094.96
475.621	12432.88
475.826	12539.37
476.031	11857.4
476.235	11732.47
476.44	12111.35
476.645	11795.96
476.849	11568.63
477.054	11576.83
477.259	11441.66
477.463	11462.14
477.668	11310.59
477.872	11191.81
478.077	11105.79
478.282	10771.97
478.486	10688.01
478.691	10827.27
478.895	10759.69
479.1	10694.15
479.304	10765.83
479.509	10335.76
479.713	10710.54
479.918	10221.07
480.122	10061.33
480.326	10354.19
480.531	10292.75
480.735	10290.7
480.94	9905.68
481.144	10522.12
481.348	9838.1
481.553	10106.38
481.757	9872.92
481.961	9874.96
482.166	9954.83
482.37	10053.14
482.574	9926.16
482.778	9977.36
482.983	10010.13
483.187	9811.48
483.391	9975.31
483.595	9973.27
483.8	9956.88
484.004	9852.44
484.208	9934.36
484.412	9930.26
484.616	10122.77
484.821	9905.68
485.025	9848.34
485.229	10151.44
485.433	9827.86
485.637	10053.14
485.841	9700.89
486.045	9815.57
486.249	9922.07
486.453	9844.24
486.657	9893.4
486.861	9899.54
487.065	9823.76
487.269	9936.4
487.473	9823.76
487.677	10057.23
487.881	9819.67
488.085	9895.44
488.289	10044.95
488.493	9911.83
488.697	9971.22
488.901	9924.12
489.105	9854.48
489.309	9973.27
489.512	10073.62
489.716	10169.87
489.92	10032.66
490.124	9860.63
490.328	10268.17
490.531	10139.15
490.735	10094.1
490.939	10120.72
491.143	10128.91
491.346	10083.86
491.55	10376.72
491.754	10382.86
491.958	10479.11
492.161	10294.8
492.365	10358.28
492.569	10401.29
492.772	10542.6
492.976	10497.55
493.18	10679.82
493.383	10778.12
493.587	10653.19
493.79	10917.38
493.994	10886.66
494.197	11152.9
494.401	11005.44
494.605	11136.51
494.808	11142.66
495.012	11372.03
495.215	11388.41
495.419	11578.87
495.622	11363.84
495.825	11732.47
496.029	11664.89
496.232	11869.69
496.436	11838.97
496.639	12094.96
496.843	11808.25
497.046	12322.29
497.249	12318.19
497.453	12414.45
497.656	12680.68
497.859	12535.28
498.063	12940.77
498.266	13338.08
498.469	12891.62
498.673	12961.25
498.876	13321.7
499.079	13575.64
499.282	13430.24
499.485	14136.79
499.689	13778.39
499.892	13954.52
500.095	14030.29
500.298	14585.29
500.501	14151.12
500.705	14869.96
500.908	14874.06
501.111	14996.93
501.314	15046.09
501.517	15506.88
501.72	15566.27
501.923	15789.5
502.126	15777.21
502.329	16041.4
502.532	16332.21
502.735	16500.14
502.938	16580.01
503.141	16600.49
503.344	16913.83
503.547	16881.07
503.75	17356.19
503.953	17296.8
504.156	17685.92
504.359	17804.7
504.562	17993.11
504.765	18464.14
504.968	18591.12
505.17	18642.32
505.373	18660.75
505.576	19250.56
505.779	19598.72
505.982	19252.61
506.185	19801.47
506.387	19697.02
506.59	19938.68
506.793	20645.23
506.996	20546.93
507.198	21007.72
507.401	20968.81
507.604	21097.83
507.807	21595.49
508.009	21751.13
508.212	22003.03
508.415	22082.91
508.617	22644.05
508.82	22689.1
509.022	22334.81
509.225	23227.72
509.428	23326.02
509.63	23528.77
509.833	23514.44
510.035	24335.67
510.238	24094.01
510.44	24171.83
510.643	24608.05
510.845	24745.27
511.048	24929.58
511.25	25363.75
511.453	25543.97
511.655	26436.89
511.858	25998.62
512.06	26336.54
512.262	26856.72
512.465	26963.22
512.667	27038.99
512.87	27440.39
513.072	27608.33
513.274	27886.85
513.477	28316.92
513.679	28486.9
513.881	28630.26
514.084	29031.66
514.286	28849.39
514.488	29492.46
514.69	30465.24
514.893	30411.99
515.095	30581.98
515.297	30848.21
515.499	30807.25
515.701	31417.55
515.904	31726.79
516.106	31950.02
516.308	32400.57
516.51	32318.65
516.712	32433.34
516.914	33223.86
517.116	33844.39
517.318	33598.63
517.52	33981.6
517.722	34237.6
517.925	34856.09
518.127	34915.48
518.329	35568.78
518.531	35232.91
518.733	35753.1
518.935	36201.6
519.136	35826.82
519.338	36596.86
519.54	37297.27
519.742	37477.49
519.944	37641.32
520.146	38181.99
520.348	38206.56
520.55	38392.93
520.752	38919.26
520.954	39466.06
521.155	39421.01
521.357	39595.09
521.559	39760.97
521.761	40617.02
521.963	40660.03
522.164	40776.76
522.366	40848.44
522.568	41376.82
522.77	42052.65
522.971	42210.34
523.173	42236.97
523.375	42667.04
523.576	42640.42
523.778	42886.17
523.98	42908.7
524.181	43406.36
524.383	43781.13
524.584	44737.54
524.786	44577.79
524.988	44235.78
525.189	44432.39
525.391	45261.82
525.592	45343.73
525.794	45218.81
525.995	45585.4
526.197	45583.35
526.398	46013.42
526.6	46119.91
526.801	47008.73
527.003	46562.28
527.204	46722.02
527.406	47221.72
527.607	47219.67
527.808	47602.64
528.01	46803.94
528.211	47012.83
528.412	48448.46
528.614	47975.37
528.815	48178.12
529.016	48774.08
529.218	48176.08
529.419	48479.17
529.62	48796.61
529.822	48483.27
530.023	48806.85
530.224	48970.69
530.425	48872.38
530.626	48569.29
530.828	48292.81
531.029	49386.43
531.23	48595.91
531.431	49367.99
531.632	49243.07
531.833	49505.21
532.035	49390.52
532.236	49707.96
532.437	50170.8
532.638	49576.89
532.839	50267.05
533.04	50373.55
533.241	49552.31
533.442	50461.61
533.643	50643.88
533.844	50187.18
534.045	50697.13
534.246	49990.58
534.447	50248.62
534.648	49906.61
534.849	50535.34
535.05	49982.38
535.251	50133.93
535.451	50310.06
535.652	50633.64
535.853	50265
536.054	50645.93
536.255	50682.79
536.456	49994.67
536.657	51078.05
536.857	49884.08
537.058	50693.03
537.259	50830.24
537.46	50658.21
537.66	50547.62
537.861	50715.56
538.062	50518.95
538.263	50987.94
538.463	50150.32
538.664	50412.46
538.865	50580.39
539.065	50879.39
539.266	50461.61
539.466	51194.78
539.667	50172.85
539.868	51006.37
540.068	50365.35
540.269	50650.02
540.469	50664.36
540.67	50217.9
540.87	50346.92
541.071	50396.07
541.271	50420.65
541.472	50199.47
541.672	50322.35
541.873	50727.84
542.073	50062.25
542.274	50903.97
542.474	50004.91
542.675	49939.38
542.875	50740.13
543.075	50428.84
543.276	50178.99
543.476	51239.84
543.676	50348.97
543.877	50777
544.077	50625.45
544.277	50641.83
544.478	50336.68
544.678	50570.15
544.878	50527.14
545.078	50244.52
545.279	49961.9
545.479	50281.39
545.679	50357.16
545.879	50074.54
546.079	50322.35
546.28	50305.96
546.48	49740.72
546.68	50486.18
546.88	50477.99
547.08	50342.83
547.28	50191.28
547.48	49826.74
547.68	50391.98
547.88	49912.75
548.081	50576.29
548.281	50133.93
548.481	49720.24
548.681	50090.93
548.881	50052.01
549.081	50439.08
549.28	50088.88
549.48	50195.37
549.68	50258.86
549.88	50502.57
550.08	49931.18
550.28	50340.78
550.48	50002.86
550.68	50719.65
550.88	50084.78
551.08	49900.47
551.279	50052.01
551.479	49810.35
551.679	49922.99
551.879	49920.94
552.079	49822.64
552.278	49619.89
552.478	49937.33
552.678	49906.61
552.878	50240.43
553.077	49779.64
553.277	49478.58
553.477	50160.56
553.676	48987.07
553.876	50092.97
554.076	49619.89
554.275	49327.03
554.475	48856
554.674	49521.59
554.874	49525.69
555.074	48675.78
555.273	49367.99
555.473	49871.79
555.672	49077.18
555.872	49429.43
556.071	49556.41
556.271	49554.36
556.47	48999.36
556.67	48776.13
556.869	48731.08
557.068	49064.89
557.268	48518.09
557.467	48890.82
557.667	48667.59
557.866	48890.82
558.065	48649.16
558.265	48356.3
558.464	48475.08
558.663	48896.96
558.863	47971.28
559.062	49191.87
559.261	47922.13
559.461	48925.63
559.66	47676.37
559.859	48526.28
560.058	47891.41
560.258	47819.73
560.457	47608.79
560.656	47938.51
560.855	47827.92
561.054	47702.99
561.253	47334.36
561.453	47336.41
561.652	47827.92
561.851	48032.72
562.05	47176.67
562.249	47313.88
562.448	47281.11
562.647	46965.73
562.846	47092.7
563.045	46963.68
563.244	46500.84
563.443	47209.43
563.642	45779.95
563.841	46752.74
564.04	46212.07
564.239	46791.65
564.438	45442.04
564.637	46169.07
564.836	46259.18
565.035	45763.57
565.234	45751.28
565.432	45495.28
565.631	45663.22
565.83	46124.01
566.029	45222.9
566.228	45399.03
566.427	45450.23
566.625	45034.49
566.824	44563.46
567.023	45497.33
567.222	44106.76
567.42	44819.45
567.619	44721.15
567.818	44350.47
568.016	44297.22
568.215	44760.06
568.414	43973.64
568.612	44915.71
568.811	44106.76
569.01	44368.9
569.208	43557.91
569.407	43852.81
569.605	43097.11
569.804	43883.53
570.002	43246.61
570.201	43265.05
570.4	42708
570.598	42832.93
570.797	42662.94
570.995	42894.36
571.193	42427.43
571.392	42984.47
571.59	42046.51
571.789	42533.92
571.987	41804.84
572.186	41864.24
572.384	41686.06
572.582	42153
572.781	41976.87
572.979	41225.27
573.177	41413.68
573.376	41677.87
573.574	41229.37
573.772	41450.55
573.971	40819.77
574.169	40795.2
574.367	40813.63
574.565	41133.11
574.763	40592.45
574.962	40492.1
575.16	40234.05
575.358	40563.78
575.556	40135.75
575.754	40571.97
575.952	39527.5
576.151	39918.67
576.349	39203.92
576.547	39427.15
576.745	39771.21
576.943	39765.07
577.141	39349.33
577.339	39154.77
577.537	39109.72
577.735	38964.31
577.933	38616.16
578.131	38917.21
578.329	38655.07
578.527	38149.22
578.725	38501.47
578.923	38605.92
579.121	38321.25
579.319	38130.79
579.516	38188.13
579.714	38251.62
579.912	38026.34
580.11	37837.93
580.308	37491.82
580.506	37622.89
580.704	36691.07
580.901	37436.53
581.099	37368.94
581.297	37192.82
581.495	36981.88
581.692	37268.59
581.89	36879.48
582.088	36891.77
582.285	36318.34
582.483	36752.51
582.681	36539.52
582.878	36594.81
583.076	35908.74
583.274	36240.51
583.471	36074.63
583.669	35992.71
583.866	35773.58
584.064	36072.58
584.262	35441.81
584.459	36109.44
584.657	35626.12
584.854	35626.12
585.052	34471.07
585.249	35576.97
585.447	35406.99
585.644	35017.88
585.841	34811.03
586.039	35222.67
586.236	34565.28
586.434	34407.58
586.631	34716.82
586.828	34438.3
587.026	34481.31
587.223	34450.59
587.42	33959.08
587.618	34458.78
587.815	33445.04
588.012	33637.55
588.21	33643.69
588.407	33678.5
588.604	33713.32
588.801	33182.9
588.999	33326.25
589.196	33422.51
589.393	33129.65
589.59	33197.23
589.787	33019.06
589.984	32818.36
590.182	32341.18
590.379	32840.89
590.576	32343.23
590.773	32824.5
590.97	32419
591.167	32480.44
591.364	31982.79
591.561	32419
591.758	31696.07
591.955	31956.16
592.152	32079.04
592.349	31624.39
592.546	31767.75
592.743	31395.02
592.94	31096.02
593.137	31333.58
593.334	30997.71
593.531	30999.76
593.727	31220.94
593.924	30889.17
594.121	30428.38
594.318	30940.37
594.515	30711
594.712	30790.87
594.908	30215.39
595.105	30543.06
595.302	30584.02
595.499	30504.15
595.696	29859.04
595.892	30137.57
596.089	29758.69
596.286	30319.84
596.482	29846.76
596.679	29682.92
596.876	29736.16
597.072	29492.46
597.269	29734.12
597.466	28806.39
597.662	29142.25
597.859	29226.22
598.055	29353.19
598.252	29058.29
598.448	28839.15
598.645	28777.72
598.841	28605.69
599.038	28622.07
599.234	28634.36
599.431	28288.25
599.627	28171.52
599.824	28345.59
600.02	27944.19
600.217	28316.92
600.413	27876.61
600.609	27759.88
600.806	27833.6
601.002	27968.77
601.198	27684.1
601.395	27251.98
601.591	27626.76
601.787	27696.39
601.984	27315.47
602.18	27448.58
602.376	27297.03
602.572	27237.64
602.769	27192.59
602.965	26633.49
603.161	27358.47
603.357	26725.65
603.553	26594.58
603.75	26453.27
603.946	26303.77
604.142	26658.07
604.338	25931.04
604.534	26518.81
604.73	25732.39
604.926	26209.56
605.122	26299.67
605.318	25900.32
605.514	25836.83
605.71	25722.15
605.906	25816.35
606.102	25783.59
606.298	25722.15
606.494	25320.74
606.69	25718.05
606.886	25529.64
607.082	24796.46
607.278	25199.91
607.474	24784.18
607.67	25490.73
607.866	25034.03
608.062	25701.67
608.257	24786.22
608.453	25093.42
608.649	24845.62
608.845	24874.29
609.041	24644.91
609.236	24837.42
609.432	24151.35
609.628	24687.92
609.824	24519.99
610.019	24208.7
610.215	24421.69
610.411	24405.3
610.606	24077.63
610.802	24005.95
610.998	24452.41
611.193	24292.66
611.389	24067.39
611.584	23909.69
611.78	23790.91
611.976	23813.44
612.171	23803.2
612.367	23805.25
612.562	23633.22
612.758	23254.34
612.953	23254.34
613.149	23516.48
613.344	23422.28
613.539	23844.16
613.735	23254.34
613.93	23534.92
614.126	23166.28
614.321	23649.6
614.517	23153.99
614.712	23170.38
614.907	22908.24
615.103	23192.9
615.298	22979.92
615.493	23299.4
615.688	22631.76
615.884	23348.55
616.079	22699.34
616.274	23016.78
616.47	22691.15
616.665	22785.36
616.86	22486.36
617.055	22654.29
617.25	22265.17
617.445	22725.97
617.641	22062.43
617.836	22517.08
618.031	21880.16
618.226	22316.37
618.421	21982.56
618.616	22529.36
618.811	21747.04
619.006	22226.26
619.201	21390.69
619.396	21818.72
619.591	21269.86
619.786	21581.15
619.981	21194.09
620.176	21613.92
620.371	21321.06
620.566	21501.28
620.761	21196.14
620.956	21364.07
621.151	20831.6
621.346	20678
621.541	20747.63
621.735	20798.83
621.93	20761.97
622.125	20432.24
622.32	20385.14
622.515	20348.28
622.709	20170.1
622.904	20098.42
623.099	19783.04
623.294	19975.55
623.488	19654.01
623.683	20004.22
623.878	19359.11
624.072	19598.72
624.267	19328.39
624.462	19146.12
624.656	19393.92
624.851	19219.85
625.046	18857.35
625.24	18908.55
625.435	18587.02
625.629	18453.91
625.824	18519.44
626.018	18580.88
626.213	18134.42
626.407	18498.96
626.602	18040.22
626.796	18392.47
626.991	18171.29
627.185	17960.34
627.38	17804.7
627.574	17909.15
627.768	17575.33
627.963	17513.89
628.157	17458.59
628.352	17360.29
628.546	17323.43
628.74	17024.42
628.935	17210.79
629.129	17028.52
629.323	16768.43
629.517	16815.53
629.712	16819.63
629.906	16565.68
630.1	16192.95
630.294	16324.02
630.489	16199.09
630.683	16532.91
630.877	16285.11
631.071	15949.24
631.265	16104.88
631.459	16012.73
631.653	15891.9
631.848	15605.18
632.042	15691.2
632.236	15740.35
632.43	15633.85
632.624	15586.75
632.818	15490.49
633.012	15070.66
633.206	15111.62
633.4	15216.07
633.594	15046.09
633.788	14708.17
633.982	14808.52
634.176	14896.58
634.369	14646.73
634.563	14546.38
634.757	14562.76
634.951	14390.74
635.145	14486.99
635.339	14372.3
635.533	14251.47
635.726	14296.53
635.92	13876.69
636.114	13958.61
636.308	13821.4
636.501	13909.46
636.695	13911.51
636.889	13719
637.083	13520.35
637.276	13606.36
637.47	13553.12
637.664	13241.82
637.857	13344.22
638.051	13477.34
638.244	13221.34
638.438	13059.56
638.632	13237.73
638.825	12914.15
639.019	12936.68
639.212	12854.76
639.406	12813.8
639.599	12795.37
639.793	12893.67
639.986	12619.24
640.18	12533.23
640.373	12318.19
640.567	12068.34
640.76	12275.18
640.954	12342.77
641.147	12162.55
641.34	12174.83
641.534	12103.15
641.727	12072.43
641.92	11830.77
642.114	11886.07
642.307	11695.61
642.5	11892.21
642.694	11304.45
642.887	11527.67
643.08	11486.72
643.273	11367.93
643.467	11339.26
643.66	11230.72
643.853	11279.87
644.046	11195.9
644.239	11421.18
644.432	11204.1
644.626	11187.71
644.819	10731.01
645.012	10841.61
645.205	10774.02
645.398	10622.47
645.591	10737.16
645.784	10700.3
645.977	10540.55
646.17	10307.09
646.363	10364.43
646.556	10417.68
646.749	10266.13
646.942	10360.33
647.135	10278.41
647.328	10085.9
647.521	10020.37
647.714	9999.89
647.907	10135.06
648.099	9940.5
648.292	9958.93
648.485	9809.43
648.678	9885.2
648.871	9868.82
649.064	9606.68
649.256	9791
649.449	9598.49
649.642	9479.71
649.835	9500.19
650.027	9348.64
650.22	9496.09
650.413	9025.06
650.605	9319.96
650.798	9023.01
650.991	9043.49
651.183	9342.49
651.376	9061.92
651.568	9217.57
651.761	8719.91
651.954	8783.4
652.146	8928.8
652.339	9016.87
652.531	8728.1
652.724	8779.3
652.916	8627.75
653.109	8681
653.301	8560.17
653.494	8662.57
653.686	8605.22
653.879	8560.17
654.071	8404.52
654.263	8289.84
654.456	8599.08
654.648	8394.28
654.84	8259.12
655.033	8070.7
655.225	8248.88
655.417	8181.29
655.61	8042.03
655.802	8097.33
655.994	8105.52
656.186	7960.11
656.379	7743.03
656.571	7972.4
656.763	7833.14
656.955	7792.18
657.148	7849.52
657.34	7810.61
657.532	7910.96
657.724	7640.63
657.916	7624.25
658.108	7466.55
658.3	7448.12
658.492	7546.42
658.684	7312.96
658.876	7542.33
659.068	7292.48
659.26	7294.52
659.452	7433.79
659.644	7308.86
659.836	7255.61
660.028	7335.48
660.22	7048.77
660.412	7099.97
660.604	7190.08
660.796	7095.87
660.988	7050.82
661.18	7149.12
661.372	6897.22
661.563	6895.17
661.755	6946.37
661.947	6735.43
662.139	6692.42
662.331	6843.97
662.522	6680.13
662.714	6755.91
662.906	6618.69
663.097	6628.93
663.289	6483.53
663.481	6633.03
663.673	6579.78
663.864	6475.34
664.056	6522.44
664.247	6555.21
664.439	6379.08
664.631	6495.82
664.822	6215.24
665.014	6268.49
665.205	6379.08
665.397	6233.68
665.588	6194.76
665.78	5969.49
665.971	6309.45
666.163	6272.59
666.354	6217.29
666.546	6379.08
666.737	6094.41
666.929	5953.1
667.12	5899.86
667.311	5858.9
667.503	5838.42
667.694	5871.19
667.885	5862.99
668.077	6020.69
668.268	5817.94
668.459	6010.45
668.651	5795.41
668.842	5850.71
669.033	5756.5
669.224	5607
669.416	5912.14
669.607	5768.79
669.798	5584.47
669.989	5772.88
670.18	5502.55
670.371	5594.71
670.563	5555.8
670.754	5547.61
670.945	5592.66
671.136	5690.96
671.327	5488.21
671.518	5383.77
671.709	5461.59
671.9	5621.33
672.091	5518.93
672.282	5473.88
672.473	5418.58
672.664	5424.73
672.855	5406.3
673.046	5297.75
673.237	5307.99
673.428	5242.46
673.619	5381.72
673.809	5338.71
674	5330.52
674.191	5191.26
674.382	5221.98
674.573	5234.27
674.764	5164.64
674.954	5289.56
675.145	5160.54
675.336	5371.48
675.527	5277.27
675.717	5242.46
675.908	5154.4
676.099	5047.9
676.289	5115.48
676.48	5035.61
676.671	5076.57
676.861	5125.72
677.052	5011.04
677.243	5062.24
677.433	4951.65
677.624	4943.46
677.814	5144.16
678.005	5121.63
678.195	5105.24
678.386	5092.96
678.576	5008.99
678.767	5125.72
678.957	5011.04
679.148	5181.02
679.338	5219.93
679.529	5002.85
679.719	5006.94
679.909	5181.02
680.1	5019.23
680.29	5074.53
680.481	5021.28
680.671	5060.19
680.861	5068.38
681.052	4976.22
681.242	4916.83
681.432	5060.19
681.622	4906.59
681.813	4939.36
682.003	4900.45
682.193	4937.31
682.383	4965.98
682.573	4851.3
682.764	4890.21
682.954	5088.86
683.144	5068.38
683.334	4738.66
683.524	4951.65
683.714	4875.87
683.904	4824.67
684.094	4865.63
684.284	4830.82
684.474	4800.1
684.664	4839.01
684.854	4906.59
685.044	4896.35
685.234	4787.81
685.424	4847.2
685.614	4771.43
685.804	4834.91
685.994	4687.46
686.184	4732.51
686.374	4740.71
686.564	4652.64
686.753	4773.47
686.943	4716.13
687.133	4613.73
687.323	4638.31
687.513	4777.57
687.702	4626.02
687.892	4509.29
688.082	4621.92
688.272	4587.11
688.461	4544.1
688.651	4449.89
688.841	4492.9
689.03	4474.47
689.22	4333.16
689.41	4519.53
689.599	4544.1
689.789	4443.75
689.979	4423.27
690.168	4419.18
690.358	4410.98
690.547	4425.32
690.737	4372.07
690.926	4351.59
691.116	4335.21
691.305	4324.97
691.495	4257.39
691.684	4144.75
691.874	4228.71
692.063	4376.17
692.252	4241
692.442	4281.96
692.631	4073.07
692.82	4187.75
693.01	4136.56
693.199	4126.32
693.388	4142.7
693.578	4144.75
693.767	4040.3
693.956	3907.18
694.146	4116.08
694.335	3982.96
694.524	4083.31
694.713	4066.92
694.902	4132.46
695.092	4005.49
695.281	4042.35
695.47	4011.63
695.659	3995.25
695.848	4032.11
696.037	4075.12
696.226	3972.72
696.415	3915.37
696.604	3954.29
696.793	3784.3
696.982	4007.53
697.171	3909.23
697.36	3888.75
697.549	3905.14
697.738	4089.45
697.927	3829.36
698.116	3995.25
698.305	3913.33
698.494	3907.18
698.683	4040.3
698.872	3944.05
699.061	3974.77
699.25	3786.35
699.438	3952.24
699.627	3827.31
699.816	3858.03
700.005	3901.04
700.193	4003.44
700.382	3880.56
700.571	3855.98
700.76	4005.49
700.948	3831.41
701.137	3819.12
701.326	3839.6
701.514	3794.54
701.703	3718.77
701.892	3696.24
702.08	3872.37
702.269	3919.47
702.457	3880.56
702.646	3915.37
702.834	3739.25
703.023	3901.04
703.212	3741.3
703.4	4009.58
703.589	3763.83
703.777	3800.69
703.965	3751.54
704.154	3929.71
704.342	3720.82
704.531	3774.07
704.719	3626.61
704.907	3829.36
705.096	3815.02
705.284	3767.92
705.472	3712.63
705.661	3827.31
705.849	3817.07
706.037	3905.14
706.226	3802.74
706.414	3812.98
706.602	3788.4
706.79	3866.22
706.979	3757.68
707.167	3913.33
707.355	3804.78
707.543	3827.31
707.731	3769.97
707.919	3749.49
708.107	3853.94
708.296	3718.77
708.484	3796.59
708.672	3702.39
708.86	3851.89
709.048	3837.55
709.236	3849.84
709.424	3776.11
709.612	3780.21
709.8	3798.64
709.988	3888.75
710.176	3733.11
710.364	3956.33
710.551	3735.15
710.739	3774.07
710.927	3870.32
711.115	3804.78
711.303	3884.66
711.491	3774.07
711.679	3741.3
711.866	3794.54
712.054	3944.05
712.242	3747.44
712.43	3937.9
712.617	3860.08
712.805	3700.34
712.993	3847.79
713.181	3716.72
713.368	3657.33
713.556	3819.12
713.744	3690.1
713.931	3716.72
714.119	3845.74
714.306	3860.08
714.494	3696.24
714.682	3726.96
714.869	3681.91
715.057	3741.3
715.244	3645.04
715.432	3808.88
715.619	3726.96
715.807	3681.91
715.994	3733.11
716.182	3796.59
716.369	3731.06
716.556	3776.11
716.744	3796.59
716.931	3636.85
717.119	3872.37
717.306	3794.54
717.493	3913.33
717.681	3640.95
717.868	3786.35
718.055	3751.54
718.242	3690.1
718.43	3774.07
718.617	3708.53
718.804	3755.63
718.991	3772.02
719.179	3665.52
719.366	3704.43
719.553	3702.39
719.74	3665.52
719.927	3694.19
720.114	3460.73
720.301	3630.71
720.488	3614.32
720.676	3620.47
720.863	3708.53
721.05	3794.54
721.237	3602.04
721.424	3669.62
721.611	3647.09
721.798	3602.04
721.985	3706.48
722.172	3579.51
722.358	3595.89
722.545	3577.46
722.732	3679.86
722.919	3716.72
723.106	3663.47
723.293	3651.19
723.48	3569.27
723.667	3651.19
723.853	3612.28
724.04	3671.67
724.227	3694.19
724.414	3634.8
724.6	3559.03
724.787	3571.32
724.974	3608.18
725.161	3528.31
725.347	3536.5
725.534	3569.27
725.72	3571.32
725.907	3536.5
726.094	3671.67
726.28	3550.84
726.467	3532.4
726.653	3581.56
726.84	3483.25
727.027	3731.06
727.213	3483.25
727.4	3497.59
727.586	3493.49
727.773	3387
727.959	3485.3
728.145	3585.65
728.332	3565.17
728.518	3378.81
728.705	3520.12
728.891	3520.12
729.077	3503.73
729.264	3470.97
729.45	3571.32
729.636	3387
729.823	3518.07
730.009	3323.51
730.195	3487.35
730.382	3434.1
730.568	3485.3
730.754	3520.12
730.94	3452.53
731.126	3532.4
731.313	3413.62
731.499	3548.79
731.685	3434.1
731.871	3401.33
732.057	3393.14
732.243	3491.45
732.429	3331.7
732.615	3489.4
732.801	3348.09
732.987	3454.58
733.173	3352.18
733.359	3403.38
733.545	3272.31
733.731	3397.24
733.917	3364.47
734.103	3501.69
734.289	3290.74
734.475	3321.46
734.661	3364.47
734.847	3470.97
735.033	3397.24
735.219	3337.85
735.404	3356.28
735.59	3255.93
735.776	3278.46
735.962	3364.47
736.148	3278.46
736.333	3337.85
736.519	3278.46
736.705	3327.61
736.89	3217.02
737.076	3307.13
737.262	3286.65
737.447	3239.55
737.633	3305.08
737.819	3202.68
738.004	3317.37
738.19	3247.74
738.375	3155.58
738.561	3249.79
738.747	3300.98
738.932	3133.05
739.118	3235.45
739.303	3159.67
739.489	3042.94
739.674	3092.09
739.859	3057.28
740.045	3143.29
740.23	3102.33
740.416	3034.75
740.601	3176.06
740.786	2979.45
740.972	2993.79
741.157	2944.64
741.342	2975.36
741.528	3004.03
741.713	3026.56
741.898	2961.02
742.084	3014.27
742.269	2934.4
742.454	2950.78
742.639	3008.12
742.824	2866.81
743.01	2922.11
743.195	3047.04
743.38	2940.54
743.565	2784.9
743.75	2946.69
743.935	2848.38
744.12	2993.79
744.305	2813.57
744.49	2791.04
744.675	2915.97
744.86	2965.12
745.045	2872.96
745.23	2821.76
745.415	2709.12
745.6	2784.9
745.785	2647.68
745.97	2731.65
746.155	2702.98
746.34	2733.7
746.525	2647.68
746.71	2780.8
746.895	2469.51
747.079	2600.58
747.264	2563.72
747.449	2608.77
747.634	2592.39
747.819	2584.2
748.003	2545.28
748.188	2496.13
748.373	2504.32
748.557	2373.25
748.742	2506.37
748.927	2434.69
749.111	2465.41
749.296	2397.83
749.481	2356.87
749.665	2379.4
749.85	2455.17
750.034	2326.15
750.219	2262.66
750.404	2311.82
750.588	2363.01
750.773	2365.06
750.957	2289.29
751.141	2205.32
751.326	2291.34
751.51	2262.66
751.695	2127.5
751.879	2262.66
752.064	2291.34
752.248	2057.87
752.432	2135.69
752.617	2164.36
752.801	2125.45
752.985	2078.35
753.17	2184.84
753.354	2102.92
753.538	2117.26
753.722	1978
753.907	1963.66
754.091	2008.72
754.275	1912.46
754.459	2066.06
754.643	1834.64
754.828	1926.8
755.012	1988.24
755.196	1980.04
755.38	1928.85
755.564	1891.98
755.748	1744.53
755.932	1969.8
756.116	1887.89
756.3	1808.02
756.484	1754.77
756.668	1863.31
756.852	1777.3
757.036	1773.2
757.22	1691.28
757.404	1697.42
757.588	1711.76
757.772	1713.81
757.956	1758.86
758.14	1783.44
758.323	1713.81
758.507	1689.23
758.691	1660.56
758.875	1697.42
759.059	1678.99
759.242	1691.28
759.426	1691.28
759.61	1635.99
759.794	1615.51
759.977	1615.51
760.161	1640.08
760.345	1549.97
760.528	1597.07
760.712	1627.79
760.895	1670.8
761.079	1607.31
761.263	1476.24
761.446	1531.54
761.63	1523.35
761.813	1576.59
761.997	1492.63
762.18	1466
762.364	1519.25
762.547	1506.96
762.731	1447.57
762.914	1402.52
763.098	1388.18
763.281	1470.1
763.464	1373.85
763.648	1480.34
763.831	1443.48
764.015	1398.42
764.198	1439.38
764.381	1373.85
764.564	1382.04
764.748	1386.13
764.931	1382.04
765.114	1412.76
765.297	1406.61
765.481	1244.82
765.664	1371.8
765.847	1373.85
766.03	1365.65
766.213	1283.74
766.397	1199.77
766.58	1398.42
766.763	1322.65
766.946	1242.78
767.129	1377.94
767.312	1177.24
767.495	1250.97
767.678	1191.58
767.861	1234.58
768.044	1244.82
768.227	1300.12
768.41	1218.2
768.593	1238.68
768.776	1291.93
768.959	1169.05
769.142	1287.83
769.324	1267.35
769.507	1300.12
769.69	1169.05
769.873	1171.1
770.056	1214.1
770.239	1085.08
770.421	1240.73
770.604	1183.38
770.787	1226.39
770.97	1050.27
771.152	1111.71
771.335	1175.19
771.518	1193.62
771.7	1216.15
771.883	1160.86
772.066	1109.66
772.248	1132.19
772.431	1060.51
772.613	1140.38
772.796	1109.66
772.978	1085.08
773.161	1136.28
773.343	1052.31
773.526	1068.7
773.708	1021.6
773.891	999.07
774.073	1023.64
774.256	980.64
774.438	1025.69
774.621	1023.64
774.803	988.83
774.985	1009.31
775.168	1035.93
775.35	1040.03
775.532	974.49
775.715	949.92
775.897	1005.21
776.079	1015.45
776.261	929.44
776.444	929.44
776.626	945.82
776.808	841.37
776.99	796.32
777.173	976.54
777.355	874.14
777.537	1015.45
777.719	900.76
777.901	870.05
778.083	876.19
778.265	913.05
778.447	863.9
778.629	763.55
778.811	861.85
778.993	878.24
779.175	841.37
779.357	839.33
779.539	855.71
779.721	837.28
779.903	794.27
780.085	757.41
780.267	732.83
780.449	747.17
780.631	824.99
780.812	796.32
780.994	814.75
781.176	831.13
781.358	755.36
781.54	745.12
781.721	784.03
781.903	777.89
782.085	667.3
782.267	771.74
782.448	685.73
782.63	691.87
782.812	683.68
782.993	683.68
783.175	669.34
783.357	673.44
783.538	667.3
783.72	669.34
783.901	689.82
784.083	685.73
784.264	605.86
784.446	571.04
784.627	663.2
784.809	609.95
784.99	595.62
785.172	681.63
785.353	593.57
785.535	632.48
785.716	571.04
785.897	566.95
786.079	568.99
786.26	568.99
786.441	587.43
786.623	575.14
786.804	614.05
786.985	589.47
787.167	554.66
787.348	485.03
787.529	566.95
787.71	566.95
787.891	587.43
788.073	497.32
788.254	519.84
788.435	513.7
788.616	577.19
788.797	573.09
788.978	472.74
789.159	517.79
789.34	511.65
789.522	476.84
789.703	507.55
789.884	534.18
790.065	433.83
790.246	487.08
790.427	552.61
790.607	536.23
790.788	542.37
790.969	507.55
791.15	476.84
791.331	591.52
791.512	472.74
791.693	417.44
791.874	472.74
792.054	550.56
792.235	487.08
792.416	468.64
792.597	521.89
792.778	394.92
792.958	460.45
793.139	392.87
793.32	448.16
793.5	390.82
793.681	433.83
793.862	448.16
794.042	396.96
794.223	388.77
794.404	448.16
794.584	382.63
794.765	444.07
794.945	386.72
795.126	415.4
795.306	476.84
795.487	401.06
795.667	370.34
795.848	382.63
796.028	388.77
796.209	464.55
796.389	386.72
796.57	431.78
796.75	364.2
796.93	446.12
797.111	372.39
797.291	337.57
797.471	450.21
797.652	358.05
797.832	290.47
798.012	401.06
798.192	345.77
798.373	333.48
798.553	454.31
798.733	331.43
798.913	300.71
799.093	308.9
799.274	403.11
799.454	372.39
799.634	409.25
799.814	327.33
799.994	362.15
800.174	343.72
800.354	372.39
800.534	272.04
800.714	399.01
800.894	321.19
801.074	255.65
801.254	331.43
801.434	333.48
801.614	296.61
801.794	380.58
801.974	738.98
802.154	251.56
802.334	317.09
802.514	298.66
802.693	296.61
802.873	276.13
803.053	319.14
803.233	290.47
803.413	323.24
803.592	300.71
803.772	284.33
803.952	321.19
804.131	313
804.311	306.85
804.491	300.71
804.67	351.91
804.85	196.26
805.03	302.76
805.209	360.1
805.389	257.7
805.568	286.37
805.748	288.42
805.928	274.09
806.107	278.18
806.287	323.24
806.466	290.47
806.646	280.23
806.825	288.42
807.004	306.85
807.184	265.89
807.363	300.71
807.543	243.37
807.722	269.99
807.901	286.37
808.081	323.24
808.26	249.51
808.439	272.04
808.619	249.51
808.798	267.94
808.977	249.51
809.156	243.37
809.336	253.61
809.515	296.61
809.694	214.7
809.873	255.65
810.052	282.28
810.231	265.89
810.411	243.37
810.59	181.93
810.769	272.04
810.948	198.31
811.127	233.13
811.306	220.84
811.485	169.64
811.664	292.52
811.843	210.6
812.022	145.06
812.201	214.7
812.38	237.22
812.559	198.31
812.737	257.7
812.916	188.07
813.095	245.41
813.274	241.32
813.453	179.88
813.632	216.74
813.811	224.94
813.989	165.54
814.168	224.94
814.347	190.12
814.526	243.37
814.704	206.5
814.883	222.89
815.062	243.37
815.24	241.32
815.419	165.54
815.598	194.22
815.776	186.02
815.955	247.46
816.133	73.39
816.312	206.5
816.49	202.41
816.669	157.35
816.847	157.35
817.026	190.12
817.204	167.59
817.383	208.55
817.561	165.54
817.74	196.26
817.918	179.88
818.097	159.4
818.275	165.54
818.453	202.41
818.632	231.08
818.81	253.61
818.988	175.78
819.167	202.41
819.345	100.01
819.523	173.74
819.701	179.88
819.879	177.83
820.058	100.01
820.236	218.79
820.414	179.88
820.592	192.17
820.77	85.67
820.948	42.67
821.127	177.83
821.305	231.08
821.483	138.92
821.661	124.58
821.839	226.98
822.017	163.5
822.195	89.77
822.373	157.35
822.551	134.82
822.729	190.12
822.907	167.59
823.085	196.26
823.262	175.78
823.44	194.22
823.618	173.74
823.796	245.41
823.974	112.3
824.152	118.44
824.329	145.06
824.507	165.54
824.685	134.82
824.863	89.77
825.04	173.74
825.218	161.45
825.396	69.29
825.574	104.11
825.751	186.02
825.929	147.11
826.107	151.21
826.284	126.63
826.462	130.73
826.639	208.55
826.817	143.02
826.994	126.63
827.172	100.01
827.349	112.3
827.527	126.63
827.704	151.21
827.882	110.25
828.059	108.2
828.237	100.01
828.414	140.97
828.591	77.48
828.769	130.73
828.946	161.45
829.124	104.11
829.301	134.82
829.478	179.88
829.655	136.87
829.833	57
830.01	112.3
830.187	77.48
830.364	165.54
830.542	126.63
830.719	149.16
830.896	167.59
831.073	136.87
831.25	218.79
831.427	171.69
831.604	67.24
831.782	134.82
831.959	108.2
832.136	171.69
832.313	161.45
832.49	140.97
832.667	87.72
832.844	120.49
833.021	173.74
833.198	95.91
833.374	104.11
833.551	120.49
833.728	114.34
833.905	100.01
834.082	73.39
834.259	81.58
834.436	112.3
834.612	44.71
834.789	126.63
834.966	95.91
835.143	126.63
835.319	128.68
835.496	102.06
835.673	71.34
835.85	108.2
836.026	132.78
836.203	116.39
836.38	77.48
836.556	57
836.733	75.43
836.909	54.95
837.086	63.15
837.262	71.34
837.439	165.54
837.616	7.85
837.792	73.39
837.968	102.06
838.145	77.48
838.321	143.02
838.498	110.25
838.674	116.39
838.851	85.67
839.027	87.72
839.203	110.25
839.38	93.87
839.556	61.1
839.732	102.06
839.909	97.96
840.085	95.91
840.261	28.33
840.437	61.1
840.614	169.64
840.79	75.43
840.966	130.73
841.142	79.53
841.318	59.05
841.494	132.78
841.671	157.35
841.847	112.3
842.023	87.72
842.199	46.76
842.375	69.29
842.551	52.91
842.727	104.11
842.903	20.14
843.079	52.91
843.255	169.64
843.431	155.3
843.607	54.95
843.783	28.33
843.959	83.63
844.134	93.87
844.31	73.39
844.486	85.67
844.662	46.76
844.838	104.11
845.013	-20.82
845.189	118.44
845.365	26.28
845.541	108.2
845.716	122.54
845.892	46.76
846.068	44.71
846.244	81.58
846.419	110.25
846.595	42.67
846.77	38.57
846.946	108.2
847.122	67.24
847.297	132.78
847.473	124.58
847.648	89.77
847.824	110.25
847.999	-10.58
848.175	52.91
848.35	-2.39
848.526	75.43
848.701	67.24
848.876	63.15
849.052	59.05
849.227	57
849.403	81.58
849.578	93.87
849.753	151.21
849.929	-35.16
850.104	30.38
850.279	20.14
850.454	-10.58
850.63	5.8
850.805	-6.49
850.98	71.34
851.155	79.53
851.33	140.97
851.505	75.43
851.681	48.81
851.856	63.15
852.031	46.76
852.206	38.57
852.381	108.2
852.556	81.58
852.731	40.62
852.906	81.58
853.081	87.72
853.256	59.05
853.431	140.97
853.606	-47.44
853.781	26.28
853.956	18.09
854.131	40.62
854.305	-6.49
854.48	44.71
854.655	34.47
854.83	18.09
855.005	59.05
855.18	50.86
855.354	-10.58
855.529	65.19
855.704	110.25
855.879	16.04
856.053	18.09
856.228	50.86
856.403	22.19
856.577	42.67
856.752	40.62
856.926	102.06
857.101	69.29
857.276	110.25
857.45	102.06
857.625	114.34
857.799	20.14
857.974	42.67
858.148	-14.68
858.323	112.3
858.497	13.99
858.672	63.15
858.846	-10.58
859.02	79.53
859.195	46.76
859.369	140.97
859.543	38.57
859.718	32.43
859.892	97.96
860.066	69.29
860.241	-24.92
860.415	40.62
860.589	54.95
860.763	81.58
860.938	34.47
861.112	83.63
861.286	63.15
861.46	50.86
861.634	-14.68
861.808	75.43
861.982	44.71
862.157	11.95
862.331	-0.34
862.505	40.62
862.679	11.95
862.853	46.76
863.027	63.15
863.201	126.63
863.375	44.71
863.549	-35.16
863.722	48.81
863.896	42.67
864.07	30.38
864.244	32.43
864.418	91.82
864.592	108.2
864.766	11.95
864.939	3.75
865.113	7.85
865.287	89.77
865.461	11.95
865.634	30.38
865.808	11.95
865.982	16.04
866.156	46.76
866.329	42.67
866.503	36.52
866.676	54.95
866.85	54.95
867.024	79.53
867.197	36.52
867.371	5.8
867.544	36.52
867.718	75.43
867.891	102.06
868.065	3.75
868.238	-10.58
868.412	40.62
868.585	34.47
868.759	13.99
868.932	61.1
869.105	-31.06
869.279	-4.44
869.452	18.09
869.625	26.28
869.799	-14.68
869.972	24.23
870.145	5.8
870.319	24.23
870.492	20.14
870.665	30.38
870.838	-35.16
871.011	-69.97
871.185	46.76
871.358	3.75
871.531	18.09
871.704	-12.63
871.877	16.04
872.05	-39.25
872.223	-41.3
872.396	-14.68
872.569	26.28
872.742	-8.53
872.915	54.95
873.088	1.71
873.261	-6.49
873.434	38.57
873.607	-35.16
873.78	30.38
873.953	-2.39
874.126	28.33
874.299	13.99
874.471	-10.58
874.644	18.09
874.817	5.8
874.99	81.58
875.163	-2.39
875.335	63.15
875.508	-18.77
875.681	100.01
875.853	30.38
876.026	22.19
876.199	-31.06
876.371	44.71
876.544	-45.4
876.717	79.53
876.889	28.33
877.062	5.8
877.234	7.85
877.407	-0.34
877.579	1.71
877.752	16.04
877.924	-26.96
878.097	59.05
878.269	59.05
878.442	48.81
878.614	16.04
878.786	34.47
878.959	-29.01
879.131	69.29
879.303	61.1
879.476	69.29
879.648	34.47
879.82	22.19
879.993	-39.25
880.165	46.76
880.337	9.9
880.509	50.86
880.681	-26.96
880.854	13.99
881.026	50.86
881.198	143.02
881.37	36.52
881.542	102.06
881.714	-20.82
881.886	50.86
882.058	-22.87
882.23	-4.44
882.402	5.8
882.574	11.95
882.746	9.9
882.918	59.05
883.09	-2.39
883.262	54.95
883.434	48.81
883.606	-35.16
883.778	1.71
883.95	59.05
884.122	22.19
884.293	18.09
884.465	-12.63
884.637	22.19
884.809	-47.44
884.98	67.24
885.152	46.76
885.324	46.76
885.496	28.33
885.667	44.71
885.839	34.47
886.011	7.85
886.182	48.81
886.354	57
886.525	-14.68
886.697	36.52
886.869	11.95
887.04	-55.64
887.212	67.24
887.383	63.15
887.555	9.9
887.726	-59.73
887.897	-61.78
888.069	73.39
888.24	34.47
888.412	-29.01
888.583	38.57
888.754	-18.77
888.926	-2.39
889.097	44.71
889.268	1.71
889.44	3.75
889.611	-0.34
889.782	1.71
889.953	38.57
890.125	59.05
890.296	-92.5
890.467	16.04
890.638	-12.63
890.809	28.33
890.98	11.95
891.151	5.8
891.323	67.24
891.494	-26.96
891.665	46.76
891.836	-84.31
892.007	34.47
892.178	13.99
892.349	34.47
892.52	-22.87
892.691	-22.87
892.862	36.52
893.032	-117.08
893.203	-18.77
893.374	83.63
893.545	50.86
893.716	-55.64
893.887	28.33
894.057	22.19
894.228	63.15
894.399	-16.73
894.57	46.76
894.74	1.71
894.911	104.11
895.082	-29.01
895.253	-0.34
895.423	-10.58
895.594	40.62
895.764	59.05
895.935	13.99
896.106	50.86
896.276	-2.39
896.447	-29.01
896.617	7.85
896.788	-43.35
896.958	-59.73
897.129	-14.68
897.299	-0.34
897.47	87.72
897.64	91.82
897.81	26.28
897.981	89.77
898.151	13.99
898.322	16.04
898.492	46.76
898.662	-31.06
898.832	63.15
899.003	52.91
899.173	-43.35
899.343	34.47
899.513	-2.39
