Data from USB4F104151__69__10-24-03-582.txt Node

Date: Wed Mar 12 10:24:03 EDT 2025
User: louis
Spectrometer: USB4F10415
Trigger mode: 4
Integration Time (sec): 3.000000E-2
Scans to average: 1
Electric dark correction enabled: true
Nonlinearity correction enabled: false
Boxcar width: 0
XAxis mode: Wavelengths
Number of Pixels in Spectrum: 3648
>>>>>Begin Spectral Data<<<<<
178.204	-90.62
178.424	-90.62
178.644	-90.62
178.864	-80.38
179.084	-127.49
179.304	-2.56
179.524	40.45
179.744	-23.04
179.964	32.26
180.184	-45.57
180.404	-37.38
180.624	24.06
180.844	-43.52
181.064	-57.86
181.283	81.41
181.503	-14.85
181.723	46.59
181.943	-70.14
182.163	36.35
182.383	22.02
182.602	24.06
182.822	34.3
183.042	48.64
183.262	17.92
183.482	-2.56
183.701	-31.23
183.921	-0.51
184.141	71.17
184.361	124.41
184.58	34.3
184.8	-16.9
185.02	-27.14
185.239	56.83
185.459	15.87
185.679	-16.9
185.898	28.16
186.118	65.02
186.338	79.36
186.557	87.55
186.777	1.54
186.997	11.78
187.216	34.3
187.436	122.37
187.655	75.26
187.875	97.79
188.095	50.69
188.314	-8.7
188.534	22.02
188.753	34.3
188.973	-74.24
189.192	89.6
189.412	-59.9
189.631	46.59
189.851	65.02
190.07	46.59
190.29	-6.66
190.509	-4.61
190.729	79.36
190.948	-39.42
191.168	48.64
191.387	-10.75
191.607	7.68
191.826	15.87
192.045	-0.51
192.265	65.02
192.484	-4.61
192.704	5.63
192.923	-39.42
193.142	42.5
193.362	-29.18
193.581	28.16
193.8	48.64
194.02	5.63
194.239	54.78
194.458	38.4
194.678	9.73
194.897	11.78
195.116	5.63
195.335	79.36
195.555	-12.8
195.774	83.45
195.993	128.51
196.212	28.16
196.432	-25.09
196.651	42.5
196.87	54.78
197.089	42.5
197.308	17.92
197.528	83.45
197.747	-20.99
197.966	73.21
198.185	122.37
198.404	-8.7
198.623	-6.66
198.842	19.97
199.062	67.07
199.281	-4.61
199.5	28.16
199.719	89.6
199.938	153.09
200.157	103.93
200.376	50.69
200.595	34.3
200.814	144.89
201.033	28.16
201.252	50.69
201.471	-10.75
201.69	67.07
201.909	17.92
202.128	85.5
202.347	-0.51
202.566	69.12
202.785	40.45
203.004	38.4
203.223	122.37
203.442	26.11
203.661	85.5
203.879	22.02
204.098	54.78
204.317	28.16
204.536	38.4
204.755	7.68
204.974	58.88
205.193	48.64
205.411	67.07
205.63	77.31
205.849	44.54
206.068	97.79
206.287	19.97
206.505	32.26
206.724	62.98
206.943	-4.61
207.162	15.87
207.381	83.45
207.599	40.45
207.818	54.78
208.037	-43.52
208.255	34.3
208.474	50.69
208.693	44.54
208.911	5.63
209.13	28.16
209.349	67.07
209.567	71.17
209.786	108.03
210.005	1.54
210.223	5.63
210.442	40.45
210.661	99.84
210.879	42.5
211.098	62.98
211.316	42.5
211.535	56.83
211.753	85.5
211.972	44.54
212.191	26.11
212.409	75.26
212.628	103.93
212.846	-4.61
213.065	36.35
213.283	65.02
213.502	7.68
213.72	71.17
213.938	36.35
214.157	11.78
214.375	38.4
214.594	22.02
214.812	-39.42
215.031	30.21
215.249	-2.56
215.467	65.02
215.686	11.78
215.904	99.84
216.122	116.22
216.341	62.98
216.559	48.64
216.778	44.54
216.996	7.68
217.214	-0.51
217.432	24.06
217.651	-16.9
217.869	36.35
218.087	5.63
218.306	36.35
218.524	1.54
218.742	-23.04
218.96	-0.51
219.179	26.11
219.397	65.02
219.615	79.36
219.833	11.78
220.051	58.88
220.27	118.27
220.488	97.79
220.706	17.92
220.924	24.06
221.142	67.07
221.36	1.54
221.578	-12.8
221.796	11.78
222.015	73.21
222.233	22.02
222.451	65.02
222.669	-23.04
222.887	32.26
223.105	-37.38
223.323	81.41
223.541	3.58
223.759	46.59
223.977	24.06
224.195	71.17
224.413	54.78
224.631	93.69
224.849	17.92
225.067	101.89
225.285	-4.61
225.503	73.21
225.721	1.54
225.939	-16.9
226.157	26.11
226.375	157.18
226.592	7.68
226.81	38.4
227.028	11.78
227.246	62.98
227.464	67.07
227.682	58.88
227.9	32.26
228.117	77.31
228.335	26.11
228.553	50.69
228.771	30.21
228.989	58.88
229.206	-25.09
229.424	50.69
229.642	32.26
229.86	30.21
230.077	34.3
230.295	73.21
230.513	116.22
230.731	30.21
230.948	46.59
231.166	58.88
231.384	32.26
231.601	89.6
231.819	60.93
232.037	11.78
232.254	54.78
232.472	44.54
232.689	71.17
232.907	73.21
233.125	130.56
233.342	-61.95
233.56	22.02
233.777	28.16
233.995	19.97
234.213	81.41
234.43	83.45
234.648	28.16
234.865	22.02
235.083	69.12
235.3	69.12
235.518	32.26
235.735	58.88
235.953	34.3
236.17	75.26
236.388	-10.75
236.605	42.5
236.822	83.45
237.04	5.63
237.257	79.36
237.475	30.21
237.692	-2.56
237.909	54.78
238.127	-23.04
238.344	81.41
238.562	44.54
238.779	58.88
238.996	38.4
239.214	46.59
239.431	46.59
239.648	7.68
239.865	-16.9
240.083	83.45
240.3	34.3
240.517	52.74
240.735	40.45
240.952	34.3
241.169	112.13
241.386	22.02
241.603	62.98
241.821	30.21
242.038	118.27
242.255	32.26
242.472	58.88
242.689	56.83
242.907	83.45
243.124	54.78
243.341	54.78
243.558	26.11
243.775	-14.85
243.992	-16.9
244.209	5.63
244.426	77.31
244.643	-10.75
244.86	7.68
245.078	91.65
245.295	73.21
245.512	34.3
245.729	11.78
245.946	40.45
246.163	-8.7
246.38	-49.66
246.597	77.31
246.814	91.65
247.031	112.13
247.248	5.63
247.464	103.93
247.681	105.98
247.898	62.98
248.115	-6.66
248.332	19.97
248.549	38.4
248.766	136.7
248.983	22.02
249.2	75.26
249.417	32.26
249.633	62.98
249.85	17.92
250.067	34.3
250.284	75.26
250.501	165.37
250.717	46.59
250.934	65.02
251.151	-6.66
251.368	58.88
251.585	97.79
251.801	48.64
252.018	7.68
252.235	114.17
252.451	40.45
252.668	60.93
252.885	67.07
253.102	24.06
253.318	17.92
253.535	36.35
253.752	26.11
253.968	58.88
254.185	19.97
254.401	42.5
254.618	19.97
254.835	15.87
255.051	71.17
255.268	32.26
255.484	44.54
255.701	-10.75
255.917	198.14
256.134	-8.7
256.351	83.45
256.567	-49.66
256.784	91.65
257	3.58
257.217	69.12
257.433	58.88
257.65	85.5
257.866	34.3
258.082	50.69
258.299	75.26
258.515	42.5
258.732	48.64
258.948	24.06
259.165	75.26
259.381	54.78
259.597	58.88
259.814	13.82
260.03	36.35
260.246	-16.9
260.463	48.64
260.679	67.07
260.895	34.3
261.112	50.69
261.328	17.92
261.544	9.73
261.761	146.94
261.977	3.58
262.193	-20.99
262.409	17.92
262.626	50.69
262.842	40.45
263.058	-10.75
263.274	71.17
263.49	83.45
263.707	77.31
263.923	9.73
264.139	17.92
264.355	122.37
264.571	24.06
264.787	34.3
265.004	58.88
265.22	-12.8
265.436	97.79
265.652	99.84
265.868	-6.66
266.084	-14.85
266.3	81.41
266.516	85.5
266.732	58.88
266.948	32.26
267.164	17.92
267.38	-14.85
267.596	38.4
267.812	17.92
268.028	30.21
268.244	48.64
268.46	19.97
268.676	36.35
268.892	58.88
269.108	1.54
269.324	30.21
269.54	60.93
269.756	38.4
269.972	1.54
270.188	26.11
270.403	75.26
270.619	44.54
270.835	38.4
271.051	19.97
271.267	-10.75
271.483	50.69
271.698	44.54
271.914	30.21
272.13	148.99
272.346	60.93
272.562	30.21
272.777	91.65
272.993	56.83
273.209	1.54
273.425	22.02
273.64	32.26
273.856	26.11
274.072	15.87
274.287	34.3
274.503	15.87
274.719	62.98
274.934	97.79
275.15	50.69
275.366	75.26
275.581	42.5
275.797	46.59
276.012	42.5
276.228	17.92
276.444	3.58
276.659	83.45
276.875	81.41
277.09	-27.14
277.306	-20.99
277.521	75.26
277.737	50.69
277.952	15.87
278.168	75.26
278.383	83.45
278.599	36.35
278.814	83.45
279.03	46.59
279.245	52.74
279.461	34.3
279.676	42.5
279.892	5.63
280.107	30.21
280.322	95.74
280.538	40.45
280.753	26.11
280.969	38.4
281.184	67.07
281.399	58.88
281.615	60.93
281.83	75.26
282.045	24.06
282.26	48.64
282.476	34.3
282.691	19.97
282.906	7.68
283.122	30.21
283.337	-0.51
283.552	38.4
283.767	48.64
283.983	67.07
284.198	56.83
284.413	60.93
284.628	50.69
284.843	81.41
285.058	56.83
285.274	89.6
285.489	81.41
285.704	50.69
285.919	22.02
286.134	1.54
286.349	89.6
286.564	17.92
286.779	122.37
286.995	15.87
287.21	-43.52
287.425	65.02
287.64	-10.75
287.855	24.06
288.07	48.64
288.285	81.41
288.5	110.08
288.715	93.69
288.93	103.93
289.145	-8.7
289.36	75.26
289.575	-25.09
289.79	54.78
290.004	103.93
290.219	52.74
290.434	15.87
290.649	11.78
290.864	-43.52
291.079	22.02
291.294	89.6
291.509	34.3
291.724	46.59
291.938	73.21
292.153	36.35
292.368	-25.09
292.583	34.3
292.798	81.41
293.012	32.26
293.227	87.55
293.442	7.68
293.657	132.61
293.871	103.93
294.086	17.92
294.301	91.65
294.516	48.64
294.73	11.78
294.945	67.07
295.16	40.45
295.374	77.31
295.589	56.83
295.804	-0.51
296.018	32.26
296.233	148.99
296.447	19.97
296.662	-6.66
296.877	-0.51
297.091	5.63
297.306	54.78
297.52	30.21
297.735	9.73
297.949	42.5
298.164	71.17
298.378	36.35
298.593	58.88
298.807	24.06
299.022	15.87
299.236	26.11
299.451	19.97
299.665	24.06
299.88	17.92
300.094	50.69
300.309	62.98
300.523	-6.66
300.737	5.63
300.952	79.36
301.166	22.02
301.381	24.06
301.595	-6.66
301.809	19.97
302.024	69.12
302.238	58.88
302.452	69.12
302.667	77.31
302.881	38.4
303.095	36.35
303.309	105.98
303.524	-0.51
303.738	48.64
303.952	15.87
304.166	9.73
304.381	38.4
304.595	54.78
304.809	58.88
305.023	58.88
305.237	-4.61
305.452	-4.61
305.666	11.78
305.88	44.54
306.094	67.07
306.308	75.26
306.522	38.4
306.736	11.78
306.95	-6.66
307.164	79.36
307.379	-14.85
307.593	46.59
307.807	83.45
308.021	140.8
308.235	42.5
308.449	122.37
308.663	58.88
308.877	83.45
309.091	40.45
309.305	85.5
309.519	28.16
309.733	54.78
309.947	-2.56
310.161	9.73
310.374	48.64
310.588	112.13
310.802	1.54
311.016	75.26
311.23	34.3
311.444	30.21
311.658	73.21
311.872	42.5
312.085	-10.75
312.299	91.65
312.513	65.02
312.727	1.54
312.941	-8.7
313.154	7.68
313.368	65.02
313.582	32.26
313.796	30.21
314.009	136.7
314.223	105.98
314.437	46.59
314.651	56.83
314.864	67.07
315.078	38.4
315.292	50.69
315.505	15.87
315.719	46.59
315.933	73.21
316.146	-39.42
316.36	48.64
316.573	60.93
316.787	44.54
317.001	69.12
317.214	34.3
317.428	5.63
317.641	40.45
317.855	-10.75
318.068	130.56
318.282	7.68
318.495	165.37
318.709	1.54
318.922	46.59
319.136	7.68
319.349	91.65
319.563	22.02
319.776	44.54
319.99	17.92
320.203	128.51
320.417	-2.56
320.63	54.78
320.843	99.84
321.057	95.74
321.27	116.22
321.483	77.31
321.697	97.79
321.91	48.64
322.124	91.65
322.337	32.26
322.55	73.21
322.763	95.74
322.977	93.69
323.19	19.97
323.403	79.36
323.617	-18.94
323.83	91.65
324.043	60.93
324.256	-27.14
324.469	42.5
324.683	87.55
324.896	36.35
325.109	44.54
325.322	-25.09
325.535	85.5
325.748	30.21
325.962	34.3
326.175	65.02
326.388	124.41
326.601	83.45
326.814	11.78
327.027	24.06
327.24	83.45
327.453	-86.53
327.666	116.22
327.879	62.98
328.092	54.78
328.305	81.41
328.518	28.16
328.731	15.87
328.944	1.54
329.157	62.98
329.37	1.54
329.583	54.78
329.796	79.36
330.009	77.31
330.222	91.65
330.435	32.26
330.648	46.59
330.861	95.74
331.073	36.35
331.286	65.02
331.499	75.26
331.712	-27.14
331.925	50.69
332.138	73.21
332.35	69.12
332.563	50.69
332.776	91.65
332.989	40.45
333.202	67.07
333.414	40.45
333.627	48.64
333.84	-12.8
334.053	124.41
334.265	1.54
334.478	108.03
334.691	116.22
334.903	105.98
335.116	-20.99
335.329	93.69
335.541	67.07
335.754	67.07
335.966	-8.7
336.179	103.93
336.392	50.69
336.604	9.73
336.817	91.65
337.029	30.21
337.242	128.51
337.454	110.08
337.667	30.21
337.88	165.37
338.092	42.5
338.305	110.08
338.517	62.98
338.729	85.5
338.942	110.08
339.154	112.13
339.367	36.35
339.579	83.45
339.792	32.26
340.004	97.79
340.217	7.68
340.429	54.78
340.641	1.54
340.854	34.3
341.066	48.64
341.278	26.11
341.491	165.37
341.703	95.74
341.915	3.58
342.128	69.12
342.34	46.59
342.552	50.69
342.764	54.78
342.977	50.69
343.189	42.5
343.401	44.54
343.613	-31.23
343.826	38.4
344.038	58.88
344.25	46.59
344.462	-20.99
344.674	48.64
344.886	24.06
345.099	11.78
345.311	75.26
345.523	87.55
345.735	-18.94
345.947	-8.7
346.159	34.3
346.371	-0.51
346.583	103.93
346.795	93.69
347.007	93.69
347.219	116.22
347.431	52.74
347.643	13.82
347.855	60.93
348.067	58.88
348.279	105.98
348.491	38.4
348.703	62.98
348.915	58.88
349.127	24.06
349.339	83.45
349.551	-0.51
349.763	-20.99
349.975	42.5
350.187	48.64
350.399	19.97
350.61	87.55
350.822	34.3
351.034	34.3
351.246	91.65
351.458	75.26
351.669	114.17
351.881	108.03
352.093	101.89
352.305	112.13
352.517	22.02
352.728	54.78
352.94	101.89
353.152	22.02
353.363	65.02
353.575	71.17
353.787	140.8
353.999	132.61
354.21	108.03
354.422	24.06
354.633	-2.56
354.845	46.59
355.057	42.5
355.268	71.17
355.48	-6.66
355.692	65.02
355.903	75.26
356.115	9.73
356.326	5.63
356.538	108.03
356.749	65.02
356.961	144.89
357.172	46.59
357.384	15.87
357.595	67.07
357.807	52.74
358.018	83.45
358.23	38.4
358.441	124.41
358.653	73.21
358.864	7.68
359.075	26.11
359.287	-8.7
359.498	99.84
359.709	40.45
359.921	85.5
360.132	48.64
360.344	13.82
360.555	81.41
360.766	71.17
360.977	1.54
361.189	28.16
361.4	-12.8
361.611	93.69
361.823	108.03
362.034	48.64
362.245	42.5
362.456	26.11
362.667	44.54
362.879	15.87
363.09	56.83
363.301	38.4
363.512	34.3
363.723	105.98
363.935	-12.8
364.146	124.41
364.357	46.59
364.568	85.5
364.779	54.78
364.99	42.5
365.201	-12.8
365.412	93.69
365.623	-0.51
365.834	62.98
366.045	67.07
366.256	103.93
366.467	62.98
366.678	-8.7
366.889	13.82
367.1	44.54
367.311	75.26
367.522	17.92
367.733	34.3
367.944	85.5
368.155	79.36
368.366	79.36
368.577	-25.09
368.788	62.98
368.999	-6.66
369.209	116.22
369.42	218.62
369.631	87.55
369.842	60.93
370.053	42.5
370.264	71.17
370.474	42.5
370.685	73.21
370.896	11.78
371.107	103.93
371.317	65.02
371.528	54.78
371.739	81.41
371.95	67.07
372.16	42.5
372.371	-29.18
372.582	67.07
372.792	79.36
373.003	108.03
373.214	89.6
373.424	116.22
373.635	48.64
373.846	38.4
374.056	17.92
374.267	56.83
374.477	-37.38
374.688	34.3
374.898	58.88
375.109	101.89
375.319	46.59
375.53	126.46
375.74	42.5
375.951	30.21
376.161	40.45
376.372	77.31
376.582	-10.75
376.793	112.13
377.003	42.5
377.214	87.55
377.424	97.79
377.635	108.03
377.845	1.54
378.055	87.55
378.266	-18.94
378.476	79.36
378.686	5.63
378.897	192
379.107	83.45
379.317	-2.56
379.528	48.64
379.738	67.07
379.948	40.45
380.158	56.83
380.369	97.79
380.579	36.35
380.789	-68.09
380.999	44.54
381.21	103.93
381.42	116.22
381.63	95.74
381.84	75.26
382.05	54.78
382.261	116.22
382.471	67.07
382.681	32.26
382.891	132.61
383.101	73.21
383.311	1.54
383.521	77.31
383.731	87.55
383.941	19.97
384.151	56.83
384.361	30.21
384.571	99.84
384.781	89.6
384.991	50.69
385.201	89.6
385.411	89.6
385.621	50.69
385.831	89.6
386.041	22.02
386.251	71.17
386.461	136.7
386.671	22.02
386.881	50.69
387.091	44.54
387.301	91.65
387.511	48.64
387.72	65.02
387.93	26.11
388.14	48.64
388.35	103.93
388.56	75.26
388.769	155.13
388.979	44.54
389.189	62.98
389.399	32.26
389.609	79.36
389.818	40.45
390.028	87.55
390.238	50.69
390.447	56.83
390.657	95.74
390.867	99.84
391.076	15.87
391.286	40.45
391.496	103.93
391.705	71.17
391.915	124.41
392.125	89.6
392.334	65.02
392.544	71.17
392.753	50.69
392.963	38.4
393.172	151.04
393.382	77.31
393.591	124.41
393.801	103.93
394.01	132.61
394.22	108.03
394.429	11.78
394.639	13.82
394.848	87.55
395.058	122.37
395.267	75.26
395.477	155.13
395.686	122.37
395.895	151.04
396.105	87.55
396.314	97.79
396.524	116.22
396.733	130.56
396.942	116.22
397.152	108.03
397.361	146.94
397.57	101.89
397.78	146.94
397.989	62.98
398.198	108.03
398.407	81.41
398.617	136.7
398.826	95.74
399.035	22.02
399.244	108.03
399.453	58.88
399.663	138.75
399.872	77.31
400.081	124.41
400.29	140.8
400.499	93.69
400.708	140.8
400.917	38.4
401.127	148.99
401.336	110.08
401.545	216.57
401.754	173.57
401.963	151.04
402.172	95.74
402.381	140.8
402.59	155.13
402.799	130.56
403.008	140.8
403.217	110.08
403.426	230.91
403.635	140.8
403.844	52.74
404.053	173.57
404.262	120.32
404.471	134.65
404.68	173.57
404.888	163.33
405.097	93.69
405.306	169.47
405.515	202.24
405.724	169.47
405.933	175.61
406.142	202.24
406.35	230.91
406.559	198.14
406.768	179.71
406.977	292.35
407.185	183.81
407.394	224.76
407.603	159.23
407.812	185.85
408.02	222.72
408.229	228.86
408.438	204.28
408.646	222.72
408.855	290.3
409.064	222.72
409.272	204.28
409.481	308.73
409.69	275.96
409.898	222.72
410.107	343.55
410.315	296.44
410.524	273.92
410.733	308.73
410.941	247.29
411.15	429.56
411.358	407.03
411.567	384.51
411.775	378.36
411.984	364.03
412.192	411.13
412.401	398.84
412.609	546.3
412.818	484.86
413.026	460.28
413.234	484.86
413.443	495.1
413.651	572.92
413.86	566.78
414.068	462.33
414.276	615.93
414.485	570.87
414.693	632.31
414.901	648.69
415.11	669.17
415.318	607.73
415.526	710.13
415.734	790
415.943	703.99
416.151	792.05
416.359	861.68
416.567	812.53
416.776	865.78
416.984	916.98
417.192	878.07
417.4	923.12
417.608	943.6
417.817	1011.18
418.025	1093.1
418.233	1189.36
418.441	1029.62
418.649	1107.44
418.857	1250.8
419.065	1218.03
419.273	1238.51
419.481	1338.86
419.689	1408.49
419.897	1453.55
420.105	1347.05
420.313	1512.94
420.521	1447.4
420.729	1582.57
420.937	1619.43
421.145	1754.6
421.353	1697.25
421.561	1742.31
421.769	1844.71
421.977	1955.3
422.185	1836.52
422.393	2031.07
422.601	2080.22
422.809	2186.72
423.017	2156
423.224	2307.55
423.432	2266.59
423.64	2262.49
423.848	2532.83
424.056	2516.44
424.263	2633.18
424.471	2641.37
424.679	2778.58
424.887	2840.02
425.094	3096.02
425.302	2958.8
425.51	2987.47
425.718	3167.7
425.925	3167.7
426.133	3470.8
426.341	3425.74
426.548	3636.68
426.756	3659.21
426.964	3800.52
427.171	3894.72
427.379	4132.29
427.586	4175.3
427.794	4154.82
428.001	4369.85
428.209	4486.59
428.417	4480.44
428.624	4812.21
428.832	4789.69
429.039	4842.93
429.247	4849.08
429.454	5186.99
429.662	5641.64
429.869	5262.77
430.076	5641.64
430.284	5490.09
430.491	5655.98
430.699	5920.17
430.906	6018.47
431.114	6225.31
431.321	6313.38
431.528	6366.62
431.736	6800.79
431.943	7187.86
432.15	6905.24
432.358	7034.26
432.565	7327.12
432.772	7316.88
432.979	7845.26
433.187	7972.23
433.394	7937.41
433.601	8590.72
433.808	8596.86
434.016	8367.49
434.223	8629.63
434.43	9407.86
434.637	9125.24
434.844	9706.86
435.052	9811.31
435.259	9930.09
435.466	10055.01
435.673	9764.2
435.88	10261.86
436.087	10786.14
436.294	10992.98
436.501	10771.8
436.708	11062.62
436.915	11588.94
437.122	11937.1
437.329	11877.71
437.537	12238.15
437.743	12162.37
437.95	12148.04
438.157	12838.2
438.364	13425.97
438.571	13212.98
438.778	13260.09
438.985	14710.05
439.192	13915.44
439.399	14474.53
439.606	14093.61
439.813	14873.89
440.02	15674.64
440.227	15654.16
440.433	15451.41
440.64	15871.25
440.847	15893.77
441.054	16098.57
441.261	17259.77
441.467	16999.68
441.674	17302.78
441.881	18124.01
442.088	18035.95
442.294	17788.14
442.501	18341.1
442.708	18713.83
442.914	19580.12
443.121	19983.57
443.328	19612.88
443.534	20903.11
443.741	20309.19
443.948	20045.01
444.154	21673.14
444.361	21380.28
444.568	21490.87
444.774	21568.69
444.981	21740.72
445.187	22551.72
445.394	23354.52
445.6	22863.01
445.807	25431.16
446.013	24353.93
446.22	24634.5
446.426	25308.29
446.633	25648.25
446.839	26475.63
447.046	25382.01
447.252	26731.62
447.459	26823.78
447.665	27173.99
447.871	27858.01
448.078	28894.28
448.284	27782.23
448.491	28619.85
448.697	29494.33
448.903	30108.72
449.11	30053.43
449.316	28990.53
449.522	30297.14
449.728	30569.52
449.935	31065.13
450.141	31263.78
450.347	32193.56
450.553	31054.89
450.76	31022.12
450.966	31910.94
451.172	31792.15
451.378	32437.27
451.584	32132.12
451.791	32467.98
451.997	32336.91
452.203	33246.21
452.409	32723.98
452.615	32713.74
452.821	31761.44
453.027	31390.75
453.233	32613.39
453.44	31585.31
453.646	31685.66
453.852	31939.61
454.058	31992.86
454.264	31071.27
454.47	32214.04
454.676	31378.47
454.882	32261.14
455.088	29502.53
455.294	29713.47
455.5	30276.66
455.705	30655.53
455.911	29230.15
456.117	28505.17
456.323	28386.38
456.529	26846.31
456.735	27987.03
456.941	27315.3
457.147	26999.91
457.352	26158.19
457.558	25709.69
457.764	25793.65
457.97	25228.42
458.176	24476.81
458.381	24640.65
458.587	23661.72
458.793	23348.38
458.999	22262.96
459.204	24054.93
459.41	23368.86
459.616	21492.92
459.821	21701.81
460.027	21843.12
460.233	21185.72
460.438	20200.65
460.644	20667.59
460.85	19332.31
461.055	19281.11
461.261	19010.78
461.466	17685.75
461.672	17118.46
461.878	18586.85
462.083	17110.27
462.289	16889.09
462.494	16807.17
462.7	15760.66
462.905	15439.12
463.111	16192.78
463.316	16354.57
463.522	15791.38
463.727	15834.38
463.932	15600.91
464.138	15596.82
464.343	15471.89
464.549	15142.17
464.754	15576.34
464.959	15772.94
465.165	15523.09
465.37	14912.8
465.575	14564.64
465.781	14947.61
465.986	14896.41
466.191	14429.48
466.397	14273.83
466.602	13481.27
466.807	14116.14
467.012	14318.89
467.218	13950.25
467.423	14001.45
467.628	13907.24
467.833	14779.68
468.038	13780.27
468.244	13626.67
468.449	13907.24
468.654	13772.08
468.859	13428.02
469.064	13382.96
469.269	13069.62
469.474	12977.47
469.679	13331.76
469.885	12883.26
470.09	12981.56
470.295	12950.84
470.5	12731.71
470.705	12672.32
470.91	12367.17
471.115	12322.12
471.32	12590.4
471.525	12381.51
471.73	11922.76
471.935	11990.35
472.139	11879.75
472.344	12002.63
472.549	11849.04
472.754	11640.14
472.959	11627.85
473.164	10945.88
473.369	10992.98
473.574	11564.37
473.778	11162.97
473.983	11328.85
474.188	11130.2
474.393	10614.11
474.598	10648.93
474.802	10397.03
475.007	10560.86
475.212	10538.34
475.417	10167.65
475.621	9907.56
475.826	10081.64
476.031	9864.55
476.235	10036.58
476.44	9962.86
476.645	9684.33
476.849	9626.99
477.054	9631.09
477.259	9557.36
477.463	9489.78
477.668	9411.95
477.872	9442.67
478.077	9315.7
478.282	9182.58
478.486	8979.83
478.691	9053.56
478.895	8990.07
479.1	8951.16
479.304	8805.75
479.509	8615.29
479.713	8578.43
479.918	8500.61
480.122	8406.4
480.326	8492.41
480.531	8697.21
480.735	8281.47
480.94	8197.51
481.144	8758.65
481.348	8234.37
481.553	8430.98
481.757	8316.29
481.961	8312.19
482.166	8471.93
482.37	8224.13
482.574	8095.11
482.778	8222.08
482.983	8418.69
483.187	8174.98
483.391	8191.36
483.595	8281.47
483.8	8195.46
484.004	8316.29
484.208	8263.04
484.412	8127.88
484.616	8242.56
484.821	8168.84
485.025	8023.43
485.229	8185.22
485.433	8093.06
485.637	8166.79
485.841	8191.36
486.045	8050.05
486.249	8111.49
486.453	8136.07
486.657	8136.07
486.861	8205.7
487.065	7890.31
487.269	8115.59
487.473	7943.56
487.677	8142.21
487.881	8148.36
488.085	8193.41
488.289	8168.84
488.493	8152.45
488.697	8451.46
488.901	8283.52
489.105	8342.91
489.309	8273.28
489.512	8236.42
489.716	8217.99
489.92	8394.11
490.124	8281.47
490.328	8467.84
490.531	8228.23
490.735	8562.05
490.939	8273.28
491.143	8469.89
491.346	8568.19
491.55	8564.09
491.754	8613.24
491.958	8566.14
492.161	8541.57
492.365	8719.74
492.569	8572.29
492.772	8932.73
492.976	8756.6
493.18	8807.8
493.383	9106.81
493.587	9067.89
493.79	9069.94
493.994	8975.74
494.197	9155.96
494.401	9192.82
494.605	9201.01
494.808	9254.26
495.012	9256.31
495.215	9506.16
495.419	9440.62
495.622	9379.18
495.825	9643.37
496.029	9604.46
496.232	9819.5
496.436	9713
496.639	10145.13
496.843	10118.5
497.046	10143.08
497.249	10231.14
497.453	10331.49
497.656	10519.9
497.859	10593.63
498.063	10685.79
498.266	10743.13
498.469	10634.59
498.673	10837.34
498.876	11111.77
499.079	11165.01
499.282	11210.07
499.485	11371.86
499.689	11457.87
499.892	11601.23
500.095	11511.12
500.298	11980.11
500.501	11748.68
500.705	12092.74
500.908	12328.26
501.111	12195.14
501.314	12596.54
501.517	12744
501.72	12631.36
501.923	12748.09
502.126	13139.26
502.329	13380.92
502.532	13290.81
502.735	13516.08
502.938	14028.07
503.141	13739.31
503.344	14001.45
503.547	14234.92
503.75	14327.08
503.953	14327.08
504.156	14851.36
504.359	14847.26
504.562	14906.65
504.765	15199.51
504.968	15203.61
505.17	15523.09
505.373	15541.52
505.576	15844.62
505.779	15865.1
505.982	16067.85
506.185	16442.63
506.387	16311.56
506.59	16903.42
506.793	16917.76
506.996	16956.67
507.198	17388.79
507.401	17331.45
507.604	17569.01
507.807	17906.93
508.009	18076.91
508.212	18291.94
508.415	18519.27
508.617	18748.64
508.82	18871.52
509.022	18756.83
509.225	19369.18
509.428	19104.99
509.63	19621.08
509.833	19272.92
510.035	20042.96
510.238	19813.59
510.44	20040.91
510.643	20651.2
510.845	20636.87
511.048	20671.68
511.25	20925.63
511.453	20962.5
511.655	21822.64
511.858	21683.38
512.06	21882.03
512.262	21908.66
512.465	22299.82
512.667	22490.28
512.87	22713.51
513.072	22713.51
513.274	23270.56
513.477	23631
513.679	23747.73
513.881	23985.3
514.084	24099.98
514.286	24188.05
514.488	24538.25
514.69	24976.51
514.893	25173.12
515.095	25439.36
515.297	25543.8
515.499	25640.06
515.701	26025.07
515.904	26272.88
516.106	26666.09
516.308	26940.52
516.51	27001.96
516.712	27055.2
516.914	27776.09
517.116	28079.19
517.318	28120.15
517.52	28322.9
517.722	28322.9
517.925	28922.95
518.127	29168.71
518.329	29568.06
518.531	29008.97
518.733	29991.99
518.935	29961.27
519.136	30149.68
519.338	30338.1
519.54	31130.66
519.742	31087.65
519.944	30878.76
520.146	31470.62
520.348	31792.15
520.55	32320.53
520.752	32281.62
520.954	32621.58
521.155	32685.07
521.357	33367.04
521.559	33387.52
521.761	33772.54
521.963	33897.47
522.164	34302.96
522.366	34550.77
522.568	34669.55
522.77	34757.61
522.971	35476.45
523.173	35083.24
523.375	35503.07
523.576	35648.48
523.778	35507.17
523.98	35957.72
524.181	36416.47
524.383	36467.67
524.584	37041.1
524.786	36924.36
524.988	37323.72
525.189	37327.81
525.391	37993.4
525.592	38034.36
525.794	38411.19
525.995	38136.76
526.197	38517.68
526.398	38669.23
526.6	39279.53
526.801	38906.8
527.003	39400.36
527.204	39220.14
527.406	39840.67
527.607	39750.56
527.808	39871.39
528.01	39652.26
528.211	39822.24
528.412	41241.48
528.614	40381.34
528.815	40663.96
529.016	40520.6
529.218	40301.47
529.419	40743.83
529.62	40917.9
529.822	41167.76
530.023	41175.95
530.224	41212.81
530.425	41509.77
530.626	41409.42
530.828	40850.32
531.029	41962.37
531.23	41433.99
531.431	41515.91
531.632	42238.84
531.833	42085.25
532.035	41724.8
532.236	41993.09
532.437	42302.33
532.638	41909.12
532.839	42193.79
533.04	42736.5
533.241	42118.01
533.442	42634.1
533.643	42011.52
533.844	42634.1
534.045	42410.87
534.246	42118.01
534.447	42693.49
534.648	42711.92
534.849	42529.66
535.05	42351.48
535.251	42398.59
535.451	42507.13
535.652	42744.69
535.853	42634.1
536.054	42797.94
536.255	43420.52
536.456	42644.34
536.657	43436.91
536.857	42873.71
537.058	42984.3
537.259	42830.71
537.46	43240.3
537.66	42713.97
537.861	42660.73
538.062	43211.63
538.263	42883.95
538.463	43135.85
538.664	42736.5
538.865	43058.03
539.065	43479.91
539.266	42746.74
539.466	43209.58
539.667	42486.65
539.868	43496.3
540.068	42799.99
540.269	43168.62
540.469	43332.46
540.67	42611.57
540.87	42945.39
541.071	42834.8
541.271	43074.41
541.472	42994.54
541.672	43084.65
541.873	42857.33
542.073	42199.93
542.274	43174.77
542.474	42578.81
542.675	42519.42
542.875	43694.95
543.075	43084.65
543.276	42869.62
543.476	43381.61
543.676	42988.4
543.877	43340.65
544.077	43068.27
544.277	43092.85
544.478	42842.99
544.678	43168.62
544.878	42726.26
545.078	43240.3
545.279	42490.74
545.479	42550.13
545.679	42838.9
545.879	42851.19
546.079	43232.11
546.28	42705.78
546.48	42328.95
546.68	42683.25
546.88	42732.4
547.08	42716.02
547.28	42857.33
547.48	42513.27
547.68	42666.87
547.88	42455.93
548.081	42855.28
548.281	42742.64
548.481	42281.85
548.681	43119.47
548.881	42515.32
549.081	42521.46
549.28	42388.35
549.48	42939.25
549.68	42691.44
549.88	43148.14
550.08	42494.84
550.28	42804.08
550.48	42261.37
550.68	43275.12
550.88	42408.82
551.08	42687.35
551.279	42539.89
551.479	41954.18
551.679	42828.66
551.879	42556.28
552.079	42537.85
552.278	41970.56
552.478	42421.11
552.678	42638.2
552.878	42742.64
553.077	42503.03
553.277	41839.49
553.477	42728.31
553.676	42314.62
553.876	42191.74
554.076	42017.66
554.275	42175.36
554.475	41716.61
554.674	42232.7
554.874	42339.19
555.074	41933.7
555.273	42134.4
555.473	42183.55
555.672	41397.13
555.872	41896.83
556.071	42146.68
556.271	42115.97
556.47	41866.11
556.67	41378.7
556.869	41552.77
557.068	41917.31
557.268	41180.04
557.467	41583.49
557.667	41352.07
557.866	41358.22
558.065	41470.86
558.265	41341.83
558.464	41134.99
558.663	41401.22
558.863	40786.83
559.062	41612.17
559.261	41036.69
559.461	41454.47
559.66	40639.38
559.859	40846.22
560.058	40733.59
560.258	40516.5
560.457	40065.95
560.656	40995.73
560.855	40631.19
561.054	40582.04
561.253	39922.59
561.453	40354.71
561.652	40201.11
561.851	40774.55
562.05	40231.83
562.249	40035.23
562.448	40104.86
562.647	39965.6
562.846	39938.97
563.045	40084.38
563.244	39265.19
563.443	39918.49
563.642	39320.49
563.841	39599.01
564.04	39046.06
564.239	39603.11
564.438	38984.62
564.637	39252.91
564.836	39150.51
565.035	38958
565.234	39027.63
565.432	38837.17
565.631	38603.7
565.83	38667.19
566.029	38452.15
566.228	38177.72
566.427	38153.15
566.625	37680.07
566.824	37841.85
567.023	38011.84
567.222	37456.84
567.42	37907.39
567.619	37516.23
567.818	37196.74
568.016	37678.02
568.215	37821.37
568.414	37479.36
568.612	37626.82
568.811	37049.29
569.01	37151.69
569.208	36449.24
569.407	37065.67
569.605	36469.72
569.804	36768.72
570.002	36264.92
570.201	36639.7
570.4	36195.29
570.598	35881.95
570.797	35990.49
570.995	36254.68
571.193	35693.54
571.392	36096.99
571.59	35832.8
571.789	35765.21
571.987	35658.72
572.186	35294.18
572.384	35062.76
572.582	35285.99
572.781	35415.01
572.979	34847.72
573.177	35001.32
573.376	35009.51
573.574	34595.82
573.772	35052.52
573.971	34634.74
574.169	34415.6
574.367	34100.22
574.565	34520.05
574.763	34274.29
574.962	34036.73
575.16	33504.26
575.358	33954.81
575.556	33655.81
575.754	33807.36
575.952	33340.42
576.151	33997.82
576.349	33205.25
576.547	33201.16
576.745	33203.21
576.943	32840.71
577.141	32844.81
577.339	32955.4
577.537	32869.39
577.735	33119.24
577.933	32283.67
578.131	33057.8
578.329	32259.09
578.527	32554
578.725	32074.77
578.923	32195.6
579.121	31976.47
579.319	31761.44
579.516	31986.71
579.714	31896.6
579.912	31679.52
580.11	31544.35
580.308	31554.59
580.506	31439.9
580.704	31132.71
580.901	31403.04
581.099	31429.66
581.297	31210.53
581.495	31345.7
581.692	31575.07
581.89	30970.92
582.088	31044.65
582.285	30706.73
582.483	31018.02
582.681	30551.09
582.878	30270.51
583.076	30078.01
583.274	30555.18
583.471	30104.63
583.669	29994.04
583.866	29932.6
584.064	30141.49
584.262	29770.81
584.459	30002.23
584.657	29932.6
584.854	29948.98
585.052	29131.84
585.249	29400.13
585.447	29439.04
585.644	29109.32
585.841	29484.09
586.039	29314.11
586.236	28752.97
586.434	28675.15
586.631	28765.26
586.828	28601.42
587.026	28531.79
587.223	28849.22
587.42	28275.79
587.618	28548.17
587.815	28034.13
588.012	28527.69
588.21	28159.06
588.407	28445.77
588.604	27837.53
588.801	27382.88
588.999	27694.17
589.196	27550.81
589.393	27657.31
589.59	27802.71
589.787	27479.13
589.984	27370.59
590.182	27126.88
590.379	27436.13
590.576	27118.69
590.773	27079.78
590.97	27073.63
591.167	26981.48
591.364	26664.04
591.561	26883.17
591.758	26541.16
591.955	26641.51
592.152	27036.77
592.349	26436.72
592.546	26727.53
592.743	26422.38
592.94	25691.26
593.137	26168.43
593.334	26330.22
593.531	25711.74
593.727	26166.38
593.924	25980.02
594.121	25646.2
594.318	25775.22
594.515	25601.15
594.712	25810.04
594.908	25461.88
595.105	25711.74
595.302	25304.19
595.499	25300.09
595.696	24857.73
595.892	24763.53
596.089	25261.18
596.286	24923.27
596.482	24943.75
596.679	24921.22
596.876	24919.17
597.072	24765.57
597.269	24882.31
597.466	24437.9
597.662	24294.54
597.859	24478.86
598.055	24091.79
598.252	24050.83
598.448	24315.02
598.645	23901.33
598.841	23864.47
599.038	23968.91
599.234	23989.39
599.431	23581.85
599.627	23332
599.824	23899.28
600.02	23575.7
600.217	23422.11
600.413	23440.54
600.609	23401.63
600.806	23215.26
601.002	23076
601.198	23147.68
601.395	22996.13
601.591	22877.35
601.787	22897.83
601.984	22662.31
602.18	22936.74
602.376	22772.9
602.572	22719.65
602.769	22590.63
602.965	22224.04
603.161	22473.9
603.357	22328.49
603.553	22138.03
603.75	22277.29
603.946	22158.51
604.142	22443.18
604.338	21908.66
604.534	22172.85
604.73	21623.99
604.926	21646.52
605.122	21679.29
605.318	21685.43
605.514	21396.67
605.71	21632.18
605.906	21476.54
606.102	21480.63
606.298	21284.03
606.494	21140.67
606.69	20919.49
606.886	21243.07
607.082	21155.01
607.278	21183.68
607.474	20872.39
607.67	20968.64
607.866	20536.52
608.062	21226.68
608.257	21003.46
608.453	20606.15
608.649	20806.85
608.845	20497.61
609.041	20335.82
609.236	20567.24
609.432	20610.25
609.628	20600.01
609.824	20272.33
610.019	20075.73
610.215	19983.57
610.411	20344.01
610.606	20141.26
610.802	20075.73
610.998	20126.92
611.193	20286.67
611.389	19950.8
611.584	19932.37
611.78	19637.46
611.976	19750.1
612.171	20135.12
612.367	19703
612.562	19541.21
612.758	19492.05
612.953	19158.24
613.149	19647.7
613.344	19291.35
613.539	19645.65
613.735	19598.55
613.93	19723.48
614.126	19277.02
614.321	19412.18
614.517	19430.62
614.712	19410.14
614.907	19203.29
615.103	19117.28
615.298	19078.36
615.493	19635.41
615.688	19014.88
615.884	19277.02
616.079	18953.44
616.274	19115.23
616.47	18728.16
616.665	18826.46
616.86	18752.74
617.055	18539.75
617.25	18633.96
617.445	18722.02
617.641	18103.53
617.836	18535.65
618.031	18353.38
618.226	18380.01
618.421	18500.84
618.616	18515.17
618.811	18132.2
619.006	18392.3
619.201	17730.8
619.396	17990.89
619.591	17714.42
619.786	17839.34
619.981	17491.19
620.176	18027.76
620.371	17501.43
620.566	17702.13
620.761	17581.3
620.956	17511.67
621.151	17372.41
621.346	17175.8
621.541	17067.26
621.735	17306.87
621.93	16841.98
622.125	16827.65
622.32	16991.48
622.515	16786.69
622.709	16579.84
622.904	16610.56
623.099	16516.36
623.294	16622.85
623.488	16395.53
623.683	16405.77
623.878	16209.16
624.072	16160.01
624.267	16241.93
624.462	15822.09
624.656	15752.46
624.851	16073.99
625.046	15736.08
625.24	15736.08
625.435	15519
625.629	15373.59
625.824	15447.32
626.018	15244.57
626.213	15015.19
626.407	15248.66
626.602	15054.11
626.796	15172.89
626.991	14984.48
627.185	14843.17
627.38	14837.02
627.574	14789.92
627.768	14765.34
627.963	14437.67
628.157	14511.39
628.352	14365.99
628.546	14085.42
628.74	14357.8
628.935	14251.3
629.129	14286.12
629.323	13985.07
629.517	13950.25
629.712	14193.96
629.906	13813.04
630.1	13495.6
630.294	13620.53
630.489	13270.33
630.683	13702.45
630.877	13301.05
631.071	13221.17
631.265	13192.5
631.459	13104.44
631.653	13067.58
631.848	12903.74
632.042	12975.42
632.236	12991.8
632.43	12762.43
632.624	12795.2
632.818	12594.5
633.012	12633.41
633.206	12563.78
633.4	12666.17
633.594	12342.6
633.788	12318.02
633.982	12332.36
634.176	12432.71
634.369	12217.67
634.563	12180.81
634.757	11988.3
634.951	12010.82
635.145	11902.28
635.339	11935.05
635.533	11834.7
635.726	11859.28
635.92	11707.73
636.114	11810.12
636.308	11593.04
636.501	11634
636.695	11365.71
636.889	11273.56
637.083	11195.73
637.276	11083.09
637.47	11216.21
637.664	11083.09
637.857	11175.25
638.051	11038.04
638.244	10732.89
638.438	10859.87
638.632	10880.35
638.825	10726.75
639.019	10532.19
639.212	10605.92
639.406	10657.12
639.599	10524
639.793	10362.21
639.986	10591.58
640.18	10360.16
640.373	10448.22
640.567	10128.74
640.76	10155.37
640.954	10114.41
641.147	9960.81
641.34	9897.32
641.534	9983.34
641.727	9760.11
641.92	9729.39
642.114	9756.01
642.307	9979.24
642.5	9563.5
642.694	9428.34
642.887	9583.98
643.08	9520.49
643.273	9330.03
643.467	9424.24
643.66	9256.31
643.853	9180.53
644.046	9106.81
644.239	9420.14
644.432	9012.6
644.626	8936.82
644.819	9002.36
645.012	9035.13
645.205	9172.34
645.398	9018.74
645.591	8779.13
645.784	8873.34
645.977	8656.25
646.17	8660.35
646.363	8471.93
646.556	8586.62
646.749	8478.08
646.942	8498.56
647.135	8420.74
647.328	8523.13
647.521	8500.61
647.714	8095.11
647.907	8328.58
648.099	8156.55
648.292	8287.62
648.485	8103.3
648.678	7945.61
648.871	8048.01
649.064	8043.91
649.256	8070.53
649.449	7927.18
649.642	7824.78
649.835	7902.6
650.027	7753.1
650.22	7705.99
650.413	7576.97
650.605	7779.72
650.798	7564.68
650.991	7579.02
651.183	7566.73
651.376	7361.94
651.568	7300.5
651.761	7343.5
651.954	7550.35
652.146	7406.99
652.339	7204.24
652.531	7247.25
652.724	7253.39
652.916	7091.6
653.109	7155.09
653.301	7138.71
653.494	7214.48
653.686	7122.32
653.879	6958.49
654.071	6938.01
654.263	7019.92
654.456	6999.45
654.648	7028.12
654.84	6743.45
655.033	6718.87
655.225	6727.07
655.417	6778.26
655.61	6839.7
655.802	6692.25
655.994	6596
656.186	6700.44
656.379	6501.79
656.571	6518.17
656.763	6383.01
656.955	6591.9
657.148	6378.91
657.34	6557.08
657.532	6270.37
657.724	6372.77
657.916	6270.37
658.108	6210.98
658.3	6403.49
658.492	6186.4
658.684	6151.59
658.876	6202.79
659.068	6151.59
659.26	6022.56
659.452	6217.12
659.644	6034.85
659.836	5868.97
660.028	5991.84
660.22	5842.34
660.412	5957.03
660.604	5801.38
660.796	5932.45
660.988	5819.82
661.18	5840.29
661.372	5723.56
661.563	5672.36
661.755	5670.31
661.947	5602.73
662.139	5637.55
662.331	5567.92
662.522	5631.4
662.714	5522.86
662.906	5457.32
663.097	5436.85
663.289	5383.6
663.481	5451.18
663.673	5488.04
663.864	5436.85
664.056	5477.8
664.247	5383.6
664.439	5178.8
664.631	5449.13
664.822	5486
665.014	5223.86
665.205	5252.53
665.397	5211.57
665.588	5154.23
665.78	5127.6
665.971	5107.12
666.163	5062.07
666.354	5012.92
666.546	5154.23
666.737	4887.99
666.929	5072.31
667.12	5098.93
667.311	4883.89
667.503	4900.28
667.694	5023.16
667.885	4924.85
668.077	4988.34
668.268	4957.62
668.459	4875.7
668.651	4902.33
668.842	4652.47
669.033	4931
669.224	4761.02
669.416	4728.25
669.607	4765.11
669.798	4849.08
669.989	4662.71
670.18	4679.1
670.371	4687.29
670.563	4631.99
670.754	4713.91
670.945	4605.37
671.136	4681.14
671.327	4711.86
671.518	4648.38
671.709	4613.56
671.9	4599.23
672.091	4539.83
672.282	4535.74
672.473	4548.03
672.664	4451.77
672.855	4558.27
673.046	4412.86
673.237	4443.58
673.428	4472.25
673.619	4543.93
673.809	4533.69
674	4388.29
674.191	4429.24
674.382	4326.85
674.573	4390.33
674.764	4502.97
674.954	4439.48
675.145	4289.98
675.336	4394.43
675.527	4140.48
675.717	4365.76
675.908	4369.85
676.099	4488.64
676.289	4365.76
676.48	4294.08
676.671	4324.8
676.861	4249.02
677.052	4208.06
677.243	4373.95
677.433	4220.35
677.624	4201.92
677.814	4347.33
678.005	4195.78
678.195	4199.87
678.386	4367.81
678.576	4222.4
678.767	4154.82
678.957	4298.17
679.148	4351.42
679.338	4105.67
679.529	4306.37
679.719	4177.34
679.909	4376
680.1	4099.52
680.29	4201.92
680.481	4208.06
680.671	4236.74
680.861	4226.5
681.052	4273.6
681.242	4285.89
681.432	4277.69
681.622	4163.01
681.813	4171.2
682.003	4298.17
682.193	4140.48
682.383	4150.72
682.573	4154.82
682.764	4226.5
682.954	4060.61
683.144	4224.45
683.334	4150.72
683.524	4056.51
683.714	4187.58
683.904	4142.53
684.094	4163.01
684.284	4128.19
684.474	4249.02
684.664	4163.01
684.854	4226.5
685.044	4183.49
685.234	4163.01
685.424	4158.91
685.614	4134.34
685.804	4087.23
685.994	4079.04
686.184	3999.17
686.374	4007.36
686.564	3933.64
686.753	4126.15
686.943	3896.77
687.133	4064.71
687.323	4044.23
687.513	3988.93
687.702	3851.72
687.892	3962.31
688.082	3911.11
688.272	3995.08
688.461	3993.03
688.651	3915.2
688.841	3962.31
689.03	3851.72
689.22	3825.09
689.41	3761.61
689.599	3868.1
689.789	3894.72
689.979	3683.78
690.168	3765.7
690.358	3757.51
690.547	3839.43
690.737	3804.61
690.926	3929.54
691.116	3634.63
691.305	3888.58
691.495	3618.25
691.684	3757.51
691.874	3663.3
692.063	3605.96
692.252	3626.44
692.442	3714.5
692.631	3610.06
692.82	3636.68
693.01	3442.12
693.199	3577.29
693.388	3636.68
693.578	3567.05
693.767	3589.58
693.956	3608.01
694.146	3530.19
694.335	3423.69
694.524	3456.46
694.713	3548.62
694.902	3548.62
695.092	3503.56
695.281	3620.3
695.47	3476.94
695.659	3573.19
695.848	3472.84
696.037	3489.23
696.226	3571.15
696.415	3452.36
696.604	3603.91
696.793	3458.51
696.982	3425.74
697.171	3565
697.36	3429.84
697.549	3356.11
697.738	3401.16
697.927	3530.19
698.116	3417.55
698.305	3386.83
698.494	3452.36
698.683	3481.03
698.872	3417.55
699.061	3317.2
699.25	3466.7
699.438	3384.78
699.627	3448.27
699.816	3491.27
700.005	3464.65
700.193	3464.65
700.382	3425.74
700.571	3288.53
700.76	3325.39
700.948	3268.05
701.137	3321.29
701.326	3407.31
701.514	3401.16
701.703	3268.05
701.892	3329.49
702.08	3448.27
702.269	3366.35
702.457	3335.63
702.646	3378.64
702.834	3298.77
703.023	3399.12
703.212	3452.36
703.4	3337.68
703.589	3235.28
703.777	3466.7
703.965	3311.05
704.154	3493.32
704.342	3360.2
704.531	3362.25
704.719	3294.67
704.907	3454.41
705.096	3354.06
705.284	3349.96
705.472	3274.19
705.661	3399.12
705.849	3360.2
706.037	3407.31
706.226	3306.96
706.414	3431.88
706.602	3454.41
706.79	3409.36
706.979	3376.59
707.167	3409.36
707.355	3356.11
707.543	3397.07
707.731	3300.81
707.919	3335.63
708.107	3327.44
708.296	3200.46
708.484	3319.25
708.672	3286.48
708.86	3249.61
709.048	3325.39
709.236	3278.29
709.424	3376.59
709.612	3415.5
709.8	3302.86
709.988	3300.81
710.176	3251.66
710.364	3282.38
710.551	3372.49
710.739	3196.37
710.927	3210.7
711.115	3362.25
711.303	3388.88
711.491	3302.86
711.679	3175.89
711.866	3339.73
712.054	3474.89
712.242	3292.62
712.43	3478.99
712.617	3306.96
712.805	3440.08
712.993	3323.34
713.181	3323.34
713.368	3274.19
713.556	3423.69
713.744	3304.91
713.931	3446.22
714.119	3343.82
714.306	3483.08
714.494	3218.89
714.682	3212.75
714.869	3409.36
715.057	3401.16
715.244	3257.81
715.432	3360.2
715.619	3372.49
715.807	3341.77
715.994	3403.21
716.182	3216.85
716.369	3298.77
716.556	3395.02
716.744	3376.59
716.931	3366.35
717.119	3329.49
717.306	3356.11
717.493	3425.74
717.681	3438.03
717.868	3364.3
718.055	3331.53
718.242	3380.68
718.43	3388.88
718.617	3266
718.804	3384.78
718.991	3429.84
719.179	3304.91
719.366	3243.47
719.553	3284.43
719.74	3270.09
719.927	3388.88
720.114	3276.24
720.301	3345.87
720.488	3343.82
720.676	3214.8
720.863	3364.3
721.05	3395.02
721.237	3454.41
721.424	3288.53
721.611	3294.67
721.798	3286.48
721.985	3186.13
722.172	3405.26
722.358	3188.18
722.545	3270.09
722.732	3325.39
722.919	3311.05
723.106	3278.29
723.293	3282.38
723.48	3360.2
723.667	3239.37
723.853	3204.56
724.04	3362.25
724.227	3366.35
724.414	3319.25
724.6	3257.81
724.787	3282.38
724.974	3392.97
725.161	3237.33
725.347	3298.77
725.534	3288.53
725.72	3372.49
725.907	3268.05
726.094	3309.01
726.28	3284.43
726.467	3204.56
726.653	3292.62
726.84	3251.66
727.027	3306.96
727.213	3266
727.4	3343.82
727.586	3245.52
727.773	3290.57
727.959	3263.95
728.145	3241.42
728.332	3270.09
728.518	3298.77
728.705	3300.81
728.891	3302.86
729.077	3241.42
729.264	3282.38
729.45	3218.89
729.636	3290.57
729.823	3171.79
730.009	3208.66
730.195	3384.78
730.382	3319.25
730.568	3128.78
730.754	3263.95
730.94	3163.6
731.126	3159.5
731.313	3341.77
731.499	3081.68
731.685	3229.13
731.871	3182.03
732.057	3069.39
732.243	3079.63
732.429	3255.76
732.615	3134.93
732.801	3296.72
732.987	3171.79
733.173	3245.52
733.359	3096.02
733.545	3124.69
733.731	3114.45
733.917	3202.51
734.103	3143.12
734.289	3102.16
734.475	3057.11
734.661	3007.95
734.847	3227.09
735.033	3153.36
735.219	3122.64
735.404	3073.49
735.59	3040.72
735.776	3044.82
735.962	3196.37
736.148	3057.11
736.333	3003.86
736.519	3040.72
736.705	3007.95
736.89	3210.7
737.076	3112.4
737.262	2932.18
737.447	2856.4
737.633	3114.45
737.819	3038.67
738.004	2905.56
738.19	2999.76
738.375	2872.79
738.561	2979.28
738.747	3032.53
738.932	2860.5
739.118	3126.74
739.303	2975.19
739.489	2985.43
739.674	2754.01
739.859	2868.69
740.045	2901.46
740.23	2813.4
740.416	2989.52
740.601	2956.75
740.786	2958.8
740.972	2926.04
741.157	2827.73
741.342	2809.3
741.528	2768.34
741.713	2889.17
741.898	2704.85
742.084	2737.62
742.269	2737.62
742.454	2801.11
742.639	2825.68
742.824	2672.09
743.01	2878.93
743.195	2647.51
743.38	2680.28
743.565	2770.39
743.75	2751.96
743.935	2688.47
744.12	2686.42
744.305	2641.37
744.49	2690.52
744.675	2594.26
744.86	2639.32
745.045	2739.67
745.23	2653.66
745.415	2596.31
745.6	2528.73
745.785	2612.7
745.97	2493.91
746.155	2645.46
746.34	2487.77
746.525	2563.54
746.71	2332.12
746.895	2555.35
747.079	2463.19
747.264	2522.59
747.449	2452.95
747.634	2424.28
747.819	2452.95
748.003	2377.18
748.188	2366.94
748.373	2340.32
748.557	2254.3
748.742	2252.25
748.927	2237.92
749.111	2381.28
749.296	2287.07
749.481	2221.53
749.665	2151.9
749.85	2168.29
750.034	2231.77
750.219	2262.49
750.404	2180.57
750.588	2278.88
750.773	2135.52
750.957	2063.84
751.141	2147.81
751.326	2131.42
751.51	1963.49
751.695	2121.18
751.879	2112.99
752.064	2192.86
752.248	2072.03
752.432	2180.57
752.617	1961.44
752.801	1994.21
752.985	1971.68
753.17	1920.48
753.354	1988.07
753.538	2045.41
753.722	1840.61
753.907	1953.25
754.091	1900
754.275	1918.43
754.459	1738.21
754.643	1820.13
754.828	1869.28
755.012	1791.46
755.196	1840.61
755.38	1834.47
755.564	1656.29
755.748	1711.59
755.932	1770.98
756.116	1773.03
756.3	1787.36
756.484	1754.6
756.668	1662.44
756.852	1631.72
757.036	1701.35
757.22	1656.29
757.404	1693.16
757.588	1672.68
757.772	1555.94
757.956	1703.4
758.14	1695.21
758.323	1635.82
758.507	1766.89
758.691	1537.51
758.875	1594.86
759.059	1545.7
759.242	1510.89
759.426	1584.62
759.61	1588.71
759.794	1500.65
759.977	1537.51
760.161	1601
760.345	1529.32
760.528	1480.17
760.712	1426.92
760.895	1453.55
761.079	1496.55
761.263	1465.83
761.446	1510.89
761.63	1447.4
761.813	1461.74
761.997	1304.04
762.18	1367.53
762.364	1379.82
762.547	1265.13
762.731	1441.26
762.914	1252.84
763.098	1304.04
763.281	1385.96
763.464	1367.53
763.648	1275.37
763.831	1238.51
764.015	1310.19
764.198	1281.52
764.381	1353.2
764.564	1342.96
764.748	1234.41
764.931	1299.95
765.114	1207.79
765.297	1312.24
765.481	1246.7
765.664	1312.24
765.847	1244.65
766.03	1295.85
766.213	1271.28
766.397	1207.79
766.58	1201.65
766.763	1299.95
766.946	1213.93
767.129	1222.13
767.312	1246.7
767.495	1134.06
767.678	1162.73
767.861	1197.55
768.044	1205.74
768.227	1261.04
768.41	1050.1
768.593	1236.46
768.776	1269.23
768.959	1215.98
769.142	1228.27
769.324	1091.06
769.507	1097.2
769.69	1140.21
769.873	1050.1
770.056	1162.73
770.239	1121.77
770.421	1103.34
770.604	1195.5
770.787	1043.95
770.97	990.7
771.152	1033.71
771.335	1181.17
771.518	1058.29
771.7	1058.29
771.883	1070.58
772.066	1064.43
772.248	1041.9
772.431	1091.06
772.613	986.61
772.796	1082.86
772.978	1007.09
773.161	976.37
773.343	988.66
773.526	994.8
773.708	1025.52
773.891	968.18
774.073	1091.06
774.256	970.23
774.438	1037.81
774.621	937.46
774.803	962.03
774.985	998.9
775.168	976.37
775.35	951.79
775.532	927.22
775.715	914.93
775.897	955.89
776.079	861.68
776.261	937.46
776.444	855.54
776.626	937.46
776.808	882.16
776.99	884.21
777.173	890.35
777.355	890.35
777.537	910.83
777.719	792.05
777.901	916.98
778.083	835.06
778.265	837.11
778.447	814.58
778.629	820.72
778.811	773.62
778.993	792.05
779.175	773.62
779.357	773.62
779.539	699.89
779.721	742.9
779.903	808.44
780.085	720.37
780.267	706.04
780.449	777.72
780.631	718.33
780.812	751.09
780.994	724.47
781.176	718.33
781.358	689.65
781.54	706.04
781.721	777.72
781.903	697.85
782.085	546.3
782.267	689.65
782.448	710.13
782.63	607.73
782.812	683.51
782.993	615.93
783.175	726.52
783.357	611.83
783.538	581.11
783.72	663.03
783.901	681.46
784.083	613.88
784.264	574.97
784.446	566.78
784.627	626.17
784.809	583.16
784.99	599.54
785.172	665.08
785.353	611.83
785.535	484.86
785.716	566.78
785.897	534.01
786.079	503.29
786.26	497.14
786.441	521.72
786.623	550.39
786.804	517.62
786.985	505.34
787.167	495.1
787.348	634.36
787.529	513.53
787.71	681.46
787.891	433.66
788.073	560.63
788.254	527.86
788.435	525.82
788.616	513.53
788.797	454.14
788.978	499.19
789.159	443.9
789.34	488.95
789.522	560.63
789.703	521.72
789.884	464.38
790.065	462.33
790.246	472.57
790.427	409.08
790.607	493.05
790.788	519.67
790.969	407.03
791.15	503.29
791.331	429.56
791.512	447.99
791.693	439.8
791.874	423.42
792.054	425.47
792.235	519.67
792.416	450.04
792.597	400.89
792.778	329.21
792.958	413.18
793.139	443.9
793.32	392.7
793.5	400.89
793.681	378.36
793.862	466.42
794.042	364.03
794.223	419.32
794.404	411.13
794.584	384.51
794.765	386.55
794.945	335.35
795.126	407.03
795.306	390.65
795.487	337.4
795.667	374.27
795.848	421.37
796.028	345.59
796.209	386.55
796.389	388.6
796.57	374.27
796.75	333.31
796.93	435.71
797.111	294.4
797.291	380.41
797.471	396.79
797.652	321.02
797.832	249.34
798.012	329.21
798.192	310.78
798.373	310.78
798.553	357.88
798.733	351.74
798.913	282.11
799.093	284.16
799.274	353.79
799.454	417.27
799.634	298.49
799.814	310.78
799.994	370.17
800.174	345.59
800.354	294.4
800.534	269.82
800.714	286.2
800.894	296.44
801.074	271.87
801.254	335.35
801.434	280.06
801.614	316.92
801.794	257.53
801.974	824.82
802.154	288.25
802.334	316.92
802.514	228.86
802.693	339.45
802.873	302.59
803.053	312.83
803.233	278.01
803.413	349.69
803.592	318.97
803.772	280.06
803.952	214.52
804.131	267.77
804.311	278.01
804.491	316.92
804.67	288.25
804.85	257.53
805.03	310.78
805.209	321.02
805.389	247.29
805.568	253.44
805.748	308.73
805.928	304.64
806.107	255.48
806.287	249.34
806.466	278.01
806.646	300.54
806.825	232.96
807.004	194.05
807.184	286.2
807.363	249.34
807.543	280.06
807.722	304.64
807.901	296.44
808.081	275.96
808.26	187.9
808.439	183.81
808.619	294.4
808.798	112.13
808.977	263.68
809.156	218.62
809.336	226.81
809.515	222.72
809.694	163.33
809.873	192
810.052	255.48
810.231	263.68
810.411	284.16
810.59	257.53
810.769	271.87
810.948	263.68
811.127	202.24
811.306	243.2
811.485	208.38
811.664	247.29
811.843	208.38
812.022	273.92
812.201	173.57
812.38	241.15
812.559	181.76
812.737	202.24
812.916	165.37
813.095	226.81
813.274	204.28
813.453	171.52
813.632	181.76
813.811	294.4
813.989	146.94
814.168	155.13
814.347	198.14
814.526	198.14
814.704	239.1
814.883	177.66
815.062	232.96
815.24	192
815.419	196.09
815.598	263.68
815.776	185.85
815.955	187.9
816.133	161.28
816.312	103.93
816.49	212.48
816.669	175.61
816.847	173.57
817.026	241.15
817.204	212.48
817.383	261.63
817.561	214.52
817.74	161.28
817.918	118.27
818.097	200.19
818.275	171.52
818.453	181.76
818.632	103.93
818.81	206.33
818.988	134.65
819.167	140.8
819.345	187.9
819.523	153.09
819.701	163.33
819.879	204.28
820.058	185.85
820.236	183.81
820.414	69.12
820.592	173.57
820.77	124.41
820.948	124.41
821.127	132.61
821.305	204.28
821.483	87.55
821.661	157.18
821.839	185.85
822.017	132.61
822.195	112.13
822.373	177.66
822.551	153.09
822.729	179.71
822.907	95.74
823.085	189.95
823.262	128.51
823.44	136.7
823.618	101.89
823.796	157.18
823.974	153.09
824.152	202.24
824.329	138.75
824.507	148.99
824.685	163.33
824.863	181.76
825.04	130.56
825.218	120.32
825.396	114.17
825.574	235
825.751	126.46
825.929	194.05
826.107	87.55
826.284	101.89
826.462	126.46
826.639	38.4
826.817	87.55
826.994	202.24
827.172	132.61
827.349	93.69
827.527	175.61
827.704	175.61
827.882	177.66
828.059	130.56
828.237	62.98
828.414	110.08
828.591	103.93
828.769	122.37
828.946	81.41
829.124	165.37
829.301	73.21
829.478	185.85
829.655	157.18
829.833	175.61
830.01	38.4
830.187	93.69
830.364	99.84
830.542	120.32
830.719	136.7
830.896	65.02
831.073	103.93
831.25	122.37
831.427	114.17
831.604	108.03
831.782	71.17
831.959	171.52
832.136	89.6
832.313	112.13
832.49	46.59
832.667	108.03
832.844	85.5
833.021	132.61
833.198	134.65
833.374	161.28
833.551	81.41
833.728	99.84
833.905	124.41
834.082	22.02
834.259	99.84
834.436	192
834.612	85.5
834.789	105.98
834.966	34.3
835.143	126.46
835.319	79.36
835.496	144.89
835.673	144.89
835.85	179.71
836.026	183.81
836.203	198.14
836.38	67.07
836.556	67.07
836.733	173.57
836.909	153.09
837.086	93.69
837.262	95.74
837.439	46.59
837.616	58.88
837.792	122.37
837.968	101.89
838.145	19.97
838.321	116.22
838.498	120.32
838.674	130.56
838.851	48.64
839.027	93.69
839.203	81.41
839.38	40.45
839.556	19.97
839.732	112.13
839.909	89.6
840.085	87.55
840.261	67.07
840.437	83.45
840.614	85.5
840.79	24.06
840.966	165.37
841.142	85.5
841.318	87.55
841.494	91.65
841.671	99.84
841.847	15.87
842.023	65.02
842.199	73.21
842.375	58.88
842.551	75.26
842.727	58.88
842.903	58.88
843.079	48.64
843.255	122.37
843.431	89.6
843.607	11.78
843.783	-35.33
843.959	50.69
844.134	24.06
844.31	40.45
844.486	19.97
844.662	134.65
844.838	17.92
845.013	85.5
845.189	50.69
845.365	71.17
845.541	124.41
845.716	124.41
845.892	99.84
846.068	67.07
846.244	34.3
846.419	134.65
846.595	122.37
846.77	24.06
846.946	142.85
847.122	73.21
847.297	67.07
847.473	36.35
847.648	13.82
847.824	65.02
847.999	42.5
848.175	11.78
848.35	114.17
848.526	99.84
848.701	105.98
848.876	118.27
849.052	114.17
849.227	110.08
849.403	3.58
849.578	58.88
849.753	26.11
849.929	81.41
850.104	-29.18
850.279	116.22
850.454	65.02
850.63	71.17
850.805	34.3
850.98	42.5
851.155	130.56
851.33	103.93
851.505	32.26
851.681	62.98
851.856	58.88
852.031	81.41
852.206	30.21
852.381	9.73
852.556	114.17
852.731	50.69
852.906	1.54
853.081	30.21
853.256	60.93
853.431	30.21
853.606	-29.18
853.781	112.13
853.956	34.3
854.131	-10.75
854.305	112.13
854.48	22.02
854.655	15.87
854.83	34.3
855.005	-53.76
855.18	1.54
855.354	54.78
855.529	1.54
855.704	-0.51
855.879	97.79
856.053	28.16
856.228	38.4
856.403	95.74
856.577	144.89
856.752	34.3
856.926	34.3
857.101	46.59
857.276	34.3
857.45	85.5
857.625	95.74
857.799	56.83
857.974	67.07
858.148	-74.24
858.323	56.83
858.497	26.11
858.672	22.02
858.846	-6.66
859.02	15.87
859.195	67.07
859.369	67.07
859.543	19.97
859.718	75.26
859.892	22.02
860.066	11.78
860.241	19.97
860.415	52.74
860.589	75.26
860.763	58.88
860.938	-39.42
861.112	126.46
861.286	42.5
861.46	34.3
861.634	5.63
861.808	-10.75
861.982	89.6
862.157	5.63
862.331	50.69
862.505	-51.71
862.679	101.89
862.853	58.88
863.027	54.78
863.201	87.55
863.375	46.59
863.549	65.02
863.722	28.16
863.896	48.64
864.07	34.3
864.244	65.02
864.418	32.26
864.592	-6.66
864.766	38.4
864.939	44.54
865.113	-8.7
865.287	77.31
865.461	99.84
865.634	54.78
865.808	97.79
865.982	58.88
866.156	30.21
866.329	17.92
866.503	-55.81
866.676	1.54
866.85	73.21
867.024	-8.7
867.197	58.88
867.371	48.64
867.544	22.02
867.718	75.26
867.891	81.41
868.065	-4.61
868.238	36.35
868.412	-20.99
868.585	-25.09
868.759	79.36
868.932	17.92
869.105	-59.9
869.279	34.3
869.452	9.73
869.625	128.51
869.799	-12.8
869.972	-6.66
870.145	3.58
870.319	50.69
870.492	50.69
870.665	26.11
870.838	-10.75
871.011	-18.94
871.185	-14.85
871.358	40.45
871.531	114.17
871.704	22.02
871.877	75.26
872.05	-16.9
872.223	38.4
872.396	99.84
872.569	9.73
872.742	38.4
872.915	-14.85
873.088	-45.57
873.261	-0.51
873.434	65.02
873.607	44.54
873.78	54.78
873.953	42.5
874.126	120.32
874.299	30.21
874.471	17.92
874.644	65.02
874.817	75.26
874.99	34.3
875.163	-25.09
875.335	46.59
875.508	30.21
875.681	36.35
875.853	32.26
876.026	138.75
876.199	52.74
876.371	5.63
876.544	89.6
876.717	77.31
876.889	5.63
877.062	77.31
877.234	-6.66
877.407	22.02
877.579	-4.61
877.752	-64
877.924	15.87
878.097	38.4
878.269	81.41
878.442	50.69
878.614	50.69
878.786	30.21
878.959	34.3
879.131	-55.81
879.303	-37.38
879.476	52.74
879.648	-10.75
879.82	34.3
879.993	-25.09
880.165	42.5
880.337	-47.62
880.509	46.59
880.681	17.92
880.854	-29.18
881.026	42.5
881.198	71.17
881.37	-16.9
881.542	79.36
881.714	50.69
881.886	71.17
882.058	-37.38
882.23	13.82
882.402	-14.85
882.574	-6.66
882.746	34.3
882.918	-49.66
883.09	17.92
883.262	-43.52
883.434	36.35
883.606	-33.28
883.778	-10.75
883.95	75.26
884.122	-2.56
884.293	73.21
884.465	-2.56
884.637	32.26
884.809	32.26
884.98	15.87
885.152	81.41
885.324	52.74
885.496	50.69
885.667	-0.51
885.839	-10.75
886.011	103.93
886.182	-27.14
886.354	-2.56
886.525	1.54
886.697	-2.56
886.869	1.54
887.04	-6.66
887.212	26.11
887.383	108.03
887.555	-35.33
887.726	48.64
887.897	-4.61
888.069	50.69
888.24	83.45
888.412	40.45
888.583	-14.85
888.754	50.69
888.926	34.3
889.097	15.87
889.268	-33.28
889.44	-37.38
889.611	-6.66
889.782	-0.51
889.953	-8.7
890.125	1.54
890.296	-6.66
890.467	-8.7
890.638	44.54
890.809	99.84
890.98	-27.14
891.151	46.59
891.323	34.3
891.494	-10.75
891.665	-2.56
891.836	1.54
892.007	62.98
892.178	-10.75
892.349	-2.56
892.52	79.36
892.691	48.64
892.862	75.26
893.032	-27.14
893.203	56.83
893.374	5.63
893.545	-23.04
893.716	-25.09
893.887	50.69
894.057	32.26
894.228	-18.94
894.399	9.73
894.57	11.78
894.74	-31.23
894.911	46.59
895.082	42.5
895.253	-10.75
895.423	69.12
895.594	-2.56
895.764	13.82
895.935	34.3
896.106	-47.62
896.276	1.54
896.447	-51.71
896.617	-76.29
896.788	-27.14
896.958	48.64
897.129	-25.09
897.299	34.3
897.47	75.26
897.64	19.97
897.81	-47.62
897.981	58.88
898.151	1.54
898.322	42.5
898.492	34.3
898.662	-45.57
898.832	38.4
899.003	26.11
899.173	69.12
899.343	9.73
899.513	-2.56
