Data from USB4F104151__234__10-30-26-543.txt Node

Date: Wed Mar 12 10:30:26 EDT 2025
User: louis
Spectrometer: USB4F10415
Trigger mode: 4
Integration Time (sec): 3.000000E-2
Scans to average: 1
Electric dark correction enabled: true
Nonlinearity correction enabled: false
Boxcar width: 0
XAxis mode: Wavelengths
Number of Pixels in Spectrum: 3648
>>>>>Begin Spectral Data<<<<<
178.204	-92.33
178.424	-92.33
178.644	-92.33
178.864	-174.25
179.084	-67.75
179.304	-22.7
179.524	26.45
179.744	71.51
179.964	-2.22
180.184	-104.62
180.404	8.02
180.624	51.03
180.844	-39.08
181.064	-26.79
181.283	-24.75
181.503	34.64
181.723	28.5
181.943	-30.89
182.163	61.27
182.383	-51.37
182.602	79.7
182.822	30.55
183.042	8.02
183.262	12.12
183.482	8.02
183.701	-16.55
183.921	-32.94
184.141	-18.6
184.361	22.36
184.58	38.74
184.8	-12.46
185.02	26.45
185.239	36.69
185.459	55.12
185.679	48.98
185.898	-0.17
186.118	91.99
186.338	10.07
186.557	83.8
186.777	-22.7
186.997	5.97
187.216	-39.08
187.436	44.88
187.655	46.93
187.875	110.42
188.095	-51.37
188.314	1.88
188.534	79.7
188.753	32.6
188.973	38.74
189.192	26.45
189.412	18.26
189.631	69.46
189.851	16.21
190.07	63.32
190.29	55.12
190.509	5.97
190.729	16.21
190.948	120.66
191.168	190.29
191.387	65.36
191.607	-12.46
191.826	26.45
192.045	34.64
192.265	38.74
192.484	-57.51
192.704	1.88
192.923	-30.89
193.142	63.32
193.362	102.23
193.581	63.32
193.8	98.13
194.02	65.36
194.239	38.74
194.458	48.98
194.678	14.17
194.897	-61.61
195.116	-90.28
195.335	-24.75
195.555	30.55
195.774	75.6
195.993	22.36
196.212	124.76
196.432	34.64
196.651	-14.51
196.87	-0.17
197.089	100.18
197.308	-37.03
197.528	48.98
197.747	-8.36
197.966	40.79
198.185	1.88
198.404	-0.17
198.623	40.79
198.842	61.27
199.062	26.45
199.281	145.24
199.5	24.4
199.719	-6.31
199.938	48.98
200.157	24.4
200.376	-18.6
200.595	44.88
200.814	-0.17
201.033	20.31
201.252	-20.65
201.471	81.75
201.69	-8.36
201.909	8.02
202.128	77.65
202.347	67.41
202.566	1.88
202.785	14.17
203.004	40.79
203.223	42.84
203.442	-30.89
203.661	-49.32
203.879	18.26
204.098	-28.84
204.317	5.97
204.536	34.64
204.755	63.32
204.974	26.45
205.193	-2.22
205.411	124.76
205.63	14.17
205.849	26.45
206.068	-0.17
206.287	24.4
206.505	18.26
206.724	-65.71
206.943	-8.36
207.162	44.88
207.381	51.03
207.599	26.45
207.818	-0.17
208.037	16.21
208.255	8.02
208.474	-8.36
208.693	26.45
208.911	-37.03
209.13	26.45
209.349	87.89
209.567	-6.31
209.786	91.99
210.005	57.17
210.223	-26.79
210.442	-28.84
210.661	32.6
210.879	87.89
211.098	26.45
211.316	81.75
211.535	51.03
211.753	30.55
211.972	-10.41
212.191	-2.22
212.409	-14.51
212.628	48.98
212.846	-39.08
213.065	63.32
213.283	55.12
213.502	79.7
213.72	-55.47
213.938	69.46
214.157	8.02
214.375	16.21
214.594	1.88
214.812	48.98
215.031	5.97
215.249	-0.17
215.467	53.08
215.686	8.02
215.904	26.45
216.122	46.93
216.341	46.93
216.559	63.32
216.778	22.36
216.996	63.32
217.214	28.5
217.432	-2.22
217.651	-28.84
217.869	-2.22
218.087	53.08
218.306	48.98
218.524	55.12
218.742	-53.42
218.96	55.12
219.179	-20.65
219.397	98.13
219.615	24.4
219.833	-67.75
220.051	-32.94
220.27	102.23
220.488	14.17
220.706	32.6
220.924	10.07
221.142	-10.41
221.36	73.56
221.578	1.88
221.796	46.93
222.015	65.36
222.233	-8.36
222.451	124.76
222.669	3.93
222.887	57.17
223.105	5.97
223.323	-4.27
223.541	-2.22
223.759	-24.75
223.977	-18.6
224.195	38.74
224.413	12.12
224.631	36.69
224.849	14.17
225.067	108.37
225.285	-8.36
225.503	42.84
225.721	20.31
225.939	3.93
226.157	-32.94
226.375	59.22
226.592	-8.36
226.81	18.26
227.028	36.69
227.246	116.56
227.464	42.84
227.682	-14.51
227.9	75.6
228.117	116.56
228.335	16.21
228.553	20.31
228.771	63.32
228.989	89.94
229.206	-39.08
229.424	42.84
229.642	-0.17
229.86	20.31
230.077	5.97
230.295	-18.6
230.513	-0.17
230.731	38.74
230.948	32.6
231.166	67.41
231.384	85.84
231.601	24.4
231.819	10.07
232.037	-34.99
232.254	5.97
232.472	-14.51
232.689	-0.17
232.907	61.27
233.125	65.36
233.342	46.93
233.56	5.97
233.777	-14.51
233.995	63.32
234.213	108.37
234.43	112.47
234.648	-8.36
234.865	130.9
235.083	1.88
235.3	-75.95
235.518	69.46
235.735	28.5
235.953	-8.36
236.17	63.32
236.388	46.93
236.605	-12.46
236.822	32.6
237.04	53.08
237.257	44.88
237.475	14.17
237.692	40.79
237.909	1.88
238.127	-14.51
238.344	-0.17
238.562	44.88
238.779	18.26
238.996	-77.99
239.214	59.22
239.431	10.07
239.648	57.17
239.865	59.22
240.083	61.27
240.3	-12.46
240.517	61.27
240.735	38.74
240.952	65.36
241.169	-49.32
241.386	46.93
241.603	48.98
241.821	-37.03
242.038	24.4
242.255	42.84
242.472	63.32
242.689	16.21
242.907	32.6
243.124	14.17
243.341	1.88
243.558	30.55
243.775	24.4
243.992	-0.17
244.209	1.88
244.426	85.84
244.643	30.55
244.86	-12.46
245.078	20.31
245.295	122.71
245.512	69.46
245.729	-10.41
245.946	124.76
246.163	30.55
246.38	-43.18
246.597	57.17
246.814	128.85
247.031	79.7
247.248	55.12
247.464	36.69
247.681	42.84
247.898	59.22
248.115	83.8
248.332	30.55
248.549	20.31
248.766	12.12
248.983	44.88
249.2	26.45
249.417	96.08
249.633	-4.27
249.85	153.43
250.067	38.74
250.284	22.36
250.501	32.6
250.717	126.8
250.934	-22.7
251.151	3.93
251.368	32.6
251.585	67.41
251.801	118.61
252.018	-37.03
252.235	44.88
252.451	32.6
252.668	3.93
252.885	-14.51
253.102	28.5
253.318	65.36
253.535	26.45
253.752	59.22
253.968	42.84
254.185	32.6
254.401	44.88
254.618	-26.79
254.835	14.17
255.051	16.21
255.268	46.93
255.484	75.6
255.701	36.69
255.917	-26.79
256.134	10.07
256.351	59.22
256.567	-26.79
256.784	-24.75
257	-55.47
257.217	75.6
257.433	40.79
257.65	-32.94
257.866	24.4
258.082	-14.51
258.299	-43.18
258.515	51.03
258.732	-34.99
258.948	-12.46
259.165	-2.22
259.381	1.88
259.597	91.99
259.814	-14.51
260.03	91.99
260.246	55.12
260.463	87.89
260.679	38.74
260.895	36.69
261.112	59.22
261.328	18.26
261.544	-14.51
261.761	73.56
261.977	16.21
262.193	-88.23
262.409	61.27
262.626	48.98
262.842	57.17
263.058	24.4
263.274	61.27
263.49	79.7
263.707	38.74
263.923	-32.94
264.139	5.97
264.355	59.22
264.571	71.51
264.787	-6.31
265.004	48.98
265.22	-18.6
265.436	-6.31
265.652	57.17
265.868	10.07
266.084	8.02
266.3	46.93
266.516	8.02
266.732	94.04
266.948	83.8
267.164	-41.13
267.38	-34.99
267.596	53.08
267.812	75.6
268.028	65.36
268.244	69.46
268.46	-0.17
268.676	55.12
268.892	55.12
269.108	51.03
269.324	36.69
269.54	-24.75
269.756	-0.17
269.972	20.31
270.188	24.4
270.403	10.07
270.619	65.36
270.835	100.18
271.051	-20.65
271.267	42.84
271.483	53.08
271.698	55.12
271.914	104.28
272.13	91.99
272.346	1.88
272.562	24.4
272.777	48.98
272.993	34.64
273.209	40.79
273.425	28.5
273.64	1.88
273.856	14.17
274.072	-28.84
274.287	10.07
274.503	67.41
274.719	61.27
274.934	53.08
275.15	36.69
275.366	55.12
275.581	16.21
275.797	34.64
276.012	46.93
276.228	10.07
276.444	-14.51
276.659	51.03
276.875	14.17
277.09	-6.31
277.306	34.64
277.521	48.98
277.737	-24.75
277.952	-43.18
278.168	-6.31
278.383	67.41
278.599	36.69
278.814	75.6
279.03	16.21
279.245	69.46
279.461	3.93
279.676	46.93
279.892	-32.94
280.107	32.6
280.322	-14.51
280.538	-0.17
280.753	20.31
280.969	10.07
281.184	18.26
281.399	61.27
281.615	67.41
281.83	42.84
282.045	-10.41
282.26	-45.23
282.476	16.21
282.691	10.07
282.906	36.69
283.122	57.17
283.337	63.32
283.552	57.17
283.767	46.93
283.983	30.55
284.198	24.4
284.413	69.46
284.628	-2.22
284.843	94.04
285.058	44.88
285.274	53.08
285.489	-0.17
285.704	65.36
285.919	-2.22
286.134	53.08
286.349	8.02
286.564	22.36
286.779	18.26
286.995	3.93
287.21	8.02
287.425	18.26
287.64	-6.31
287.855	-34.99
288.07	-6.31
288.285	16.21
288.5	5.97
288.715	-22.7
288.93	36.69
289.145	-2.22
289.36	59.22
289.575	-2.22
289.79	106.32
290.004	-18.6
290.219	8.02
290.434	10.07
290.649	91.99
290.864	32.6
291.079	34.64
291.294	-43.18
291.509	26.45
291.724	63.32
291.938	-39.08
292.153	-37.03
292.368	48.98
292.583	53.08
292.798	38.74
293.012	5.97
293.227	118.61
293.442	-30.89
293.657	-0.17
293.871	59.22
294.086	5.97
294.301	73.56
294.516	8.02
294.73	44.88
294.945	34.64
295.16	59.22
295.374	96.08
295.589	79.7
295.804	8.02
296.018	63.32
296.233	36.69
296.447	46.93
296.662	71.51
296.877	79.7
297.091	-10.41
297.306	-0.17
297.52	42.84
297.735	85.84
297.949	-2.22
298.164	51.03
298.378	116.56
298.593	-20.65
298.807	22.36
299.022	96.08
299.236	42.84
299.451	71.51
299.665	98.13
299.88	8.02
300.094	8.02
300.309	-12.46
300.523	-24.75
300.737	5.97
300.952	59.22
301.166	79.7
301.381	-75.95
301.595	-8.36
301.809	3.93
302.024	77.65
302.238	22.36
302.452	106.32
302.667	26.45
302.881	91.99
303.095	79.7
303.309	91.99
303.524	65.36
303.738	77.65
303.952	-2.22
304.166	63.32
304.381	30.55
304.595	53.08
304.809	-34.99
305.023	48.98
305.237	-0.17
305.452	26.45
305.666	3.93
305.88	122.71
306.094	59.22
306.308	22.36
306.522	8.02
306.736	22.36
306.95	20.31
307.164	10.07
307.379	-20.65
307.593	73.56
307.807	16.21
308.021	79.7
308.235	28.5
308.449	-0.17
308.663	59.22
308.877	89.94
309.091	98.13
309.305	-26.79
309.519	-2.22
309.733	10.07
309.947	83.8
310.161	12.12
310.374	42.84
310.588	79.7
310.802	-18.6
311.016	-4.27
311.23	53.08
311.444	59.22
311.658	89.94
311.872	83.8
312.085	67.41
312.299	132.95
312.513	81.75
312.727	16.21
312.941	26.45
313.154	51.03
313.368	55.12
313.582	67.41
313.796	51.03
314.009	-24.75
314.223	24.4
314.437	71.51
314.651	42.84
314.864	20.31
315.078	30.55
315.292	-71.85
315.505	-4.27
315.719	65.36
315.933	-16.55
316.146	53.08
316.36	112.47
316.573	16.21
316.787	14.17
317.001	83.8
317.214	-8.36
317.428	46.93
317.641	10.07
317.855	20.31
318.068	-4.27
318.282	-147.62
318.495	8.02
318.709	38.74
318.922	61.27
319.136	46.93
319.349	91.99
319.563	69.46
319.776	34.64
319.99	59.22
320.203	-39.08
320.417	63.32
320.63	34.64
320.843	83.8
321.057	-34.99
321.27	63.32
321.483	65.36
321.697	104.28
321.91	-0.17
322.124	67.41
322.337	-0.17
322.55	83.8
322.763	34.64
322.977	-14.51
323.19	53.08
323.403	53.08
323.617	83.8
323.83	100.18
324.043	-0.17
324.256	55.12
324.469	10.07
324.683	102.23
324.896	-26.79
325.109	51.03
325.322	51.03
325.535	5.97
325.748	14.17
325.962	-6.31
326.175	57.17
326.388	40.79
326.601	34.64
326.814	59.22
327.027	89.94
327.24	22.36
327.453	51.03
327.666	-14.51
327.879	42.84
328.092	81.75
328.305	61.27
328.518	34.64
328.731	42.84
328.944	26.45
329.157	34.64
329.37	34.64
329.583	22.36
329.796	69.46
330.009	3.93
330.222	44.88
330.435	26.45
330.648	12.12
330.861	-37.03
331.073	28.5
331.286	1.88
331.499	75.6
331.712	44.88
331.925	67.41
332.138	30.55
332.35	79.7
332.563	14.17
332.776	26.45
332.989	61.27
333.202	73.56
333.414	-57.51
333.627	22.36
333.84	18.26
334.053	46.93
334.265	51.03
334.478	-10.41
334.691	24.4
334.903	14.17
335.116	-41.13
335.329	-22.7
335.541	38.74
335.754	42.84
335.966	24.4
336.179	3.93
336.392	77.65
336.604	-8.36
336.817	89.94
337.029	106.32
337.242	63.32
337.454	-12.46
337.667	-43.18
337.88	89.94
338.092	94.04
338.305	32.6
338.517	61.27
338.729	51.03
338.942	81.75
339.154	55.12
339.367	-18.6
339.579	1.88
339.792	38.74
340.004	-12.46
340.217	-30.89
340.429	63.32
340.641	40.79
340.854	22.36
341.066	30.55
341.278	53.08
341.491	87.89
341.703	42.84
341.915	14.17
342.128	63.32
342.34	44.88
342.552	73.56
342.764	24.4
342.977	85.84
343.189	38.74
343.401	-4.27
343.613	28.5
343.826	-0.17
344.038	-39.08
344.25	3.93
344.462	-10.41
344.674	91.99
344.886	18.26
345.099	69.46
345.311	65.36
345.523	44.88
345.735	-47.27
345.947	1.88
346.159	-18.6
346.371	63.32
346.583	-30.89
346.795	135
347.007	-18.6
347.219	53.08
347.431	34.64
347.643	51.03
347.855	-8.36
348.067	91.99
348.279	-8.36
348.491	32.6
348.703	53.08
348.915	24.4
349.127	59.22
349.339	24.4
349.551	63.32
349.763	81.75
349.975	32.6
350.187	87.89
350.399	22.36
350.61	3.93
350.822	83.8
351.034	-4.27
351.246	57.17
351.458	-0.17
351.669	51.03
351.881	34.64
352.093	98.13
352.305	79.7
352.517	1.88
352.728	61.27
352.94	61.27
353.152	63.32
353.363	32.6
353.575	106.32
353.787	5.97
353.999	100.18
354.21	128.85
354.422	-43.18
354.633	94.04
354.845	83.8
355.057	106.32
355.268	75.6
355.48	73.56
355.692	65.36
355.903	-18.6
356.115	34.64
356.326	-22.7
356.538	104.28
356.749	87.89
356.961	75.6
357.172	73.56
357.384	89.94
357.595	-10.41
357.807	12.12
358.018	18.26
358.23	22.36
358.441	34.64
358.653	34.64
358.864	-2.22
359.075	73.56
359.287	24.4
359.498	42.84
359.709	83.8
359.921	38.74
360.132	10.07
360.344	-16.55
360.555	28.5
360.766	26.45
360.977	85.84
361.189	73.56
361.4	36.69
361.611	71.51
361.823	3.93
362.034	22.36
362.245	94.04
362.456	-14.51
362.667	77.65
362.879	59.22
363.09	57.17
363.301	12.12
363.512	75.6
363.723	55.12
363.935	10.07
364.146	91.99
364.357	65.36
364.568	32.6
364.779	-4.27
364.99	77.65
365.201	38.74
365.412	65.36
365.623	20.31
365.834	46.93
366.045	-4.27
366.256	77.65
366.467	63.32
366.678	94.04
366.889	18.26
367.1	65.36
367.311	5.97
367.522	-12.46
367.733	55.12
367.944	81.75
368.155	8.02
368.366	73.56
368.577	59.22
368.788	116.56
368.999	1.88
369.209	63.32
369.42	135
369.631	137.04
369.842	55.12
370.053	40.79
370.264	81.75
370.474	8.02
370.685	69.46
370.896	8.02
371.107	89.94
371.317	1.88
371.528	48.98
371.739	46.93
371.95	30.55
372.16	104.28
372.371	28.5
372.582	34.64
372.792	53.08
373.003	81.75
373.214	3.93
373.424	81.75
373.635	-71.85
373.846	81.75
374.056	36.69
374.267	44.88
374.477	30.55
374.688	32.6
374.898	65.36
375.109	81.75
375.319	73.56
375.53	87.89
375.74	83.8
375.951	-8.36
376.161	24.4
376.372	100.18
376.582	-28.84
376.793	108.37
377.003	51.03
377.214	46.93
377.424	67.41
377.635	112.47
377.845	55.12
378.055	53.08
378.266	48.98
378.476	124.76
378.686	89.94
378.897	77.65
379.107	10.07
379.317	40.79
379.528	5.97
379.738	53.08
379.948	61.27
380.158	5.97
380.369	73.56
380.579	81.75
380.789	77.65
380.999	108.37
381.21	108.37
381.42	63.32
381.63	73.56
381.84	67.41
382.05	1.88
382.261	81.75
382.471	81.75
382.681	26.45
382.891	75.6
383.101	44.88
383.311	16.21
383.521	22.36
383.731	65.36
383.941	48.98
384.151	71.51
384.361	79.7
384.571	38.74
384.781	55.12
384.991	126.8
385.201	91.99
385.411	85.84
385.621	55.12
385.831	42.84
386.041	1.88
386.251	18.26
386.461	175.95
386.671	18.26
386.881	106.32
387.091	116.56
387.301	98.13
387.511	38.74
387.72	120.66
387.93	20.31
388.14	26.45
388.35	34.64
388.56	26.45
388.769	114.52
388.979	59.22
389.189	42.84
389.399	122.71
389.609	106.32
389.818	128.85
390.028	28.5
390.238	79.7
390.447	34.64
390.657	83.8
390.867	48.98
391.076	36.69
391.286	26.45
391.496	53.08
391.705	81.75
391.915	89.94
392.125	46.93
392.334	65.36
392.544	100.18
392.753	73.56
392.963	100.18
393.172	126.8
393.382	26.45
393.591	71.51
393.801	42.84
394.01	83.8
394.22	83.8
394.429	75.6
394.639	55.12
394.848	110.42
395.058	65.36
395.267	81.75
395.477	137.04
395.686	130.9
395.895	157.52
396.105	122.71
396.314	81.75
396.524	118.61
396.733	96.08
396.942	108.37
397.152	106.32
397.361	147.28
397.57	128.85
397.78	55.12
397.989	102.23
398.198	108.37
398.407	75.6
398.617	173.91
398.826	96.08
399.035	100.18
399.244	98.13
399.453	157.52
399.663	145.24
399.872	124.76
400.081	18.26
400.29	83.8
400.499	108.37
400.708	157.52
400.917	98.13
401.127	192.34
401.336	75.6
401.545	139.09
401.754	157.52
401.963	141.14
402.172	71.51
402.381	114.52
402.59	178
402.799	165.71
403.008	210.77
403.217	67.41
403.426	155.47
403.635	89.94
403.844	157.52
404.053	184.15
404.262	122.71
404.471	169.81
404.68	137.04
404.888	208.72
405.097	165.71
405.306	110.42
405.515	89.94
405.724	141.14
405.933	192.34
406.142	184.15
406.35	186.19
406.559	184.15
406.768	268.11
406.977	243.54
407.185	253.78
407.394	272.21
407.603	186.19
407.812	243.54
408.02	331.6
408.229	261.97
408.438	298.83
408.646	282.45
408.855	307.02
409.064	366.42
409.272	307.02
409.481	304.98
409.69	345.94
409.898	329.55
410.107	372.56
410.315	382.8
410.524	403.28
410.733	448.33
410.941	378.7
411.15	329.55
411.358	366.42
411.567	454.48
411.775	386.9
411.984	534.35
412.192	468.81
412.401	485.2
412.609	593.74
412.818	536.4
413.026	589.64
413.234	524.11
413.443	649.04
413.651	546.64
413.86	567.12
414.068	653.13
414.276	765.77
414.485	683.85
414.693	675.66
414.901	796.49
415.11	730.95
415.318	835.4
415.526	786.25
415.734	778.06
415.943	943.94
416.151	968.52
416.359	788.3
416.567	937.8
416.776	1023.81
416.984	1165.12
417.192	1072.96
417.4	1124.16
417.608	1103.68
417.817	1091.4
418.025	1206.08
418.233	1384.26
418.441	1251.14
418.649	1288
418.857	1472.32
419.065	1478.46
419.273	1328.96
419.481	1396.54
419.689	1513.28
419.897	1636.16
420.105	1754.94
420.313	1693.5
420.521	1763.13
420.729	1744.7
420.937	1828.67
421.145	1877.82
421.353	2004.79
421.561	2230.07
421.769	2197.3
421.977	2232.12
422.185	2275.12
422.393	2395.95
422.601	2543.41
422.809	2508.59
423.017	2467.63
423.224	2572.08
423.432	2697
423.64	2713.39
423.848	2989.86
424.056	2940.71
424.263	3155.75
424.471	3139.37
424.679	3045.16
424.887	3383.07
425.094	3469.09
425.302	3487.52
425.51	3651.36
425.718	3804.96
425.925	3690.27
426.133	4034.33
426.341	4257.56
426.548	4364.05
426.756	4409.11
426.964	4431.63
427.171	4636.43
427.379	4749.07
427.586	4706.06
427.794	4878.09
428.001	5203.72
428.209	5572.35
428.417	5385.99
428.624	5668.61
428.832	5791.48
429.039	5512.96
429.247	5668.61
429.454	6192.89
429.662	6733.55
429.869	6244.09
430.076	6893.29
430.284	6358.77
430.491	6792.94
430.699	6954.73
430.906	7157.48
431.114	7378.66
431.321	7380.71
431.528	7519.97
431.736	8150.74
431.943	8324.82
432.15	8367.83
432.358	8337.11
432.565	8847.05
432.772	8517.33
432.979	9227.98
433.187	9348.81
433.394	9299.66
433.601	10073.79
433.808	10088.12
434.016	10028.73
434.223	10276.54
434.43	11093.68
434.637	10911.41
434.844	11212.46
435.052	11593.38
435.259	11726.5
435.466	11642.53
435.673	11667.11
435.88	12160.67
436.087	13131.4
436.294	12865.17
436.501	12869.26
436.708	13061.77
436.915	13409.93
437.122	14171.77
437.329	14069.37
437.537	14233.21
437.743	14659.19
437.95	14444.15
438.157	15335.02
438.364	15621.73
438.571	15595.11
438.778	15758.95
438.985	17292.88
439.192	16600.66
439.399	17153.62
439.606	16664.15
439.813	17716.81
440.02	18368.06
440.227	18380.35
440.433	18337.34
440.64	18984.5
440.847	18669.11
441.054	19166.77
441.261	20448.8
441.467	20088.35
441.674	20506.14
441.881	21286.42
442.088	21186.07
442.294	20991.51
442.501	21650.95
442.708	21966.34
442.914	22717.95
443.121	23604.72
443.328	23219.7
443.534	24770.01
443.741	24085.99
443.948	23631.34
444.154	25521.62
444.361	25288.15
444.568	25816.52
444.774	25361.87
444.981	25982.41
445.187	26885.56
445.394	27577.78
445.6	27415.99
445.807	29953.42
446.013	28913.05
446.22	29248.92
446.426	30166.41
446.633	30481.8
446.839	31257.98
447.046	30131.59
447.252	31892.85
447.459	31735.15
447.665	31686
447.871	33242.46
448.078	34528.58
448.284	32922.97
448.491	33738.07
448.697	34903.36
448.903	35392.83
449.11	35626.29
449.316	34594.12
449.522	35204.41
449.728	36738.34
449.935	36928.8
450.141	36574.5
450.347	37692.69
450.553	36302.12
450.76	36662.57
450.966	37494.04
451.172	37336.35
451.378	38577.42
451.584	37625.11
451.791	38530.31
451.997	38257.93
452.203	38984.96
452.409	38659.34
452.615	38292.75
452.821	37422.36
453.027	36701.48
453.233	38712.58
453.44	36857.12
453.646	37799.19
453.852	37637.4
454.058	38081.81
454.264	36871.46
454.47	37897.49
454.676	36918.56
454.882	38276.37
455.088	34712.9
455.294	35374.39
455.5	35493.18
455.705	36068.65
455.911	34463.05
456.117	34008.4
456.323	33586.52
456.529	31855.98
456.735	33389.91
456.941	32105.84
457.147	31597.94
457.352	30875.01
457.558	30219.66
457.764	30365.06
457.97	29939.08
458.176	28882.33
458.381	29398.42
458.587	27475.38
458.793	27680.17
458.999	25961.93
459.204	27913.64
459.41	27612.59
459.616	25867.72
459.821	25470.42
460.027	25595.34
460.233	25099.73
460.438	23709.16
460.644	23903.72
460.85	22873.59
461.055	22754.81
461.261	22390.27
461.466	20858.39
461.672	20055.59
461.878	21976.58
462.083	20174.37
462.289	19914.28
462.494	19592.75
462.7	18939.44
462.905	18499.13
463.111	19023.41
463.316	19332.65
463.522	18777.65
463.727	18921.01
463.932	18441.79
464.138	18439.74
464.343	18495.04
464.549	18067.01
464.754	18622.01
464.959	18269.76
465.165	18204.22
465.37	17725
465.575	17200.72
465.781	17962.56
465.986	17673.8
466.191	17219.15
466.397	16957.01
466.602	16238.17
466.807	16895.57
467.012	16811.6
467.218	16709.21
467.423	16307.8
467.628	16506.46
467.833	17280.59
468.038	16299.61
468.244	16156.25
468.449	16727.64
468.654	16211.55
468.859	16031.33
469.064	15939.17
469.269	15414.89
469.474	15674.98
469.679	15828.58
469.885	15236.72
470.09	15439.47
470.295	15562.34
470.5	14997.1
470.705	15142.51
470.91	14837.36
471.115	14509.69
471.32	14950
471.525	14855.79
471.73	14601.85
471.935	14468.73
472.139	13997.7
472.344	14208.64
472.549	13993.6
472.754	13862.53
472.959	13502.09
473.164	13201.04
473.369	13022.86
473.574	13489.8
473.778	13485.7
473.983	13256.33
474.188	13127.31
474.393	12582.55
474.598	12725.91
474.802	12699.28
475.007	12408.47
475.212	12531.35
475.417	11966.11
475.621	12009.12
475.826	12125.85
476.031	11839.14
476.235	11783.84
476.44	11816.61
476.645	11503.27
476.849	11579.04
477.054	11751.07
477.259	11212.46
477.463	11304.62
477.668	10954.41
477.872	11093.68
478.077	11142.83
478.282	10768.05
478.486	10542.77
478.691	10534.58
478.895	10567.35
479.1	10258.1
479.304	10542.77
479.509	10383.03
479.713	10503.86
479.918	10227.39
480.122	10047.16
480.326	10159.8
480.531	10235.58
480.735	9963.2
480.94	9995.96
481.144	10278.58
481.348	9694.91
481.553	9823.94
481.757	9930.43
481.961	9932.48
482.166	9715.39
482.37	9762.5
482.574	9733.82
482.778	9856.7
482.983	9879.23
483.187	9975.49
483.391	10012.35
483.595	9725.63
483.8	9604.8
484.004	9619.14
484.208	9914.05
484.412	9899.71
484.616	9768.64
484.821	9721.54
485.025	9666.24
485.229	9793.22
485.433	9557.7
485.637	9633.47
485.841	9637.57
486.045	9907.9
486.249	9711.3
486.453	9701.06
486.657	9594.56
486.861	9946.81
487.065	9412.29
487.269	9668.29
487.473	9373.38
487.677	9916.09
487.881	10020.54
488.085	9823.94
488.289	9938.62
488.493	9739.97
488.697	9836.22
488.901	9813.7
489.105	9756.35
489.309	9821.89
489.512	10020.54
489.716	9739.97
489.92	9948.86
490.124	9766.59
490.328	10237.63
490.531	9942.72
490.735	10073.79
490.939	10004.16
491.143	9873.09
491.346	10024.64
491.55	10178.23
491.754	10147.51
491.958	10321.59
492.161	10383.03
492.365	10290.87
492.569	10348.22
492.772	10313.4
492.976	10516.15
493.18	10514.1
493.383	10505.91
493.587	10538.68
493.79	10743.47
493.994	10606.26
494.197	10759.86
494.401	10778.29
494.605	10886.83
494.808	10792.62
495.012	10952.37
495.215	11175.59
495.419	11126.44
495.622	11329.19
495.825	11097.77
496.029	11413.16
496.232	11521.7
496.436	11509.41
496.639	11779.75
496.843	11724.45
497.046	11970.21
497.249	12123.8
497.453	12142.24
497.656	12168.86
497.859	12353.18
498.063	12539.54
498.266	12781.2
498.469	12805.78
498.673	12781.2
498.876	13215.37
499.079	13104.78
499.282	13141.64
499.485	13706.88
499.689	13631.11
499.892	13676.16
500.095	13772.42
500.298	14038.66
500.501	13944.45
500.705	14288.51
500.908	14519.93
501.111	14521.98
501.314	14634.61
501.517	14984.82
501.72	15173.23
501.923	15060.59
502.126	15484.52
502.329	15781.48
502.532	15709.8
502.735	15822.44
502.938	16199.26
503.141	16440.92
503.344	16690.77
503.547	16629.34
503.75	16836.18
503.953	17182.29
504.156	16885.33
504.359	17368.65
504.562	17587.78
504.765	17950.28
504.968	17876.55
505.17	18335.29
505.373	18452.03
505.576	18423.36
505.779	18767.41
505.982	18732.6
506.185	19138.1
506.387	19160.62
506.59	19256.88
506.793	19793.45
506.996	19881.51
507.198	20506.14
507.401	20223.52
507.604	20567.58
507.807	21032.47
508.009	20825.62
508.212	21106.2
508.415	21200.4
508.617	21566.99
508.82	21843.46
509.022	21548.56
509.225	22615.55
509.428	22365.7
509.63	22511.1
509.833	22746.62
510.035	23102.96
510.238	23137.78
510.44	23674.35
510.643	23840.23
510.845	24133.09
511.048	23772.65
511.25	24217.06
511.453	24581.6
511.655	25243.09
511.858	24894.94
512.06	25228.76
512.262	25683.41
512.465	25716.17
512.667	25875.91
512.87	26557.89
513.072	26600.9
513.274	27198.9
513.477	27268.53
513.679	27481.52
513.881	27590.06
514.084	27839.92
514.286	27815.34
514.488	28267.94
514.69	29175.19
514.893	29144.47
515.095	29466
515.297	29808.01
515.499	29257.11
515.701	30102.92
515.904	30297.48
516.106	30643.59
516.308	30657.92
516.51	31473.01
516.712	30719.36
516.914	31419.77
517.116	31989.1
517.318	32060.78
517.52	32111.98
517.722	32394.6
517.925	32816.48
518.127	33138.01
518.329	33705.3
518.531	33279.32
518.733	34018.64
518.935	34159.95
519.136	34401.61
519.338	35120.45
519.54	35222.84
519.742	35421.5
519.944	35644.73
520.146	36418.86
520.348	36443.43
520.55	36408.62
520.752	36785.44
520.954	37602.58
521.155	37115.17
521.357	37903.63
521.559	37782.8
521.761	38628.62
521.963	38481.16
522.164	38573.32
522.366	39025.92
522.568	39267.58
522.77	39288.06
522.971	39800.05
523.173	39644.41
523.375	40209.65
523.576	40027.38
523.778	40266.99
523.98	41030.88
524.181	40926.44
524.383	41407.71
524.584	41968.85
524.786	41745.62
524.988	41749.72
525.189	42202.32
525.391	42618.06
525.592	43003.08
525.794	43060.42
525.995	43107.52
526.197	42912.97
526.398	43396.29
526.6	43306.18
526.801	43840.7
527.003	43973.81
527.204	44131.51
527.406	44518.57
527.607	44649.64
527.808	44860.58
528.01	43945.14
528.211	44891.3
528.412	45591.71
528.614	45135.01
528.815	44885.16
529.016	46077.08
529.218	45319.33
529.419	45614.24
529.62	45855.9
529.822	46034.07
530.023	46185.62
530.224	46128.28
530.425	46167.19
530.626	45755.55
530.828	45745.31
531.029	46797.96
531.23	46179.48
531.431	46216.34
531.632	46394.51
531.833	46836.87
532.035	46261.4
532.236	46822.54
532.437	47303.81
532.638	46949.51
532.839	47182.98
533.04	47414.4
533.241	46709.9
533.442	47668.35
533.643	47373.44
533.844	47299.72
534.045	47402.11
534.246	46447.76
534.447	47869.05
534.648	47400.07
534.849	47277.19
535.05	47205.51
535.251	47287.43
535.451	47379.59
535.652	47824
535.853	47389.83
536.054	47658.11
536.255	47021.19
536.456	47113.35
536.657	48092.28
536.857	47174.79
537.058	47158.41
537.259	47983.74
537.46	47881.34
537.66	47340.67
537.861	47262.85
538.062	47436.93
538.263	47119.49
538.463	47330.44
538.664	47309.96
538.865	47780.99
539.065	47443.07
539.266	46900.36
539.466	47768.7
539.667	46929.03
539.868	48012.41
540.068	47541.38
540.269	47264.9
540.469	47651.97
540.67	47662.21
540.87	47252.61
541.071	47363.2
541.271	47500.42
541.472	47475.84
541.672	47537.28
541.873	47561.86
542.073	47211.65
542.274	47869.05
542.474	47113.35
542.675	47033.48
542.875	47565.95
543.075	46967.94
543.276	46943.37
543.476	47584.38
543.676	47242.37
543.877	47512.7
544.077	47412.35
544.277	47309.96
544.478	47203.46
544.678	47551.62
544.878	47164.55
545.078	47490.18
545.279	47160.45
545.479	47215.75
545.679	47420.55
545.879	47369.35
546.079	47254.66
546.28	47387.78
546.48	46527.63
546.68	47369.35
546.88	47395.97
547.08	46726.28
547.28	47066.25
547.48	46488.72
547.68	47144.07
547.88	46658.7
548.081	47535.23
548.281	47119.49
548.481	46849.16
548.681	46922.89
548.881	47086.73
549.081	46843.02
549.28	46701.71
549.48	47299.72
549.68	46769.29
549.88	47404.16
550.08	46531.73
550.28	47049.86
550.48	46812.3
550.68	47518.85
550.88	46812.3
551.08	46595.21
551.279	46761.1
551.479	46265.49
551.679	46828.68
551.879	46730.38
552.079	46795.92
552.278	46320.79
552.478	46929.03
552.678	46990.47
552.878	46881.93
553.077	46603.41
553.277	46468.24
553.477	47092.87
553.676	46525.58
553.876	46568.59
554.076	46709.9
554.275	46656.65
554.475	46292.11
554.674	46271.64
554.874	46257.3
555.074	46359.7
555.273	46503.06
555.473	46339.22
555.672	46009.5
555.872	46046.36
556.071	46361.75
556.271	46253.2
556.47	45810.84
556.67	45653.15
556.869	45677.72
557.068	46148.76
557.268	45886.62
557.467	46249.11
557.667	45698.2
557.866	45663.39
558.065	45567.13
558.265	45798.55
558.464	45214.88
558.663	45749.4
558.863	45280.42
559.062	46046.36
559.261	45302.95
559.461	45536.41
559.66	45135.01
559.859	44930.22
560.058	45157.54
560.258	45157.54
560.457	44811.43
560.656	45145.25
560.855	44405.94
561.054	45010.09
561.253	44340.4
561.453	44760.23
561.652	44432.56
561.851	44545.2
562.05	44285.11
562.249	44268.72
562.448	44463.28
562.647	44516.53
562.846	44020.92
563.045	43838.65
563.244	43566.27
563.443	44135.6
563.642	43353.28
563.841	43863.22
564.04	43488.45
564.239	43734.2
564.438	43377.86
564.637	43273.41
564.836	43314.37
565.035	42814.66
565.234	42716.36
565.432	42788.04
565.631	43179.2
565.83	43177.15
566.029	42265.81
566.228	42710.22
566.427	42656.97
566.625	42527.95
566.824	41929.94
567.023	42327.25
567.222	41573.59
567.42	42585.29
567.619	42099.92
567.818	42224.85
568.016	42056.92
568.215	42063.06
568.414	41307.36
568.612	41858.26
568.811	41465.05
569.01	41327.84
569.208	40783.08
569.407	41501.92
569.605	40801.51
569.804	41409.76
570.002	40404.2
570.201	41182.43
570.4	40244.46
570.598	40416.49
570.797	40291.57
570.995	40365.29
571.193	39435.52
571.392	40563.95
571.59	39935.22
571.789	40086.77
571.987	39671.03
572.186	39390.46
572.384	39619.83
572.582	39593.21
572.781	39716.09
572.979	39113.98
573.177	39515.39
573.376	39609.59
573.574	38952.19
573.772	39415.04
573.971	38872.32
574.169	38911.24
574.367	38339.85
574.565	38894.85
574.763	38454.54
574.962	38366.48
575.16	37983.51
575.358	38167.82
575.556	37518.62
575.754	38370.57
575.952	37836.05
576.151	38237.45
576.349	37666.07
576.547	37645.59
576.745	38028.56
576.943	37373.21
577.141	37379.35
577.339	37342.49
577.537	37158.17
577.735	36875.55
577.933	36486.44
578.131	36871.46
578.329	37055.78
578.527	36734.24
578.725	36744.48
578.923	36611.37
579.121	36398.38
579.319	35908.91
579.516	36492.58
579.714	36216.11
579.912	35960.11
580.11	35933.49
580.308	36054.32
580.506	35949.87
580.704	35310.91
580.901	35536.18
581.099	35822.9
581.297	35413.3
581.495	35452.22
581.692	35548.47
581.89	35161.4
582.088	35374.39
582.285	35071.29
582.483	34764.1
582.681	34585.93
582.878	34639.17
583.076	34639.17
583.274	34766.15
583.471	34131.28
583.669	34450.76
583.866	34239.82
584.064	34041.17
584.262	33877.33
584.459	34471.24
584.657	33985.87
584.854	34323.79
585.052	33758.55
585.249	33684.82
585.447	33639.76
585.644	33264.99
585.841	33129.82
586.039	33269.08
586.236	33041.76
586.434	32984.41
586.631	32783.71
586.828	33000.8
587.026	32537.96
587.223	32423.27
587.42	32241
587.618	32316.78
587.815	32290.15
588.012	32161.13
588.21	32333.16
588.407	32361.83
588.604	32071.02
588.801	31806.83
588.999	31954.29
589.196	31853.94
589.393	31847.79
589.59	31638.9
589.787	31563.12
589.984	31585.65
590.182	31427.96
590.379	31300.98
590.576	30788.99
590.773	31042.94
590.97	31116.67
591.167	31188.35
591.364	30178.7
591.561	30842.24
591.758	30592.39
591.955	30645.63
592.152	30528.9
592.349	29984.14
592.546	30387.59
592.743	30176.65
592.94	30057.87
593.137	30205.32
593.334	30092.68
593.531	29982.09
593.727	29760.91
593.924	30014.86
594.121	29308.31
594.318	29513.11
594.515	29150.62
594.712	29965.71
594.908	29279.64
595.105	29574.55
595.302	28951.96
595.499	29001.11
595.696	28812.7
595.892	28734.88
596.089	29183.38
596.286	28980.64
596.482	28652.96
596.679	28841.37
596.876	28554.66
597.072	28399.01
597.269	28650.91
597.466	28114.34
597.662	28331.43
597.859	27952.55
598.055	27966.89
598.252	27788.72
598.448	28040.62
598.645	27829.68
598.841	27684.27
599.038	27827.63
599.234	27610.54
599.431	27442.61
599.627	27069.88
599.824	27626.93
600.02	27045.3
600.217	27235.77
600.413	27227.57
600.609	27112.89
600.806	26691.01
601.002	26791.36
601.198	26715.58
601.395	26766.78
601.591	26518.98
601.787	26979.77
601.984	26129.86
602.18	26543.55
602.376	26240.45
602.572	26234.31
602.769	25679.31
602.965	25849.29
603.161	26324.42
603.357	25687.5
603.553	25822.67
603.75	25658.83
603.946	25726.41
604.142	25474.51
604.338	25304.53
604.534	25208.28
604.73	24858.07
604.926	25175.51
605.122	25222.61
605.318	24831.45
605.514	25169.37
605.71	24808.92
605.906	24960.47
606.102	24786.4
606.298	24550.88
606.494	24911.32
606.69	24692.19
606.886	24798.68
607.082	24423.9
607.278	24632.8
607.474	24057.32
607.67	24538.59
607.866	24045.03
608.062	24305.12
608.257	23793.13
608.453	24102.37
608.649	24186.34
608.845	23948.78
609.041	23811.56
609.236	24153.57
609.432	23721.45
609.628	23881.19
609.824	23498.22
610.019	23510.51
610.215	23866.86
610.411	23508.46
610.606	23512.56
610.802	23535.09
610.998	23283.19
611.193	23326.19
611.389	23365.1
611.584	22988.28
611.78	23049.72
611.976	23195.12
612.171	23289.33
612.367	23279.09
612.562	22982.13
612.758	22582.78
612.953	22676.99
613.149	23135.73
613.344	22541.82
613.539	22943.22
613.735	22623.74
613.93	22818.3
614.126	22447.61
614.321	23039.48
614.517	22779.39
614.712	22418.94
614.907	22531.58
615.103	22556.16
615.298	22484.48
615.493	22619.64
615.688	22087.17
615.884	22459.9
616.079	21841.42
616.274	22396.42
616.47	22337.02
616.665	22537.73
616.86	21724.68
617.055	21974.53
617.25	21949.96
617.445	22144.52
617.641	21554.7
617.836	21872.14
618.031	21755.4
618.226	21640.72
618.421	21485.07
618.616	21560.84
618.811	21224.98
619.006	21927.43
619.201	21151.25
619.396	21618.19
619.591	20768.28
619.786	21286.42
619.981	20737.56
620.176	20989.46
620.371	20416.03
620.566	20719.13
620.761	20839.96
620.956	20469.28
621.151	20321.82
621.346	20389.41
621.541	20110.88
621.735	20325.92
621.93	19891.75
622.125	19805.74
622.32	19676.71
622.515	19768.87
622.709	19738.15
622.904	19613.23
623.099	19217.97
623.294	19574.31
623.488	19185.2
623.683	19424.81
623.878	19111.47
624.072	19050.03
624.267	18697.78
624.462	18777.65
624.656	18579
624.851	18767.41
625.046	18492.99
625.24	18437.69
625.435	18331.2
625.629	18376.25
625.824	18257.47
626.018	18030.15
626.213	17649.22
626.407	17864.26
626.602	17544.78
626.796	17866.31
626.991	17671.75
627.185	17303.12
627.38	17137.23
627.574	17149.52
627.768	17145.42
627.963	17192.53
628.157	16752.21
628.352	16846.42
628.546	16518.75
628.74	16719.45
628.935	16477.79
629.129	16629.34
629.323	16404.06
629.517	16191.07
629.712	16434.78
629.906	16111.2
630.1	15834.72
630.294	15978.08
630.489	15904.35
630.683	15971.94
630.877	15470.19
631.071	15705.7
631.265	15904.35
631.459	15265.39
631.653	15298.16
631.848	15345.26
632.042	15068.78
632.236	15191.66
632.43	15085.17
632.624	14970.48
632.818	14839.41
633.012	14624.37
633.206	14921.33
633.4	15072.88
633.594	14431.87
633.788	14548.6
633.982	14607.99
634.176	14464.63
634.369	14456.44
634.563	14401.15
634.757	14147.2
634.951	14233.21
635.145	14046.85
635.339	13952.64
635.533	13581.96
635.726	13973.12
635.92	13516.42
636.114	13663.88
636.308	13579.91
636.501	13420.17
636.695	13381.26
636.889	13153.93
637.083	13092.49
637.276	13280.91
637.47	13104.78
637.664	13035.15
637.857	13129.36
638.051	12881.55
638.244	12887.7
638.438	12803.73
638.632	12732.05
638.825	12568.21
639.019	12570.26
639.212	12490.39
639.406	12281.5
639.599	12496.53
639.793	12431
639.986	12287.64
640.18	12181.15
640.373	11955.87
640.567	12091.04
640.76	12127.9
640.954	11648.68
641.147	11626.15
641.34	11753.12
641.534	11712.16
641.727	11728.55
641.92	11564.71
642.114	11370.15
642.307	11407.02
642.5	11429.54
642.694	11421.35
642.887	11206.31
643.08	11138.73
643.273	11028.14
643.467	11179.69
643.66	11071.15
643.853	10923.69
644.046	10860.21
644.239	10841.78
644.432	10897.07
644.626	10804.91
644.819	10587.83
645.012	10698.42
645.205	10731.19
645.398	10518.2
645.591	10507.96
645.784	10565.3
645.977	10297.02
646.17	10266.3
646.363	10137.27
646.556	10028.73
646.749	9948.86
646.942	10065.6
647.135	10151.61
647.328	9885.37
647.521	9836.22
647.714	9768.64
647.907	9780.93
648.099	9762.5
648.292	9768.64
648.485	9703.11
648.678	9506.5
648.871	9602.75
649.064	9436.87
649.256	9311.94
649.449	9457.35
649.642	9518.79
649.835	9127.63
650.027	9430.73
650.22	9227.98
650.413	9133.77
650.605	9230.02
650.798	9154.25
650.991	8984.27
651.183	9035.47
651.376	9025.23
651.568	8779.47
651.761	8718.03
651.954	8781.52
652.146	8842.96
652.339	8726.22
652.531	8705.74
652.724	8576.72
652.916	8285.91
653.109	8404.69
653.301	8455.89
653.494	8564.43
653.686	8388.31
653.879	8429.27
654.071	8259.29
654.263	8265.43
654.456	8269.53
654.648	8224.47
654.84	8189.66
655.033	8093.4
655.225	8083.16
655.417	8017.63
655.61	7874.27
655.802	7964.38
655.994	8003.29
656.186	7765.73
656.379	7620.32
656.571	7737.06
656.763	7587.55
656.955	7413.48
657.148	7710.43
657.34	7683.81
657.532	7364.32
657.724	7489.25
657.916	7614.18
658.108	7487.2
658.3	7306.98
658.492	7448.29
658.684	7354.09
658.876	7292.65
659.068	7325.41
659.26	7167.72
659.452	7186.15
659.644	7044.84
659.836	6917.87
660.028	7014.12
660.22	6952.68
660.412	7024.36
660.604	7089.9
660.796	6930.16
660.988	6924.01
661.18	6702.83
661.372	6844.14
661.563	6891.24
661.755	6790.89
661.947	6696.69
662.139	6522.61
662.331	6670.06
662.522	6414.07
662.714	6448.88
662.906	6582
663.097	6598.38
663.289	6520.56
663.481	6502.13
663.673	6498.03
663.864	6420.21
664.056	6178.55
664.247	6430.45
664.439	6352.63
664.631	6358.77
664.822	6285.05
665.014	6307.57
665.205	6184.69
665.397	6121.21
665.588	6037.24
665.78	6045.43
665.971	6131.45
666.163	6022.91
666.354	5953.27
666.546	6080.25
666.737	5934.84
666.929	6110.97
667.12	5842.68
667.311	5981.95
667.503	5826.3
667.694	5973.75
667.885	5771.01
668.077	5883.64
668.268	5885.69
668.459	5744.38
668.651	5785.34
668.842	5684.99
669.033	5570.3
669.224	5574.4
669.416	5656.32
669.607	5486.34
669.798	5492.48
669.989	5799.68
670.18	5455.62
670.371	5469.95
670.563	5373.7
670.754	5586.69
670.945	5443.33
671.136	5463.81
671.327	5394.18
671.518	5367.56
671.709	5521.15
671.9	5449.47
672.091	5428.99
672.282	5299.97
672.473	5355.27
672.664	5488.39
672.855	5242.63
673.046	5349.12
673.237	5220.1
673.428	5244.68
673.619	5342.98
673.809	5256.97
674	5240.58
674.191	5164.81
674.382	5058.31
674.573	5244.68
674.764	4892.43
674.954	5089.03
675.145	4980.49
675.336	5025.54
675.527	5093.13
675.717	5158.66
675.908	5046.02
676.099	4998.92
676.289	5041.93
676.48	5031.69
676.671	4892.43
676.861	5050.12
677.052	4974.35
677.243	4962.06
677.433	5101.32
677.624	5103.37
677.814	4976.39
678.005	5048.07
678.195	4988.68
678.386	4859.66
678.576	4937.48
678.767	4878.09
678.957	4904.71
679.148	4945.67
679.338	4972.3
679.529	4841.23
679.719	4978.44
679.909	5027.59
680.1	4908.81
680.29	4851.47
680.481	4865.8
680.671	4876.04
680.861	4767.5
681.052	4753.16
681.242	4986.63
681.432	4718.35
681.622	4937.48
681.813	4798.22
682.003	4822.8
682.193	4859.66
682.383	4783.88
682.573	4740.88
682.764	4716.3
682.954	4773.64
683.144	4734.73
683.334	4814.6
683.524	4744.97
683.714	4812.56
683.904	4769.55
684.094	4912.91
684.284	4830.99
684.474	4865.8
684.664	4687.63
684.854	4759.31
685.044	4673.29
685.234	4618
685.424	4730.64
685.614	4554.51
685.804	4740.88
685.994	4556.56
686.184	4736.78
686.374	4744.97
686.564	4454.16
686.753	4558.61
686.943	4505.36
687.133	4523.79
687.323	4544.27
687.513	4620.05
687.702	4366.1
687.892	4427.54
688.082	4392.72
688.272	4482.83
688.461	4427.54
688.651	4337.43
688.841	4310.8
689.03	4323.09
689.22	4327.19
689.41	4247.32
689.599	4132.63
689.789	4245.27
689.979	4177.69
690.168	4112.15
690.358	4142.87
690.547	4202.26
690.737	4249.36
690.926	4161.3
691.116	4161.3
691.305	4146.97
691.495	4204.31
691.684	4071.19
691.874	4163.35
692.063	4138.77
692.252	4036.38
692.442	4116.25
692.631	4009.75
692.82	3970.84
693.01	3893.02
693.199	4003.61
693.388	4015.9
693.578	4081.43
693.767	3927.83
693.956	3981.08
694.146	3895.07
694.335	3843.87
694.524	3712.8
694.713	3927.83
694.902	3864.35
695.092	3895.07
695.281	3833.63
695.47	3864.35
695.659	3757.85
695.848	3827.48
696.037	3901.21
696.226	3753.76
696.415	3825.43
696.604	3929.88
696.793	3831.58
696.982	3817.24
697.171	3714.84
697.36	3757.85
697.549	3768.09
697.738	3782.43
697.927	3768.09
698.116	3766.04
698.305	3782.43
698.494	3751.71
698.683	3573.53
698.872	3811.1
699.061	3768.09
699.25	3641.12
699.438	3751.71
699.627	3661.6
699.816	3792.67
700.005	3598.11
700.193	3858.2
700.382	3764
700.571	3624.73
700.76	3716.89
700.948	3731.23
701.137	3772.19
701.326	3612.45
701.514	3680.03
701.703	3647.26
701.892	3704.6
702.08	3753.76
702.269	3565.34
702.457	3729.18
702.646	3743.52
702.834	3735.32
703.023	3710.75
703.212	3731.23
703.4	3594.01
703.589	3569.44
703.777	3720.99
703.965	3604.25
704.154	3610.4
704.342	3667.74
704.531	3608.35
704.719	3546.91
704.907	3663.65
705.096	3630.88
705.284	3626.78
705.472	3657.5
705.661	3565.34
705.849	3708.7
706.037	3706.65
706.226	3569.44
706.414	3794.72
706.602	3710.75
706.79	3606.3
706.979	3647.26
707.167	3546.91
707.355	3669.79
707.543	3675.93
707.731	3743.52
707.919	3573.53
708.107	3655.45
708.296	3632.93
708.484	3563.29
708.672	3573.53
708.86	3534.62
709.048	3714.84
709.236	3467.04
709.424	3710.75
709.612	3690.27
709.8	3608.35
709.988	3514.14
710.176	3632.93
710.364	3739.42
710.551	3643.17
710.739	3604.25
710.927	3544.86
711.115	3774.24
711.303	3710.75
711.491	3704.6
711.679	3618.59
711.866	3614.49
712.054	3768.09
712.242	3643.17
712.43	3729.18
712.617	3567.39
712.805	3536.67
712.993	3442.46
713.181	3501.86
713.368	3596.06
713.556	3794.72
713.744	3536.67
713.931	3591.97
714.119	3526.43
714.306	3567.39
714.494	3591.97
714.682	3589.92
714.869	3555.1
715.057	3663.65
715.244	3600.16
715.432	3618.59
715.619	3735.32
715.807	3528.48
715.994	3686.17
716.182	3622.69
716.369	3520.29
716.556	3737.37
716.744	3520.29
716.931	3677.98
717.119	3567.39
717.306	3610.4
717.493	3555.1
717.681	3653.41
717.868	3653.41
718.055	3651.36
718.242	3440.42
718.43	3448.61
718.617	3616.54
718.804	3610.4
718.991	3710.75
719.179	3565.34
719.366	3557.15
719.553	3598.11
719.74	3688.22
719.927	3546.91
720.114	3514.14
720.301	3727.13
720.488	3643.17
720.676	3585.82
720.863	3663.65
721.05	3643.17
721.237	3579.68
721.424	3612.45
721.611	3546.91
721.798	3405.6
721.985	3508
722.172	3546.91
722.358	3489.57
722.545	3604.25
722.732	3462.94
722.919	3489.57
723.106	3344.16
723.293	3532.58
723.48	3524.38
723.667	3467.04
723.853	3458.85
724.04	3534.62
724.227	3567.39
724.414	3563.29
724.6	3583.77
724.787	3487.52
724.974	3508
725.161	3610.4
725.347	3487.52
725.534	3508
725.72	3385.12
725.907	3538.72
726.094	3573.53
726.28	3524.38
726.467	3553.06
726.653	3499.81
726.84	3501.86
727.027	3602.21
727.213	3446.56
727.4	3454.75
727.586	3426.08
727.773	3512.1
727.959	3518.24
728.145	3637.02
728.332	3534.62
728.518	3374.88
728.705	3557.15
728.891	3493.66
729.077	3577.63
729.264	3477.28
729.45	3385.12
729.636	3682.08
729.823	3428.13
730.009	3467.04
730.195	3411.75
730.382	3487.52
730.568	3393.31
730.754	3483.42
730.94	3483.42
731.126	3632.93
731.313	3573.53
731.499	3327.78
731.685	3290.92
731.871	3276.58
732.057	3393.31
732.243	3534.62
732.429	3346.21
732.615	3413.79
732.801	3524.38
732.987	3448.61
733.173	3348.26
733.359	3385.12
733.545	3430.18
733.731	3372.83
733.917	3340.07
734.103	3319.59
734.289	3290.92
734.475	3270.44
734.661	3421.99
734.847	3383.07
735.033	3460.9
735.219	3319.59
735.404	3366.69
735.59	3311.39
735.776	3233.57
735.962	3286.82
736.148	3297.06
736.333	3385.12
736.519	3254.05
736.705	3376.93
736.89	3260.2
737.076	3346.21
737.262	3239.72
737.447	3319.59
737.633	3176.23
737.819	3249.96
738.004	3264.29
738.19	3147.56
738.375	3221.28
738.561	3368.74
738.747	3196.71
738.932	3122.98
739.118	3188.52
739.303	3176.23
739.489	3223.33
739.674	3151.65
739.859	3075.88
740.045	3165.99
740.23	3137.32
740.416	3094.31
740.601	3110.69
740.786	3122.98
740.972	3110.69
741.157	3106.6
741.342	3211.04
741.528	3090.21
741.713	3112.74
741.898	3043.11
742.084	2959.14
742.269	3082.02
742.454	2998.06
742.639	3012.39
742.824	2912.04
743.01	3110.69
743.195	2971.43
743.38	2942.76
743.565	2981.67
743.75	2914.09
743.935	2914.09
744.12	3018.54
744.305	2811.69
744.49	2758.44
744.675	2866.99
744.86	2742.06
745.045	2907.94
745.23	2924.33
745.415	2791.21
745.6	2748.2
745.785	2809.64
745.97	2764.59
746.155	2641.71
746.34	2684.72
746.525	2651.95
746.71	2705.2
746.895	2651.95
747.079	2701.1
747.264	2717.48
747.449	2711.34
747.634	2578.22
747.819	2602.8
748.003	2471.73
748.188	2549.55
748.373	2557.74
748.557	2522.93
748.742	2490.16
748.927	2506.54
749.111	2414.38
749.296	2471.73
749.481	2514.73
749.665	2424.62
749.85	2469.68
750.034	2307.89
750.219	2350.9
750.404	2328.37
750.588	2361.14
750.773	2326.32
750.957	2352.95
751.141	2217.78
751.326	2305.84
751.51	2240.31
751.695	2377.52
751.879	2328.37
752.064	2305.84
752.248	2221.88
752.432	2148.15
752.617	2225.97
752.801	2090.81
752.985	2197.3
753.17	2119.48
753.354	2199.35
753.538	2113.33
753.722	2117.43
753.907	2086.71
754.091	2086.71
754.275	2017.08
754.459	2012.98
754.643	2037.56
754.828	2006.84
755.012	1892.15
755.196	1922.87
755.38	1945.4
755.564	1908.54
755.748	1894.2
755.932	1939.26
756.116	1863.48
756.3	1875.77
756.484	1808.19
756.668	1853.24
756.852	1822.52
757.036	1818.43
757.22	1816.38
757.404	1830.71
757.588	1775.42
757.772	1775.42
757.956	1658.68
758.14	1722.17
758.323	1736.51
758.507	1826.62
758.691	1775.42
758.875	1707.84
759.059	1736.51
759.242	1591.1
759.426	1705.79
759.61	1627.96
759.794	1664.83
759.977	1587.01
760.161	1623.87
760.345	1619.77
760.528	1587.01
760.712	1658.68
760.895	1599.29
761.079	1611.58
761.263	1554.24
761.446	1488.7
761.63	1591.1
761.813	1607.48
761.997	1617.72
762.18	1513.28
762.364	1500.99
762.547	1523.52
762.731	1513.28
762.914	1443.65
763.098	1460.03
763.281	1472.32
763.464	1498.94
763.648	1423.17
763.831	1384.26
764.015	1437.5
764.198	1355.58
764.381	1455.94
764.564	1462.08
764.748	1414.98
764.931	1290.05
765.114	1509.18
765.297	1466.17
765.481	1402.69
765.664	1306.43
765.847	1320.77
766.03	1306.43
766.213	1357.63
766.397	1316.67
766.58	1337.15
766.763	1394.5
766.946	1314.63
767.129	1339.2
767.312	1310.53
767.495	1259.33
767.678	1197.89
767.861	1267.52
768.044	1304.39
768.227	1138.5
768.41	1257.28
768.593	1255.23
768.776	1212.23
768.959	1234.75
769.142	1242.95
769.324	1234.75
769.507	1152.84
769.69	1238.85
769.873	1109.83
770.056	1275.71
770.239	1195.84
770.421	1310.53
770.604	1115.97
770.787	1173.32
770.97	1185.6
771.152	1150.79
771.335	1185.6
771.518	1120.07
771.7	1161.03
771.883	1148.74
772.066	1113.92
772.248	1118.02
772.431	1136.45
772.613	1109.83
772.796	1101.64
772.978	1150.79
773.161	1171.27
773.343	1105.73
773.526	937.8
773.708	1087.3
773.891	1099.59
774.073	1021.77
774.256	1029.96
774.438	1085.25
774.621	943.94
774.803	1009.48
774.985	1007.43
775.168	1132.36
775.35	986.95
775.532	925.51
775.715	1017.67
775.897	1009.48
776.079	976.71
776.261	1034.05
776.444	964.42
776.626	911.18
776.808	997.19
776.99	950.09
777.173	847.69
777.355	849.74
777.537	886.6
777.719	927.56
777.901	886.6
778.083	950.09
778.265	866.12
778.447	923.46
778.629	853.83
778.811	808.78
778.993	874.31
779.175	900.94
779.357	851.78
779.539	849.74
779.721	829.26
779.903	837.45
780.085	872.26
780.267	849.74
780.449	773.96
780.631	761.67
780.812	753.48
780.994	808.78
781.176	759.63
781.358	804.68
781.54	737.1
781.721	657.23
781.903	706.38
782.085	810.82
782.267	761.67
782.448	714.57
782.63	636.75
782.812	665.42
782.993	735.05
783.175	792.39
783.357	726.86
783.538	687.95
783.72	667.47
783.901	712.52
784.083	698.19
784.264	649.04
784.446	671.56
784.627	550.73
784.809	659.28
784.99	608.08
785.172	661.32
785.353	601.93
785.535	626.51
785.716	614.22
785.897	544.59
786.079	593.74
786.26	595.79
786.441	630.6
786.623	565.07
786.804	474.96
786.985	624.46
787.167	628.56
787.348	548.68
787.529	612.17
787.71	624.46
787.891	579.4
788.073	552.78
788.254	544.59
788.435	558.92
788.616	595.79
788.797	474.96
788.978	554.83
789.159	567.12
789.34	540.49
789.522	524.11
789.703	513.87
789.884	544.59
790.065	558.92
790.246	517.97
790.427	515.92
790.607	474.96
790.788	509.77
790.969	419.66
791.15	554.83
791.331	489.29
791.512	452.43
791.693	468.81
791.874	536.4
792.054	528.21
792.235	456.53
792.416	485.2
792.597	517.97
792.778	448.33
792.958	485.2
793.139	458.57
793.32	401.23
793.5	397.14
793.681	448.33
793.862	474.96
794.042	393.04
794.223	399.18
794.404	380.75
794.584	405.33
794.765	456.53
794.945	427.85
795.126	438.09
795.306	436.05
795.487	380.75
795.667	370.51
795.848	479.05
796.028	390.99
796.209	339.79
796.389	302.93
796.57	352.08
796.75	343.89
796.93	429.9
797.111	345.94
797.291	360.27
797.471	370.51
797.652	370.51
797.832	372.56
798.012	390.99
798.192	313.17
798.373	378.7
798.553	331.6
798.733	374.61
798.913	350.03
799.093	280.4
799.274	380.75
799.454	325.46
799.634	356.18
799.814	309.07
799.994	300.88
800.174	366.42
800.354	362.32
800.534	247.63
800.714	395.09
800.894	300.88
801.074	243.54
801.254	255.83
801.434	272.21
801.614	358.22
801.794	182.1
801.974	786.25
802.154	307.02
802.334	325.46
802.514	292.69
802.693	317.26
802.873	264.02
803.053	358.22
803.233	337.74
803.413	214.87
803.592	278.35
803.772	214.87
803.952	345.94
804.131	335.7
804.311	384.85
804.491	323.41
804.67	264.02
804.85	251.73
805.03	223.06
805.209	282.45
805.389	255.83
805.568	296.78
805.748	286.54
805.928	261.97
806.107	188.24
806.287	302.93
806.466	345.94
806.646	245.59
806.825	175.95
807.004	120.66
807.184	223.06
807.363	253.78
807.543	255.83
807.722	233.3
807.901	223.06
808.081	288.59
808.26	278.35
808.439	284.5
808.619	321.36
808.798	180.05
808.977	259.92
809.156	227.15
809.336	282.45
809.515	341.84
809.694	237.39
809.873	225.11
810.052	198.48
810.231	235.35
810.411	284.5
810.59	288.59
810.769	188.24
810.948	198.48
811.127	190.29
811.306	141.14
811.485	266.07
811.664	245.59
811.843	202.58
812.022	249.68
812.201	120.66
812.38	188.24
812.559	243.54
812.737	284.5
812.916	200.53
813.095	227.15
813.274	196.43
813.453	298.83
813.632	202.58
813.811	231.25
813.989	210.77
814.168	223.06
814.347	161.62
814.526	173.91
814.704	202.58
814.883	284.5
815.062	159.57
815.24	251.73
815.419	192.34
815.598	200.53
815.776	153.43
815.955	229.2
816.133	128.85
816.312	141.14
816.49	272.21
816.669	196.43
816.847	122.71
817.026	221.01
817.204	175.95
817.383	214.87
817.561	171.86
817.74	227.15
817.918	139.09
818.097	178
818.275	153.43
818.453	218.96
818.632	147.28
818.81	139.09
818.988	182.1
819.167	100.18
819.345	163.67
819.523	206.67
819.701	124.76
819.879	165.71
820.058	206.67
820.236	167.76
820.414	196.43
820.592	173.91
820.77	214.87
820.948	149.33
821.127	161.62
821.305	188.24
821.483	132.95
821.661	118.61
821.839	143.19
822.017	196.43
822.195	100.18
822.373	182.1
822.551	96.08
822.729	124.76
822.907	116.56
823.085	139.09
823.262	159.57
823.44	112.47
823.618	231.25
823.796	214.87
823.974	69.46
824.152	132.95
824.329	112.47
824.507	124.76
824.685	178
824.863	137.04
825.04	128.85
825.218	178
825.396	108.37
825.574	159.57
825.751	89.94
825.929	149.33
826.107	65.36
826.284	137.04
826.462	116.56
826.639	126.8
826.817	180.05
826.994	112.47
827.172	145.24
827.349	135
827.527	147.28
827.704	83.8
827.882	147.28
828.059	163.67
828.237	182.1
828.414	120.66
828.591	40.79
828.769	122.71
828.946	126.8
829.124	116.56
829.301	124.76
829.478	122.71
829.655	151.38
829.833	46.93
830.01	108.37
830.187	122.71
830.364	194.39
830.542	165.71
830.719	122.71
830.896	132.95
831.073	89.94
831.25	120.66
831.427	132.95
831.604	145.24
831.782	110.42
831.959	34.64
832.136	85.84
832.313	167.76
832.49	59.22
832.667	126.8
832.844	98.13
833.021	51.03
833.198	116.56
833.374	102.23
833.551	124.76
833.728	114.52
833.905	91.99
834.082	89.94
834.259	112.47
834.436	149.33
834.612	-8.36
834.789	40.79
834.966	67.41
835.143	75.6
835.319	61.27
835.496	75.6
835.673	61.27
835.85	44.88
836.026	120.66
836.203	69.46
836.38	3.93
836.556	79.7
836.733	-6.31
836.909	77.65
837.086	3.93
837.262	51.03
837.439	79.7
837.616	34.64
837.792	63.32
837.968	104.28
838.145	104.28
838.321	155.47
838.498	85.84
838.674	10.07
838.851	8.02
839.027	91.99
839.203	91.99
839.38	91.99
839.556	30.55
839.732	69.46
839.909	28.5
840.085	94.04
840.261	116.56
840.437	124.76
840.614	98.13
840.79	110.42
840.966	167.76
841.142	51.03
841.318	178
841.494	87.89
841.671	5.97
841.847	51.03
842.023	26.45
842.199	44.88
842.375	79.7
842.551	12.12
842.727	30.55
842.903	173.91
843.079	14.17
843.255	116.56
843.431	42.84
843.607	61.27
843.783	46.93
843.959	100.18
844.134	71.51
844.31	51.03
844.486	65.36
844.662	-22.7
844.838	118.61
845.013	46.93
845.189	30.55
845.365	79.7
845.541	40.79
845.716	34.64
845.892	71.51
846.068	65.36
846.244	51.03
846.419	173.91
846.595	30.55
846.77	116.56
846.946	118.61
847.122	73.56
847.297	89.94
847.473	91.99
847.648	38.74
847.824	46.93
847.999	71.51
848.175	59.22
848.35	73.56
848.526	96.08
848.701	69.46
848.876	34.64
849.052	40.79
849.227	-4.27
849.403	18.26
849.578	63.32
849.753	24.4
849.929	61.27
850.104	44.88
850.279	26.45
850.454	28.5
850.63	83.8
850.805	57.17
850.98	71.51
851.155	40.79
851.33	91.99
851.505	26.45
851.681	110.42
851.856	102.23
852.031	22.36
852.206	-43.18
852.381	32.6
852.556	59.22
852.731	32.6
852.906	112.47
853.081	30.55
853.256	81.75
853.431	-8.36
853.606	48.98
853.781	-4.27
853.956	36.69
854.131	48.98
854.305	-22.7
854.48	55.12
854.655	96.08
854.83	67.41
855.005	10.07
855.18	63.32
855.354	40.79
855.529	51.03
855.704	61.27
855.879	118.61
856.053	-2.22
856.228	59.22
856.403	18.26
856.577	34.64
856.752	-14.51
856.926	91.99
857.101	-14.51
857.276	46.93
857.45	40.79
857.625	-4.27
857.799	51.03
857.974	1.88
858.148	61.27
858.323	-12.46
858.497	28.5
858.672	36.69
858.846	3.93
859.02	38.74
859.195	16.21
859.369	36.69
859.543	10.07
859.718	40.79
859.892	34.64
860.066	73.56
860.241	30.55
860.415	36.69
860.589	73.56
860.763	48.98
860.938	-8.36
861.112	-0.17
861.286	32.6
861.46	3.93
861.634	-39.08
861.808	73.56
861.982	-32.94
862.157	-6.31
862.331	30.55
862.505	26.45
862.679	34.64
862.853	10.07
863.027	46.93
863.201	36.69
863.375	67.41
863.549	32.6
863.722	5.97
863.896	-22.7
864.07	-6.31
864.244	94.04
864.418	-32.94
864.592	32.6
864.766	22.36
864.939	57.17
865.113	-12.46
865.287	69.46
865.461	26.45
865.634	-18.6
865.808	-10.41
865.982	22.36
866.156	-6.31
866.329	-6.31
866.503	24.4
866.676	57.17
866.85	55.12
867.024	-14.51
867.197	42.84
867.371	79.7
867.544	34.64
867.718	-96.43
867.891	24.4
868.065	-14.51
868.238	67.41
868.412	20.31
868.585	-22.7
868.759	28.5
868.932	1.88
869.105	1.88
869.279	81.75
869.452	24.4
869.625	-43.18
869.799	-10.41
869.972	-14.51
870.145	20.31
870.319	30.55
870.492	22.36
870.665	63.32
870.838	14.17
871.011	-69.8
871.185	10.07
871.358	-55.47
871.531	-2.22
871.704	-0.17
871.877	59.22
872.05	14.17
872.223	5.97
872.396	65.36
872.569	18.26
872.742	16.21
872.915	81.75
873.088	26.45
873.261	46.93
873.434	12.12
873.607	-16.55
873.78	36.69
873.953	10.07
874.126	8.02
874.299	5.97
874.471	-51.37
874.644	-0.17
874.817	16.21
874.99	32.6
875.163	5.97
875.335	28.5
875.508	18.26
875.681	24.4
875.853	-63.66
876.026	-34.99
876.199	42.84
876.371	53.08
876.544	10.07
876.717	-6.31
876.889	24.4
877.062	18.26
877.234	-41.13
877.407	1.88
877.579	26.45
877.752	-16.55
877.924	-12.46
878.097	36.69
878.269	42.84
878.442	-16.55
878.614	42.84
878.786	22.36
878.959	30.55
879.131	55.12
879.303	55.12
879.476	-20.65
879.648	40.79
879.82	14.17
879.993	-20.65
880.165	22.36
880.337	-10.41
880.509	20.31
880.681	-24.75
880.854	-37.03
881.026	83.8
881.198	67.41
881.37	87.89
881.542	18.26
881.714	24.4
881.886	-0.17
882.058	-53.42
882.23	-63.66
882.402	48.98
882.574	-14.51
882.746	51.03
882.918	57.17
883.09	44.88
883.262	-69.8
883.434	8.02
883.606	-39.08
883.778	59.22
883.95	-0.17
884.122	-2.22
884.293	-2.22
884.465	-57.51
884.637	100.18
884.809	32.6
884.98	16.21
885.152	34.64
885.324	14.17
885.496	14.17
885.667	30.55
885.839	22.36
886.011	-0.17
886.182	-12.46
886.354	16.21
886.525	16.21
886.697	-30.89
886.869	-49.32
887.04	16.21
887.212	-14.51
887.383	1.88
887.555	-14.51
887.726	-22.7
887.897	-73.9
888.069	-22.7
888.24	-24.75
888.412	22.36
888.583	-8.36
888.754	3.93
888.926	30.55
889.097	-22.7
889.268	10.07
889.44	57.17
889.611	-41.13
889.782	-22.7
889.953	-59.56
890.125	42.84
890.296	18.26
890.467	-47.27
890.638	38.74
890.809	10.07
890.98	-24.75
891.151	20.31
891.323	1.88
891.494	-10.41
891.665	16.21
891.836	-10.41
892.007	3.93
892.178	24.4
892.349	-22.7
892.52	-49.32
892.691	46.93
892.862	-2.22
893.032	-34.99
893.203	-10.41
893.374	120.66
893.545	1.88
893.716	22.36
893.887	14.17
894.057	-14.51
894.228	12.12
894.399	-26.79
894.57	26.45
894.74	57.17
894.911	34.64
895.082	-28.84
895.253	-10.41
895.423	-2.22
895.594	12.12
895.764	-43.18
895.935	18.26
896.106	-6.31
896.276	-45.23
896.447	-4.27
896.617	-0.17
896.788	22.36
896.958	36.69
897.129	8.02
897.299	-4.27
897.47	-41.13
897.64	5.97
897.81	51.03
897.981	10.07
898.151	-30.89
898.322	73.56
898.492	18.26
898.662	-84.14
898.832	5.97
899.003	18.26
899.173	22.36
899.343	-55.47
899.513	-65.71
