Data from USB4F104151__8__10-20-35-915.txt Node

Date: Wed Mar 12 10:20:35 EDT 2025
User: louis
Spectrometer: USB4F10415
Trigger mode: 4
Integration Time (sec): 3.000000E-2
Scans to average: 1
Electric dark correction enabled: true
Nonlinearity correction enabled: false
Boxcar width: 0
XAxis mode: Wavelengths
Number of Pixels in Spectrum: 3648
>>>>>Begin Spectral Data<<<<<
178.204	-196.43
178.424	-196.43
178.644	-196.43
178.864	-153.43
179.084	-51.03
179.304	-20.31
179.524	-65.36
179.744	34.99
179.964	49.32
180.184	4.27
180.404	-40.79
180.624	55.47
180.844	-53.08
181.064	-71.51
181.283	34.99
181.503	14.51
181.723	57.51
181.943	-71.51
182.163	2.22
182.383	-20.31
182.602	-48.98
182.822	6.31
183.042	16.55
183.262	-22.36
183.482	4.27
183.701	-20.31
183.921	14.51
184.141	8.36
184.361	16.55
184.58	47.27
184.8	-57.17
185.02	49.32
185.239	-32.6
185.459	-3.93
185.679	43.18
185.898	41.13
186.118	51.37
186.338	-5.97
186.557	43.18
186.777	2.22
186.997	41.13
187.216	-10.07
187.436	116.9
187.655	-34.64
187.875	63.66
188.095	-22.36
188.314	100.52
188.534	32.94
188.753	4.27
188.973	-36.69
189.192	34.99
189.412	-8.02
189.631	-46.93
189.851	47.27
190.07	-55.12
190.29	-14.17
190.509	-22.36
190.729	39.08
190.948	51.37
191.168	57.51
191.387	47.27
191.607	0.17
191.826	-65.36
192.045	37.03
192.265	47.27
192.484	-46.93
192.704	-40.79
192.923	26.79
193.142	43.18
193.362	37.03
193.581	6.31
193.8	41.13
194.02	51.37
194.239	26.79
194.458	-8.02
194.678	-46.93
194.897	-34.64
195.116	86.19
195.335	20.65
195.555	-40.79
195.774	-71.51
195.993	-51.03
196.212	0.17
196.432	-18.26
196.651	8.36
196.87	-8.02
197.089	47.27
197.308	63.66
197.528	-20.31
197.747	22.7
197.966	24.75
198.185	47.27
198.404	14.51
198.623	4.27
198.842	-8.02
199.062	28.84
199.281	49.32
199.5	24.75
199.719	-22.36
199.938	0.17
200.157	71.85
200.376	-14.17
200.595	6.31
200.814	4.27
201.033	-10.07
201.252	51.37
201.471	32.94
201.69	18.6
201.909	2.22
202.128	59.56
202.347	-34.64
202.566	-32.6
202.785	-63.32
203.004	-46.93
203.223	59.56
203.442	26.79
203.661	0.17
203.879	34.99
204.098	12.46
204.317	16.55
204.536	24.75
204.755	-14.17
204.974	57.51
205.193	73.9
205.411	65.71
205.63	34.99
205.849	67.75
206.068	80.04
206.287	-71.51
206.505	-98.13
206.724	-18.26
206.943	-20.31
207.162	55.47
207.381	-22.36
207.599	41.13
207.818	-12.12
208.037	14.51
208.255	6.31
208.474	26.79
208.693	-32.6
208.911	-5.97
209.13	18.6
209.349	80.04
209.567	2.22
209.786	2.22
210.005	75.95
210.223	12.46
210.442	16.55
210.661	-10.07
210.879	-8.02
211.098	-5.97
211.316	-1.88
211.535	10.41
211.753	45.23
211.972	88.23
212.191	24.75
212.409	-16.21
212.628	2.22
212.846	-32.6
213.065	2.22
213.283	49.32
213.502	-30.55
213.72	34.99
213.938	18.6
214.157	43.18
214.375	14.51
214.594	-34.64
214.812	-55.12
215.031	-24.4
215.249	-10.07
215.467	2.22
215.686	-8.02
215.904	-3.93
216.122	34.99
216.341	-18.26
216.559	-32.6
216.778	6.31
216.996	-16.21
217.214	-3.93
217.432	51.37
217.651	-30.55
217.869	34.99
218.087	-79.7
218.306	-30.55
218.524	-40.79
218.742	-14.17
218.96	12.46
219.179	67.75
219.397	-10.07
219.615	55.47
219.833	28.84
220.051	-14.17
220.27	-14.17
220.488	-8.02
220.706	51.37
220.924	39.08
221.142	2.22
221.36	47.27
221.578	-30.55
221.796	-8.02
222.015	10.41
222.233	6.31
222.451	10.41
222.669	-5.97
222.887	18.6
223.105	18.6
223.323	51.37
223.541	16.55
223.759	32.94
223.977	16.55
224.195	32.94
224.413	26.79
224.631	-10.07
224.849	-8.02
225.067	84.14
225.285	32.94
225.503	-87.89
225.721	-42.84
225.939	24.75
226.157	67.75
226.375	77.99
226.592	-20.31
226.81	6.31
227.028	57.51
227.246	-12.12
227.464	-32.6
227.682	-38.74
227.9	22.7
228.117	82.09
228.335	69.8
228.553	20.65
228.771	-28.5
228.989	24.75
229.206	69.8
229.424	-20.31
229.642	-1.88
229.86	10.41
230.077	32.94
230.295	-22.36
230.513	125.1
230.731	67.75
230.948	16.55
231.166	24.75
231.384	-30.55
231.601	10.41
231.819	32.94
232.037	65.71
232.254	4.27
232.472	71.85
232.689	20.65
232.907	43.18
233.125	16.55
233.342	-3.93
233.56	-14.17
233.777	28.84
233.995	4.27
234.213	75.95
234.43	16.55
234.648	-10.07
234.865	-1.88
235.083	-36.69
235.3	8.36
235.518	16.55
235.735	90.28
235.953	47.27
236.17	43.18
236.388	-63.32
236.605	14.51
236.822	16.55
237.04	41.13
237.257	-18.26
237.475	-5.97
237.692	6.31
237.909	47.27
238.127	-61.27
238.344	18.6
238.562	-36.69
238.779	-48.98
238.996	-71.51
239.214	4.27
239.431	10.41
239.648	-32.6
239.865	71.85
240.083	2.22
240.3	-14.17
240.517	28.84
240.735	-1.88
240.952	-32.6
241.169	-10.07
241.386	-1.88
241.603	-1.88
241.821	-69.46
242.038	77.99
242.255	16.55
242.472	-18.26
242.689	-1.88
242.907	18.6
243.124	-57.17
243.341	34.99
243.558	-5.97
243.775	-10.07
243.992	10.41
244.209	16.55
244.426	22.7
244.643	98.47
244.86	-12.12
245.078	41.13
245.295	16.55
245.512	22.7
245.729	8.36
245.946	-55.12
246.163	26.79
246.38	-57.17
246.597	0.17
246.814	18.6
247.031	-22.36
247.248	-8.02
247.464	-8.02
247.681	-71.51
247.898	6.31
248.115	-18.26
248.332	-16.21
248.549	71.85
248.766	82.09
248.983	112.81
249.2	10.41
249.417	16.55
249.633	10.41
249.85	41.13
250.067	84.14
250.284	16.55
250.501	57.51
250.717	22.7
250.934	-77.65
251.151	55.47
251.368	6.31
251.585	55.47
251.801	2.22
252.018	-46.93
252.235	104.62
252.451	-5.97
252.668	-12.12
252.885	96.43
253.102	-8.02
253.318	16.55
253.535	28.84
253.752	-16.21
253.968	6.31
254.185	-38.74
254.401	22.7
254.618	-20.31
254.835	8.36
255.051	63.66
255.268	12.46
255.484	30.89
255.701	-5.97
255.917	84.14
256.134	10.41
256.351	26.79
256.567	-16.21
256.784	-14.17
257	12.46
257.217	100.52
257.433	2.22
257.65	47.27
257.866	71.85
258.082	8.36
258.299	-30.55
258.515	10.41
258.732	-32.6
258.948	-5.97
259.165	12.46
259.381	82.09
259.597	28.84
259.814	49.32
260.03	-18.26
260.246	26.79
260.463	-16.21
260.679	2.22
260.895	-14.17
261.112	14.51
261.328	2.22
261.544	-14.17
261.761	-1.88
261.977	-22.36
262.193	-40.79
262.409	0.17
262.626	10.41
262.842	43.18
263.058	73.9
263.274	49.32
263.49	-77.65
263.707	49.32
263.923	-38.74
264.139	20.65
264.355	43.18
264.571	16.55
264.787	-40.79
265.004	75.95
265.22	-3.93
265.436	-8.02
265.652	-10.07
265.868	-22.36
266.084	-30.55
266.3	-10.07
266.516	22.7
266.732	-12.12
266.948	-10.07
267.164	0.17
267.38	20.65
267.596	14.51
267.812	112.81
268.028	43.18
268.244	47.27
268.46	41.13
268.676	8.36
268.892	0.17
269.108	2.22
269.324	-28.5
269.54	6.31
269.756	100.52
269.972	-18.26
270.188	-32.6
270.403	88.23
270.619	-51.03
270.835	10.41
271.051	127.14
271.267	26.79
271.483	-30.55
271.698	67.75
271.914	-3.93
272.13	-22.36
272.346	-28.5
272.562	-46.93
272.777	18.6
272.993	-8.02
273.209	22.7
273.425	47.27
273.64	30.89
273.856	18.6
274.072	51.37
274.287	18.6
274.503	67.75
274.719	49.32
274.934	-26.45
275.15	86.19
275.366	-3.93
275.581	10.41
275.797	24.75
276.012	41.13
276.228	-22.36
276.444	-5.97
276.659	10.41
276.875	10.41
277.09	-42.84
277.306	-51.03
277.521	-87.89
277.737	2.22
277.952	45.23
278.168	80.04
278.383	-44.88
278.599	14.51
278.814	94.38
279.03	-14.17
279.245	108.71
279.461	14.51
279.676	47.27
279.892	10.41
280.107	-28.5
280.322	12.46
280.538	8.36
280.753	-98.13
280.969	63.66
281.184	2.22
281.399	43.18
281.615	37.03
281.83	51.37
282.045	-38.74
282.26	10.41
282.476	4.27
282.691	75.95
282.906	14.51
283.122	41.13
283.337	-34.64
283.552	82.09
283.767	-22.36
283.983	82.09
284.198	41.13
284.413	49.32
284.628	-18.26
284.843	10.41
285.058	82.09
285.274	18.6
285.489	-116.56
285.704	34.99
285.919	2.22
286.134	67.75
286.349	30.89
286.564	34.99
286.779	106.67
286.995	18.6
287.21	-18.26
287.425	39.08
287.64	-5.97
287.855	8.36
288.07	51.37
288.285	37.03
288.5	26.79
288.715	-1.88
288.93	10.41
289.145	-16.21
289.36	39.08
289.575	51.37
289.79	39.08
290.004	-83.8
290.219	14.51
290.434	22.7
290.649	-8.02
290.864	34.99
291.079	73.9
291.294	-20.31
291.509	10.41
291.724	-67.41
291.938	47.27
292.153	28.84
292.368	12.46
292.583	30.89
292.798	20.65
293.012	-1.88
293.227	73.9
293.442	-18.26
293.657	22.7
293.871	-34.64
294.086	2.22
294.301	22.7
294.516	32.94
294.73	92.33
294.945	10.41
295.16	24.75
295.374	8.36
295.589	67.75
295.804	-32.6
296.018	75.95
296.233	34.99
296.447	34.99
296.662	-3.93
296.877	47.27
297.091	-53.08
297.306	8.36
297.52	-48.98
297.735	59.56
297.949	-34.64
298.164	41.13
298.378	22.7
298.593	-32.6
298.807	-14.17
299.022	63.66
299.236	67.75
299.451	-22.36
299.665	-5.97
299.88	59.56
300.094	45.23
300.309	41.13
300.523	49.32
300.737	-40.79
300.952	6.31
301.166	69.8
301.381	-40.79
301.595	43.18
301.809	4.27
302.024	-10.07
302.238	8.36
302.452	100.52
302.667	22.7
302.881	-8.02
303.095	80.04
303.309	-53.08
303.524	-26.45
303.738	43.18
303.952	12.46
304.166	8.36
304.381	-55.12
304.595	30.89
304.809	4.27
305.023	26.79
305.237	39.08
305.452	100.52
305.666	18.6
305.88	53.42
306.094	-30.55
306.308	14.51
306.522	14.51
306.736	-32.6
306.95	43.18
307.164	51.37
307.379	34.99
307.593	-8.02
307.807	24.75
308.021	98.47
308.235	-5.97
308.449	82.09
308.663	-12.12
308.877	73.9
309.091	39.08
309.305	14.51
309.519	59.56
309.733	82.09
309.947	-5.97
310.161	26.79
310.374	47.27
310.588	-38.74
310.802	4.27
311.016	43.18
311.23	-18.26
311.444	-32.6
311.658	12.46
311.872	-1.88
312.085	92.33
312.299	80.04
312.513	18.6
312.727	32.94
312.941	-30.55
313.154	75.95
313.368	-20.31
313.582	71.85
313.796	43.18
314.009	-8.02
314.223	14.51
314.437	4.27
314.651	-20.31
314.864	30.89
315.078	-3.93
315.292	63.66
315.505	-30.55
315.719	-89.94
315.933	67.75
316.146	51.37
316.36	-71.51
316.573	51.37
316.787	12.46
317.001	12.46
317.214	-51.03
317.428	96.43
317.641	2.22
317.855	51.37
318.068	-44.88
318.282	26.79
318.495	-18.26
318.709	84.14
318.922	65.71
319.136	12.46
319.349	41.13
319.563	59.56
319.776	-3.93
319.99	-24.4
320.203	-20.31
320.417	16.55
320.63	-5.97
320.843	8.36
321.057	-20.31
321.27	2.22
321.483	18.6
321.697	28.84
321.91	8.36
322.124	73.9
322.337	-10.07
322.55	28.84
322.763	53.42
322.977	-5.97
323.19	26.79
323.403	77.99
323.617	-20.31
323.83	80.04
324.043	-28.5
324.256	-51.03
324.469	24.75
324.683	59.56
324.896	49.32
325.109	51.37
325.322	-75.6
325.535	37.03
325.748	-16.21
325.962	-8.02
326.175	12.46
326.388	8.36
326.601	34.99
326.814	16.55
327.027	34.99
327.24	116.9
327.453	22.7
327.666	45.23
327.879	34.99
328.092	-32.6
328.305	43.18
328.518	22.7
328.731	-24.4
328.944	28.84
329.157	34.99
329.37	-22.36
329.583	80.04
329.796	84.14
330.009	-91.99
330.222	32.94
330.435	22.7
330.648	-34.64
330.861	32.94
331.073	57.51
331.286	30.89
331.499	-22.36
331.712	-24.4
331.925	61.61
332.138	92.33
332.35	131.24
332.563	2.22
332.776	104.62
332.989	14.51
333.202	10.41
333.414	22.7
333.627	0.17
333.84	149.67
334.053	39.08
334.265	47.27
334.478	84.14
334.691	57.51
334.903	47.27
335.116	18.6
335.329	-8.02
335.541	-1.88
335.754	16.55
335.966	59.56
336.179	34.99
336.392	20.65
336.604	4.27
336.817	59.56
337.029	20.65
337.242	24.75
337.454	-44.88
337.667	28.84
337.88	63.66
338.092	82.09
338.305	10.41
338.517	22.7
338.729	2.22
338.942	34.99
339.154	18.6
339.367	18.6
339.579	22.7
339.792	6.31
340.004	43.18
340.217	34.99
340.429	71.85
340.641	8.36
340.854	12.46
341.066	-1.88
341.278	-22.36
341.491	114.86
341.703	28.84
341.915	8.36
342.128	51.37
342.34	69.8
342.552	18.6
342.764	2.22
342.977	37.03
343.189	26.79
343.401	116.9
343.613	-12.12
343.826	37.03
344.038	63.66
344.25	4.27
344.462	39.08
344.674	-69.46
344.886	6.31
345.099	86.19
345.311	16.55
345.523	45.23
345.735	-75.6
345.947	102.57
346.159	73.9
346.371	-1.88
346.583	43.18
346.795	45.23
347.007	-26.45
347.219	6.31
347.431	67.75
347.643	47.27
347.855	-16.21
348.067	118.95
348.279	-8.02
348.491	22.7
348.703	18.6
348.915	75.95
349.127	-28.5
349.339	51.37
349.551	14.51
349.763	61.61
349.975	34.99
350.187	71.85
350.399	-26.45
350.61	69.8
350.822	49.32
351.034	4.27
351.246	90.28
351.458	34.99
351.669	57.51
351.881	51.37
352.093	4.27
352.305	32.94
352.517	34.99
352.728	112.81
352.94	12.46
353.152	80.04
353.363	-32.6
353.575	63.66
353.787	73.9
353.999	73.9
354.21	137.38
354.422	0.17
354.633	30.89
354.845	14.51
355.057	41.13
355.268	96.43
355.48	157.86
355.692	8.36
355.903	32.94
356.115	34.99
356.326	4.27
356.538	84.14
356.749	32.94
356.961	51.37
357.172	-18.26
357.384	-22.36
357.595	88.23
357.807	43.18
358.018	12.46
358.23	51.37
358.441	26.79
358.653	8.36
358.864	32.94
359.075	-20.31
359.287	84.14
359.498	69.8
359.709	8.36
359.921	22.7
360.132	-30.55
360.344	45.23
360.555	-10.07
360.766	10.41
360.977	-42.84
361.189	129.19
361.4	-36.69
361.611	65.71
361.823	16.55
362.034	32.94
362.245	-24.4
362.456	26.79
362.667	39.08
362.879	-51.03
363.09	26.79
363.301	-5.97
363.512	51.37
363.723	37.03
363.935	-46.93
364.146	30.89
364.357	-18.26
364.568	73.9
364.779	34.99
364.99	34.99
365.201	-22.36
365.412	-22.36
365.623	-32.6
365.834	59.56
366.045	71.85
366.256	16.55
366.467	-1.88
366.678	0.17
366.889	18.6
367.1	104.62
367.311	69.8
367.522	-65.36
367.733	65.71
367.944	2.22
368.155	41.13
368.366	67.75
368.577	166.06
368.788	37.03
368.999	-5.97
369.209	123.05
369.42	139.43
369.631	75.95
369.842	71.85
370.053	-16.21
370.264	49.32
370.474	-8.02
370.685	43.18
370.896	37.03
371.107	63.66
371.317	65.71
371.528	-32.6
371.739	14.51
371.95	41.13
372.16	6.31
372.371	-5.97
372.582	43.18
372.792	75.95
373.003	100.52
373.214	10.41
373.424	-1.88
373.635	-40.79
373.846	174.25
374.056	-8.02
374.267	6.31
374.477	84.14
374.688	-8.02
374.898	71.85
375.109	10.41
375.319	51.37
375.53	14.51
375.74	59.56
375.951	86.19
376.161	0.17
376.372	45.23
376.582	39.08
376.793	12.46
377.003	16.55
377.214	-10.07
377.424	94.38
377.635	45.23
377.845	69.8
378.055	71.85
378.266	51.37
378.476	100.52
378.686	16.55
378.897	39.08
379.107	0.17
379.317	-14.17
379.528	24.75
379.738	71.85
379.948	32.94
380.158	-8.02
380.369	12.46
380.579	28.84
380.789	4.27
380.999	100.52
381.21	41.13
381.42	37.03
381.63	61.61
381.84	12.46
382.05	39.08
382.261	69.8
382.471	32.94
382.681	49.32
382.891	75.95
383.101	94.38
383.311	-34.64
383.521	75.95
383.731	71.85
383.941	0.17
384.151	34.99
384.361	65.71
384.571	18.6
384.781	59.56
384.991	84.14
385.201	6.31
385.411	108.71
385.621	98.47
385.831	-18.26
386.041	28.84
386.251	53.42
386.461	55.47
386.671	104.62
386.881	45.23
387.091	8.36
387.301	86.19
387.511	22.7
387.72	71.85
387.93	55.47
388.14	-14.17
388.35	26.79
388.56	34.99
388.769	-8.02
388.979	22.7
389.189	59.56
389.399	22.7
389.609	77.99
389.818	47.27
390.028	67.75
390.238	30.89
390.447	-8.02
390.657	71.85
390.867	49.32
391.076	4.27
391.286	-3.93
391.496	37.03
391.705	28.84
391.915	55.47
392.125	161.96
392.334	-10.07
392.544	88.23
392.753	67.75
392.963	39.08
393.172	106.67
393.382	71.85
393.591	94.38
393.801	65.71
394.01	118.95
394.22	82.09
394.429	32.94
394.639	75.95
394.848	49.32
395.058	123.05
395.267	104.62
395.477	75.95
395.686	118.95
395.895	104.62
396.105	114.86
396.314	90.28
396.524	41.13
396.733	-12.12
396.942	84.14
397.152	108.71
397.361	98.47
397.57	84.14
397.78	20.65
397.989	90.28
398.198	188.58
398.407	86.19
398.617	104.62
398.826	51.37
399.035	88.23
399.244	73.9
399.453	71.85
399.663	39.08
399.872	100.52
400.081	18.6
400.29	43.18
400.499	88.23
400.708	157.86
400.917	127.14
401.127	49.32
401.336	30.89
401.545	116.9
401.754	137.38
401.963	63.66
402.172	114.86
402.381	118.95
402.59	141.48
402.799	145.58
403.008	45.23
403.217	96.43
403.426	84.14
403.635	114.86
403.844	110.76
404.053	127.14
404.262	141.48
404.471	202.92
404.68	174.25
404.888	125.1
405.097	141.48
405.306	202.92
405.515	141.48
405.724	133.29
405.933	145.58
406.142	233.64
406.35	180.39
406.559	241.83
406.768	209.06
406.977	104.62
407.185	200.87
407.394	243.88
407.603	239.78
407.812	211.11
408.02	245.93
408.229	188.58
408.438	272.55
408.646	168.1
408.855	362.66
409.064	325.8
409.272	307.37
409.481	299.17
409.69	313.51
409.898	213.16
410.107	331.94
410.315	286.89
410.524	290.98
410.733	319.65
410.941	280.74
411.15	415.91
411.358	348.33
411.567	477.35
411.775	403.62
411.984	460.96
412.192	446.63
412.401	417.96
412.609	465.06
412.818	475.3
413.026	467.11
413.234	514.21
413.443	526.5
413.651	559.27
413.86	614.56
414.068	618.66
414.276	608.42
414.485	663.71
414.693	608.42
414.901	682.14
415.11	610.47
415.318	731.3
415.526	712.86
415.734	805.02
415.943	856.22
416.151	811.17
416.359	882.85
416.567	854.17
416.776	999.58
416.984	991.39
417.192	1042.59
417.4	1126.55
417.608	1073.31
417.817	1151.13
418.025	1167.51
418.233	1237.14
418.441	1179.8
418.649	1194.14
418.857	1417.37
419.065	1384.6
419.273	1400.98
419.481	1462.42
419.689	1509.52
419.897	1644.69
420.105	1720.46
420.313	1736.85
420.521	1687.7
420.729	1839.25
420.937	1851.53
421.145	1915.02
421.353	1949.84
421.561	2044.04
421.769	2168.97
421.977	2193.55
422.185	2168.97
422.393	2349.19
422.601	2435.21
422.809	2427.01
423.017	2484.36
423.224	2492.55
423.432	2646.15
423.64	2680.96
423.848	2885.76
424.056	2801.79
424.263	3192.95
424.471	3002.49
424.679	3035.26
424.887	3317.88
425.094	3422.33
425.302	3364.98
425.51	3502.2
425.718	3569.78
425.925	3733.62
426.133	3788.91
426.341	4012.14
426.548	4305
426.756	4391.02
426.964	4411.5
427.171	4624.48
427.379	4606.05
427.586	4802.66
427.794	4892.77
428.001	5118.04
428.209	5183.58
428.417	5220.44
428.624	5507.16
428.832	5619.8
429.039	5527.64
429.247	5494.87
429.454	6209.61
429.662	6420.55
429.869	6025.29
430.076	6522.95
430.284	6340.68
430.491	6582.34
430.699	7123.01
430.906	6807.62
431.114	7110.72
431.321	7184.45
431.528	7401.53
431.736	8011.82
431.943	8271.92
432.15	7927.86
432.358	8108.08
432.565	8491.05
432.772	8685.61
432.979	9011.23
433.187	8953.89
433.394	9207.84
433.601	9746.45
433.808	9945.11
434.016	9705.49
434.223	10059.79
434.43	10770.44
434.637	10582.03
434.844	11218.94
435.052	11452.41
435.259	11491.32
435.466	11519.99
435.673	11376.64
435.88	12222.45
436.087	12808.17
436.294	12552.17
436.501	12513.26
436.708	12591.08
436.915	13404.13
437.122	13701.08
437.329	13785.05
437.537	14125.01
437.743	14471.12
437.95	14444.49
438.157	15302.59
438.364	15368.13
438.571	15523.77
438.778	15538.11
438.985	17147.81
439.192	16273.33
439.399	16758.7
439.606	16641.96
439.813	17659.81
440.02	18405.27
440.227	17952.66
440.433	17690.52
440.64	18304.92
440.847	18534.29
441.054	18734.99
441.261	20084.6
441.467	19836.8
441.674	20328.31
441.881	20928.36
442.088	21161.83
442.294	20651.89
442.501	21180.26
442.708	21708.64
442.914	22652.75
443.121	23406.41
443.328	22753.1
443.534	24172.35
443.741	23859.01
443.948	23326.53
444.154	25108.27
444.361	24956.72
444.568	25304.87
444.774	24999.73
444.981	25319.21
445.187	25956.13
445.394	27467.53
445.6	26906.38
445.807	29335.28
446.013	27873.03
446.22	28755.7
446.426	29550.31
446.633	30181.09
446.839	31221.45
447.046	29931.23
447.252	31313.61
447.459	31129.3
447.665	31520.46
447.871	32460.48
448.078	33818.28
448.284	32321.21
448.491	33097.39
448.697	34041.51
448.903	34862.74
449.11	35143.31
449.316	34188.96
449.522	34983.57
449.728	35913.35
449.935	36386.43
450.141	35962.5
450.347	37011.06
450.553	35647.11
450.76	36077.19
450.966	37097.08
451.172	36978.29
451.378	37985.9
451.584	36990.58
451.791	37639.79
451.997	37940.84
452.203	38512.22
452.409	38299.23
452.615	37863.02
452.821	36724.35
453.027	36353.66
453.233	38092.39
453.44	36400.77
453.646	36560.51
453.852	36615.8
454.058	37492.33
454.264	36001.41
454.47	36949.62
454.676	35970.69
454.882	37265.01
455.088	33879.72
455.294	34449.05
455.5	34860.69
455.705	35268.24
455.911	33988.26
456.117	33277.61
456.323	32571.07
456.529	31160.02
456.735	32241.34
456.941	31323.85
457.147	30953.17
457.352	30140.13
457.558	29812.45
457.764	29646.57
457.97	28960.5
458.176	28237.56
458.381	28167.93
458.587	26859.28
458.793	26851.09
458.999	25743.14
459.204	27309.83
459.41	26304.28
459.616	24999.73
459.821	24721.2
460.027	24897.33
460.233	24393.53
460.438	23248.71
460.644	23412.55
460.85	22407
461.055	22189.91
461.261	21778.27
461.466	20248.44
461.672	19756.93
461.878	20961.13
462.083	19814.27
462.289	19361.67
462.494	19253.12
462.7	18501.52
462.905	17698.72
463.111	18448.27
463.316	18552.72
463.522	18337.68
463.727	18167.7
463.932	18134.93
464.138	17786.78
464.343	17868.7
464.549	17442.72
464.754	17844.12
464.959	17872.79
465.165	17964.95
465.37	16902.06
465.575	16547.76
465.781	17088.42
465.986	17364.9
466.191	16641.96
466.397	16482.22
466.602	15730.62
466.807	16207.8
467.012	16355.25
467.218	15738.81
467.423	15783.87
467.628	15884.22
467.833	17020.84
468.038	16275.38
468.244	15761.34
468.449	15966.14
468.654	15894.46
468.859	15669.18
469.064	15464.38
469.269	14911.43
469.474	15038.41
469.679	15159.24
469.885	14878.66
470.09	15292.35
470.295	15099.84
470.5	14534.6
470.705	14690.25
470.91	14145.49
471.115	14184.4
471.32	14452.69
471.525	14618.57
471.73	14071.76
471.935	14122.96
472.139	13377.5
472.344	13643.74
472.549	13701.08
472.754	13502.43
472.959	13201.38
473.164	12787.69
473.369	12795.88
473.574	13242.34
473.778	12818.41
473.983	12611.56
474.188	12699.62
474.393	12230.64
474.598	12265.46
474.802	12206.06
475.007	12222.45
475.212	12103.67
475.417	11710.46
475.621	11651.06
475.826	11997.17
476.031	11597.82
476.235	11382.78
476.44	11610.11
476.645	11302.91
476.849	11282.43
477.054	11124.74
477.259	10721.29
477.463	10907.65
477.668	10739.72
477.872	10682.38
478.077	10668.04
478.282	10197.01
478.486	10483.72
478.691	10287.12
478.895	10117.14
479.1	10092.56
479.304	10145.81
479.509	10106.9
479.713	10022.93
479.918	9934.87
480.122	9666.58
480.326	9898
480.531	9961.49
480.735	9660.44
480.94	9648.15
481.144	10039.31
481.348	9451.55
481.553	9535.51
481.757	9414.68
481.961	9562.14
482.166	9773.08
482.37	9580.57
482.574	9314.33
482.778	9578.52
482.983	9529.37
483.187	9527.32
483.391	9512.99
483.595	9472.03
483.8	9431.07
484.004	9537.56
484.208	9523.23
484.412	9381.92
484.616	9422.87
484.821	9586.71
485.025	9222.17
485.229	9512.99
485.433	9250.85
485.637	9314.33
485.841	9685.01
486.045	9386.01
486.249	9564.18
486.453	9400.35
486.657	9519.13
486.861	9609.24
487.065	9261.09
487.269	9480.22
487.473	9420.83
487.677	9519.13
487.881	9537.56
488.085	9412.64
488.289	9498.65
488.493	9623.58
488.697	9539.61
488.901	9711.64
489.105	9472.03
489.309	9535.51
489.512	9601.05
489.716	9635.86
489.92	9451.55
490.124	9394.2
490.328	9754.65
490.531	9529.37
490.735	9666.58
490.939	9910.29
491.143	9549.85
491.346	9666.58
491.55	9848.85
491.754	10022.93
491.958	9965.59
492.161	9943.06
492.365	9852.95
492.569	10094.61
492.772	9875.48
492.976	10096.66
493.18	10229.77
493.383	10211.34
493.587	10229.77
493.79	10344.46
493.994	10246.16
494.197	10401.8
494.401	10407.95
494.605	10575.88
494.808	10795.01
495.012	10684.42
495.215	10854.41
495.419	10758.15
495.622	10657.8
495.825	11126.78
496.029	11165.7
496.232	11470.84
496.436	11036.67
496.639	11411.45
496.843	11470.84
497.046	11825.14
497.249	12152.82
497.453	11954.16
497.656	12070.9
497.859	11829.24
498.063	12056.56
498.266	12441.58
498.469	12623.85
498.673	12550.12
498.876	12734.44
499.079	13058.02
499.282	13021.16
499.485	13336.54
499.689	13180.9
499.892	13520.86
500.095	13692.89
500.298	13963.22
500.501	13813.72
500.705	13797.34
500.908	14153.68
501.111	14235.6
501.314	14411.73
501.517	14594
501.72	14618.57
501.923	14823.37
502.126	15265.73
502.329	15425.47
502.532	15515.58
502.735	15574.97
502.938	15867.83
503.141	15787.96
503.344	16385.97
503.547	16164.79
503.75	16570.29
503.953	16537.52
504.156	17024.93
504.359	17145.77
504.562	17166.24
504.765	17571.74
504.968	17819.55
505.17	17815.45
505.373	17958.81
505.576	18198.42
505.779	18395.03
505.982	18413.46
506.185	18894.73
506.387	18675.6
506.59	18968.46
506.793	19267.46
506.996	19433.35
507.198	19816.32
507.401	19683.2
507.604	19904.38
507.807	20680.56
508.009	20565.87
508.212	20565.87
508.415	20965.23
508.617	21294.95
508.82	21378.92
509.022	21503.84
509.225	21880.67
509.428	22042.46
509.63	22110.04
509.833	22024.03
510.035	22978.38
510.238	22585.17
510.44	22914.89
510.643	23459.65
510.845	23394.12
511.048	23803.71
511.25	23990.08
511.453	23922.49
511.655	25091.88
511.858	24508.21
512.06	24862.51
512.262	25116.46
512.465	25161.51
512.667	25620.26
512.87	26036
513.072	25763.62
513.274	26314.52
513.477	26558.23
513.679	26992.4
513.881	27541.25
514.084	27551.49
514.286	27438.86
514.488	27604.74
514.69	28268.28
514.893	28561.14
515.095	28634.87
515.297	29021.94
515.499	28874.48
515.701	29509.35
515.904	29773.54
516.106	30025.44
516.308	29902.56
516.51	30486.23
516.712	30775
516.914	30889.68
517.116	31264.46
517.318	31426.25
517.52	31749.83
517.722	31903.43
517.925	32399.04
518.127	32802.49
518.329	32831.16
518.531	32554.68
518.733	33474.22
518.935	33750.7
519.136	33636.01
519.338	34193.06
519.54	34676.38
519.742	34973.33
519.944	35167.89
520.146	35542.67
520.348	35927.69
520.55	35421.84
520.752	36050.56
520.954	36796.03
521.155	36181.63
521.357	37127.8
521.559	37385.84
521.761	37836.39
521.963	37805.67
522.164	38008.42
522.366	38252.13
522.568	38428.26
522.77	38424.16
522.971	39169.62
523.173	38735.45
523.375	39480.91
523.576	39755.34
523.778	39861.83
523.98	40140.36
524.181	40529.47
524.383	40500.8
524.584	40857.15
524.786	40889.91
524.988	40842.81
525.189	41915.95
525.391	41702.96
525.592	41973.29
525.794	41911.85
525.995	42466.85
526.197	42632.74
526.398	42761.76
526.6	42829.34
526.801	43136.54
527.003	43101.72
527.204	43531.79
527.406	43896.33
527.607	43800.08
527.808	44150.28
528.01	43157.02
528.211	43707.92
528.412	44375.56
528.614	44625.41
528.815	44543.49
529.016	44809.73
529.218	44785.15
529.419	45336.05
529.62	44953.08
529.822	44723.71
530.023	44871.17
530.224	45235.7
530.425	45327.86
530.626	45465.08
530.828	45272.57
531.029	46206.44
531.23	45843.95
531.431	45420.02
531.632	45964.78
531.833	45886.96
532.035	45833.71
532.236	45993.45
532.437	46886.37
532.638	45805.04
532.839	46063.08
533.04	46599.65
533.241	45940.21
533.442	47078.88
533.643	46056.94
533.844	46554.6
534.045	46800.35
534.246	46054.89
534.447	46568.93
534.648	46429.67
534.849	46620.13
535.05	46468.58
535.251	46929.37
535.451	46788.06
535.652	47039.96
535.853	46261.74
536.054	46937.57
536.255	47148.51
536.456	46566.88
536.657	47592.92
536.857	47207.9
537.058	46525.92
537.259	47312.34
537.46	47080.92
537.66	46837.22
537.861	47379.93
538.062	46964.19
538.263	47109.6
538.463	46493.16
538.664	46656.99
538.865	47029.73
539.065	47082.97
539.266	46452.2
539.466	47320.54
539.667	46706.15
539.868	47191.51
540.068	46847.46
540.269	46648.8
540.469	47310.3
540.67	46919.13
540.87	46808.54
541.071	47062.49
541.271	47248.86
541.472	46974.43
541.672	46812.64
541.873	46781.92
542.073	46118.38
542.274	46896.61
542.474	46767.59
542.675	46183.91
542.875	47054.3
543.075	46927.33
543.276	46409.19
543.476	47033.82
543.676	46312.94
543.877	46831.07
544.077	47091.16
544.277	46673.38
544.478	46892.51
544.678	46763.49
544.878	46767.59
545.078	46527.97
545.279	46757.35
545.479	46771.68
545.679	46663.14
545.879	46702.05
546.079	47044.06
546.28	46478.82
546.48	46130.67
546.68	46595.56
546.88	46892.51
547.08	46603.75
547.28	46910.94
547.48	46480.87
547.68	47091.16
547.88	46738.91
548.081	46931.42
548.281	46730.72
548.481	46505.45
548.681	46900.7
548.881	46702.05
549.081	46249.45
549.28	46228.97
549.48	46794.21
549.68	46538.21
549.88	47109.6
550.08	46304.74
550.28	46579.17
550.48	46337.51
550.68	46820.83
550.88	46376.42
551.08	46095.85
551.279	46726.63
551.479	46644.71
551.679	46507.49
551.879	46190.06
552.079	46503.4
552.278	46380.52
552.478	46349.8
552.678	46296.55
552.878	46403.05
553.077	46427.62
553.277	46132.71
553.477	46581.22
553.676	46034.41
553.876	46593.51
554.076	46333.42
554.275	45923.82
554.475	45862.38
554.674	46376.42
554.874	46407.14
555.074	45831.66
555.273	46032.36
555.473	46378.47
555.672	45723.12
555.872	45878.77
556.071	46233.07
556.271	45936.11
556.47	45682.16
556.67	45651.44
556.869	45299.19
557.068	45444.6
557.268	45301.24
557.467	45805.04
557.667	45241.85
557.866	45194.75
558.065	45202.94
558.265	44846.59
558.464	44854.78
558.663	45415.93
558.863	44881.41
559.062	45411.83
559.261	44862.97
559.461	45200.89
559.66	44187.14
559.859	44781.06
560.058	44457.48
560.258	44858.88
560.457	44103.18
560.656	44580.35
560.855	44140.04
561.054	45020.67
561.253	44103.18
561.453	44170.76
561.652	44338.69
561.851	44396.04
562.05	43736.59
562.249	43363.86
562.448	44412.42
562.647	43908.62
562.846	43437.59
563.045	43640.34
563.244	43609.62
563.443	43982.35
563.642	42905.12
563.841	43408.92
564.04	43238.93
564.239	43689.49
564.438	42964.51
564.637	43163.16
564.836	42802.72
565.035	42575.39
565.234	42720.8
565.432	42810.91
565.631	42446.37
565.83	42511.91
566.029	42241.57
566.228	42094.12
566.427	41952.81
566.625	42217
566.824	42053.16
567.023	42339.88
567.222	41446.96
567.42	41717.29
567.619	41668.14
567.818	41842.22
568.016	41344.56
568.215	41621.04
568.414	41309.75
568.612	41809.45
568.811	41051.7
569.01	41209.4
569.208	40621.63
569.407	40947.26
569.605	40345.16
569.804	41070.14
570.002	40457.79
570.201	41012.79
570.4	40191.56
570.598	40289.86
570.797	40175.17
570.995	40205.89
571.193	39640.65
571.392	40158.79
571.59	39571.02
571.789	39646.8
571.987	39360.08
572.186	39341.65
572.384	39063.13
572.582	39398.99
572.781	39263.83
572.979	38628.96
573.177	38973.02
573.376	39145.05
573.574	38407.78
573.772	38725.21
573.971	38614.62
574.169	37934.7
574.367	37957.22
574.565	38395.49
574.763	37994.09
574.962	38012.52
575.16	37695.08
575.358	37901.93
575.556	37351.02
575.754	37918.31
575.952	37121.65
576.151	37883.5
576.349	37256.82
576.547	37260.91
576.745	37564.01
576.943	37437.04
577.141	36988.53
577.339	37111.41
577.537	36939.38
577.735	36785.79
577.933	36431.49
578.131	36617.85
578.329	36591.23
578.527	36032.13
578.725	36095.62
578.923	36187.78
579.121	36015.75
579.319	35950.21
579.516	36236.93
579.714	35985.03
579.912	35853.96
580.11	35362.45
580.308	35729.03
580.506	35407.5
580.704	35016.34
580.901	35214.99
581.099	35352.21
581.297	35088.02
581.495	35260.05
581.692	35382.93
581.89	34502.3
582.088	35040.92
582.285	34451.1
582.483	34412.19
582.681	34301.6
582.878	34270.88
583.076	34131.62
583.274	34377.37
583.471	33631.91
583.669	33775.27
583.866	33627.82
584.064	33939.11
584.262	33527.47
584.459	33853.09
584.657	33296.05
584.854	33959.59
585.052	32919.22
585.249	33195.7
585.447	33267.38
585.644	32874.17
585.841	32939.7
586.039	32927.41
586.236	32599.74
586.434	32601.79
586.631	32630.46
586.828	32431.8
587.026	32695.99
587.223	32446.14
587.42	32145.09
587.618	32403.13
587.815	32009.92
588.012	32077.51
588.21	31905.48
588.407	32007.87
588.604	31626.95
588.801	31510.22
588.999	31772.36
589.196	31368.91
589.393	31227.6
589.59	31690.44
589.787	31182.54
589.984	30998.23
590.182	30775
590.379	31352.52
590.576	30656.21
590.773	30695.13
590.97	30684.89
591.167	30496.47
591.364	30308.06
591.561	30557.91
591.758	30054.11
591.955	30256.86
592.152	30207.71
592.349	30017.25
592.546	30361.31
592.743	30068.45
592.94	29558.5
593.137	29708.01
593.334	29832.93
593.531	29511.4
593.727	29320.94
593.924	29857.51
594.121	29171.44
594.318	29828.84
594.515	29112.05
594.712	29341.42
594.908	28890.87
595.105	29052.66
595.302	28827.38
595.499	28567.29
595.696	28686.07
595.892	28559.09
596.089	28581.62
596.286	28516.09
596.482	28325.63
596.679	28237.56
596.876	28251.9
597.072	28231.42
597.269	28079.87
597.466	28114.69
597.662	27686.66
597.859	28014.34
598.055	28094.21
598.252	27660.04
598.448	27330.31
598.645	27602.69
598.841	27258.63
599.038	27750.15
599.234	27295.5
599.431	26988.3
599.627	26832.66
599.824	27447.05
600.02	26777.36
600.217	26941.2
600.413	26711.83
600.609	26500.89
600.806	26599.19
601.002	26498.84
601.198	26402.58
601.395	26232.6
601.591	26162.97
601.787	26300.19
601.984	26185.5
602.18	26093.34
602.376	25986.85
602.572	25894.69
602.769	25997.09
602.965	25247.53
603.161	25610.02
603.357	25536.29
603.553	25415.46
603.75	25485.09
603.946	25321.26
604.142	25001.77
604.338	24991.53
604.534	25503.53
604.73	24768.3
604.926	25147.18
605.122	24977.2
605.318	24526.64
605.514	24753.97
605.71	24528.69
605.906	24444.73
606.102	24401.72
606.298	24375.09
606.494	24186.68
606.69	24473.4
606.886	24487.73
607.082	24000.32
607.278	24135.48
607.474	23869.25
607.67	24137.53
607.866	23695.17
608.062	24133.43
608.257	23693.12
608.453	23588.67
608.649	23914.3
608.845	23766.85
609.041	23549.76
609.236	23777.09
609.432	23557.96
609.628	23512.9
609.824	23246.66
610.019	23306.06
610.215	23193.42
610.411	23527.24
610.606	23174.99
610.802	23187.27
610.998	23076.68
611.193	23033.68
611.389	22632.27
611.584	23015.24
611.78	22941.52
611.976	22744.91
612.171	22777.68
612.367	22814.54
612.562	22443.86
612.758	22458.2
612.953	22613.84
613.149	22871.89
613.344	22249.3
613.539	22783.82
613.735	22220.63
613.93	22402.9
614.126	22224.73
614.321	22460.24
614.517	22171.48
614.712	21880.67
614.907	21948.25
615.103	22232.92
615.298	21606.24
615.493	22085.47
615.688	21827.42
615.884	22470.48
616.079	21684.06
616.274	21852
616.47	21725.02
616.665	21434.21
616.86	21444.45
617.055	21503.84
617.25	21368.68
617.445	21716.83
617.641	21049.19
617.836	21403.49
618.031	21116.78
618.226	21340.01
618.421	21155.69
618.616	21198.7
618.811	20651.89
619.006	21192.55
619.201	20768.62
619.396	20823.92
619.591	20516.72
619.786	20672.37
619.981	20512.63
620.176	20506.48
620.371	20264.82
620.566	20297.59
620.761	20225.91
620.956	19883.9
621.151	20125.56
621.346	19918.71
621.541	19525.5
621.735	20064.12
621.93	19365.76
622.125	19728.25
622.32	19435.39
622.515	19232.65
622.709	19265.41
622.904	19158.92
623.099	19079.05
623.294	18960.27
623.488	18872.2
623.683	18616.21
623.878	18169.75
624.072	18626.45
624.267	18495.38
624.462	18329.49
624.656	18270.1
624.851	18237.33
625.046	18073.49
625.24	18120.6
625.435	17897.37
625.629	17846.17
625.824	17874.84
626.018	17569.69
626.213	17422.24
626.407	17530.78
626.602	17033.13
626.796	17291.17
626.991	17330.08
627.185	17121.19
627.38	16969.64
627.574	17006.5
627.768	16691.12
627.963	16703.4
628.157	16482.22
628.352	16547.76
628.546	16377.78
628.74	16496.56
628.935	16383.92
629.129	16203.7
629.323	15964.09
629.517	15966.14
629.712	16189.36
629.906	16060.34
630.1	15695.8
630.294	15828.92
630.489	15603.64
630.683	15607.74
630.877	15390.66
631.071	15505.34
631.265	15384.51
631.459	15167.43
631.653	14952.39
631.848	15237.06
632.042	15071.17
632.236	15046.6
632.43	14845.9
632.624	14849.99
632.818	14710.73
633.012	14438.35
633.206	14456.78
633.4	14553.04
633.594	14344.14
633.788	14391.25
633.982	14268.37
634.176	14229.46
634.369	13914.07
634.563	14057.43
634.757	13995.99
634.951	14006.23
635.145	13864.92
635.339	13641.69
635.533	13434.85
635.726	13662.17
635.92	13254.62
636.114	13371.36
636.308	13195.23
636.501	13264.86
636.695	13051.88
636.889	12976.1
637.083	13105.12
637.276	12910.57
637.47	12924.9
637.664	12914.66
637.857	12740.58
638.051	12695.53
638.244	12580.84
638.438	12765.16
638.632	12402.67
638.825	12535.79
639.019	12220.4
639.212	12173.3
639.406	12285.94
639.599	12185.58
639.793	12171.25
639.986	11921.4
640.18	12017.65
640.373	11855.86
640.567	11689.98
640.76	11943.92
640.954	11616.25
641.147	11511.8
641.34	11501.56
641.534	11689.98
641.727	11456.51
641.92	11388.92
642.114	11302.91
642.307	11126.78
642.5	11286.53
642.694	10842.12
642.887	10864.64
643.08	11147.26
643.273	11067.39
643.467	10975.24
643.66	10745.86
643.853	10696.71
644.046	10528.78
644.239	10731.53
644.432	10510.35
644.626	10516.49
644.819	10342.41
645.012	10240.01
645.205	10299.41
645.398	10369.04
645.591	9984.02
645.784	10213.39
645.977	10110.99
646.17	10094.61
646.363	10090.51
646.556	9807.89
646.749	9910.29
646.942	9889.81
647.135	9660.44
647.328	9979.92
647.521	9588.76
647.714	9605.14
647.907	9578.52
648.099	9560.09
648.292	9502.75
648.485	9250.85
648.678	9259.04
648.871	9062.43
649.064	9226.27
649.256	9300
649.449	9220.13
649.642	9175.07
649.835	9035.81
650.027	8949.79
650.22	8935.46
650.413	8914.98
650.605	8820.77
650.798	8845.35
650.991	8435.75
651.183	8914.98
651.376	8704.04
651.568	8536.1
651.761	8560.68
651.954	8568.87
652.146	8497.19
652.339	8429.61
652.531	8472.62
652.724	8185.9
652.916	8323.12
653.109	8161.33
653.301	8343.6
653.494	8155.18
653.686	8030.26
653.879	8253.48
654.071	8067.12
654.263	7972.91
654.456	8204.33
654.648	7878.71
654.84	7829.56
655.033	7735.35
655.225	7721.01
655.417	7704.63
655.61	7505.98
655.802	7628.85
655.994	7620.66
656.186	7616.57
656.379	7532.6
656.571	7419.96
656.763	7419.96
656.955	7292.99
657.148	7661.62
657.34	7432.25
657.532	7274.56
657.724	7415.87
657.916	7262.27
658.108	7198.78
658.3	7059.52
658.492	7102.53
658.684	7010.37
658.876	7143.49
659.068	7131.2
659.26	7168.06
659.452	6922.31
659.644	7053.38
659.836	6903.87
660.028	6873.15
660.22	6756.42
660.412	6903.87
660.604	6869.06
660.796	6850.63
660.988	6574.15
661.18	6641.73
661.372	6555.72
661.563	6623.3
661.755	6262.86
661.947	6410.31
662.139	6416.46
662.331	6465.61
662.522	6467.66
662.714	6367.31
662.906	6094.93
663.097	6254.67
663.289	6215.76
663.481	6135.89
663.673	6178.89
663.864	6297.67
664.056	6080.59
664.247	6051.92
664.439	5924.94
664.631	6217.8
664.822	6080.59
665.014	6010.96
665.205	6045.77
665.397	6049.87
665.588	6109.26
665.78	5763.15
665.971	5709.91
666.163	6064.21
666.354	5709.91
666.546	5894.22
666.737	5613.65
666.929	5773.39
667.12	5605.46
667.311	5539.93
667.503	5541.97
667.694	5689.43
667.885	5611.61
668.077	5564.5
668.268	5486.68
668.459	5521.49
668.651	5494.87
668.842	5439.58
669.033	5562.45
669.224	5521.49
669.416	5410.9
669.607	5349.47
669.798	5425.24
669.989	5449.82
670.18	5212.25
670.371	5285.98
670.563	5134.43
670.754	5183.58
670.945	5066.85
671.136	5142.62
671.327	5195.87
671.518	4999.26
671.709	5081.18
671.9	5197.92
672.091	5079.13
672.282	5058.65
672.473	5128.28
672.664	5226.59
672.855	5044.32
673.046	5011.55
673.237	5128.28
673.428	5025.89
673.619	5025.89
673.809	5116
674	5021.79
674.191	5040.22
674.382	4946.02
674.573	4939.87
674.764	4862.05
674.954	4915.3
675.145	4780.13
675.336	4892.77
675.527	4819.04
675.717	4792.42
675.908	4778.08
676.099	4679.78
676.289	4675.68
676.48	4769.89
676.671	4882.53
676.861	4796.51
677.052	4591.72
677.243	4794.47
677.433	4675.68
677.624	4735.07
677.814	4677.73
678.005	4708.45
678.195	4698.21
678.386	4677.73
678.576	4493.41
678.767	4657.25
678.957	4687.97
679.148	4800.61
679.338	4581.48
679.529	4581.48
679.719	4565.09
679.909	4601.96
680.1	4487.27
680.29	4558.95
680.481	4427.88
680.671	4554.85
680.861	4556.9
681.052	4472.93
681.242	4452.45
681.432	4712.55
681.622	4438.12
681.813	4573.28
682.003	4434.02
682.193	4569.19
682.383	4487.27
682.573	4417.64
682.764	4423.78
682.954	4460.65
683.144	4481.13
683.334	4409.45
683.524	4290.67
683.714	4507.75
683.904	4425.83
684.094	4376.68
684.284	4399.21
684.474	4526.18
684.664	4526.18
684.854	4409.45
685.044	4483.17
685.234	4456.55
685.424	4376.68
685.614	4194.41
685.804	4329.58
685.994	4276.33
686.184	4210.79
686.374	4313.19
686.564	4343.91
686.753	4278.38
686.943	4264.04
687.133	4182.12
687.323	4188.27
687.513	4149.36
687.702	4235.37
687.892	4059.24
688.082	4155.5
688.272	4094.06
688.461	4153.45
688.651	4020.33
688.841	4006
689.03	3965.04
689.22	3962.99
689.41	4001.9
689.599	3975.28
689.789	4003.95
689.979	3930.22
690.168	3944.56
690.358	3836.02
690.547	3989.61
690.737	3926.13
690.926	3874.93
691.116	3889.26
691.305	3885.17
691.495	3770.48
691.684	3737.71
691.874	3924.08
692.063	3926.13
692.252	3940.46
692.442	3743.86
692.631	3709.04
692.82	3778.67
693.01	3666.03
693.199	3698.8
693.388	3645.56
693.578	3647.6
693.767	3729.52
693.956	3729.52
694.146	3653.75
694.335	3725.43
694.524	3782.77
694.713	3635.32
694.902	3698.8
695.092	3530.87
695.281	3498.1
695.47	3633.27
695.659	3647.6
695.848	3608.69
696.037	3588.21
696.226	3512.44
696.415	3588.21
696.604	3614.84
696.793	3446.9
696.982	3582.07
697.171	3528.82
697.36	3606.64
697.549	3414.13
697.738	3537.01
697.927	3545.2
698.116	3612.79
698.305	3537.01
698.494	3522.68
698.683	3502.2
698.872	3393.65
699.061	3377.27
699.25	3594.36
699.438	3545.2
699.627	3401.85
699.816	3549.3
700.005	3399.8
700.193	3436.66
700.382	3508.34
700.571	3477.62
700.76	3516.53
700.948	3551.35
701.137	3518.58
701.326	3514.49
701.514	3426.42
701.703	3418.23
701.892	3508.34
702.08	3504.25
702.269	3467.38
702.457	3504.25
702.646	3375.22
702.834	3448.95
703.023	3520.63
703.212	3526.77
703.4	3467.38
703.589	3436.66
703.777	3491.96
703.965	3430.52
704.154	3395.7
704.342	3369.08
704.531	3467.38
704.719	3328.12
704.907	3541.11
705.096	3383.42
705.284	3543.16
705.472	3340.41
705.661	3389.56
705.849	3500.15
706.037	3496.05
706.226	3432.57
706.414	3465.33
706.602	3352.7
706.79	3446.9
706.979	3332.22
707.167	3356.79
707.355	3291.26
707.543	3467.38
707.731	3332.22
707.919	3358.84
708.107	3356.79
708.296	3416.18
708.484	3356.79
708.672	3393.65
708.86	3416.18
709.048	3448.95
709.236	3360.89
709.424	3455.09
709.612	3451
709.8	3375.22
709.988	3387.51
710.176	3367.03
710.364	3522.68
710.551	3467.38
710.739	3268.73
710.927	3385.46
711.115	3393.65
711.303	3414.13
711.491	3360.89
711.679	3350.65
711.866	3403.89
712.054	3491.96
712.242	3330.17
712.43	3319.93
712.617	3377.27
712.805	3434.61
712.993	3371.13
713.181	3438.71
713.368	3422.33
713.556	3385.46
713.744	3485.81
713.931	3541.11
714.119	3342.46
714.306	3485.81
714.494	3389.56
714.682	3352.7
714.869	3346.55
715.057	3469.43
715.244	3369.08
715.432	3356.79
715.619	3506.29
715.807	3580.02
715.994	3455.09
716.182	3504.25
716.369	3481.72
716.556	3430.52
716.744	3309.69
716.931	3444.85
717.119	3373.18
717.306	3383.42
717.493	3373.18
717.681	3217.53
717.868	3379.32
718.055	3522.68
718.242	3397.75
718.43	3496.05
718.617	3342.46
718.804	3305.59
718.991	3418.23
719.179	3407.99
719.366	3340.41
719.553	3426.42
719.74	3405.94
719.927	3344.5
720.114	3317.88
720.301	3553.4
720.488	3559.54
720.676	3383.42
720.863	3520.63
721.05	3432.57
721.237	3356.79
721.424	3432.57
721.611	3410.04
721.798	3387.51
721.985	3342.46
722.172	3324.02
722.358	3278.97
722.545	3307.64
722.732	3389.56
722.919	3348.6
723.106	3338.36
723.293	3369.08
723.48	3410.04
723.667	3317.88
723.853	3356.79
724.04	3367.03
724.227	3340.41
724.414	3455.09
724.6	3549.3
724.787	3258.49
724.974	3430.52
725.161	3448.95
725.347	3401.85
725.534	3301.5
725.72	3315.83
725.907	3405.94
726.094	3295.35
726.28	3250.3
726.467	3340.41
726.653	3315.83
726.84	3238.01
727.027	3430.52
727.213	3330.17
727.4	3319.93
727.586	3324.02
727.773	3223.67
727.959	3188.86
728.145	3362.94
728.332	3233.91
728.518	3244.15
728.705	3438.71
728.891	3369.08
729.077	3283.06
729.264	3274.87
729.45	3264.63
729.636	3319.93
729.823	3137.66
730.009	3346.55
730.195	3299.45
730.382	3260.54
730.568	3240.06
730.754	3307.64
730.94	3358.84
731.126	3319.93
731.313	3250.3
731.499	3258.49
731.685	3289.21
731.871	3145.85
732.057	3080.32
732.243	3235.96
732.429	3319.93
732.615	3287.16
732.801	3317.88
732.987	3176.57
733.173	3262.58
733.359	3199.1
733.545	3238.01
733.731	3217.53
733.917	3287.16
734.103	3336.31
734.289	3121.28
734.475	3111.04
734.661	3219.58
734.847	3246.2
735.033	3102.84
735.219	3278.97
735.404	3084.41
735.59	3088.51
735.776	3176.57
735.962	3197.05
736.148	3119.23
736.333	3174.52
736.519	3047.55
736.705	3096.7
736.89	3094.65
737.076	3086.46
737.262	3055.74
737.447	3108.99
737.633	3027.07
737.819	3117.18
738.004	3098.75
738.19	3113.08
738.375	3035.26
738.561	3022.97
738.747	2998.4
738.932	2963.58
739.118	2984.06
739.303	3108.99
739.489	3006.59
739.674	2918.53
739.859	2896
740.045	2920.57
740.23	2930.81
740.416	2828.42
740.601	2947.2
740.786	2914.43
740.972	2922.62
741.157	2850.94
741.342	2842.75
741.528	2795.65
741.713	2996.35
741.898	2879.61
742.084	3006.59
742.269	2883.71
742.454	2869.37
742.639	2916.48
742.824	2797.7
743.01	2795.65
743.195	2805.89
743.38	2805.89
743.565	2707.59
743.75	2734.21
743.935	2687.11
744.12	2898.05
744.305	2539.65
744.49	2809.98
744.675	2633.86
744.86	2711.68
745.045	2822.27
745.23	2705.54
745.415	2654.34
745.6	2738.3
745.785	2586.76
745.97	2547.84
746.155	2566.28
746.34	2527.36
746.525	2674.82
746.71	2611.33
746.895	2504.84
747.079	2418.82
747.264	2553.99
747.449	2533.51
747.634	2388.1
747.819	2390.15
748.003	2394.25
748.188	2461.83
748.373	2316.42
748.557	2492.55
748.742	2336.9
748.927	2433.16
749.111	2328.71
749.296	2341
749.481	2285.7
749.665	2275.46
749.85	2238.6
750.034	2381.96
750.219	2105.48
750.404	2214.02
750.588	2033.8
750.773	2214.02
750.957	2195.59
751.141	2197.64
751.326	2150.54
751.51	1906.83
751.695	2097.29
751.879	2103.43
752.064	2130.06
752.248	2128.01
752.432	2156.68
752.617	2140.3
752.801	2119.82
752.985	2035.85
753.17	1992.84
753.354	1927.31
753.538	2001.04
753.722	1818.77
753.907	1880.21
754.091	1927.31
754.275	1935.5
754.459	1837.2
754.643	1894.54
754.828	1833.1
755.012	1874.06
755.196	1783.95
755.38	1849.49
755.564	1800.34
755.748	1702.03
755.932	1820.81
756.116	1769.62
756.3	1755.28
756.484	1769.62
756.668	1745.04
756.852	1734.8
757.036	1740.94
757.22	1742.99
757.404	1613.97
757.588	1663.12
757.772	1620.11
757.956	1659.03
758.14	1636.5
758.323	1544.34
758.507	1620.11
758.691	1628.31
758.875	1710.22
759.059	1665.17
759.242	1585.3
759.426	1570.96
759.61	1534.1
759.794	1601.68
759.977	1460.37
760.161	1550.48
760.345	1542.29
760.528	1501.33
760.712	1458.32
760.895	1491.09
761.079	1503.38
761.263	1558.67
761.446	1468.56
761.63	1452.18
761.813	1489.04
761.997	1448.08
762.18	1327.25
762.364	1462.42
762.547	1370.26
762.731	1304.73
762.914	1480.85
763.098	1351.83
763.281	1362.07
763.464	1407.13
763.648	1325.21
763.831	1403.03
764.015	1310.87
764.198	1317.01
764.381	1353.88
764.564	1368.21
764.748	1347.73
764.931	1216.66
765.114	1292.44
765.297	1423.51
765.481	1378.45
765.664	1366.17
765.847	1228.95
766.03	1267.86
766.213	1288.34
766.397	1187.99
766.58	1267.86
766.763	1255.58
766.946	1312.92
767.129	1321.11
767.312	1239.19
767.495	1149.08
767.678	1124.51
767.861	1206.42
768.044	1142.94
768.227	1167.51
768.41	1165.46
768.593	1177.75
768.776	1093.79
768.959	1190.04
769.142	1271.96
769.324	1169.56
769.507	1194.14
769.69	1112.22
769.873	1120.41
770.056	1206.42
770.239	1079.45
770.421	1181.85
770.604	1089.69
770.787	1112.22
770.97	1155.23
771.152	1050.78
771.335	1063.07
771.518	1034.39
771.7	1210.52
771.883	1112.22
772.066	1048.73
772.248	1106.07
772.431	1067.16
772.613	1124.51
772.796	1050.78
772.978	1011.87
773.161	1132.7
773.343	1020.06
773.526	989.34
773.708	925.85
773.891	954.52
774.073	1028.25
774.256	950.43
774.438	934.04
774.621	944.28
774.803	948.38
774.985	899.23
775.168	1013.92
775.35	903.32
775.532	917.66
775.715	917.66
775.897	911.52
776.079	917.66
776.261	888.99
776.444	903.32
776.626	901.28
776.808	852.13
776.99	856.22
777.173	995.48
777.355	845.98
777.537	862.37
777.719	848.03
777.901	823.45
778.083	833.69
778.265	794.78
778.447	960.67
778.629	841.89
778.811	823.45
778.993	878.75
779.175	821.41
779.357	784.54
779.539	768.16
779.721	815.26
779.903	843.93
780.085	735.39
780.267	712.86
780.449	837.79
780.631	768.16
780.812	747.68
780.994	751.78
781.176	727.2
781.358	671.9
781.54	645.28
781.721	719.01
781.903	723.1
782.085	737.44
782.267	735.39
782.448	698.53
782.63	706.72
782.812	600.23
782.993	704.67
783.175	626.85
783.357	653.47
783.538	669.86
783.72	669.86
783.901	708.77
784.083	612.51
784.264	575.65
784.446	618.66
784.627	663.71
784.809	622.75
784.99	628.9
785.172	626.85
785.353	575.65
785.535	598.18
785.716	506.02
785.897	577.7
786.079	587.94
786.26	538.79
786.441	530.59
786.623	473.25
786.804	528.55
786.985	559.27
787.167	542.88
787.348	469.16
787.529	577.7
787.71	501.92
787.891	546.98
788.073	465.06
788.254	415.91
788.435	581.79
788.616	477.35
788.797	481.44
788.978	442.53
789.159	493.73
789.34	452.77
789.522	499.88
789.703	420
789.884	460.96
790.065	503.97
790.246	438.44
790.427	422.05
790.607	469.16
790.788	397.48
790.969	389.28
791.15	420
791.331	436.39
791.512	475.3
791.693	452.77
791.874	374.95
792.054	538.79
792.235	526.5
792.416	336.04
792.597	368.81
792.778	428.2
792.958	426.15
793.139	442.53
793.32	411.81
793.5	364.71
793.681	385.19
793.862	403.62
794.042	350.37
794.223	395.43
794.404	452.77
794.584	288.93
794.765	356.52
794.945	370.85
795.126	403.62
795.306	379.04
795.487	387.24
795.667	307.37
795.848	336.04
796.028	422.05
796.209	368.81
796.389	321.7
796.57	342.18
796.75	352.42
796.93	344.23
797.111	305.32
797.291	356.52
797.471	379.04
797.652	299.17
797.832	297.13
798.012	274.6
798.192	329.89
798.373	354.47
798.553	299.17
798.733	348.33
798.913	268.45
799.093	305.32
799.274	395.43
799.454	340.13
799.634	374.95
799.814	245.93
799.994	280.74
800.174	344.23
800.354	178.34
800.534	346.28
800.714	211.11
800.894	196.78
801.074	284.84
801.254	274.6
801.434	336.04
801.614	321.7
801.794	161.96
801.974	727.2
802.154	272.55
802.334	241.83
802.514	272.55
802.693	231.59
802.873	262.31
803.053	268.45
803.233	260.26
803.413	237.74
803.592	245.93
803.772	258.21
803.952	252.07
804.131	360.61
804.311	231.59
804.491	264.36
804.67	157.86
804.85	280.74
805.03	293.03
805.209	323.75
805.389	239.78
805.568	168.1
805.748	245.93
805.928	266.41
806.107	282.79
806.287	211.11
806.466	252.07
806.646	264.36
806.825	237.74
807.004	256.17
807.184	215.21
807.363	288.93
807.543	280.74
807.722	276.65
807.901	219.3
808.081	186.54
808.26	141.48
808.439	256.17
808.619	305.32
808.798	223.4
808.977	223.4
809.156	217.26
809.336	245.93
809.515	233.64
809.694	270.5
809.873	207.02
810.052	223.4
810.231	227.5
810.411	219.3
810.59	254.12
810.769	213.16
810.948	188.58
811.127	182.44
811.306	239.78
811.485	204.97
811.664	235.69
811.843	86.19
812.022	247.97
812.201	215.21
812.38	143.53
812.559	254.12
812.737	157.86
812.916	161.96
813.095	172.2
813.274	168.1
813.453	176.3
813.632	149.67
813.811	245.93
813.989	145.58
814.168	157.86
814.347	174.25
814.526	243.88
814.704	194.73
814.883	237.74
815.062	153.77
815.24	129.19
815.419	100.52
815.598	170.15
815.776	149.67
815.955	215.21
816.133	100.52
816.312	172.2
816.49	102.57
816.669	182.44
816.847	121
817.026	149.67
817.204	176.3
817.383	168.1
817.561	164.01
817.74	202.92
817.918	129.19
818.097	135.34
818.275	190.63
818.453	207.02
818.632	166.06
818.81	157.86
818.988	112.81
819.167	104.62
819.345	172.2
819.523	143.53
819.701	121
819.879	180.39
820.058	145.58
820.236	198.82
820.414	166.06
820.592	118.95
820.77	84.14
820.948	131.24
821.127	166.06
821.305	190.63
821.483	188.58
821.661	184.49
821.839	161.96
822.017	104.62
822.195	133.29
822.373	125.1
822.551	143.53
822.729	157.86
822.907	157.86
823.085	196.78
823.262	131.24
823.44	176.3
823.618	135.34
823.796	112.81
823.974	71.85
824.152	125.1
824.329	118.95
824.507	104.62
824.685	166.06
824.863	106.67
825.04	176.3
825.218	149.67
825.396	123.05
825.574	100.52
825.751	75.95
825.929	196.78
826.107	65.71
826.284	98.47
826.462	133.29
826.639	37.03
826.817	47.27
826.994	164.01
827.172	43.18
827.349	125.1
827.527	110.76
827.704	45.23
827.882	178.34
828.059	123.05
828.237	30.89
828.414	57.51
828.591	71.85
828.769	102.57
828.946	34.99
829.124	71.85
829.301	92.33
829.478	47.27
829.655	143.53
829.833	75.95
830.01	47.27
830.187	82.09
830.364	145.58
830.542	34.99
830.719	178.34
830.896	100.52
831.073	43.18
831.25	161.96
831.427	182.44
831.604	129.19
831.782	69.8
831.959	92.33
832.136	143.53
832.313	73.9
832.49	69.8
832.667	75.95
832.844	45.23
833.021	112.81
833.198	71.85
833.374	108.71
833.551	161.96
833.728	125.1
833.905	73.9
834.082	39.08
834.259	55.47
834.436	110.76
834.612	26.79
834.789	80.04
834.966	65.71
835.143	59.56
835.319	63.66
835.496	75.95
835.673	157.86
835.85	98.47
836.026	133.29
836.203	104.62
836.38	161.96
836.556	80.04
836.733	2.22
836.909	137.38
837.086	108.71
837.262	4.27
837.439	12.46
837.616	-22.36
837.792	80.04
837.968	112.81
838.145	26.79
838.321	51.37
838.498	24.75
838.674	71.85
838.851	94.38
839.027	96.43
839.203	63.66
839.38	57.51
839.556	8.36
839.732	125.1
839.909	59.56
840.085	0.17
840.261	-3.93
840.437	61.61
840.614	34.99
840.79	65.71
840.966	63.66
841.142	26.79
841.318	116.9
841.494	51.37
841.671	100.52
841.847	-40.79
842.023	2.22
842.199	26.79
842.375	80.04
842.551	59.56
842.727	26.79
842.903	51.37
843.079	77.99
843.255	75.95
843.431	82.09
843.607	67.75
843.783	69.8
843.959	116.9
844.134	47.27
844.31	63.66
844.486	2.22
844.662	43.18
844.838	75.95
845.013	30.89
845.189	53.42
845.365	86.19
845.541	55.47
845.716	53.42
845.892	49.32
846.068	41.13
846.244	90.28
846.419	178.34
846.595	-16.21
846.77	4.27
846.946	61.61
847.122	96.43
847.297	-12.12
847.473	164.01
847.648	43.18
847.824	80.04
847.999	-36.69
848.175	34.99
848.35	53.42
848.526	24.75
848.701	65.71
848.876	43.18
849.052	112.81
849.227	34.99
849.403	10.41
849.578	47.27
849.753	84.14
849.929	41.13
850.104	67.75
850.279	10.41
850.454	41.13
850.63	98.47
850.805	92.33
850.98	-12.12
851.155	43.18
851.33	12.46
851.505	16.55
851.681	77.99
851.856	53.42
852.031	28.84
852.206	75.95
852.381	18.6
852.556	34.99
852.731	47.27
852.906	30.89
853.081	65.71
853.256	65.71
853.431	77.99
853.606	-1.88
853.781	-12.12
853.956	37.03
854.131	75.95
854.305	47.27
854.48	98.47
854.655	-36.69
854.83	26.79
855.005	61.61
855.18	-28.5
855.354	-16.21
855.529	39.08
855.704	26.79
855.879	-10.07
856.053	-22.36
856.228	-1.88
856.403	-1.88
856.577	57.51
856.752	39.08
856.926	6.31
857.101	-5.97
857.276	43.18
857.45	20.65
857.625	73.9
857.799	49.32
857.974	24.75
858.148	14.51
858.323	-69.46
858.497	-28.5
858.672	10.41
858.846	-16.21
859.02	-5.97
859.195	-10.07
859.369	45.23
859.543	-12.12
859.718	53.42
859.892	26.79
860.066	67.75
860.241	8.36
860.415	6.31
860.589	32.94
860.763	37.03
860.938	47.27
861.112	16.55
861.286	-5.97
861.46	8.36
861.634	-14.17
861.808	0.17
861.982	-5.97
862.157	-75.6
862.331	51.37
862.505	-1.88
862.679	20.65
862.853	43.18
863.027	30.89
863.201	43.18
863.375	-51.03
863.549	73.9
863.722	30.89
863.896	63.66
864.07	-22.36
864.244	8.36
864.418	14.51
864.592	47.27
864.766	28.84
864.939	-18.26
865.113	-38.74
865.287	0.17
865.461	10.41
865.634	12.46
865.808	24.75
865.982	-42.84
866.156	-14.17
866.329	18.6
866.503	20.65
866.676	73.9
866.85	28.84
867.024	51.37
867.197	18.6
867.371	-10.07
867.544	12.46
867.718	-18.26
867.891	-30.55
868.065	20.65
868.238	-73.56
868.412	-1.88
868.585	34.99
868.759	-46.93
868.932	-18.26
869.105	-65.36
869.279	-14.17
869.452	6.31
869.625	-30.55
869.799	41.13
869.972	-14.17
870.145	-53.08
870.319	-34.64
870.492	47.27
870.665	-22.36
870.838	-59.22
871.011	-38.74
871.185	-14.17
871.358	20.65
871.531	30.89
871.704	-59.22
871.877	4.27
872.05	12.46
872.223	-38.74
872.396	65.71
872.569	6.31
872.742	10.41
872.915	26.79
873.088	2.22
873.261	-42.84
873.434	77.99
873.607	82.09
873.78	34.99
873.953	-24.4
874.126	-1.88
874.299	30.89
874.471	59.56
874.644	-36.69
874.817	16.55
874.99	28.84
875.163	0.17
875.335	12.46
875.508	-63.32
875.681	2.22
875.853	-81.75
876.026	-24.4
876.199	24.75
876.371	45.23
876.544	-32.6
876.717	-14.17
876.889	-59.22
877.062	8.36
877.234	8.36
877.407	-57.17
877.579	14.51
877.752	-89.94
877.924	-3.93
878.097	-34.64
878.269	-20.31
878.442	47.27
878.614	-38.74
878.786	22.7
878.959	-42.84
879.131	-3.93
879.303	-46.93
879.476	-59.22
879.648	32.94
879.82	8.36
879.993	-22.36
880.165	90.28
880.337	-10.07
880.509	-30.55
880.681	24.75
880.854	-46.93
881.026	20.65
881.198	37.03
881.37	-57.17
881.542	-87.89
881.714	-28.5
881.886	-16.21
882.058	-46.93
882.23	-5.97
882.402	-22.36
882.574	16.55
882.746	6.31
882.918	71.85
883.09	32.94
883.262	-5.97
883.434	20.65
883.606	-12.12
883.778	18.6
883.95	34.99
884.122	39.08
884.293	22.7
884.465	18.6
884.637	18.6
884.809	-53.08
884.98	39.08
885.152	-28.5
885.324	8.36
885.496	20.65
885.667	45.23
885.839	4.27
886.011	-22.36
886.182	-10.07
886.354	30.89
886.525	-53.08
886.697	24.75
886.869	-63.32
887.04	30.89
887.212	20.65
887.383	-16.21
887.555	-8.02
887.726	-8.02
887.897	-16.21
888.069	14.51
888.24	10.41
888.412	-5.97
888.583	4.27
888.754	-42.84
888.926	-83.8
889.097	-28.5
889.268	26.79
889.44	2.22
889.611	-51.03
889.782	-30.55
889.953	-24.4
890.125	26.79
890.296	-34.64
890.467	-5.97
890.638	-16.21
890.809	-20.31
890.98	12.46
891.151	-30.55
891.323	20.65
891.494	-24.4
891.665	-73.56
891.836	14.51
892.007	45.23
892.178	32.94
892.349	10.41
892.52	-20.31
892.691	-22.36
892.862	34.99
893.032	-73.56
893.203	-53.08
893.374	22.7
893.545	18.6
893.716	-46.93
893.887	-22.36
894.057	-26.45
894.228	18.6
894.399	-32.6
894.57	51.37
894.74	-14.17
894.911	20.65
895.082	-91.99
895.253	-55.12
895.423	20.65
895.594	55.47
895.764	-1.88
895.935	-32.6
896.106	47.27
896.276	-57.17
896.447	6.31
896.617	47.27
896.788	-30.55
896.958	-94.04
897.129	4.27
897.299	14.51
897.47	77.99
897.64	-46.93
897.81	-22.36
897.981	20.65
898.151	-5.97
898.322	-5.97
898.492	0.17
898.662	32.94
898.832	10.41
899.003	41.13
899.173	0.17
899.343	10.41
899.513	-59.22
