Data from USB4F104151__97__10-24-39-608.txt Node

Date: Wed Mar 12 10:24:39 EDT 2025
User: louis
Spectrometer: USB4F10415
Trigger mode: 4
Integration Time (sec): 3.000000E-2
Scans to average: 1
Electric dark correction enabled: true
Nonlinearity correction enabled: false
Boxcar width: 0
XAxis mode: Wavelengths
Number of Pixels in Spectrum: 3648
>>>>>Begin Spectral Data<<<<<
178.204	-95.06
178.424	-95.06
178.644	-95.06
178.864	-123.73
179.084	-84.82
179.304	36.01
179.524	-76.63
179.744	9.39
179.964	85.16
180.184	-11.09
180.404	-19.29
180.624	-39.76
180.844	93.35
181.064	-23.38
181.283	-31.57
181.503	-19.29
181.723	-2.9
181.943	-23.38
182.163	60.59
182.383	-121.68
182.602	1.19
182.822	40.11
183.042	-56.15
183.262	-37.72
183.482	-19.29
183.701	-37.72
183.921	50.35
184.141	23.72
184.361	9.39
184.58	29.87
184.8	-2.9
185.02	23.72
185.239	97.45
185.459	-13.14
185.679	87.21
185.898	-37.72
186.118	29.87
186.338	-2.9
186.557	-33.62
186.777	36.01
186.997	33.96
187.216	40.11
187.436	66.73
187.655	-13.14
187.875	-37.72
188.095	-9.05
188.314	72.87
188.534	66.73
188.753	-101.2
188.973	29.87
189.192	-9.05
189.412	5.29
189.631	-25.43
189.851	-37.72
190.07	42.15
190.29	-4.95
190.509	5.29
190.729	-0.85
190.948	-17.24
191.168	70.83
191.387	46.25
191.607	-72.53
191.826	42.15
192.045	40.11
192.265	-9.05
192.484	-29.52
192.704	-0.85
192.923	-58.2
193.142	76.97
193.362	-29.52
193.581	25.77
193.8	-27.48
194.02	58.54
194.239	-41.81
194.458	1.19
194.678	21.67
194.897	-7
195.116	-47.96
195.335	-52.05
195.555	-9.05
195.774	3.24
195.993	3.24
196.212	-43.86
196.432	15.53
196.651	-37.72
196.87	40.11
197.089	79.02
197.308	25.77
197.528	-54.1
197.747	27.82
197.966	9.39
198.185	66.73
198.404	7.34
198.623	-43.86
198.842	23.72
199.062	62.63
199.281	-23.38
199.5	11.43
199.719	21.67
199.938	60.59
200.157	42.15
200.376	17.58
200.595	-0.85
200.814	-47.96
201.033	-7
201.252	-29.52
201.471	9.39
201.69	87.21
201.909	-0.85
202.128	72.87
202.347	-0.85
202.566	-41.81
202.785	-9.05
203.004	-15.19
203.223	9.39
203.442	31.91
203.661	-17.24
203.879	13.48
204.098	64.68
204.317	-37.72
204.536	29.87
204.755	46.25
204.974	48.3
205.193	-64.34
205.411	23.72
205.63	40.11
205.849	-19.29
206.068	42.15
206.287	-33.62
206.505	99.5
206.724	3.24
206.943	-17.24
207.162	25.77
207.381	101.55
207.599	-54.1
207.818	-93.01
208.037	-21.33
208.255	3.24
208.474	-43.86
208.693	64.68
208.911	17.58
209.13	54.44
209.349	25.77
209.567	-27.48
209.786	-17.24
210.005	-4.95
210.223	29.87
210.442	21.67
210.661	-4.95
210.879	-31.57
211.098	-35.67
211.316	54.44
211.535	64.68
211.753	9.39
211.972	-9.05
212.191	-82.77
212.409	52.39
212.628	17.58
212.846	42.15
213.065	23.72
213.283	111.78
213.502	-0.85
213.72	44.2
213.938	33.96
214.157	15.53
214.375	42.15
214.594	-60.24
214.812	31.91
215.031	60.59
215.249	56.49
215.467	68.78
215.686	-52.05
215.904	36.01
216.122	36.01
216.341	-0.85
216.559	31.91
216.778	50.35
216.996	60.59
217.214	46.25
217.432	-33.62
217.651	-0.85
217.869	-9.05
218.087	70.83
218.306	-29.52
218.524	19.63
218.742	13.48
218.96	111.78
219.179	-0.85
219.397	42.15
219.615	3.24
219.833	23.72
220.051	-54.1
220.27	25.77
220.488	72.87
220.706	5.29
220.924	15.53
221.142	15.53
221.36	13.48
221.578	42.15
221.796	33.96
222.015	-29.52
222.233	31.91
222.451	-11.09
222.669	-27.48
222.887	23.72
223.105	-13.14
223.323	31.91
223.541	25.77
223.759	56.49
223.977	-17.24
224.195	93.35
224.413	9.39
224.631	-25.43
224.849	23.72
225.067	5.29
225.285	-13.14
225.503	40.11
225.721	-58.2
225.939	-56.15
226.157	-11.09
226.375	48.3
226.592	-50
226.81	-31.57
227.028	-2.9
227.246	52.39
227.464	52.39
227.682	27.82
227.9	-2.9
228.117	-19.29
228.335	72.87
228.553	-21.33
228.771	38.06
228.989	-7
229.206	72.87
229.424	40.11
229.642	-50
229.86	-7
230.077	36.01
230.295	11.43
230.513	52.39
230.731	74.92
230.948	36.01
231.166	87.21
231.384	-31.57
231.601	13.48
231.819	83.11
232.037	-23.38
232.254	-50
232.472	-52.05
232.689	21.67
232.907	40.11
233.125	5.29
233.342	15.53
233.56	7.34
233.777	-70.48
233.995	-0.85
234.213	52.39
234.43	21.67
234.648	60.59
234.865	23.72
235.083	-19.29
235.3	25.77
235.518	33.96
235.735	76.97
235.953	25.77
236.17	15.53
236.388	93.35
236.605	15.53
236.822	48.3
237.04	13.48
237.257	-39.76
237.475	23.72
237.692	48.3
237.909	11.43
238.127	1.19
238.344	46.25
238.562	76.97
238.779	-2.9
238.996	13.48
239.214	5.29
239.431	-17.24
239.648	1.19
239.865	-29.52
240.083	31.91
240.3	79.02
240.517	3.24
240.735	27.82
240.952	76.97
241.169	-23.38
241.386	-17.24
241.603	-19.29
241.821	3.24
242.038	48.3
242.255	9.39
242.472	38.06
242.689	7.34
242.907	-29.52
243.124	13.48
243.341	-29.52
243.558	42.15
243.775	-70.48
243.992	17.58
244.209	11.43
244.426	83.11
244.643	-25.43
244.86	-19.29
245.078	-13.14
245.295	-25.43
245.512	-7
245.729	-4.95
245.946	44.2
246.163	-0.85
246.38	1.19
246.597	58.54
246.814	-35.67
247.031	-21.33
247.248	31.91
247.464	11.43
247.681	68.78
247.898	1.19
248.115	13.48
248.332	-21.33
248.549	44.2
248.766	17.58
248.983	109.74
249.2	-11.09
249.417	-4.95
249.633	-27.48
249.85	-33.62
250.067	89.26
250.284	3.24
250.501	15.53
250.717	42.15
250.934	31.91
251.151	89.26
251.368	-25.43
251.585	19.63
251.801	-47.96
252.018	-74.58
252.235	23.72
252.451	-56.15
252.668	-21.33
252.885	38.06
253.102	-4.95
253.318	-62.29
253.535	-11.09
253.752	-13.14
253.968	38.06
254.185	44.2
254.401	-4.95
254.618	29.87
254.835	-62.29
255.051	29.87
255.268	1.19
255.484	-9.05
255.701	15.53
255.917	-2.9
256.134	-0.85
256.351	42.15
256.567	-21.33
256.784	-25.43
257	-50
257.217	62.63
257.433	-25.43
257.65	50.35
257.866	23.72
258.082	-29.52
258.299	-7
258.515	17.58
258.732	23.72
258.948	-13.14
259.165	1.19
259.381	-2.9
259.597	-7
259.814	60.59
260.03	31.91
260.246	76.97
260.463	-35.67
260.679	3.24
260.895	9.39
261.112	-41.81
261.328	7.34
261.544	-19.29
261.761	89.26
261.977	-29.52
262.193	-31.57
262.409	29.87
262.626	29.87
262.842	-13.14
263.058	-27.48
263.274	-9.05
263.49	17.58
263.707	-31.57
263.923	29.87
264.139	7.34
264.355	64.68
264.571	-4.95
264.787	31.91
265.004	83.11
265.22	-13.14
265.436	23.72
265.652	-19.29
265.868	29.87
266.084	-21.33
266.3	-33.62
266.516	-9.05
266.732	27.82
266.948	29.87
267.164	19.63
267.38	85.16
267.596	29.87
267.812	40.11
268.028	48.3
268.244	-31.57
268.46	70.83
268.676	5.29
268.892	95.4
269.108	-25.43
269.324	40.11
269.54	7.34
269.756	95.4
269.972	-33.62
270.188	-47.96
270.403	48.3
270.619	-9.05
270.835	93.35
271.051	-33.62
271.267	40.11
271.483	27.82
271.698	38.06
271.914	76.97
272.13	-13.14
272.346	-21.33
272.562	81.07
272.777	105.64
272.993	19.63
273.209	-11.09
273.425	-27.48
273.64	-19.29
273.856	33.96
274.072	48.3
274.287	52.39
274.503	87.21
274.719	-56.15
274.934	7.34
275.15	23.72
275.366	29.87
275.581	19.63
275.797	-17.24
276.012	31.91
276.228	105.64
276.444	42.15
276.659	36.01
276.875	52.39
277.09	7.34
277.306	-52.05
277.521	81.07
277.737	21.67
277.952	-39.76
278.168	83.11
278.383	15.53
278.599	15.53
278.814	-7
279.03	50.35
279.245	87.21
279.461	-58.2
279.676	83.11
279.892	74.92
280.107	-39.76
280.322	-25.43
280.538	72.87
280.753	13.48
280.969	46.25
281.184	58.54
281.399	31.91
281.615	-45.91
281.83	-23.38
282.045	-58.2
282.26	17.58
282.476	23.72
282.691	17.58
282.906	-50
283.122	-0.85
283.337	33.96
283.552	87.21
283.767	-2.9
283.983	38.06
284.198	27.82
284.413	89.26
284.628	-0.85
284.843	27.82
285.058	21.67
285.274	38.06
285.489	-2.9
285.704	-25.43
285.919	-4.95
286.134	-13.14
286.349	40.11
286.564	-17.24
286.779	-23.38
286.995	85.16
287.21	7.34
287.425	15.53
287.64	-41.81
287.855	54.44
288.07	-31.57
288.285	81.07
288.5	-25.43
288.715	52.39
288.93	-9.05
289.145	3.24
289.36	48.3
289.575	19.63
289.79	54.44
290.004	13.48
290.219	11.43
290.434	27.82
290.649	21.67
290.864	19.63
291.079	40.11
291.294	60.59
291.509	64.68
291.724	21.67
291.938	54.44
292.153	-9.05
292.368	-39.76
292.583	68.78
292.798	81.07
293.012	5.29
293.227	13.48
293.442	38.06
293.657	17.58
293.871	9.39
294.086	60.59
294.301	60.59
294.516	76.97
294.73	1.19
294.945	-95.06
295.16	-33.62
295.374	52.39
295.589	99.5
295.804	3.24
296.018	38.06
296.233	58.54
296.447	-13.14
296.662	15.53
296.877	36.01
297.091	89.26
297.306	95.4
297.52	19.63
297.735	-62.29
297.949	-60.24
298.164	15.53
298.378	27.82
298.593	56.49
298.807	38.06
299.022	7.34
299.236	56.49
299.451	-90.96
299.665	44.2
299.88	70.83
300.094	31.91
300.309	124.07
300.523	-25.43
300.737	21.67
300.952	-17.24
301.166	79.02
301.381	27.82
301.595	-33.62
301.809	76.97
302.024	-29.52
302.238	36.01
302.452	60.59
302.667	-37.72
302.881	72.87
303.095	31.91
303.309	44.2
303.524	52.39
303.738	97.45
303.952	-9.05
304.166	-33.62
304.381	-50
304.595	46.25
304.809	54.44
305.023	11.43
305.237	42.15
305.452	44.2
305.666	64.68
305.88	-0.85
306.094	111.78
306.308	19.63
306.522	-13.14
306.736	60.59
306.95	-35.67
307.164	19.63
307.379	-52.05
307.593	103.59
307.807	11.43
308.021	56.49
308.235	-0.85
308.449	17.58
308.663	19.63
308.877	15.53
309.091	7.34
309.305	-2.9
309.519	-15.19
309.733	-9.05
309.947	-41.81
310.161	3.24
310.374	38.06
310.588	79.02
310.802	-19.29
311.016	27.82
311.23	40.11
311.444	-0.85
311.658	46.25
311.872	3.24
312.085	85.16
312.299	7.34
312.513	48.3
312.727	29.87
312.941	7.34
313.154	68.78
313.368	27.82
313.582	5.29
313.796	-68.44
314.009	25.77
314.223	3.24
314.437	48.3
314.651	36.01
314.864	19.63
315.078	31.91
315.292	62.63
315.505	60.59
315.719	-35.67
315.933	64.68
316.146	25.77
316.36	-37.72
316.573	70.83
316.787	-13.14
317.001	-21.33
317.214	-31.57
317.428	48.3
317.641	-56.15
317.855	-21.33
318.068	-27.48
318.282	-21.33
318.495	62.63
318.709	56.49
318.922	111.78
319.136	64.68
319.349	13.48
319.563	-21.33
319.776	11.43
319.99	-21.33
320.203	5.29
320.417	23.72
320.63	23.72
320.843	46.25
321.057	101.55
321.27	-15.19
321.483	-39.76
321.697	50.35
321.91	79.02
322.124	36.01
322.337	13.48
322.55	-13.14
322.763	-2.9
322.977	-64.34
323.19	-64.34
323.403	-7
323.617	38.06
323.83	21.67
324.043	62.63
324.256	40.11
324.469	-25.43
324.683	56.49
324.896	21.67
325.109	-25.43
325.322	11.43
325.535	-11.09
325.748	-54.1
325.962	44.2
326.175	70.83
326.388	23.72
326.601	11.43
326.814	13.48
327.027	15.53
327.24	58.54
327.453	-0.85
327.666	-19.29
327.879	7.34
328.092	79.02
328.305	-2.9
328.518	5.29
328.731	9.39
328.944	-0.85
329.157	66.73
329.37	-29.52
329.583	-21.33
329.796	40.11
330.009	-52.05
330.222	72.87
330.435	54.44
330.648	27.82
330.861	56.49
331.073	42.15
331.286	136.36
331.499	1.19
331.712	-33.62
331.925	-4.95
332.138	70.83
332.35	-37.72
332.563	-0.85
332.776	31.91
332.989	13.48
333.202	-19.29
333.414	19.63
333.627	-0.85
333.84	-2.9
334.053	-0.85
334.265	31.91
334.478	38.06
334.691	64.68
334.903	38.06
335.116	21.67
335.329	44.2
335.541	-17.24
335.754	64.68
335.966	-52.05
336.179	95.4
336.392	21.67
336.604	68.78
336.817	56.49
337.029	38.06
337.242	-2.9
337.454	97.45
337.667	-70.48
337.88	87.21
338.092	15.53
338.305	-2.9
338.517	-52.05
338.729	3.24
338.942	36.01
339.154	72.87
339.367	31.91
339.579	62.63
339.792	15.53
340.004	60.59
340.217	33.96
340.429	-47.96
340.641	15.53
340.854	-4.95
341.066	-2.9
341.278	81.07
341.491	60.59
341.703	27.82
341.915	-0.85
342.128	89.26
342.34	-17.24
342.552	76.97
342.764	15.53
342.977	17.58
343.189	9.39
343.401	13.48
343.613	7.34
343.826	13.48
344.038	-4.95
344.25	-76.63
344.462	17.58
344.674	68.78
344.886	3.24
345.099	-11.09
345.311	-21.33
345.523	66.73
345.735	52.39
345.947	-4.95
346.159	25.77
346.371	48.3
346.583	31.91
346.795	109.74
347.007	56.49
347.219	89.26
347.431	42.15
347.643	72.87
347.855	-64.34
348.067	87.21
348.279	36.01
348.491	91.31
348.703	15.53
348.915	-11.09
349.127	60.59
349.339	46.25
349.551	-21.33
349.763	56.49
349.975	60.59
350.187	33.96
350.399	19.63
350.61	103.59
350.822	15.53
351.034	-15.19
351.246	58.54
351.458	33.96
351.669	-9.05
351.881	3.24
352.093	54.44
352.305	66.73
352.517	11.43
352.728	11.43
352.94	126.12
353.152	-11.09
353.363	21.67
353.575	31.91
353.787	113.83
353.999	-0.85
354.21	64.68
354.422	-2.9
354.633	17.58
354.845	25.77
355.057	15.53
355.268	109.74
355.48	31.91
355.692	40.11
355.903	13.48
356.115	-4.95
356.326	-17.24
356.538	7.34
356.749	15.53
356.961	13.48
357.172	42.15
357.384	23.72
357.595	109.74
357.807	23.72
358.018	-80.72
358.23	-9.05
358.441	70.83
358.653	46.25
358.864	9.39
359.075	19.63
359.287	1.19
359.498	-35.67
359.709	97.45
359.921	33.96
360.132	-2.9
360.344	7.34
360.555	36.01
360.766	-7
360.977	5.29
361.189	83.11
361.4	5.29
361.611	52.39
361.823	15.53
362.034	15.53
362.245	66.73
362.456	72.87
362.667	46.25
362.879	11.43
363.09	64.68
363.301	54.44
363.512	64.68
363.723	44.2
363.935	3.24
364.146	42.15
364.357	-27.48
364.568	-17.24
364.779	72.87
364.99	54.44
365.201	-66.39
365.412	48.3
365.623	-19.29
365.834	-31.57
366.045	-9.05
366.256	-39.76
366.467	52.39
366.678	62.63
366.889	5.29
367.1	70.83
367.311	-17.24
367.522	56.49
367.733	3.24
367.944	-19.29
368.155	9.39
368.366	46.25
368.577	15.53
368.788	97.45
368.999	89.26
369.209	66.73
369.42	103.59
369.631	81.07
369.842	97.45
370.053	29.87
370.264	111.78
370.474	21.67
370.685	-21.33
370.896	-31.57
371.107	89.26
371.317	-17.24
371.528	7.34
371.739	27.82
371.95	62.63
372.16	-13.14
372.371	11.43
372.582	52.39
372.792	48.3
373.003	58.54
373.214	29.87
373.424	76.97
373.635	17.58
373.846	113.83
374.056	19.63
374.267	7.34
374.477	-76.63
374.688	66.73
374.898	76.97
375.109	19.63
375.319	46.25
375.53	72.87
375.74	60.59
375.951	85.16
376.161	64.68
376.372	79.02
376.582	11.43
376.793	9.39
377.003	-21.33
377.214	-11.09
377.424	56.49
377.635	-4.95
377.845	19.63
378.055	44.2
378.266	52.39
378.476	21.67
378.686	95.4
378.897	76.97
379.107	31.91
379.317	52.39
379.528	21.67
379.738	-9.05
379.948	21.67
380.158	25.77
380.369	13.48
380.579	81.07
380.789	117.93
380.999	38.06
381.21	95.4
381.42	105.64
381.63	68.78
381.84	97.45
382.05	-33.62
382.261	27.82
382.471	68.78
382.681	23.72
382.891	46.25
383.101	-4.95
383.311	93.35
383.521	-56.15
383.731	64.68
383.941	31.91
384.151	23.72
384.361	-21.33
384.571	72.87
384.781	44.2
384.991	50.35
385.201	15.53
385.411	60.59
385.621	19.63
385.831	38.06
386.041	64.68
386.251	44.2
386.461	56.49
386.671	3.24
386.881	62.63
387.091	60.59
387.301	13.48
387.511	29.87
387.72	81.07
387.93	31.91
388.14	-2.9
388.35	-60.24
388.56	56.49
388.769	27.82
388.979	-0.85
389.189	48.3
389.399	79.02
389.609	72.87
389.818	76.97
390.028	27.82
390.238	56.49
390.447	-0.85
390.657	7.34
390.867	42.15
391.076	115.88
391.286	15.53
391.496	44.2
391.705	40.11
391.915	23.72
392.125	46.25
392.334	56.49
392.544	136.36
392.753	-2.9
392.963	-17.24
393.172	36.01
393.382	38.06
393.591	146.6
393.801	52.39
394.01	58.54
394.22	52.39
394.429	27.82
394.639	31.91
394.848	60.59
395.058	70.83
395.267	52.39
395.477	95.4
395.686	66.73
395.895	128.17
396.105	224.42
396.314	40.11
396.524	87.21
396.733	66.73
396.942	87.21
397.152	115.88
397.361	158.89
397.57	58.54
397.78	99.5
397.989	81.07
398.198	95.4
398.407	72.87
398.617	89.26
398.826	91.31
399.035	175.27
399.244	117.93
399.453	109.74
399.663	79.02
399.872	54.44
400.081	54.44
400.29	109.74
400.499	64.68
400.708	72.87
400.917	54.44
401.127	111.78
401.336	95.4
401.545	183.46
401.754	54.44
401.963	97.45
402.172	66.73
402.381	148.65
402.59	162.98
402.799	72.87
403.008	95.4
403.217	122.02
403.426	76.97
403.635	87.21
403.844	87.21
404.053	142.5
404.262	81.07
404.471	138.41
404.68	103.59
404.888	117.93
405.097	156.84
405.306	144.55
405.515	111.78
405.724	119.98
405.933	152.74
406.142	156.84
406.35	132.26
406.559	160.94
406.768	169.13
406.977	244.9
407.185	185.51
407.394	238.76
407.603	191.66
407.812	218.28
408.02	259.24
408.229	181.42
408.438	199.85
408.646	201.9
408.855	287.91
409.064	257.19
409.272	261.29
409.481	246.95
409.69	298.15
409.898	224.42
410.107	341.16
410.315	322.73
410.524	310.44
410.733	345.25
410.941	289.96
411.15	359.59
411.358	392.36
411.567	476.32
411.775	418.98
411.984	433.32
412.192	494.76
412.401	421.03
412.609	404.64
412.818	468.13
413.026	529.57
413.234	482.47
413.443	595.11
413.651	531.62
413.86	531.62
414.068	674.98
414.276	625.83
414.485	699.55
414.693	621.73
414.901	722.08
415.11	685.22
415.318	658.59
415.526	734.37
415.734	777.37
415.943	877.73
416.151	924.83
416.359	912.54
416.567	935.07
416.776	916.64
416.984	965.79
417.192	1025.18
417.4	1051.8
417.608	941.21
417.817	1000.6
418.025	1064.09
418.233	1248.41
418.441	1193.11
418.649	1156.25
418.857	1215.64
419.065	1391.77
419.273	1359
419.481	1359
419.689	1359
419.897	1571.99
420.105	1588.37
420.313	1617.04
420.521	1678.48
420.729	1629.33
420.937	1647.76
421.145	1844.37
421.353	1832.08
421.561	1922.19
421.769	1887.37
421.977	1997.96
422.185	2081.93
422.393	2196.62
422.601	2292.87
422.809	2356.36
423.017	2329.74
423.224	2440.33
423.432	2495.62
423.64	2561.16
423.848	2747.52
424.056	2782.34
424.263	2915.45
424.471	2784.38
424.679	2993.28
424.887	3050.62
425.094	3087.48
425.302	3126.39
425.51	3310.71
425.718	3427.45
425.925	3355.77
426.133	3597.43
426.341	3849.33
426.548	4037.74
426.756	3898.48
426.964	3816.56
427.171	4289.64
427.379	4531.3
427.586	4334.7
427.794	4574.31
428.001	4779.11
428.209	5090.4
428.417	5225.56
428.624	5348.44
428.832	5162.08
429.039	5344.35
429.247	5317.72
429.454	5708.88
429.662	6134.86
429.869	5764.18
430.076	6067.28
430.284	5932.11
430.491	6163.53
430.699	6542.41
430.906	6573.13
431.114	6595.65
431.321	6999.1
431.528	6995.01
431.736	7404.6
431.943	7697.46
432.15	7529.53
432.358	7619.64
432.565	8031.28
432.772	8100.91
432.979	8690.73
433.187	8617
433.394	8502.31
433.601	9440.28
433.808	9153.57
434.016	9262.11
434.223	9649.18
434.43	10150.93
434.637	10085.39
434.844	10468.36
435.052	10908.68
435.259	10806.28
435.466	10814.47
435.673	10714.12
435.88	11559.93
436.087	12002.29
436.294	12002.29
436.501	11899.89
436.708	11774.97
436.915	12315.63
437.122	13108.19
437.329	12925.93
437.537	13157.35
437.743	13603.8
437.95	13511.64
438.157	13980.63
438.364	14746.57
438.571	14336.98
438.778	14613.45
438.985	16073.65
439.192	15274.95
439.399	15893.43
439.606	15455.17
439.813	16161.72
440.02	17490.85
440.227	17030.05
440.433	17109.93
440.64	17429.41
440.847	17456.03
441.054	17974.17
441.261	18819.98
441.467	18811.79
441.674	19114.89
441.881	19622.78
442.088	19798.91
442.294	19323.78
442.501	20059
442.708	20523.89
442.914	21218.15
443.121	22070.11
443.328	21586.79
443.534	23126.86
443.741	22068.06
443.948	21857.12
444.154	23671.62
444.361	23298.89
444.568	23835.45
444.774	23630.66
444.981	23769.92
445.187	24349.5
445.394	25535.27
445.6	25000.75
445.807	27525.89
446.013	26444.57
446.22	27048.72
446.426	28056.32
446.633	28214.01
446.839	29092.59
447.046	28082.94
447.252	29528.81
447.459	29246.19
447.665	29119.21
447.871	30704.34
448.078	31883.97
448.284	30210.78
448.491	31165.14
448.697	32492.22
448.903	33075.89
449.11	32961.2
449.316	32185.02
449.522	32758.45
449.728	33866.41
449.935	33508.01
450.141	33833.64
450.347	34669.21
450.553	33772.2
450.76	33946.28
450.966	34947.73
451.172	34781.85
451.378	35424.91
451.584	34630.3
451.791	35822.22
451.997	35492.49
452.203	35941
452.409	35562.12
452.615	35711.63
452.821	34491.04
453.027	33985.19
453.233	36088.45
453.44	34370.21
453.646	35328.66
453.852	35062.42
454.058	35066.52
454.264	33972.9
454.47	34474.65
454.676	34130.59
454.882	35306.13
455.088	32189.12
455.294	32678.58
455.5	33020.59
455.705	33301.17
455.911	31709.89
456.117	31367.88
456.323	30882.52
456.529	29256.43
456.735	30485.21
456.941	29682.41
457.147	29074.16
457.352	27943.68
457.558	27693.83
457.764	28246.78
457.97	27775.75
458.176	26946.32
458.381	26606.36
458.587	25510.69
458.793	25297.7
458.999	24064.83
459.204	25705.25
459.41	25203.5
459.616	23581.51
459.821	23632.71
460.027	23327.56
460.233	23012.17
460.438	21941.08
460.644	22145.88
460.85	21201.77
461.055	20665.2
461.261	20906.86
461.466	19116.93
461.672	18723.72
461.878	20216.69
462.083	18881.42
462.289	18459.54
462.494	18144.15
462.7	17382.31
462.905	16839.59
463.111	17316.77
463.316	17431.46
463.522	17243.04
463.727	17230.76
463.932	17316.77
464.138	17169.32
464.343	17009.58
464.549	16483.25
464.754	17214.37
464.959	16894.89
465.165	16784.3
465.37	16182.2
465.575	15907.77
465.781	16067.51
465.986	16587.69
466.191	15805.37
466.397	15631.29
466.602	14592.97
466.807	15254.47
467.012	15197.12
467.218	15338.43
467.423	15074.24
467.628	15195.07
467.833	15778.75
468.038	15221.7
468.244	15102.92
468.449	15424.45
468.654	14771.15
468.859	14627.79
469.064	14578.64
469.269	14037.97
469.474	14232.53
469.679	14533.58
469.885	13908.95
470.09	14308.3
470.295	14066.64
470.5	13751.26
470.705	13790.17
470.91	13511.64
471.115	13470.69
471.32	13806.55
471.525	13452.25
471.73	13233.12
471.935	12968.93
472.139	12919.78
472.344	12862.44
472.549	12839.91
472.754	12590.06
472.959	12188.66
473.164	11998.2
473.369	11875.32
473.574	12278.77
473.778	12049.39
473.983	12209.14
474.188	12164.08
474.393	11514.87
474.598	11867.13
474.802	11484.16
475.007	11426.81
475.212	11435
475.417	11009.03
475.621	10990.59
475.826	11092.99
476.031	10642.44
476.235	10556.43
476.44	10892.29
476.645	10558.47
476.849	10576.91
477.054	10220.56
477.259	10155.02
477.463	10200.08
477.668	10146.83
477.872	10138.64
478.077	10034.19
478.282	9686.04
478.486	9790.49
478.691	9600.02
478.895	9786.39
479.1	9348.12
479.304	9643.03
479.509	9251.87
479.713	9532.44
479.918	9264.16
480.122	8936.48
480.326	9159.71
480.531	9454.62
480.735	9100.32
480.94	9251.87
481.144	9387.04
481.348	8920.1
481.553	9034.78
481.757	8973.35
481.961	8977.44
482.166	9032.74
482.37	8932.39
482.574	9002.02
482.778	8805.41
482.983	8973.35
483.187	8864.8
483.391	9202.72
483.595	8895.52
483.8	8881.19
484.004	8916
484.208	9182.24
484.412	8870.95
484.616	8885.28
484.821	8956.96
485.025	8856.61
485.229	9016.35
485.433	8803.36
485.637	8997.92
485.841	8612.9
486.045	8948.77
486.249	8999.97
486.453	8711.21
486.657	8823.84
486.861	8893.47
487.065	8793.12
487.269	9065.5
487.473	8666.15
487.677	8952.87
487.881	8881.19
488.085	8881.19
488.289	9073.7
488.493	8909.86
488.697	8946.72
488.901	8924.19
489.105	8895.52
489.309	9106.46
489.512	9079.84
489.716	8821.8
489.92	9059.36
490.124	8795.17
490.328	9071.65
490.531	9223.2
490.735	9081.89
490.939	9153.57
491.143	9083.94
491.346	8995.87
491.55	9296.92
491.754	9174.05
491.958	9243.68
492.161	9284.64
492.365	9339.93
492.569	9473.05
492.772	9245.73
492.976	9612.31
493.18	9423.9
493.383	9731.09
493.587	9696.28
493.79	9792.53
493.994	9643.03
494.197	9653.27
494.401	9929.75
494.605	9841.68
494.808	10134.54
495.012	10030.1
495.215	10200.08
495.419	10171.41
495.622	10128.4
495.825	10312.72
496.029	10435.6
496.232	10740.74
496.436	10329.1
496.639	10748.93
496.843	10581
497.046	10953.73
497.249	10966.02
497.453	11244.54
497.656	10998.79
497.859	11416.57
498.063	11342.85
498.266	11469.82
498.469	11559.93
498.673	11707.38
498.876	11822.07
499.079	12055.54
499.282	12164.08
499.485	12289.01
499.689	12502
499.892	12504.04
500.095	12710.89
500.298	12950.5
500.501	12710.89
500.705	13118.43
500.908	13337.57
501.111	13433.82
501.314	13401.05
501.517	13687.77
501.72	13923.29
501.923	13777.88
502.126	14283.73
502.329	14224.34
502.532	14312.4
502.735	14509.01
502.938	14855.11
503.141	14595.02
503.344	15012.81
503.547	15139.78
503.75	15340.48
503.953	15315.9
504.156	15604.67
504.359	15911.86
504.562	15815.61
504.765	16112.56
504.968	16556.97
505.17	16569.26
505.373	16632.75
505.576	16964.52
505.779	17114.02
505.982	17154.98
506.185	17329.06
506.387	17656.73
506.59	17843.1
506.793	18000.79
506.996	18152.34
507.198	18631.57
507.401	18301.84
507.604	18754.44
507.807	19338.12
508.009	19190.66
508.212	19286.92
508.415	19731.33
508.617	19805.05
508.82	20136.82
509.022	19860.35
509.225	20337.52
509.428	20788.08
509.63	20767.6
509.833	20913
510.035	21396.32
510.238	21517.15
510.44	21578.59
510.643	21764.96
510.845	21992.28
511.048	21982.04
511.25	22324.05
511.453	22330.2
511.655	23096.14
511.858	22715.22
512.06	23219.02
512.262	23348.04
512.465	23458.63
512.667	24159.03
512.87	23896.89
513.072	24210.23
513.274	24613.68
513.477	24924.97
513.679	25070.38
513.881	25350.95
514.084	25457.45
514.286	25752.35
514.488	25877.28
514.69	26346.26
514.893	26415.9
515.095	26651.41
515.297	27243.27
515.499	26985.23
515.701	27593.48
515.904	27874.05
516.106	27767.55
516.308	28052.22
516.51	28539.64
516.712	28578.55
516.914	28601.08
517.116	29403.88
517.318	29594.34
517.52	29643.49
517.722	29856.48
517.925	29901.54
518.127	30771.93
518.329	30950.1
518.531	30530.26
518.733	31357.64
518.935	31318.73
519.136	31371.98
519.338	31769.29
519.54	32295.61
519.742	32287.42
519.944	32895.67
520.146	33260.21
520.348	33176.24
520.55	33387.18
520.752	33737.38
520.954	34458.27
521.155	33776.3
521.357	34577.05
521.559	34775.7
521.761	35617.42
521.963	35078.8
522.164	35381.9
522.366	35646.09
522.568	35799.69
522.77	36078.21
522.971	36938.36
523.173	36526.72
523.375	37012.09
523.576	36745.85
523.778	37231.22
523.98	37507.69
524.181	38085.22
524.383	37857.9
524.584	38410.85
524.786	38294.11
524.988	38306.4
525.189	38605.41
525.391	39037.53
525.592	39348.82
525.794	39162.45
525.995	39395.92
526.197	39627.34
526.398	39324.24
526.6	39821.9
526.801	39862.86
527.003	39979.59
527.204	40106.57
527.406	40927.8
527.607	40434.24
527.808	41085.5
528.01	40501.82
528.211	40706.62
528.412	41921.07
528.614	41591.34
528.815	41597.49
529.016	41566.77
529.218	41775.66
529.419	41716.27
529.62	41654.83
529.822	41595.44
530.023	41984.55
530.224	42447.39
530.425	42320.42
530.626	41839.15
530.828	41986.6
531.029	42943
531.23	42285.61
531.431	42723.87
531.632	42533.41
531.833	42697.25
532.035	42623.52
532.236	43016.73
532.437	43268.63
532.638	42680.86
532.839	43229.72
533.04	42881.56
533.241	42353.19
533.442	43514.39
533.643	42967.58
533.844	43141.66
534.045	43229.72
534.246	42848.8
534.447	43452.95
534.648	43115.03
534.849	43350.55
535.05	43037.21
535.251	43368.98
535.451	43170.33
535.652	43336.21
535.853	43604.5
536.054	43682.32
536.255	43729.42
536.456	43137.56
536.657	43846.16
536.857	43229.72
537.058	43180.57
537.259	43696.66
537.46	43459.09
537.66	43371.03
537.861	43893.26
538.062	43309.59
538.263	43504.15
538.463	43549.2
538.664	43452.95
538.865	43401.75
539.065	44108.3
539.266	43344.41
539.466	43717.14
539.667	43377.17
539.868	44018.19
540.068	43381.27
540.269	43684.37
540.469	44130.83
540.67	43102.74
540.87	43082.27
541.071	43500.05
541.271	43530.77
541.472	43477.52
541.672	43131.42
541.873	43416.08
542.073	42973.72
542.274	43254.29
542.474	42699.3
542.675	43178.52
542.875	43629.07
543.075	43330.07
543.276	42809.89
543.476	43493.91
543.676	42926.62
543.877	43143.7
544.077	43336.21
544.277	43315.73
544.478	43199
544.678	43221.53
544.878	43254.29
545.078	43280.92
545.279	43022.87
545.479	43061.79
545.679	43051.55
545.879	43094.55
546.079	43313.69
546.28	43223.58
546.48	42955.29
546.68	42990.11
546.88	43254.29
547.08	43489.81
547.28	43041.31
547.48	42770.97
547.68	42953.24
547.88	42672.67
548.081	43106.84
548.281	43516.43
548.481	42943
548.681	43229.72
548.881	43045.4
549.081	42918.43
549.28	42373.67
549.48	42715.68
549.68	42793.5
549.88	43635.22
550.08	42527.27
550.28	43217.43
550.48	42508.83
550.68	43074.07
550.88	42553.89
551.08	43108.89
551.279	42916.38
551.479	42494.5
551.679	42400.29
551.879	42447.39
552.079	42689.06
552.278	42545.7
552.478	42623.52
552.678	42416.68
552.878	42932.76
553.077	42494.5
553.277	42338.85
553.477	43041.31
553.676	42607.14
553.876	42320.42
554.076	42453.54
554.275	42345
554.475	41706.03
554.674	42508.83
554.874	42265.13
555.074	42025.51
555.273	42492.45
555.473	42830.37
555.672	41495.09
555.872	42107.43
556.071	41955.88
556.271	41949.74
556.47	41851.44
556.67	41738.8
556.869	41597.49
557.068	41779.76
557.268	41501.23
557.467	41798.19
557.667	41732.65
557.866	41722.41
558.065	41587.25
558.265	41206.33
558.464	41308.72
558.663	41626.16
558.863	40706.62
559.062	41630.26
559.261	41095.74
559.461	41388.6
559.66	41085.5
559.859	40874.55
560.058	40974.91
560.258	41079.35
560.457	41067.06
560.656	40987.19
560.855	40559.17
561.054	40745.53
561.253	40161.86
561.453	40516.16
561.652	40522.3
561.851	40600.13
562.05	39914.06
562.249	40376.9
562.448	40352.32
562.647	39993.93
562.846	39879.24
563.045	40196.68
563.244	39963.21
563.443	40196.68
563.642	39340.63
563.841	39887.43
564.04	39119.45
564.239	39772.75
564.438	39219.8
564.637	39510.61
564.836	39469.65
565.035	38695.52
565.234	39260.76
565.432	39066.2
565.631	38705.76
565.83	38730.33
566.029	38642.27
566.228	38494.82
566.427	38799.96
566.625	38406.75
566.824	37948.01
567.023	38257.25
567.222	38085.22
567.42	38253.15
567.619	37890.66
567.818	38191.72
568.016	37827.18
568.215	37888.62
568.414	37567.09
568.612	37761.64
568.811	37302.9
569.01	37380.72
569.208	37401.2
569.407	37452.4
569.605	36440.7
569.804	37696.11
570.002	36866.68
570.201	37061.24
570.4	36731.51
570.598	36522.62
570.797	36780.67
570.995	36536.96
571.193	36065.92
571.392	36477.57
571.59	36014.73
571.789	36002.44
571.987	35857.03
572.186	35897.99
572.384	35680.91
572.582	35570.32
572.781	35662.47
572.979	35238.54
573.177	35586.7
573.376	35637.9
573.574	35353.23
573.772	35005.08
573.971	35170.96
574.169	34814.62
574.367	34794.14
574.565	34921.11
574.763	34556.57
574.962	34751.13
575.16	33847.97
575.358	34734.74
575.556	34030.24
575.754	34331.29
575.952	33946.28
576.151	34325.15
576.349	34013.86
576.547	34099.87
576.745	33874.6
576.943	33686.18
577.141	33745.58
577.339	33630.89
577.537	33737.38
577.735	33673.9
577.933	33227.44
578.131	33440.43
578.329	32860.85
578.527	32746.17
578.725	32615.1
578.923	32719.54
579.121	32692.92
579.319	32737.98
579.516	32682.68
579.714	32592.57
579.912	32365.24
580.11	32529.08
580.308	32250.56
580.506	32172.74
580.704	31578.82
580.901	32258.75
581.099	31867.59
581.297	31765.19
581.495	31466.19
581.692	31544.01
581.89	31501
582.088	31775.43
582.285	31199.95
582.483	31859.4
582.681	31562.44
582.878	31202
583.076	30993.11
583.274	31142.61
583.471	30649.05
583.669	31079.12
583.866	30356.19
584.064	30878.42
584.262	30573.27
584.459	30595.8
584.657	30425.82
584.854	31097.55
585.052	29743.84
585.249	30614.23
585.447	30313.18
585.644	29891.3
585.841	30122.72
586.039	29915.87
586.236	29522.66
586.434	29881.06
586.631	29416.17
586.828	29688.55
587.026	29410.03
587.223	29557.48
587.42	29164.27
587.618	29367.02
587.815	28809.97
588.012	28734.2
588.21	28967.66
588.407	29139.69
588.604	28574.45
588.801	28621.56
588.999	28594.93
589.196	28543.74
589.393	28050.17
589.59	28502.78
589.787	28115.71
589.984	28097.28
590.182	27923.2
590.379	28125.95
590.576	27917.06
590.773	27962.11
590.97	27452.17
591.167	27599.62
591.364	27132.68
591.561	27386.63
591.758	27411.21
591.955	27204.36
592.152	27388.68
592.349	27116.3
592.546	26825.49
592.743	26768.15
592.94	26729.23
593.137	26864.4
593.334	26880.78
593.531	26538.77
593.727	26723.09
593.924	26620.69
594.121	26303.26
594.318	26338.07
594.515	26366.74
594.712	26409.75
594.908	26305.31
595.105	26034.97
595.302	25783.07
595.499	25893.66
595.696	26155.8
595.892	25625.38
596.089	25762.59
596.286	25752.35
596.482	25484.07
596.679	25572.13
596.876	25578.28
597.072	25015.08
597.269	25281.32
597.466	25162.54
597.662	24980.27
597.859	25328.42
598.055	24785.71
598.252	24847.15
598.448	24980.27
598.645	24562.48
598.841	24331.06
599.038	24683.31
599.234	24394.55
599.431	24357.69
599.627	24308.54
599.824	24171.32
600.02	24367.93
600.217	24267.58
600.413	24101.69
600.609	24052.54
600.806	23939.9
601.002	24052.54
601.198	23595.84
601.395	23569.22
601.591	23601.99
601.787	23567.17
601.984	23472.96
602.18	23761.73
602.376	23214.92
602.572	23620.42
602.769	23305.03
602.965	22963.02
603.161	23376.71
603.357	23110.47
603.553	22999.88
603.75	22907.73
603.946	22696.78
604.142	22829.9
604.338	22598.48
604.534	22924.11
604.73	22616.91
604.926	22385.49
605.122	22534.99
605.318	22326.1
605.514	21930.84
605.71	22182.74
605.906	21932.89
606.102	22041.43
606.298	22137.69
606.494	21893.98
606.69	21887.84
606.886	21941.08
607.082	21605.22
607.278	21822.3
607.474	21410.66
607.67	21822.3
607.866	21431.14
608.062	21449.57
608.257	21470.05
608.453	21476.19
608.649	21425
608.845	21232.49
609.041	21283.69
609.236	21025.64
609.432	21007.21
609.628	21062.51
609.824	21089.13
610.019	20964.2
610.215	20972.39
610.411	21035.88
610.606	20534.13
610.802	20718.45
610.998	20556.66
611.193	20800.37
611.389	20370.29
611.584	20448.11
611.78	20384.63
611.976	20564.85
612.171	20527.99
612.367	20671.34
612.562	20132.73
612.758	19991.42
612.953	20011.9
613.149	20413.3
613.344	19954.55
613.539	20540.27
613.735	20136.82
613.93	20056.95
614.126	19821.44
614.321	20253.56
614.517	20167.54
614.712	19972.99
614.907	19778.43
615.103	19917.69
615.298	19547.01
615.493	20204.41
615.688	19530.62
615.884	20042.62
616.079	19385.22
616.274	19704.7
616.47	19690.37
616.665	19684.22
616.86	19409.79
617.055	19450.75
617.25	19426.18
617.445	19471.23
617.641	19020.68
617.836	19364.74
618.031	18920.33
618.226	19100.55
618.421	19063.69
618.616	19248
618.811	18897.8
619.006	19049.35
619.201	18760.59
619.396	19004.3
619.591	18555.79
619.786	18453.39
619.981	18291.6
620.176	18430.87
620.371	18240.4
620.566	18295.7
620.761	18144.15
620.956	18295.7
621.151	18111.38
621.346	18279.32
621.541	17597.34
621.735	17841.05
621.93	17642.4
622.125	17845.15
622.32	17390.5
622.515	17529.76
622.709	17365.92
622.904	17200.04
623.099	17146.79
623.294	17241
623.488	16772.01
623.683	16946.09
623.878	16688.04
624.072	16950.18
624.267	16624.56
624.462	16417.71
624.656	16374.7
624.851	16595.89
625.046	16147.38
625.24	16270.26
625.435	16114.61
625.629	16167.86
625.824	15973.3
626.018	15915.96
626.213	15639.48
626.407	15782.84
626.602	15647.68
626.796	15555.52
626.991	15338.43
627.185	15350.72
627.38	15539.13
627.574	15203.27
627.768	14928.84
627.963	14908.36
628.157	14898.12
628.352	14887.88
628.546	14861.26
628.74	14730.19
628.935	14793.67
629.129	14576.59
629.323	14595.02
629.517	14490.57
629.712	14212.05
629.906	14328.78
630.1	14158.8
630.294	14179.28
630.489	13997.01
630.683	14138.32
630.877	13755.35
631.071	13908.95
631.265	13751.26
631.459	13693.91
631.653	13644.76
631.848	13630.43
632.042	13298.66
632.236	13573.08
632.43	13069.28
632.624	13321.18
632.818	13075.43
633.012	13061.09
633.206	13046.76
633.4	13120.48
633.594	12727.27
633.788	12956.64
633.982	12794.86
634.176	12604.39
634.369	12616.68
634.563	12731.37
634.757	12475.37
634.951	12622.83
635.145	12612.59
635.339	12327.92
635.533	12190.7
635.726	12362.73
635.92	12164.08
636.114	12174.32
636.308	12063.73
636.501	12010.48
636.695	11959.28
636.889	11932.66
637.083	11772.92
637.276	11502.59
637.47	11889.65
637.664	11457.53
637.857	11623.42
638.051	11326.46
638.244	11496.44
638.438	11344.89
638.632	11226.11
638.825	11152.38
639.019	11162.62
639.212	10994.69
639.406	11076.61
639.599	10951.68
639.793	11033.6
639.986	10640.39
640.18	11043.84
640.373	10775.56
640.567	10681.35
640.76	10652.68
640.954	10492.94
641.147	10411.02
641.34	10548.23
641.534	10308.62
641.727	10505.23
641.92	10255.37
642.114	10193.94
642.307	10198.03
642.5	10189.84
642.694	9989.14
642.887	9858.07
643.08	10232.85
643.273	9839.64
643.467	9602.07
643.66	9675.8
643.853	9657.37
644.046	9649.18
644.239	9602.07
644.432	9464.86
644.626	9380.89
644.819	9511.96
645.012	9116.7
645.205	9559.06
645.398	9505.82
645.591	9145.38
645.784	9118.75
645.977	9167.9
646.17	9028.64
646.363	8993.83
646.556	8815.65
646.749	8940.58
646.942	8805.41
647.135	8848.42
647.328	8965.15
647.521	8664.1
647.714	8535.08
647.907	8684.58
648.099	8522.79
648.292	8629.29
648.485	8559.66
648.678	8397.87
648.871	8580.14
649.064	8309.8
649.256	8354.86
649.449	8354.86
649.642	8209.45
649.835	8084.53
650.027	8219.69
650.22	8018.99
650.413	8037.42
650.605	8041.52
650.798	7947.31
650.991	7951.41
651.183	7957.55
651.376	7760.95
651.568	7916.59
651.761	7738.42
651.954	7754.8
652.146	7896.11
652.339	7711.8
652.531	7722.04
652.724	7537.72
652.916	7449.66
653.109	7281.72
653.301	7554.1
653.494	7486.52
653.686	7216.19
653.879	7568.44
654.071	7304.25
654.263	7353.4
654.456	7334.97
654.648	7451.7
654.84	7103.55
655.033	7132.22
655.225	7248.96
655.417	7021.63
655.61	7167.04
655.802	6990.91
655.994	7009.34
656.186	7046.21
656.379	6882.37
656.571	6933.57
656.763	6802.5
656.955	6624.33
657.148	6747.2
657.34	6853.7
657.532	6741.06
657.724	6569.03
657.916	6663.24
658.108	6689.86
658.3	6657.09
658.492	6433.86
658.684	6526.02
658.876	6587.46
659.068	6339.66
659.26	6403.14
659.452	6388.81
659.644	6231.12
659.836	6286.41
660.028	6161.48
660.22	6210.64
660.412	6130.77
660.604	6118.48
660.796	6067.28
660.988	6138.96
661.18	6071.37
661.372	5882.96
661.563	6089.81
661.755	5876.82
661.947	5893.2
662.139	5833.81
662.331	5844.05
662.522	5872.72
662.714	5835.86
662.906	5651.54
663.097	5715.03
663.289	5852.24
663.481	5762.13
663.673	5530.71
663.864	5596.25
664.056	5575.77
664.247	5731.41
664.439	5557.33
664.631	5499.99
664.822	5536.85
665.014	5530.71
665.205	5557.33
665.397	5389.4
665.588	5313.63
665.78	5459.03
665.971	5178.46
666.163	5297.24
666.354	5309.53
666.546	5373.02
666.737	5313.63
666.929	5151.84
667.12	5291.1
667.311	5479.51
667.503	5289.05
667.694	5160.03
667.885	5094.49
668.077	5209.18
668.268	5100.64
668.459	5092.44
668.651	5016.67
668.842	5211.23
669.033	4934.75
669.224	4912.22
669.416	5127.26
669.607	5022.81
669.798	4959.33
669.989	5135.45
670.18	4813.92
670.371	4910.18
670.563	4820.07
670.754	4938.85
670.945	4912.22
671.136	4815.97
671.327	4873.31
671.518	4752.48
671.709	4865.12
671.9	4877.41
672.091	4838.5
672.282	4668.52
672.473	4625.51
672.664	4697.19
672.855	4664.42
673.046	4715.62
673.237	4719.71
673.428	4717.67
673.619	4674.66
673.809	4600.93
674	4576.36
674.191	4584.55
674.382	4641.89
674.573	4660.32
674.764	4785.25
674.954	4789.35
675.145	4623.46
675.336	4488.29
675.527	4615.27
675.717	4619.36
675.908	4557.93
676.099	4570.21
676.289	4590.69
676.48	4564.07
676.671	4607.08
676.861	4582.5
677.052	4424.81
677.243	4439.14
677.433	4576.36
677.624	4498.53
677.814	4459.62
678.005	4519.01
678.195	4519.01
678.386	4574.31
678.576	4410.47
678.767	4496.49
678.957	4480.1
679.148	4422.76
679.338	4533.35
679.529	4418.66
679.719	4455.53
679.909	4437.09
680.1	4363.37
680.29	4602.98
680.481	4318.31
680.671	4488.29
680.861	4238.44
681.052	4502.63
681.242	4484.2
681.432	4574.31
681.622	4398.18
681.813	4383.85
682.003	4338.79
682.193	4549.73
682.383	4490.34
682.573	4467.81
682.764	4478.05
682.954	4340.84
683.144	4363.37
683.334	4469.86
683.524	4346.98
683.714	4422.76
683.904	4414.57
684.094	4447.33
684.284	4387.94
684.474	4414.57
684.664	4238.44
684.854	4396.14
685.044	4461.67
685.234	4209.77
685.424	4181.1
685.614	4369.51
685.804	4314.22
685.994	4252.78
686.184	4279.4
686.374	4365.42
686.564	4252.78
686.753	4256.87
686.943	4271.21
687.133	4121.71
687.323	4080.75
687.513	4090.99
687.702	4043.88
687.892	4097.13
688.082	4181.1
688.272	4207.72
688.461	4125.8
688.651	4090.99
688.841	3974.25
689.03	4107.37
689.22	3996.78
689.41	4111.47
689.599	4035.69
689.789	4019.31
689.979	4002.93
690.168	3814.51
690.358	3880.05
690.547	3955.82
690.737	3863.66
690.926	3894.38
691.116	3787.89
691.305	4007.02
691.495	3871.86
691.684	3826.8
691.874	3873.9
692.063	3765.36
692.252	3826.8
692.442	3716.21
692.631	3642.48
692.82	3628.15
693.01	3609.72
693.199	3533.94
693.388	3777.65
693.578	3773.55
693.767	3607.67
693.956	3656.82
694.146	3660.91
694.335	3787.89
694.524	3484.79
694.713	3636.34
694.902	3681.39
695.092	3763.31
695.281	3538.04
695.47	3488.89
695.659	3591.28
695.848	3538.04
696.037	3511.41
696.226	3509.37
696.415	3406.97
696.604	3501.17
696.793	3513.46
696.982	3454.07
697.171	3429.49
697.36	3443.83
697.549	3585.14
697.738	3449.97
697.927	3390.58
698.116	3259.51
698.305	3300.47
698.494	3439.73
698.683	3384.44
698.872	3382.39
699.061	3419.25
699.25	3429.49
699.438	3394.68
699.627	3437.69
699.816	3374.2
700.005	3370.1
700.193	3329.14
700.382	3503.22
700.571	3372.15
700.76	3435.64
700.948	3415.16
701.137	3435.64
701.326	3423.35
701.514	3437.69
701.703	3323
701.892	3296.38
702.08	3431.54
702.269	3439.73
702.457	3404.92
702.646	3382.39
702.834	3253.37
703.023	3298.42
703.212	3357.82
703.4	3343.48
703.589	3173.5
703.777	3392.63
703.965	3341.43
704.154	3341.43
704.342	3363.96
704.531	3261.56
704.719	3253.37
704.907	3333.24
705.096	3279.99
705.284	3357.82
705.472	3382.39
705.661	3294.33
705.849	3259.51
706.037	3605.62
706.226	3300.47
706.414	3380.34
706.602	3300.47
706.79	3361.91
706.979	3337.34
707.167	3382.39
707.355	3409.01
707.543	3413.11
707.731	3327.1
707.919	3292.28
708.107	3210.36
708.296	3243.13
708.484	3214.46
708.672	3339.38
708.86	3298.42
709.048	3292.28
709.236	3243.13
709.424	3439.73
709.612	3409.01
709.8	3251.32
709.988	3298.42
710.176	3355.77
710.364	3388.53
710.551	3386.49
710.739	3290.23
710.927	3263.61
711.115	3202.17
711.303	3304.57
711.491	3093.63
711.679	3220.6
711.866	3302.52
712.054	3341.43
712.242	3282.04
712.43	3204.22
712.617	3468.41
712.805	3308.66
712.993	3292.28
713.181	3230.84
713.368	3460.21
713.556	3411.06
713.744	3232.89
713.931	3366.01
714.119	3396.73
714.306	3376.25
714.494	3325.05
714.682	3361.91
714.869	3384.44
715.057	3157.11
715.244	3341.43
715.432	3472.5
715.619	3236.99
715.807	3282.04
715.994	3271.8
716.182	3370.1
716.369	3417.21
716.556	3368.06
716.744	3366.01
716.931	3384.44
717.119	3259.51
717.306	3363.96
717.493	3406.97
717.681	3329.14
717.868	3404.92
718.055	3247.23
718.242	3333.24
718.43	3490.93
718.617	3372.15
718.804	3247.23
718.991	3366.01
719.179	3411.06
719.366	3288.18
719.553	3349.62
719.74	3306.62
719.927	3382.39
720.114	3308.66
720.301	3368.06
720.488	3314.81
720.676	3392.63
720.863	3366.01
721.05	3384.44
721.237	3363.96
721.424	3388.53
721.611	3239.03
721.798	3275.9
721.985	3239.03
722.172	3249.27
722.358	3349.62
722.545	3382.39
722.732	3300.47
722.919	3318.9
723.106	3427.45
723.293	3306.62
723.48	3376.25
723.667	3269.75
723.853	3163.26
724.04	3421.3
724.227	3368.06
724.414	3374.2
724.6	3193.98
724.787	3409.01
724.974	3296.38
725.161	3261.56
725.347	3140.73
725.534	3251.32
725.72	3312.76
725.907	3320.95
726.094	3210.36
726.28	3388.53
726.467	3314.81
726.653	3210.36
726.84	3472.5
727.027	3331.19
727.213	3177.59
727.4	3308.66
727.586	3265.66
727.773	3343.48
727.959	3112.06
728.145	3202.17
728.332	3261.56
728.518	3161.21
728.705	3304.57
728.891	3183.74
729.077	3263.61
729.264	3253.37
729.45	3255.42
729.636	3425.4
729.823	3224.7
730.009	3226.75
730.195	3183.74
730.382	3208.31
730.568	3216.51
730.754	3273.85
730.94	3263.61
731.126	3366.01
731.313	3370.1
731.499	3277.94
731.685	3329.14
731.871	3310.71
732.057	3161.21
732.243	3243.13
732.429	3214.46
732.615	3253.37
732.801	3193.98
732.987	3114.11
733.173	3157.11
733.359	3181.69
733.545	3210.36
733.731	3193.98
733.917	3183.74
734.103	3279.99
734.289	3171.45
734.475	3140.73
734.661	3253.37
734.847	3218.55
735.033	3134.59
735.219	3062.91
735.404	3169.4
735.59	3091.58
735.776	2919.55
735.962	3069.05
736.148	3165.31
736.333	3112.06
736.519	3015.8
736.705	3136.63
736.89	2993.28
737.076	3148.92
737.262	3153.02
737.447	3054.72
737.633	3015.8
737.819	3064.96
738.004	2976.89
738.19	3167.35
738.375	2989.18
738.561	3165.31
738.747	2935.93
738.932	2956.41
739.118	3060.86
739.303	3001.47
739.489	3062.91
739.674	2960.51
739.859	2944.13
740.045	2923.65
740.23	3058.81
740.416	2886.78
740.601	2862.21
740.786	2960.51
740.972	2837.63
741.157	2847.87
741.342	2907.26
741.528	2925.69
741.713	2997.37
741.898	2849.92
742.084	2735.23
742.269	2907.26
742.454	2772.1
742.639	2774.14
742.824	2729.09
743.01	2825.34
743.195	2788.48
743.38	2743.42
743.565	2796.67
743.75	2780.29
743.935	2788.48
744.12	2792.58
744.305	2653.31
744.49	2628.74
744.675	2724.99
744.86	2661.51
745.045	2593.92
745.23	2700.42
745.415	2505.86
745.6	2694.27
745.785	2587.78
745.97	2620.55
746.155	2579.59
746.34	2694.27
746.525	2559.11
746.71	2593.92
746.895	2518.15
747.079	2436.23
747.264	2417.8
747.449	2444.42
747.634	2548.87
747.819	2458.76
748.003	2428.04
748.188	2436.23
748.373	2391.17
748.557	2434.18
748.742	2393.22
748.927	2415.75
749.111	2301.06
749.296	2290.82
749.481	2331.78
749.665	2264.2
749.85	2159.75
750.034	2198.67
750.219	2286.73
750.404	2184.33
750.588	2174.09
750.773	2120.84
750.957	2194.57
751.141	2120.84
751.326	2129.03
751.51	1991.82
751.695	2073.74
751.879	2106.51
752.064	2122.89
752.248	2067.6
752.432	2006.16
752.617	2055.31
752.801	2038.92
752.985	1989.77
753.17	1977.48
753.354	2026.64
753.538	1983.63
753.722	1901.71
753.907	1926.29
754.091	1866.89
754.275	1873.04
754.459	1957
754.643	1803.41
754.828	1784.98
755.012	1883.28
755.196	1836.17
755.38	1795.22
755.564	1696.91
755.748	1750.16
755.932	1817.74
756.116	1766.54
756.3	1787.02
756.484	1764.5
756.668	1750.16
756.852	1713.3
757.036	1778.83
757.22	1744.02
757.404	1668.24
757.588	1619.09
757.772	1662.1
757.956	1709.2
758.14	1672.34
758.323	1565.84
758.507	1621.14
758.691	1664.15
758.875	1598.61
759.059	1565.84
759.242	1580.18
759.426	1557.65
759.61	1537.17
759.794	1469.59
759.977	1571.99
760.161	1649.81
760.345	1516.69
760.528	1426.58
760.712	1367.19
760.895	1473.68
761.079	1414.29
761.263	1571.99
761.446	1449.11
761.63	1473.68
761.813	1387.67
761.997	1406.1
762.18	1428.63
762.364	1408.15
762.547	1340.57
762.731	1469.59
762.914	1381.53
763.098	1379.48
763.281	1402.01
763.464	1404.05
763.648	1334.42
763.831	1299.61
764.015	1289.37
764.198	1395.86
764.381	1350.81
764.564	1330.33
764.748	1369.24
764.931	1275.03
765.114	1289.37
765.297	1260.7
765.481	1301.65
765.664	1299.61
765.847	1242.26
766.03	1197.21
766.213	1272.98
766.397	1213.59
766.58	1277.08
766.763	1252.5
766.946	1221.78
767.129	1227.93
767.312	1160.34
767.495	1195.16
767.678	1139.87
767.861	1227.93
768.044	1170.58
768.227	1186.97
768.41	1223.83
768.593	1189.02
768.776	1164.44
768.959	1199.26
769.142	1123.48
769.324	1150.11
769.507	1174.68
769.69	1176.73
769.873	1166.49
770.056	1232.02
770.239	1133.72
770.421	1162.39
770.604	1107.1
770.787	1135.77
770.97	990.36
771.152	951.45
771.335	1066.14
771.518	1111.19
771.7	1172.63
771.883	1031.32
772.066	973.98
772.248	1053.85
772.431	1094.81
772.613	930.97
772.796	1039.51
772.978	1055.9
773.161	1041.56
773.343	1053.85
773.526	992.41
773.708	1023.13
773.891	863.39
774.073	953.5
774.256	959.64
774.438	1037.47
774.621	916.64
774.803	933.02
774.985	908.44
775.168	951.45
775.35	920.73
775.532	916.64
775.715	832.67
775.897	900.25
776.079	859.29
776.261	957.6
776.444	838.81
776.626	867.49
776.808	775.33
776.99	781.47
777.173	836.77
777.355	851.1
777.537	834.72
777.719	756.9
777.901	859.29
778.083	769.18
778.265	795.81
778.447	777.37
778.629	801.95
778.811	744.61
778.993	689.31
779.175	785.57
779.357	769.18
779.539	670.88
779.721	734.37
779.903	775.33
780.085	734.37
780.267	736.42
780.449	668.83
780.631	629.92
780.812	720.03
780.994	746.66
781.176	666.78
781.358	646.3
781.54	658.59
781.721	648.35
781.903	674.98
782.085	644.26
782.267	601.25
782.448	552.1
782.63	668.83
782.812	650.4
782.993	597.15
783.175	679.07
783.357	613.54
783.538	615.59
783.72	609.44
783.901	488.61
784.083	595.11
784.264	644.26
784.446	560.29
784.627	593.06
784.809	576.67
784.99	595.11
785.172	578.72
785.353	562.34
785.535	533.67
785.716	570.53
785.897	466.08
786.079	601.25
786.26	593.06
786.441	523.43
786.623	490.66
786.804	476.32
786.985	584.87
787.167	539.81
787.348	453.8
787.529	513.19
787.71	507.04
787.891	445.6
788.073	504.99
788.254	470.18
788.435	511.14
788.616	548
788.797	455.84
788.978	449.7
789.159	429.22
789.34	476.32
789.522	494.76
789.703	470.18
789.884	461.99
790.065	474.28
790.246	498.85
790.427	390.31
790.607	474.28
790.788	435.36
790.969	382.12
791.15	453.8
791.331	441.51
791.512	416.93
791.693	380.07
791.874	414.88
792.054	492.71
792.235	435.36
792.416	423.08
792.597	363.69
792.778	431.27
792.958	455.84
793.139	382.12
793.32	353.45
793.5	341.16
793.681	400.55
793.862	416.93
794.042	406.69
794.223	400.55
794.404	357.54
794.584	373.92
794.765	384.16
794.945	330.92
795.126	384.16
795.306	369.83
795.487	351.4
795.667	359.59
795.848	341.16
796.028	380.07
796.209	326.82
796.389	402.6
796.57	371.88
796.75	361.64
796.93	292.01
797.111	310.44
797.291	294.05
797.471	277.67
797.652	263.33
797.832	310.44
798.012	382.12
798.192	363.69
798.373	359.59
798.553	253.09
798.733	335.01
798.913	294.05
799.093	279.72
799.274	310.44
799.454	421.03
799.634	345.25
799.814	324.77
799.994	203.94
800.174	363.69
800.354	363.69
800.534	285.86
800.714	314.53
800.894	259.24
801.074	283.81
801.254	400.55
801.434	267.43
801.614	246.95
801.794	253.09
801.974	767.13
802.154	255.14
802.334	261.29
802.514	203.94
802.693	279.72
802.873	261.29
803.053	330.92
803.233	289.96
803.413	253.09
803.592	214.18
803.772	208.04
803.952	212.14
804.131	265.38
804.311	249
804.491	283.81
804.67	234.66
804.85	261.29
805.03	238.76
805.209	300.2
805.389	218.28
805.568	232.62
805.748	265.38
805.928	244.9
806.107	294.05
806.287	298.15
806.466	162.98
806.646	273.57
806.825	214.18
807.004	195.75
807.184	242.85
807.363	228.52
807.543	232.62
807.722	177.32
807.901	232.62
808.081	218.28
808.26	183.46
808.439	244.9
808.619	183.46
808.798	191.66
808.977	220.33
809.156	279.72
809.336	146.6
809.515	199.85
809.694	171.18
809.873	148.65
810.052	244.9
810.231	249
810.411	189.61
810.59	158.89
810.769	162.98
810.948	189.61
811.127	144.55
811.306	199.85
811.485	216.23
811.664	234.66
811.843	169.13
812.022	267.43
812.201	201.9
812.38	162.98
812.559	205.99
812.737	210.09
812.916	136.36
813.095	212.14
813.274	199.85
813.453	179.37
813.632	177.32
813.811	171.18
813.989	150.7
814.168	169.13
814.347	128.17
814.526	158.89
814.704	224.42
814.883	210.09
815.062	113.83
815.24	160.94
815.419	167.08
815.598	205.99
815.776	130.22
815.955	101.55
816.133	173.22
816.312	220.33
816.49	191.66
816.669	169.13
816.847	195.75
817.026	181.42
817.204	79.02
817.383	132.26
817.561	187.56
817.74	160.94
817.918	162.98
818.097	150.7
818.275	72.87
818.453	189.61
818.632	189.61
818.81	138.41
818.988	119.98
819.167	152.74
819.345	124.07
819.523	150.7
819.701	152.74
819.879	136.36
820.058	212.14
820.236	156.84
820.414	197.8
820.592	130.22
820.77	171.18
820.948	152.74
821.127	160.94
821.305	208.04
821.483	79.02
821.661	154.79
821.839	122.02
822.017	181.42
822.195	97.45
822.373	189.61
822.551	117.93
822.729	105.64
822.907	183.46
823.085	138.41
823.262	220.33
823.44	132.26
823.618	160.94
823.796	128.17
823.974	66.73
824.152	132.26
824.329	99.5
824.507	146.6
824.685	113.83
824.863	156.84
825.04	169.13
825.218	72.87
825.396	97.45
825.574	85.16
825.751	113.83
825.929	122.02
826.107	132.26
826.284	146.6
826.462	122.02
826.639	76.97
826.817	76.97
826.994	97.45
827.172	64.68
827.349	107.69
827.527	87.21
827.704	97.45
827.882	81.07
828.059	130.22
828.237	179.37
828.414	136.36
828.591	91.31
828.769	122.02
828.946	23.72
829.124	111.78
829.301	87.21
829.478	142.5
829.655	138.41
829.833	109.74
830.01	7.34
830.187	162.98
830.364	81.07
830.542	1.19
830.719	117.93
830.896	68.78
831.073	158.89
831.25	83.11
831.427	97.45
831.604	87.21
831.782	74.92
831.959	64.68
832.136	93.35
832.313	44.2
832.49	76.97
832.667	64.68
832.844	48.3
833.021	126.12
833.198	81.07
833.374	115.88
833.551	93.35
833.728	97.45
833.905	50.35
834.082	52.39
834.259	74.92
834.436	138.41
834.612	42.15
834.789	64.68
834.966	154.79
835.143	36.01
835.319	74.92
835.496	54.44
835.673	117.93
835.85	60.59
836.026	130.22
836.203	97.45
836.38	76.97
836.556	25.77
836.733	50.35
836.909	152.74
837.086	19.63
837.262	44.2
837.439	44.2
837.616	60.59
837.792	-9.05
837.968	7.34
838.145	29.87
838.321	17.58
838.498	31.91
838.674	93.35
838.851	119.98
839.027	25.77
839.203	48.3
839.38	66.73
839.556	-9.05
839.732	81.07
839.909	62.63
840.085	40.11
840.261	74.92
840.437	76.97
840.614	70.83
840.79	27.82
840.966	81.07
841.142	113.83
841.318	-17.24
841.494	-27.48
841.671	56.49
841.847	62.63
842.023	56.49
842.199	38.06
842.375	7.34
842.551	91.31
842.727	54.44
842.903	97.45
843.079	15.53
843.255	93.35
843.431	-33.62
843.607	97.45
843.783	-25.43
843.959	72.87
844.134	-39.76
844.31	95.4
844.486	-27.48
844.662	70.83
844.838	44.2
845.013	38.06
845.189	50.35
845.365	29.87
845.541	29.87
845.716	33.96
845.892	83.11
846.068	87.21
846.244	54.44
846.419	64.68
846.595	42.15
846.77	50.35
846.946	40.11
847.122	72.87
847.297	3.24
847.473	33.96
847.648	50.35
847.824	72.87
847.999	17.58
848.175	-4.95
848.35	134.31
848.526	122.02
848.701	-13.14
848.876	58.54
849.052	148.65
849.227	29.87
849.403	-25.43
849.578	52.39
849.753	-7
849.929	3.24
850.104	72.87
850.279	-7
850.454	-0.85
850.63	60.59
850.805	70.83
850.98	13.48
851.155	89.26
851.33	105.64
851.505	48.3
851.681	64.68
851.856	-52.05
852.031	60.59
852.206	62.63
852.381	48.3
852.556	27.82
852.731	87.21
852.906	62.63
853.081	85.16
853.256	113.83
853.431	48.3
853.606	48.3
853.781	7.34
853.956	-2.9
854.131	52.39
854.305	25.77
854.48	23.72
854.655	48.3
854.83	23.72
855.005	-11.09
855.18	52.39
855.354	48.3
855.529	-2.9
855.704	64.68
855.879	-19.29
856.053	-29.52
856.228	46.25
856.403	-2.9
856.577	27.82
856.752	64.68
856.926	-70.48
857.101	-27.48
857.276	15.53
857.45	31.91
857.625	1.19
857.799	3.24
857.974	9.39
858.148	-52.05
858.323	17.58
858.497	31.91
858.672	-39.76
858.846	-74.58
859.02	60.59
859.195	-9.05
859.369	50.35
859.543	-0.85
859.718	40.11
859.892	48.3
860.066	36.01
860.241	-29.52
860.415	17.58
860.589	-25.43
860.763	52.39
860.938	-33.62
861.112	46.25
861.286	48.3
861.46	62.63
861.634	-47.96
861.808	-4.95
861.982	33.96
862.157	-2.9
862.331	-45.91
862.505	-68.44
862.679	-27.48
862.853	33.96
863.027	7.34
863.201	-21.33
863.375	31.91
863.549	105.64
863.722	5.29
863.896	38.06
864.07	56.49
864.244	19.63
864.418	13.48
864.592	-39.76
864.766	40.11
864.939	17.58
865.113	-52.05
865.287	52.39
865.461	-54.1
865.634	36.01
865.808	-31.57
865.982	33.96
866.156	15.53
866.329	25.77
866.503	46.25
866.676	-7
866.85	1.19
867.024	31.91
867.197	5.29
867.371	-27.48
867.544	-29.52
867.718	-37.72
867.891	56.49
868.065	-0.85
868.238	56.49
868.412	33.96
868.585	46.25
868.759	46.25
868.932	-4.95
869.105	-27.48
869.279	-0.85
869.452	5.29
869.625	-93.01
869.799	36.01
869.972	-21.33
870.145	-78.68
870.319	-4.95
870.492	7.34
870.665	-11.09
870.838	13.48
871.011	-41.81
871.185	-4.95
871.358	-37.72
871.531	58.54
871.704	13.48
871.877	7.34
872.05	15.53
872.223	-99.16
872.396	11.43
872.569	-2.9
872.742	-25.43
872.915	-9.05
873.088	-9.05
873.261	-11.09
873.434	72.87
873.607	7.34
873.78	23.72
873.953	-78.68
874.126	76.97
874.299	27.82
874.471	-33.62
874.644	-9.05
874.817	38.06
874.99	76.97
875.163	21.67
875.335	62.63
875.508	-35.67
875.681	5.29
875.853	-41.81
876.026	-7
876.199	33.96
876.371	113.83
876.544	-31.57
876.717	-11.09
876.889	-43.86
877.062	11.43
877.234	-17.24
877.407	-27.48
877.579	-74.58
877.752	15.53
877.924	3.24
878.097	33.96
878.269	15.53
878.442	21.67
878.614	-23.38
878.786	15.53
878.959	-9.05
879.131	11.43
879.303	-25.43
879.476	40.11
879.648	38.06
879.82	-31.57
879.993	-27.48
880.165	-31.57
880.337	-64.34
880.509	44.2
880.681	-0.85
880.854	31.91
881.026	19.63
881.198	56.49
881.37	31.91
881.542	56.49
881.714	-7
881.886	3.24
882.058	-50
882.23	-7
882.402	-9.05
882.574	68.78
882.746	23.72
882.918	101.55
883.09	48.3
883.262	-35.67
883.434	-0.85
883.606	-88.92
883.778	23.72
883.95	5.29
884.122	1.19
884.293	17.58
884.465	48.3
884.637	19.63
884.809	72.87
884.98	-4.95
885.152	5.29
885.324	29.87
885.496	-25.43
885.667	-45.91
885.839	-9.05
886.011	62.63
886.182	23.72
886.354	27.82
886.525	-23.38
886.697	-9.05
886.869	-70.48
887.04	-84.82
887.212	-11.09
887.383	19.63
887.555	23.72
887.726	-56.15
887.897	15.53
888.069	7.34
888.24	-50
888.412	48.3
888.583	54.44
888.754	40.11
888.926	-21.33
889.097	-7
889.268	-27.48
889.44	7.34
889.611	-90.96
889.782	15.53
889.953	-121.68
890.125	60.59
890.296	-58.2
890.467	-13.14
890.638	-78.68
890.809	-29.52
890.98	-13.14
891.151	38.06
891.323	15.53
891.494	7.34
891.665	-0.85
891.836	-13.14
892.007	-62.29
892.178	15.53
892.349	38.06
892.52	13.48
892.691	-74.58
892.862	-39.76
893.032	-39.76
893.203	-9.05
893.374	-33.62
893.545	-35.67
893.716	-9.05
893.887	-13.14
894.057	-41.81
894.228	3.24
894.399	-64.34
894.57	31.91
894.74	-25.43
894.911	-27.48
895.082	-93.01
895.253	-80.72
895.423	-27.48
895.594	17.58
895.764	-80.72
895.935	-31.57
896.106	68.78
896.276	60.59
896.447	-43.86
896.617	25.77
896.788	-25.43
896.958	29.87
897.129	-27.48
897.299	1.19
897.47	-0.85
897.64	-4.95
897.81	38.06
897.981	29.87
898.151	-11.09
898.322	-33.62
898.492	-41.81
898.662	-2.9
898.832	-35.67
899.003	21.67
899.173	62.63
899.343	11.43
899.513	-4.95
