Data from USB4F104151__139__10-25-53-280.txt Node

Date: Wed Mar 12 10:25:53 EDT 2025
User: louis
Spectrometer: USB4F10415
Trigger mode: 4
Integration Time (sec): 3.000000E-2
Scans to average: 1
Electric dark correction enabled: true
Nonlinearity correction enabled: false
Boxcar width: 0
XAxis mode: Wavelengths
Number of Pixels in Spectrum: 3648
>>>>>Begin Spectral Data<<<<<
178.204	-143.53
178.424	-143.53
178.644	-143.53
178.864	-184.49
179.084	-143.53
179.304	69.46
179.524	12.12
179.744	46.93
179.964	12.12
180.184	8.02
180.404	5.97
180.624	-49.32
180.844	-6.31
181.064	-28.84
181.283	57.17
181.503	-53.42
181.723	-73.9
181.943	-24.75
182.163	94.04
182.383	61.27
182.602	16.21
182.822	30.55
183.042	8.02
183.262	-20.65
183.482	-4.27
183.701	-37.03
183.921	-39.08
184.141	-12.46
184.361	53.08
184.58	8.02
184.8	-0.17
185.02	-14.51
185.239	5.97
185.459	48.98
185.679	-12.46
185.898	-39.08
186.118	65.36
186.338	40.79
186.557	10.07
186.777	-53.42
186.997	-28.84
187.216	42.84
187.436	24.4
187.655	40.79
187.875	116.56
188.095	116.56
188.314	22.36
188.534	132.95
188.753	-14.51
188.973	-18.6
189.192	1.88
189.412	14.17
189.631	89.94
189.851	32.6
190.07	18.26
190.29	-4.27
190.509	-14.51
190.729	-65.71
190.948	24.4
191.168	167.76
191.387	94.04
191.607	8.02
191.826	-0.17
192.045	51.03
192.265	12.12
192.484	-10.41
192.704	30.55
192.923	12.12
193.142	65.36
193.362	67.41
193.581	83.8
193.8	40.79
194.02	-6.31
194.239	36.69
194.458	16.21
194.678	83.8
194.897	48.98
195.116	40.79
195.335	-22.7
195.555	14.17
195.774	34.64
195.993	8.02
196.212	-16.55
196.432	36.69
196.651	16.21
196.87	-20.65
197.089	53.08
197.308	57.17
197.528	69.46
197.747	-18.6
197.966	-22.7
198.185	57.17
198.404	3.93
198.623	89.94
198.842	10.07
199.062	40.79
199.281	38.74
199.5	8.02
199.719	34.64
199.938	10.07
200.157	16.21
200.376	-6.31
200.595	61.27
200.814	67.41
201.033	69.46
201.252	14.17
201.471	-22.7
201.69	59.22
201.909	87.89
202.128	-57.51
202.347	77.65
202.566	-10.41
202.785	-30.89
203.004	-47.27
203.223	53.08
203.442	73.56
203.661	-39.08
203.879	108.37
204.098	-39.08
204.317	-51.37
204.536	-2.22
204.755	24.4
204.974	-53.42
205.193	28.5
205.411	36.69
205.63	48.98
205.849	1.88
206.068	48.98
206.287	-8.36
206.505	42.84
206.724	46.93
206.943	-30.89
207.162	20.31
207.381	26.45
207.599	24.4
207.818	51.03
208.037	-53.42
208.255	51.03
208.474	14.17
208.693	61.27
208.911	63.32
209.13	16.21
209.349	75.6
209.567	-69.8
209.786	-4.27
210.005	69.46
210.223	77.65
210.442	12.12
210.661	-32.94
210.879	36.69
211.098	5.97
211.316	55.12
211.535	24.4
211.753	14.17
211.972	-18.6
212.191	-2.22
212.409	51.03
212.628	-12.46
212.846	-20.65
213.065	-6.31
213.283	36.69
213.502	1.88
213.72	-37.03
213.938	61.27
214.157	-32.94
214.375	24.4
214.594	30.55
214.812	53.08
215.031	20.31
215.249	-16.55
215.467	44.88
215.686	46.93
215.904	44.88
216.122	44.88
216.341	116.56
216.559	28.5
216.778	40.79
216.996	77.65
217.214	20.31
217.432	51.03
217.651	-8.36
217.869	48.98
218.087	-53.42
218.306	44.88
218.524	24.4
218.742	-18.6
218.96	32.6
219.179	20.31
219.397	87.89
219.615	40.79
219.833	65.36
220.051	-6.31
220.27	55.12
220.488	30.55
220.706	48.98
220.924	10.07
221.142	44.88
221.36	51.03
221.578	-22.7
221.796	16.21
222.015	71.51
222.233	36.69
222.451	12.12
222.669	-4.27
222.887	-30.89
223.105	-14.51
223.323	26.45
223.541	-28.84
223.759	42.84
223.977	24.4
224.195	124.76
224.413	-45.23
224.631	75.6
224.849	5.97
225.067	42.84
225.285	-12.46
225.503	-28.84
225.721	-20.65
225.939	53.08
226.157	16.21
226.375	73.56
226.592	-69.8
226.81	30.55
227.028	8.02
227.246	139.09
227.464	-16.55
227.682	14.17
227.9	42.84
228.117	42.84
228.335	-28.84
228.553	36.69
228.771	75.6
228.989	12.12
229.206	94.04
229.424	-16.55
229.642	24.4
229.86	20.31
230.077	48.98
230.295	-22.7
230.513	22.36
230.731	-20.65
230.948	36.69
231.166	26.45
231.384	-57.51
231.601	57.17
231.819	-20.65
232.037	-63.66
232.254	67.41
232.472	87.89
232.689	-0.17
232.907	61.27
233.125	5.97
233.342	38.74
233.56	46.93
233.777	-45.23
233.995	69.46
234.213	44.88
234.43	-24.75
234.648	8.02
234.865	63.32
235.083	3.93
235.3	-4.27
235.518	32.6
235.735	61.27
235.953	53.08
236.17	-28.84
236.388	-8.36
236.605	77.65
236.822	79.7
237.04	14.17
237.257	59.22
237.475	44.88
237.692	61.27
237.909	-0.17
238.127	-4.27
238.344	5.97
238.562	12.12
238.779	-0.17
238.996	24.4
239.214	32.6
239.431	3.93
239.648	40.79
239.865	75.6
240.083	85.84
240.3	24.4
240.517	-45.23
240.735	10.07
240.952	-4.27
241.169	69.46
241.386	-8.36
241.603	36.69
241.821	-0.17
242.038	77.65
242.255	-24.75
242.472	-77.99
242.689	18.26
242.907	57.17
243.124	8.02
243.341	53.08
243.558	-51.37
243.775	-10.41
243.992	-2.22
244.209	59.22
244.426	-4.27
244.643	79.7
244.86	-4.27
245.078	79.7
245.295	67.41
245.512	20.31
245.729	-4.27
245.946	22.36
246.163	36.69
246.38	5.97
246.597	12.12
246.814	44.88
247.031	18.26
247.248	51.03
247.464	-4.27
247.681	30.55
247.898	-4.27
248.115	10.07
248.332	61.27
248.549	94.04
248.766	26.45
248.983	73.56
249.2	-6.31
249.417	-8.36
249.633	44.88
249.85	67.41
250.067	1.88
250.284	32.6
250.501	28.5
250.717	36.69
250.934	-43.18
251.151	22.36
251.368	48.98
251.585	26.45
251.801	-14.51
252.018	-34.99
252.235	-16.55
252.451	57.17
252.668	-24.75
252.885	8.02
253.102	-63.66
253.318	63.32
253.535	-4.27
253.752	67.41
253.968	18.26
254.185	-96.43
254.401	-24.75
254.618	26.45
254.835	-65.71
255.051	48.98
255.268	73.56
255.484	59.22
255.701	18.26
255.917	24.4
256.134	-22.7
256.351	-6.31
256.567	20.31
256.784	53.08
257	-4.27
257.217	61.27
257.433	48.98
257.65	12.12
257.866	16.21
258.082	-32.94
258.299	18.26
258.515	-14.51
258.732	30.55
258.948	65.36
259.165	-4.27
259.381	42.84
259.597	-0.17
259.814	-6.31
260.03	-26.79
260.246	77.65
260.463	-6.31
260.679	12.12
260.895	22.36
261.112	85.84
261.328	8.02
261.544	96.08
261.761	61.27
261.977	12.12
262.193	-6.31
262.409	89.94
262.626	1.88
262.842	51.03
263.058	42.84
263.274	12.12
263.49	8.02
263.707	20.31
263.923	1.88
264.139	63.32
264.355	3.93
264.571	40.79
264.787	3.93
265.004	65.36
265.22	-37.03
265.436	77.65
265.652	-18.6
265.868	44.88
266.084	10.07
266.3	28.5
266.516	36.69
266.732	28.5
266.948	3.93
267.164	51.03
267.38	26.45
267.596	61.27
267.812	89.94
268.028	-14.51
268.244	10.07
268.46	38.74
268.676	40.79
268.892	53.08
269.108	36.69
269.324	-30.89
269.54	-14.51
269.756	75.6
269.972	-20.65
270.188	20.31
270.403	-16.55
270.619	65.36
270.835	20.31
271.051	48.98
271.267	-4.27
271.483	16.21
271.698	3.93
271.914	-4.27
272.13	53.08
272.346	-37.03
272.562	26.45
272.777	34.64
272.993	-14.51
273.209	-28.84
273.425	87.89
273.64	-61.61
273.856	5.97
274.072	108.37
274.287	12.12
274.503	63.32
274.719	20.31
274.934	22.36
275.15	16.21
275.366	-43.18
275.581	42.84
275.797	-39.08
276.012	-14.51
276.228	16.21
276.444	-34.99
276.659	26.45
276.875	5.97
277.09	18.26
277.306	3.93
277.521	57.17
277.737	-20.65
277.952	57.17
278.168	14.17
278.383	8.02
278.599	-16.55
278.814	-45.23
279.03	53.08
279.245	77.65
279.461	26.45
279.676	94.04
279.892	36.69
280.107	10.07
280.322	-30.89
280.538	18.26
280.753	16.21
280.969	40.79
281.184	36.69
281.399	48.98
281.615	-0.17
281.83	5.97
282.045	8.02
282.26	79.7
282.476	24.4
282.691	48.98
282.906	20.31
283.122	73.56
283.337	12.12
283.552	20.31
283.767	36.69
283.983	3.93
284.198	67.41
284.413	3.93
284.628	-37.03
284.843	3.93
285.058	-0.17
285.274	46.93
285.489	-24.75
285.704	36.69
285.919	55.12
286.134	-114.86
286.349	-12.46
286.564	1.88
286.779	-0.17
286.995	32.6
287.21	-30.89
287.425	116.56
287.64	10.07
287.855	12.12
288.07	3.93
288.285	69.46
288.5	46.93
288.715	75.6
288.93	34.64
289.145	-16.55
289.36	30.55
289.575	44.88
289.79	1.88
290.004	10.07
290.219	30.55
290.434	36.69
290.649	-28.84
290.864	-55.47
291.079	3.93
291.294	8.02
291.509	85.84
291.724	-12.46
291.938	8.02
292.153	36.69
292.368	-43.18
292.583	67.41
292.798	46.93
293.012	14.17
293.227	3.93
293.442	-47.27
293.657	5.97
293.871	102.23
294.086	12.12
294.301	126.8
294.516	40.79
294.73	20.31
294.945	-12.46
295.16	106.32
295.374	48.98
295.589	75.6
295.804	-14.51
296.018	65.36
296.233	12.12
296.447	12.12
296.662	-61.61
296.877	-4.27
297.091	61.27
297.306	-106.67
297.52	77.65
297.735	36.69
297.949	16.21
298.164	59.22
298.378	34.64
298.593	59.22
298.807	-4.27
299.022	1.88
299.236	63.32
299.451	36.69
299.665	16.21
299.88	14.17
300.094	75.6
300.309	26.45
300.523	85.84
300.737	-49.32
300.952	114.52
301.166	32.6
301.381	-84.14
301.595	-12.46
301.809	81.75
302.024	-30.89
302.238	-32.94
302.452	32.6
302.667	5.97
302.881	-4.27
303.095	57.17
303.309	79.7
303.524	-28.84
303.738	77.65
303.952	8.02
304.166	51.03
304.381	-127.14
304.595	22.36
304.809	12.12
305.023	91.99
305.237	-53.42
305.452	12.12
305.666	1.88
305.88	75.6
306.094	30.55
306.308	55.12
306.522	53.08
306.736	12.12
306.95	89.94
307.164	-41.13
307.379	24.4
307.593	89.94
307.807	3.93
308.021	-6.31
308.235	44.88
308.449	-22.7
308.663	-16.55
308.877	81.75
309.091	30.55
309.305	126.8
309.519	-61.61
309.733	-16.55
309.947	-20.65
310.161	75.6
310.374	-8.36
310.588	69.46
310.802	-2.22
311.016	-14.51
311.23	12.12
311.444	40.79
311.658	12.12
311.872	44.88
312.085	-0.17
312.299	44.88
312.513	34.64
312.727	26.45
312.941	-14.51
313.154	44.88
313.368	5.97
313.582	-8.36
313.796	32.6
314.009	65.36
314.223	53.08
314.437	12.12
314.651	18.26
314.864	18.26
315.078	-20.65
315.292	77.65
315.505	18.26
315.719	18.26
315.933	14.17
316.146	20.31
316.36	-12.46
316.573	36.69
316.787	-24.75
317.001	65.36
317.214	10.07
317.428	22.36
317.641	1.88
317.855	-20.65
318.068	59.22
318.282	-14.51
318.495	10.07
318.709	-4.27
318.922	51.03
319.136	42.84
319.349	51.03
319.563	-12.46
319.776	-4.27
319.99	40.79
320.203	18.26
320.417	34.64
320.63	36.69
320.843	106.32
321.057	57.17
321.27	42.84
321.483	8.02
321.697	79.7
321.91	36.69
322.124	12.12
322.337	87.89
322.55	12.12
322.763	5.97
322.977	77.65
323.19	3.93
323.403	-4.27
323.617	10.07
323.83	44.88
324.043	59.22
324.256	46.93
324.469	-6.31
324.683	34.64
324.896	16.21
325.109	30.55
325.322	10.07
325.535	20.31
325.748	20.31
325.962	79.7
326.175	20.31
326.388	5.97
326.601	61.27
326.814	3.93
327.027	40.79
327.24	106.32
327.453	-12.46
327.666	108.37
327.879	30.55
328.092	-2.22
328.305	22.36
328.518	53.08
328.731	14.17
328.944	-6.31
329.157	28.5
329.37	-22.7
329.583	65.36
329.796	79.7
330.009	3.93
330.222	-0.17
330.435	73.56
330.648	48.98
330.861	38.74
331.073	18.26
331.286	14.17
331.499	32.6
331.712	-14.51
331.925	8.02
332.138	-22.7
332.35	-12.46
332.563	-39.08
332.776	38.74
332.989	12.12
333.202	18.26
333.414	12.12
333.627	53.08
333.84	3.93
334.053	28.5
334.265	-45.23
334.478	24.4
334.691	-71.85
334.903	53.08
335.116	42.84
335.329	18.26
335.541	36.69
335.754	87.89
335.966	48.98
336.179	20.31
336.392	-0.17
336.604	42.84
336.817	81.75
337.029	22.36
337.242	1.88
337.454	102.23
337.667	3.93
337.88	30.55
338.092	53.08
338.305	106.32
338.517	44.88
338.729	79.7
338.942	32.6
339.154	-4.27
339.367	22.36
339.579	42.84
339.792	-32.94
340.004	20.31
340.217	-10.41
340.429	24.4
340.641	36.69
340.854	-0.17
341.066	57.17
341.278	44.88
341.491	-2.22
341.703	53.08
341.915	1.88
342.128	57.17
342.34	24.4
342.552	53.08
342.764	-4.27
342.977	122.71
343.189	-28.84
343.401	30.55
343.613	1.88
343.826	53.08
344.038	18.26
344.25	34.64
344.462	-47.27
344.674	-67.75
344.886	63.32
345.099	30.55
345.311	51.03
345.523	-8.36
345.735	-22.7
345.947	32.6
346.159	1.88
346.371	67.41
346.583	61.27
346.795	16.21
347.007	12.12
347.219	46.93
347.431	-30.89
347.643	40.79
347.855	42.84
348.067	30.55
348.279	40.79
348.491	3.93
348.703	20.31
348.915	20.31
349.127	32.6
349.339	26.45
349.551	34.64
349.763	53.08
349.975	34.64
350.187	104.28
350.399	40.79
350.61	67.41
350.822	28.5
351.034	46.93
351.246	42.84
351.458	10.07
351.669	-24.75
351.881	67.41
352.093	51.03
352.305	14.17
352.517	10.07
352.728	108.37
352.94	34.64
353.152	57.17
353.363	3.93
353.575	59.22
353.787	61.27
353.999	22.36
354.21	79.7
354.422	-0.17
354.633	5.97
354.845	44.88
355.057	-22.7
355.268	-10.41
355.48	24.4
355.692	-67.75
355.903	96.08
356.115	8.02
356.326	-43.18
356.538	38.74
356.749	12.12
356.961	120.66
357.172	-63.66
357.384	12.12
357.595	12.12
357.807	24.4
358.018	-51.37
358.23	104.28
358.441	36.69
358.653	-12.46
358.864	12.12
359.075	46.93
359.287	22.36
359.498	20.31
359.709	3.93
359.921	120.66
360.132	51.03
360.344	57.17
360.555	36.69
360.766	53.08
360.977	-0.17
361.189	120.66
361.4	26.45
361.611	59.22
361.823	18.26
362.034	34.64
362.245	-18.6
362.456	18.26
362.667	122.71
362.879	36.69
363.09	75.6
363.301	28.5
363.512	42.84
363.723	57.17
363.935	59.22
364.146	69.46
364.357	-10.41
364.568	22.36
364.779	10.07
364.99	85.84
365.201	14.17
365.412	94.04
365.623	18.26
365.834	73.56
366.045	-8.36
366.256	96.08
366.467	24.4
366.678	26.45
366.889	-4.27
367.1	-22.7
367.311	67.41
367.522	-6.31
367.733	44.88
367.944	5.97
368.155	-16.55
368.366	20.31
368.577	38.74
368.788	12.12
368.999	32.6
369.209	91.99
369.42	132.95
369.631	51.03
369.842	-55.47
370.053	42.84
370.264	24.4
370.474	20.31
370.685	32.6
370.896	-0.17
371.107	53.08
371.317	-39.08
371.528	61.27
371.739	106.32
371.95	-20.65
372.16	85.84
372.371	-0.17
372.582	44.88
372.792	106.32
373.003	85.84
373.214	26.45
373.424	48.98
373.635	-12.46
373.846	71.51
374.056	-26.79
374.267	75.6
374.477	32.6
374.688	77.65
374.898	20.31
375.109	85.84
375.319	71.51
375.53	91.99
375.74	106.32
375.951	85.84
376.161	91.99
376.372	34.64
376.582	79.7
376.793	102.23
377.003	14.17
377.214	59.22
377.424	-6.31
377.635	18.26
377.845	-4.27
378.055	106.32
378.266	34.64
378.476	24.4
378.686	34.64
378.897	44.88
379.107	79.7
379.317	48.98
379.528	-30.89
379.738	112.47
379.948	-14.51
380.158	91.99
380.369	-6.31
380.579	30.55
380.789	34.64
380.999	16.21
381.21	79.7
381.42	135
381.63	-22.7
381.84	63.32
382.05	61.27
382.261	71.51
382.471	61.27
382.681	63.32
382.891	108.37
383.101	53.08
383.311	-4.27
383.521	-6.31
383.731	34.64
383.941	42.84
384.151	48.98
384.361	24.4
384.571	34.64
384.781	18.26
384.991	26.45
385.201	116.56
385.411	3.93
385.621	89.94
385.831	63.32
386.041	65.36
386.251	94.04
386.461	130.9
386.671	81.75
386.881	55.12
387.091	128.85
387.301	26.45
387.511	51.03
387.72	38.74
387.93	34.64
388.14	-4.27
388.35	10.07
388.56	104.28
388.769	108.37
388.979	77.65
389.189	32.6
389.399	20.31
389.609	61.27
389.818	44.88
390.028	51.03
390.238	61.27
390.447	44.88
390.657	79.7
390.867	100.18
391.076	71.51
391.286	3.93
391.496	-22.7
391.705	51.03
391.915	96.08
392.125	18.26
392.334	108.37
392.544	22.36
392.753	91.99
392.963	100.18
393.172	85.84
393.382	20.31
393.591	42.84
393.801	-12.46
394.01	147.28
394.22	83.8
394.429	57.17
394.639	100.18
394.848	51.03
395.058	59.22
395.267	89.94
395.477	77.65
395.686	30.55
395.895	184.15
396.105	161.62
396.314	120.66
396.524	53.08
396.733	110.42
396.942	149.33
397.152	61.27
397.361	71.51
397.57	-20.65
397.78	34.64
397.989	85.84
398.198	135
398.407	83.8
398.617	38.74
398.826	40.79
399.035	108.37
399.244	83.8
399.453	120.66
399.663	135
399.872	73.56
400.081	46.93
400.29	100.18
400.499	53.08
400.708	114.52
400.917	110.42
401.127	75.6
401.336	46.93
401.545	132.95
401.754	96.08
401.963	51.03
402.172	61.27
402.381	126.8
402.59	110.42
402.799	51.03
403.008	132.95
403.217	87.89
403.426	79.7
403.635	20.31
403.844	104.28
404.053	94.04
404.262	48.98
404.471	175.95
404.68	116.56
404.888	155.47
405.097	137.04
405.306	10.07
405.515	141.14
405.724	155.47
405.933	165.71
406.142	110.42
406.35	202.58
406.559	173.91
406.768	143.19
406.977	153.43
407.185	180.05
407.394	192.34
407.603	126.8
407.812	227.15
408.02	151.38
408.229	151.38
408.438	206.67
408.646	147.28
408.855	233.3
409.064	223.06
409.272	286.54
409.481	210.77
409.69	143.19
409.898	155.47
410.107	257.87
410.315	264.02
410.524	147.28
410.733	216.91
410.941	307.02
411.15	315.22
411.358	300.88
411.567	384.85
411.775	257.87
411.984	360.27
412.192	413.52
412.401	311.12
412.609	337.74
412.818	411.47
413.026	409.42
413.234	397.14
413.443	444.24
413.651	431.95
413.86	464.72
414.068	499.53
414.276	497.49
414.485	532.3
414.693	606.03
414.901	589.64
415.11	489.29
415.318	526.16
415.526	567.12
415.734	616.27
415.943	626.51
416.151	730.95
416.359	694.09
416.567	640.84
416.776	630.6
416.984	769.87
417.192	759.63
417.4	833.35
417.608	769.87
417.817	843.59
418.025	919.37
418.233	933.7
418.441	898.89
418.649	929.61
418.857	1044.29
419.065	1052.49
419.273	1015.62
419.481	1036.1
419.689	1191.75
419.897	1148.74
420.105	1171.27
420.313	1201.99
420.521	1347.39
420.729	1328.96
420.937	1367.87
421.145	1392.45
421.353	1468.22
421.561	1525.57
421.769	1478.46
421.977	1675.07
422.185	1621.82
422.393	1707.84
422.601	1771.32
422.809	1832.76
423.017	1834.81
423.224	1849.15
423.432	2041.65
423.64	2027.32
423.848	2115.38
424.056	2117.43
424.263	2385.71
424.471	2142
424.679	2414.38
424.887	2424.62
425.094	2557.74
425.302	2631.47
425.51	2664.24
425.718	2690.86
425.925	2764.59
426.133	2834.22
426.341	3002.15
426.548	3047.21
426.756	3092.26
426.964	3174.18
427.171	3534.62
427.379	3354.4
427.586	3557.15
427.794	3632.93
428.001	3569.44
428.209	3966.74
428.417	3854.11
428.624	4267.8
428.832	4003.61
429.039	4183.83
429.247	4120.34
429.454	4495.12
429.662	4935.43
429.869	4488.98
430.076	4828.94
430.284	4714.25
430.491	4816.65
430.699	5089.03
430.906	5189.38
431.114	5216.01
431.321	5564.16
431.528	5363.46
431.736	5961.47
431.943	6090.49
432.15	6016.76
432.358	6049.53
432.565	6526.71
432.772	6487.79
432.979	6655.73
433.187	6821.61
433.394	6770.41
433.601	7182.06
433.808	7276.26
434.016	7180.01
434.223	7423.72
434.43	7939.8
434.637	7671.52
434.844	8128.22
435.052	8503
435.259	8466.13
435.466	8568.53
435.673	8376.02
435.88	9012.94
436.087	9164.49
436.294	9555.65
436.501	9227.98
436.708	9430.73
436.915	9694.91
437.122	10106.56
437.329	10018.49
437.537	10319.54
437.743	10630.84
437.95	10555.06
438.157	11058.86
438.364	11394.73
438.571	11454.12
438.778	11464.36
438.985	12480.15
439.192	12033.69
439.399	12375.7
439.606	12060.32
439.813	12740.24
440.02	13647.49
440.227	13477.51
440.433	13135.5
440.64	13622.92
440.847	13407.88
441.054	13993.6
441.261	15015.54
441.467	14671.48
441.674	14964.34
441.881	15537.77
442.088	15513.19
442.294	15259.24
442.501	15685.22
442.708	15986.27
442.914	16623.19
443.121	17317.45
443.328	16909.91
443.534	18017.86
443.741	17616.46
443.948	17206.86
444.154	18486.84
444.361	18445.88
444.568	18632.25
444.774	18615.87
444.981	18484.8
445.187	19209.78
445.394	20186.66
445.6	19988
445.807	21917.19
446.013	20805.14
446.22	21288.46
446.426	22257.15
446.633	22246.91
446.839	22906.36
447.046	21978.63
447.252	23019
447.459	23330.29
447.665	23006.71
447.871	24126.95
448.078	25167.32
448.284	24075.75
448.491	24430.05
448.697	25175.51
448.903	25882.06
449.11	25894.35
449.316	25664.97
449.522	26146.25
449.728	26742.21
449.935	26990.01
450.141	26928.57
450.347	27336.12
450.553	26691.01
450.76	27053.5
450.966	27690.41
451.172	27360.69
451.378	27979.18
451.584	27596.21
451.791	28069.29
451.997	28446.12
452.203	28634.53
452.409	28218.79
452.615	28587.43
452.821	27291.06
453.027	26957.24
453.233	28249.51
453.44	27102.65
453.646	27442.61
453.852	27657.65
454.058	27923.88
454.264	27293.11
454.47	27565.49
454.676	26965.43
454.882	27942.31
455.088	25572.82
455.294	25935.31
455.5	26205.64
455.705	26731.97
455.911	25529.81
456.117	24849.88
456.323	24524.26
456.529	23129.59
456.735	23987.69
456.941	23729.64
457.147	22820.35
457.352	22515.2
457.558	22322.69
457.764	22017.54
457.97	21560.84
458.176	21315.09
458.381	21116.44
458.587	20129.31
458.793	20119.07
458.999	19295.79
459.204	20581.92
459.41	20039.2
459.616	18781.75
459.821	18689.59
460.027	18669.11
460.233	18118.21
460.438	17614.41
460.644	17571.4
460.85	16737.88
461.055	16799.32
461.261	16258.65
461.466	15267.44
461.672	14628.47
461.878	16043.62
462.083	14706.29
462.289	14462.58
462.494	14423.67
462.7	13854.34
462.905	13301.39
463.111	13870.72
463.316	13811.33
463.522	13641.35
463.727	13452.94
463.932	13586.05
464.138	13549.19
464.343	13549.19
464.549	13198.99
464.754	13702.79
464.959	13475.46
465.165	13153.93
465.37	13088.4
465.575	12494.49
465.781	13000.33
465.986	13061.77
466.191	12543.64
466.397	12527.25
466.602	11712.16
466.807	12291.74
467.012	12279.45
467.218	12242.59
467.423	11916.96
467.628	12222.11
467.833	12390.04
468.038	12172.96
468.244	11675.3
468.449	12246.68
468.654	11835.04
468.859	11787.94
469.064	11876
469.269	11058.86
469.474	11183.79
469.679	11484.84
469.885	11345.58
470.09	11589.28
470.295	11198.12
470.5	11017.9
470.705	11042.48
470.91	10925.74
471.115	10620.6
471.32	10929.84
471.525	10811.06
471.73	10407.61
471.935	10462.9
472.139	10254.01
472.344	10157.75
472.549	10215.1
472.754	10182.33
472.959	10012.35
473.164	9735.87
473.369	9541.32
473.574	10047.16
473.778	9965.25
473.983	9785.02
474.188	9436.87
474.393	9168.59
474.598	9336.52
474.802	9227.98
475.007	9004.75
475.212	9170.63
475.417	8744.66
475.621	8808.14
475.826	8693.46
476.031	8785.62
476.235	8277.72
476.44	8715.98
476.645	8634.07
476.849	8382.17
477.054	8478.42
477.259	8185.56
477.463	8179.42
477.668	8052.44
477.872	8105.69
478.077	7892.7
478.282	7937.76
478.486	7632.61
478.691	7708.38
478.895	7841.5
479.1	7767.77
479.304	7696.1
479.509	7534.31
479.713	7743.2
479.918	7593.7
480.122	7253.73
480.326	7483.11
480.531	7458.53
480.735	7315.17
480.94	7384.8
481.144	7554.79
481.348	7216.87
481.553	7327.46
481.757	7186.15
481.961	7395.04
482.166	7509.73
482.37	7292.65
482.574	7055.08
482.778	7134.95
482.983	7339.75
483.187	7212.78
483.391	7292.65
483.595	7012.07
483.8	7132.9
484.004	7106.28
484.208	7204.58
484.412	7184.1
484.616	7261.93
484.821	7470.82
485.025	7063.27
485.229	7161.58
485.433	7190.25
485.637	7216.87
485.841	7137
486.045	7010.03
486.249	7046.89
486.453	7081.71
486.657	7102.18
486.861	7218.92
487.065	7063.27
487.269	7268.07
487.473	6997.74
487.677	7403.24
487.881	7274.21
488.085	7227.11
488.289	7204.58
488.493	7137
488.697	7292.65
488.901	7280.36
489.105	7151.34
489.309	7290.6
489.512	7376.61
489.716	7501.54
489.92	7288.55
490.124	7431.91
490.328	7579.36
490.531	7386.85
490.735	7376.61
490.939	7519.97
491.143	7491.3
491.346	7419.62
491.55	7714.53
491.754	7569.12
491.958	7737.06
492.161	7591.65
492.365	7753.44
492.569	7661.28
492.772	7743.2
492.976	7724.77
493.18	8027.87
493.383	7952.09
493.587	7737.06
493.79	8136.41
493.994	7984.86
494.197	7896.8
494.401	8148.7
494.605	8181.46
494.808	8136.41
495.012	8257.24
495.215	8371.93
495.419	8302.29
495.622	8326.87
495.825	8318.68
496.029	8654.55
496.232	8761.04
496.436	8605.39
496.639	8928.97
496.843	9045.71
497.046	9047.76
497.249	9121.48
497.453	9191.11
497.656	9160.39
497.859	9197.26
498.063	9174.73
498.266	9682.63
498.469	9682.63
498.673	9510.6
498.876	9852.61
499.079	9891.52
499.282	9998.01
499.485	10389.17
499.689	10165.95
499.892	10327.74
500.095	10362.55
500.298	10645.17
500.501	10301.11
500.705	10854.06
500.908	10917.55
501.111	10931.89
501.314	11093.68
501.517	11161.26
501.72	11380.39
501.923	11527.85
502.126	11558.56
502.329	11982.49
502.532	11882.14
502.735	11861.66
502.938	12316.31
503.141	12349.08
503.344	12519.06
503.547	12433.05
503.75	12603.03
503.953	12871.31
504.156	13074.06
504.359	13268.62
504.562	13268.62
504.765	13631.11
504.968	13551.24
505.17	13624.97
505.373	13614.73
505.576	14202.49
505.779	14098.05
505.982	14151.29
506.185	14524.02
506.387	14712.44
506.59	14870.13
506.793	15019.63
506.996	15046.26
507.198	15322.73
507.401	15193.71
507.604	15847.01
507.807	15953.51
508.009	16066.14
508.212	16170.59
508.415	16285.28
508.617	16490.07
508.82	16590.42
509.022	16471.64
509.225	17333.84
509.428	17276.49
509.63	17423.95
509.833	17401.42
510.035	17585.74
510.238	17413.71
510.44	18071.11
510.643	17944.13
510.845	18425.4
511.048	18427.45
511.25	18609.72
511.453	18839.09
511.655	19559.98
511.858	19211.82
512.06	19500.59
512.262	19715.62
512.465	19805.74
512.667	20252.19
512.87	20405.79
513.072	20332.06
513.274	20815.38
513.477	21210.64
513.679	21163.54
513.881	21052.95
514.084	21292.56
514.286	21569.04
514.488	21503.5
514.69	22394.37
514.893	22441.47
515.095	22672.89
515.297	22787.58
515.499	22801.91
515.701	22982.13
515.904	23537.13
516.106	23465.46
516.308	23905.77
516.51	24004.07
516.712	23854.57
516.914	24341.99
517.116	24794.59
517.318	24708.57
517.52	24956.38
517.722	25105.88
517.925	25523.66
518.127	25808.33
518.329	26078.66
518.531	26002.89
518.733	26672.57
518.935	26604.99
519.136	26721.73
519.338	26883.52
519.54	27612.59
519.742	27418.03
519.944	27493.81
520.146	28132.78
520.348	28106.15
520.55	28216.74
520.752	28329.38
520.954	28935.58
521.155	28669.34
521.357	29058.46
521.559	29390.23
521.761	29724.05
521.963	30045.58
522.164	29965.71
522.366	30127.5
522.568	30137.74
522.77	30401.93
522.971	30948.73
523.173	30672.26
523.375	31184.25
523.576	31393.14
523.778	31298.94
523.98	31808.88
524.181	31704.43
524.383	31636.85
524.584	32101.74
524.786	32253.29
524.988	32453.99
525.189	32609.64
525.391	33135.96
525.592	33269.08
525.794	33439.06
525.995	33381.72
526.197	33535.32
526.398	33439.06
526.6	33539.41
526.801	33813.84
527.003	34086.22
527.204	34141.52
527.406	34344.27
527.607	34004.3
527.808	34792.77
528.01	34108.75
528.211	34262.35
528.412	35169.6
528.614	34786.63
528.815	34895.17
529.016	35122.49
529.218	35276.09
529.419	35102.01
529.62	35054.91
529.822	35194.17
530.023	35386.68
530.224	35833.14
530.425	35298.62
530.626	35247.42
530.828	35695.92
531.029	36136.24
531.23	35255.61
531.431	35996.98
531.632	35616.05
531.833	35972.4
532.035	36064.56
532.236	36304.17
532.437	36095.28
532.638	35853.62
532.839	36310.32
533.04	36074.8
533.241	35755.32
533.442	36603.17
533.643	36193.58
533.844	35896.63
534.045	36515.11
534.246	35812.66
534.447	36279.6
534.648	36410.67
534.849	36439.34
535.05	36269.36
535.251	36406.57
535.451	36252.97
535.652	36633.89
535.853	36257.07
536.054	36359.47
536.255	36697.38
536.456	36341.03
536.657	36660.52
536.857	36138.29
537.058	36392.23
537.259	36590.89
537.46	36545.83
537.66	36521.26
537.861	36717.86
538.062	36689.19
538.263	36674.85
538.463	36338.99
538.664	36318.51
538.865	36381.99
539.065	36812.07
539.266	36052.27
539.466	36857.12
539.667	36058.42
539.868	36922.66
540.068	36646.18
540.269	36353.32
540.469	36582.7
540.67	36478.25
540.87	36726.05
541.071	36396.33
541.271	36261.16
541.472	36238.64
541.672	36443.43
541.873	36019.5
542.073	36044.08
542.274	36810.02
542.474	36363.56
542.675	36445.48
542.875	36758.82
543.075	36201.77
543.276	35904.82
543.476	36781.35
543.676	36459.82
543.877	36484.39
544.077	36160.81
544.277	36312.36
544.478	36173.1
544.678	36582.7
544.878	36263.21
545.078	36185.39
545.279	35935.54
545.479	35951.92
545.679	36250.92
545.879	36250.92
546.079	36236.59
546.28	36214.06
546.48	36042.03
546.68	36152.62
546.88	35958.06
547.08	35870
547.28	36304.17
547.48	35687.73
547.68	36295.98
547.88	35941.68
548.081	36324.65
548.281	35927.35
548.481	36132.14
548.681	36185.39
548.881	36054.32
549.081	35943.73
549.28	35751.22
549.48	36031.79
549.68	36048.18
549.88	36554.02
550.08	35820.85
550.28	36144.43
550.48	35870
550.68	36228.4
550.88	35894.58
551.08	36023.6
551.279	36197.68
551.479	35765.56
551.679	35994.93
551.879	35913.01
552.079	36279.6
552.278	35685.68
552.478	35929.39
552.678	35792.18
552.878	35679.54
553.077	35609.91
553.277	35691.83
553.477	36095.28
553.676	35726.64
553.876	35550.52
554.076	35482.94
554.275	35763.51
554.475	35702.07
554.674	35730.74
554.874	35474.74
555.074	35677.49
555.273	35669.3
555.473	35747.12
555.672	35403.07
555.872	35394.87
556.071	35747.12
556.271	35562.81
556.47	35466.55
556.67	35358.01
556.869	35550.52
557.068	35290.43
557.268	35009.86
557.467	35456.31
557.667	35243.32
557.866	35222.84
558.065	35016
558.265	34708.8
558.464	34858.31
558.663	35421.5
558.863	34792.77
559.062	35220.8
559.261	34680.13
559.461	35116.35
559.66	34487.62
559.859	35056.96
560.058	34592.07
560.258	35208.51
560.457	34356.55
560.656	35054.91
560.855	34712.9
561.054	34966.85
561.253	34784.58
561.453	34536.77
561.652	34536.77
561.851	34770.24
562.05	34606.41
562.249	34094.41
562.448	34508.1
562.647	34168.14
562.846	33949.01
563.045	34002.25
563.244	33797.46
563.443	34260.3
563.642	33721.68
563.841	33830.23
564.04	33451.35
564.239	34252.11
564.438	33647.96
564.637	33623.38
564.836	33846.61
565.035	33006.94
565.234	33875.28
565.432	33416.54
565.631	33475.93
565.83	33037.66
566.029	33172.83
566.228	33021.28
566.427	33097.05
566.625	32836.96
566.824	32580.96
567.023	32920.93
567.222	32535.91
567.42	33197.4
567.619	32904.54
567.818	33019.23
568.016	32503.14
568.215	32843.1
568.414	32118.12
568.612	32707.94
568.811	32578.92
569.01	32757.09
569.208	32097.64
569.407	32329.06
569.605	31618.42
569.804	32224.62
570.002	31751.54
570.201	32220.52
570.4	31614.32
570.598	31976.81
570.797	31309.18
570.995	31733.11
571.193	31331.7
571.392	31815.02
571.59	31210.87
571.789	31350.13
571.987	31542.64
572.186	31237.5
572.384	31180.15
572.582	31178.11
572.781	31106.43
572.979	30715.26
573.177	30928.25
573.376	30709.12
573.574	30346.63
573.772	30936.45
573.971	30473.6
574.169	30438.79
574.367	30045.58
574.565	30469.51
574.763	30375.3
574.962	30352.77
575.16	30014.86
575.358	30307.72
575.556	29984.14
575.754	30344.58
575.952	29775.25
576.151	29978
576.349	29521.3
576.547	29590.93
576.745	29814.16
576.943	29580.69
577.141	29615.51
577.339	29537.68
577.537	29396.37
577.735	29312.41
577.933	28964.25
578.131	29042.07
578.329	28968.35
578.527	28775.84
578.725	28982.68
578.923	28927.39
579.121	28839.33
579.319	28433.83
579.516	28802.46
579.714	28667.3
579.912	28718.5
580.11	28155.3
580.308	28409.25
580.506	28777.89
580.704	27747.76
580.901	28315.05
581.099	28323.24
581.297	28081.58
581.495	27665.84
581.692	27991.47
581.89	27735.47
582.088	27927.98
582.285	27751.85
582.483	27680.17
582.681	27399.6
582.878	27571.63
583.076	27327.92
583.274	27612.59
583.471	27241.91
583.669	27198.9
583.866	27131.32
584.064	27110.84
584.262	26869.18
584.459	27076.02
584.657	26881.47
584.854	27223.48
585.052	26316.23
585.249	26813.88
585.447	26953.15
585.644	26443.2
585.841	26586.56
586.039	26850.75
586.236	26265.03
586.434	26281.41
586.631	26097.1
586.828	26426.82
587.026	26189.25
587.223	26115.53
587.42	25957.83
587.618	25943.5
587.815	25683.41
588.012	25712.08
588.21	25513.42
588.407	25707.98
588.604	25544.14
588.801	25232.85
588.999	25540.05
589.196	25394.64
589.393	25400.79
589.59	24921.56
589.787	25062.87
589.984	25097.69
590.182	24700.38
590.379	25079.25
590.576	24890.84
590.773	24770.01
590.97	24733.15
591.167	24739.29
591.364	24331.75
591.561	24853.98
591.758	24131.05
591.955	24298.98
592.152	24423.9
592.349	24075.75
592.546	24274.4
592.743	23969.26
592.94	24085.99
593.137	23891.43
593.334	23922.15
593.531	23447.02
593.727	23805.42
593.924	24038.89
594.121	23430.64
594.318	23719.4
594.515	23311.86
594.712	23670.25
594.908	23674.35
595.105	22980.09
595.302	23219.7
595.499	23078.39
595.696	22971.89
595.892	22892.02
596.089	23303.67
596.286	22861.3
596.482	22961.65
596.679	22863.35
596.876	22685.18
597.072	22877.69
597.269	22803.96
597.466	22316.54
597.662	22425.09
597.859	22474.24
598.055	22390.27
598.252	22353.41
598.448	22046.21
598.645	22248.96
598.841	21988.87
599.038	21997.06
599.234	21839.37
599.431	21706.25
599.627	21530.12
599.824	21874.18
600.02	21743.11
600.217	22001.16
600.413	21648.91
600.609	21603.85
600.806	21495.31
601.002	21726.73
601.198	20948.5
601.395	21345.81
601.591	21302.8
601.787	21362.19
601.984	21081.62
602.18	21376.53
602.376	20839.96
602.572	20710.94
602.769	20917.78
602.965	20710.94
603.161	20928.02
603.357	20641.31
603.553	20622.87
603.75	20557.34
603.946	20086.31
604.142	20426.27
604.338	20266.53
604.534	20416.03
604.73	20069.92
604.926	19969.57
605.122	20117.03
605.318	20123.17
605.514	19965.48
605.71	19617.32
605.906	19840.55
606.102	19979.81
606.298	19842.6
606.494	19406.38
606.69	20022.82
606.886	19799.59
607.082	19437.1
607.278	19865.13
607.474	19367.47
607.67	19469.87
607.866	19279.41
608.062	19676.71
608.257	19064.37
608.453	19473.96
608.649	19471.92
608.845	19215.92
609.041	19162.67
609.236	19226.16
609.432	18929.2
609.628	19177.01
609.824	18941.49
610.019	18744.89
610.215	19058.23
610.411	18867.77
610.606	18675.26
610.802	19015.22
610.998	18404.92
611.193	18589.24
611.389	18527.8
611.584	18624.06
611.78	18404.92
611.976	18538.04
612.171	18613.82
612.367	18464.32
612.562	18204.22
612.758	18253.37
612.953	17954.37
613.149	18333.25
613.344	18226.75
613.539	18323.01
613.735	18116.16
613.93	18363.97
614.126	17972.8
614.321	18249.28
614.517	18234.94
614.712	17817.16
614.907	18034.24
615.103	18179.65
615.298	17987.14
615.493	17972.8
615.688	17649.22
615.884	18132.54
616.079	17538.63
616.274	17960.52
616.47	17942.08
616.665	17716.81
616.86	17399.37
617.055	17462.86
617.25	17552.97
617.445	17559.11
617.641	17296.97
617.836	17198.67
618.031	17088.08
618.226	17602.12
618.421	17223.25
618.616	17172.05
618.811	17008.21
619.006	17296.97
619.201	16766.55
619.396	16899.67
619.591	16799.32
619.786	17034.83
619.981	16694.87
620.176	16758.36
620.371	16412.25
620.566	16672.34
620.761	16549.46
620.956	16690.77
621.151	16291.42
621.346	16369.24
621.541	16096.86
621.735	16150.11
621.93	16000.61
622.125	15674.98
622.32	15683.17
622.515	15593.06
622.709	15699.56
622.904	15435.37
623.099	15447.66
623.294	15699.56
623.488	15373.93
623.683	15560.3
623.878	14986.86
624.072	15242.86
624.267	15101.55
624.462	15064.69
624.656	14835.31
624.851	15025.78
625.046	14657.14
625.24	14683.77
625.435	14468.73
625.629	14495.35
625.824	14423.67
626.018	14433.91
626.213	14073.47
626.407	14362.23
626.602	13948.54
626.796	14165.63
626.991	14042.75
627.185	13710.98
627.38	13801.09
627.574	13487.75
627.768	13676.16
627.963	13764.23
628.157	13526.66
628.352	13264.52
628.546	13340.3
628.74	13497.99
628.935	13307.53
629.129	13098.64
629.323	13127.31
629.517	13049.49
629.712	12975.76
629.906	12809.87
630.1	12721.81
630.294	12730
630.489	12766.87
630.683	12895.89
630.877	12431
631.071	12508.82
631.265	12615.32
631.459	12418.71
631.653	12258.97
631.848	12394.14
632.042	12181.15
632.236	12316.31
632.43	11923.1
632.624	12013.21
632.818	11978.4
633.012	11800.23
633.206	12076.7
633.4	12002.97
633.594	11435.69
633.788	11658.92
633.982	11728.55
634.176	11527.85
634.369	11349.67
634.563	11341.48
634.757	11429.54
634.951	11382.44
635.145	11185.83
635.339	11247.27
635.533	11101.87
635.726	11191.98
635.92	10743.47
636.114	10825.39
636.308	10827.44
636.501	11022
636.695	10862.26
636.889	10780.34
637.083	10737.33
637.276	10569.4
637.47	10454.71
637.664	10751.67
637.857	10380.98
638.051	10565.3
638.244	10270.39
638.438	10190.52
638.632	10294.97
638.825	10309.3
639.019	10098.36
639.212	10024.64
639.406	10020.54
639.599	10059.45
639.793	10084.03
639.986	9891.52
640.18	9838.27
640.373	9762.5
640.567	9653.95
640.76	9608.9
640.954	9486.02
641.147	9332.42
641.34	9449.16
641.534	9346.76
641.727	9342.66
641.92	9354.95
642.114	9428.68
642.307	9004.75
642.5	9195.21
642.694	8974.03
642.887	8986.32
643.08	9182.92
643.273	8890.06
643.467	8701.65
643.66	8756.94
643.853	8687.31
644.046	8750.8
644.239	8603.35
644.432	8703.7
644.626	8707.79
644.819	8496.85
645.012	8543.95
645.205	8527.57
645.398	8376.02
645.591	8328.92
645.784	8271.58
645.977	8324.82
646.17	8451.8
646.363	8232.66
646.556	8136.41
646.749	8152.79
646.942	8158.94
647.135	7835.36
647.328	7991
647.521	8027.87
647.714	7802.59
647.907	7894.75
648.099	7845.6
648.292	7790.3
648.485	7823.07
648.678	7579.36
648.871	7657.18
649.064	7595.75
649.256	7599.84
649.449	7532.26
649.642	7565.03
649.835	7538.4
650.027	7562.98
650.22	7257.83
650.413	7241.45
650.605	7431.91
650.798	7130.86
650.991	7184.1
651.183	7249.64
651.376	7132.9
651.568	7038.7
651.761	6958.83
651.954	7073.51
652.146	7122.66
652.339	7016.17
652.531	7114.47
652.724	6893.29
652.916	6586.1
653.109	6958.83
653.301	6930.16
653.494	6932.2
653.686	6655.73
653.879	6792.94
654.071	6526.71
654.263	6483.7
654.456	6508.27
654.648	6702.83
654.84	6532.85
655.033	6459.12
655.225	6524.66
655.417	6305.53
655.61	6485.75
655.802	6401.78
655.994	6323.96
656.186	6430.45
656.379	6196.98
656.571	6244.09
656.763	6135.54
656.955	5910.27
657.148	6192.89
657.34	6158.07
657.532	5893.88
657.724	6057.72
657.916	6070.01
658.108	5953.27
658.3	5865.21
658.492	5885.69
658.684	5836.54
658.876	5883.64
659.068	5885.69
659.26	5682.94
659.452	5777.15
659.644	5621.5
659.836	5635.84
660.028	5801.72
660.22	5672.7
660.412	5672.7
660.604	5562.11
660.796	5713.66
660.988	5641.98
661.18	5633.79
661.372	5306.12
661.563	5566.21
661.755	5377.8
661.947	5310.21
662.139	5510.91
662.331	5324.55
662.522	5324.55
662.714	5295.88
662.906	5259.01
663.097	5201.67
663.289	5035.78
663.481	5189.38
663.673	5132.04
663.864	4984.59
664.056	5060.36
664.247	5125.9
664.439	5011.21
664.631	4968.2
664.822	4998.92
665.014	4855.56
665.205	4978.44
665.397	4878.09
665.588	5050.12
665.78	4714.25
665.971	4896.52
666.163	4822.8
666.354	4755.21
666.546	4753.16
666.737	4613.9
666.929	4675.34
667.12	4726.54
667.311	4638.48
667.503	4677.39
667.694	4697.87
667.885	4589.33
668.077	4679.44
668.268	4439.83
668.459	4476.69
668.651	4411.15
668.842	4597.52
669.033	4509.46
669.224	4402.96
669.416	4423.44
669.607	4493.07
669.798	4353.81
669.989	4515.6
670.18	4378.39
670.371	4304.66
670.563	4130.58
670.754	4415.25
670.945	4329.24
671.136	4284.18
671.327	4177.69
671.518	4202.26
671.709	4437.78
671.9	4278.04
672.091	4257.56
672.282	4319
672.473	4273.94
672.664	4081.43
672.855	4126.49
673.046	4208.41
673.237	4151.06
673.428	4175.64
673.619	4263.7
673.809	4069.14
674	4106.01
674.191	3880.73
674.382	3944.22
674.573	4083.48
674.764	4134.68
674.954	4054.81
675.145	3929.88
675.336	3911.45
675.527	3981.08
675.717	4056.86
675.908	3864.35
676.099	3993.37
676.289	3970.84
676.48	3979.03
676.671	3829.53
676.861	3954.46
677.052	4030.23
677.243	3956.5
677.433	3768.09
677.624	3776.28
677.814	3710.75
678.005	3829.53
678.195	3657.5
678.386	3835.67
678.576	3747.61
678.767	3804.96
678.957	3882.78
679.148	3684.13
679.338	3655.45
679.529	3776.28
679.719	3811.1
679.909	3720.99
680.1	3780.38
680.29	3673.89
680.481	3694.36
680.671	3637.02
680.861	3784.48
681.052	3657.5
681.242	3624.73
681.432	3788.57
681.622	3620.64
681.813	3680.03
682.003	3698.46
682.193	3508
682.383	3706.65
682.573	3665.69
682.764	3626.78
682.954	3669.79
683.144	3645.21
683.334	3686.17
683.524	3694.36
683.714	3616.54
683.904	3534.62
684.094	3548.96
684.284	3512.1
684.474	3559.2
684.664	3565.34
684.854	3477.28
685.044	3505.95
685.234	3391.27
685.424	3503.9
685.614	3444.51
685.804	3467.04
685.994	3479.33
686.184	3524.38
686.374	3290.92
686.564	3485.47
686.753	3469.09
686.943	3393.31
687.133	3364.64
687.323	3391.27
687.513	3264.29
687.702	3256.1
687.892	3366.69
688.082	3299.11
688.272	3260.2
688.461	3342.11
688.651	3405.6
688.841	3342.11
689.03	3116.84
689.22	3188.52
689.41	3219.24
689.599	3235.62
689.789	3178.28
689.979	3209
690.168	3125.03
690.358	3139.37
690.547	3108.65
690.737	3168.04
690.926	3073.83
691.116	3108.65
691.305	3100.45
691.495	3170.08
691.684	3090.21
691.874	3047.21
692.063	3153.7
692.252	3059.49
692.442	3024.68
692.631	2973.48
692.82	3133.22
693.01	3026.73
693.199	2938.66
693.388	2821.93
693.578	2944.81
693.767	2942.76
693.956	2965.29
694.146	2889.51
694.335	3006.25
694.524	2924.33
694.713	2914.09
694.902	2905.9
695.092	2973.48
695.281	2979.62
695.47	2893.61
695.659	2991.91
695.848	2803.5
696.037	2799.4
696.226	2793.26
696.415	2789.16
696.604	2871.08
696.793	2832.17
696.982	2830.12
697.171	2826.03
697.36	2834.22
697.549	2858.79
697.738	2670.38
697.927	2819.88
698.116	2907.94
698.305	2797.35
698.494	2670.38
698.683	2756.4
698.872	2803.5
699.061	2830.12
699.25	2723.63
699.438	2725.68
699.627	2697
699.816	2598.7
700.005	2615.09
700.193	2789.16
700.382	2783.02
700.571	2703.15
700.76	2615.09
700.948	2707.24
701.137	2604.85
701.326	2662.19
701.514	2658.09
701.703	2662.19
701.892	2641.71
702.08	2635.57
702.269	2584.37
702.457	2645.8
702.646	2596.65
702.834	2733.87
703.023	2633.52
703.212	2631.47
703.4	2580.27
703.589	2668.33
703.777	2565.93
703.965	2441.01
704.154	2555.69
704.342	2553.65
704.531	2543.41
704.719	2674.48
704.907	2633.52
705.096	2535.21
705.284	2492.21
705.472	2590.51
705.661	2666.28
705.849	2492.21
706.037	2481.97
706.226	2594.61
706.414	2535.21
706.602	2512.69
706.79	2504.5
706.979	2465.58
707.167	2533.17
707.355	2371.38
707.543	2678.57
707.731	2582.32
707.919	2428.72
708.107	2420.53
708.296	2451.25
708.484	2510.64
708.672	2504.5
708.86	2344.75
709.048	2484.02
709.236	2477.87
709.424	2420.53
709.612	2467.63
709.8	2400.05
709.988	2400.05
710.176	2479.92
710.364	2524.97
710.551	2518.83
710.739	2334.51
710.927	2400.05
711.115	2414.38
711.303	2377.52
711.491	2408.24
711.679	2295.6
711.866	2379.57
712.054	2469.68
712.242	2328.37
712.43	2404.14
712.617	2469.68
712.805	2385.71
712.993	2393.9
713.181	2236.21
713.368	2410.29
713.556	2336.56
713.744	2301.75
713.931	2438.96
714.119	2322.23
714.306	2299.7
714.494	2264.88
714.682	2352.95
714.869	2252.59
715.057	2346.8
715.244	2297.65
715.432	2424.62
715.619	2266.93
715.807	2367.28
715.994	2271.03
716.182	2328.37
716.369	2291.51
716.556	2352.95
716.744	2240.31
716.931	2191.16
717.119	2322.23
717.306	2262.83
717.493	2228.02
717.681	2252.59
717.868	2285.36
718.055	2256.69
718.242	2234.16
718.43	2295.6
718.617	2164.53
718.804	2240.31
718.991	2142
719.179	2238.26
719.366	2189.11
719.553	2180.92
719.74	2285.36
719.927	2242.36
720.114	2203.44
720.301	2162.48
720.488	2148.15
720.676	2070.33
720.863	2164.53
721.05	2119.48
721.237	2166.58
721.424	2234.16
721.611	2185.01
721.798	2232.12
721.985	2197.3
722.172	2062.13
722.358	2131.76
722.545	2129.72
722.732	2117.43
722.919	2150.2
723.106	2078.52
723.293	2029.37
723.48	2146.1
723.667	2078.52
723.853	2142
724.04	2191.16
724.227	2144.05
724.414	2051.89
724.6	2107.19
724.787	2103.09
724.974	2092.85
725.161	2047.8
725.347	1937.21
725.534	2189.11
725.72	2035.51
725.907	2033.46
726.094	2066.23
726.28	1945.4
726.467	2029.37
726.653	2025.27
726.84	2103.09
727.027	1982.26
727.213	1976.12
727.4	1959.74
727.586	2051.89
727.773	2109.24
727.959	1908.54
728.145	1945.4
728.332	1929.02
728.518	1935.16
728.705	1951.54
728.891	2133.81
729.077	1951.54
729.264	1935.16
729.45	1982.26
729.636	1943.35
729.823	1867.58
730.009	1951.54
730.195	1941.3
730.382	1939.26
730.568	1941.3
730.754	1931.06
730.94	1933.11
731.126	1920.82
731.313	1969.98
731.499	1883.96
731.685	1943.35
731.871	1832.76
732.057	1896.25
732.243	1945.4
732.429	1914.68
732.615	1883.96
732.801	1875.77
732.987	1847.1
733.173	1980.22
733.359	1890.1
733.545	1883.96
733.731	1840.95
733.917	1832.76
734.103	1838.91
734.289	1908.54
734.475	1845.05
734.661	1894.2
734.847	1812.28
735.033	1838.91
735.219	1824.57
735.404	1804.09
735.59	1824.57
735.776	1785.66
735.962	1886.01
736.148	1871.67
736.333	1787.71
736.519	1883.96
736.705	1761.08
736.89	1769.27
737.076	1691.45
737.262	1765.18
737.447	1802.04
737.633	1863.48
737.819	1802.04
738.004	1748.79
738.19	1783.61
738.375	1713.98
738.561	1730.36
738.747	1746.75
738.932	1734.46
739.118	1851.19
739.303	1843
739.489	1734.46
739.674	1722.17
739.859	1740.6
740.045	1705.79
740.23	1642.3
740.416	1691.45
740.601	1625.92
740.786	1654.59
740.972	1724.22
741.157	1701.69
741.342	1593.15
741.528	1670.97
741.713	1687.36
741.898	1638.2
742.084	1625.92
742.269	1570.62
742.454	1607.48
742.639	1656.64
742.824	1607.48
743.01	1566.53
743.195	1595.2
743.38	1587.01
743.565	1564.48
743.75	1517.37
743.935	1507.13
744.12	1660.73
744.305	1500.99
744.49	1476.41
744.675	1453.89
744.86	1500.99
745.045	1470.27
745.23	1414.98
745.415	1546.05
745.6	1566.53
745.785	1492.8
745.97	1490.75
746.155	1404.74
746.34	1433.41
746.525	1474.37
746.71	1447.74
746.895	1322.82
747.079	1357.63
747.264	1380.16
747.449	1427.26
747.634	1378.11
747.819	1359.68
748.003	1384.26
748.188	1275.71
748.373	1355.58
748.557	1333.06
748.742	1324.87
748.927	1285.95
749.111	1326.91
749.296	1224.51
749.481	1351.49
749.665	1259.33
749.85	1251.14
750.034	1240.9
750.219	1273.67
750.404	1312.58
750.588	1199.94
750.773	1132.36
750.957	1238.85
751.141	1259.33
751.326	1308.48
751.51	1064.77
751.695	1183.56
751.879	1152.84
752.064	1118.02
752.248	1107.78
752.432	1185.6
752.617	1107.78
752.801	1183.56
752.985	1163.08
753.17	1175.36
753.354	1050.44
753.538	1124.16
753.722	1126.21
753.907	1089.35
754.091	1093.44
754.275	1072.96
754.459	1029.96
754.643	1013.57
754.828	1048.39
755.012	1115.97
755.196	1005.38
755.38	1093.44
755.564	956.23
755.748	1038.15
755.932	1042.25
756.116	1015.62
756.3	1005.38
756.484	882.5
756.668	1032.01
756.852	921.42
757.036	948.04
757.22	1044.29
757.404	943.94
757.588	1011.53
757.772	929.61
757.956	941.89
758.14	929.61
758.323	886.6
758.507	933.7
758.691	884.55
758.875	943.94
759.059	929.61
759.242	829.26
759.426	806.73
759.61	855.88
759.794	849.74
759.977	892.74
760.161	993.09
760.345	847.69
760.528	915.27
760.712	886.6
760.895	855.88
761.079	896.84
761.263	814.92
761.446	806.73
761.63	814.92
761.813	765.77
761.997	786.25
762.18	798.54
762.364	859.98
762.547	819.02
762.731	810.82
762.914	708.43
763.098	722.76
763.281	724.81
763.464	800.59
763.648	784.2
763.831	747.34
764.015	708.43
764.198	786.25
764.381	812.87
764.564	696.14
764.748	790.35
764.931	773.96
765.114	718.67
765.297	720.71
765.481	759.63
765.664	730.95
765.847	716.62
766.03	757.58
766.213	675.66
766.397	755.53
766.58	778.06
766.763	661.32
766.946	724.81
767.129	724.81
767.312	675.66
767.495	603.98
767.678	569.16
767.861	739.15
768.044	669.52
768.227	749.39
768.41	663.37
768.593	778.06
768.776	642.89
768.959	606.03
769.142	626.51
769.324	675.66
769.507	640.84
769.69	593.74
769.873	677.71
770.056	655.18
770.239	569.16
770.421	692.04
770.604	728.91
770.787	702.28
770.97	597.84
771.152	530.25
771.335	698.19
771.518	599.88
771.7	630.6
771.883	659.28
772.066	603.98
772.248	702.28
772.431	550.73
772.613	591.69
772.796	550.73
772.978	626.51
773.161	655.18
773.343	530.25
773.526	622.41
773.708	552.78
773.891	468.81
774.073	544.59
774.256	532.3
774.438	595.79
774.621	583.5
774.803	501.58
774.985	485.2
775.168	517.97
775.35	477.01
775.532	491.34
775.715	581.45
775.897	560.97
776.079	491.34
776.261	569.16
776.444	520.01
776.626	413.52
776.808	517.97
776.99	560.97
777.173	419.66
777.355	472.91
777.537	507.73
777.719	470.86
777.901	479.05
778.083	479.05
778.265	417.61
778.447	511.82
778.629	536.4
778.811	419.66
778.993	474.96
779.175	507.73
779.357	470.86
779.539	487.25
779.721	395.09
779.903	513.87
780.085	345.94
780.267	452.43
780.449	366.42
780.631	462.67
780.812	425.81
780.994	350.03
781.176	427.85
781.358	378.7
781.54	485.2
781.721	415.57
781.903	450.38
782.085	341.84
782.267	419.66
782.448	360.27
782.63	421.71
782.812	405.33
782.993	470.86
783.175	393.04
783.357	366.42
783.538	409.42
783.72	407.38
783.901	372.56
784.083	378.7
784.264	343.89
784.446	294.74
784.627	388.94
784.809	327.5
784.99	393.04
785.172	331.6
785.353	307.02
785.535	436.05
785.716	325.46
785.897	317.26
786.079	302.93
786.26	253.78
786.441	339.79
786.623	302.93
786.804	282.45
786.985	292.69
787.167	331.6
787.348	233.3
787.529	313.17
787.71	233.3
787.891	298.83
788.073	288.59
788.254	261.97
788.435	264.02
788.616	309.07
788.797	272.21
788.978	350.03
789.159	302.93
789.34	286.54
789.522	194.39
789.703	268.11
789.884	311.12
790.065	290.64
790.246	331.6
790.427	274.26
790.607	278.35
790.788	259.92
790.969	255.83
791.15	309.07
791.331	225.11
791.512	253.78
791.693	235.35
791.874	243.54
792.054	331.6
792.235	280.4
792.416	216.91
792.597	210.77
792.778	223.06
792.958	278.35
793.139	280.4
793.32	253.78
793.5	243.54
793.681	274.26
793.862	208.72
794.042	266.07
794.223	214.87
794.404	233.3
794.584	208.72
794.765	233.3
794.945	196.43
795.126	264.02
795.306	235.35
795.487	216.91
795.667	218.96
795.848	214.87
796.028	223.06
796.209	253.78
796.389	229.2
796.57	192.34
796.75	141.14
796.93	200.53
797.111	175.95
797.291	155.47
797.471	196.43
797.652	165.71
797.832	231.25
798.012	200.53
798.192	163.67
798.373	223.06
798.553	184.15
798.733	198.48
798.913	175.95
799.093	247.63
799.274	130.9
799.454	143.19
799.634	247.63
799.814	180.05
799.994	175.95
800.174	173.91
800.354	245.59
800.534	157.52
800.714	108.37
800.894	116.56
801.074	132.95
801.254	143.19
801.434	214.87
801.614	206.67
801.794	188.24
801.974	722.76
802.154	159.57
802.334	71.51
802.514	130.9
802.693	173.91
802.873	194.39
803.053	190.29
803.233	188.24
803.413	214.87
803.592	151.38
803.772	114.52
803.952	102.23
804.131	186.19
804.311	155.47
804.491	200.53
804.67	122.71
804.85	83.8
805.03	110.42
805.209	239.44
805.389	135
805.568	155.47
805.748	108.37
805.928	143.19
806.107	147.28
806.287	118.61
806.466	67.41
806.646	178
806.825	106.32
807.004	120.66
807.184	163.67
807.363	128.85
807.543	57.17
807.722	130.9
807.901	167.76
808.081	169.81
808.26	46.93
808.439	118.61
808.619	149.33
808.798	30.55
808.977	104.28
809.156	124.76
809.336	128.85
809.515	171.86
809.694	120.66
809.873	77.65
810.052	130.9
810.231	247.63
810.411	165.71
810.59	225.11
810.769	96.08
810.948	94.04
811.127	83.8
811.306	108.37
811.485	135
811.664	102.23
811.843	91.99
812.022	186.19
812.201	57.17
812.38	143.19
812.559	118.61
812.737	79.7
812.916	120.66
813.095	120.66
813.274	128.85
813.453	151.38
813.632	106.32
813.811	132.95
813.989	85.84
814.168	132.95
814.347	145.24
814.526	159.57
814.704	102.23
814.883	118.61
815.062	122.71
815.24	159.57
815.419	22.36
815.598	85.84
815.776	89.94
815.955	59.22
816.133	55.12
816.312	198.48
816.49	59.22
816.669	145.24
816.847	128.85
817.026	135
817.204	44.88
817.383	98.13
817.561	63.32
817.74	100.18
817.918	118.61
818.097	59.22
818.275	42.84
818.453	89.94
818.632	120.66
818.81	51.03
818.988	42.84
819.167	42.84
819.345	48.98
819.523	77.65
819.701	180.05
819.879	77.65
820.058	85.84
820.236	77.65
820.414	110.42
820.592	51.03
820.77	36.69
820.948	10.07
821.127	100.18
821.305	120.66
821.483	94.04
821.661	77.65
821.839	73.56
822.017	75.6
822.195	38.74
822.373	173.91
822.551	-2.22
822.729	89.94
822.907	81.75
823.085	112.47
823.262	42.84
823.44	26.45
823.618	63.32
823.796	53.08
823.974	-22.7
824.152	83.8
824.329	61.27
824.507	94.04
824.685	118.61
824.863	81.75
825.04	122.71
825.218	114.52
825.396	85.84
825.574	141.14
825.751	61.27
825.929	143.19
826.107	32.6
826.284	-8.36
826.462	102.23
826.639	69.46
826.817	12.12
826.994	-32.94
827.172	1.88
827.349	96.08
827.527	83.8
827.704	98.13
827.882	128.85
828.059	48.98
828.237	71.51
828.414	132.95
828.591	53.08
828.769	48.98
828.946	32.6
829.124	116.56
829.301	94.04
829.478	79.7
829.655	165.71
829.833	67.41
830.01	108.37
830.187	67.41
830.364	112.47
830.542	-0.17
830.719	110.42
830.896	10.07
831.073	65.36
831.25	53.08
831.427	59.22
831.604	120.66
831.782	55.12
831.959	110.42
832.136	-26.79
832.313	3.93
832.49	59.22
832.667	57.17
832.844	135
833.021	73.56
833.198	48.98
833.374	79.7
833.551	79.7
833.728	42.84
833.905	69.46
834.082	42.84
834.259	73.56
834.436	118.61
834.612	-12.46
834.789	79.7
834.966	48.98
835.143	51.03
835.319	8.02
835.496	44.88
835.673	5.97
835.85	61.27
836.026	57.17
836.203	65.36
836.38	57.17
836.556	69.46
836.733	-18.6
836.909	20.31
837.086	59.22
837.262	126.8
837.439	53.08
837.616	26.45
837.792	55.12
837.968	65.36
838.145	3.93
838.321	81.75
838.498	20.31
838.674	38.74
838.851	-20.65
839.027	73.56
839.203	5.97
839.38	48.98
839.556	-24.75
839.732	48.98
839.909	18.26
840.085	91.99
840.261	32.6
840.437	22.36
840.614	89.94
840.79	28.5
840.966	110.42
841.142	48.98
841.318	73.56
841.494	65.36
841.671	12.12
841.847	10.07
842.023	1.88
842.199	116.56
842.375	81.75
842.551	-80.04
842.727	1.88
842.903	89.94
843.079	-45.23
843.255	26.45
843.431	57.17
843.607	73.56
843.783	36.69
843.959	48.98
844.134	32.6
844.31	175.95
844.486	26.45
844.662	26.45
844.838	104.28
845.013	71.51
845.189	30.55
845.365	-22.7
845.541	55.12
845.716	24.4
845.892	18.26
846.068	36.69
846.244	51.03
846.419	10.07
846.595	73.56
846.77	65.36
846.946	94.04
847.122	-41.13
847.297	98.13
847.473	98.13
847.648	8.02
847.824	32.6
847.999	10.07
848.175	42.84
848.35	83.8
848.526	91.99
848.701	8.02
848.876	85.84
849.052	-49.32
849.227	81.75
849.403	-61.61
849.578	20.31
849.753	81.75
849.929	61.27
850.104	38.74
850.279	18.26
850.454	-18.6
850.63	48.98
850.805	32.6
850.98	75.6
851.155	16.21
851.33	46.93
851.505	-45.23
851.681	69.46
851.856	24.4
852.031	3.93
852.206	-32.94
852.381	-12.46
852.556	-24.75
852.731	98.13
852.906	18.26
853.081	3.93
853.256	28.5
853.431	20.31
853.606	36.69
853.781	3.93
853.956	-45.23
854.131	61.27
854.305	-20.65
854.48	20.31
854.655	53.08
854.83	57.17
855.005	24.4
855.18	1.88
855.354	36.69
855.529	26.45
855.704	-20.65
855.879	40.79
856.053	-100.52
856.228	77.65
856.403	42.84
856.577	65.36
856.752	-90.28
856.926	-8.36
857.101	71.51
857.276	-16.55
857.45	65.36
857.625	5.97
857.799	36.69
857.974	30.55
858.148	-16.55
858.323	24.4
858.497	16.21
858.672	55.12
858.846	-41.13
859.02	85.84
859.195	-28.84
859.369	24.4
859.543	24.4
859.718	1.88
859.892	38.74
860.066	16.21
860.241	-8.36
860.415	22.36
860.589	12.12
860.763	40.79
860.938	-37.03
861.112	42.84
861.286	-20.65
861.46	-51.37
861.634	-8.36
861.808	44.88
861.982	-24.75
862.157	-18.6
862.331	-37.03
862.505	-34.99
862.679	-24.75
862.853	32.6
863.027	-14.51
863.201	32.6
863.375	1.88
863.549	53.08
863.722	36.69
863.896	122.71
864.07	-77.99
864.244	42.84
864.418	8.02
864.592	36.69
864.766	-6.31
864.939	32.6
865.113	-28.84
865.287	-37.03
865.461	53.08
865.634	20.31
865.808	8.02
865.982	-90.28
866.156	3.93
866.329	-69.8
866.503	-6.31
866.676	8.02
866.85	57.17
867.024	-0.17
867.197	-20.65
867.371	36.69
867.544	26.45
867.718	65.36
867.891	-39.08
868.065	-8.36
868.238	-0.17
868.412	67.41
868.585	-59.56
868.759	8.02
868.932	-20.65
869.105	-4.27
869.279	12.12
869.452	-59.56
869.625	30.55
869.799	-20.65
869.972	-12.46
870.145	-12.46
870.319	-4.27
870.492	8.02
870.665	18.26
870.838	-30.89
871.011	32.6
871.185	-45.23
871.358	14.17
871.531	3.93
871.704	24.4
871.877	30.55
872.05	-41.13
872.223	20.31
872.396	5.97
872.569	79.7
872.742	-30.89
872.915	40.79
873.088	-49.32
873.261	-24.75
873.434	102.23
873.607	-18.6
873.78	-30.89
873.953	85.84
874.126	-18.6
874.299	1.88
874.471	-4.27
874.644	-4.27
874.817	98.13
874.99	77.65
875.163	-18.6
875.335	24.4
875.508	-28.84
875.681	34.64
875.853	-30.89
876.026	-53.42
876.199	24.4
876.371	-20.65
876.544	-6.31
876.717	53.08
876.889	-32.94
877.062	22.36
877.234	-10.41
877.407	16.21
877.579	32.6
877.752	24.4
877.924	-16.55
878.097	61.27
878.269	-2.22
878.442	1.88
878.614	42.84
878.786	-92.33
878.959	-30.89
879.131	-20.65
879.303	-102.57
879.476	-12.46
879.648	-24.75
879.82	36.69
879.993	-22.7
880.165	-20.65
880.337	8.02
880.509	24.4
880.681	10.07
880.854	53.08
881.026	10.07
881.198	69.46
881.37	44.88
881.542	28.5
881.714	8.02
881.886	102.23
882.058	-28.84
882.23	36.69
882.402	8.02
882.574	18.26
882.746	44.88
882.918	-8.36
883.09	65.36
883.262	-63.66
883.434	36.69
883.606	18.26
883.778	28.5
883.95	26.45
884.122	-24.75
884.293	1.88
884.465	-12.46
884.637	24.4
884.809	-16.55
884.98	1.88
885.152	24.4
885.324	-28.84
885.496	79.7
885.667	-4.27
885.839	-20.65
886.011	38.74
886.182	-41.13
886.354	32.6
886.525	20.31
886.697	16.21
886.869	-2.22
887.04	10.07
887.212	1.88
887.383	26.45
887.555	77.65
887.726	-12.46
887.897	1.88
888.069	24.4
888.24	24.4
888.412	40.79
888.583	53.08
888.754	32.6
888.926	-28.84
889.097	3.93
889.268	-6.31
889.44	-32.94
889.611	26.45
889.782	-51.37
889.953	-47.27
890.125	5.97
890.296	20.31
890.467	-71.85
890.638	-37.03
890.809	-14.51
890.98	-0.17
891.151	-4.27
891.323	-2.22
891.494	-45.23
891.665	-32.94
891.836	-4.27
892.007	-80.04
892.178	26.45
892.349	-28.84
892.52	-20.65
892.691	-24.75
892.862	3.93
893.032	-12.46
893.203	3.93
893.374	-32.94
893.545	10.07
893.716	26.45
893.887	-30.89
894.057	-6.31
894.228	20.31
894.399	24.4
894.57	30.55
894.74	-10.41
894.911	20.31
895.082	16.21
895.253	-0.17
895.423	-20.65
895.594	44.88
895.764	53.08
895.935	-86.19
896.106	-77.99
896.276	-39.08
896.447	-22.7
896.617	-86.19
896.788	-65.71
896.958	24.4
897.129	24.4
897.299	5.97
897.47	42.84
897.64	10.07
897.81	-6.31
897.981	-57.51
898.151	22.36
898.322	59.22
898.492	40.79
898.662	-69.8
898.832	-6.31
899.003	-0.17
899.173	38.74
899.343	8.02
899.513	-51.37
