Data from USB4F104151__103__10-24-44-767.txt Node

Date: Wed Mar 12 10:24:44 EDT 2025
User: louis
Spectrometer: USB4F10415
Trigger mode: 4
Integration Time (sec): 3.000000E-2
Scans to average: 1
Electric dark correction enabled: true
Nonlinearity correction enabled: false
Boxcar width: 0
XAxis mode: Wavelengths
Number of Pixels in Spectrum: 3648
>>>>>Begin Spectral Data<<<<<
178.204	-56.83
178.424	-56.83
178.644	-56.83
178.864	-83.45
179.084	-95.74
179.304	-52.74
179.524	-9.73
179.744	51.71
179.964	55.81
180.184	-89.6
180.404	-15.87
180.624	-9.73
180.844	47.62
181.064	-54.78
181.283	-3.58
181.503	10.75
181.723	70.14
181.943	-58.88
182.163	82.43
182.383	57.86
182.602	8.7
182.822	84.48
183.042	-28.16
183.262	-79.36
183.482	31.23
183.701	-5.63
183.921	33.28
184.141	-83.45
184.361	64
184.58	-24.06
184.8	84.48
185.02	-48.64
185.239	14.85
185.459	135.68
185.679	-85.5
185.898	-15.87
186.118	51.71
186.338	37.38
186.557	6.66
186.777	-24.06
186.997	-26.11
187.216	-9.73
187.436	102.91
187.655	-13.82
187.875	53.76
188.095	57.86
188.314	39.42
188.534	51.71
188.753	-13.82
188.973	14.85
189.192	23.04
189.412	55.81
189.631	14.85
189.851	25.09
190.07	59.9
190.29	12.8
190.509	-13.82
190.729	20.99
190.948	98.81
191.168	162.3
191.387	23.04
191.607	37.38
191.826	2.56
192.045	2.56
192.265	-28.16
192.484	6.66
192.704	14.85
192.923	-34.3
193.142	35.33
193.362	43.52
193.581	23.04
193.8	23.04
194.02	-11.78
194.239	-9.73
194.458	8.7
194.678	31.23
194.897	86.53
195.116	25.09
195.335	0.51
195.555	94.72
195.774	-5.63
195.993	43.52
196.212	37.38
196.432	-38.4
196.651	88.57
196.87	18.94
197.089	70.14
197.308	-42.5
197.528	16.9
197.747	-15.87
197.966	23.04
198.185	111.1
198.404	53.76
198.623	-3.58
198.842	88.57
199.062	78.33
199.281	14.85
199.5	-22.02
199.719	2.56
199.938	-56.83
200.157	59.9
200.376	-5.63
200.595	-15.87
200.814	-5.63
201.033	-42.5
201.252	37.38
201.471	41.47
201.69	37.38
201.909	80.38
202.128	-48.64
202.347	109.05
202.566	14.85
202.785	-24.06
203.004	51.71
203.223	82.43
203.442	-17.92
203.661	-15.87
203.879	18.94
204.098	49.66
204.317	41.47
204.536	4.61
204.755	59.9
204.974	20.99
205.193	-22.02
205.411	55.81
205.63	33.28
205.849	33.28
206.068	102.91
206.287	-13.82
206.505	55.81
206.724	0.51
206.943	33.28
207.162	25.09
207.381	-11.78
207.599	16.9
207.818	14.85
208.037	33.28
208.255	45.57
208.474	12.8
208.693	64
208.911	76.29
209.13	35.33
209.349	72.19
209.567	49.66
209.786	8.7
210.005	14.85
210.223	39.42
210.442	-15.87
210.661	88.57
210.879	14.85
211.098	29.18
211.316	61.95
211.535	100.86
211.753	-28.16
211.972	59.9
212.191	35.33
212.409	33.28
212.628	-3.58
212.846	43.52
213.065	47.62
213.283	72.19
213.502	-42.5
213.72	37.38
213.938	39.42
214.157	8.7
214.375	41.47
214.594	27.14
214.812	-1.54
215.031	27.14
215.249	33.28
215.467	43.52
215.686	39.42
215.904	94.72
216.122	43.52
216.341	51.71
216.559	16.9
216.778	51.71
216.996	35.33
217.214	107.01
217.432	10.75
217.651	76.29
217.869	59.9
218.087	-38.4
218.306	-17.92
218.524	37.38
218.742	-24.06
218.96	6.66
219.179	-19.97
219.397	64
219.615	74.24
219.833	41.47
220.051	-32.26
220.27	45.57
220.488	29.18
220.706	35.33
220.924	-19.97
221.142	37.38
221.36	96.77
221.578	72.19
221.796	31.23
222.015	-81.41
222.233	33.28
222.451	59.9
222.669	43.52
222.887	-19.97
223.105	-26.11
223.323	29.18
223.541	51.71
223.759	23.04
223.977	12.8
224.195	68.09
224.413	94.72
224.631	33.28
224.849	31.23
225.067	-3.58
225.285	10.75
225.503	14.85
225.721	31.23
225.939	12.8
226.157	14.85
226.375	86.53
226.592	16.9
226.81	-24.06
227.028	70.14
227.246	37.38
227.464	-40.45
227.682	-38.4
227.9	121.34
228.117	2.56
228.335	-9.73
228.553	-60.93
228.771	47.62
228.989	88.57
229.206	64
229.424	43.52
229.642	-38.4
229.86	14.85
230.077	109.05
230.295	-71.17
230.513	141.82
230.731	16.9
230.948	88.57
231.166	70.14
231.384	-7.68
231.601	-5.63
231.819	76.29
232.037	39.42
232.254	-44.54
232.472	31.23
232.689	39.42
232.907	43.52
233.125	-11.78
233.342	-5.63
233.56	43.52
233.777	-9.73
233.995	66.05
234.213	55.81
234.43	-40.45
234.648	-19.97
234.865	10.75
235.083	4.61
235.3	25.09
235.518	27.14
235.735	55.81
235.953	88.57
236.17	82.43
236.388	25.09
236.605	78.33
236.822	-5.63
237.04	90.62
237.257	88.57
237.475	35.33
237.692	-11.78
237.909	0.51
238.127	-11.78
238.344	18.94
238.562	57.86
238.779	-71.17
238.996	-67.07
239.214	37.38
239.431	76.29
239.648	12.8
239.865	27.14
240.083	47.62
240.3	-40.45
240.517	-30.21
240.735	61.95
240.952	68.09
241.169	64
241.386	-5.63
241.603	-30.21
241.821	-103.93
242.038	59.9
242.255	-7.68
242.472	94.72
242.689	68.09
242.907	2.56
243.124	-17.92
243.341	8.7
243.558	-24.06
243.775	-44.54
243.992	66.05
244.209	10.75
244.426	59.9
244.643	27.14
244.86	-22.02
245.078	64
245.295	82.43
245.512	-9.73
245.729	43.52
245.946	39.42
246.163	-7.68
246.38	96.77
246.597	12.8
246.814	72.19
247.031	8.7
247.248	10.75
247.464	0.51
247.681	-22.02
247.898	39.42
248.115	37.38
248.332	51.71
248.549	31.23
248.766	74.24
248.983	31.23
249.2	0.51
249.417	43.52
249.633	76.29
249.85	4.61
250.067	25.09
250.284	41.47
250.501	18.94
250.717	10.75
250.934	-11.78
251.151	8.7
251.368	0.51
251.585	88.57
251.801	10.75
252.018	-38.4
252.235	68.09
252.451	-52.74
252.668	-26.11
252.885	47.62
253.102	25.09
253.318	23.04
253.535	37.38
253.752	6.66
253.968	-13.82
254.185	12.8
254.401	-67.07
254.618	4.61
254.835	14.85
255.051	27.14
255.268	43.52
255.484	27.14
255.701	6.66
255.917	29.18
256.134	-22.02
256.351	39.42
256.567	23.04
256.784	29.18
257	45.57
257.217	0.51
257.433	55.81
257.65	10.75
257.866	84.48
258.082	10.75
258.299	14.85
258.515	16.9
258.732	31.23
258.948	18.94
259.165	-26.11
259.381	18.94
259.597	-7.68
259.814	33.28
260.03	14.85
260.246	64
260.463	59.9
260.679	39.42
260.895	57.86
261.112	43.52
261.328	-50.69
261.544	-11.78
261.761	47.62
261.977	51.71
262.193	14.85
262.409	39.42
262.626	31.23
262.842	39.42
263.058	-7.68
263.274	80.38
263.49	29.18
263.707	94.72
263.923	-5.63
264.139	10.75
264.355	35.33
264.571	51.71
264.787	6.66
265.004	25.09
265.22	35.33
265.436	10.75
265.652	-42.5
265.868	35.33
266.084	-26.11
266.3	25.09
266.516	-28.16
266.732	102.91
266.948	20.99
267.164	33.28
267.38	66.05
267.596	31.23
267.812	80.38
268.028	16.9
268.244	61.95
268.46	29.18
268.676	-5.63
268.892	41.47
269.108	59.9
269.324	39.42
269.54	23.04
269.756	61.95
269.972	8.7
270.188	51.71
270.403	-52.74
270.619	-17.92
270.835	-26.11
271.051	10.75
271.267	6.66
271.483	-5.63
271.698	12.8
271.914	6.66
272.13	59.9
272.346	6.66
272.562	-1.54
272.777	88.57
272.993	-32.26
273.209	8.7
273.425	66.05
273.64	45.57
273.856	43.52
274.072	4.61
274.287	51.71
274.503	57.86
274.719	41.47
274.934	72.19
275.15	-28.16
275.366	27.14
275.581	-87.55
275.797	43.52
276.012	43.52
276.228	12.8
276.444	25.09
276.659	104.96
276.875	14.85
277.09	-44.54
277.306	10.75
277.521	29.18
277.737	-26.11
277.952	-1.54
278.168	-9.73
278.383	-7.68
278.599	0.51
278.814	31.23
279.03	-28.16
279.245	55.81
279.461	-1.54
279.676	18.94
279.892	-19.97
280.107	-22.02
280.322	31.23
280.538	92.67
280.753	-42.5
280.969	90.62
281.184	-24.06
281.399	-5.63
281.615	66.05
281.83	107.01
282.045	8.7
282.26	-52.74
282.476	12.8
282.691	27.14
282.906	-5.63
283.122	-1.54
283.337	14.85
283.552	84.48
283.767	0.51
283.983	35.33
284.198	-22.02
284.413	111.1
284.628	18.94
284.843	41.47
285.058	-1.54
285.274	51.71
285.489	-3.58
285.704	68.09
285.919	-36.35
286.134	8.7
286.349	55.81
286.564	27.14
286.779	121.34
286.995	-19.97
287.21	-44.54
287.425	6.66
287.64	51.71
287.855	-22.02
288.07	10.75
288.285	53.76
288.5	121.34
288.715	53.76
288.93	55.81
289.145	16.9
289.36	59.9
289.575	0.51
289.79	53.76
290.004	-40.45
290.219	141.82
290.434	31.23
290.649	-22.02
290.864	72.19
291.079	39.42
291.294	39.42
291.509	6.66
291.724	-3.58
291.938	59.9
292.153	33.28
292.368	18.94
292.583	35.33
292.798	68.09
293.012	55.81
293.227	-15.87
293.442	10.75
293.657	39.42
293.871	39.42
294.086	45.57
294.301	94.72
294.516	76.29
294.73	39.42
294.945	45.57
295.16	96.77
295.374	31.23
295.589	55.81
295.804	29.18
296.018	35.33
296.233	55.81
296.447	96.77
296.662	-9.73
296.877	84.48
297.091	59.9
297.306	-1.54
297.52	-13.82
297.735	-42.5
297.949	-5.63
298.164	37.38
298.378	76.29
298.593	-15.87
298.807	-26.11
299.022	27.14
299.236	84.48
299.451	55.81
299.665	-17.92
299.88	107.01
300.094	-11.78
300.309	20.99
300.523	18.94
300.737	-5.63
300.952	51.71
301.166	37.38
301.381	-22.02
301.595	12.8
301.809	74.24
302.024	10.75
302.238	18.94
302.452	88.57
302.667	-114.17
302.881	72.19
303.095	25.09
303.309	14.85
303.524	51.71
303.738	8.7
303.952	80.38
304.166	59.9
304.381	-28.16
304.595	16.9
304.809	-101.89
305.023	39.42
305.237	-40.45
305.452	0.51
305.666	33.28
305.88	59.9
306.094	10.75
306.308	37.38
306.522	94.72
306.736	74.24
306.95	68.09
307.164	23.04
307.379	-5.63
307.593	72.19
307.807	113.15
308.021	23.04
308.235	35.33
308.449	43.52
308.663	66.05
308.877	150.01
309.091	43.52
309.305	74.24
309.519	-19.97
309.733	2.56
309.947	18.94
310.161	-32.26
310.374	82.43
310.588	86.53
310.802	10.75
311.016	-3.58
311.23	29.18
311.444	86.53
311.658	25.09
311.872	25.09
312.085	53.76
312.299	14.85
312.513	51.71
312.727	-48.64
312.941	-17.92
313.154	-3.58
313.368	-7.68
313.582	72.19
313.796	-9.73
314.009	12.8
314.223	-28.16
314.437	70.14
314.651	-7.68
314.864	72.19
315.078	31.23
315.292	8.7
315.505	27.14
315.719	29.18
315.933	20.99
316.146	8.7
316.36	25.09
316.573	51.71
316.787	-15.87
317.001	-13.82
317.214	-60.93
317.428	0.51
317.641	-13.82
317.855	45.57
318.068	27.14
318.282	45.57
318.495	150.01
318.709	23.04
318.922	-60.93
319.136	20.99
319.349	123.39
319.563	-15.87
319.776	57.86
319.99	35.33
320.203	72.19
320.417	8.7
320.63	10.75
320.843	80.38
321.057	47.62
321.27	25.09
321.483	86.53
321.697	57.86
321.91	-1.54
322.124	80.38
322.337	2.56
322.55	43.52
322.763	66.05
322.977	113.15
323.19	33.28
323.403	35.33
323.617	78.33
323.83	125.44
324.043	23.04
324.256	-40.45
324.469	47.62
324.683	23.04
324.896	-30.21
325.109	6.66
325.322	31.23
325.535	64
325.748	-3.58
325.962	33.28
326.175	70.14
326.388	88.57
326.601	0.51
326.814	-42.5
327.027	2.56
327.24	100.86
327.453	-3.58
327.666	88.57
327.879	90.62
328.092	59.9
328.305	37.38
328.518	61.95
328.731	-5.63
328.944	45.57
329.157	-46.59
329.37	20.99
329.583	47.62
329.796	53.76
330.009	8.7
330.222	119.29
330.435	-38.4
330.648	115.2
330.861	51.71
331.073	0.51
331.286	29.18
331.499	47.62
331.712	39.42
331.925	27.14
332.138	4.61
332.35	41.47
332.563	94.72
332.776	16.9
332.989	29.18
333.202	64
333.414	-36.35
333.627	51.71
333.84	-9.73
334.053	41.47
334.265	59.9
334.478	2.56
334.691	74.24
334.903	6.66
335.116	61.95
335.329	-87.55
335.541	70.14
335.754	49.66
335.966	10.75
336.179	96.77
336.392	76.29
336.604	-7.68
336.817	31.23
337.029	90.62
337.242	-1.54
337.454	29.18
337.667	-40.45
337.88	84.48
338.092	8.7
338.305	-7.68
338.517	31.23
338.729	-50.69
338.942	2.56
339.154	16.9
339.367	0.51
339.579	53.76
339.792	76.29
340.004	20.99
340.217	-79.36
340.429	18.94
340.641	2.56
340.854	45.57
341.066	-36.35
341.278	20.99
341.491	125.44
341.703	72.19
341.915	20.99
342.128	96.77
342.34	-3.58
342.552	76.29
342.764	18.94
342.977	-38.4
343.189	119.29
343.401	66.05
343.613	2.56
343.826	45.57
344.038	2.56
344.25	72.19
344.462	59.9
344.674	100.86
344.886	-7.68
345.099	23.04
345.311	4.61
345.523	2.56
345.735	39.42
345.947	16.9
346.159	59.9
346.371	27.14
346.583	49.66
346.795	43.52
347.007	8.7
347.219	35.33
347.431	-38.4
347.643	84.48
347.855	31.23
348.067	8.7
348.279	-9.73
348.491	18.94
348.703	98.81
348.915	74.24
349.127	31.23
349.339	82.43
349.551	82.43
349.763	64
349.975	37.38
350.187	123.39
350.399	68.09
350.61	47.62
350.822	14.85
351.034	76.29
351.246	66.05
351.458	6.66
351.669	64
351.881	-13.82
352.093	59.9
352.305	39.42
352.517	84.48
352.728	64
352.94	39.42
353.152	10.75
353.363	0.51
353.575	33.28
353.787	70.14
353.999	37.38
354.21	80.38
354.422	-15.87
354.633	47.62
354.845	76.29
355.057	84.48
355.268	-62.98
355.48	39.42
355.692	18.94
355.903	70.14
356.115	31.23
356.326	23.04
356.538	92.67
356.749	66.05
356.961	119.29
357.172	-24.06
357.384	23.04
357.595	178.69
357.807	55.81
358.018	14.85
358.23	-38.4
358.441	125.44
358.653	37.38
358.864	-24.06
359.075	14.85
359.287	57.86
359.498	25.09
359.709	18.94
359.921	6.66
360.132	90.62
360.344	47.62
360.555	51.71
360.766	35.33
360.977	104.96
361.189	80.38
361.4	10.75
361.611	107.01
361.823	31.23
362.034	20.99
362.245	18.94
362.456	76.29
362.667	-1.54
362.879	-1.54
363.09	43.52
363.301	102.91
363.512	20.99
363.723	29.18
363.935	41.47
364.146	49.66
364.357	90.62
364.568	84.48
364.779	4.61
364.99	64
365.201	68.09
365.412	78.33
365.623	41.47
365.834	51.71
366.045	27.14
366.256	49.66
366.467	2.56
366.678	37.38
366.889	-5.63
367.1	49.66
367.311	92.67
367.522	80.38
367.733	59.9
367.944	107.01
368.155	27.14
368.366	64
368.577	61.95
368.788	35.33
368.999	-34.3
369.209	10.75
369.42	113.15
369.631	68.09
369.842	53.76
370.053	-34.3
370.264	49.66
370.474	37.38
370.685	23.04
370.896	57.86
371.107	123.39
371.317	31.23
371.528	-26.11
371.739	100.86
371.95	51.71
372.16	-54.78
372.371	25.09
372.582	61.95
372.792	25.09
373.003	88.57
373.214	47.62
373.424	16.9
373.635	-30.21
373.846	66.05
374.056	68.09
374.267	33.28
374.477	109.05
374.688	51.71
374.898	-46.59
375.109	53.76
375.319	29.18
375.53	0.51
375.74	-9.73
375.951	29.18
376.161	12.8
376.372	80.38
376.582	55.81
376.793	20.99
377.003	12.8
377.214	51.71
377.424	8.7
377.635	43.52
377.845	57.86
378.055	70.14
378.266	76.29
378.476	16.9
378.686	20.99
378.897	78.33
379.107	76.29
379.317	57.86
379.528	39.42
379.738	25.09
379.948	-24.06
380.158	104.96
380.369	25.09
380.579	43.52
380.789	115.2
380.999	10.75
381.21	2.56
381.42	43.52
381.63	23.04
381.84	107.01
382.05	57.86
382.261	100.86
382.471	68.09
382.681	47.62
382.891	41.47
383.101	16.9
383.311	-17.92
383.521	35.33
383.731	-34.3
383.941	92.67
384.151	43.52
384.361	64
384.571	68.09
384.781	51.71
384.991	80.38
385.201	68.09
385.411	121.34
385.621	111.1
385.831	96.77
386.041	61.95
386.251	51.71
386.461	111.1
386.671	27.14
386.881	20.99
387.091	76.29
387.301	49.66
387.511	76.29
387.72	6.66
387.93	104.96
388.14	8.7
388.35	84.48
388.56	27.14
388.769	68.09
388.979	109.05
389.189	100.86
389.399	18.94
389.609	51.71
389.818	109.05
390.028	61.95
390.238	88.57
390.447	59.9
390.657	162.3
390.867	16.9
391.076	70.14
391.286	76.29
391.496	6.66
391.705	66.05
391.915	8.7
392.125	27.14
392.334	82.43
392.544	100.86
392.753	117.25
392.963	31.23
393.172	80.38
393.382	39.42
393.591	55.81
393.801	35.33
394.01	18.94
394.22	47.62
394.429	68.09
394.639	51.71
394.848	96.77
395.058	39.42
395.267	86.53
395.477	51.71
395.686	92.67
395.895	133.63
396.105	170.49
396.314	66.05
396.524	98.81
396.733	137.73
396.942	86.53
397.152	102.91
397.361	12.8
397.57	102.91
397.78	111.1
397.989	154.11
398.198	150.01
398.407	76.29
398.617	49.66
398.826	64
399.035	45.57
399.244	98.81
399.453	92.67
399.663	74.24
399.872	135.68
400.081	121.34
400.29	80.38
400.499	102.91
400.708	72.19
400.917	68.09
401.127	100.86
401.336	100.86
401.545	195.07
401.754	78.33
401.963	166.4
402.172	86.53
402.381	88.57
402.59	113.15
402.799	133.63
403.008	123.39
403.217	147.97
403.426	74.24
403.635	61.95
403.844	109.05
404.053	195.07
404.262	98.81
404.471	238.08
404.68	109.05
404.888	176.64
405.097	154.11
405.306	109.05
405.515	229.88
405.724	64
405.933	127.49
406.142	102.91
406.35	180.73
406.559	166.4
406.768	190.97
406.977	223.74
407.185	51.71
407.394	137.73
407.603	78.33
407.812	242.17
408.02	240.12
408.229	221.69
408.438	158.21
408.646	129.53
408.855	98.81
409.064	193.02
409.272	111.1
409.481	309.76
409.69	307.71
409.898	272.89
410.107	285.18
410.315	299.52
410.524	276.99
410.733	328.19
410.941	330.23
411.15	350.71
411.358	330.23
411.567	293.37
411.775	360.95
411.984	418.3
412.192	344.57
412.401	395.77
412.609	451.07
412.818	410.11
413.026	391.67
413.234	416.25
413.443	403.96
413.651	395.77
413.86	469.5
414.068	522.74
414.276	588.28
414.485	526.84
414.693	600.57
414.901	598.52
415.11	563.7
415.318	590.33
415.526	557.56
415.734	723.44
415.943	700.92
416.151	707.06
416.359	649.72
416.567	692.73
416.776	762.36
416.984	895.47
417.192	793.08
417.4	874.99
417.608	791.03
417.817	936.43
418.025	924.15
418.233	1024.5
418.441	1008.11
418.649	1042.93
418.857	1092.08
419.065	1085.94
419.273	1053.17
419.481	1247.72
419.689	1278.44
419.897	1296.88
420.105	1317.36
420.313	1368.56
420.521	1425.9
420.729	1438.19
420.937	1444.33
421.145	1518.06
421.353	1602.02
421.561	1702.37
421.769	1724.9
421.977	1769.96
422.185	1851.88
422.393	1956.32
422.601	1962.47
422.809	2058.72
423.017	2128.35
423.224	2077.15
423.432	2195.93
423.64	2281.95
423.848	2384.35
424.056	2316.76
424.263	2482.65
424.471	2556.38
424.679	2580.95
424.887	2757.08
425.094	2857.43
425.302	2828.76
425.51	2892.24
425.718	3062.23
425.925	3045.84
426.133	3178.96
426.341	3307.98
426.548	3453.39
426.756	3590.6
426.964	3451.34
427.171	3645.9
427.379	3785.16
427.586	3899.84
427.794	4073.92
428.001	4069.83
428.209	4415.93
428.417	4334.01
428.624	4483.52
428.832	4581.82
429.039	4465.08
429.247	4587.96
429.454	4983.22
429.662	5398.96
429.869	4927.92
430.076	5220.78
430.284	5106.1
430.491	5331.37
430.699	5642.67
430.906	5736.87
431.114	5783.98
431.321	6007.2
431.528	5941.67
431.736	6599.07
431.943	6922.65
432.15	6465.95
432.358	6717.85
432.565	7061.91
432.772	6969.75
432.979	7219.6
433.187	7485.84
433.394	7510.41
433.601	8018.31
433.808	8018.31
434.016	8022.41
434.223	8292.74
434.43	8853.88
434.637	8399.23
434.844	9212.28
435.052	9156.98
435.259	9337.2
435.466	9415.02
435.673	9206.13
435.88	9980.26
436.087	10281.32
436.294	10352.99
436.501	9957.74
436.708	10344.8
436.915	10789.21
437.122	11155.8
437.329	11213.14
437.537	11526.48
437.743	11794.76
437.95	11749.71
438.157	12161.35
438.364	12527.94
438.571	12659.01
438.778	12724.54
438.985	13705.52
439.192	13605.17
439.399	13656.37
439.606	13308.21
439.813	14127.4
440.02	14936.35
440.227	14924.06
440.433	14541.09
440.64	15100.19
440.847	14926.11
441.054	15466.77
441.261	16234.76
441.467	15968.52
441.674	16345.35
441.881	16904.45
442.088	16740.61
442.294	16926.97
442.501	17412.34
442.708	17621.24
442.914	18370.79
443.121	18956.51
443.328	18346.22
443.534	19816.66
443.741	19142.88
443.948	18888.93
444.154	20148.43
444.361	20252.87
444.568	20224.2
444.774	20316.36
444.981	20555.97
445.187	21330.11
445.394	22137.01
445.6	21766.32
445.807	23871.64
446.013	23003.3
446.22	23285.92
446.426	24328.33
446.633	24576.14
446.839	25100.42
447.046	24148.11
447.252	25464.96
447.459	25679.99
447.665	25114.75
447.871	26554.47
448.078	27160.67
448.284	26185.84
448.491	27127.91
448.697	27943
448.903	28373.07
449.11	28530.76
449.316	28061.78
449.522	28454.99
449.728	29528.13
449.935	29618.24
450.141	29511.74
450.347	30040.12
450.553	28883.02
450.76	29433.92
450.966	30427.18
451.172	29882.42
451.378	30552.11
451.584	30150.71
451.791	30681.13
451.997	30863.4
452.203	31029.29
452.409	31064.1
452.615	31354.91
452.821	29626.43
453.027	29882.42
453.233	31203.36
453.44	29753.4
453.646	30351.41
453.852	30228.53
454.058	30429.23
454.264	29671.48
454.47	30576.69
454.676	29376.58
454.882	30285.87
455.088	28024.92
455.294	28330.06
455.5	28731.47
455.705	28819.53
455.911	27893.85
456.117	27054.18
456.323	26697.83
456.529	25241.73
456.735	26820.71
456.941	25755.77
457.147	25360.51
457.352	24469.64
457.558	24180.88
457.764	24279.18
457.97	23820.44
458.176	23341.21
458.381	23249.05
458.587	22196.4
458.793	22247.6
458.999	20975.81
459.204	22698.15
459.41	21694.64
459.616	20437.19
459.821	20766.92
460.027	20580.55
460.233	20213.96
460.438	19251.42
460.644	19343.58
460.85	18321.64
461.055	18024.68
461.261	18378.98
461.466	16804.1
461.672	16371.97
461.878	17492.21
462.083	16392.45
462.289	16089.35
462.494	15972.62
462.7	15014.17
462.905	14428.45
463.111	15149.34
463.316	15221.02
463.522	15020.31
463.727	14987.55
463.932	14874.91
464.138	15022.36
464.343	14620.96
464.549	14387.49
464.754	14962.97
464.959	14956.83
465.165	14580
465.37	14192.94
465.575	13447.47
465.781	14336.29
465.986	14057.77
466.191	13832.49
466.397	13504.82
466.602	13037.88
466.807	13388.08
467.012	13328.69
467.218	13379.89
467.423	12982.59
467.628	13203.77
467.833	13662.51
468.038	13300.02
468.244	13011.26
468.449	13478.19
468.654	12998.97
468.859	12880.19
469.064	12648.77
469.269	12310.85
469.474	12357.96
469.679	12616
469.885	12296.52
470.09	12454.21
470.295	12245.32
470.5	12112.2
470.705	11891.02
470.91	11850.06
471.115	11729.23
471.32	11800.91
471.525	11733.32
471.73	11532.62
471.935	11460.95
472.139	11039.06
472.344	11014.49
472.549	11282.77
472.754	10998.1
472.959	10602.85
473.164	10357.09
473.369	10453.34
473.574	10899.8
473.778	10670.43
473.983	10764.64
474.188	10631.52
474.393	10178.92
474.598	9910.63
474.802	9869.67
475.007	9888.11
475.212	9982.31
475.417	9732.46
475.621	9585.01
475.826	9769.32
476.031	9421.17
476.235	9320.82
476.44	9576.81
476.645	9230.71
476.849	9314.67
477.054	9109.88
477.259	8952.18
477.463	9154.93
477.668	8704.38
477.872	8843.64
478.077	8661.37
478.282	8513.92
478.486	8415.62
478.691	8409.47
478.895	8388.99
479.1	8472.96
479.304	8589.69
479.509	8300.93
479.713	8165.76
479.918	8003.97
480.122	7997.83
480.326	7999.88
480.531	8165.76
480.735	7881.1
480.94	8104.32
481.144	8102.28
481.348	7872.9
481.553	7817.61
481.757	7797.13
481.961	7825.8
482.166	7936.39
482.37	7899.53
482.574	7709.07
482.778	7666.06
482.983	7874.95
483.187	7850.38
483.391	7920.01
483.595	7952.77
483.8	7756.17
484.004	7831.94
484.208	7848.33
484.412	7889.29
484.616	7842.18
484.821	7786.89
485.025	7698.83
485.229	7702.92
485.433	7674.25
485.637	7836.04
485.841	7692.68
486.045	7715.21
486.249	7604.62
486.453	7711.11
486.657	7707.02
486.861	7758.22
487.065	7555.47
487.269	7653.77
487.473	7678.35
487.677	7883.14
487.881	7782.79
488.085	7864.71
488.289	7938.44
488.493	7788.94
488.697	7793.03
488.901	7854.47
489.105	7801.22
489.309	7838.09
489.512	7979.4
489.716	7850.38
489.92	7965.06
490.124	7754.12
490.328	7989.64
490.531	7889.29
490.735	7969.16
490.939	7924.1
491.143	7936.39
491.346	7936.39
491.55	8388.99
491.754	8106.37
491.958	8188.29
492.161	8034.69
492.365	8067.46
492.569	8221.06
492.772	8321.41
492.976	8337.79
493.18	8309.12
493.383	8470.91
493.587	8569.21
493.79	8628.6
493.994	8403.33
494.197	8636.8
494.401	8743.29
494.605	8620.41
494.808	8712.57
495.012	8993.14
495.215	8907.13
495.419	8866.17
495.622	9052.53
495.825	9120.12
496.029	9150.84
496.232	9253.23
496.436	9310.58
496.639	9648.49
496.843	9531.76
497.046	9634.16
497.249	9722.22
497.453	9652.59
497.656	9994.6
497.859	9949.54
498.063	10023.27
498.266	10406.24
498.469	10045.8
498.673	10234.21
498.876	10520.93
499.079	10565.98
499.282	10649.95
499.485	10975.58
499.689	10873.18
499.892	10983.77
500.095	11077.97
500.298	11436.37
500.501	11227.48
500.705	11497.81
500.908	11553.1
501.111	11807.05
501.314	11737.42
501.517	12054.86
501.72	12118.34
501.923	12161.35
502.126	12433.73
502.329	12646.72
502.532	12456.26
502.735	12790.08
502.938	12980.54
503.141	13099.32
503.344	13175.09
503.547	13197.62
503.75	13447.47
503.953	13881.64
504.156	13682.99
504.359	13852.97
504.562	14074.15
504.765	14401.83
504.968	14274.85
505.17	14641.44
505.373	14616.86
505.576	14829.85
505.779	15091.99
505.982	14829.85
506.185	15358.23
506.387	15583.51
506.59	15548.69
506.793	15939.85
506.996	16001.29
507.198	16353.54
507.401	16431.37
507.604	16679.17
507.807	16701.7
508.009	16802.05
508.212	17197.31
508.415	17166.59
508.617	17332.47
508.82	17606.9
509.022	17404.15
509.225	17877.23
509.428	18092.27
509.63	18303.21
509.833	18438.37
510.035	18946.27
510.238	18618.6
510.44	19026.14
510.643	19237.08
510.845	19351.77
511.048	19409.11
511.25	19894.48
511.453	19861.71
511.655	20437.19
511.858	20201.68
512.06	20635.85
512.262	21031.1
512.465	20654.28
512.667	21297.34
512.87	21000.38
513.072	21659.83
513.274	21737.65
513.477	22057.14
513.679	22081.71
513.881	22343.85
514.084	22704.29
514.286	22894.75
514.488	22759.59
514.69	23672.98
514.893	23257.25
515.095	23736.47
515.297	23703.7
515.499	24230.03
515.701	24154.26
515.904	24782.98
516.106	24615.05
516.308	25229.44
516.51	25292.93
516.712	25196.67
516.914	25622.65
517.116	26079.35
517.318	26138.74
517.52	26087.54
517.722	26306.67
517.925	26974.31
518.127	27177.06
518.329	27359.33
518.531	27357.28
518.733	27826.26
518.935	28121.17
519.136	27990.1
519.338	28426.32
519.54	28201.04
519.742	28885.06
519.944	29294.66
520.146	29687.87
520.348	29886.52
520.55	29823.03
520.752	29755.45
520.954	30685.23
521.155	30169.14
521.357	30701.61
521.559	31168.55
521.761	31741.98
521.963	31387.68
522.164	31860.76
522.366	32094.23
522.568	31905.82
522.77	32256.02
522.971	33306.63
523.173	32399.38
523.375	32981
523.576	33351.68
523.778	33021.96
523.98	33603.58
524.181	33667.07
524.383	33675.26
524.584	34631.66
524.786	34033.66
524.988	34295.8
525.189	34691.05
525.391	35067.88
525.592	35020.78
525.794	35194.85
525.995	35618.78
526.197	35018.73
526.398	35811.29
526.6	35923.93
526.801	36253.65
527.003	36116.44
527.204	36122.58
527.406	36208.6
527.607	36800.46
527.808	36796.37
528.01	36255.7
528.211	37085.13
528.412	37572.55
528.614	37367.75
528.815	37253.06
529.016	38223.8
529.218	37222.34
529.419	37963.71
529.62	37871.55
529.822	37760.96
530.023	37935.04
530.224	37742.53
530.425	38231.99
530.626	38399.93
530.828	37955.52
531.029	38977.45
531.23	38236.09
531.431	38469.56
531.632	38973.36
531.833	38760.37
532.035	38426.55
532.236	38858.67
532.437	38817.71
532.638	38664.11
532.839	38897.58
533.04	39221.16
533.241	38913.97
533.442	39471.01
533.643	39190.44
533.844	39251.88
534.045	39190.44
534.246	38678.45
534.447	39282.6
534.648	39124.91
534.849	38815.66
535.05	39198.63
535.251	39501.73
535.451	39075.76
535.652	39524.26
535.853	39352.23
536.054	39464.87
536.255	39493.54
536.456	39718.82
536.657	39784.35
536.857	39548.84
537.058	39227.31
537.259	39675.81
537.46	39442.34
537.66	39442.34
537.861	39554.98
538.062	39770.02
538.263	39870.37
538.463	39511.97
538.664	39176.11
538.865	39393.19
539.065	40079.26
539.266	39169.96
539.466	39915.42
539.667	39282.6
539.868	39917.47
540.068	39495.59
540.269	39514.02
540.469	39952.29
540.67	39692.19
540.87	39466.92
541.071	39577.51
541.271	39688.1
541.472	39501.73
541.672	39428.01
541.873	39260.07
542.073	39393.19
542.274	39743.39
542.474	39602.08
542.675	39210.92
542.875	39636.9
543.075	39116.72
543.276	39157.67
543.476	39823.26
543.676	38936.49
543.877	39628.71
544.077	39569.32
544.277	39718.82
544.478	39663.52
544.678	39575.46
544.878	39219.11
545.078	39366.57
545.279	39081.9
545.479	39370.66
545.679	39442.34
545.879	39554.98
546.079	39255.98
546.28	39577.51
546.48	39235.5
546.68	39260.07
546.88	39391.14
547.08	39559.08
547.28	39122.86
547.48	39081.9
547.68	39325.61
547.88	39159.72
548.081	39329.7
548.281	39182.25
548.481	38870.96
548.681	39317.42
548.881	39108.52
549.081	39204.78
549.28	38868.91
549.48	39319.46
549.68	39145.39
549.88	39737.25
550.08	39237.55
550.28	39165.87
550.48	39258.02
550.68	39374.76
550.88	38830
551.08	39129
551.279	39024.56
551.479	39096.24
551.679	39190.44
551.879	39325.61
552.079	39237.55
552.278	38825.9
552.478	39133.1
552.678	38686.64
552.878	39329.7
553.077	38778.8
553.277	38956.97
553.477	39083.95
553.676	38315.96
553.876	39069.61
554.076	38739.89
554.275	38877.1
554.475	38328.25
554.674	38567.86
554.874	38518.71
555.074	38285.24
555.273	38887.34
555.473	38563.76
555.672	38258.62
555.872	38186.94
556.071	38305.72
556.271	38526.9
556.47	38180.79
556.67	38137.79
556.869	38107.07
557.068	38188.99
557.268	38506.42
557.467	38295.48
557.667	38178.75
557.866	37961.66
558.065	38158.27
558.265	37674.95
558.464	37410.76
558.663	38258.62
558.863	37590.98
559.062	38436.79
559.261	37447.62
559.461	37992.38
559.66	37101.51
559.859	37351.37
560.058	37089.23
560.258	37070.79
560.457	36913.1
560.656	37244.87
560.855	37107.66
561.054	37455.81
561.253	37089.23
561.453	37062.6
561.652	37197.77
561.851	36988.88
562.05	37085.13
562.249	36511.7
562.448	36859.85
562.647	36462.55
562.846	36284.37
563.045	36511.7
563.244	36016.09
563.443	36741.07
563.642	35729.37
563.841	36147.16
564.04	36065.24
564.239	36231.13
564.438	35600.35
564.637	36016.09
564.836	35790.81
565.035	35530.72
565.234	35528.67
565.432	35182.57
565.631	35336.16
565.83	35125.22
566.029	35262.44
566.228	35106.79
566.427	34902
566.625	35170.28
566.824	34641.9
567.023	35035.11
567.222	34183.16
567.42	34772.97
567.619	34740.21
567.818	34467.83
568.016	34385.91
568.215	34674.67
568.414	34263.03
568.612	34592.75
568.811	33990.65
569.01	33947.64
569.208	33525.76
569.407	34093.05
569.605	33226.76
569.804	33931.26
570.002	33153.03
570.201	33683.45
570.4	33529.86
570.598	33116.17
570.797	33331.2
570.995	33382.4
571.193	32626.7
571.392	33003.53
571.59	32374.8
571.789	32643.09
571.987	32487.44
572.186	32438.29
572.384	32489.49
572.582	32346.13
572.781	32370.71
572.979	32098.33
573.177	32038.94
573.376	32385.04
573.574	31602.72
573.772	31871
573.971	31631.39
574.169	31324.19
574.367	31680.54
574.565	31561.76
574.763	31469.6
574.962	31207.46
575.16	31590.43
575.358	31152.16
575.556	30828.59
575.754	31195.17
575.952	30791.72
576.151	31080.49
576.349	30801.96
576.547	30857.26
576.745	30412.85
576.943	30558.25
577.141	30398.51
577.339	30468.14
577.537	30062.65
577.735	30031.93
577.933	30079.03
578.131	29915.19
578.329	30052.41
578.527	29780.03
578.725	29657.15
578.923	29698.11
579.121	29292.61
579.319	29212.74
579.516	29421.63
579.714	29384.77
579.912	29184.07
580.11	29120.58
580.308	29290.56
580.506	29009.99
580.704	28670.03
580.901	29063.24
581.099	28870.73
581.297	28536.91
581.495	28512.33
581.692	28532.81
581.89	28307.54
582.088	28377.17
582.285	28528.72
582.483	28530.76
582.681	28192.85
582.878	27920.47
583.076	27768.92
583.274	28117.07
583.471	27707.48
583.669	27863.13
583.866	27609.18
584.064	27572.32
584.262	26996.84
584.459	27560.03
584.657	27392.09
584.854	27676.76
585.052	27015.27
585.249	27152.48
585.447	27164.77
585.644	27338.85
585.841	27136.1
586.039	27095.14
586.236	26562.67
586.434	26628.2
586.631	26769.51
586.828	26534
587.026	26685.54
587.223	26327.15
587.42	26366.06
587.618	26265.71
587.815	26237.04
588.012	25974.9
588.21	25845.88
588.407	26114.16
588.604	25737.34
588.801	25333.89
588.999	25782.39
589.196	25557.11
589.393	25364.6
589.59	25458.81
589.787	25522.3
589.984	25317.5
590.182	25292.93
590.379	25102.46
590.576	24901.76
590.773	25217.15
590.97	24641.67
591.167	24633.48
591.364	24332.43
591.561	24897.67
591.758	24430.73
591.955	24440.97
592.152	24864.9
592.349	24240.27
592.546	24457.35
592.743	24436.88
592.94	23894.16
593.137	24359.05
593.334	24049.81
593.531	24041.62
593.727	23759
593.924	23939.22
594.121	23507.1
594.318	23994.51
594.515	23599.26
594.712	23679.13
594.908	23328.92
595.105	23533.72
595.302	23257.25
595.499	23275.68
595.696	23247.01
595.892	22968.48
596.089	23093.41
596.286	22861.99
596.482	23021.73
596.679	23160.99
596.876	22861.99
597.072	22642.85
597.269	22630.57
597.466	22530.22
597.662	22315.18
597.859	22188.21
598.055	22554.79
598.252	22210.73
598.448	22141.1
598.645	22036.66
598.841	21919.92
599.038	22485.16
599.234	22104.24
599.431	21807.28
599.627	21717.17
599.824	22120.62
600.02	21338.3
600.217	21608.63
600.413	21829.81
600.609	21391.55
600.806	21600.44
601.002	21495.99
601.198	21186.75
601.395	21391.55
601.591	21250.24
601.787	20785.35
601.984	21131.45
602.18	21332.15
602.376	20930.75
602.572	20836.55
602.769	20764.87
602.965	20762.82
603.161	20754.63
603.357	20482.25
603.553	20439.24
603.75	20535.49
603.946	20265.16
604.142	20496.58
604.338	20117.71
604.534	20371.66
604.73	20220.11
604.926	20150.48
605.122	20193.48
605.318	20152.52
605.514	19910.86
605.71	20031.69
605.906	19781.84
606.102	19607.76
606.298	19718.36
606.494	20130
606.69	19822.8
606.886	20068.56
607.082	19364.06
607.278	19474.65
607.474	19146.97
607.67	19366.1
607.866	19108.06
608.062	19384.54
608.257	19355.86
608.453	19151.07
608.649	19339.48
608.845	19124.44
609.041	18729.19
609.236	19075.29
609.432	18794.72
609.628	18925.79
609.824	18866.4
610.019	18901.22
610.215	18671.84
610.411	18809.06
610.606	18606.31
610.802	18714.85
610.998	18807.01
611.193	18878.69
611.389	18505.96
611.584	18491.62
611.78	18520.29
611.976	18411.75
612.171	18436.33
612.367	18227.43
612.562	18237.67
612.758	18254.06
612.953	17791.22
613.149	18426.09
613.344	18026.73
613.539	18209
613.735	18141.42
613.93	18161.9
614.126	17875.18
614.321	18100.46
614.517	17754.35
614.712	18084.08
614.907	17998.06
615.103	17963.25
615.298	17629.43
615.493	18000.11
615.688	17576.18
615.884	18045.16
616.079	17539.32
616.274	17570.04
616.47	17656.05
616.665	17637.62
616.86	17484.02
617.055	17350.9
617.25	17426.68
617.445	17402.1
617.641	17207.55
617.836	17418.49
618.031	17056
618.226	17311.99
618.421	17074.43
618.616	17180.92
618.811	16965.89
619.006	17248.5
619.201	16828.67
619.396	16722.18
619.591	16601.35
619.786	16863.49
619.981	16474.37
620.176	16777.47
620.371	16365.83
620.566	16367.88
620.761	16294.15
620.956	16296.2
621.151	16294.15
621.346	16204.04
621.541	16079.11
621.735	15982.86
621.93	15825.17
622.125	16015.63
622.32	15683.86
622.515	15554.83
622.709	15728.91
622.904	15628.56
623.099	15356.18
623.294	15411.48
623.488	15421.72
623.683	15321.37
623.878	14915.87
624.072	14946.59
624.267	15079.71
624.462	14754.08
624.656	14766.37
624.851	14844.19
625.046	14735.65
625.24	14653.73
625.435	14395.68
625.629	14414.12
625.824	14545.19
626.018	14588.19
626.213	14227.75
626.407	14100.78
626.602	13867.31
626.796	14211.37
626.991	14035.24
627.185	13828.4
627.38	13760.81
627.574	13566.26
627.768	13539.63
627.963	13660.46
628.157	13189.43
628.352	13420.85
628.546	13158.71
628.74	13310.26
628.935	13101.37
629.129	13250.87
629.323	13029.69
629.517	13152.57
629.712	12702.01
629.906	12814.65
630.1	12486.98
630.294	12609.86
630.489	12847.42
630.683	12710.21
630.877	12413.25
631.071	12425.54
631.265	12536.13
631.459	12108.1
631.653	12255.56
631.848	12054.86
632.042	12046.66
632.236	12278.08
632.43	11977.03
632.624	12108.1
632.818	12022.09
633.012	11848.01
633.206	11805
633.4	11753.8
633.594	11673.93
633.788	11571.54
633.982	11702.61
634.176	11563.34
634.369	11338.07
634.563	11534.67
634.757	11280.72
634.951	11315.54
635.145	11129.17
635.339	11123.03
635.533	10936.67
635.726	11045.21
635.92	10832.22
636.114	11020.63
636.308	10715.48
636.501	10789.21
636.695	10717.53
636.889	10852.7
637.083	10643.81
637.276	10580.32
637.47	10414.43
637.664	10340.71
637.857	10465.63
638.051	10416.48
638.244	10449.25
638.438	10105.19
638.632	10226.02
638.825	10103.14
639.019	9959.78
639.212	10084.71
639.406	10041.7
639.599	9830.76
639.793	9507.18
639.986	9552.24
640.18	9779.56
640.373	9728.36
640.567	9562.48
640.76	9615.73
640.954	9269.62
641.147	9400.69
641.34	9415.02
641.534	9406.83
641.727	9249.14
641.92	9189.75
642.114	9105.78
642.307	8989.05
642.5	9003.38
642.694	8987
642.887	8980.85
643.08	9199.99
643.273	8595.84
643.467	8786.3
643.66	8716.67
643.853	8808.83
644.046	8575.36
644.239	8685.95
644.432	8735.1
644.626	8468.86
644.819	8548.73
645.012	8266.11
645.205	8370.56
645.398	8432
645.591	8376.7
645.784	8372.61
645.977	7967.11
646.17	8247.68
646.363	8161.67
646.556	7987.59
646.749	8112.52
646.942	7979.4
647.135	7999.88
647.328	7934.34
647.521	8010.12
647.714	7844.23
647.907	7758.22
648.099	7772.55
648.292	7862.66
648.485	7764.36
648.678	7723.4
648.871	7422.35
649.064	7461.26
649.256	7737.74
649.449	7405.97
649.642	7391.63
649.835	7334.29
650.027	7434.64
650.22	7354.77
650.413	7229.84
650.605	7264.66
650.798	7221.65
650.991	7088.53
651.183	7328.14
651.376	7156.11
651.568	6826.39
651.761	7059.86
651.954	7129.49
652.146	6863.26
652.339	6807.96
652.531	7014.8
652.724	6959.51
652.916	6597.02
653.109	6822.3
653.301	6734.23
653.494	6865.3
653.686	6506.91
653.879	6701.47
654.071	6504.86
654.263	6726.04
654.456	6470.05
654.648	6594.97
654.84	6427.04
655.033	6484.38
655.225	6302.11
655.417	6291.87
655.61	6439.33
655.802	6257.06
655.994	6433.18
656.186	6291.87
656.379	6156.71
656.571	6236.58
656.763	5990.82
656.955	6089.12
657.148	6121.89
657.34	6175.14
657.532	5949.86
657.724	5939.62
657.916	5878.18
658.108	5892.52
658.3	6113.7
658.492	6015.4
658.684	5919.14
658.876	5849.51
659.068	5736.87
659.26	5704.1
659.452	5687.72
659.644	5640.62
659.836	5720.49
660.028	5800.36
660.22	5599.66
660.412	5667.24
660.604	5562.8
660.796	5597.61
660.988	5462.44
661.18	5421.49
661.372	5333.42
661.563	5368.24
661.755	5364.14
661.947	5429.68
662.139	5366.19
662.331	5292.46
662.522	5321.13
662.714	5261.74
662.906	5200.3
663.097	5151.15
663.289	5323.18
663.481	5188.02
663.673	5208.5
663.864	4997.56
664.056	5083.57
664.247	5175.73
664.439	5073.33
664.631	5020.08
664.822	5153.2
665.014	5030.32
665.205	5032.37
665.397	5040.56
665.588	5001.65
665.78	4899.25
665.971	4921.78
666.163	4921.78
666.354	4925.88
666.546	4774.33
666.737	4809.14
666.929	4733.37
667.12	4663.74
667.311	4753.85
667.503	4626.87
667.694	4766.14
667.885	4667.83
668.077	4673.98
668.268	4561.34
668.459	4680.12
668.651	4649.4
668.842	4577.72
669.033	4577.72
669.224	4524.47
669.416	4661.69
669.607	4633.02
669.798	4559.29
669.989	4499.9
670.18	4520.38
670.371	4499.9
670.563	4379.07
670.754	4393.4
670.945	4481.47
671.136	4458.94
671.327	4385.21
671.518	4317.63
671.709	4334.01
671.9	4364.73
672.091	4364.73
672.282	4258.24
672.473	4393.4
672.664	4452.8
672.855	4225.47
673.046	4295.1
673.237	4387.26
673.428	4274.62
673.619	4209.09
673.809	4254.14
674	4166.08
674.191	4145.6
674.382	4186.56
674.573	4286.91
674.764	4241.86
674.954	4231.62
675.145	4252.1
675.336	4204.99
675.527	4170.18
675.717	4188.61
675.908	4223.42
676.099	4116.93
676.289	4106.69
676.48	4219.33
676.671	4039.11
676.861	4264.38
677.052	4284.86
677.243	4180.42
677.433	4151.74
677.624	4182.46
677.814	4223.42
678.005	4118.98
678.195	4155.84
678.386	4250.05
678.576	4161.98
678.767	4123.07
678.957	4084.16
679.148	3998.15
679.338	4188.61
679.529	4090.31
679.719	4051.39
679.909	4196.8
680.1	4190.66
680.29	4051.39
680.481	4108.74
680.671	4153.79
680.861	4012.48
681.052	4323.77
681.242	4147.65
681.432	4096.45
681.622	4139.46
681.813	4041.15
682.003	4104.64
682.193	4088.26
682.383	4137.41
682.573	4051.39
682.764	4049.35
682.954	4161.98
683.144	4100.55
683.334	4069.83
683.524	4032.96
683.714	4028.87
683.904	3994.05
684.094	4030.91
684.284	4022.72
684.474	3977.67
684.664	3998.15
684.854	4049.35
685.044	4039.11
685.234	3955.14
685.424	4035.01
685.614	4000.19
685.804	3942.85
685.994	3971.52
686.184	3897.8
686.374	3879.36
686.564	3752.39
686.753	3838.41
686.943	3842.5
687.133	3809.73
687.323	3889.6
687.513	3828.17
687.702	3781.06
687.892	3905.99
688.082	3701.19
688.272	3795.4
688.461	3756.49
688.651	3670.47
688.841	3725.77
689.03	3666.38
689.22	3602.89
689.41	3719.62
689.599	3744.2
689.789	3701.19
689.979	3842.5
690.168	3598.79
690.358	3654.09
690.547	3758.53
690.737	3570.12
690.926	3658.18
691.116	3588.55
691.305	3512.78
691.495	3559.88
691.684	3525.07
691.874	3578.31
692.063	3447.24
692.252	3439.05
692.442	3469.77
692.631	3486.15
692.82	3449.29
693.01	3256.78
693.199	3406.28
693.388	3205.58
693.578	3424.72
693.767	3465.68
693.956	3322.32
694.146	3396.04
694.335	3320.27
694.524	3256.78
694.713	3340.75
694.902	3396.04
695.092	3297.74
695.281	3287.5
695.47	3193.3
695.659	3295.69
695.848	3219.92
696.037	3246.54
696.226	3285.45
696.415	3113.42
696.604	3152.34
696.793	3324.37
696.982	3156.43
697.171	3164.62
697.36	3092.94
697.549	3058.13
697.738	3260.88
697.927	3138
698.116	3189.2
698.305	3258.83
698.494	3158.48
698.683	3181.01
698.872	3228.11
699.061	3236.3
699.25	3131.86
699.438	3226.06
699.627	3164.62
699.816	3172.82
700.005	3146.19
700.193	3070.42
700.382	3070.42
700.571	3125.71
700.76	3068.37
700.948	3168.72
701.137	3297.74
701.326	3125.71
701.514	3185.1
701.703	3142.1
701.892	3115.47
702.08	3205.58
702.269	3062.23
702.457	3025.36
702.646	3176.91
702.834	3056.08
703.023	3117.52
703.212	3090.9
703.4	3262.93
703.589	3090.9
703.777	3131.86
703.965	3142.1
704.154	3224.01
704.342	3135.95
704.531	3074.51
704.719	3156.43
704.907	3160.53
705.096	3099.09
705.284	3244.49
705.472	3058.13
705.661	3088.85
705.849	3287.5
706.037	3195.34
706.226	3135.95
706.414	3070.42
706.602	3090.9
706.79	3115.47
706.979	3029.46
707.167	2959.83
707.355	3074.51
707.543	3088.85
707.731	3140.05
707.919	3138
708.107	3029.46
708.296	3088.85
708.484	3111.38
708.672	3039.7
708.86	3097.04
709.048	3086.8
709.236	3084.75
709.424	3285.45
709.612	3324.37
709.8	3131.86
709.988	3160.53
710.176	3154.38
710.364	3213.77
710.551	3070.42
710.739	3094.99
710.927	2980.31
711.115	3140.05
711.303	3156.43
711.491	3252.69
711.679	3080.66
711.866	3187.15
712.054	3260.88
712.242	3138
712.43	3258.83
712.617	3105.23
712.805	3219.92
712.993	3074.51
713.181	3119.57
713.368	3062.23
713.556	3242.45
713.744	2972.11
713.931	3279.31
714.119	3178.96
714.306	3230.16
714.494	3123.66
714.682	3205.58
714.869	3017.17
715.057	3207.63
715.244	3230.16
715.432	3199.44
715.619	3207.63
715.807	3203.54
715.994	3181.01
716.182	3301.84
716.369	3232.21
716.556	3279.31
716.744	3258.83
716.931	3146.19
717.119	3213.77
717.306	3187.15
717.493	3181.01
717.681	3230.16
717.868	3234.25
718.055	3295.69
718.242	3271.12
718.43	3129.81
718.617	3205.58
718.804	3240.4
718.991	3109.33
719.179	3199.44
719.366	3172.82
719.553	3178.96
719.74	3178.96
719.927	3158.48
720.114	3172.82
720.301	3293.65
720.488	3088.85
720.676	3174.86
720.863	3189.2
721.05	3236.3
721.237	3193.3
721.424	3160.53
721.611	3195.34
721.798	3240.4
721.985	3269.07
722.172	3254.73
722.358	3236.3
722.545	3187.15
722.732	3160.53
722.919	3211.73
723.106	3129.81
723.293	3148.24
723.48	3123.66
723.667	3125.71
723.853	3119.57
724.04	3234.25
724.227	3287.5
724.414	3189.2
724.6	3088.85
724.787	3189.2
724.974	3094.99
725.161	3142.1
725.347	3174.86
725.534	3101.14
725.72	3168.72
725.907	3074.51
726.094	3240.4
726.28	3029.46
726.467	3156.43
726.653	3101.14
726.84	3195.34
727.027	3246.54
727.213	3015.12
727.4	3101.14
727.586	3129.81
727.773	3166.67
727.959	3109.33
728.145	3152.34
728.332	3117.52
728.518	3047.89
728.705	3262.93
728.891	3156.43
729.077	3191.25
729.264	3066.32
729.45	3066.32
729.636	3193.3
729.823	3146.19
730.009	3172.82
730.195	3064.27
730.382	3236.3
730.568	3226.06
730.754	3086.8
730.94	3129.81
731.126	3068.37
731.313	3078.61
731.499	3138
731.685	3121.62
731.871	3056.08
732.057	3250.64
732.243	3099.09
732.429	3015.12
732.615	3107.28
732.801	3119.57
732.987	3088.85
733.173	2900.44
733.359	2951.63
733.545	3088.85
733.731	3074.51
733.917	3062.23
734.103	3107.28
734.289	3080.66
734.475	3008.98
734.661	2959.83
734.847	3019.22
735.033	2968.02
735.219	3070.42
735.404	3008.98
735.59	2986.45
735.776	3017.17
735.962	3068.37
736.148	3045.84
736.333	3144.14
736.519	3033.55
736.705	2939.35
736.89	2912.72
737.076	3103.18
737.262	2939.35
737.447	2972.11
737.633	2818.52
737.819	2916.82
738.004	2996.69
738.19	2984.4
738.375	2988.5
738.561	3107.28
738.747	2908.63
738.932	2900.44
739.118	2994.64
739.303	2851.28
739.489	2877.91
739.674	2716.12
739.859	2873.81
740.045	2965.97
740.23	2824.66
740.416	2849.24
740.601	2822.61
740.786	2820.56
740.972	2714.07
741.157	2771.41
741.342	2783.7
741.528	2937.3
741.713	2892.24
741.898	2857.43
742.084	2795.99
742.269	2853.33
742.454	2812.37
742.639	2695.64
742.824	2595.29
743.01	2738.65
743.195	2699.73
743.38	2599.38
743.565	2617.82
743.75	2673.11
743.935	2697.69
744.12	2636.25
744.305	2568.66
744.49	2529.75
744.675	2572.76
744.86	2601.43
745.045	2664.92
745.23	2671.06
745.415	2595.29
745.6	2599.38
745.785	2480.6
745.97	2523.61
746.155	2507.23
746.34	2484.7
746.525	2533.85
746.71	2490.84
746.895	2462.17
747.079	2367.96
747.264	2413.02
747.449	2320.86
747.634	2460.12
747.819	2456.03
748.003	2296.28
748.188	2374.11
748.373	2404.83
748.557	2345.44
748.742	2255.33
748.927	2388.44
749.111	2292.19
749.296	2238.94
749.481	2296.28
749.665	2259.42
749.85	2150.88
750.034	2236.89
750.219	2167.26
750.404	2206.17
750.588	2138.59
750.773	2109.92
750.957	2114.02
751.141	2152.93
751.326	2050.53
751.51	2118.11
751.695	2066.91
751.879	1972.71
752.064	2056.67
752.248	2025.95
752.432	2130.4
752.617	1931.75
752.801	1929.7
752.985	1948.13
753.17	1952.23
753.354	1989.09
753.538	1966.56
753.722	1845.73
753.907	1911.27
754.091	1880.55
754.275	1841.64
754.459	1860.07
754.643	1675.75
754.828	1882.6
755.012	1755.62
755.196	1743.33
755.38	1901.03
755.564	1780.2
755.748	1810.92
755.932	1733.09
756.116	1683.94
756.3	1757.67
756.484	1663.46
756.668	1649.13
756.852	1599.98
757.036	1647.08
757.22	1735.14
757.404	1606.12
757.588	1630.7
757.772	1618.41
757.956	1581.54
758.14	1688.04
758.323	1579.5
758.507	1509.86
758.691	1548.78
758.875	1597.93
759.059	1645.03
759.242	1522.15
759.426	1540.58
759.61	1475.05
759.794	1411.56
759.977	1552.87
760.161	1456.62
760.345	1550.82
760.528	1546.73
760.712	1493.48
760.895	1407.47
761.079	1509.86
761.263	1427.95
761.446	1350.12
761.63	1483.24
761.813	1450.47
761.997	1241.58
762.18	1444.33
762.364	1415.66
762.547	1272.3
762.731	1423.85
762.914	1321.45
763.098	1360.36
763.281	1362.41
763.464	1372.65
763.648	1319.4
763.831	1321.45
764.015	1206.77
764.198	1427.95
764.381	1346.03
764.564	1196.53
764.748	1260.01
764.931	1294.83
765.114	1286.64
765.297	1337.84
765.481	1284.59
765.664	1178.09
765.847	1288.68
766.03	1319.4
766.213	1272.3
766.397	1307.12
766.58	1188.33
766.763	1174
766.946	1184.24
767.129	1219.05
767.312	1180.14
767.495	1108.46
767.678	1174
767.861	1153.52
768.044	1163.76
768.227	1171.95
768.41	1227.25
768.593	1087.98
768.776	1092.08
768.959	1004.02
769.142	1079.79
769.324	1081.84
769.507	1087.98
769.69	1112.56
769.873	1130.99
770.056	1100.27
770.239	1096.18
770.421	1067.5
770.604	1094.13
770.787	1001.97
770.97	1090.03
771.152	1051.12
771.335	1075.7
771.518	1055.22
771.7	1012.21
771.883	1030.64
772.066	1016.3
772.248	928.24
772.431	999.92
772.613	1030.64
772.796	989.68
772.978	1067.5
773.161	963.06
773.343	1044.98
773.526	926.19
773.708	924.15
773.891	911.86
774.073	936.43
774.256	975.35
774.438	903.67
774.621	907.76
774.803	989.68
774.985	928.24
775.168	891.38
775.35	1001.97
775.532	836.08
775.715	786.93
775.897	858.61
776.079	864.75
776.261	823.8
776.444	907.76
776.626	834.04
776.808	838.13
776.99	926.19
777.173	821.75
777.355	817.65
777.537	846.32
777.719	844.28
777.901	782.84
778.083	866.8
778.265	727.54
778.447	741.88
778.629	711.16
778.811	684.53
778.993	707.06
779.175	776.69
779.357	748.02
779.539	719.35
779.721	797.17
779.903	772.6
780.085	739.83
780.267	709.11
780.449	754.16
780.631	723.44
780.812	743.92
780.994	688.63
781.176	780.79
781.358	729.59
781.54	721.4
781.721	596.47
781.903	625.14
782.085	686.58
782.267	633.33
782.448	608.76
782.63	594.42
782.812	733.68
782.993	619
783.175	770.55
783.357	627.19
783.538	639.48
783.72	573.94
783.901	637.43
784.083	530.94
784.264	580.09
784.446	510.46
784.627	575.99
784.809	588.28
784.99	578.04
785.172	625.14
785.353	559.61
785.535	553.46
785.716	539.13
785.897	590.33
786.079	498.17
786.26	543.22
786.441	563.7
786.623	504.31
786.804	506.36
786.985	528.89
787.167	498.17
787.348	504.31
787.529	518.65
787.71	498.17
787.891	580.09
788.073	496.12
788.254	500.22
788.435	530.94
788.616	412.15
788.797	446.97
788.978	573.94
789.159	473.59
789.34	518.65
789.522	483.83
789.703	453.11
789.884	469.5
790.065	465.4
790.246	463.35
790.427	424.44
790.607	496.12
790.788	483.83
790.969	344.57
791.15	444.92
791.331	459.26
791.512	414.2
791.693	387.58
791.874	424.44
792.054	461.3
792.235	373.24
792.416	481.78
792.597	418.3
792.778	442.87
792.958	385.53
793.139	365.05
793.32	369.15
793.5	332.28
793.681	440.83
793.862	418.3
794.042	414.2
794.223	295.42
794.404	264.7
794.584	320
794.765	299.52
794.945	338.43
795.126	317.95
795.306	393.72
795.487	393.72
795.667	281.08
795.848	320
796.028	399.87
796.209	317.95
796.389	451.07
796.57	334.33
796.75	344.57
796.93	387.58
797.111	326.14
797.291	328.19
797.471	285.18
797.652	293.37
797.832	317.95
798.012	354.81
798.192	250.36
798.373	223.74
798.553	287.23
798.733	338.43
798.913	297.47
799.093	303.61
799.274	279.04
799.454	356.86
799.634	242.17
799.814	309.76
799.994	287.23
800.174	356.86
800.354	315.9
800.534	287.23
800.714	303.61
800.894	268.8
801.074	207.36
801.254	274.94
801.434	279.04
801.614	410.11
801.794	262.65
801.974	750.07
802.154	252.41
802.334	266.75
802.514	252.41
802.693	201.21
802.873	274.94
803.053	246.27
803.233	197.12
803.413	315.9
803.592	248.32
803.772	287.23
803.952	221.69
804.131	207.36
804.311	250.36
804.491	244.22
804.67	260.6
804.85	301.56
805.03	258.56
805.209	279.04
805.389	305.66
805.568	236.03
805.748	252.41
805.928	199.16
806.107	236.03
806.287	352.76
806.466	291.32
806.646	236.03
806.825	180.73
807.004	268.8
807.184	229.88
807.363	276.99
807.543	252.41
807.722	156.16
807.901	264.7
808.081	205.31
808.26	186.88
808.439	207.36
808.619	184.83
808.798	231.93
808.977	182.78
809.156	229.88
809.336	236.03
809.515	285.18
809.694	182.78
809.873	248.32
810.052	293.37
810.231	274.94
810.411	178.69
810.59	186.88
810.769	186.88
810.948	223.74
811.127	100.86
811.306	244.22
811.485	227.84
811.664	70.14
811.843	207.36
812.022	201.21
812.201	141.82
812.38	190.97
812.559	252.41
812.737	170.49
812.916	186.88
813.095	195.07
813.274	199.16
813.453	178.69
813.632	168.45
813.811	209.4
813.989	211.45
814.168	229.88
814.347	160.25
814.526	205.31
814.704	215.55
814.883	147.97
815.062	178.69
815.24	227.84
815.419	113.15
815.598	203.26
815.776	96.77
815.955	174.59
816.133	166.4
816.312	145.92
816.49	104.96
816.669	262.65
816.847	139.77
817.026	154.11
817.204	84.48
817.383	172.54
817.561	158.21
817.74	221.69
817.918	195.07
818.097	178.69
818.275	178.69
818.453	158.21
818.632	188.93
818.81	145.92
818.988	102.91
819.167	207.36
819.345	215.55
819.523	137.73
819.701	135.68
819.879	223.74
820.058	90.62
820.236	178.69
820.414	100.86
820.592	141.82
820.77	188.93
820.948	164.35
821.127	59.9
821.305	156.16
821.483	125.44
821.661	174.59
821.839	133.63
822.017	80.38
822.195	129.53
822.373	182.78
822.551	139.77
822.729	231.93
822.907	121.34
823.085	201.21
823.262	182.78
823.44	133.63
823.618	119.29
823.796	141.82
823.974	117.25
824.152	96.77
824.329	154.11
824.507	121.34
824.685	150.01
824.863	168.45
825.04	141.82
825.218	141.82
825.396	150.01
825.574	94.72
825.751	182.78
825.929	115.2
826.107	117.25
826.284	104.96
826.462	66.05
826.639	88.57
826.817	117.25
826.994	111.1
827.172	86.53
827.349	100.86
827.527	137.73
827.704	100.86
827.882	100.86
828.059	76.29
828.237	127.49
828.414	162.3
828.591	100.86
828.769	104.96
828.946	90.62
829.124	141.82
829.301	152.06
829.478	119.29
829.655	84.48
829.833	129.53
830.01	74.24
830.187	147.97
830.364	80.38
830.542	66.05
830.719	190.97
830.896	111.1
831.073	129.53
831.25	66.05
831.427	154.11
831.604	139.77
831.782	150.01
831.959	98.81
832.136	143.87
832.313	14.85
832.49	133.63
832.667	96.77
832.844	6.66
833.021	107.01
833.198	43.52
833.374	84.48
833.551	35.33
833.728	16.9
833.905	55.81
834.082	59.9
834.259	72.19
834.436	33.28
834.612	49.66
834.789	135.68
834.966	78.33
835.143	51.71
835.319	70.14
835.496	104.96
835.673	80.38
835.85	33.28
836.026	72.19
836.203	72.19
836.38	94.72
836.556	51.71
836.733	33.28
836.909	51.71
837.086	41.47
837.262	6.66
837.439	31.23
837.616	137.73
837.792	74.24
837.968	61.95
838.145	84.48
838.321	27.14
838.498	84.48
838.674	31.23
838.851	51.71
839.027	43.52
839.203	47.62
839.38	88.57
839.556	37.38
839.732	-13.82
839.909	147.97
840.085	35.33
840.261	8.7
840.437	82.43
840.614	66.05
840.79	143.87
840.966	121.34
841.142	84.48
841.318	10.75
841.494	51.71
841.671	98.81
841.847	39.42
842.023	-1.54
842.199	104.96
842.375	92.67
842.551	39.42
842.727	-1.54
842.903	72.19
843.079	80.38
843.255	184.83
843.431	80.38
843.607	39.42
843.783	104.96
843.959	135.68
844.134	25.09
844.31	127.49
844.486	-17.92
844.662	-5.63
844.838	-50.69
845.013	100.86
845.189	57.86
845.365	98.81
845.541	20.99
845.716	45.57
845.892	104.96
846.068	20.99
846.244	53.76
846.419	68.09
846.595	43.52
846.77	-24.06
846.946	29.18
847.122	-26.11
847.297	-5.63
847.473	88.57
847.648	92.67
847.824	37.38
847.999	18.94
848.175	41.47
848.35	70.14
848.526	61.95
848.701	51.71
848.876	59.9
849.052	41.47
849.227	59.9
849.403	10.75
849.578	2.56
849.753	35.33
849.929	14.85
850.104	-3.58
850.279	-13.82
850.454	96.77
850.63	6.66
850.805	64
850.98	47.62
851.155	-30.21
851.33	43.52
851.505	39.42
851.681	43.52
851.856	35.33
852.031	45.57
852.206	10.75
852.381	55.81
852.556	53.76
852.731	74.24
852.906	-13.82
853.081	12.8
853.256	66.05
853.431	78.33
853.606	41.47
853.781	76.29
853.956	27.14
854.131	88.57
854.305	49.66
854.48	70.14
854.655	4.61
854.83	49.66
855.005	41.47
855.18	59.9
855.354	41.47
855.529	23.04
855.704	137.73
855.879	127.49
856.053	90.62
856.228	45.57
856.403	-15.87
856.577	68.09
856.752	-15.87
856.926	-34.3
857.101	2.56
857.276	16.9
857.45	70.14
857.625	-5.63
857.799	-5.63
857.974	74.24
858.148	82.43
858.323	55.81
858.497	10.75
858.672	84.48
858.846	0.51
859.02	-11.78
859.195	14.85
859.369	119.29
859.543	25.09
859.718	35.33
859.892	88.57
860.066	6.66
860.241	41.47
860.415	8.7
860.589	-50.69
860.763	59.9
860.938	4.61
861.112	-5.63
861.286	43.52
861.46	2.56
861.634	92.67
861.808	78.33
861.982	20.99
862.157	35.33
862.331	27.14
862.505	-3.58
862.679	14.85
862.853	84.48
863.027	-17.92
863.201	-26.11
863.375	-15.87
863.549	53.76
863.722	94.72
863.896	55.81
864.07	-3.58
864.244	39.42
864.418	27.14
864.592	-24.06
864.766	-52.74
864.939	86.53
865.113	31.23
865.287	35.33
865.461	41.47
865.634	20.99
865.808	88.57
865.982	-83.45
866.156	2.56
866.329	-7.68
866.503	18.94
866.676	18.94
866.85	20.99
867.024	23.04
867.197	104.96
867.371	57.86
867.544	-46.59
867.718	-60.93
867.891	76.29
868.065	-42.5
868.238	-5.63
868.412	35.33
868.585	47.62
868.759	-15.87
868.932	-11.78
869.105	6.66
869.279	39.42
869.452	43.52
869.625	43.52
869.799	25.09
869.972	-7.68
870.145	27.14
870.319	78.33
870.492	-11.78
870.665	-17.92
870.838	18.94
871.011	-24.06
871.185	31.23
871.358	43.52
871.531	41.47
871.704	2.56
871.877	16.9
872.05	-99.84
872.223	59.9
872.396	43.52
872.569	-1.54
872.742	-17.92
872.915	100.86
873.088	47.62
873.261	35.33
873.434	14.85
873.607	-62.98
873.78	-36.35
873.953	14.85
874.126	-38.4
874.299	39.42
874.471	-54.78
874.644	10.75
874.817	-26.11
874.99	2.56
875.163	25.09
875.335	43.52
875.508	39.42
875.681	18.94
875.853	-5.63
876.026	88.57
876.199	-7.68
876.371	55.81
876.544	39.42
876.717	23.04
876.889	16.9
877.062	59.9
877.234	2.56
877.407	-30.21
877.579	27.14
877.752	39.42
877.924	35.33
878.097	-17.92
878.269	-24.06
878.442	-1.54
878.614	45.57
878.786	-5.63
878.959	18.94
879.131	80.38
879.303	-34.3
879.476	29.18
879.648	10.75
879.82	35.33
879.993	-24.06
880.165	0.51
880.337	23.04
880.509	39.42
880.681	-81.41
880.854	23.04
881.026	25.09
881.198	39.42
881.37	98.81
881.542	84.48
881.714	2.56
881.886	-3.58
882.058	-3.58
882.23	39.42
882.402	-9.73
882.574	68.09
882.746	20.99
882.918	2.56
883.09	-26.11
883.262	49.66
883.434	-7.68
883.606	-58.88
883.778	-44.54
883.95	20.99
884.122	-75.26
884.293	8.7
884.465	31.23
884.637	53.76
884.809	8.7
884.98	23.04
885.152	31.23
885.324	76.29
885.496	-30.21
885.667	-1.54
885.839	-62.98
886.011	12.8
886.182	-28.16
886.354	-44.54
886.525	43.52
886.697	10.75
886.869	-1.54
887.04	-15.87
887.212	41.47
887.383	31.23
887.555	64
887.726	6.66
887.897	-7.68
888.069	-52.74
888.24	29.18
888.412	20.99
888.583	10.75
888.754	43.52
888.926	2.56
889.097	133.63
889.268	33.28
889.44	23.04
889.611	-30.21
889.782	-87.55
889.953	-13.82
890.125	-32.26
890.296	-32.26
890.467	35.33
890.638	-19.97
890.809	23.04
890.98	-40.45
891.151	33.28
891.323	41.47
891.494	41.47
891.665	35.33
891.836	53.76
892.007	-13.82
892.178	43.52
892.349	-44.54
892.52	-7.68
892.691	6.66
892.862	10.75
893.032	27.14
893.203	-5.63
893.374	23.04
893.545	55.81
893.716	-56.83
893.887	55.81
894.057	92.67
894.228	47.62
894.399	-42.5
894.57	-5.63
894.74	27.14
894.911	33.28
895.082	27.14
895.253	0.51
895.423	-54.78
895.594	-22.02
895.764	-7.68
895.935	-15.87
896.106	33.28
896.276	-26.11
896.447	-48.64
896.617	49.66
896.788	25.09
896.958	-26.11
897.129	-44.54
897.299	-24.06
897.47	-38.4
897.64	8.7
897.81	68.09
897.981	-22.02
898.151	10.75
898.322	-69.12
898.492	59.9
898.662	-17.92
898.832	-15.87
899.003	-15.87
899.173	47.62
899.343	-15.87
899.513	-60.93
