Data from USB4F104151__216__10-29-58-023.txt Node

Date: Wed Mar 12 10:29:58 EDT 2025
User: louis
Spectrometer: USB4F10415
Trigger mode: 4
Integration Time (sec): 3.000000E-2
Scans to average: 1
Electric dark correction enabled: true
Nonlinearity correction enabled: false
Boxcar width: 0
XAxis mode: Wavelengths
Number of Pixels in Spectrum: 3648
>>>>>Begin Spectral Data<<<<<
178.204	-77.82
178.424	-77.82
178.644	-77.82
178.864	-139.26
179.084	-22.53
179.304	-18.43
179.524	-28.67
179.744	-2.05
179.964	36.86
180.184	-18.43
180.404	30.72
180.624	-40.96
180.844	-12.29
181.064	-20.48
181.283	65.54
181.503	-49.15
181.723	57.34
181.943	-28.67
182.163	110.59
182.383	12.29
182.602	79.87
182.822	45.06
183.042	26.62
183.262	-22.53
183.482	77.82
183.701	-28.67
183.921	0
184.141	59.39
184.361	49.15
184.58	61.44
184.8	8.19
185.02	40.96
185.239	79.87
185.459	34.82
185.679	47.1
185.898	43.01
186.118	-4.1
186.338	65.54
186.557	12.29
186.777	-24.58
186.997	18.43
187.216	63.49
187.436	59.39
187.655	88.06
187.875	43.01
188.095	38.91
188.314	81.92
188.534	86.01
188.753	10.24
188.973	38.91
189.192	131.07
189.412	110.59
189.631	94.21
189.851	4.1
190.07	79.87
190.29	-40.96
190.509	12.29
190.729	69.63
190.948	32.77
191.168	108.54
191.387	24.58
191.607	-10.24
191.826	10.24
192.045	2.05
192.265	0
192.484	-16.38
192.704	73.73
192.923	-8.19
193.142	133.12
193.362	49.15
193.581	38.91
193.8	53.25
194.02	49.15
194.239	0
194.458	32.77
194.678	112.64
194.897	24.58
195.116	47.1
195.335	100.35
195.555	18.43
195.774	-20.48
195.993	8.19
196.212	6.14
196.432	16.38
196.651	53.25
196.87	12.29
197.089	73.73
197.308	30.72
197.528	43.01
197.747	24.58
197.966	75.77
198.185	69.63
198.404	6.14
198.623	49.15
198.842	73.73
199.062	-24.58
199.281	69.63
199.5	-16.38
199.719	81.92
199.938	118.78
200.157	16.38
200.376	22.53
200.595	-2.05
200.814	73.73
201.033	-65.53
201.252	43.01
201.471	65.54
201.69	45.06
201.909	100.35
202.128	8.19
202.347	40.96
202.566	22.53
202.785	12.29
203.004	-16.38
203.223	133.12
203.442	12.29
203.661	-14.34
203.879	57.34
204.098	32.77
204.317	-8.19
204.536	8.19
204.755	-55.3
204.974	0
205.193	43.01
205.411	81.92
205.63	57.34
205.849	18.43
206.068	45.06
206.287	-36.86
206.505	88.06
206.724	-34.82
206.943	40.96
207.162	45.06
207.381	57.34
207.599	88.06
207.818	65.54
208.037	30.72
208.255	-24.58
208.474	14.34
208.693	45.06
208.911	-22.53
209.13	32.77
209.349	-2.05
209.567	114.69
209.786	28.67
210.005	53.25
210.223	22.53
210.442	-10.24
210.661	36.86
210.879	36.86
211.098	28.67
211.316	8.19
211.535	34.82
211.753	-16.38
211.972	94.21
212.191	-12.29
212.409	16.38
212.628	22.53
212.846	26.62
213.065	79.87
213.283	-8.19
213.502	-12.29
213.72	32.77
213.938	10.24
214.157	49.15
214.375	32.77
214.594	49.15
214.812	45.06
215.031	4.1
215.249	61.44
215.467	32.77
215.686	14.34
215.904	49.15
216.122	43.01
216.341	75.77
216.559	155.65
216.778	122.88
216.996	59.39
217.214	34.82
217.432	36.86
217.651	-36.86
217.869	-45.06
218.087	14.34
218.306	0
218.524	-2.05
218.742	45.06
218.96	53.25
219.179	47.1
219.397	55.3
219.615	96.25
219.833	53.25
220.051	-10.24
220.27	32.77
220.488	53.25
220.706	-8.19
220.924	28.67
221.142	-6.14
221.36	8.19
221.578	6.14
221.796	81.92
222.015	43.01
222.233	49.15
222.451	18.43
222.669	-49.15
222.887	38.91
223.105	61.44
223.323	61.44
223.541	6.14
223.759	-8.19
223.977	51.2
224.195	22.53
224.413	77.82
224.631	53.25
224.849	10.24
225.067	-16.38
225.285	77.82
225.503	51.2
225.721	0
225.939	53.25
226.157	-4.1
226.375	120.83
226.592	8.19
226.81	55.3
227.028	4.1
227.246	49.15
227.464	38.91
227.682	61.44
227.9	71.68
228.117	36.86
228.335	-8.19
228.553	57.34
228.771	81.92
228.989	26.62
229.206	26.62
229.424	53.25
229.642	20.48
229.86	38.91
230.077	24.58
230.295	71.68
230.513	45.06
230.731	73.73
230.948	88.06
231.166	-24.58
231.384	16.38
231.601	63.49
231.819	57.34
232.037	34.82
232.254	6.14
232.472	65.54
232.689	49.15
232.907	32.77
233.125	36.86
233.342	14.34
233.56	-4.1
233.777	34.82
233.995	24.58
234.213	18.43
234.43	22.53
234.648	-16.38
234.865	26.62
235.083	-4.1
235.3	32.77
235.518	16.38
235.735	47.1
235.953	73.73
236.17	43.01
236.388	-12.29
236.605	-36.86
236.822	-40.96
237.04	75.77
237.257	61.44
237.475	-24.58
237.692	6.14
237.909	6.14
238.127	18.43
238.344	77.82
238.562	77.82
238.779	30.72
238.996	51.2
239.214	10.24
239.431	10.24
239.648	75.77
239.865	108.54
240.083	49.15
240.3	-2.05
240.517	-34.82
240.735	0
240.952	0
241.169	120.83
241.386	26.62
241.603	-14.34
241.821	-26.62
242.038	-8.19
242.255	12.29
242.472	8.19
242.689	135.17
242.907	30.72
243.124	16.38
243.341	38.91
243.558	-40.96
243.775	8.19
243.992	-2.05
244.209	36.86
244.426	96.25
244.643	45.06
244.86	0
245.078	24.58
245.295	0
245.512	81.92
245.729	55.3
245.946	38.91
246.163	32.77
246.38	6.14
246.597	90.11
246.814	16.38
247.031	106.49
247.248	-10.24
247.464	57.34
247.681	20.48
247.898	90.11
248.115	40.96
248.332	-32.77
248.549	61.44
248.766	65.54
248.983	-26.62
249.2	32.77
249.417	151.55
249.633	18.43
249.85	57.34
250.067	-10.24
250.284	-2.05
250.501	12.29
250.717	98.3
250.934	-69.63
251.151	53.25
251.368	38.91
251.585	8.19
251.801	-16.38
252.018	-10.24
252.235	71.68
252.451	18.43
252.668	65.54
252.885	0
253.102	81.92
253.318	38.91
253.535	32.77
253.752	22.53
253.968	73.73
254.185	-26.62
254.401	-10.24
254.618	8.19
254.835	-12.29
255.051	135.17
255.268	-2.05
255.484	61.44
255.701	40.96
255.917	124.93
256.134	14.34
256.351	12.29
256.567	-12.29
256.784	47.1
257	-30.72
257.217	47.1
257.433	49.15
257.65	86.01
257.866	67.58
258.082	-4.1
258.299	73.73
258.515	32.77
258.732	49.15
258.948	22.53
259.165	65.54
259.381	92.16
259.597	51.2
259.814	73.73
260.03	110.59
260.246	-12.29
260.463	98.3
260.679	36.86
260.895	69.63
261.112	69.63
261.328	24.58
261.544	63.49
261.761	122.88
261.977	20.48
262.193	28.67
262.409	71.68
262.626	36.86
262.842	36.86
263.058	24.58
263.274	24.58
263.49	-32.77
263.707	26.62
263.923	30.72
264.139	-8.19
264.355	63.49
264.571	112.64
264.787	-12.29
265.004	55.3
265.22	43.01
265.436	49.15
265.652	24.58
265.868	102.4
266.084	-12.29
266.3	-2.05
266.516	49.15
266.732	24.58
266.948	67.58
267.164	14.34
267.38	12.29
267.596	47.1
267.812	59.39
268.028	32.77
268.244	-12.29
268.46	16.38
268.676	34.82
268.892	18.43
269.108	38.91
269.324	-28.67
269.54	-18.43
269.756	94.21
269.972	-18.43
270.188	-2.05
270.403	-20.48
270.619	24.58
270.835	45.06
271.051	30.72
271.267	24.58
271.483	14.34
271.698	-22.53
271.914	30.72
272.13	-88.06
272.346	-53.25
272.562	38.91
272.777	69.63
272.993	8.19
273.209	-8.19
273.425	49.15
273.64	-73.73
273.856	55.3
274.072	55.3
274.287	-8.19
274.503	100.35
274.719	104.45
274.934	-18.43
275.15	-34.82
275.366	-43.01
275.581	88.06
275.797	-2.05
276.012	28.67
276.228	47.1
276.444	24.58
276.659	59.39
276.875	-12.29
277.09	22.53
277.306	47.1
277.521	69.63
277.737	22.53
277.952	77.82
278.168	55.3
278.383	67.58
278.599	47.1
278.814	16.38
279.03	36.86
279.245	110.59
279.461	106.49
279.676	83.97
279.892	16.38
280.107	12.29
280.322	96.25
280.538	40.96
280.753	20.48
280.969	0
281.184	73.73
281.399	32.77
281.615	16.38
281.83	83.97
282.045	6.14
282.26	38.91
282.476	8.19
282.691	88.06
282.906	8.19
283.122	-28.67
283.337	24.58
283.552	45.06
283.767	65.54
283.983	108.54
284.198	-32.77
284.413	71.68
284.628	36.86
284.843	16.38
285.058	88.06
285.274	67.58
285.489	81.92
285.704	6.14
285.919	10.24
286.134	6.14
286.349	40.96
286.564	65.54
286.779	118.78
286.995	49.15
287.21	0
287.425	16.38
287.64	12.29
287.855	65.54
288.07	22.53
288.285	32.77
288.5	65.54
288.715	137.21
288.93	51.2
289.145	0
289.36	20.48
289.575	43.01
289.79	108.54
290.004	8.19
290.219	38.91
290.434	47.1
290.649	40.96
290.864	20.48
291.079	53.25
291.294	-14.34
291.509	-8.19
291.724	73.73
291.938	77.82
292.153	61.44
292.368	57.34
292.583	69.63
292.798	73.73
293.012	26.62
293.227	36.86
293.442	-51.2
293.657	73.73
293.871	61.44
294.086	73.73
294.301	49.15
294.516	8.19
294.73	-40.96
294.945	-16.38
295.16	49.15
295.374	43.01
295.589	-2.05
295.804	0
296.018	22.53
296.233	53.25
296.447	36.86
296.662	16.38
296.877	55.3
297.091	55.3
297.306	6.14
297.52	67.58
297.735	114.69
297.949	30.72
298.164	0
298.378	-20.48
298.593	-24.58
298.807	38.91
299.022	32.77
299.236	112.64
299.451	38.91
299.665	-20.48
299.88	57.34
300.094	79.87
300.309	67.58
300.523	75.77
300.737	-40.96
300.952	38.91
301.166	43.01
301.381	8.19
301.595	36.86
301.809	18.43
302.024	-22.53
302.238	-8.19
302.452	24.58
302.667	96.25
302.881	102.4
303.095	149.5
303.309	81.92
303.524	-16.38
303.738	-4.1
303.952	8.19
304.166	36.86
304.381	6.14
304.595	90.11
304.809	77.82
305.023	55.3
305.237	53.25
305.452	12.29
305.666	71.68
305.88	40.96
306.094	12.29
306.308	36.86
306.522	73.73
306.736	24.58
306.95	55.3
307.164	26.62
307.379	86.01
307.593	110.59
307.807	77.82
308.021	108.54
308.235	38.91
308.449	43.01
308.663	57.34
308.877	98.3
309.091	100.35
309.305	40.96
309.519	63.49
309.733	143.36
309.947	-16.38
310.161	81.92
310.374	-20.48
310.588	57.34
310.802	24.58
311.016	51.2
311.23	40.96
311.444	49.15
311.658	65.54
311.872	59.39
312.085	77.82
312.299	100.35
312.513	-14.34
312.727	26.62
312.941	20.48
313.154	38.91
313.368	4.1
313.582	81.92
313.796	57.34
314.009	88.06
314.223	71.68
314.437	75.77
314.651	30.72
314.864	-8.19
315.078	-16.38
315.292	36.86
315.505	-16.38
315.719	22.53
315.933	38.91
316.146	98.3
316.36	63.49
316.573	53.25
316.787	61.44
317.001	63.49
317.214	-49.15
317.428	14.34
317.641	65.54
317.855	-26.62
318.068	63.49
318.282	116.73
318.495	51.2
318.709	32.77
318.922	49.15
319.136	-20.48
319.349	124.93
319.563	-20.48
319.776	114.69
319.99	0
320.203	53.25
320.417	4.1
320.63	139.26
320.843	118.78
321.057	34.82
321.27	38.91
321.483	32.77
321.697	49.15
321.91	28.67
322.124	47.1
322.337	69.63
322.55	34.82
322.763	112.64
322.977	49.15
323.19	-59.39
323.403	16.38
323.617	63.49
323.83	63.49
324.043	61.44
324.256	59.39
324.469	12.29
324.683	14.34
324.896	14.34
325.109	40.96
325.322	-16.38
325.535	57.34
325.748	104.45
325.962	-6.14
326.175	30.72
326.388	88.06
326.601	57.34
326.814	30.72
327.027	69.63
327.24	10.24
327.453	34.82
327.666	28.67
327.879	69.63
328.092	79.87
328.305	8.19
328.518	8.19
328.731	16.38
328.944	45.06
329.157	28.67
329.37	26.62
329.583	79.87
329.796	61.44
330.009	-77.82
330.222	4.1
330.435	4.1
330.648	32.77
330.861	129.02
331.073	8.19
331.286	4.1
331.499	81.92
331.712	-20.48
331.925	86.01
332.138	-6.14
332.35	116.73
332.563	32.77
332.776	59.39
332.989	96.25
333.202	141.31
333.414	32.77
333.627	71.68
333.84	81.92
334.053	-32.77
334.265	18.43
334.478	40.96
334.691	22.53
334.903	24.58
335.116	47.1
335.329	118.78
335.541	51.2
335.754	135.17
335.966	43.01
336.179	71.68
336.392	36.86
336.604	104.45
336.817	77.82
337.029	133.12
337.242	40.96
337.454	69.63
337.667	57.34
337.88	96.25
338.092	30.72
338.305	116.73
338.517	-32.77
338.729	40.96
338.942	30.72
339.154	24.58
339.367	77.82
339.579	28.67
339.792	-18.43
340.004	118.78
340.217	49.15
340.429	57.34
340.641	-12.29
340.854	-40.96
341.066	57.34
341.278	65.54
341.491	40.96
341.703	100.35
341.915	53.25
342.128	73.73
342.34	47.1
342.552	45.06
342.764	116.73
342.977	65.54
343.189	73.73
343.401	69.63
343.613	-24.58
343.826	40.96
344.038	4.1
344.25	61.44
344.462	22.53
344.674	116.73
344.886	59.39
345.099	-22.53
345.311	49.15
345.523	-8.19
345.735	43.01
345.947	57.34
346.159	22.53
346.371	6.14
346.583	47.1
346.795	108.54
347.007	55.3
347.219	47.1
347.431	32.77
347.643	90.11
347.855	45.06
348.067	184.32
348.279	73.73
348.491	102.4
348.703	47.1
348.915	-14.34
349.127	18.43
349.339	110.59
349.551	88.06
349.763	55.3
349.975	94.21
350.187	96.25
350.399	120.83
350.61	102.4
350.822	24.58
351.034	94.21
351.246	36.86
351.458	10.24
351.669	-8.19
351.881	43.01
352.093	6.14
352.305	92.16
352.517	65.54
352.728	14.34
352.94	61.44
353.152	98.3
353.363	-6.14
353.575	8.19
353.787	106.49
353.999	83.97
354.21	61.44
354.422	16.38
354.633	32.77
354.845	90.11
355.057	55.3
355.268	61.44
355.48	65.54
355.692	-4.1
355.903	20.48
356.115	43.01
356.326	73.73
356.538	120.83
356.749	55.3
356.961	20.48
357.172	4.1
357.384	45.06
357.595	114.69
357.807	135.17
358.018	6.14
358.23	4.1
358.441	143.36
358.653	88.06
358.864	71.68
359.075	59.39
359.287	22.53
359.498	94.21
359.709	75.77
359.921	59.39
360.132	104.45
360.344	53.25
360.555	47.1
360.766	34.82
360.977	51.2
361.189	86.01
361.4	67.58
361.611	63.49
361.823	83.97
362.034	18.43
362.245	-32.77
362.456	114.69
362.667	67.58
362.879	141.31
363.09	137.21
363.301	98.3
363.512	88.06
363.723	83.97
363.935	-45.06
364.146	38.91
364.357	83.97
364.568	45.06
364.779	36.86
364.99	73.73
365.201	49.15
365.412	65.54
365.623	47.1
365.834	53.25
366.045	61.44
366.256	65.54
366.467	98.3
366.678	61.44
366.889	75.77
367.1	47.1
367.311	61.44
367.522	73.73
367.733	73.73
367.944	122.88
368.155	49.15
368.366	81.92
368.577	65.54
368.788	147.45
368.999	45.06
369.209	59.39
369.42	6.14
369.631	114.69
369.842	34.82
370.053	67.58
370.264	81.92
370.474	-4.1
370.685	81.92
370.896	86.01
371.107	104.45
371.317	126.97
371.528	63.49
371.739	18.43
371.95	79.87
372.16	157.69
372.371	38.91
372.582	16.38
372.792	102.4
373.003	110.59
373.214	45.06
373.424	98.3
373.635	-2.05
373.846	190.46
374.056	110.59
374.267	32.77
374.477	86.01
374.688	61.44
374.898	98.3
375.109	-12.29
375.319	61.44
375.53	83.97
375.74	77.82
375.951	90.11
376.161	83.97
376.372	94.21
376.582	79.87
376.793	88.06
377.003	65.54
377.214	94.21
377.424	126.97
377.635	90.11
377.845	65.54
378.055	155.65
378.266	57.34
378.476	30.72
378.686	45.06
378.897	90.11
379.107	57.34
379.317	73.73
379.528	61.44
379.738	0
379.948	-14.34
380.158	75.77
380.369	32.77
380.579	65.54
380.789	65.54
380.999	131.07
381.21	32.77
381.42	90.11
381.63	86.01
381.84	83.97
382.05	92.16
382.261	108.54
382.471	86.01
382.681	47.1
382.891	79.87
383.101	145.41
383.311	86.01
383.521	20.48
383.731	147.45
383.941	73.73
384.151	137.21
384.361	135.17
384.571	40.96
384.781	63.49
384.991	153.6
385.201	98.3
385.411	178.17
385.621	69.63
385.831	57.34
386.041	88.06
386.251	8.19
386.461	90.11
386.671	131.07
386.881	110.59
387.091	-2.05
387.301	57.34
387.511	122.88
387.72	53.25
387.93	83.97
388.14	83.97
388.35	45.06
388.56	55.3
388.769	51.2
388.979	147.45
389.189	16.38
389.399	77.82
389.609	83.97
389.818	98.3
390.028	47.1
390.238	63.49
390.447	88.06
390.657	45.06
390.867	120.83
391.076	45.06
391.286	135.17
391.496	67.58
391.705	139.26
391.915	94.21
392.125	86.01
392.334	118.78
392.544	176.13
392.753	135.17
392.963	63.49
393.172	165.89
393.382	120.83
393.591	114.69
393.801	114.69
394.01	176.13
394.22	81.92
394.429	116.73
394.639	116.73
394.848	53.25
395.058	102.4
395.267	102.4
395.477	94.21
395.686	178.17
395.895	81.92
396.105	208.89
396.314	149.5
396.524	112.64
396.733	120.83
396.942	202.75
397.152	102.4
397.361	120.83
397.57	106.49
397.78	133.12
397.989	90.11
398.198	137.21
398.407	129.02
398.617	145.41
398.826	129.02
399.035	161.79
399.244	135.17
399.453	151.55
399.663	182.27
399.872	176.13
400.081	110.59
400.29	155.65
400.499	129.02
400.708	104.45
400.917	137.21
401.127	135.17
401.336	118.78
401.545	276.48
401.754	172.03
401.963	192.51
402.172	200.7
402.381	88.06
402.59	188.41
402.799	169.98
403.008	180.22
403.217	208.89
403.426	217.08
403.635	163.84
403.844	253.95
404.053	192.51
404.262	245.76
404.471	251.9
404.68	268.28
404.888	208.89
405.097	245.76
405.306	112.64
405.515	249.85
405.724	217.08
405.933	286.72
406.142	333.82
406.35	172.03
406.559	296.96
406.768	307.2
406.977	292.86
407.185	280.57
407.394	262.14
407.603	309.24
407.812	350.2
408.02	319.48
408.229	352.25
408.438	301.05
408.646	276.48
408.855	438.27
409.064	387.07
409.272	481.27
409.481	438.27
409.69	374.78
409.898	409.59
410.107	477.18
410.315	499.7
410.524	475.13
410.733	475.13
410.941	374.78
411.15	520.18
411.358	550.9
411.567	557.05
411.775	632.82
411.984	622.58
412.192	667.64
412.401	741.36
412.609	647.16
412.818	751.6
413.026	718.84
413.234	763.89
413.443	690.17
413.651	858.1
413.86	784.37
414.068	913.39
414.276	921.59
414.485	983.02
414.693	952.31
414.901	1066.99
415.11	1003.5
415.318	1064.94
415.526	1103.86
415.734	1110
415.943	1165.29
416.151	1273.84
416.359	1241.07
416.567	1261.55
416.776	1318.89
416.984	1447.91
417.192	1441.77
417.4	1429.48
417.608	1431.53
417.817	1468.39
418.025	1560.55
418.233	1662.95
418.441	1683.43
418.649	1695.72
418.857	1851.36
419.065	2058.21
419.273	1945.57
419.481	2158.56
419.689	2052.06
419.897	2232.29
420.105	2287.58
420.313	2295.77
420.521	2408.41
420.729	2398.17
420.937	2580.44
421.145	2602.97
421.353	2643.93
421.561	2971.6
421.769	2846.68
421.977	3188.69
422.185	3010.51
422.393	3174.35
422.601	3518.41
422.809	3258.32
423.017	3325.9
423.224	3719.11
423.432	3536.84
423.64	3590.09
423.848	4079.55
424.056	3962.82
424.263	4351.93
424.471	4227.01
424.679	4503.48
424.887	4636.6
425.094	4693.94
425.302	4683.7
425.51	5038
425.718	5113.78
425.925	5134.26
426.133	5380.01
426.341	5654.44
426.548	5810.09
426.756	5822.38
426.964	5945.25
427.171	6145.95
427.379	6629.27
427.586	6399.9
427.794	6743.96
428.001	7112.6
428.209	7454.61
428.417	7276.43
428.624	7808.9
428.832	7806.86
429.039	7833.48
429.247	7726.99
429.454	8408.96
429.662	8931.19
429.869	8304.51
430.076	9002.87
430.284	8853.37
430.491	9078.65
430.699	9541.49
430.906	9654.12
431.114	9764.71
431.321	10014.57
431.528	10282.85
431.736	10942.3
431.943	11495.25
432.15	11065.18
432.358	11269.97
432.565	11999.05
432.772	11736.91
432.979	12545.86
433.187	12564.29
433.394	12732.22
433.601	13399.86
433.808	13657.9
434.016	13338.42
434.223	14120.74
434.43	14882.59
434.637	14593.83
434.844	15595.28
435.052	15767.31
435.259	15570.71
435.466	15957.77
435.673	15709.97
435.88	16672.51
436.087	17575.67
436.294	17491.7
436.501	17141.5
436.708	17626.87
436.915	18183.91
437.122	19214.04
437.329	18802.4
437.537	19723.99
437.743	20094.67
437.95	19766.99
438.157	20485.83
438.364	21630.65
438.571	21534.39
438.778	21440.18
438.985	23668.37
439.192	22398.63
439.399	23303.84
439.606	22646.44
439.813	23989.91
440.02	25702.01
440.227	24964.74
440.433	24886.92
440.64	25667.19
440.847	25298.56
441.054	26455.66
441.261	27989.59
441.467	27698.78
441.674	27895.38
441.881	28669.51
442.088	29156.93
442.294	28610.12
442.501	29560.38
442.708	29906.49
442.914	31247.91
443.121	32601.61
443.328	31610.4
443.534	34004.47
443.741	32837.13
443.948	32595.47
444.154	35096.04
444.361	34113.02
444.568	34745.84
444.774	34883.05
444.981	35026.41
445.187	36290.01
445.394	37668.29
445.6	37268.94
445.807	40691.09
446.013	38778.29
446.22	39407.01
446.426	41166.22
446.633	41321.87
446.839	42390.91
447.046	41117.07
447.252	42968.43
447.459	43279.72
447.665	42917.23
447.871	44512.6
448.078	46746.93
448.284	44467.55
448.491	45778.25
448.697	47142.19
448.903	47682.86
449.11	47867.17
449.316	47156.53
449.522	48227.62
449.728	49556.75
449.935	49923.33
450.141	49872.13
450.347	50808.06
450.553	49042.71
450.76	49851.66
450.966	51162.36
451.172	51008.76
451.378	51963.11
451.584	50930.93
451.791	52331.75
451.997	51999.97
452.203	52311.27
452.409	52270.31
452.615	52018.41
452.821	50562.3
453.027	49874.18
453.233	52438.24
453.44	50248.96
453.646	50763
453.852	50621.69
454.058	51436.78
454.264	49716.49
454.47	50906.36
454.676	49423.63
454.882	51250.42
455.088	47131.95
455.294	47748.39
455.5	48166.18
455.705	48553.24
455.911	46755.13
456.117	45931.84
456.323	45256.01
456.529	42790.26
456.735	44565.85
456.941	43574.63
457.147	42874.23
457.352	41733.51
457.558	41293.19
457.764	41325.96
457.97	40256.92
458.176	39572.9
458.381	39464.36
458.587	37529.03
458.793	37438.92
458.999	35530.21
459.204	38399.41
459.41	37252.55
459.616	35120.62
459.821	34792.94
460.027	34672.11
460.233	33963.51
460.438	32362
460.644	32941.58
460.85	31276.58
461.055	30385.71
461.261	30379.57
461.466	28431.95
461.672	27555.42
461.878	29552.19
462.083	27618.91
462.289	27190.88
462.494	26953.32
462.7	25740.92
462.905	24870.53
463.111	25802.36
463.316	25904.76
463.522	25298.56
463.727	24960.64
463.932	25568.89
464.138	25175.68
464.343	25093.76
464.549	24532.62
464.754	25253.5
464.959	25087.62
465.165	25038.47
465.37	23907.99
465.575	23455.39
465.781	24174.22
465.986	24458.89
466.191	23518.87
466.397	22984.35
466.602	21819.06
466.807	22593.19
467.012	22576.81
467.218	22740.65
467.423	22523.56
467.628	22513.32
467.833	23576.22
468.038	22505.13
468.244	22013.62
468.449	22574.76
468.654	21923.51
468.859	22222.51
469.064	22304.43
469.269	20879.04
469.474	21149.37
469.679	21548.73
469.885	20711.11
470.09	21210.81
470.295	21036.74
470.5	20346.57
470.705	20606.66
470.91	20250.31
471.115	20078.29
471.32	20229.84
471.525	20066
471.73	19449.56
471.935	19476.18
472.139	18654.95
472.344	19244.76
472.549	19011.29
472.754	18419.43
472.959	18276.07
473.164	17921.77
473.369	17919.73
473.574	18339.56
473.778	18286.31
473.983	18089.71
474.188	17932.01
474.393	17141.5
474.598	17301.24
474.802	17143.55
475.007	17108.73
475.212	16627.46
475.417	16338.69
475.621	16287.5
475.826	16359.17
476.031	16348.93
476.235	16004.88
476.44	16172.81
476.645	15566.61
476.849	15941.39
477.054	15486.74
477.259	15249.18
477.463	15351.57
477.668	14868.25
477.872	14903.07
478.077	14593.83
478.282	14413.6
478.486	14448.42
478.691	14436.13
478.895	14317.35
479.1	14305.06
479.304	14253.86
479.509	13635.38
479.713	13938.48
479.918	13725.49
480.122	13635.38
480.326	13803.31
480.531	13799.21
480.735	13705.01
480.94	13438.77
481.144	13926.19
481.348	13342.52
481.553	13518.64
481.757	13121.34
481.961	13223.73
482.166	13647.66
482.37	13520.69
482.574	13154.1
482.778	13309.75
482.983	13414.2
483.187	13303.6
483.391	13107
483.595	13131.58
483.8	13135.67
484.004	13074.23
484.208	13311.8
484.412	13195.06
484.616	12930.87
484.821	13227.83
485.025	13334.32
485.229	13485.87
485.433	13297.46
485.637	13125.43
485.841	13012.79
486.045	13107
486.249	13350.71
486.453	13195.06
486.657	13360.95
486.861	13367.09
487.065	13018.94
487.269	13094.71
487.473	12826.43
487.677	13172.53
487.881	13242.17
488.085	13367.09
488.289	13217.59
488.493	13307.7
488.697	13518.64
488.901	13246.26
489.105	13360.95
489.309	13504.31
489.512	13207.35
489.716	13457.2
489.92	13584.18
490.124	13317.94
490.328	13639.47
490.531	13004.6
490.735	13469.49
490.939	13434.67
491.143	13506.35
491.346	13319.99
491.55	13672.24
491.754	13854.51
491.958	13977.39
492.161	13768.49
492.365	14026.54
492.569	13979.43
492.772	14030.63
492.976	13958.95
493.18	14106.41
493.383	14438.18
493.587	14407.46
493.79	14741.28
493.994	14597.92
494.197	14579.49
494.401	14731.04
494.605	14751.52
494.808	15040.28
495.012	14946.08
495.215	15122.2
495.419	15370.01
495.622	15357.72
495.825	15376.15
496.029	15402.77
496.232	15793.93
496.436	15816.46
496.639	16172.81
496.843	16215.82
497.046	16353.03
497.249	16498.44
497.453	16697.09
497.656	16629.51
497.859	16885.5
498.063	16981.76
498.266	17610.48
498.469	17141.5
498.673	17450.74
498.876	17817.33
499.079	17884.91
499.282	17927.92
499.485	18276.07
499.689	18300.65
499.892	18759.39
500.095	18999.01
500.298	19410.65
500.501	19072.73
500.705	19515.09
500.908	19728.08
501.111	19941.07
501.314	20166.35
501.517	20512.46
501.72	20784.83
501.923	20524.74
502.126	21243.58
502.329	21298.88
502.532	21470.9
502.735	21526.2
502.938	22165.17
503.141	22476.46
503.344	22380.2
503.547	22412.97
503.75	22720.17
503.953	23094.94
504.156	23473.82
504.359	23643.8
504.562	23647.9
504.765	24385.16
504.968	24426.12
505.17	24606.34
505.373	24874.63
505.576	25183.87
505.779	25575.03
505.982	25671.29
506.185	25671.29
506.387	26226.29
506.59	26046.07
506.793	26945.12
506.996	26691.18
507.198	27754.07
507.401	27512.41
507.604	27688.54
507.807	28190.29
508.009	28270.16
508.212	28739.15
508.415	29333.06
508.617	29296.19
508.82	29826.62
509.022	29591.1
509.225	30099
509.428	30387.76
509.63	30404.14
509.833	30838.31
510.035	31589.92
510.238	31403.55
510.44	31931.93
510.643	32751.12
510.845	32601.61
511.048	32701.97
511.25	33113.61
511.453	33275.4
511.655	34477.55
511.858	33662.46
512.06	34315.76
512.262	34801.13
512.465	34838
512.667	35257.83
512.87	35448.29
513.072	36179.42
513.274	36427.22
513.477	36619.73
513.679	36861.39
513.881	37547.46
514.084	37852.61
514.286	37744.06
514.488	38454.71
514.69	39005.61
514.893	39478.69
515.095	39022
515.297	39523.75
515.499	40183.19
515.701	40822.16
515.904	40523.16
516.106	41092.49
516.308	41561.48
516.51	42096
516.712	41831.81
516.914	42370.43
517.116	43152.75
517.318	43181.42
517.52	43730.28
517.722	43789.67
517.925	44295.52
518.127	45026.64
518.329	44893.52
518.531	45090.13
518.733	45620.55
518.935	46398.78
519.136	45999.43
519.338	46904.63
519.54	47162.67
519.742	47807.78
519.944	47314.22
520.146	48217.38
520.348	48360.73
520.55	49075.48
520.752	49057.04
520.954	50054.4
521.155	49448.21
521.357	50210.05
521.559	50488.57
521.761	51381.49
521.963	51221.75
522.164	51590.38
522.366	51864.81
522.568	52004.07
522.77	52315.36
522.971	53404.88
523.173	53040.34
523.375	53527.76
523.576	53806.28
523.778	53716.17
523.98	54437.06
524.181	54404.29
524.383	54701.25
524.584	55358.64
524.786	55317.68
524.988	54895.8
525.189	55628.98
525.391	56489.12
525.592	56437.92
525.794	56485.03
525.995	56657.06
526.197	56927.39
526.398	57257.11
526.6	57552.02
526.801	57814.16
527.003	58295.43
527.204	57975.95
527.406	58453.12
527.607	58164.36
527.808	58950.78
528.01	58336.39
528.211	58967.16
528.412	59454.58
528.614	59341.94
528.815	59419.77
529.016	59970.67
529.218	59057.27
529.419	59810.93
529.62	59974.76
529.822	59763.82
530.023	59790.45
530.224	60306.54
530.425	60177.51
530.626	60163.18
530.828	59833.45
531.029	61291.61
531.23	60120.17
531.431	60640.35
531.632	60540
531.833	60757.09
532.035	60824.67
532.236	61133.92
532.437	60871.78
532.638	60490.85
532.839	61080.67
533.04	61461.59
533.241	61064.28
533.442	61631.57
533.643	61391.96
533.844	61447.25
534.045	61279.32
534.246	61109.34
534.447	61572.18
534.648	61023.32
534.849	61865.04
535.05	61275.22
535.251	61359.19
535.451	61414.49
535.652	61598.8
535.853	61789.27
536.054	61563.99
536.255	62055.5
536.456	61377.62
536.657	62346.31
536.857	61375.58
537.058	61361.24
537.259	62006.35
537.46	61645.91
537.66	61809.74
537.861	61885.52
538.062	61666.39
538.263	62420.04
538.463	61688.91
538.664	61795.41
538.865	61994.06
539.065	62137.42
539.266	61609.04
539.466	62178.38
539.667	61156.44
539.868	62346.31
540.068	61951.05
540.269	61879.38
540.469	61846.61
540.67	61750.35
540.87	61652.05
541.071	61598.8
541.271	61834.32
541.472	61764.69
541.672	61891.66
541.873	61482.07
542.073	61156.44
542.274	62018.64
542.474	61740.11
542.675	61326.42
542.875	61936.72
543.075	61852.75
543.276	61158.49
543.476	61733.97
543.676	61459.54
543.877	62112.84
544.077	61322.33
544.277	61373.53
544.478	61588.56
544.678	61897.81
544.878	61477.97
545.078	61703.25
545.279	60376.17
545.479	61080.67
545.679	61310.04
545.879	61156.44
546.079	61250.65
546.28	61412.44
546.48	60863.58
546.68	61375.58
546.88	61379.67
547.08	61576.28
547.28	61152.35
547.48	60900.45
547.68	61371.48
547.88	61066.33
548.081	61389.91
548.281	61277.27
548.481	61015.13
548.681	61705.3
548.881	61449.3
549.081	61514.84
549.28	60855.39
549.48	61723.73
549.68	60781.66
549.88	62047.31
550.08	60687.46
550.28	61205.59
550.48	60689.51
550.68	61312.09
550.88	60681.31
551.08	60777.57
551.279	61052
551.479	60638.31
551.679	61052
551.879	60609.64
552.079	60982.37
552.278	60570.72
552.478	61138.01
552.678	61105.24
552.878	61027.42
553.077	60765.28
553.277	60404.84
553.477	61301.85
553.676	60415.08
553.876	60793.95
554.076	60449.89
554.275	60828.77
554.475	59833.45
554.674	60814.43
554.874	60195.95
555.074	60353.64
555.273	60533.86
555.473	60834.91
555.672	60030.06
555.872	60357.73
556.071	60294.25
556.271	60781.66
556.47	60064.88
556.67	59966.57
556.869	59614.32
557.068	60062.83
557.268	59438.2
557.467	59892.85
557.667	59786.35
557.866	59442.29
558.065	59556.98
558.265	59706.48
558.464	59075.71
558.663	59851.89
558.863	58762.37
559.062	59540.6
559.261	58813.57
559.461	59511.92
559.66	58567.81
559.859	59020.41
560.058	58852.48
560.258	58610.82
560.457	57959.56
560.656	58520.71
560.855	58375.3
561.054	58668.16
561.253	58242.18
561.453	58254.47
561.652	58641.54
561.851	58532.99
562.05	57730.19
562.249	57625.74
562.448	58166.41
562.647	58008.71
562.846	57691.28
563.045	57943.18
563.244	57015.45
563.443	57844.88
563.642	56865.95
563.841	57361.56
564.04	56980.63
564.239	57521.3
564.438	56493.22
564.637	57162.9
564.836	57099.42
565.035	56190.12
565.234	56581.28
565.432	56583.33
565.631	55915.69
565.83	56356
566.029	56245.41
566.228	55889.07
566.427	55860.4
566.625	55895.21
566.824	55157.94
567.023	55850.16
567.222	54973.63
567.42	55514.29
567.619	54789.31
567.818	55012.54
568.016	55084.22
568.215	54994.1
568.414	55078.07
568.612	55125.17
568.811	54420.67
569.01	54695.1
569.208	53892.3
569.407	54570.18
569.605	53906.63
569.804	54361.28
570.002	53617.87
570.201	53923.02
570.4	53624.01
570.598	53093.59
570.797	53740.75
570.995	53454.03
571.193	52724.96
571.392	53562.57
571.59	52962.52
571.789	52530.4
571.987	52692.19
572.186	52589.79
572.384	52462.82
572.582	52577.5
572.781	52454.62
572.979	51459.31
573.177	52047.08
573.376	52501.73
573.574	51240.18
573.772	51928.3
573.971	51598.57
574.169	51422.45
574.367	50971.89
574.565	51414.26
574.763	50889.98
574.962	51021.05
575.16	50719.99
575.358	50877.69
575.556	49988.87
575.754	50687.23
575.952	49777.93
576.151	50599.16
576.349	50089.22
576.547	50062.6
576.745	49646.86
576.943	50107.65
577.141	49947.91
577.339	49796.36
577.537	49272.08
577.735	49366.29
577.933	48715.03
578.131	48932.12
578.329	48616.73
578.527	48653.59
578.725	48792.86
578.923	48686.36
579.121	48252.19
579.319	48772.38
579.516	48444.7
579.714	48616.73
579.912	48155.94
580.11	48213.28
580.308	47672.62
580.506	47740.2
580.704	47449.39
580.901	47658.28
581.099	47996.2
581.297	47039.79
581.495	46400.83
581.692	47379.76
581.89	46622.01
582.088	46548.28
582.285	46363.96
582.483	46634.3
582.681	46523.71
582.878	46347.58
583.076	45993.28
583.274	46021.95
583.471	45346.12
583.669	45806.92
583.866	45401.42
584.064	46171.46
584.262	45022.54
584.459	45477.19
584.657	45286.73
584.854	45131.09
585.052	44731.73
585.249	44842.32
585.447	45260.11
585.644	44105.05
585.841	44283.23
586.039	44381.53
586.236	43933.03
586.434	43971.94
586.631	43978.08
586.828	44070.24
587.026	44287.32
587.223	43488.62
587.42	43582.82
587.618	43320.68
587.815	42800.5
588.012	42902.9
588.21	42472.82
588.407	43181.42
588.604	42837.36
588.801	42255.74
588.999	42796.4
589.196	42302.84
589.393	42169.72
589.59	42052.99
589.787	42270.07
589.984	41567.62
590.182	41487.75
590.379	41469.32
590.576	41448.84
590.773	41522.57
590.97	41424.26
591.167	41364.87
591.364	40392.09
591.561	41264.52
591.758	40715.67
591.955	40744.34
592.152	40650.13
592.349	40580.5
592.546	40275.35
592.743	40496.53
592.94	39937.44
593.137	40248.73
593.334	40175
593.531	39564.71
593.727	40344.98
593.924	39882.14
594.121	39308.71
594.318	39519.65
594.515	39269.8
594.712	39357.86
594.908	39175.59
595.105	39112.11
595.302	38436.28
595.499	38565.3
595.696	38630.83
595.892	38307.26
596.089	38380.98
596.286	38520.24
596.482	38012.35
596.679	37969.34
596.876	38403.51
597.072	38034.88
597.269	38192.57
597.466	37295.56
597.662	37762.5
597.859	37520.84
598.055	37445.06
598.252	37313.99
598.448	37066.19
598.645	36865.49
598.841	36480.47
599.038	36838.86
599.234	36691.41
599.431	36406.74
599.627	36464.08
599.824	36490.71
600.02	36054.49
600.217	36496.85
600.413	35851.74
600.609	35710.43
600.806	36013.53
601.002	35849.69
601.198	35655.14
601.395	35395.04
601.591	35536.35
601.787	35208.68
601.984	35509.73
602.18	35331.56
602.376	35538.4
602.572	34893.29
602.769	34711.02
602.965	34463.22
603.161	34678.25
603.357	34293.24
603.553	34309.62
603.75	34063.86
603.946	34008.57
604.142	34076.15
604.338	33707.52
604.534	34141.69
604.73	33549.82
604.926	33551.87
605.122	33676.8
605.318	33254.92
605.514	33154.57
605.71	32976.39
605.906	33177.09
606.102	33046.02
606.298	33097.22
606.494	32837.13
606.69	32587.28
606.886	32833.03
607.082	32556.56
607.278	32701.97
607.474	32194.07
607.67	32708.11
607.866	31772.19
608.062	32855.56
608.257	31936.02
608.453	32040.47
608.649	32192.02
608.845	31940.12
609.041	32122.39
609.236	31729.18
609.432	31551.01
609.628	31301.15
609.824	31751.71
610.019	31495.71
610.215	31252
610.411	31802.91
610.606	31018.53
610.802	31338.02
610.998	31319.59
611.193	31428.13
611.389	30932.52
611.584	30989.86
611.78	30510.64
611.976	30742.06
612.171	30760.49
612.367	30563.89
612.562	30813.74
612.758	30148.15
612.953	30074.42
613.149	30762.54
613.344	30047.8
613.539	30891.56
613.735	30062.13
613.93	30156.34
614.126	29972.02
614.321	30492.21
614.517	30068.28
614.712	30156.34
614.907	29759.03
615.103	29967.93
615.298	29478.46
615.493	30094.9
615.688	29673.02
615.884	29972.02
616.079	29249.09
616.274	29474.37
616.47	29232.71
616.665	29410.88
616.86	28950.09
617.055	29222.47
617.25	29285.95
617.445	29496.89
617.641	28556.88
617.836	28747.34
618.031	28632.65
618.226	29109.83
618.421	28511.82
618.616	28954.18
618.811	28214.87
619.006	28405.33
619.201	28051.03
619.396	27930.2
619.591	27846.23
619.786	27919.96
619.981	27588.19
620.176	27934.29
620.371	27565.66
620.566	27620.95
620.761	27319.9
620.956	27432.54
621.151	27250.27
621.346	27080.29
621.541	26459.76
621.735	27156.07
621.93	26558.06
622.125	26558.06
622.32	26115.7
622.515	26377.84
622.709	26152.56
622.904	25857.65
623.099	25874.04
623.294	25972.34
623.488	25620.09
623.683	25708.15
623.878	25388.67
624.072	25290.37
624.267	25476.73
624.462	24964.74
624.656	24888.96
624.851	24958.6
625.046	24714.89
625.24	24155.79
625.435	24422.03
625.629	24356.49
625.824	23889.56
626.018	24280.72
626.213	23453.34
626.407	23883.41
626.602	23535.26
626.796	23721.62
626.991	23531.16
627.185	23305.88
627.38	23217.82
627.574	23088.8
627.768	22425.26
627.963	22806.18
628.157	22496.94
628.352	22929.06
628.546	22251.18
628.74	22474.41
628.935	22025.9
629.129	22161.07
629.323	21788.34
629.517	21792.44
629.712	21608.12
629.906	21540.54
630.1	21386.94
630.294	21315.26
630.489	21319.35
630.683	21202.62
630.877	21122.75
631.071	20948.67
631.265	21001.92
631.459	20588.23
631.653	20469.45
631.848	20786.88
632.042	20367.05
632.236	20534.98
632.43	20354.76
632.624	20160.2
632.818	19916.5
633.012	19760.85
633.206	19783.38
633.4	19977.94
633.594	19459.8
633.788	19662.55
633.982	19439.32
634.176	19279.58
634.369	19463.9
634.563	19146.46
634.757	19052.25
634.951	18937.57
635.145	18638.56
635.339	18931.42
635.533	18552.55
635.726	18788.07
635.92	18403.05
636.114	18360.04
636.308	18054.89
636.501	18284.26
636.695	18024.17
636.889	18167.53
637.083	17833.71
637.276	17972.97
637.47	17753.84
637.664	17700.59
637.857	17549.04
638.051	17680.11
638.244	17241.85
638.438	17350.39
638.632	17088.25
638.825	17061.63
639.019	16883.45
639.212	17037.05
639.406	16834.3
639.599	16584.45
639.793	16686.85
639.986	16508.68
640.18	16766.72
640.373	16314.12
640.567	16258.82
640.76	16215.82
640.954	16011.02
641.147	15871.76
641.34	15931.15
641.534	15955.72
641.727	15550.23
641.92	15906.57
642.114	15517.46
642.307	15386.39
642.5	15122.2
642.694	15365.91
642.887	15087.39
643.08	15038.23
643.273	15109.91
643.467	14872.35
643.66	14972.7
643.853	14956.32
644.046	14460.71
644.239	14671.65
644.432	14554.91
644.626	14460.71
644.819	14137.13
645.012	14333.73
645.205	14321.45
645.398	14282.53
645.591	14085.93
645.784	14368.55
645.977	13864.75
646.17	13903.66
646.363	13879.08
646.556	13637.42
646.749	13856.56
646.942	13705.01
647.135	13729.58
647.328	13514.55
647.521	13422.39
647.714	13199.16
647.907	13336.37
648.099	13211.45
648.292	13444.91
648.485	13109.05
648.678	12758.85
648.871	12963.64
649.064	12865.34
649.256	12656.45
649.449	12742.46
649.642	12523.33
649.835	12304.2
650.027	12425.03
650.22	12185.41
650.413	12527.42
650.605	12255.04
650.798	12212.04
650.991	12214.09
651.183	12083.02
651.376	12040.01
651.568	11872.07
651.761	11751.24
651.954	11814.73
652.146	11749.2
652.339	11751.24
652.531	11626.32
652.724	11593.55
652.916	11296.6
653.109	11755.34
653.301	11368.27
653.494	11534.16
653.686	11347.79
653.879	11396.95
654.071	11194.2
654.263	11198.29
654.456	11231.06
654.648	10983.26
654.84	11061.08
655.033	10936.15
655.225	10837.85
655.417	11003.74
655.61	10620.77
655.802	10843.99
655.994	10708.83
656.186	10751.84
656.379	10628.96
656.571	10616.67
656.763	10489.7
656.955	10293.09
657.148	10588
657.34	10377.06
657.532	10166.12
657.724	10274.66
657.916	10217.32
658.108	10227.56
658.3	10086.25
658.492	10159.97
658.684	9854.83
658.876	9842.54
659.068	9834.35
659.26	9879.4
659.452	9695.08
659.644	9959.27
659.836	9578.35
660.028	9623.41
660.22	9553.77
660.412	9545.58
660.604	9383.79
660.796	9486.19
660.988	9375.6
661.18	9236.34
661.372	9041.78
661.563	9340.79
661.755	9185.14
661.947	9183.09
662.139	9148.28
662.331	9060.21
662.522	8884.09
662.714	8931.19
662.906	8943.48
663.097	8966.01
663.289	8591.23
663.481	8755.07
663.673	8687.48
663.864	8599.42
664.056	8523.65
664.247	8517.5
664.439	8396.67
664.631	8562.56
664.822	8423.3
665.014	8552.32
665.205	8480.64
665.397	8386.43
665.588	8187.78
665.78	8066.95
665.971	8345.47
666.163	8275.84
666.354	8267.65
666.546	8148.87
666.737	8040.33
666.929	7931.78
667.12	8183.68
667.311	8091.52
667.503	8025.99
667.694	7927.69
667.885	7819.14
668.077	7886.73
668.268	7741.32
668.459	7757.71
668.651	7843.72
668.842	7552.91
669.033	7735.18
669.224	7665.55
669.416	7745.42
669.607	7643.02
669.798	7430.03
669.989	7698.31
670.18	7411.6
670.371	7452.56
670.563	7358.35
670.754	7548.81
670.945	7260.05
671.136	7253.91
671.327	7323.54
671.518	7327.63
671.709	7094.16
671.9	7253.91
672.091	7266.19
672.282	7329.68
672.473	7004.05
672.664	7366.54
672.855	7004.05
673.046	6823.83
673.237	7032.72
673.428	6770.58
673.619	6956.95
673.809	6936.47
674	6901.65
674.191	6938.52
674.382	6795.16
674.573	6991.77
674.764	6834.07
674.954	6862.74
675.145	6782.87
675.336	6682.52
675.527	6946.71
675.717	6821.78
675.908	6692.76
676.099	6766.49
676.289	6678.43
676.48	6614.94
676.671	6518.68
676.861	6696.86
677.052	6543.26
677.243	6657.95
677.433	6516.64
677.624	6567.84
677.814	6455.2
678.005	6469.53
678.195	6604.7
678.386	6668.19
678.576	6363.04
678.767	6455.2
678.957	6457.25
679.148	6516.64
679.338	6344.61
679.529	6291.36
679.719	6442.91
679.909	6356.9
680.1	6406.05
680.29	6410.14
680.481	6447.01
680.671	6506.4
680.861	6188.96
681.052	6309.79
681.242	6242.21
681.432	6465.44
681.622	6393.76
681.813	6215.59
682.003	6072.23
682.193	6334.37
682.383	6193.06
682.573	6182.82
682.764	6176.67
682.954	6346.66
683.144	6248.35
683.334	6158.24
683.524	6072.23
683.714	6037.41
683.904	6113.19
684.094	6035.36
684.284	6203.3
684.474	6076.32
684.664	5922.73
684.854	6021.03
685.044	5969.83
685.234	5896.1
685.424	6043.56
685.614	5928.87
685.804	5992.36
685.994	5832.61
686.184	5871.53
686.374	6000.55
686.564	5820.33
686.753	5826.47
686.943	5660.59
687.133	5828.52
687.323	5734.31
687.513	5812.14
687.702	5502.89
687.892	5736.36
688.082	5738.41
688.272	5560.24
688.461	5633.96
688.651	5607.34
688.841	5738.41
689.03	5394.35
689.22	5463.98
689.41	5484.46
689.599	5554.09
689.789	5722.02
689.979	5459.88
690.168	5500.84
690.358	5296.05
690.547	5433.26
690.737	5445.55
690.926	5406.64
691.116	5181.36
691.305	5375.92
691.495	5240.75
691.684	5384.11
691.874	5289.9
692.063	5185.46
692.252	5271.47
692.442	5152.69
692.631	5228.46
692.82	5181.36
693.01	5115.83
693.199	4970.42
693.388	5015.48
693.578	5052.34
693.767	5097.39
693.956	5005.24
694.146	5101.49
694.335	5046.19
694.524	4919.22
694.713	4921.27
694.902	4960.18
695.092	4825.01
695.281	5013.43
695.47	4923.32
695.659	4888.5
695.848	4757.43
696.037	4792.25
696.226	4786.1
696.415	4749.24
696.604	4849.59
696.793	4804.53
696.982	4837.3
697.171	4831.16
697.36	4939.7
697.549	4734.9
697.738	4657.08
697.927	4743.1
698.116	4775.86
698.305	4734.9
698.494	4806.58
698.683	4659.13
698.872	4814.77
699.061	4759.48
699.25	4628.41
699.438	4706.23
699.627	4685.75
699.816	4665.27
700.005	4655.03
700.193	4497.34
700.382	4722.62
700.571	4519.87
700.76	4542.39
700.948	4693.94
701.137	4562.87
701.326	4542.39
701.514	4419.52
701.703	4622.27
701.892	4530.11
702.08	4665.27
702.269	4757.43
702.457	4358.08
702.646	4552.63
702.834	4446.14
703.023	4356.03
703.212	4534.2
703.4	4444.09
703.589	4372.41
703.777	4562.87
703.965	4433.85
704.154	4417.47
704.342	4440
704.531	4319.17
704.719	4446.14
704.907	4503.48
705.096	4485.05
705.284	4405.18
705.472	4540.35
705.661	4407.23
705.849	4550.59
706.037	4421.56
706.226	4497.34
706.414	4435.9
706.602	4382.65
706.79	4433.85
706.979	4431.8
707.167	4325.31
707.355	4280.25
707.543	4470.72
707.731	4407.23
707.919	4480.96
708.107	4317.12
708.296	4454.33
708.484	4313.02
708.672	4360.13
708.86	4333.5
709.048	4349.89
709.236	4333.5
709.424	4278.21
709.612	4452.28
709.8	4470.72
709.988	4329.41
710.176	4263.87
710.364	4321.21
710.551	4204.48
710.739	4274.11
710.927	4360.13
711.115	4212.67
711.303	4317.12
711.491	4347.84
711.679	4231.1
711.866	4284.35
712.054	4337.6
712.242	4300.73
712.43	4292.54
712.617	4456.38
712.805	4382.65
712.993	4202.43
713.181	4143.04
713.368	4241.34
713.556	4360.13
713.744	4227.01
713.931	4237.25
714.119	4167.62
714.306	4349.89
714.494	4243.39
714.682	4341.69
714.869	4114.37
715.057	4249.54
715.244	4231.1
715.432	4366.27
715.619	4366.27
715.807	4220.86
715.994	4360.13
716.182	4173.76
716.369	4257.73
716.556	4270.01
716.744	4163.52
716.931	4229.06
717.119	4298.69
717.306	4290.49
717.493	4128.7
717.681	4282.3
717.868	4057.03
718.055	4243.39
718.242	4034.5
718.43	4255.68
718.617	4204.48
718.804	4212.67
718.991	4343.74
719.179	4124.61
719.366	4071.36
719.553	4175.81
719.74	4073.41
719.927	4169.66
720.114	4044.74
720.301	4104.13
720.488	4077.51
720.676	4155.33
720.863	4014.02
721.05	4165.57
721.237	4216.77
721.424	4161.47
721.611	4104.13
721.798	4042.69
721.985	4138.94
722.172	4083.65
722.358	4079.55
722.545	4071.36
722.732	4081.6
722.919	4157.38
723.106	4145.09
723.293	4091.84
723.48	4171.71
723.667	3981.25
723.853	3989.44
724.04	3989.44
724.227	4050.88
724.414	3907.52
724.6	3925.96
724.787	4018.11
724.974	3899.33
725.161	3915.72
725.347	3872.71
725.534	4104.13
725.72	3952.58
725.907	3864.52
726.094	3950.53
726.28	3932.1
726.467	3917.76
726.653	3985.35
726.84	4001.73
727.027	3889.09
727.213	3805.13
727.4	3792.84
727.586	3835.85
727.773	4079.55
727.959	3901.38
728.145	4024.26
728.332	3850.18
728.518	3936.2
728.705	3885
728.891	3932.1
729.077	3899.33
729.264	3837.89
729.45	3704.78
729.636	3817.41
729.823	3934.15
730.009	3866.57
730.195	3874.76
730.382	3917.76
730.568	3907.52
730.754	3878.85
730.94	3923.91
731.126	3817.41
731.313	3870.66
731.499	3862.47
731.685	3825.61
731.871	3798.98
732.057	3860.42
732.243	3801.03
732.429	3801.03
732.615	3813.32
732.801	3813.32
732.987	3766.21
733.173	3743.69
733.359	3737.54
733.545	3841.99
733.731	3547.08
733.917	3805.13
734.103	3704.78
734.289	3624.9
734.475	3768.26
734.661	3751.88
734.847	3692.49
735.033	3661.77
735.219	3600.33
735.404	3692.49
735.59	3635.14
735.776	3661.77
735.962	3747.78
736.148	3649.48
736.333	3542.99
736.519	3563.47
736.705	3532.75
736.89	3588.04
737.076	3616.71
737.262	3678.15
737.447	3665.86
737.633	3473.36
737.819	3440.59
738.004	3588.04
738.19	3596.23
738.375	3549.13
738.561	3620.81
738.747	3551.18
738.932	3583.95
739.118	3420.11
739.303	3395.53
739.489	3499.98
739.674	3522.51
739.859	3413.96
740.045	3483.59
740.23	3301.33
740.416	3344.33
740.601	3407.82
740.786	3276.75
740.972	3293.13
741.157	3424.2
741.342	3266.51
741.528	3450.83
741.713	3325.9
741.898	3295.18
742.084	3301.33
742.269	3319.76
742.454	3383.24
742.639	3309.52
742.824	3200.98
743.01	3348.43
743.195	3205.07
743.38	3207.12
743.565	3102.67
743.75	3194.83
743.935	3192.78
744.12	3188.69
744.305	3102.67
744.49	3145.68
744.675	3026.9
744.86	3155.92
745.045	2996.18
745.23	3108.82
745.415	2951.12
745.6	3131.34
745.785	2957.27
745.97	2942.93
746.155	3067.86
746.34	2932.69
746.525	3008.47
746.71	2949.07
746.895	2904.02
747.079	2969.55
747.264	2928.6
747.449	2949.07
747.634	2899.92
747.819	2848.72
748.003	2729.94
748.188	2818.01
748.373	2754.52
748.557	2752.47
748.742	2715.61
748.927	2742.23
749.111	2748.37
749.296	2731.99
749.481	2678.74
749.665	2750.42
749.85	2617.3
750.034	2559.96
750.219	2586.58
750.404	2547.67
750.588	2545.63
750.773	2387.93
750.957	2475.99
751.141	2531.29
751.326	2377.69
751.51	2414.56
751.695	2494.43
751.879	2396.12
752.064	2441.18
752.248	2428.89
752.432	2430.94
752.617	2459.61
752.801	2400.22
752.985	2410.46
753.17	2179.04
753.354	2293.73
753.538	2232.29
753.722	2273.25
753.907	2172.89
754.091	2322.4
754.275	2244.57
754.459	2209.76
754.643	2072.54
754.828	2203.61
755.012	1984.48
755.196	2176.99
755.38	2121.7
755.564	2136.03
755.748	2133.98
755.932	2029.54
756.116	2011.11
756.3	2035.68
756.484	1914.85
756.668	2031.58
756.852	1873.89
757.036	1955.81
757.22	1843.17
757.404	1978.34
757.588	1978.34
757.772	1945.57
757.956	1920.99
758.14	1916.9
758.323	1857.51
758.507	1851.36
758.691	1884.13
758.875	1834.98
759.059	1996.77
759.242	1865.7
759.426	1748.97
759.61	1783.78
759.794	1791.97
759.977	1679.33
760.161	1802.21
760.345	1824.74
760.528	1751.01
760.712	1730.53
760.895	1759.21
761.079	1720.29
761.263	1624.04
761.446	1628.14
761.63	1615.85
761.813	1652.71
761.997	1665
762.18	1597.42
762.364	1636.33
762.547	1740.77
762.731	1685.48
762.914	1699.81
763.098	1583.08
763.281	1585.13
763.464	1585.13
763.648	1515.5
763.831	1656.81
764.015	1490.92
764.198	1505.26
764.381	1458.15
764.564	1443.82
764.748	1632.23
764.931	1562.6
765.114	1531.88
765.297	1466.35
765.481	1447.91
765.664	1515.5
765.847	1558.5
766.03	1425.39
766.213	1560.55
766.397	1458.15
766.58	1505.26
766.763	1437.67
766.946	1382.38
767.129	1466.35
767.312	1495.02
767.495	1359.85
767.678	1376.23
767.861	1374.19
768.044	1486.83
768.227	1468.39
768.41	1413.1
768.593	1454.06
768.776	1441.77
768.959	1445.87
769.142	1341.42
769.324	1363.95
769.507	1273.84
769.69	1277.93
769.873	1247.21
770.056	1441.77
770.239	1314.8
770.421	1224.69
770.604	1423.34
770.787	1374.19
770.97	1265.64
771.152	1232.88
771.335	1347.56
771.518	1347.56
771.7	1300.46
771.883	1333.23
772.066	1204.21
772.248	1224.69
772.431	1159.15
772.613	1236.97
772.796	1196.01
772.978	1224.69
773.161	1290.22
773.343	1224.69
773.526	1251.31
773.708	1193.97
773.891	1134.57
774.073	1155.05
774.256	1064.94
774.438	1249.26
774.621	1015.79
774.803	1165.29
774.985	1034.22
775.168	1130.48
775.35	1112.05
775.532	1140.72
775.715	1050.61
775.897	1032.18
776.079	1038.32
776.261	1077.23
776.444	1085.42
776.626	978.93
776.808	972.79
776.99	1028.08
777.173	1060.85
777.355	1015.79
777.537	1011.7
777.719	970.74
777.901	940.02
778.083	919.54
778.265	985.07
778.447	1026.03
778.629	894.96
778.811	995.31
778.993	864.24
779.175	911.35
779.357	991.22
779.539	933.87
779.721	866.29
779.903	929.78
780.085	876.53
780.267	819.19
780.449	847.86
780.631	856.05
780.812	935.92
780.994	868.34
781.176	892.91
781.358	817.14
781.54	874.48
781.721	831.48
781.903	892.91
782.085	790.52
782.267	827.38
782.448	753.65
782.63	841.72
782.812	802.8
782.993	778.23
783.175	839.67
783.357	747.51
783.538	772.08
783.72	716.79
783.901	827.38
784.083	759.8
784.264	763.89
784.446	638.97
784.627	696.31
784.809	729.08
784.99	679.93
785.172	759.8
785.353	694.26
785.535	696.31
785.716	708.6
785.897	665.59
786.079	641.01
786.26	628.73
786.441	626.68
786.623	589.82
786.804	684.02
786.985	610.29
787.167	667.64
787.348	667.64
787.529	579.58
787.71	704.5
787.891	602.1
788.073	548.86
788.254	622.58
788.435	659.45
788.616	612.34
788.797	522.23
788.978	569.34
789.159	520.18
789.34	643.06
789.522	530.42
789.703	634.87
789.884	552.95
790.065	579.58
790.246	653.3
790.427	514.04
790.607	587.77
790.788	540.66
790.969	503.8
791.15	602.1
791.331	462.84
791.512	606.2
791.693	505.85
791.874	458.75
792.054	477.18
792.235	538.62
792.416	520.18
792.597	520.18
792.778	577.53
792.958	530.42
793.139	350.2
793.32	409.59
793.5	421.88
793.681	552.95
793.862	520.18
794.042	493.56
794.223	473.08
794.404	450.55
794.584	483.32
794.765	458.75
794.945	483.32
795.126	452.6
795.306	524.28
795.487	481.27
795.667	417.79
795.848	448.51
796.028	395.26
796.209	446.46
796.389	454.65
796.57	419.83
796.75	446.46
796.93	462.84
797.111	405.5
797.291	415.74
797.471	448.51
797.652	407.55
797.832	358.39
798.012	452.6
798.192	382.97
798.373	385.02
798.553	409.59
798.733	432.12
798.913	385.02
799.093	409.59
799.274	352.25
799.454	331.77
799.634	342.01
799.814	380.92
799.994	434.17
800.174	331.77
800.354	305.15
800.534	247.8
800.714	366.59
800.894	346.11
801.074	305.15
801.254	382.97
801.434	307.2
801.614	382.97
801.794	368.63
801.974	880.63
802.154	446.46
802.334	344.06
802.514	344.06
802.693	290.81
802.873	329.72
803.053	368.63
803.233	325.63
803.413	323.58
803.592	342.01
803.772	204.8
803.952	270.33
804.131	239.61
804.311	286.72
804.491	405.5
804.67	309.24
804.85	323.58
805.03	368.63
805.209	344.06
805.389	352.25
805.568	286.72
805.748	360.44
805.928	258.04
806.107	303.1
806.287	270.33
806.466	299
806.646	296.96
806.825	196.61
807.004	278.52
807.184	288.76
807.363	278.52
807.543	294.91
807.722	352.25
807.901	327.68
808.081	294.91
808.26	188.41
808.439	245.76
808.619	280.57
808.798	278.52
808.977	307.2
809.156	327.68
809.336	272.38
809.515	299
809.694	260.09
809.873	276.48
810.052	237.56
810.231	333.82
810.411	253.95
810.59	321.53
810.769	360.44
810.948	319.48
811.127	229.37
811.306	299
811.485	311.29
811.664	299
811.843	251.9
812.022	253.95
812.201	260.09
812.38	276.48
812.559	225.28
812.737	210.94
812.916	221.18
813.095	210.94
813.274	200.7
813.453	245.76
813.632	180.22
813.811	243.71
813.989	180.22
814.168	184.32
814.347	212.99
814.526	219.13
814.704	188.41
814.883	249.85
815.062	165.89
815.24	223.23
815.419	200.7
815.598	186.37
815.776	221.18
815.955	208.89
816.133	278.52
816.312	251.9
816.49	237.56
816.669	196.61
816.847	196.61
817.026	229.37
817.204	258.04
817.383	212.99
817.561	178.17
817.74	253.95
817.918	133.12
818.097	188.41
818.275	212.99
818.453	249.85
818.632	178.17
818.81	208.89
818.988	172.03
819.167	182.27
819.345	260.09
819.523	141.31
819.701	165.89
819.879	229.37
820.058	196.61
820.236	212.99
820.414	172.03
820.592	186.37
820.77	94.21
820.948	196.61
821.127	129.02
821.305	190.46
821.483	155.65
821.661	165.89
821.839	135.17
822.017	131.07
822.195	202.75
822.373	157.69
822.551	151.55
822.729	204.8
822.907	131.07
823.085	143.36
823.262	204.8
823.44	155.65
823.618	190.46
823.796	212.99
823.974	137.21
824.152	110.59
824.329	104.45
824.507	133.12
824.685	169.98
824.863	143.36
825.04	139.26
825.218	202.75
825.396	112.64
825.574	75.77
825.751	137.21
825.929	129.02
826.107	124.93
826.284	221.18
826.462	110.59
826.639	126.97
826.817	104.45
826.994	126.97
827.172	204.8
827.349	137.21
827.527	174.08
827.704	147.45
827.882	147.45
828.059	155.65
828.237	180.22
828.414	124.93
828.591	163.84
828.769	149.5
828.946	133.12
829.124	126.97
829.301	94.21
829.478	133.12
829.655	139.26
829.833	165.89
830.01	71.68
830.187	151.55
830.364	129.02
830.542	100.35
830.719	204.8
830.896	106.49
831.073	159.74
831.25	16.38
831.427	122.88
831.604	124.93
831.782	153.6
831.959	83.97
832.136	204.8
832.313	86.01
832.49	69.63
832.667	139.26
832.844	8.19
833.021	174.08
833.198	47.1
833.374	141.31
833.551	96.25
833.728	114.69
833.905	188.41
834.082	47.1
834.259	98.3
834.436	147.45
834.612	73.73
834.789	104.45
834.966	69.63
835.143	81.92
835.319	73.73
835.496	147.45
835.673	30.72
835.85	180.22
836.026	51.2
836.203	100.35
836.38	59.39
836.556	96.25
836.733	102.4
836.909	188.41
837.086	86.01
837.262	-20.48
837.439	98.3
837.616	75.77
837.792	102.4
837.968	120.83
838.145	63.49
838.321	118.78
838.498	83.97
838.674	149.5
838.851	102.4
839.027	18.43
839.203	75.77
839.38	73.73
839.556	88.06
839.732	51.2
839.909	55.3
840.085	88.06
840.261	40.96
840.437	157.69
840.614	131.07
840.79	108.54
840.966	159.74
841.142	92.16
841.318	24.58
841.494	159.74
841.671	137.21
841.847	32.77
842.023	22.53
842.199	40.96
842.375	90.11
842.551	81.92
842.727	49.15
842.903	129.02
843.079	71.68
843.255	106.49
843.431	38.91
843.607	51.2
843.783	-36.86
843.959	45.06
844.134	94.21
844.31	116.73
844.486	83.97
844.662	63.49
844.838	71.68
845.013	104.45
845.189	114.69
845.365	71.68
845.541	40.96
845.716	57.34
845.892	65.54
846.068	38.91
846.244	40.96
846.419	45.06
846.595	45.06
846.77	-57.34
846.946	118.78
847.122	122.88
847.297	79.87
847.473	69.63
847.648	53.25
847.824	-24.58
847.999	-18.43
848.175	90.11
848.35	16.38
848.526	90.11
848.701	63.49
848.876	65.54
849.052	49.15
849.227	47.1
849.403	67.58
849.578	8.19
849.753	88.06
849.929	45.06
850.104	-4.1
850.279	47.1
850.454	63.49
850.63	131.07
850.805	28.67
850.98	30.72
851.155	14.34
851.33	155.65
851.505	71.68
851.681	77.82
851.856	57.34
852.031	12.29
852.206	92.16
852.381	67.58
852.556	32.77
852.731	108.54
852.906	98.3
853.081	16.38
853.256	114.69
853.431	81.92
853.606	6.14
853.781	4.1
853.956	28.67
854.131	86.01
854.305	-26.62
854.48	51.2
854.655	71.68
854.83	16.38
855.005	40.96
855.18	61.44
855.354	-6.14
855.529	28.67
855.704	57.34
855.879	57.34
856.053	38.91
856.228	57.34
856.403	22.53
856.577	71.68
856.752	-69.63
856.926	53.25
857.101	73.73
857.276	4.1
857.45	16.38
857.625	104.45
857.799	63.49
857.974	59.39
858.148	34.82
858.323	12.29
858.497	90.11
858.672	-30.72
858.846	59.39
859.02	16.38
859.195	45.06
859.369	26.62
859.543	88.06
859.718	43.01
859.892	8.19
860.066	-14.34
860.241	90.11
860.415	34.82
860.589	30.72
860.763	34.82
860.938	40.96
861.112	96.25
861.286	40.96
861.46	51.2
861.634	73.73
861.808	65.54
861.982	16.38
862.157	-38.91
862.331	34.82
862.505	-4.1
862.679	14.34
862.853	73.73
863.027	28.67
863.201	65.54
863.375	-4.1
863.549	94.21
863.722	86.01
863.896	83.97
864.07	28.67
864.244	79.87
864.418	28.67
864.592	92.16
864.766	-12.29
864.939	36.86
865.113	26.62
865.287	86.01
865.461	-4.1
865.634	24.58
865.808	63.49
865.982	36.86
866.156	-43.01
866.329	49.15
866.503	18.43
866.676	59.39
866.85	96.25
867.024	-8.19
867.197	73.73
867.371	67.58
867.544	59.39
867.718	2.05
867.891	14.34
868.065	73.73
868.238	-45.06
868.412	100.35
868.585	-49.15
868.759	-16.38
868.932	-36.86
869.105	26.62
869.279	-16.38
869.452	-2.05
869.625	-12.29
869.799	-53.25
869.972	6.14
870.145	8.19
870.319	88.06
870.492	-6.14
870.665	49.15
870.838	20.48
871.011	-45.06
871.185	10.24
871.358	-69.63
871.531	32.77
871.704	67.58
871.877	32.77
872.05	-2.05
872.223	12.29
872.396	0
872.569	79.87
872.742	-16.38
872.915	104.45
873.088	-16.38
873.261	-6.14
873.434	71.68
873.607	16.38
873.78	90.11
873.953	-47.1
874.126	-8.19
874.299	-4.1
874.471	-40.96
874.644	20.48
874.817	71.68
874.99	49.15
875.163	0
875.335	2.05
875.508	16.38
875.681	69.63
875.853	6.14
876.026	90.11
876.199	55.3
876.371	65.54
876.544	32.77
876.717	75.77
876.889	10.24
877.062	61.44
877.234	26.62
877.407	-8.19
877.579	51.2
877.752	90.11
877.924	34.82
878.097	47.1
878.269	49.15
878.442	-57.34
878.614	145.41
878.786	59.39
878.959	45.06
879.131	-53.25
879.303	14.34
879.476	-36.86
879.648	32.77
879.82	0
879.993	36.86
880.165	18.43
880.337	86.01
880.509	-14.34
880.681	-22.53
880.854	40.96
881.026	73.73
881.198	18.43
881.37	77.82
881.542	-12.29
881.714	26.62
881.886	-45.06
882.058	53.25
882.23	-2.05
882.402	32.77
882.574	-10.24
882.746	-8.19
882.918	47.1
883.09	14.34
883.262	12.29
883.434	-63.49
883.606	-61.44
883.778	-71.68
883.95	47.1
884.122	30.72
884.293	-8.19
884.465	65.54
884.637	30.72
884.809	-79.87
884.98	24.58
885.152	-2.05
885.324	-18.43
885.496	-34.82
885.667	18.43
885.839	-61.44
886.011	55.3
886.182	40.96
886.354	45.06
886.525	-8.19
886.697	14.34
886.869	36.86
887.04	6.14
887.212	108.54
887.383	69.63
887.555	20.48
887.726	-12.29
887.897	-26.62
888.069	6.14
888.24	-10.24
888.412	34.82
888.583	-83.97
888.754	14.34
888.926	-40.96
889.097	38.91
889.268	12.29
889.44	4.1
889.611	-2.05
889.782	8.19
889.953	-4.1
890.125	67.58
890.296	40.96
890.467	65.54
890.638	-30.72
890.809	-14.34
890.98	2.05
891.151	14.34
891.323	6.14
891.494	18.43
891.665	8.19
891.836	-6.14
892.007	30.72
892.178	40.96
892.349	32.77
892.52	92.16
892.691	14.34
892.862	20.48
893.032	16.38
893.203	-4.1
893.374	0
893.545	63.49
893.716	57.34
893.887	4.1
894.057	-73.73
894.228	-2.05
894.399	-36.86
894.57	79.87
894.74	-40.96
894.911	57.34
895.082	-28.67
895.253	-45.06
895.423	-45.06
895.594	-24.58
895.764	6.14
895.935	16.38
896.106	14.34
896.276	28.67
896.447	47.1
896.617	-12.29
896.788	-32.77
896.958	24.58
897.129	14.34
897.299	24.58
897.47	40.96
897.64	36.86
897.81	16.38
897.981	47.1
898.151	-65.53
898.322	65.54
898.492	-22.53
898.662	28.67
898.832	-6.14
899.003	36.86
899.173	12.29
899.343	-45.06
899.513	-49.15
