Data from USB4F104151__68__10-24-03-072.txt Node

Date: Wed Mar 12 10:24:03 EDT 2025
User: louis
Spectrometer: USB4F10415
Trigger mode: 4
Integration Time (sec): 3.000000E-2
Scans to average: 1
Electric dark correction enabled: true
Nonlinearity correction enabled: false
Boxcar width: 0
XAxis mode: Wavelengths
Number of Pixels in Spectrum: 3648
>>>>>Begin Spectral Data<<<<<
178.204	-136.87
178.424	-136.87
178.644	-136.87
178.864	-120.49
179.084	-114.34
179.304	33.11
179.524	-13.99
179.744	18.77
179.964	63.83
180.184	-34.47
180.404	-71.34
180.624	-1.71
180.844	10.58
181.064	-67.24
181.283	12.63
181.503	24.92
181.723	24.92
181.943	39.25
182.163	29.01
182.383	-50.86
182.602	-7.85
182.822	-40.62
183.042	41.3
183.262	-52.91
183.482	35.16
183.701	-46.76
183.921	39.25
184.141	24.92
184.361	61.78
184.58	-26.28
184.8	8.53
185.02	-13.99
185.239	10.58
185.459	29.01
185.679	39.25
185.898	-95.91
186.118	-5.8
186.338	55.64
186.557	57.68
186.777	-36.52
186.997	45.4
187.216	16.73
187.436	139.6
187.655	76.12
187.875	-22.19
188.095	-30.38
188.314	78.16
188.534	-11.95
188.753	35.16
188.973	41.3
189.192	10.58
189.412	-5.8
189.631	31.06
189.851	8.53
190.07	35.16
190.29	-71.34
190.509	29.01
190.729	51.54
190.948	47.44
191.168	86.36
191.387	112.98
191.607	-30.38
191.826	37.2
192.045	12.63
192.265	-5.8
192.484	26.96
192.704	90.45
192.923	-24.23
193.142	47.44
193.362	63.83
193.581	47.44
193.8	26.96
194.02	12.63
194.239	55.64
194.458	14.68
194.678	24.92
194.897	-9.9
195.116	35.16
195.335	39.25
195.555	4.44
195.774	-5.8
195.993	41.3
196.212	14.68
196.432	31.06
196.651	92.5
196.87	14.68
197.089	37.2
197.308	14.68
197.528	-38.57
197.747	8.53
197.966	-22.19
198.185	31.06
198.404	41.3
198.623	65.88
198.842	31.06
199.062	41.3
199.281	-13.99
199.5	-20.14
199.719	22.87
199.938	16.73
200.157	-13.99
200.376	-46.76
200.595	84.31
200.814	43.35
201.033	-20.14
201.252	51.54
201.471	45.4
201.69	26.96
201.909	65.88
202.128	10.58
202.347	104.79
202.566	6.49
202.785	-79.53
203.004	-26.28
203.223	43.35
203.442	33.11
203.661	14.68
203.879	43.35
204.098	10.58
204.317	-30.38
204.536	76.12
204.755	0.34
204.974	49.49
205.193	2.39
205.411	127.32
205.63	-20.14
205.849	-1.71
206.068	-18.09
206.287	59.73
206.505	41.3
206.724	45.4
206.943	-38.57
207.162	-13.99
207.381	-1.71
207.599	51.54
207.818	-30.38
208.037	31.06
208.255	16.73
208.474	-1.71
208.693	18.77
208.911	-30.38
209.13	43.35
209.349	14.68
209.567	43.35
209.786	61.78
210.005	24.92
210.223	78.16
210.442	-24.23
210.661	121.17
210.879	31.06
211.098	45.4
211.316	6.49
211.535	59.73
211.753	22.87
211.972	-28.33
212.191	-87.72
212.409	-7.85
212.628	18.77
212.846	26.96
213.065	-36.52
213.283	-13.99
213.502	47.44
213.72	-7.85
213.938	8.53
214.157	67.92
214.375	-11.95
214.594	14.68
214.812	-13.99
215.031	-16.04
215.249	-11.95
215.467	-18.09
215.686	10.58
215.904	43.35
216.122	61.78
216.341	-5.8
216.559	-24.23
216.778	4.44
216.996	92.5
217.214	-63.15
217.432	-30.38
217.651	45.4
217.869	57.68
218.087	-5.8
218.306	-22.19
218.524	63.83
218.742	-13.99
218.96	49.49
219.179	-22.19
219.397	24.92
219.615	14.68
219.833	84.31
220.051	-38.57
220.27	8.53
220.488	-40.62
220.706	-3.75
220.924	24.92
221.142	2.39
221.36	63.83
221.578	69.97
221.796	100.69
222.015	-24.23
222.233	47.44
222.451	-3.75
222.669	-30.38
222.887	-22.19
223.105	-40.62
223.323	51.54
223.541	37.2
223.759	29.01
223.977	51.54
224.195	-3.75
224.413	-7.85
224.631	22.87
224.849	31.06
225.067	76.12
225.285	14.68
225.503	47.44
225.721	-9.9
225.939	55.64
226.157	-5.8
226.375	26.96
226.592	112.98
226.81	29.01
227.028	0.34
227.246	57.68
227.464	55.64
227.682	-28.33
227.9	-22.19
228.117	84.31
228.335	-18.09
228.553	-93.87
228.771	-7.85
228.989	12.63
229.206	8.53
229.424	-34.47
229.642	-7.85
229.86	4.44
230.077	143.7
230.295	-1.71
230.513	-13.99
230.731	53.59
230.948	49.49
231.166	31.06
231.384	43.35
231.601	-59.05
231.819	-5.8
232.037	-57
232.254	-28.33
232.472	59.73
232.689	112.98
232.907	33.11
233.125	26.96
233.342	-24.23
233.56	26.96
233.777	-18.09
233.995	-7.85
234.213	22.87
234.43	-36.52
234.648	12.63
234.865	-22.19
235.083	-18.09
235.3	-13.99
235.518	41.3
235.735	59.73
235.953	88.4
236.17	-7.85
236.388	-34.47
236.605	6.49
236.822	43.35
237.04	18.77
237.257	14.68
237.475	-46.76
237.692	92.5
237.909	-18.09
238.127	-22.19
238.344	-63.15
238.562	-3.75
238.779	-11.95
238.996	-28.33
239.214	31.06
239.431	92.5
239.648	-91.82
239.865	35.16
240.083	61.78
240.3	18.77
240.517	72.02
240.735	-5.8
240.952	29.01
241.169	14.68
241.386	55.64
241.603	-1.71
241.821	41.3
242.038	26.96
242.255	12.63
242.472	-28.33
242.689	-38.57
242.907	-18.09
243.124	22.87
243.341	-13.99
243.558	16.73
243.775	16.73
243.992	-50.86
244.209	14.68
244.426	98.64
244.643	14.68
244.86	0.34
245.078	59.73
245.295	92.5
245.512	53.59
245.729	35.16
245.946	37.2
246.163	-63.15
246.38	-5.8
246.597	18.77
246.814	47.44
247.031	53.59
247.248	26.96
247.464	8.53
247.681	6.49
247.898	18.77
248.115	55.64
248.332	-13.99
248.549	10.58
248.766	0.34
248.983	53.59
249.2	0.34
249.417	-3.75
249.633	-9.9
249.85	55.64
250.067	51.54
250.284	6.49
250.501	24.92
250.717	108.88
250.934	2.39
251.151	65.88
251.368	-13.99
251.585	67.92
251.801	26.96
252.018	51.54
252.235	-13.99
252.451	4.44
252.668	16.73
252.885	37.2
253.102	65.88
253.318	-42.67
253.535	-32.43
253.752	-1.71
253.968	10.58
254.185	55.64
254.401	53.59
254.618	18.77
254.835	59.73
255.051	94.55
255.268	-9.9
255.484	78.16
255.701	20.82
255.917	76.12
256.134	-50.86
256.351	98.64
256.567	16.73
256.784	41.3
257	-36.52
257.217	51.54
257.433	24.92
257.65	31.06
257.866	47.44
258.082	43.35
258.299	-22.19
258.515	35.16
258.732	-40.62
258.948	35.16
259.165	45.4
259.381	-77.48
259.597	53.59
259.814	-75.43
260.03	39.25
260.246	-1.71
260.463	98.64
260.679	4.44
260.895	100.69
261.112	35.16
261.328	84.31
261.544	35.16
261.761	33.11
261.977	41.3
262.193	108.88
262.409	2.39
262.626	-30.38
262.842	127.32
263.058	-7.85
263.274	47.44
263.49	-7.85
263.707	35.16
263.923	96.6
264.139	-46.76
264.355	-24.23
264.571	92.5
264.787	33.11
265.004	92.5
265.22	22.87
265.436	18.77
265.652	14.68
265.868	49.49
266.084	-77.48
266.3	22.87
266.516	-67.24
266.732	35.16
266.948	35.16
267.164	-13.99
267.38	2.39
267.596	-42.67
267.812	108.88
268.028	45.4
268.244	-3.75
268.46	76.12
268.676	57.68
268.892	37.2
269.108	-48.81
269.324	-9.9
269.54	-11.95
269.756	76.12
269.972	-44.71
270.188	35.16
270.403	-3.75
270.619	-7.85
270.835	65.88
271.051	24.92
271.267	-63.15
271.483	-26.28
271.698	39.25
271.914	72.02
272.13	-28.33
272.346	-7.85
272.562	-44.71
272.777	24.92
272.993	-63.15
273.209	33.11
273.425	57.68
273.64	-32.43
273.856	63.83
274.072	39.25
274.287	-18.09
274.503	119.12
274.719	92.5
274.934	0.34
275.15	16.73
275.366	61.78
275.581	-22.19
275.797	10.58
276.012	33.11
276.228	-69.29
276.444	-34.47
276.659	12.63
276.875	-11.95
277.09	80.21
277.306	-1.71
277.521	67.92
277.737	47.44
277.952	47.44
278.168	53.59
278.383	-50.86
278.599	-24.23
278.814	47.44
279.03	104.79
279.245	92.5
279.461	4.44
279.676	39.25
279.892	51.54
280.107	-57
280.322	-91.82
280.538	63.83
280.753	24.92
280.969	47.44
281.184	72.02
281.399	-7.85
281.615	-1.71
281.83	47.44
282.045	-32.43
282.26	22.87
282.476	-13.99
282.691	45.4
282.906	106.84
283.122	12.63
283.337	26.96
283.552	-26.28
283.767	22.87
283.983	4.44
284.198	-18.09
284.413	31.06
284.628	43.35
284.843	8.53
285.058	22.87
285.274	8.53
285.489	-18.09
285.704	-38.57
285.919	-18.09
286.134	2.39
286.349	-40.62
286.564	8.53
286.779	-34.47
286.995	-1.71
287.21	-5.8
287.425	-7.85
287.64	16.73
287.855	-67.24
288.07	6.49
288.285	84.31
288.5	76.12
288.715	0.34
288.93	-18.09
289.145	22.87
289.36	24.92
289.575	20.82
289.79	47.44
290.004	-7.85
290.219	69.97
290.434	-9.9
290.649	22.87
290.864	2.39
291.079	26.96
291.294	-9.9
291.509	43.35
291.724	20.82
291.938	0.34
292.153	106.84
292.368	-28.33
292.583	53.59
292.798	63.83
293.012	-46.76
293.227	45.4
293.442	-18.09
293.657	53.59
293.871	-16.04
294.086	-36.52
294.301	86.36
294.516	18.77
294.73	14.68
294.945	26.96
295.16	0.34
295.374	12.63
295.589	20.82
295.804	47.44
296.018	49.49
296.233	39.25
296.447	-52.91
296.662	-20.14
296.877	67.92
297.091	108.88
297.306	-16.04
297.52	16.73
297.735	8.53
297.949	39.25
298.164	22.87
298.378	-3.75
298.593	10.58
298.807	31.06
299.022	-13.99
299.236	10.58
299.451	61.78
299.665	-32.43
299.88	8.53
300.094	96.6
300.309	47.44
300.523	18.77
300.737	-13.99
300.952	43.35
301.166	65.88
301.381	-34.47
301.595	31.06
301.809	31.06
302.024	39.25
302.238	-24.23
302.452	24.92
302.667	59.73
302.881	55.64
303.095	53.59
303.309	41.3
303.524	29.01
303.738	6.49
303.952	41.3
304.166	67.92
304.381	4.44
304.595	14.68
304.809	-34.47
305.023	-3.75
305.237	53.59
305.452	-16.04
305.666	59.73
305.88	166.23
306.094	18.77
306.308	-9.9
306.522	65.88
306.736	61.78
306.95	-9.9
307.164	26.96
307.379	35.16
307.593	-5.8
307.807	41.3
308.021	14.68
308.235	55.64
308.449	-5.8
308.663	2.39
308.877	112.98
309.091	-34.47
309.305	16.73
309.519	2.39
309.733	41.3
309.947	-132.78
310.161	18.77
310.374	0.34
310.588	63.83
310.802	-50.86
311.016	-5.8
311.23	41.3
311.444	2.39
311.658	6.49
311.872	57.68
312.085	33.11
312.299	55.64
312.513	96.6
312.727	49.49
312.941	8.53
313.154	55.64
313.368	-69.29
313.582	14.68
313.796	4.44
314.009	49.49
314.223	63.83
314.437	49.49
314.651	-30.38
314.864	-16.04
315.078	76.12
315.292	-24.23
315.505	20.82
315.719	26.96
315.933	63.83
316.146	-30.38
316.36	-36.52
316.573	84.31
316.787	55.64
317.001	82.26
317.214	37.2
317.428	6.49
317.641	-7.85
317.855	8.53
318.068	0.34
318.282	78.16
318.495	49.49
318.709	22.87
318.922	-13.99
319.136	59.73
319.349	108.88
319.563	123.22
319.776	-5.8
319.99	-11.95
320.203	41.3
320.417	20.82
320.63	45.4
320.843	94.55
321.057	20.82
321.27	18.77
321.483	22.87
321.697	-3.75
321.91	0.34
322.124	-57
322.337	-13.99
322.55	2.39
322.763	-13.99
322.977	22.87
323.19	67.92
323.403	82.26
323.617	59.73
323.83	51.54
324.043	-79.53
324.256	-7.85
324.469	16.73
324.683	37.2
324.896	-38.57
325.109	35.16
325.322	18.77
325.535	135.51
325.748	22.87
325.962	-36.52
326.175	18.77
326.388	24.92
326.601	39.25
326.814	49.49
327.027	-102.06
327.24	31.06
327.453	-89.77
327.666	84.31
327.879	61.78
328.092	67.92
328.305	57.68
328.518	0.34
328.731	-36.52
328.944	16.73
329.157	39.25
329.37	-7.85
329.583	129.36
329.796	49.49
330.009	78.16
330.222	67.92
330.435	-52.91
330.648	18.77
330.861	57.68
331.073	-3.75
331.286	33.11
331.499	35.16
331.712	16.73
331.925	-22.19
332.138	-46.76
332.35	74.07
332.563	72.02
332.776	90.45
332.989	-38.57
333.202	26.96
333.414	0.34
333.627	63.83
333.84	6.49
334.053	65.88
334.265	-28.33
334.478	-5.8
334.691	26.96
334.903	47.44
335.116	-59.05
335.329	22.87
335.541	51.54
335.754	112.98
335.966	94.55
336.179	26.96
336.392	-5.8
336.604	65.88
336.817	24.92
337.029	31.06
337.242	37.2
337.454	74.07
337.667	94.55
337.88	67.92
338.092	26.96
338.305	49.49
338.517	-3.75
338.729	72.02
338.942	100.69
339.154	41.3
339.367	29.01
339.579	16.73
339.792	8.53
340.004	35.16
340.217	-22.19
340.429	49.49
340.641	55.64
340.854	10.58
341.066	35.16
341.278	-16.04
341.491	67.92
341.703	43.35
341.915	-83.63
342.128	18.77
342.34	-16.04
342.552	72.02
342.764	-9.9
342.977	-11.95
343.189	0.34
343.401	51.54
343.613	67.92
343.826	47.44
344.038	4.44
344.25	57.68
344.462	-71.34
344.674	-36.52
344.886	-5.8
345.099	29.01
345.311	2.39
345.523	-7.85
345.735	-5.8
345.947	6.49
346.159	65.88
346.371	8.53
346.583	47.44
346.795	72.02
347.007	-9.9
347.219	65.88
347.431	47.44
347.643	112.98
347.855	-32.43
348.067	74.07
348.279	63.83
348.491	-63.15
348.703	20.82
348.915	22.87
349.127	72.02
349.339	22.87
349.551	-32.43
349.763	104.79
349.975	49.49
350.187	90.45
350.399	26.96
350.61	0.34
350.822	57.68
351.034	63.83
351.246	86.36
351.458	16.73
351.669	22.87
351.881	63.83
352.093	41.3
352.305	74.07
352.517	22.87
352.728	76.12
352.94	-40.62
353.152	-13.99
353.363	-13.99
353.575	106.84
353.787	51.54
353.999	12.63
354.21	22.87
354.422	-42.67
354.633	31.06
354.845	8.53
355.057	55.64
355.268	-20.14
355.48	55.64
355.692	10.58
355.903	26.96
356.115	49.49
356.326	-48.81
356.538	-9.9
356.749	51.54
356.961	-22.19
357.172	69.97
357.384	-1.71
357.595	100.69
357.807	47.44
358.018	67.92
358.23	53.59
358.441	49.49
358.653	47.44
358.864	14.68
359.075	-32.43
359.287	26.96
359.498	6.49
359.709	4.44
359.921	10.58
360.132	-9.9
360.344	55.64
360.555	31.06
360.766	39.25
360.977	-9.9
361.189	20.82
361.4	26.96
361.611	55.64
361.823	106.84
362.034	-71.34
362.245	-38.57
362.456	12.63
362.667	92.5
362.879	4.44
363.09	26.96
363.301	80.21
363.512	80.21
363.723	-16.04
363.935	20.82
364.146	90.45
364.357	-46.76
364.568	29.01
364.779	92.5
364.99	125.27
365.201	-57
365.412	16.73
365.623	-1.71
365.834	76.12
366.045	59.73
366.256	22.87
366.467	39.25
366.678	53.59
366.889	102.74
367.1	0.34
367.311	67.92
367.522	26.96
367.733	49.49
367.944	6.49
368.155	78.16
368.366	61.78
368.577	39.25
368.788	51.54
368.999	-22.19
369.209	-26.28
369.42	41.3
369.631	37.2
369.842	33.11
370.053	39.25
370.264	51.54
370.474	-30.38
370.685	20.82
370.896	22.87
371.107	104.79
371.317	88.4
371.528	43.35
371.739	47.44
371.95	57.68
372.16	35.16
372.371	6.49
372.582	45.4
372.792	65.88
373.003	57.68
373.214	14.68
373.424	-11.95
373.635	45.4
373.846	141.65
374.056	24.92
374.267	82.26
374.477	86.36
374.688	-3.75
374.898	33.11
375.109	31.06
375.319	108.88
375.53	22.87
375.74	33.11
375.951	8.53
376.161	-5.8
376.372	92.5
376.582	24.92
376.793	51.54
377.003	55.64
377.214	49.49
377.424	59.73
377.635	92.5
377.845	6.49
378.055	69.97
378.266	10.58
378.476	51.54
378.686	96.6
378.897	-52.91
379.107	-5.8
379.317	-5.8
379.528	41.3
379.738	57.68
379.948	-26.28
380.158	26.96
380.369	10.58
380.579	-91.82
380.789	-24.23
380.999	80.21
381.21	92.5
381.42	55.64
381.63	51.54
381.84	47.44
382.05	72.02
382.261	110.93
382.471	86.36
382.681	20.82
382.891	33.11
383.101	57.68
383.311	84.31
383.521	16.73
383.731	-26.28
383.941	104.79
384.151	-46.76
384.361	22.87
384.571	53.59
384.781	-1.71
384.991	-1.71
385.201	104.79
385.411	76.12
385.621	47.44
385.831	47.44
386.041	43.35
386.251	65.88
386.461	98.64
386.671	-1.71
386.881	14.68
387.091	24.92
387.301	43.35
387.511	6.49
387.72	80.21
387.93	45.4
388.14	24.92
388.35	20.82
388.56	72.02
388.769	16.73
388.979	92.5
389.189	41.3
389.399	92.5
389.609	131.41
389.818	57.68
390.028	10.58
390.238	31.06
390.447	-3.75
390.657	49.49
390.867	0.34
391.076	41.3
391.286	139.6
391.496	92.5
391.705	-24.23
391.915	102.74
392.125	69.97
392.334	39.25
392.544	123.22
392.753	84.31
392.963	86.36
393.172	47.44
393.382	22.87
393.591	137.56
393.801	67.92
394.01	115.03
394.22	31.06
394.429	-22.19
394.639	69.97
394.848	88.4
395.058	88.4
395.267	63.83
395.477	92.5
395.686	65.88
395.895	74.07
396.105	31.06
396.314	121.17
396.524	94.55
396.733	0.34
396.942	106.84
397.152	94.55
397.361	72.02
397.57	57.68
397.78	129.36
397.989	63.83
398.198	153.94
398.407	90.45
398.617	61.78
398.826	131.41
399.035	88.4
399.244	133.46
399.453	145.75
399.663	86.36
399.872	41.3
400.081	80.21
400.29	63.83
400.499	67.92
400.708	117.08
400.917	86.36
401.127	67.92
401.336	43.35
401.545	117.08
401.754	61.78
401.963	143.7
402.172	59.73
402.381	115.03
402.59	35.16
402.799	67.92
403.008	108.88
403.217	108.88
403.426	90.45
403.635	108.88
403.844	129.36
404.053	90.45
404.262	82.26
404.471	147.8
404.68	119.12
404.888	55.64
405.097	80.21
405.306	182.61
405.515	174.42
405.724	123.22
405.933	164.18
406.142	198.99
406.35	143.7
406.559	211.28
406.768	233.81
406.977	256.34
407.185	178.51
407.394	227.67
407.603	149.84
407.812	254.29
408.02	217.43
408.229	254.29
408.438	172.37
408.646	250.19
408.855	172.37
409.064	235.86
409.272	311.63
409.481	260.43
409.69	311.63
409.898	252.24
410.107	198.99
410.315	221.52
410.524	401.74
410.733	319.82
410.941	252.24
411.15	303.44
411.358	350.54
411.567	346.45
411.775	346.45
411.984	358.74
412.192	381.26
412.401	414.03
412.609	440.65
412.818	444.75
413.026	416.08
413.234	428.37
413.443	459.09
413.651	450.89
413.86	526.67
414.068	606.54
414.276	538.96
414.485	571.72
414.693	641.36
414.901	561.48
415.11	614.73
415.318	627.02
415.526	747.85
415.734	688.46
415.943	827.72
416.151	727.37
416.359	713.03
416.567	911.69
416.776	778.57
416.984	885.06
417.192	909.64
417.4	909.64
417.608	883.02
417.817	1044.81
418.025	1005.89
418.233	1096
418.441	1009.99
418.649	1112.39
418.857	1149.25
419.065	1204.55
419.273	1179.97
419.481	1255.75
419.689	1329.47
419.897	1384.77
420.105	1460.54
420.313	1435.97
420.521	1517.89
420.729	1440.06
420.937	1612.09
421.145	1669.44
421.353	1739.07
421.561	1806.65
421.769	1902.9
421.977	1958.2
422.185	1853.75
422.393	2007.35
422.601	2167.09
422.809	2193.72
423.017	2181.43
423.224	2244.92
423.432	2324.79
423.64	2287.92
423.848	2568.49
424.056	2466.1
424.263	2834.73
424.471	2523.44
424.679	2664.75
424.887	2951.46
425.094	2982.18
425.302	3010.86
425.51	3115.3
425.718	3105.06
425.925	3119.4
426.133	3395.87
426.341	3453.22
426.548	3629.34
426.756	3629.34
426.964	3594.53
427.171	3809.56
427.379	4030.74
427.586	4069.66
427.794	4278.55
428.001	4428.05
428.209	4479.25
428.417	4395.28
428.624	4595.98
428.832	4778.25
429.039	4649.23
429.247	4585.74
429.454	5196.04
429.662	5628.16
429.869	5202.18
430.076	5492.99
430.284	5390.6
430.491	5581.06
430.699	5904.64
430.906	5871.87
431.114	6052.09
431.321	6289.65
431.528	6363.38
431.736	6793.45
431.943	7157.99
432.15	7028.97
432.358	7067.88
432.565	7299.3
432.772	7223.53
432.979	7659.74
433.187	7880.93
433.394	7827.68
433.601	8636.63
433.808	8421.59
434.016	8317.14
434.223	8655.06
434.43	9228.49
434.637	9081.03
434.844	9654.47
435.052	9752.77
435.259	9773.25
435.466	9914.56
435.673	9695.43
435.88	10475.7
436.087	11012.27
436.294	10961.07
436.501	10563.76
436.708	10903.73
436.915	11391.14
437.122	11903.14
437.329	11704.48
437.537	12150.94
437.743	12343.45
437.95	12083.36
438.157	12857.49
438.364	13254.8
438.571	13152.4
438.778	13138.06
438.985	14485.62
439.192	13836.42
439.399	14626.93
439.606	14053.5
439.813	15132.78
440.02	15976.55
440.227	15466.6
440.433	15392.87
440.64	15693.93
440.847	15825
441.054	16203.87
441.261	16982.1
441.467	17084.5
441.674	17289.29
441.881	17913.92
442.088	17979.46
442.294	17487.95
442.501	18335.81
442.708	18513.98
442.914	19324.97
443.121	20242.46
443.328	19492.91
443.534	20936.73
443.741	20371.49
443.948	20017.19
444.154	21444.62
444.361	21174.29
444.568	21381.14
444.774	21366.8
444.981	21841.93
445.187	22345.73
445.394	23742.44
445.6	22968.31
445.807	25094.1
446.013	24113.13
446.22	24397.79
446.426	25307.09
446.633	25626.57
446.839	26361.8
447.046	25577.42
447.252	26822.59
447.459	26890.17
447.665	26619.84
447.871	28217.25
448.078	28766.11
448.284	27822
448.491	28399.52
448.697	29659.02
448.903	30097.29
449.11	29872.01
449.316	29640.59
449.522	30273.42
449.728	30648.19
449.935	31307.64
450.141	30816.13
450.347	32018.28
450.553	30248.84
450.76	30963.58
450.966	32003.95
451.172	31453.05
451.378	32077.68
451.584	31829.87
451.791	32513.89
451.997	32235.37
452.203	32954.21
452.409	32694.11
452.615	32872.29
452.821	31117.18
453.027	31108.99
453.233	32601.96
453.44	31346.55
453.646	31879.02
453.852	31821.68
454.058	32182.12
454.264	31321.98
454.47	32112.49
454.676	31438.71
454.882	32092.01
455.088	29450.13
455.294	30027.66
455.5	30371.72
455.705	30760.83
455.911	29403.03
456.117	28952.48
456.323	28557.22
456.529	26617.79
456.735	27983.79
456.941	27238.33
457.147	26679.23
457.352	25769.93
457.558	25661.39
457.764	25673.68
457.97	25202.64
458.176	24866.78
458.381	24618.97
458.587	23468.02
458.793	23627.76
458.999	22360.06
459.204	24039.4
459.41	23156.72
459.616	21760.01
459.821	21800.97
460.027	21698.57
460.233	21121.04
460.438	20115.49
460.644	20344.86
460.85	19179.57
461.055	19048.5
461.261	19232.82
461.466	17530.95
461.672	17057.87
461.878	18317.37
462.083	17055.83
462.289	16812.12
462.494	16662.62
462.7	16050.27
462.905	15587.43
463.111	16302.17
463.316	16189.53
463.522	15673.45
463.727	15546.47
463.932	15669.35
464.138	15267.95
464.343	15700.07
464.549	15206.51
464.754	15491.18
464.959	15530.09
465.165	15528.04
465.37	14790.77
465.575	14561.4
465.781	14764.15
465.986	15034.48
466.191	14393.47
466.397	14360.7
466.602	13549.7
466.807	14010.5
467.012	14106.75
467.218	13936.77
467.423	13781.12
467.628	13977.73
467.833	14397.56
468.038	13916.29
468.244	13607.05
468.449	14037.12
468.654	13600.9
468.859	13525.13
469.064	13400.2
469.269	12781.71
469.474	12892.3
469.679	13187.21
469.885	13015.18
470.09	12847.25
470.295	12953.74
470.5	12531.86
470.705	12705.94
470.91	12425.37
471.115	12329.11
471.32	12368.02
471.525	12454.04
471.73	12066.97
471.935	11985.05
472.139	11915.42
472.344	11632.8
472.549	11583.65
472.754	11587.75
472.959	11385
473.164	10850.48
473.369	11020.46
473.574	11276.46
473.778	11493.54
473.983	11290.79
474.188	11090.09
474.393	10649.78
474.598	10567.86
474.802	10340.54
475.007	10504.37
475.212	10633.4
475.417	10244.28
475.621	10150.07
475.826	9932.99
476.031	9887.93
476.235	9728.19
476.44	9767.1
476.645	9695.43
476.849	9900.22
477.054	9636.03
477.259	9500.87
477.463	9435.33
477.668	9353.41
477.872	9410.76
478.077	9265.35
478.282	9085.13
478.486	9093.32
478.691	8726.74
478.895	8956.11
479.1	8784.08
479.304	8794.32
479.509	8566.99
479.713	8710.35
479.918	8456.4
480.122	8325.33
480.326	8575.19
480.531	8564.95
480.735	8366.29
480.94	8472.79
481.144	8650.96
481.348	8358.1
481.553	8274.14
481.757	8188.12
481.961	8159.45
482.166	8364.25
482.37	8216.79
482.574	8147.16
482.778	8257.75
482.983	8290.52
483.187	8179.93
483.391	8159.45
483.595	8040.67
483.8	8200.41
484.004	8104.15
484.208	8065.24
484.412	8323.29
484.616	8186.07
484.821	8212.7
485.025	7932.12
485.229	8239.32
485.433	8132.83
485.637	8134.87
485.841	7981.28
486.045	7942.36
486.249	8104.15
486.453	8159.45
486.657	7948.51
486.861	8300.76
487.065	7854.3
487.269	8087.77
487.473	7962.84
487.677	8050.91
487.881	8235.22
488.085	8116.44
488.289	8306.9
488.493	8114.39
488.697	8141.02
488.901	8263.9
489.105	8206.55
489.309	8186.07
489.512	8374.49
489.716	8390.87
489.92	8075.48
490.124	8239.32
490.328	8263.9
490.531	8378.58
490.735	8622.29
490.939	8405.21
491.143	8593.62
491.346	8394.97
491.55	8499.41
491.754	8648.91
491.958	8460.5
492.161	8560.85
492.365	8589.52
492.569	8681.68
492.772	8585.43
492.976	8638.67
493.18	8763.6
493.383	8962.25
493.587	9011.4
493.79	9003.21
493.994	8835.28
494.197	8997.07
494.401	9169.1
494.605	9326.79
494.808	9029.84
495.012	9275.59
495.215	9402.57
495.419	9398.47
495.622	9519.3
495.825	9584.84
496.029	9537.73
496.232	9779.39
496.436	9695.43
496.639	10209.47
496.843	9959.61
497.046	10184.89
497.249	10287.29
497.453	10338.49
497.656	10264.76
497.859	10496.18
498.063	10430.65
498.266	10819.76
498.469	10580.15
498.673	10739.89
498.876	10987.69
499.079	11133.1
499.282	10989.74
499.485	11395.24
499.689	11514.02
499.892	11624.61
500.095	11856.03
500.298	11964.57
500.501	11770.02
500.705	12196
500.908	12349.59
501.111	12388.5
501.314	12701.84
501.517	12761.23
501.72	12779.67
501.923	12839.06
502.126	12992.66
502.329	13224.08
502.532	13305.99
502.735	13527.17
502.938	13867.14
503.141	13656.2
503.344	13981.82
503.547	14313.59
503.75	14223.48
503.953	14704.76
504.156	14680.18
504.359	14710.9
504.562	14721.14
504.765	15134.83
504.968	15212.65
505.17	15607.91
505.373	15374.44
505.576	15679.59
505.779	15851.62
505.982	15956.07
506.185	16603.22
506.387	16214.11
506.59	16549.98
506.793	16973.91
506.996	16861.27
507.198	17365.07
507.401	17152.08
507.604	17436.75
507.807	17692.74
508.009	17948.74
508.212	17881.16
508.415	18206.78
508.617	18538.55
508.82	18626.62
509.022	18763.83
509.225	19109.94
509.428	19101.75
509.63	19288.11
509.833	19546.16
510.035	20043.81
510.238	19939.37
510.44	19990.56
510.643	20088.87
510.845	20754.46
511.048	20568.09
511.25	20809.75
511.453	21110.8
511.655	21907.46
511.858	21649.42
512.06	21692.43
512.262	22192.13
512.465	22272
512.667	22267.91
512.87	22827
513.072	23068.66
513.274	23326.71
513.477	23535.6
513.679	23713.77
513.881	23867.37
514.084	24014.82
514.286	24451.04
514.488	24393.7
514.69	24981.46
514.893	25044.95
515.095	25124.82
515.297	25479.12
515.499	25550.8
515.701	26169.29
515.904	26189.77
516.106	26496.96
516.308	26599.36
516.51	27412.4
516.712	27449.27
516.914	27619.25
517.116	27742.13
517.318	28092.33
517.52	28346.28
517.722	28489.63
517.925	28843.93
518.127	29122.46
518.329	29628.31
518.531	29204.38
518.733	29685.65
518.935	30097.29
519.136	30019.47
519.338	30859.13
519.54	30574.47
519.742	31041.4
519.944	31291.26
520.146	31514.48
520.348	31868.78
520.55	31756.14
520.752	32415.59
520.954	32843.62
521.155	32632.68
521.357	33378.14
521.559	33328.98
521.761	33896.27
521.963	34160.46
522.164	34314.06
522.366	34543.43
522.568	34762.56
522.77	34830.15
522.971	35276.6
523.173	35190.59
523.375	35698.48
523.576	35254.08
523.778	35794.74
523.98	36511.53
524.181	36728.61
524.383	36429.61
524.584	37019.42
524.786	37162.78
524.988	36808.48
525.189	37756.69
525.391	37771.03
525.592	37799.7
525.794	38096.66
525.995	38323.98
526.197	38295.31
526.398	38668.04
526.6	38727.43
526.801	39087.87
527.003	39419.64
527.204	38940.42
527.406	39649.02
527.607	39503.61
527.808	39872.24
528.01	39563
528.211	39505.66
528.412	40607.47
528.614	40406.76
528.815	40632.04
529.016	41015.01
529.218	40412.91
529.419	41010.92
529.62	41160.42
529.822	40804.07
530.023	41230.05
530.224	41477.85
530.425	41314.01
530.626	41152.23
530.828	41332.45
531.029	42202.83
531.23	41742.04
531.431	41975.51
531.632	41979.6
531.833	41940.69
532.035	41955.03
532.236	42096.34
532.437	42071.76
532.638	41959.13
532.839	41805.53
533.04	42522.32
533.241	42006.23
533.442	43073.22
533.643	42163.92
533.844	42331.86
534.045	42546.89
534.246	42524.36
534.447	42524.36
534.648	42120.91
534.849	42307.28
535.05	42372.81
535.251	43089.6
535.451	42594
535.652	42780.36
535.853	42561.23
536.054	42790.6
536.255	42778.31
536.456	42401.49
536.657	43114.18
536.857	42417.87
537.058	42260.18
537.259	42878.66
537.46	42751.69
537.66	42696.39
537.861	42931.91
538.062	42383.05
538.263	43093.7
538.463	42761.93
538.664	42827.46
538.865	42981.06
539.065	43065.03
539.266	42909.38
539.466	43460.29
539.667	42606.28
539.868	43151.04
540.068	43243.2
540.269	42655.43
540.469	43275.97
540.67	42495.69
540.87	43169.47
541.071	43028.16
541.271	43298.5
541.472	43017.92
541.672	42643.15
541.873	42856.14
542.073	42854.09
542.274	43267.78
542.474	42661.58
542.675	42630.86
542.875	43300.54
543.075	42962.63
543.276	42321.62
543.476	43491.01
543.676	42999.49
543.877	43003.59
544.077	43165.38
544.277	42925.77
544.478	42565.32
544.678	43097.8
544.878	42852.04
545.078	42692.3
545.279	42589.9
545.479	42385.1
545.679	42618.57
545.879	42733.26
546.079	42716.87
546.28	42405.58
546.48	42282.7
546.68	42864.33
546.88	42477.26
547.08	43040.45
547.28	42907.33
547.48	42589.9
547.68	42624.71
547.88	42151.63
548.081	42809.03
548.281	41977.56
548.481	42608.33
548.681	42899.14
548.881	42794.7
549.081	42520.27
549.28	42575.56
549.48	42727.11
549.68	42381.01
549.88	43241.15
550.08	42356.43
550.28	42704.59
550.48	42393.29
550.68	42880.71
550.88	42258.13
551.08	42856.14
551.279	42630.86
551.479	42430.16
551.679	42501.84
551.879	42333.9
552.079	42811.08
552.278	42159.83
552.478	42303.18
552.678	42534.6
552.878	42964.68
553.077	42454.73
553.277	41785.05
553.477	42800.84
553.676	42391.25
553.876	42759.88
554.076	41918.17
554.275	42290.9
554.475	41774.81
554.674	42260.18
554.874	42188.5
555.074	42024.66
555.273	42247.89
555.473	42034.9
555.672	41434.85
555.872	41950.93
556.071	41930.45
556.271	41848.53
556.47	41596.63
556.67	41725.66
556.869	41723.61
557.068	41502.43
557.268	41453.28
557.467	41527
557.667	41705.18
557.866	41484
558.065	41250.53
558.265	40881.89
558.464	41268.96
558.663	41469.66
558.863	40763.11
559.062	41375.45
559.261	40804.07
559.461	41328.35
559.66	40435.44
559.859	41137.89
560.058	40623.85
560.258	40367.85
560.457	40582.89
560.656	40845.03
560.855	40224.5
561.054	40558.31
561.253	40068.85
561.453	40034.03
561.652	40126.19
561.851	40390.38
562.05	40306.41
562.249	39653.11
562.448	40021.75
562.647	39706.36
562.846	39880.44
563.045	39917.3
563.244	39614.2
563.443	39792.37
563.642	39087.87
563.841	39354.11
564.04	39100.16
564.239	39808.76
564.438	38885.12
564.637	39169.79
564.836	38850.31
565.035	38887.17
565.234	38977.28
565.432	38174.48
565.631	38369.04
565.83	38600.46
566.029	38430.47
566.228	38065.94
566.427	38387.47
566.625	37852.95
566.824	37617.43
567.023	38207.25
567.222	37228.32
567.42	38311.69
567.619	37711.64
567.818	37478.17
568.016	37295.9
568.215	37822.23
568.414	37072.67
568.612	37228.32
568.811	37107.49
569.01	37029.66
569.208	36654.89
569.407	36755.24
569.605	36513.58
569.804	36927.27
570.002	36382.51
570.201	36253.48
570.4	36218.67
570.598	36017.97
570.797	35850.03
570.995	35966.77
571.193	35604.28
571.392	36013.87
571.59	35209.02
571.789	35696.44
571.987	35290.94
572.186	35194.68
572.384	34897.73
572.582	35229.5
572.781	35360.57
572.979	34697.03
573.177	34946.88
573.376	34975.55
573.574	34570.05
573.772	34619.21
573.971	33982.29
574.169	34533.19
574.367	34500.42
574.565	34352.97
574.763	34295.63
574.962	33838.93
575.16	33625.94
575.358	33896.27
575.556	33386.33
575.754	34041.68
575.952	33288.03
576.151	33838.93
576.349	33328.98
576.547	33191.77
576.745	33062.75
576.943	32851.81
577.141	32816.99
577.339	33292.12
577.537	32720.74
577.735	32292.71
577.933	32716.64
578.131	32489.32
578.329	32325.48
578.527	32374.63
578.725	32282.47
578.923	32251.75
579.121	32026.48
579.319	31930.22
579.516	32036.72
579.714	31944.56
579.912	31825.78
580.11	31223.67
580.308	31876.97
580.506	31393.65
580.704	31063.93
580.901	31328.12
581.099	31305.59
581.297	31027.07
581.495	30902.14
581.692	31162.23
581.89	30748.54
582.088	30707.58
582.285	30838.65
582.483	30742.4
582.681	30291.85
582.878	30707.58
583.076	30107.53
583.274	30486.4
583.471	30062.47
583.669	29960.08
583.866	30007.18
584.064	29964.17
584.262	29755.28
584.459	30068.62
584.657	29446.04
584.854	29769.62
585.052	29437.84
585.249	29413.27
585.447	29314.97
585.644	28975
585.841	29366.17
586.039	29282.2
586.236	28749.73
586.434	28952.48
586.631	28493.73
586.828	28975
587.026	28669.86
587.223	28653.47
587.42	28551.07
587.618	28467.11
587.815	28106.66
588.012	28125.1
588.21	28278.69
588.407	28356.52
588.604	28198.82
588.801	27633.58
588.999	27699.12
589.196	27846.57
589.393	27631.54
589.59	27350.96
589.787	27416.5
589.984	27180.98
590.182	26789.82
590.379	27137.98
590.576	27041.72
590.773	26945.47
590.97	26828.73
591.167	26798.01
591.364	26494.91
591.561	26845.12
591.758	26298.31
591.955	26351.56
592.152	26666.94
592.349	26062.79
592.546	26515.39
592.743	26593.22
592.94	26269.64
593.137	26189.77
593.334	26013.64
593.531	25749.45
593.727	26050.5
593.924	25876.43
594.121	25722.83
594.318	25851.85
594.515	25325.52
594.712	25747.4
594.908	25354.19
595.105	25579.47
595.302	24969.18
595.499	25063.38
595.696	25118.68
595.892	25122.77
596.089	24786.91
596.286	25161.69
596.482	24913.88
596.679	24928.22
596.876	24606.69
597.072	24602.59
597.269	24829.91
597.466	24633.31
597.662	24276.96
597.859	24213.48
598.055	24399.84
598.252	24154.08
598.448	24096.74
598.645	24063.97
598.841	23719.92
599.038	23965.67
599.234	23865.32
599.431	23592.94
599.627	23599.09
599.824	23523.31
600.02	23318.51
600.217	23744.49
600.413	23205.88
600.609	22962.17
600.806	23300.08
601.002	23158.77
601.198	23126
601.395	22908.92
601.591	22910.97
601.787	22798.33
601.984	22681.6
602.18	23060.47
602.376	22794.23
602.572	22568.96
602.769	22470.65
602.965	22513.66
603.161	22327.3
603.357	22214.66
603.553	22419.46
603.75	22038.53
603.946	22042.63
604.142	22005.77
604.338	21815.3
604.534	22155.27
604.73	21594.12
604.926	21692.43
605.122	21819.4
605.318	21213.2
605.514	21497.87
605.71	21673.99
605.906	21235.73
606.102	21405.71
606.298	21301.26
606.494	21182.48
606.69	21139.47
606.886	20930.58
607.082	20998.16
607.278	21098.52
607.474	20850.71
607.67	21106.71
607.866	20383.77
608.062	20869.14
608.257	20760.6
608.453	20654.11
608.649	20871.19
608.845	20580.38
609.041	20426.78
609.236	20609.05
609.432	20322.34
609.628	20363.29
609.824	20154.4
610.019	20256.8
610.215	20203.55
610.411	20367.39
610.606	19992.61
610.802	20072.48
610.998	19998.76
611.193	20125.73
611.389	20039.72
611.584	19771.43
611.78	19855.4
611.976	19726.38
612.171	19820.58
612.367	20000.8
612.562	19445.8
612.758	19216.43
612.953	19329.07
613.149	19537.96
613.344	19329.07
613.539	19621.93
613.735	19423.28
613.93	19484.72
614.126	19263.54
614.321	19230.77
614.517	19189.81
614.712	19273.78
614.907	19040.31
615.103	19218.48
615.298	19169.33
615.493	19150.9
615.688	18640.95
615.884	19122.23
616.079	18638.9
616.274	19212.34
616.47	18815.03
616.665	18845.75
616.86	18667.58
617.055	18782.26
617.25	18511.93
617.445	18604.09
617.641	18573.37
617.836	18587.71
618.031	18192.45
618.226	18384.96
618.421	18143.3
618.616	18485.31
618.811	18022.47
619.006	18511.93
619.201	17676.36
619.396	17934.4
619.591	17725.51
619.786	17893.44
619.981	17524.81
620.176	17737.8
620.371	17408.08
620.566	17524.81
620.761	17330.25
620.956	17451.08
621.151	17254.48
621.346	17332.3
621.541	17135.7
621.735	17113.17
621.93	16748.63
622.125	16992.34
622.32	16336.99
622.515	16595.03
622.709	16457.82
622.904	16959.57
623.099	16697.43
623.294	16709.72
623.488	16365.66
623.683	16263.26
623.878	16193.63
624.072	16136.29
624.267	16089.18
624.462	15814.76
624.656	15665.25
624.851	15771.75
625.046	15448.17
625.24	15822.95
625.435	15448.17
625.629	15362.15
625.824	15210.61
626.018	15370.35
626.213	15167.6
626.407	14801.01
626.602	14833.78
626.796	15124.59
626.991	14862.45
627.185	14745.72
627.38	14815.35
627.574	14708.85
627.768	14446.71
627.963	14549.11
628.157	14305.4
628.352	14336.12
628.546	14252.16
628.74	14262.4
628.935	14018.69
629.129	14014.59
629.323	13924.48
629.517	13756.55
629.712	13944.96
629.906	14061.69
630.1	13375.63
630.294	13428.87
630.489	13379.72
630.683	13555.85
630.877	13041.81
631.071	13299.85
631.265	13328.52
631.459	13179.02
631.653	13099.15
631.848	13017.23
632.042	12822.67
632.236	12986.51
632.43	12800.15
632.624	12802.19
632.818	12966.03
633.012	12495
633.206	12621.97
633.4	12650.64
633.594	12345.5
633.788	12329.11
633.982	12421.27
634.176	12351.64
634.369	11993.25
634.563	12339.35
634.757	12128.41
634.951	11954.33
635.145	12034.21
635.339	11786.4
635.533	11907.23
635.726	11839.65
635.92	11483.3
636.114	11401.38
636.308	11737.25
636.501	11634.85
636.695	11393.19
636.889	11434.15
637.083	11215.02
637.276	11024.56
637.47	11077.8
637.664	11149.48
637.857	11212.97
638.051	10885.3
638.244	10817.71
638.438	10854.58
638.632	10823.86
638.825	10911.92
639.019	10752.18
639.212	10725.55
639.406	10623.16
639.599	10428.6
639.793	10471.61
639.986	10262.71
640.18	10428.6
640.373	10348.73
640.567	10184.89
640.76	10270.9
640.954	10119.35
641.147	9945.28
641.34	9976
641.534	10123.45
641.727	9806.02
641.92	9998.52
642.114	9734.34
642.307	9713.86
642.5	9701.57
642.694	9580.74
642.887	9572.55
643.08	9580.74
643.273	9394.37
643.467	9580.74
643.66	9371.85
643.853	9257.16
644.046	9224.39
644.239	9332.93
644.432	9033.93
644.626	8872.14
644.819	9056.46
645.012	9013.45
645.205	9033.93
645.398	8835.28
645.591	8884.43
645.784	8730.83
645.977	8802.51
646.17	8753.36
646.363	8542.42
646.556	8478.93
646.749	8351.96
646.942	8585.43
647.135	8493.27
647.328	8267.99
647.521	8231.13
647.714	8112.35
647.907	8128.73
648.099	8329.43
648.292	8306.9
648.485	7948.51
648.678	7960.8
648.871	8026.33
649.064	8085.72
649.256	7995.61
649.449	7852.25
649.642	7723.23
649.835	7848.16
650.027	7887.07
650.22	7577.83
650.413	7715.04
650.605	7743.71
650.798	7567.59
650.991	7440.61
651.183	7659.74
651.376	7512.29
651.568	7457
651.761	7454.95
651.954	7284.97
652.146	7157.99
652.339	7348.45
652.531	7192.81
652.724	7262.44
652.916	7131.37
653.109	7102.7
653.301	7076.07
653.494	6985.96
653.686	6891.76
653.879	7002.35
654.071	7088.36
654.263	6856.94
654.456	6807.79
654.648	6891.76
654.84	6727.92
655.033	6781.17
655.225	6734.06
655.417	6893.8
655.61	6656.24
655.802	6703.34
655.994	6680.82
656.186	6598.9
656.379	6572.27
656.571	6377.72
656.763	6502.64
656.955	6342.9
657.148	6531.31
657.34	6293.75
657.532	6299.89
657.724	6168.82
657.916	6332.66
658.108	6445.3
658.3	6144.25
658.492	6332.66
658.684	6164.73
658.876	6177.02
659.068	6127.86
659.26	6207.73
659.452	5955.83
659.644	6007.03
659.836	5961.98
660.028	6011.13
660.22	5789.95
660.412	5728.51
660.604	5632.26
660.796	5705.98
660.988	5742.85
661.18	5843.2
661.372	5697.79
661.563	5761.28
661.755	5802.24
661.947	5753.09
662.139	5472.51
662.331	5722.37
662.522	5488.9
662.714	5447.94
662.906	5583.1
663.097	5488.9
663.289	5609.73
663.481	5404.93
663.673	5456.13
663.864	5294.34
664.056	5282.05
664.247	5300.48
664.439	5427.46
664.631	5212.42
664.822	5237
665.014	5165.32
665.205	5249.29
665.397	5148.93
665.588	5187.85
665.78	5257.48
665.971	5155.08
666.163	5087.5
666.354	5122.31
666.546	5007.62
666.737	4849.93
666.929	4915.47
667.12	4921.61
667.311	4989.19
667.503	5024.01
667.694	4864.27
667.885	4874.51
668.077	4876.55
668.268	4638.99
668.459	4819.21
668.651	4802.83
668.842	4768.01
669.033	4638.99
669.224	4811.02
669.416	4823.31
669.607	4780.3
669.798	4634.89
669.989	4718.86
670.18	4571.41
670.371	4698.38
670.563	4720.91
670.754	4753.68
670.945	4464.91
671.136	4647.18
671.327	4608.27
671.518	4477.2
671.709	4593.94
671.9	4563.22
672.091	4495.63
672.282	4507.92
672.473	4536.59
672.664	4397.33
672.855	4499.73
673.046	4442.39
673.237	4417.81
673.428	4555.02
673.619	4309.27
673.809	4491.54
674	4585.74
674.191	4423.95
674.382	4505.87
674.573	4442.39
674.764	4286.74
674.954	4366.61
675.145	4399.38
675.336	4346.13
675.527	4260.12
675.717	4315.41
675.908	4264.21
676.099	4509.97
676.289	4249.88
676.48	4409.62
676.671	4321.56
676.861	4356.37
677.052	4344.08
677.243	4202.77
677.433	4319.51
677.624	4264.21
677.814	4231.44
678.005	4141.33
678.195	4253.97
678.386	4241.68
678.576	4239.64
678.767	4196.63
678.957	4274.45
679.148	4290.84
679.338	4288.79
679.529	4112.66
679.719	4219.16
679.909	4301.08
680.1	4182.29
680.29	4153.62
680.481	4155.67
680.671	4157.72
680.861	4141.33
681.052	4190.49
681.242	4227.35
681.432	4317.46
681.622	4110.61
681.813	4045.08
682.003	4167.96
682.193	4143.38
682.383	4243.73
682.573	4143.38
682.764	4174.1
682.954	4206.87
683.144	4172.05
683.334	4104.47
683.524	4053.27
683.714	4118.81
683.904	4178.2
684.094	4159.77
684.284	4194.58
684.474	4192.53
684.664	4202.77
684.854	4120.85
685.044	4106.52
685.234	3954.97
685.424	4225.3
685.614	4026.65
685.804	4077.85
685.994	3940.63
686.184	4155.67
686.374	4024.6
686.564	4049.18
686.753	3975.45
686.943	3840.28
687.133	4114.71
687.323	3842.33
687.513	3924.25
687.702	3881.24
687.892	3852.57
688.082	3844.38
688.272	3995.93
688.461	3733.79
688.651	3997.98
688.841	3959.06
689.03	3760.41
689.22	3860.76
689.41	3746.08
689.599	3868.95
689.789	3678.49
689.979	3842.33
690.168	3758.36
690.358	3586.33
690.547	3746.08
690.737	3719.45
690.926	3721.5
691.116	3520.8
691.305	3701.02
691.495	3582.24
691.684	3565.85
691.874	3553.57
692.063	3680.54
692.252	3557.66
692.442	3627.29
692.631	3606.81
692.82	3655.97
693.01	3551.52
693.199	3508.51
693.388	3338.53
693.578	3569.95
693.767	3512.61
693.956	3500.32
694.146	3555.62
694.335	3580.19
694.524	3363.11
694.713	3522.85
694.902	3449.12
695.092	3518.75
695.281	3453.22
695.47	3520.8
695.659	3440.93
695.848	3475.74
696.037	3393.83
696.226	3475.74
696.415	3459.36
696.604	3373.35
696.793	3424.55
696.982	3469.6
697.171	3479.84
697.36	3473.7
697.549	3291.43
697.738	3361.06
697.927	3299.62
698.116	3397.92
698.305	3324.19
698.494	3336.48
698.683	3416.35
698.872	3569.95
699.061	3440.93
699.25	3363.11
699.438	3440.93
699.627	3432.74
699.816	3461.41
700.005	3273
700.193	3275.04
700.382	3504.42
700.571	3381.54
700.76	3459.36
700.948	3205.41
701.137	3490.08
701.326	3330.34
701.514	3373.35
701.703	3320.1
701.892	3262.76
702.08	3408.16
702.269	3467.55
702.457	3412.26
702.646	3457.31
702.834	3326.24
703.023	3244.32
703.212	3430.69
703.4	3330.34
703.589	3285.28
703.777	3367.2
703.965	3189.03
704.154	3336.48
704.342	3410.21
704.531	3305.76
704.719	3303.71
704.907	3279.14
705.096	3305.76
705.284	3438.88
705.472	3299.62
705.661	3389.73
705.849	3336.48
706.037	3324.19
706.226	3311.91
706.414	3410.21
706.602	3365.15
706.79	3365.15
706.979	3399.97
707.167	3324.19
707.355	3254.56
707.543	3438.88
707.731	3309.86
707.919	3236.13
708.107	3354.91
708.296	3209.51
708.484	3273
708.672	3393.83
708.86	3440.93
709.048	3266.85
709.236	3377.44
709.424	3356.96
709.612	3322.15
709.8	3229.99
709.988	3262.76
710.176	3334.43
710.364	3359.01
710.551	3334.43
710.739	3399.97
710.927	3254.56
711.115	3459.36
711.303	3275.04
711.491	3334.43
711.679	3305.76
711.866	3266.85
712.054	3383.59
712.242	3234.08
712.43	3305.76
712.617	3363.11
712.805	3217.7
712.993	3451.17
713.181	3182.88
713.368	3346.72
713.556	3354.91
713.744	3184.93
713.931	3432.74
714.119	3195.17
714.306	3432.74
714.494	3342.63
714.682	3338.53
714.869	3406.11
715.057	3236.13
715.244	3262.76
715.432	3367.2
715.619	3369.25
715.807	3359.01
715.994	3174.69
716.182	3262.76
716.369	3381.54
716.556	3369.25
716.744	3420.45
716.931	3287.33
717.119	3342.63
717.306	3438.88
717.493	3381.54
717.681	3277.09
717.868	3344.67
718.055	3336.48
718.242	3381.54
718.43	3359.01
718.617	3258.66
718.804	3156.26
718.991	3483.94
719.179	3236.13
719.366	3426.59
719.553	3369.25
719.74	3336.48
719.927	3275.04
720.114	3397.92
720.301	3176.74
720.488	3336.48
720.676	3182.88
720.863	3342.63
721.05	3467.55
721.237	3299.62
721.424	3168.55
721.611	3213.6
721.798	3291.43
721.985	3238.18
722.172	3254.56
722.358	3283.24
722.545	3422.5
722.732	3350.82
722.919	3307.81
723.106	3189.03
723.293	3229.99
723.48	3301.67
723.667	3258.66
723.853	3359.01
724.04	3238.18
724.227	3320.1
724.414	3254.56
724.6	3213.6
724.787	3240.23
724.974	3240.23
725.161	3334.43
725.347	3182.88
725.534	3385.63
725.72	3252.52
725.907	3201.32
726.094	3170.6
726.28	3215.65
726.467	3242.28
726.653	3344.67
726.84	3207.46
727.027	3283.24
727.213	3176.74
727.4	3240.23
727.586	3266.85
727.773	3229.99
727.959	3262.76
728.145	3330.34
728.332	3262.76
728.518	3150.12
728.705	3281.19
728.891	3141.93
729.077	3309.86
729.264	3129.64
729.45	3158.31
729.636	3180.84
729.823	3100.97
730.009	3166.5
730.195	3162.41
730.382	3072.29
730.568	3139.88
730.754	3201.32
730.94	3098.92
731.126	3131.69
731.313	3170.6
731.499	3152.17
731.685	3086.63
731.871	3035.43
732.057	3113.25
732.243	3219.75
732.429	3090.73
732.615	3240.23
732.801	3213.6
732.987	3277.09
733.173	3154.21
733.359	2988.33
733.545	3227.94
733.731	3047.72
733.917	3166.5
734.103	3121.45
734.289	3055.91
734.475	3017
734.661	3129.64
734.847	3039.53
735.033	2984.23
735.219	3088.68
735.404	3098.92
735.59	3184.93
735.776	2996.52
735.962	3055.91
736.148	2988.33
736.333	3123.49
736.519	3000.62
736.705	2924.84
736.89	3004.71
737.076	3017
737.262	2973.99
737.447	3025.19
737.633	2994.47
737.819	3096.87
738.004	3023.14
738.19	3066.15
738.375	3025.19
738.561	2910.5
738.747	2896.17
738.932	2791.72
739.118	3017
739.303	2863.4
739.489	2896.17
739.674	2892.07
739.859	2877.74
740.045	2861.35
740.23	2939.18
740.416	2867.5
740.601	2988.33
740.786	2683.18
740.972	2787.63
741.157	2892.07
741.342	2863.4
741.528	2818.35
741.713	2687.28
741.898	2834.73
742.084	2791.72
742.269	2713.9
742.454	2730.28
742.639	2892.07
742.824	2656.56
743.01	2726.19
743.195	2808.11
743.38	2763.05
743.565	2666.8
743.75	2724.14
743.935	2584.88
744.12	2679.08
744.305	2591.02
744.49	2566.45
744.675	2634.03
744.86	2548.01
745.045	2601.26
745.23	2539.82
745.415	2685.23
745.6	2562.35
745.785	2474.29
745.97	2564.4
746.155	2472.24
746.34	2445.62
746.525	2373.94
746.71	2443.57
746.895	2423.09
747.079	2449.71
747.264	2390.32
747.449	2443.57
747.634	2476.34
747.819	2437.42
748.003	2459.95
748.188	2332.98
748.373	2330.93
748.557	2351.41
748.742	2281.78
748.927	2236.72
749.111	2228.53
749.296	2255.15
749.481	2115.89
749.665	2263.35
749.85	2230.58
750.034	2224.44
750.219	2173.24
750.404	2173.24
750.588	2144.56
750.773	2146.61
750.957	2066.74
751.141	2054.45
751.326	2113.85
751.51	2074.93
751.695	1999.16
751.879	2064.69
752.064	2146.61
752.248	1984.82
752.432	2040.12
752.617	1990.97
752.801	1974.58
752.985	1966.39
753.17	1970.49
753.354	1966.39
753.538	1984.82
753.722	1917.24
753.907	1859.9
754.091	1870.14
754.275	1872.18
754.459	1849.66
754.643	1759.55
754.828	1689.92
755.012	1845.56
755.196	1747.26
755.38	1757.5
755.564	1757.5
755.748	1798.46
755.932	1761.59
756.116	1685.82
756.3	1694.01
756.484	1599.8
756.668	1720.64
756.852	1610.04
757.036	1659.2
757.22	1691.96
757.404	1624.38
757.588	1505.6
757.772	1595.71
757.956	1569.09
758.14	1599.8
758.323	1456.45
758.507	1542.46
758.691	1423.68
758.875	1579.33
759.059	1497.41
759.242	1429.82
759.426	1515.84
759.61	1573.18
759.794	1370.43
759.977	1538.37
760.161	1526.08
760.345	1532.22
760.528	1468.73
760.712	1431.87
760.895	1440.06
761.079	1513.79
761.263	1388.86
761.446	1472.83
761.63	1352
761.813	1425.73
761.997	1413.44
762.18	1313.09
762.364	1452.35
762.547	1331.52
762.731	1489.21
762.914	1329.47
763.098	1306.95
763.281	1370.43
763.464	1259.84
763.648	1296.71
763.831	1368.38
764.015	1249.6
764.198	1302.85
764.381	1274.18
764.564	1319.23
764.748	1272.13
764.931	1317.19
765.114	1153.35
765.297	1214.79
765.481	1159.49
765.664	1198.4
765.847	1231.17
766.03	1134.92
766.213	1276.23
766.397	1263.94
766.58	1184.07
766.763	1229.12
766.946	1194.31
767.129	1169.73
767.312	1206.59
767.495	1208.64
767.678	1143.11
767.861	1161.54
768.044	1149.25
768.227	1188.16
768.41	1169.73
768.593	1261.89
768.776	1184.07
768.959	1218.88
769.142	1171.78
769.324	1167.68
769.507	1163.59
769.69	1083.72
769.873	1104.2
770.056	1075.52
770.239	1067.33
770.421	1130.82
770.604	1122.63
770.787	1081.67
770.97	1020.23
771.152	1065.29
771.335	997.7
771.518	975.17
771.7	1014.09
771.883	1083.72
772.066	1061.19
772.248	960.84
772.431	1042.76
772.613	985.41
772.796	1055.05
772.978	1032.52
773.161	1030.47
773.343	975.17
773.526	960.84
773.708	936.26
773.891	897.35
774.073	948.55
774.256	885.06
774.438	983.37
774.621	848.2
774.803	1065.29
774.985	973.13
775.168	919.88
775.35	901.45
775.532	893.26
775.715	872.78
775.897	880.97
776.079	856.39
776.261	883.02
776.444	866.63
776.626	868.68
776.808	860.49
776.99	756.04
777.173	799.05
777.355	856.39
777.537	823.62
777.719	784.71
777.901	786.76
778.083	821.58
778.265	801.1
778.447	768.33
778.629	756.04
778.811	782.67
778.993	745.8
779.175	760.14
779.357	735.56
779.539	694.6
779.721	753.99
779.903	766.28
780.085	788.81
780.267	780.62
780.449	723.27
780.631	758.09
780.812	713.03
780.994	704.84
781.176	729.42
781.358	665.93
781.54	661.84
781.721	645.45
781.903	702.79
782.085	676.17
782.267	715.08
782.448	667.98
782.63	665.93
782.812	637.26
782.993	639.31
783.175	659.79
783.357	592.2
783.538	657.74
783.72	598.35
783.901	600.4
784.083	649.55
784.264	573.77
784.446	633.16
784.627	586.06
784.809	541.01
784.99	588.11
785.172	567.63
785.353	575.82
785.535	588.11
785.716	612.68
785.897	489.81
786.079	532.81
786.26	551.24
786.441	516.43
786.623	532.81
786.804	493.9
786.985	483.66
787.167	553.29
787.348	526.67
787.529	469.33
787.71	543.05
787.891	516.43
788.073	442.7
788.254	479.57
788.435	438.61
788.616	465.23
788.797	518.48
788.978	440.65
789.159	424.27
789.34	448.85
789.522	506.19
789.703	407.89
789.884	403.79
790.065	461.13
790.246	491.85
790.427	407.89
790.607	512.33
790.788	452.94
790.969	407.89
791.15	465.23
791.331	356.69
791.512	444.75
791.693	405.84
791.874	403.79
792.054	414.03
792.235	440.65
792.416	354.64
792.597	368.98
792.778	420.17
792.958	432.46
793.139	276.82
793.32	379.22
793.5	282.96
793.681	418.13
793.862	348.5
794.042	350.54
794.223	379.22
794.404	354.64
794.584	383.31
794.765	274.77
794.945	342.35
795.126	325.97
795.306	301.39
795.487	371.02
795.667	362.83
795.848	371.02
796.028	350.54
796.209	301.39
796.389	321.87
796.57	325.97
796.75	352.59
796.93	344.4
797.111	295.25
797.291	305.49
797.471	309.58
797.652	332.11
797.832	354.64
798.012	358.74
798.192	297.3
798.373	381.26
798.553	305.49
798.733	276.82
798.913	334.16
799.093	272.72
799.274	332.11
799.454	297.3
799.634	338.26
799.814	356.69
799.994	340.3
800.174	328.02
800.354	262.48
800.534	231.76
800.714	305.49
800.894	244.05
801.074	301.39
801.254	291.15
801.434	311.63
801.614	285.01
801.794	268.63
801.974	782.67
802.154	262.48
802.334	252.24
802.514	211.28
802.693	270.67
802.873	250.19
803.053	303.44
803.233	203.09
803.413	213.33
803.592	297.3
803.772	254.29
803.952	233.81
804.131	254.29
804.311	254.29
804.491	278.87
804.67	256.34
804.85	280.91
805.03	190.8
805.209	278.87
805.389	246.1
805.568	186.71
805.748	172.37
805.928	248.15
806.107	201.04
806.287	244.05
806.466	211.28
806.646	278.87
806.825	250.19
807.004	164.18
807.184	198.99
807.363	268.63
807.543	260.43
807.722	196.95
807.901	313.68
808.081	295.25
808.26	166.23
808.439	205.14
808.619	280.91
808.798	203.09
808.977	139.6
809.156	201.04
809.336	198.99
809.515	248.15
809.694	178.51
809.873	221.52
810.052	205.14
810.231	211.28
810.411	219.47
810.59	225.62
810.769	205.14
810.948	119.12
811.127	182.61
811.306	110.93
811.485	168.27
811.664	131.41
811.843	260.43
812.022	190.8
812.201	229.71
812.38	168.27
812.559	215.38
812.737	188.75
812.916	151.89
813.095	137.56
813.274	149.84
813.453	235.86
813.632	131.41
813.811	188.75
813.989	162.13
814.168	235.86
814.347	160.08
814.526	174.42
814.704	180.56
814.883	252.24
815.062	166.23
815.24	168.27
815.419	131.41
815.598	190.8
815.776	121.17
815.955	186.71
816.133	164.18
816.312	129.36
816.49	131.41
816.669	188.75
816.847	117.08
817.026	233.81
817.204	141.65
817.383	180.56
817.561	57.68
817.74	129.36
817.918	166.23
818.097	184.66
818.275	217.43
818.453	123.22
818.632	211.28
818.81	166.23
818.988	188.75
819.167	125.27
819.345	110.93
819.523	98.64
819.701	205.14
819.879	115.03
820.058	158.03
820.236	155.99
820.414	180.56
820.592	100.69
820.77	131.41
820.948	133.46
821.127	96.6
821.305	102.74
821.483	158.03
821.661	155.99
821.839	108.88
822.017	74.07
822.195	96.6
822.373	182.61
822.551	145.75
822.729	84.31
822.907	125.27
823.085	182.61
823.262	125.27
823.44	106.84
823.618	194.9
823.796	143.7
823.974	129.36
824.152	47.44
824.329	96.6
824.507	174.42
824.685	125.27
824.863	186.71
825.04	82.26
825.218	133.46
825.396	90.45
825.574	92.5
825.751	61.78
825.929	121.17
826.107	67.92
826.284	108.88
826.462	104.79
826.639	96.6
826.817	137.56
826.994	106.84
827.172	119.12
827.349	129.36
827.527	37.2
827.704	117.08
827.882	112.98
828.059	67.92
828.237	86.36
828.414	104.79
828.591	-11.95
828.769	129.36
828.946	123.22
829.124	145.75
829.301	141.65
829.478	112.98
829.655	112.98
829.833	129.36
830.01	-1.71
830.187	61.78
830.364	90.45
830.542	100.69
830.719	145.75
830.896	143.7
831.073	153.94
831.25	194.9
831.427	96.6
831.604	104.79
831.782	121.17
831.959	67.92
832.136	63.83
832.313	57.68
832.49	82.26
832.667	133.46
832.844	137.56
833.021	170.32
833.198	88.4
833.374	100.69
833.551	57.68
833.728	137.56
833.905	55.64
834.082	-1.71
834.259	166.23
834.436	92.5
834.612	53.59
834.789	131.41
834.966	106.84
835.143	96.6
835.319	67.92
835.496	53.59
835.673	84.31
835.85	110.93
836.026	18.77
836.203	110.93
836.38	63.83
836.556	61.78
836.733	137.56
836.909	84.31
837.086	112.98
837.262	26.96
837.439	106.84
837.616	84.31
837.792	61.78
837.968	106.84
838.145	-50.86
838.321	51.54
838.498	82.26
838.674	51.54
838.851	94.55
839.027	94.55
839.203	96.6
839.38	61.78
839.556	59.73
839.732	112.98
839.909	53.59
840.085	55.64
840.261	65.88
840.437	92.5
840.614	29.01
840.79	96.6
840.966	51.54
841.142	149.84
841.318	-50.86
841.494	92.5
841.671	55.64
841.847	49.49
842.023	76.12
842.199	24.92
842.375	65.88
842.551	37.2
842.727	53.59
842.903	51.54
843.079	6.49
843.255	35.16
843.431	33.11
843.607	63.83
843.783	-52.91
843.959	153.94
844.134	14.68
844.31	2.39
844.486	63.83
844.662	-32.43
844.838	-36.52
845.013	102.74
845.189	-20.14
845.365	35.16
845.541	18.77
845.716	22.87
845.892	57.68
846.068	35.16
846.244	43.35
846.419	43.35
846.595	84.31
846.77	-24.23
846.946	131.41
847.122	49.49
847.297	43.35
847.473	53.59
847.648	43.35
847.824	0.34
847.999	-3.75
848.175	41.3
848.35	26.96
848.526	33.11
848.701	10.58
848.876	33.11
849.052	47.44
849.227	59.73
849.403	2.39
849.578	0.34
849.753	94.55
849.929	10.58
850.104	63.83
850.279	63.83
850.454	18.77
850.63	22.87
850.805	18.77
850.98	106.84
851.155	-5.8
851.33	69.97
851.505	26.96
851.681	26.96
851.856	90.45
852.031	-26.28
852.206	110.93
852.381	6.49
852.556	-34.47
852.731	6.49
852.906	51.54
853.081	88.4
853.256	26.96
853.431	22.87
853.606	-9.9
853.781	10.58
853.956	6.49
854.131	-30.38
854.305	-63.15
854.48	24.92
854.655	43.35
854.83	-18.09
855.005	63.83
855.18	74.07
855.354	10.58
855.529	12.63
855.704	47.44
855.879	63.83
856.053	2.39
856.228	-3.75
856.403	35.16
856.577	55.64
856.752	-11.95
856.926	47.44
857.101	84.31
857.276	-32.43
857.45	45.4
857.625	55.64
857.799	37.2
857.974	35.16
858.148	-89.77
858.323	0.34
858.497	69.97
858.672	4.44
858.846	-61.1
859.02	-24.23
859.195	-1.71
859.369	6.49
859.543	2.39
859.718	2.39
859.892	72.02
860.066	-5.8
860.241	24.92
860.415	-28.33
860.589	20.82
860.763	33.11
860.938	112.98
861.112	-18.09
861.286	35.16
861.46	45.4
861.634	67.92
861.808	26.96
861.982	10.58
862.157	59.73
862.331	106.84
862.505	33.11
862.679	-61.1
862.853	65.88
863.027	33.11
863.201	69.97
863.375	-32.43
863.549	16.73
863.722	2.39
863.896	31.06
864.07	-5.8
864.244	26.96
864.418	26.96
864.592	33.11
864.766	-71.34
864.939	59.73
865.113	-22.19
865.287	39.25
865.461	-30.38
865.634	51.54
865.808	-26.28
865.982	29.01
866.156	22.87
866.329	-44.71
866.503	26.96
866.676	49.49
866.85	-5.8
867.024	22.87
867.197	35.16
867.371	69.97
867.544	0.34
867.718	-9.9
867.891	45.4
868.065	-65.19
868.238	-28.33
868.412	37.2
868.585	-3.75
868.759	41.3
868.932	-54.95
869.105	-22.19
869.279	-26.28
869.452	2.39
869.625	33.11
869.799	-36.52
869.972	-77.48
870.145	-9.9
870.319	-32.43
870.492	35.16
870.665	6.49
870.838	-30.38
871.011	-32.43
871.185	-5.8
871.358	-9.9
871.531	10.58
871.704	-65.19
871.877	-18.09
872.05	-32.43
872.223	-9.9
872.396	22.87
872.569	20.82
872.742	-38.57
872.915	-22.19
873.088	-18.09
873.261	-57
873.434	-5.8
873.607	80.21
873.78	45.4
873.953	31.06
874.126	47.44
874.299	-3.75
874.471	20.82
874.644	-63.15
874.817	33.11
874.99	69.97
875.163	-5.8
875.335	-1.71
875.508	57.68
875.681	84.31
875.853	0.34
876.026	67.92
876.199	31.06
876.371	-24.23
876.544	33.11
876.717	-42.67
876.889	-34.47
877.062	0.34
877.234	-97.96
877.407	-5.8
877.579	61.78
877.752	-44.71
877.924	-3.75
878.097	-20.14
878.269	22.87
878.442	43.35
878.614	6.49
878.786	80.21
878.959	72.02
879.131	47.44
879.303	-9.9
879.476	20.82
879.648	8.53
879.82	-63.15
879.993	-65.19
880.165	-30.38
880.337	57.68
880.509	-5.8
880.681	0.34
880.854	41.3
881.026	-16.04
881.198	80.21
881.37	-20.14
881.542	12.63
881.714	-34.47
881.886	49.49
882.058	10.58
882.23	-3.75
882.402	-1.71
882.574	-7.85
882.746	26.96
882.918	10.58
883.09	37.2
883.262	-3.75
883.434	-52.91
883.606	10.58
883.778	14.68
883.95	10.58
884.122	33.11
884.293	37.2
884.465	-3.75
884.637	39.25
884.809	-54.95
884.98	22.87
885.152	39.25
885.324	-42.67
885.496	-38.57
885.667	43.35
885.839	-79.53
886.011	61.78
886.182	35.16
886.354	94.55
886.525	18.77
886.697	-30.38
886.869	-63.15
887.04	-48.81
887.212	55.64
887.383	53.59
887.555	47.44
887.726	41.3
887.897	-104.11
888.069	59.73
888.24	-42.67
888.412	51.54
888.583	14.68
888.754	-26.28
888.926	-34.47
889.097	2.39
889.268	-69.29
889.44	84.31
889.611	-18.09
889.782	22.87
889.953	-52.91
890.125	6.49
890.296	-38.57
890.467	-57
890.638	-46.76
890.809	-48.81
890.98	26.96
891.151	67.92
891.323	45.4
891.494	29.01
891.665	14.68
891.836	-40.62
892.007	24.92
892.178	-13.99
892.349	10.58
892.52	-34.47
892.691	-5.8
892.862	-32.43
893.032	14.68
893.203	14.68
893.374	35.16
893.545	59.73
893.716	-46.76
893.887	31.06
894.057	-18.09
894.228	0.34
894.399	-16.04
894.57	55.64
894.74	-48.81
894.911	-77.48
895.082	-7.85
895.253	59.73
895.423	-1.71
895.594	-18.09
895.764	-5.8
895.935	-9.9
896.106	61.78
896.276	-5.8
896.447	53.59
896.617	-34.47
896.788	-57
896.958	16.73
897.129	-16.04
897.299	22.87
897.47	26.96
897.64	0.34
897.81	-77.48
897.981	2.39
898.151	6.49
898.322	20.82
898.492	-24.23
898.662	0.34
898.832	-11.95
899.003	-128.68
899.173	-34.47
899.343	49.49
899.513	-54.95
