Data from USB4F104151__222__10-30-12-512.txt Node

Date: Wed Mar 12 10:30:12 EDT 2025
User: louis
Spectrometer: USB4F10415
Trigger mode: 4
Integration Time (sec): 3.000000E-2
Scans to average: 1
Electric dark correction enabled: true
Nonlinearity correction enabled: false
Boxcar width: 0
XAxis mode: Wavelengths
Number of Pixels in Spectrum: 3648
>>>>>Begin Spectral Data<<<<<
178.204	-73.9
178.424	-73.9
178.644	-73.9
178.864	-106.67
179.084	-53.42
179.304	20.31
179.524	12.12
179.744	-82.09
179.964	-22.7
180.184	48.98
180.404	24.4
180.624	-24.75
180.844	18.26
181.064	5.97
181.283	3.93
181.503	-30.89
181.723	26.45
181.943	14.17
182.163	57.17
182.383	-20.65
182.602	126.8
182.822	46.93
183.042	-10.41
183.262	16.21
183.482	55.12
183.701	30.55
183.921	67.41
184.141	67.41
184.361	30.55
184.58	-12.46
184.8	20.31
185.02	42.84
185.239	-63.66
185.459	53.08
185.679	36.69
185.898	-4.27
186.118	-20.65
186.338	53.08
186.557	40.79
186.777	61.27
186.997	42.84
187.216	-69.8
187.436	34.64
187.655	67.41
187.875	14.17
188.095	-39.08
188.314	30.55
188.534	30.55
188.753	53.08
188.973	-26.79
189.192	3.93
189.412	1.88
189.631	96.08
189.851	20.31
190.07	32.6
190.29	71.51
190.509	48.98
190.729	-30.89
190.948	63.32
191.168	106.32
191.387	51.03
191.607	32.6
191.826	55.12
192.045	-14.51
192.265	5.97
192.484	42.84
192.704	34.64
192.923	3.93
193.142	57.17
193.362	91.99
193.581	-0.17
193.8	67.41
194.02	102.23
194.239	-18.6
194.458	63.32
194.678	18.26
194.897	55.12
195.116	42.84
195.335	12.12
195.555	18.26
195.774	-4.27
195.993	8.02
196.212	-39.08
196.432	-18.6
196.651	36.69
196.87	10.07
197.089	132.95
197.308	71.51
197.528	112.47
197.747	10.07
197.966	-30.89
198.185	96.08
198.404	-12.46
198.623	87.89
198.842	1.88
199.062	118.61
199.281	73.56
199.5	46.93
199.719	14.17
199.938	36.69
200.157	55.12
200.376	16.21
200.595	94.04
200.814	28.5
201.033	61.27
201.252	94.04
201.471	10.07
201.69	8.02
201.909	28.5
202.128	57.17
202.347	38.74
202.566	-28.84
202.785	59.22
203.004	-6.31
203.223	79.7
203.442	-18.6
203.661	18.26
203.879	69.46
204.098	24.4
204.317	-12.46
204.536	83.8
204.755	-26.79
204.974	-18.6
205.193	30.55
205.411	102.23
205.63	-41.13
205.849	51.03
206.068	22.36
206.287	-0.17
206.505	12.12
206.724	12.12
206.943	-71.85
207.162	20.31
207.381	81.75
207.599	32.6
207.818	-26.79
208.037	69.46
208.255	-12.46
208.474	44.88
208.693	20.31
208.911	59.22
209.13	46.93
209.349	8.02
209.567	34.64
209.786	42.84
210.005	46.93
210.223	32.6
210.442	-34.99
210.661	51.03
210.879	24.4
211.098	48.98
211.316	61.27
211.535	-14.51
211.753	-24.75
211.972	71.51
212.191	-4.27
212.409	30.55
212.628	20.31
212.846	3.93
213.065	32.6
213.283	59.22
213.502	-24.75
213.72	61.27
213.938	44.88
214.157	38.74
214.375	51.03
214.594	36.69
214.812	59.22
215.031	-28.84
215.249	20.31
215.467	73.56
215.686	-18.6
215.904	96.08
216.122	48.98
216.341	-45.23
216.559	26.45
216.778	63.32
216.996	102.23
217.214	44.88
217.432	-49.32
217.651	34.64
217.869	1.88
218.087	40.79
218.306	-14.51
218.524	79.7
218.742	46.93
218.96	-24.75
219.179	-24.75
219.397	5.97
219.615	112.47
219.833	77.65
220.051	-18.6
220.27	44.88
220.488	73.56
220.706	67.41
220.924	5.97
221.142	83.8
221.36	-24.75
221.578	-12.46
221.796	100.18
222.015	44.88
222.233	96.08
222.451	34.64
222.669	1.88
222.887	16.21
223.105	-34.99
223.323	16.21
223.541	-10.41
223.759	20.31
223.977	12.12
224.195	55.12
224.413	5.97
224.631	44.88
224.849	-10.41
225.067	94.04
225.285	24.4
225.503	-2.22
225.721	-14.51
225.939	38.74
226.157	-22.7
226.375	71.51
226.592	-34.99
226.81	36.69
227.028	-20.65
227.246	12.12
227.464	55.12
227.682	55.12
227.9	-28.84
228.117	16.21
228.335	20.31
228.553	-12.46
228.771	46.93
228.989	14.17
229.206	28.5
229.424	8.02
229.642	53.08
229.86	3.93
230.077	51.03
230.295	-28.84
230.513	87.89
230.731	51.03
230.948	75.6
231.166	77.65
231.384	-16.55
231.601	-8.36
231.819	85.84
232.037	34.64
232.254	-28.84
232.472	-100.52
232.689	40.79
232.907	42.84
233.125	20.31
233.342	8.02
233.56	59.22
233.777	-55.47
233.995	-18.6
234.213	55.12
234.43	71.51
234.648	65.36
234.865	65.36
235.083	65.36
235.3	36.69
235.518	18.26
235.735	38.74
235.953	79.7
236.17	53.08
236.388	38.74
236.605	34.64
236.822	110.42
237.04	-45.23
237.257	20.31
237.475	18.26
237.692	-0.17
237.909	36.69
238.127	8.02
238.344	61.27
238.562	46.93
238.779	22.36
238.996	26.45
239.214	63.32
239.431	83.8
239.648	77.65
239.865	53.08
240.083	24.4
240.3	-53.42
240.517	18.26
240.735	5.97
240.952	61.27
241.169	44.88
241.386	36.69
241.603	38.74
241.821	42.84
242.038	71.51
242.255	104.28
242.472	55.12
242.689	110.42
242.907	108.37
243.124	16.21
243.341	12.12
243.558	-26.79
243.775	34.64
243.992	28.5
244.209	46.93
244.426	51.03
244.643	40.79
244.86	53.08
245.078	10.07
245.295	-10.41
245.512	1.88
245.729	30.55
245.946	71.51
246.163	73.56
246.38	-34.99
246.597	36.69
246.814	-0.17
247.031	51.03
247.248	-37.03
247.464	-22.7
247.681	59.22
247.898	14.17
248.115	63.32
248.332	28.5
248.549	63.32
248.766	87.89
248.983	75.6
249.2	18.26
249.417	79.7
249.633	12.12
249.85	79.7
250.067	61.27
250.284	32.6
250.501	67.41
250.717	61.27
250.934	24.4
251.151	8.02
251.368	-4.27
251.585	61.27
251.801	46.93
252.018	3.93
252.235	81.75
252.451	38.74
252.668	20.31
252.885	38.74
253.102	-10.41
253.318	-6.31
253.535	-6.31
253.752	28.5
253.968	24.4
254.185	22.36
254.401	28.5
254.618	20.31
254.835	-4.27
255.051	89.94
255.268	-34.99
255.484	20.31
255.701	22.36
255.917	51.03
256.134	3.93
256.351	42.84
256.567	28.5
256.784	18.26
257	14.17
257.217	-20.65
257.433	36.69
257.65	48.98
257.866	38.74
258.082	-59.56
258.299	28.5
258.515	65.36
258.732	-2.22
258.948	30.55
259.165	34.64
259.381	38.74
259.597	8.02
259.814	59.22
260.03	102.23
260.246	14.17
260.463	-16.55
260.679	106.32
260.895	20.31
261.112	8.02
261.328	24.4
261.544	1.88
261.761	83.8
261.977	-18.6
262.193	-20.65
262.409	-18.6
262.626	3.93
262.842	16.21
263.058	14.17
263.274	87.89
263.49	118.61
263.707	59.22
263.923	-26.79
264.139	-18.6
264.355	28.5
264.571	55.12
264.787	30.55
265.004	34.64
265.22	67.41
265.436	5.97
265.652	5.97
265.868	71.51
266.084	-34.99
266.3	28.5
266.516	1.88
266.732	30.55
266.948	30.55
267.164	53.08
267.38	28.5
267.596	71.51
267.812	42.84
268.028	46.93
268.244	28.5
268.46	24.4
268.676	46.93
268.892	53.08
269.108	51.03
269.324	59.22
269.54	-2.22
269.756	69.46
269.972	-24.75
270.188	63.32
270.403	-6.31
270.619	57.17
270.835	46.93
271.051	-18.6
271.267	51.03
271.483	-4.27
271.698	77.65
271.914	83.8
272.13	34.64
272.346	65.36
272.562	5.97
272.777	61.27
272.993	96.08
273.209	46.93
273.425	38.74
273.64	30.55
273.856	53.08
274.072	-4.27
274.287	14.17
274.503	-18.6
274.719	34.64
274.934	3.93
275.15	46.93
275.366	96.08
275.581	-20.65
275.797	83.8
276.012	24.4
276.228	1.88
276.444	26.45
276.659	89.94
276.875	57.17
277.09	55.12
277.306	98.13
277.521	-30.89
277.737	16.21
277.952	48.98
278.168	38.74
278.383	34.64
278.599	32.6
278.814	79.7
279.03	3.93
279.245	96.08
279.461	16.21
279.676	3.93
279.892	22.36
280.107	73.56
280.322	-18.6
280.538	73.56
280.753	59.22
280.969	-37.03
281.184	55.12
281.399	-12.46
281.615	57.17
281.83	12.12
282.045	22.36
282.26	-24.75
282.476	55.12
282.691	114.52
282.906	61.27
283.122	36.69
283.337	30.55
283.552	55.12
283.767	-51.37
283.983	87.89
284.198	46.93
284.413	83.8
284.628	-30.89
284.843	34.64
285.058	124.76
285.274	-26.79
285.489	44.88
285.704	71.51
285.919	32.6
286.134	44.88
286.349	-10.41
286.564	28.5
286.779	55.12
286.995	-2.22
287.21	-34.99
287.425	55.12
287.64	3.93
287.855	-18.6
288.07	-45.23
288.285	30.55
288.5	96.08
288.715	38.74
288.93	40.79
289.145	42.84
289.36	81.75
289.575	57.17
289.79	65.36
290.004	32.6
290.219	12.12
290.434	20.31
290.649	-24.75
290.864	75.6
291.079	53.08
291.294	10.07
291.509	24.4
291.724	20.31
291.938	-4.27
292.153	48.98
292.368	-34.99
292.583	32.6
292.798	5.97
293.012	24.4
293.227	42.84
293.442	-47.27
293.657	-12.46
293.871	34.64
294.086	26.45
294.301	12.12
294.516	59.22
294.73	79.7
294.945	18.26
295.16	3.93
295.374	59.22
295.589	110.42
295.804	69.46
296.018	83.8
296.233	53.08
296.447	94.04
296.662	10.07
296.877	46.93
297.091	8.02
297.306	10.07
297.52	38.74
297.735	81.75
297.949	44.88
298.164	57.17
298.378	71.51
298.593	22.36
298.807	-18.6
299.022	-49.32
299.236	53.08
299.451	10.07
299.665	14.17
299.88	42.84
300.094	-51.37
300.309	38.74
300.523	46.93
300.737	-30.89
300.952	81.75
301.166	104.28
301.381	-45.23
301.595	108.37
301.809	24.4
302.024	30.55
302.238	1.88
302.452	71.51
302.667	24.4
302.881	-8.36
303.095	94.04
303.309	20.31
303.524	63.32
303.738	63.32
303.952	-18.6
304.166	30.55
304.381	42.84
304.595	94.04
304.809	5.97
305.023	96.08
305.237	83.8
305.452	61.27
305.666	12.12
305.88	102.23
306.094	46.93
306.308	81.75
306.522	36.69
306.736	96.08
306.95	12.12
307.164	155.47
307.379	-2.22
307.593	46.93
307.807	32.6
308.021	75.6
308.235	38.74
308.449	87.89
308.663	71.51
308.877	36.69
309.091	51.03
309.305	32.6
309.519	18.26
309.733	18.26
309.947	10.07
310.161	24.4
310.374	30.55
310.588	87.89
310.802	-32.94
311.016	63.32
311.23	106.32
311.444	26.45
311.658	48.98
311.872	-2.22
312.085	63.32
312.299	89.94
312.513	42.84
312.727	42.84
312.941	34.64
313.154	46.93
313.368	14.17
313.582	87.89
313.796	85.84
314.009	-43.18
314.223	79.7
314.437	-14.51
314.651	-2.22
314.864	22.36
315.078	20.31
315.292	46.93
315.505	-14.51
315.719	40.79
315.933	40.79
316.146	32.6
316.36	-39.08
316.573	71.51
316.787	48.98
317.001	-6.31
317.214	-10.41
317.428	81.75
317.641	-125.1
317.855	61.27
318.068	57.17
318.282	96.08
318.495	135
318.709	28.5
318.922	-20.65
319.136	116.56
319.349	53.08
319.563	20.31
319.776	71.51
319.99	34.64
320.203	69.46
320.417	79.7
320.63	61.27
320.843	77.65
321.057	34.64
321.27	55.12
321.483	12.12
321.697	77.65
321.91	12.12
322.124	89.94
322.337	38.74
322.55	18.26
322.763	16.21
322.977	-16.55
323.19	46.93
323.403	38.74
323.617	30.55
323.83	124.76
324.043	42.84
324.256	22.36
324.469	3.93
324.683	91.99
324.896	-30.89
325.109	149.33
325.322	12.12
325.535	89.94
325.748	106.32
325.962	30.55
326.175	51.03
326.388	53.08
326.601	14.17
326.814	77.65
327.027	22.36
327.24	69.46
327.453	20.31
327.666	10.07
327.879	61.27
328.092	20.31
328.305	75.6
328.518	22.36
328.731	63.32
328.944	-2.22
329.157	-16.55
329.37	34.64
329.583	100.18
329.796	51.03
330.009	-12.46
330.222	18.26
330.435	30.55
330.648	18.26
330.861	83.8
331.073	48.98
331.286	59.22
331.499	28.5
331.712	-67.75
331.925	1.88
332.138	-0.17
332.35	28.5
332.563	16.21
332.776	28.5
332.989	67.41
333.202	-39.08
333.414	53.08
333.627	24.4
333.84	-16.55
334.053	51.03
334.265	1.88
334.478	18.26
334.691	26.45
334.903	63.32
335.116	94.04
335.329	94.04
335.541	55.12
335.754	71.51
335.966	36.69
336.179	57.17
336.392	63.32
336.604	14.17
336.817	55.12
337.029	108.37
337.242	44.88
337.454	61.27
337.667	44.88
337.88	38.74
338.092	38.74
338.305	59.22
338.517	51.03
338.729	114.52
338.942	28.5
339.154	-20.65
339.367	1.88
339.579	55.12
339.792	-55.47
340.004	73.56
340.217	22.36
340.429	67.41
340.641	59.22
340.854	28.5
341.066	102.23
341.278	30.55
341.491	145.24
341.703	26.45
341.915	30.55
342.128	116.56
342.34	-6.31
342.552	-0.17
342.764	30.55
342.977	18.26
343.189	-2.22
343.401	5.97
343.613	24.4
343.826	24.4
344.038	59.22
344.25	48.98
344.462	-22.7
344.674	32.6
344.886	61.27
345.099	98.13
345.311	32.6
345.523	73.56
345.735	38.74
345.947	34.64
346.159	30.55
346.371	48.98
346.583	-6.31
346.795	161.62
347.007	79.7
347.219	57.17
347.431	18.26
347.643	83.8
347.855	18.26
348.067	106.32
348.279	-14.51
348.491	34.64
348.703	-57.51
348.915	67.41
349.127	22.36
349.339	53.08
349.551	1.88
349.763	108.37
349.975	-55.47
350.187	-2.22
350.399	3.93
350.61	26.45
350.822	-6.31
351.034	10.07
351.246	94.04
351.458	69.46
351.669	30.55
351.881	69.46
352.093	85.84
352.305	55.12
352.517	61.27
352.728	171.86
352.94	46.93
353.152	40.79
353.363	12.12
353.575	38.74
353.787	57.17
353.999	44.88
354.21	-2.22
354.422	30.55
354.633	-6.31
354.845	-4.27
355.057	30.55
355.268	40.79
355.48	26.45
355.692	12.12
355.903	67.41
356.115	77.65
356.326	30.55
356.538	53.08
356.749	91.99
356.961	116.56
357.172	51.03
357.384	53.08
357.595	57.17
357.807	100.18
358.018	71.51
358.23	61.27
358.441	65.36
358.653	18.26
358.864	-4.27
359.075	-8.36
359.287	22.36
359.498	169.81
359.709	38.74
359.921	44.88
360.132	-24.75
360.344	110.42
360.555	36.69
360.766	59.22
360.977	24.4
361.189	38.74
361.4	-0.17
361.611	108.37
361.823	61.27
362.034	73.56
362.245	-20.65
362.456	87.89
362.667	87.89
362.879	36.69
363.09	30.55
363.301	59.22
363.512	28.5
363.723	44.88
363.935	10.07
364.146	57.17
364.357	48.98
364.568	87.89
364.779	-8.36
364.99	67.41
365.201	57.17
365.412	128.85
365.623	85.84
365.834	65.36
366.045	91.99
366.256	83.8
366.467	65.36
366.678	104.28
366.889	135
367.1	51.03
367.311	94.04
367.522	34.64
367.733	71.51
367.944	77.65
368.155	-2.22
368.366	57.17
368.577	87.89
368.788	167.76
368.999	-6.31
369.209	16.21
369.42	87.89
369.631	71.51
369.842	71.51
370.053	30.55
370.264	112.47
370.474	141.14
370.685	24.4
370.896	51.03
371.107	73.56
371.317	91.99
371.528	96.08
371.739	94.04
371.95	94.04
372.16	87.89
372.371	40.79
372.582	104.28
372.792	51.03
373.003	44.88
373.214	-18.6
373.424	112.47
373.635	32.6
373.846	48.98
374.056	67.41
374.267	100.18
374.477	79.7
374.688	73.56
374.898	28.5
375.109	120.66
375.319	46.93
375.53	59.22
375.74	51.03
375.951	57.17
376.161	5.97
376.372	139.09
376.582	46.93
376.793	44.88
377.003	59.22
377.214	77.65
377.424	79.7
377.635	104.28
377.845	26.45
378.055	67.41
378.266	44.88
378.476	61.27
378.686	79.7
378.897	147.28
379.107	34.64
379.317	16.21
379.528	79.7
379.738	65.36
379.948	67.41
380.158	59.22
380.369	71.51
380.579	59.22
380.789	44.88
380.999	61.27
381.21	26.45
381.42	98.13
381.63	38.74
381.84	137.04
382.05	79.7
382.261	55.12
382.471	44.88
382.681	77.65
382.891	94.04
383.101	147.28
383.311	-22.7
383.521	67.41
383.731	118.61
383.941	85.84
384.151	53.08
384.361	96.08
384.571	137.04
384.781	-14.51
384.991	120.66
385.201	79.7
385.411	57.17
385.621	87.89
385.831	5.97
386.041	42.84
386.251	38.74
386.461	-22.7
386.671	40.79
386.881	67.41
387.091	106.32
387.301	91.99
387.511	38.74
387.72	81.75
387.93	100.18
388.14	63.32
388.35	77.65
388.56	124.76
388.769	104.28
388.979	67.41
389.189	77.65
389.399	24.4
389.609	67.41
389.818	75.6
390.028	124.76
390.238	5.97
390.447	28.5
390.657	91.99
390.867	48.98
391.076	14.17
391.286	55.12
391.496	75.6
391.705	91.99
391.915	77.65
392.125	155.47
392.334	79.7
392.544	75.6
392.753	104.28
392.963	-8.36
393.172	51.03
393.382	26.45
393.591	77.65
393.801	79.7
394.01	114.52
394.22	110.42
394.429	153.43
394.639	55.12
394.848	120.66
395.058	145.24
395.267	87.89
395.477	112.47
395.686	63.32
395.895	141.14
396.105	126.8
396.314	145.24
396.524	81.75
396.733	122.71
396.942	79.7
397.152	100.18
397.361	102.23
397.57	122.71
397.78	112.47
397.989	120.66
398.198	91.99
398.407	139.09
398.617	118.61
398.826	112.47
399.035	120.66
399.244	87.89
399.453	5.97
399.663	85.84
399.872	180.05
400.081	53.08
400.29	194.39
400.499	141.14
400.708	75.6
400.917	137.04
401.127	48.98
401.336	61.27
401.545	135
401.754	149.33
401.963	161.62
402.172	69.46
402.381	135
402.59	165.71
402.799	132.95
403.008	137.04
403.217	163.67
403.426	104.28
403.635	96.08
403.844	208.72
404.053	124.76
404.262	143.19
404.471	188.24
404.68	167.76
404.888	169.81
405.097	116.56
405.306	143.19
405.515	155.47
405.724	186.19
405.933	165.71
406.142	145.24
406.35	208.72
406.559	231.25
406.768	194.39
406.977	259.92
407.185	178
407.394	304.98
407.603	167.76
407.812	257.87
408.02	155.47
408.229	239.44
408.438	264.02
408.646	202.58
408.855	249.68
409.064	358.22
409.272	255.83
409.481	333.65
409.69	341.84
409.898	382.8
410.107	374.61
410.315	339.79
410.524	403.28
410.733	440.14
410.941	350.03
411.15	407.38
411.358	421.71
411.567	423.76
411.775	419.66
411.984	485.2
412.192	477.01
412.401	477.01
412.609	534.35
412.818	501.58
413.026	632.65
413.234	630.6
413.443	702.28
413.651	657.23
413.86	603.98
414.068	679.75
414.276	675.66
414.485	722.76
414.693	743.24
414.901	882.5
415.11	759.63
415.318	735.05
415.526	792.39
415.734	847.69
415.943	960.33
416.151	919.37
416.359	978.76
416.567	1013.57
416.776	1005.38
416.984	1019.72
417.192	1042.25
417.4	1058.63
417.608	1132.36
417.817	1285.95
418.025	1255.23
418.233	1322.82
418.441	1201.99
418.649	1341.25
418.857	1419.07
419.065	1470.27
419.273	1453.89
419.481	1623.87
419.689	1619.77
419.897	1638.2
420.105	1728.31
420.313	1838.91
420.521	1873.72
420.729	1916.73
420.937	1906.49
421.145	2021.17
421.353	2080.57
421.561	2178.87
421.769	2248.5
421.977	2322.23
422.185	2324.27
422.393	2512.69
422.601	2629.42
422.809	2598.7
423.017	2545.45
423.224	2735.92
423.432	2783.02
423.64	2856.75
423.848	3047.21
424.056	3016.49
424.263	3170.08
424.471	3180.32
424.679	3329.83
424.887	3548.96
425.094	3632.93
425.302	3589.92
425.51	3690.27
425.718	3868.44
425.925	3827.48
426.133	4181.78
426.341	4007.7
426.548	4382.48
426.756	4314.9
426.964	4491.02
427.171	4828.94
427.379	4845.32
427.586	4974.35
427.794	5074.7
428.001	5316.36
428.209	5551.87
428.417	5480.19
428.624	6053.62
428.832	5846.78
429.039	5932.79
429.247	5826.3
429.454	6369.01
429.662	6928.11
429.869	6547.19
430.076	6788.85
430.284	6590.19
430.491	7022.31
430.699	7411.43
430.906	7292.65
431.114	7462.63
431.321	7632.61
431.528	7778.01
431.736	8253.14
431.943	8685.26
432.15	8498.9
432.358	8408.79
432.565	9068.23
432.772	9113.29
432.979	9463.49
433.187	9643.71
433.394	9703.11
433.601	10380.98
433.808	10368.7
434.016	10329.78
434.223	10737.33
434.43	11177.64
434.637	11075.24
434.844	11701.92
435.052	11857.57
435.259	11837.09
435.466	12080.8
435.673	11787.94
435.88	12928.66
436.087	13129.36
436.294	13291.15
436.501	12994.19
436.708	13299.34
436.915	13715.08
437.122	14519.93
437.329	14698.1
437.537	14863.99
437.743	15154.8
437.95	14941.81
438.157	15767.14
438.364	16424.54
438.571	16277.08
438.778	16584.28
438.985	17688.14
439.192	17047.12
439.399	17663.56
439.606	17231.44
439.813	17985.09
440.02	19390
440.227	18730.55
440.433	18992.69
440.64	19385.9
440.847	19199.54
441.054	19826.21
441.261	21055
441.467	20727.32
441.674	21122.58
441.881	21753.35
442.088	21739.02
442.294	21765.64
442.501	22212.1
442.708	22832.63
442.914	23756.27
443.121	24403.42
443.328	23911.91
443.534	25599.44
443.741	25169.37
443.948	24384.99
444.154	26373.57
444.361	26082.76
444.568	26262.98
444.774	26189.25
444.981	26510.78
445.187	27385.27
445.394	28335.52
445.6	28380.58
445.807	30780.8
446.013	29406.61
446.22	29916.56
446.426	30905.73
446.633	31477.11
446.839	32413.03
447.046	31305.08
447.252	32793.95
447.459	32943.45
447.665	32533.86
447.871	33815.89
448.078	35216.7
448.284	33455.45
448.491	34852.16
448.697	36031.79
448.903	36650.28
449.11	36386.09
449.316	35892.53
449.522	36947.23
449.728	37805.33
449.935	37924.11
450.141	37635.35
450.347	38800.65
450.553	37590.3
450.76	37522.71
450.966	39240.96
451.172	38479.11
451.378	39464.19
451.584	38780.17
451.791	39542.01
451.997	39634.17
452.203	40041.71
452.409	40160.5
452.615	39664.89
452.821	38331.66
453.027	38001.94
453.233	40113.39
453.44	38290.7
453.646	38946.05
453.852	38755.59
454.058	39632.12
454.264	38032.66
454.47	39079.17
454.676	38372.62
454.882	39290.11
455.088	35882.29
455.294	36445.48
455.5	36748.58
455.705	37408.03
455.911	35681.59
456.117	34831.68
456.323	34411.85
456.529	32656.74
456.735	34002.25
456.941	33142.11
457.147	32482.66
457.352	31860.08
457.558	31229.3
457.764	31188.35
457.97	30877.05
458.176	29857.17
458.381	29781.39
458.587	28759.45
458.793	28800.41
458.999	27553.2
459.204	28911
459.41	28263.85
459.616	26400.19
459.821	26531.26
460.027	26236.36
460.233	26115.53
460.438	24329.7
460.644	24731.1
460.85	23795.18
461.055	23365.1
461.261	23213.56
461.466	21433.87
461.672	21112.34
461.878	22365.7
462.083	20919.83
462.289	20731.42
462.494	20313.63
462.7	19514.92
462.905	18996.79
463.111	19627.56
463.316	19856.93
463.522	19273.26
463.727	19213.87
463.932	19111.47
464.138	19166.77
464.343	19328.56
464.549	18560.57
464.754	19127.86
464.959	18972.21
465.165	18710.07
465.37	18081.35
465.575	17557.07
465.781	18419.26
465.986	18595.39
466.191	17882.69
466.397	17303.12
466.602	16926.29
466.807	17083.98
467.012	17088.08
467.218	17137.23
467.423	16866.9
467.628	16932.43
467.833	17770.05
468.038	17000.02
468.244	16580.18
468.449	17149.52
468.654	16690.77
468.859	16283.23
469.064	16473.69
469.269	15953.51
469.474	15896.16
469.679	16248.41
469.885	15791.72
470.09	16109.15
470.295	15939.17
470.5	15464.04
470.705	15490.66
470.91	15240.81
471.115	15132.27
471.32	15228.52
471.525	15324.78
471.73	14710.39
471.935	14831.22
472.139	14259.84
472.344	14255.74
472.549	14321.27
472.754	14177.92
472.959	13952.64
473.164	13338.25
473.369	13545.09
473.574	14139.01
473.778	13827.71
473.983	13844.1
474.188	13727.36
474.393	12867.22
474.598	13133.45
474.802	12906.13
475.007	12861.07
475.212	13170.32
475.417	12359.32
475.621	12697.24
475.826	12316.31
476.031	12201.63
476.235	11998.88
476.44	12396.18
476.645	11914.91
476.849	12109.47
477.054	11798.18
477.259	11603.62
477.463	11884.19
477.668	11200.17
477.872	11591.33
478.077	11155.12
478.282	10921.65
478.486	11069.1
478.691	10868.4
478.895	10886.83
479.1	10743.47
479.304	10774.19
479.509	10456.76
479.713	10677.94
479.918	10405.56
480.122	10329.78
480.326	10565.3
480.531	10473.14
480.735	10581.68
480.94	10274.49
481.144	10587.83
481.348	10028.73
481.553	10311.35
481.757	10036.92
481.961	10131.13
482.166	10360.5
482.37	10303.16
482.574	10254.01
482.778	9987.77
482.983	10067.64
483.187	10016.44
483.391	10270.39
483.595	10190.52
483.8	9725.63
484.004	9922.24
484.208	10120.89
484.412	9852.61
484.616	10026.68
484.821	10081.98
485.025	9858.75
485.229	10124.99
485.433	9807.55
485.637	10079.93
485.841	10094.27
486.045	9864.89
486.249	10190.52
486.453	10024.64
486.657	10036.92
486.861	10124.99
487.065	9860.8
487.269	10077.88
487.473	9846.46
487.677	10081.98
487.881	10116.79
488.085	10118.84
488.289	10006.2
488.493	9903.81
488.697	10059.45
488.901	10153.66
489.105	10172.09
489.309	10180.28
489.512	10380.98
489.716	10096.32
489.92	10221.24
490.124	10088.12
490.328	10489.53
490.531	10321.59
490.735	10471.09
490.939	10280.63
491.143	10225.34
491.346	10139.32
491.55	10553.01
491.754	10589.88
491.958	10462.9
492.161	10630.84
492.365	10391.22
492.569	10735.28
492.772	10677.94
492.976	10888.88
493.18	10757.81
493.383	11171.5
493.587	11009.71
493.79	11118.25
493.994	10950.32
494.197	10929.84
494.401	11216.55
494.605	11413.16
494.808	11290.28
495.012	11388.58
495.215	11466.41
495.419	11648.68
495.622	11581.09
495.825	11832.99
496.029	11691.68
496.232	12127.9
496.436	11910.82
496.639	12357.27
496.843	12074.65
497.046	12504.73
497.249	12506.77
497.453	12299.93
497.656	12795.54
497.859	12682.9
498.063	12938.9
498.266	13198.99
498.469	13307.53
498.673	13110.93
498.876	13424.26
499.079	13745.8
499.282	13452.94
499.485	14024.32
499.689	13983.36
499.892	14108.29
500.095	13928.06
500.298	14743.16
500.501	14536.31
500.705	14820.98
500.908	15136.37
501.111	14990.96
501.314	15226.48
501.517	15623.78
501.72	15453.8
501.923	15625.83
502.126	15861.35
502.329	16291.42
502.532	16275.04
502.735	16338.52
502.938	16834.13
503.141	17000.02
503.344	17114.7
503.547	16983.63
503.75	17491.53
503.953	17643.08
504.156	17966.66
504.359	17952.32
504.562	18132.54
504.765	18517.56
504.968	18816.57
505.17	18697.78
505.373	19119.67
505.576	19136.05
505.779	19588.65
505.982	19322.41
506.185	20043.3
506.387	19754.54
506.59	20186.66
506.793	20616.73
506.996	20700.7
507.198	21423.63
507.401	21181.97
507.604	21057.04
507.807	21689.87
508.009	21878.28
508.212	21913.09
508.415	22189.57
508.617	22685.18
508.82	22650.36
509.022	22474.24
509.225	23322.1
509.428	23281.14
509.63	23383.54
509.833	23397.87
510.035	24290.79
510.238	23926.25
510.44	24303.07
510.643	24772.06
510.845	25066.97
511.048	24866.27
511.25	25355.73
511.453	25478.61
511.655	26299.84
511.858	26072.52
512.06	26402.24
512.262	26727.87
512.465	26846.65
512.667	27225.53
512.87	27145.66
513.072	27323.83
513.274	27680.17
513.477	28272.04
513.679	28515.75
513.881	28966.3
514.084	29363.61
514.286	29121.94
514.488	29576.59
514.69	30336.39
514.893	30176.65
515.095	30455.17
515.297	30752.13
515.499	30899.58
515.701	31323.51
515.904	31391.09
516.106	31772.02
516.308	32083.31
516.51	32417.13
516.712	32834.91
516.914	32961.89
517.116	33510.74
517.318	33549.65
517.52	34127.18
517.722	33826.13
517.925	34162
518.127	34606.41
518.329	34897.22
518.531	35091.77
518.733	35654.97
518.935	35812.66
519.136	35951.92
519.338	36498.73
519.54	36742.44
519.742	36820.26
519.944	37324.06
520.146	37756.18
520.348	37698.84
520.55	37995.79
520.752	38085.9
520.954	38984.96
521.155	38479.11
521.357	39193.86
521.559	39830.77
521.761	40015.09
521.963	39877.88
522.164	40578.28
522.366	40441.07
522.568	40836.33
522.77	41159.91
522.971	41794.78
523.173	41338.08
523.375	41862.36
523.576	42175.7
523.778	41696.47
523.98	42847.43
524.181	43050.18
524.383	42898.63
524.584	43361.47
524.786	43515.07
524.988	43433.15
525.189	43816.12
525.391	44246.19
525.592	44575.92
525.794	44723.37
525.995	44895.4
526.197	44799.15
526.398	44631.21
526.6	45784.22
526.801	45554.85
527.003	45917.34
527.204	45986.97
527.406	46179.48
527.607	46093.46
527.808	46865.55
528.01	46077.08
528.211	46589.07
528.412	47527.04
528.614	47025.29
528.815	47463.55
529.016	47395.97
529.218	47424.64
529.419	47455.36
529.62	47455.36
529.822	47627.39
530.023	47570.05
530.224	47932.54
530.425	48041.08
530.626	47879.29
530.828	47770.75
531.029	48827.5
531.23	47905.91
531.431	48698.48
531.632	48716.91
531.833	48434.29
532.035	48817.26
532.236	48757.87
532.437	48876.65
532.638	48786.54
532.839	49253.48
533.04	49437.79
533.241	48616.56
533.442	49888.35
533.643	49126.5
533.844	48921.71
534.045	49169.51
534.246	49030.25
534.447	49908.83
534.648	49169.51
534.849	49466.47
535.05	48913.51
535.251	49910.88
535.451	49357.92
535.652	49728.61
535.853	49519.71
536.054	49536.1
536.255	50025.56
536.456	49204.33
536.657	50379.86
536.857	49413.22
537.058	49554.53
537.259	49607.78
537.46	49941.6
537.66	50037.85
537.861	49986.65
538.062	50013.27
538.263	49917.02
538.463	49380.45
538.664	49374.31
538.865	49927.26
539.065	50220.12
539.266	49208.42
539.466	50144.34
539.667	49196.13
539.868	50199.64
540.068	50039.9
540.269	49912.92
540.469	50175.06
540.67	49841.24
540.87	49765.47
541.071	49448.03
541.271	49712.22
541.472	49454.18
541.672	49755.23
541.873	49654.88
542.073	48960.62
542.274	50250.84
542.474	49564.77
542.675	49476.71
542.875	49769.57
543.075	49792.09
543.276	48907.37
543.476	49888.35
543.676	49368.16
543.877	50117.72
544.077	49736.8
544.277	49677.41
544.478	49695.84
544.678	49583.2
544.878	49278.05
545.078	49593.44
545.279	49110.12
545.479	48989.29
545.679	49538.15
545.879	49200.23
546.079	49122.41
546.28	49251.43
546.48	49052.78
546.68	49542.24
546.88	49493.09
547.08	49341.54
547.28	49669.22
547.48	48837.74
547.68	49323.11
547.88	48845.93
548.081	49433.7
548.281	49511.52
548.481	49325.16
548.681	49480.8
548.881	49431.65
549.081	49577.06
549.28	49298.53
549.48	49675.36
549.68	49626.21
549.88	49937.5
550.08	49083.5
550.28	49437.79
550.48	49052.78
550.68	49462.37
550.88	48839.79
551.08	49319.01
551.279	49454.18
551.479	48684.14
551.679	48940.14
551.879	48741.49
552.079	49153.13
552.278	49185.89
552.478	49071.21
552.678	49175.65
552.878	49181.8
553.077	49495.14
553.277	48389.23
553.477	49673.31
553.676	48614.51
553.876	48999.53
554.076	48903.28
554.275	48856.17
554.475	47979.64
554.674	48866.41
554.874	48854.12
555.074	48458.87
555.273	48616.56
555.473	48786.54
555.672	48233.59
555.872	48254.07
556.071	48086.14
556.271	48624.75
556.47	48284.79
556.67	48106.62
556.869	48069.75
557.068	48288.88
557.268	48055.42
557.467	48227.45
557.667	48065.66
557.866	48020.6
558.065	47950.97
558.265	47522.94
558.464	47604.86
558.663	48092.28
558.863	47557.76
559.062	47963.26
559.261	47488.13
559.461	47942.78
559.66	47201.41
559.859	47187.08
560.058	47084.68
560.258	47176.84
560.457	46613.65
560.656	47213.7
560.855	46883.98
561.054	46795.92
561.253	46314.64
561.453	46677.13
561.652	46808.2
561.851	46711.95
562.05	46402.71
562.249	46310.55
562.448	46386.32
562.647	45952.15
562.846	46175.38
563.045	46210.2
563.244	45618.33
563.443	46480.53
563.642	45538.46
563.841	45763.74
564.04	45649.05
564.239	45984.92
564.438	45235.36
564.637	45507.74
564.836	45591.71
565.035	44999.85
565.234	44854.44
565.432	44694.7
565.631	44512.43
565.83	44926.12
566.029	44917.93
566.228	44328.11
566.427	44287.15
566.625	44131.51
566.824	43723.96
567.023	44311.73
567.222	43488.45
567.42	44256.43
567.619	44051.64
567.818	43789.5
568.016	43613.37
568.215	44385.46
568.414	43644.09
568.612	44029.11
568.811	42966.21
569.01	43523.26
569.208	42785.99
569.407	43371.71
569.605	42538.19
569.804	43025.6
570.002	42329.3
570.201	42753.22
570.4	42198.23
570.598	42253.52
570.797	42144.98
570.995	42319.06
571.193	41848.02
571.392	42226.9
571.59	41612.51
571.789	41512.16
571.987	41569.5
572.186	41628.89
572.384	41508.06
572.582	41524.44
572.781	41630.94
572.979	40846.57
573.177	41024.74
573.376	41258.21
573.574	40574.19
573.772	40508.65
573.971	40471.79
574.169	40338.67
574.367	40084.72
574.565	40488.17
574.763	40670.44
574.962	39752.95
575.16	39562.49
575.358	39953.65
575.556	39263.49
575.754	40054
575.952	39664.89
576.151	39324.93
576.349	39040.26
576.547	38946.05
576.745	39083.26
576.943	38878.47
577.141	38987.01
577.339	38866.18
577.537	38960.39
577.735	38694.15
577.933	38378.76
578.131	38432.01
578.329	38542.6
578.527	38065.42
578.725	37793.04
578.923	38399.24
579.121	37754.13
579.319	37653.78
579.516	38042.9
579.714	37641.49
579.912	37180.7
580.11	36953.38
580.308	37440.79
580.506	37215.52
580.704	37020.96
580.901	36971.81
581.099	37078.3
581.297	36484.39
581.495	36863.27
581.692	36797.73
581.89	36111.66
582.088	36545.83
582.285	36336.94
582.483	36347.18
582.681	36402.47
582.878	35956.02
583.076	35808.56
583.274	36187.44
583.471	35542.33
583.669	35636.53
583.866	35394.87
584.064	35915.06
584.262	34837.83
584.459	35591.48
584.657	35259.71
584.854	35411.26
585.052	34676.04
585.249	35288.38
585.447	35261.76
585.644	34487.62
585.841	34590.02
586.039	34907.46
586.236	34417.99
586.434	34483.53
586.631	34336.07
586.828	34499.91
587.026	34256.2
587.223	34461
587.42	33957.2
587.618	34037.07
587.815	33396.06
588.012	33494.36
588.21	33394.01
588.407	33402.2
588.604	33652.05
588.801	33279.32
588.999	33064.28
589.196	32957.79
589.393	33037.66
589.59	32890.21
589.787	32767.33
589.984	32517.48
590.182	32111.98
590.379	32664.93
590.576	32271.72
590.773	32615.78
590.97	31659.38
591.167	32144.75
591.364	32017.77
591.561	31866.22
591.758	31565.17
591.955	31563.12
592.152	31817.07
592.349	31653.23
592.546	31466.87
592.743	31640.95
592.94	31020.41
593.137	31489.4
593.334	31374.71
593.531	30915.97
593.727	30827.9
593.924	31317.37
594.121	30668.16
594.318	30809.47
594.515	30422.41
594.712	30743.94
594.908	30180.74
595.105	30528.9
595.302	29633.94
595.499	30526.85
595.696	29900.17
595.892	29730.19
596.089	30037.39
596.286	30039.43
596.482	29576.59
596.679	29930.89
596.876	29722
597.072	29509.01
597.269	29449.62
597.466	29277.59
597.662	28902.81
597.859	29091.23
598.055	29457.81
598.252	28781.98
598.448	28589.47
598.645	28849.57
598.841	28353.96
599.038	28906.91
599.234	28698.02
599.431	28341.67
599.627	28476.83
599.824	28480.93
600.02	28005.8
600.217	28183.98
600.413	28024.23
600.609	27999.66
600.806	27565.49
601.002	27989.42
601.198	27612.59
601.395	27264.44
601.591	27420.08
601.787	27633.07
601.984	27149.75
602.18	27532.72
602.376	27200.95
602.572	27119.03
602.769	27037.11
602.965	27033.02
603.161	27184.57
603.357	26824.12
603.553	26494.4
603.75	26695.1
603.946	26568.13
604.142	26394.05
604.338	26144.2
604.534	26236.36
604.73	25988.55
604.926	26131.91
605.122	26422.72
605.318	25890.25
605.514	25818.57
605.71	25603.53
605.906	25759.18
606.102	25548.24
606.298	25949.64
606.494	25478.61
606.69	25552.34
606.886	25730.51
607.082	24976.86
607.278	25355.73
607.474	25179.61
607.67	25249.24
607.866	24399.33
608.062	25011.67
608.257	24894.94
608.453	24741.34
608.649	25060.82
608.845	24958.42
609.041	24755.68
609.236	24849.88
609.432	24655.33
609.628	24894.94
609.824	24440.29
610.019	24425.95
610.215	24536.54
610.411	24298.98
610.606	23979.5
610.802	24600.03
610.998	24280.55
611.193	24520.16
611.389	24288.74
611.584	24018.41
611.78	23723.5
611.976	23881.19
612.171	23961.06
612.367	23940.58
612.562	23621.1
612.758	23373.3
612.953	23428.59
613.149	23739.88
613.344	23336.43
613.539	23772.65
613.735	23356.91
613.93	23543.28
614.126	23178.74
614.321	23645.68
614.517	23424.5
614.712	23174.64
614.907	23000.57
615.103	23293.43
615.298	23283.19
615.493	23068.15
615.688	22599.16
615.884	23414.26
616.079	22758.91
616.274	23170.55
616.47	22863.35
616.665	22777.34
616.86	22400.51
617.055	22564.35
617.25	22453.76
617.445	22769.15
617.641	22142.47
617.836	22746.62
618.031	22337.02
618.226	22451.71
618.421	22101.51
618.616	22382.08
618.811	21665.29
619.006	22105.6
619.201	21847.56
619.396	21665.29
619.591	21442.06
619.786	21872.14
619.981	21472.78
620.176	21716.49
620.371	21325.33
620.566	21341.71
620.761	21265.94
620.956	21216.79
621.151	20799
621.346	21163.54
621.541	20782.62
621.735	20856.34
621.93	20653.59
622.125	20647.45
622.32	20200.99
622.515	20172.32
622.709	20375.07
622.904	20022.82
623.099	20092.45
623.294	20053.54
623.488	20004.39
623.683	19742.25
623.878	19410.48
624.072	19267.12
624.267	19555.88
624.462	19592.75
624.656	19076.66
624.851	19379.76
625.046	18949.68
625.24	19072.56
625.435	18789.94
625.629	18716.22
625.824	18722.36
626.018	18628.15
626.213	18024
626.407	18325.05
626.602	18290.24
626.796	18394.68
626.991	18134.59
627.185	17940.04
627.38	17886.79
627.574	17708.62
627.768	17800.77
627.963	17538.63
628.157	17292.88
628.352	17542.73
628.546	17213.01
628.74	17348.17
628.935	17143.38
629.129	17153.62
629.323	16676.44
629.517	16959.06
629.712	16660.06
629.906	16563.8
630.1	16418.39
630.294	16688.73
630.489	16229.98
630.683	16598.62
630.877	16098.91
631.071	16186.97
631.265	16103.01
631.459	15855.2
631.653	15875.68
631.848	15865.44
632.042	15736.42
632.236	15705.7
632.43	15572.58
632.624	15664.74
632.818	15185.52
633.012	15212.14
633.206	15072.88
633.4	15337.07
633.594	14982.77
633.788	15095.41
633.982	14800.5
634.176	15005.3
634.369	14607.99
634.563	14573.17
634.757	14759.54
634.951	14743.16
635.145	14734.96
635.339	14638.71
635.533	14116.48
635.726	14218.88
635.92	13985.41
636.114	14179.96
636.308	14065.28
636.501	14007.94
636.695	13911.68
636.889	13889.15
637.083	13721.22
637.276	13846.15
637.47	13602.44
637.664	13485.7
637.857	13479.56
638.051	13473.42
638.244	13491.85
638.438	13254.28
638.632	13100.69
638.825	12869.26
639.019	13033.1
639.212	12648.08
639.406	12697.24
639.599	13014.67
639.793	12785.3
639.986	12654.23
640.18	12721.81
640.373	12574.36
640.567	12201.63
640.76	12308.12
640.954	12250.78
641.147	12011.17
641.34	12314.27
641.534	12080.8
641.727	12033.69
641.92	11923.1
642.114	11814.56
642.307	11802.27
642.5	11730.59
642.694	11540.13
642.887	11673.25
643.08	11611.81
643.273	11753.12
643.467	11472.55
643.66	11501.22
643.853	11138.73
644.046	11083.44
644.239	11187.88
644.432	10999.47
644.626	11071.15
644.819	11052.72
645.012	10958.51
645.205	11089.58
645.398	10761.91
645.591	10710.71
645.784	10817.2
645.977	10688.18
646.17	10618.55
646.363	10694.32
646.556	10227.39
646.749	10460.85
646.942	10428.09
647.135	10372.79
647.328	10204.86
647.521	10088.12
647.714	10256.06
647.907	10163.9
648.099	10047.16
648.292	10170.04
648.485	9823.94
648.678	9762.5
648.871	9717.44
649.064	9811.65
649.256	9918.14
649.449	9430.73
649.642	9879.23
649.835	9385.67
650.027	9610.95
650.22	9486.02
650.413	9428.68
650.605	9473.73
650.798	9375.43
650.991	9273.03
651.183	9469.64
651.376	9076.43
651.568	9113.29
651.761	9070.28
651.954	9029.32
652.146	8967.88
652.339	8865.49
652.531	8885.97
652.724	8840.91
652.916	8480.47
653.109	8824.53
653.301	8779.47
653.494	8652.5
653.686	8498.9
653.879	8623.83
654.071	8515.28
654.263	8488.66
654.456	8572.63
654.648	8580.82
654.84	8197.85
655.033	8310.49
655.225	8578.77
655.417	8056.54
655.61	8275.67
655.802	8308.44
655.994	8007.39
656.186	8046.3
656.379	8013.53
656.571	7890.65
656.763	7861.98
656.955	7898.84
657.148	7773.92
657.34	7810.78
657.532	7804.64
657.724	7849.69
657.916	7773.92
658.108	7681.76
658.3	7651.04
658.492	7608.03
658.684	7462.63
658.876	7425.76
659.068	7421.67
659.26	7386.85
659.452	7337.7
659.644	7458.53
659.836	7249.64
660.028	7128.81
660.22	7114.47
660.412	7286.5
660.604	7063.27
660.796	7010.03
660.988	7048.94
661.18	7057.13
661.372	6819.57
661.563	6985.45
661.755	6901.48
661.947	7022.31
662.139	6799.09
662.331	6754.03
662.522	6680.3
662.714	6801.13
662.906	6684.4
663.097	6743.79
663.289	6586.1
663.481	6536.95
663.673	6536.95
663.864	6448.88
664.056	6350.58
664.247	6555.38
664.439	6452.98
664.631	6461.17
664.822	6489.84
665.014	6293.24
665.205	6452.98
665.397	6356.72
665.588	6209.27
665.78	6070.01
665.971	6180.6
666.163	6409.97
666.354	6029.05
666.546	6174.46
666.737	5900.03
666.929	6024.95
667.12	6027
667.311	6131.45
667.503	5875.45
667.694	5912.32
667.885	5902.08
668.077	5953.27
668.268	5830.4
668.459	5863.16
668.651	5828.35
668.842	5728
669.033	5629.7
669.224	5721.85
669.416	5781.25
669.607	5617.41
669.798	5828.35
669.989	5756.67
670.18	5607.17
670.371	5588.74
670.563	5539.58
670.754	5621.5
670.945	5408.51
671.136	5586.69
671.327	5576.45
671.518	5592.83
671.709	5287.68
671.9	5574.4
672.091	5529.34
672.282	5621.5
672.473	5445.38
672.664	5449.47
672.855	5336.84
673.046	5515.01
673.237	5474.05
673.428	5476.1
673.619	5426.95
673.809	5289.73
674	5381.89
674.191	5234.44
674.382	5232.39
674.573	5240.58
674.764	5291.78
674.954	5230.34
675.145	5312.26
675.336	5197.57
675.527	5132.04
675.717	5252.87
675.908	5134.09
676.099	5136.13
676.289	5007.11
676.48	5064.46
676.671	5093.13
676.861	4900.62
677.052	5056.26
677.243	5041.93
677.433	5031.69
677.624	5117.7
677.814	5031.69
678.005	5089.03
678.195	4953.87
678.386	4949.77
678.576	4847.37
678.767	4892.43
678.957	4951.82
679.148	5207.81
679.338	4908.81
679.529	4908.81
679.719	5125.9
679.909	4994.83
680.1	4798.22
680.29	4929.29
680.481	5035.78
680.671	4904.71
680.861	4996.87
681.052	4984.59
681.242	4929.29
681.432	5082.89
681.622	4769.55
681.813	4796.17
682.003	4792.08
682.193	4808.46
682.383	5123.85
682.573	4904.71
682.764	4820.75
682.954	4880.14
683.144	4945.67
683.334	4794.12
683.524	4869.9
683.714	4914.95
683.904	4845.32
684.094	4730.64
684.284	4951.82
684.474	4904.71
684.664	4822.8
684.854	4802.32
685.044	4806.41
685.234	4669.2
685.424	4716.3
685.614	4579.09
685.804	4716.3
685.994	4556.56
686.184	4658.96
686.374	4712.21
686.564	4529.94
686.753	4534.03
686.943	4566.8
687.133	4622.09
687.323	4372.24
687.513	4562.7
687.702	4622.09
687.892	4452.11
688.082	4456.21
688.272	4591.38
688.461	4359.95
688.651	4421.39
688.841	4331.28
689.03	4388.63
689.22	4417.3
689.41	4380.43
689.599	4218.64
689.789	4208.41
689.979	4327.19
690.168	4196.12
690.358	4138.77
690.547	4155.16
690.737	4413.2
690.926	4368.15
691.116	4134.68
691.305	4237.08
691.495	4226.84
691.684	4187.93
691.874	4099.86
692.063	4200.21
692.252	3936.03
692.442	4218.64
692.631	4040.47
692.82	4112.15
693.01	3940.12
693.199	4067.1
693.388	3995.42
693.578	4089.62
693.767	4011.8
693.956	3886.87
694.146	3954.46
694.335	3884.83
694.524	3890.97
694.713	4001.56
694.902	3991.32
695.092	4028.18
695.281	3757.85
695.47	3856.15
695.659	3890.97
695.848	3925.79
696.037	3890.97
696.226	3972.89
696.415	3747.61
696.604	3807
696.793	3780.38
696.982	3960.6
697.171	3807
697.36	3766.04
697.549	3905.31
697.738	3847.96
697.927	3632.93
698.116	3850.01
698.305	3716.89
698.494	3706.65
698.683	3682.08
698.872	3831.58
699.061	3807
699.25	3688.22
699.438	3626.78
699.627	3729.18
699.816	3790.62
700.005	3798.81
700.193	3714.84
700.382	3784.48
700.571	3708.7
700.76	3692.32
700.948	3712.8
701.137	3852.06
701.326	3594.01
701.514	3837.72
701.703	3876.63
701.892	3645.21
702.08	3901.21
702.269	3692.32
702.457	3782.43
702.646	3630.88
702.834	3598.11
703.023	3657.5
703.212	3780.38
703.4	3786.52
703.589	3559.2
703.777	3761.95
703.965	3573.53
704.154	3624.73
704.342	3667.74
704.531	3782.43
704.719	3557.15
704.907	3716.89
705.096	3690.27
705.284	3598.11
705.472	3872.54
705.661	3733.28
705.849	3602.21
706.037	3694.36
706.226	3583.77
706.414	3682.08
706.602	3708.7
706.79	3608.35
706.979	3567.39
707.167	3850.01
707.355	3634.97
707.543	3749.66
707.731	3778.33
707.919	3696.41
708.107	3634.97
708.296	3708.7
708.484	3688.22
708.672	3737.37
708.86	3727.13
709.048	3731.23
709.236	3647.26
709.424	3700.51
709.612	3641.12
709.8	3692.32
709.988	3616.54
710.176	3764
710.364	3745.56
710.551	3639.07
710.739	3634.97
710.927	3581.73
711.115	3657.5
711.303	3630.88
711.491	3581.73
711.679	3610.4
711.866	3671.84
712.054	3794.72
712.242	3632.93
712.43	3690.27
712.617	3573.53
712.805	3684.13
712.993	3639.07
713.181	3528.48
713.368	3600.16
713.556	3843.87
713.744	3684.13
713.931	3716.89
714.119	3680.03
714.306	3637.02
714.494	3731.23
714.682	3684.13
714.869	3596.06
715.057	3622.69
715.244	3542.82
715.432	3565.34
715.619	3665.69
715.807	3639.07
715.994	3852.06
716.182	3716.89
716.369	3704.6
716.556	3712.8
716.744	3747.61
716.931	3700.51
717.119	3696.41
717.306	3782.43
717.493	3628.83
717.681	3667.74
717.868	3661.6
718.055	3704.6
718.242	3759.9
718.43	3700.51
718.617	3753.76
718.804	3778.33
718.991	3714.84
719.179	3704.6
719.366	3548.96
719.553	3716.89
719.74	3690.27
719.927	3659.55
720.114	3632.93
720.301	3583.77
720.488	3694.36
720.676	3600.16
720.863	3710.75
721.05	3600.16
721.237	3739.42
721.424	3743.52
721.611	3591.97
721.798	3557.15
721.985	3602.21
722.172	3624.73
722.358	3714.84
722.545	3616.54
722.732	3530.53
722.919	3714.84
723.106	3452.7
723.293	3753.76
723.48	3526.43
723.667	3690.27
723.853	3512.1
724.04	3622.69
724.227	3542.82
724.414	3655.45
724.6	3649.31
724.787	3661.6
724.974	3653.41
725.161	3596.06
725.347	3528.48
725.534	3657.5
725.72	3602.21
725.907	3591.97
726.094	3424.03
726.28	3567.39
726.467	3514.14
726.653	3768.09
726.84	3591.97
727.027	3565.34
727.213	3563.29
727.4	3696.41
727.586	3522.34
727.773	3645.21
727.959	3456.8
728.145	3544.86
728.332	3526.43
728.518	3647.26
728.705	3530.53
728.891	3632.93
729.077	3587.87
729.264	3557.15
729.45	3634.97
729.636	3671.84
729.823	3589.92
730.009	3616.54
730.195	3497.76
730.382	3692.32
730.568	3546.91
730.754	3532.58
730.94	3413.79
731.126	3587.87
731.313	3557.15
731.499	3508
731.685	3499.81
731.871	3589.92
732.057	3454.75
732.243	3600.16
732.429	3454.75
732.615	3428.13
732.801	3620.64
732.987	3485.47
733.173	3559.2
733.359	3555.1
733.545	3362.59
733.731	3434.27
733.917	3364.64
734.103	3462.94
734.289	3383.07
734.475	3356.45
734.661	3606.3
734.847	3405.6
735.033	3430.18
735.219	3446.56
735.404	3411.75
735.59	3475.23
735.776	3522.34
735.962	3338.02
736.148	3352.35
736.333	3374.88
736.519	3262.24
736.705	3424.03
736.89	3290.92
737.076	3413.79
737.262	3327.78
737.447	3260.2
737.633	3405.6
737.819	3471.14
738.004	3301.15
738.19	3268.39
738.375	3170.08
738.561	3366.69
738.747	3276.58
738.932	3155.75
739.118	3381.03
739.303	3231.52
739.489	3315.49
739.674	3192.61
739.859	3163.94
740.045	3231.52
740.23	3104.55
740.416	3155.75
740.601	3219.24
740.786	3219.24
740.972	3059.49
741.157	3057.45
741.342	3233.57
741.528	3032.87
741.713	3061.54
741.898	3151.65
742.084	3100.45
742.269	3082.02
742.454	3055.4
742.639	2977.58
742.824	2993.96
743.01	3000.1
743.195	2985.77
743.38	3032.87
743.565	2977.58
743.75	3041.06
743.935	2871.08
744.12	2996.01
744.305	2785.07
744.49	2873.13
744.675	2844.46
744.86	2903.85
745.045	2823.98
745.23	2950.95
745.415	2830.12
745.6	2895.66
745.785	2778.92
745.97	2785.07
746.155	2697
746.34	2821.93
746.525	2725.68
746.71	2762.54
746.895	2791.21
747.079	2748.2
747.264	2627.37
747.449	2670.38
747.634	2676.52
747.819	2619.18
748.003	2631.47
748.188	2471.73
748.373	2608.94
748.557	2643.76
748.742	2504.5
748.927	2662.19
749.111	2504.5
749.296	2498.35
749.481	2557.74
749.665	2551.6
749.85	2430.77
750.034	2451.25
750.219	2492.21
750.404	2346.8
750.588	2434.86
750.773	2279.22
750.957	2383.66
751.141	2359.09
751.326	2361.14
751.51	2289.46
751.695	2389.81
751.879	2271.03
752.064	2299.7
752.248	2389.81
752.432	2307.89
752.617	2271.03
752.801	2199.35
752.985	2156.34
753.17	2172.72
753.354	2201.4
753.538	2121.52
753.722	2107.19
753.907	2148.15
754.091	2094.9
754.275	2125.62
754.459	2000.69
754.643	2070.33
754.828	1961.78
755.012	2029.37
755.196	2017.08
755.38	2021.17
755.564	2006.84
755.748	2049.85
755.932	2000.69
756.116	1959.74
756.3	1902.39
756.484	1924.92
756.668	1926.97
756.852	1896.25
757.036	1836.86
757.22	1896.25
757.404	1775.42
757.588	1804.09
757.772	1818.43
757.956	1722.17
758.14	1767.23
758.323	1701.69
758.507	1783.61
758.691	1728.31
758.875	1732.41
759.059	1736.51
759.242	1789.75
759.426	1718.08
759.61	1754.94
759.794	1724.22
759.977	1777.47
760.161	1693.5
760.345	1722.17
760.528	1693.5
760.712	1634.11
760.895	1623.87
761.079	1668.92
761.263	1500.99
761.446	1613.63
761.63	1539.9
761.813	1675.07
761.997	1564.48
762.18	1625.92
762.364	1460.03
762.547	1513.28
762.731	1541.95
762.914	1464.13
763.098	1462.08
763.281	1503.04
763.464	1496.89
763.648	1406.78
763.831	1533.76
764.015	1414.98
764.198	1537.85
764.381	1523.52
764.564	1525.57
764.748	1455.94
764.931	1363.78
765.114	1492.8
765.297	1371.97
765.481	1460.03
765.664	1412.93
765.847	1423.17
766.03	1365.82
766.213	1339.2
766.397	1449.79
766.58	1359.68
766.763	1335.1
766.946	1435.46
767.129	1386.3
767.312	1427.26
767.495	1324.87
767.678	1304.39
767.861	1357.63
768.044	1376.06
768.227	1285.95
768.41	1333.06
768.593	1267.52
768.776	1204.03
768.959	1263.43
769.142	1277.76
769.324	1269.57
769.507	1244.99
769.69	1261.38
769.873	1195.84
770.056	1232.71
770.239	1214.27
770.421	1154.88
770.604	1212.23
770.787	1316.67
770.97	1263.43
771.152	1138.5
771.335	1271.62
771.518	1210.18
771.7	1242.95
771.883	1238.85
772.066	1206.08
772.248	1146.69
772.431	1242.95
772.613	1111.88
772.796	1158.98
772.978	1150.79
773.161	1152.84
773.343	1046.34
773.526	1128.26
773.708	1081.16
773.891	1040.2
774.073	1032.01
774.256	1113.92
774.438	1177.41
774.621	1103.68
774.803	1027.91
774.985	1021.77
775.168	1083.2
775.35	1136.45
775.532	1029.96
775.715	1058.63
775.897	1075.01
776.079	1034.05
776.261	1003.33
776.444	890.7
776.626	882.5
776.808	886.6
776.99	948.04
777.173	1066.82
777.355	978.76
777.537	948.04
777.719	995.14
777.901	896.84
778.083	1083.2
778.265	892.74
778.447	902.98
778.629	894.79
778.811	943.94
778.993	878.41
779.175	911.18
779.357	816.97
779.539	878.41
779.721	845.64
779.903	882.5
780.085	810.82
780.267	886.6
780.449	808.78
780.631	857.93
780.812	794.44
780.994	837.45
781.176	825.16
781.358	733
781.54	706.38
781.721	784.2
781.903	763.72
782.085	780.11
782.267	724.81
782.448	653.13
782.63	728.91
782.812	694.09
782.993	735.05
783.175	694.09
783.357	735.05
783.538	644.94
783.72	712.52
783.901	677.71
784.083	657.23
784.264	681.8
784.446	659.28
784.627	591.69
784.809	677.71
784.99	589.64
785.172	657.23
785.353	702.28
785.535	595.79
785.716	608.08
785.897	601.93
786.079	581.45
786.26	644.94
786.441	589.64
786.623	567.12
786.804	565.07
786.985	593.74
787.167	583.5
787.348	563.02
787.529	642.89
787.71	608.08
787.891	552.78
788.073	612.17
788.254	567.12
788.435	628.56
788.616	554.83
788.797	472.91
788.978	540.49
789.159	536.4
789.34	558.92
789.522	575.31
789.703	507.73
789.884	548.68
790.065	591.69
790.246	603.98
790.427	513.87
790.607	597.84
790.788	452.43
790.969	550.73
791.15	565.07
791.331	530.25
791.512	530.25
791.693	429.9
791.874	431.95
792.054	597.84
792.235	524.11
792.416	472.91
792.597	438.09
792.778	454.48
792.958	450.38
793.139	460.62
793.32	468.81
793.5	444.24
793.681	501.58
793.862	450.38
794.042	339.79
794.223	419.66
794.404	378.7
794.584	380.75
794.765	438.09
794.945	423.76
795.126	454.48
795.306	489.29
795.487	388.94
795.667	444.24
795.848	458.57
796.028	452.43
796.209	374.61
796.389	415.57
796.57	370.51
796.75	413.52
796.93	399.18
797.111	393.04
797.291	429.9
797.471	388.94
797.652	356.18
797.832	429.9
798.012	452.43
798.192	356.18
798.373	380.75
798.553	337.74
798.733	468.81
798.913	374.61
799.093	307.02
799.274	327.5
799.454	341.84
799.634	343.89
799.814	343.89
799.994	395.09
800.174	419.66
800.354	390.99
800.534	382.8
800.714	347.98
800.894	345.94
801.074	362.32
801.254	382.8
801.434	343.89
801.614	327.5
801.794	339.79
801.974	776.01
802.154	341.84
802.334	395.09
802.514	403.28
802.693	341.84
802.873	366.42
803.053	311.12
803.233	407.38
803.413	358.22
803.592	329.55
803.772	290.64
803.952	253.78
804.131	270.16
804.311	331.6
804.491	376.66
804.67	257.87
804.85	282.45
805.03	302.93
805.209	374.61
805.389	309.07
805.568	268.11
805.748	317.26
805.928	264.02
806.107	304.98
806.287	327.5
806.466	274.26
806.646	247.63
806.825	331.6
807.004	282.45
807.184	284.5
807.363	319.31
807.543	261.97
807.722	278.35
807.901	186.19
808.081	268.11
808.26	225.11
808.439	202.58
808.619	268.11
808.798	241.49
808.977	235.35
809.156	249.68
809.336	292.69
809.515	218.96
809.694	261.97
809.873	257.87
810.052	245.59
810.231	307.02
810.411	266.07
810.59	272.21
810.769	247.63
810.948	317.26
811.127	196.43
811.306	239.44
811.485	149.33
811.664	243.54
811.843	257.87
812.022	257.87
812.201	231.25
812.38	221.01
812.559	155.47
812.737	243.54
812.916	245.59
813.095	180.05
813.274	149.33
813.453	141.14
813.632	161.62
813.811	264.02
813.989	147.28
814.168	221.01
814.347	225.11
814.526	251.73
814.704	270.16
814.883	233.3
815.062	216.91
815.24	235.35
815.419	157.52
815.598	186.19
815.776	159.57
815.955	210.77
816.133	237.39
816.312	200.53
816.49	223.06
816.669	239.44
816.847	157.52
817.026	206.67
817.204	225.11
817.383	186.19
817.561	223.06
817.74	212.82
817.918	257.87
818.097	212.82
818.275	200.53
818.453	200.53
818.632	165.71
818.81	198.48
818.988	171.86
819.167	145.24
819.345	161.62
819.523	126.8
819.701	75.6
819.879	243.54
820.058	91.99
820.236	192.34
820.414	182.1
820.592	206.67
820.77	147.28
820.948	157.52
821.127	132.95
821.305	180.05
821.483	73.56
821.661	216.91
821.839	233.3
822.017	161.62
822.195	126.8
822.373	178
822.551	192.34
822.729	165.71
822.907	135
823.085	159.57
823.262	175.95
823.44	108.37
823.618	161.62
823.796	77.65
823.974	161.62
824.152	96.08
824.329	126.8
824.507	194.39
824.685	202.58
824.863	145.24
825.04	272.21
825.218	91.99
825.396	231.25
825.574	165.71
825.751	169.81
825.929	182.1
826.107	137.04
826.284	102.23
826.462	104.28
826.639	94.04
826.817	108.37
826.994	145.24
827.172	110.42
827.349	202.58
827.527	141.14
827.704	81.75
827.882	159.57
828.059	108.37
828.237	157.52
828.414	175.95
828.591	126.8
828.769	128.85
828.946	87.89
829.124	141.14
829.301	194.39
829.478	135
829.655	151.38
829.833	96.08
830.01	118.61
830.187	130.9
830.364	1.88
830.542	155.47
830.719	192.34
830.896	137.04
831.073	46.93
831.25	173.91
831.427	149.33
831.604	182.1
831.782	83.8
831.959	155.47
832.136	63.32
832.313	163.67
832.49	71.51
832.667	161.62
832.844	145.24
833.021	141.14
833.198	128.85
833.374	79.7
833.551	153.43
833.728	110.42
833.905	100.18
834.082	141.14
834.259	102.23
834.436	151.38
834.612	118.61
834.789	106.32
834.966	106.32
835.143	79.7
835.319	81.75
835.496	53.08
835.673	81.75
835.85	149.33
836.026	108.37
836.203	67.41
836.38	69.46
836.556	46.93
836.733	61.27
836.909	208.72
837.086	126.8
837.262	44.88
837.439	57.17
837.616	30.55
837.792	75.6
837.968	89.94
838.145	87.89
838.321	112.47
838.498	128.85
838.674	165.71
838.851	79.7
839.027	53.08
839.203	42.84
839.38	110.42
839.556	130.9
839.732	132.95
839.909	77.65
840.085	108.37
840.261	63.32
840.437	120.66
840.614	20.31
840.79	141.14
840.966	42.84
841.142	124.76
841.318	42.84
841.494	145.24
841.671	26.45
841.847	32.6
842.023	53.08
842.199	44.88
842.375	108.37
842.551	-45.23
842.727	73.56
842.903	110.42
843.079	-6.31
843.255	100.18
843.431	87.89
843.607	130.9
843.783	94.04
843.959	186.19
844.134	75.6
844.31	75.6
844.486	34.64
844.662	32.6
844.838	96.08
845.013	87.89
845.189	114.52
845.365	71.51
845.541	87.89
845.716	83.8
845.892	63.32
846.068	63.32
846.244	87.89
846.419	34.64
846.595	63.32
846.77	40.79
846.946	65.36
847.122	63.32
847.297	20.31
847.473	98.13
847.648	46.93
847.824	116.56
847.999	-8.36
848.175	102.23
848.35	73.56
848.526	184.15
848.701	69.46
848.876	51.03
849.052	83.8
849.227	22.36
849.403	61.27
849.578	71.51
849.753	65.36
849.929	153.43
850.104	75.6
850.279	63.32
850.454	55.12
850.63	42.84
850.805	83.8
850.98	96.08
851.155	16.21
851.33	46.93
851.505	100.18
851.681	79.7
851.856	-10.41
852.031	120.66
852.206	67.41
852.381	-2.22
852.556	-53.42
852.731	69.46
852.906	32.6
853.081	-2.22
853.256	96.08
853.431	-20.65
853.606	10.07
853.781	69.46
853.956	-18.6
854.131	87.89
854.305	10.07
854.48	16.21
854.655	-12.46
854.83	61.27
855.005	8.02
855.18	83.8
855.354	16.21
855.529	48.98
855.704	44.88
855.879	-0.17
856.053	26.45
856.228	69.46
856.403	28.5
856.577	38.74
856.752	-18.6
856.926	28.5
857.101	-26.79
857.276	-22.7
857.45	55.12
857.625	38.74
857.799	65.36
857.974	73.56
858.148	18.26
858.323	57.17
858.497	-26.79
858.672	32.6
858.846	26.45
859.02	112.47
859.195	-20.65
859.369	42.84
859.543	40.79
859.718	48.98
859.892	38.74
860.066	-6.31
860.241	30.55
860.415	42.84
860.589	5.97
860.763	59.22
860.938	137.04
861.112	48.98
861.286	-6.31
861.46	44.88
861.634	34.64
861.808	63.32
861.982	59.22
862.157	-22.7
862.331	55.12
862.505	12.12
862.679	-20.65
862.853	67.41
863.027	1.88
863.201	42.84
863.375	-10.41
863.549	40.79
863.722	18.26
863.896	94.04
864.07	14.17
864.244	71.51
864.418	36.69
864.592	30.55
864.766	34.64
864.939	-2.22
865.113	-10.41
865.287	91.99
865.461	22.36
865.634	48.98
865.808	1.88
865.982	46.93
866.156	5.97
866.329	-43.18
866.503	-10.41
866.676	18.26
866.85	-6.31
867.024	8.02
867.197	48.98
867.371	110.42
867.544	61.27
867.718	14.17
867.891	67.41
868.065	32.6
868.238	32.6
868.412	5.97
868.585	63.32
868.759	42.84
868.932	22.36
869.105	38.74
869.279	3.93
869.452	38.74
869.625	100.18
869.799	42.84
869.972	3.93
870.145	-51.37
870.319	20.31
870.492	-4.27
870.665	-30.89
870.838	5.97
871.011	-55.47
871.185	53.08
871.358	79.7
871.531	-12.46
871.704	-12.46
871.877	-4.27
872.05	24.4
872.223	-26.79
872.396	42.84
872.569	77.65
872.742	5.97
872.915	71.51
873.088	-4.27
873.261	79.7
873.434	38.74
873.607	3.93
873.78	61.27
873.953	12.12
874.126	-2.22
874.299	102.23
874.471	-24.75
874.644	63.32
874.817	79.7
874.99	-2.22
875.163	36.69
875.335	79.7
875.508	-18.6
875.681	-12.46
875.853	-26.79
876.026	67.41
876.199	36.69
876.371	51.03
876.544	5.97
876.717	34.64
876.889	94.04
877.062	-26.79
877.234	30.55
877.407	5.97
877.579	-43.18
877.752	14.17
877.924	3.93
878.097	30.55
878.269	34.64
878.442	42.84
878.614	-18.6
878.786	79.7
878.959	32.6
879.131	38.74
879.303	48.98
879.476	-30.89
879.648	-18.6
879.82	55.12
879.993	-59.56
880.165	18.26
880.337	20.31
880.509	12.12
880.681	51.03
880.854	-0.17
881.026	28.5
881.198	59.22
881.37	-6.31
881.542	-41.13
881.714	-18.6
881.886	18.26
882.058	-47.27
882.23	-6.31
882.402	10.07
882.574	12.12
882.746	55.12
882.918	69.46
883.09	34.64
883.262	-6.31
883.434	3.93
883.606	-39.08
883.778	71.51
883.95	51.03
884.122	73.56
884.293	65.36
884.465	59.22
884.637	96.08
884.809	-30.89
884.98	26.45
885.152	71.51
885.324	-16.55
885.496	8.02
885.667	55.12
885.839	5.97
886.011	81.75
886.182	12.12
886.354	79.7
886.525	-12.46
886.697	-59.56
886.869	-2.22
887.04	5.97
887.212	-32.94
887.383	-34.99
887.555	98.13
887.726	20.31
887.897	-4.27
888.069	-39.08
888.24	30.55
888.412	53.08
888.583	-10.41
888.754	-59.56
888.926	38.74
889.097	3.93
889.268	-121
889.44	3.93
889.611	-32.94
889.782	-2.22
889.953	32.6
890.125	12.12
890.296	-28.84
890.467	-55.47
890.638	-28.84
890.809	-22.7
890.98	30.55
891.151	-14.51
891.323	18.26
891.494	18.26
891.665	-2.22
891.836	-4.27
892.007	-45.23
892.178	57.17
892.349	-2.22
892.52	12.12
892.691	20.31
892.862	-24.75
893.032	-30.89
893.203	53.08
893.374	3.93
893.545	128.85
893.716	18.26
893.887	81.75
894.057	36.69
894.228	3.93
894.399	-4.27
894.57	10.07
894.74	-10.41
894.911	77.65
895.082	-6.31
895.253	12.12
895.423	-14.51
895.594	59.22
895.764	16.21
895.935	5.97
896.106	59.22
896.276	-0.17
896.447	1.88
896.617	-20.65
896.788	14.17
896.958	-26.79
897.129	3.93
897.299	14.17
897.47	-10.41
897.64	-10.41
897.81	12.12
897.981	38.74
898.151	-26.79
898.322	-0.17
898.492	-8.36
898.662	42.84
898.832	10.07
899.003	81.75
899.173	-59.56
899.343	-34.99
899.513	63.32
