Data from USB4F104151__130__10-25-23-464.txt Node

Date: Wed Mar 12 10:25:23 EDT 2025
User: louis
Spectrometer: USB4F10415
Trigger mode: 4
Integration Time (sec): 3.000000E-2
Scans to average: 1
Electric dark correction enabled: true
Nonlinearity correction enabled: false
Boxcar width: 0
XAxis mode: Wavelengths
Number of Pixels in Spectrum: 3648
>>>>>Begin Spectral Data<<<<<
178.204	-106.49
178.424	-106.49
178.644	-106.49
178.864	-129.02
179.084	-120.83
179.304	-34.82
179.524	36.86
179.744	77.82
179.964	28.67
180.184	12.29
180.404	43.01
180.624	18.43
180.844	-40.96
181.064	-40.96
181.283	-26.62
181.503	-32.77
181.723	-40.96
181.943	8.19
182.163	61.44
182.383	-2.05
182.602	-6.14
182.822	45.06
183.042	-6.14
183.262	10.24
183.482	104.45
183.701	32.77
183.921	-2.05
184.141	-69.63
184.361	30.72
184.58	49.15
184.8	32.77
185.02	22.53
185.239	34.82
185.459	45.06
185.679	67.58
185.898	-28.67
186.118	73.73
186.338	73.73
186.557	8.19
186.777	51.2
186.997	77.82
187.216	36.86
187.436	106.49
187.655	57.34
187.875	45.06
188.095	98.3
188.314	73.73
188.534	49.15
188.753	-10.24
188.973	43.01
189.192	94.21
189.412	-0
189.631	75.77
189.851	22.53
190.07	61.44
190.29	22.53
190.509	-12.29
190.729	34.82
190.948	86.01
191.168	116.73
191.387	59.39
191.607	-26.62
191.826	14.34
192.045	65.53
192.265	-14.34
192.484	124.93
192.704	-8.19
192.923	8.19
193.142	49.15
193.362	69.63
193.581	38.91
193.8	73.73
194.02	61.44
194.239	65.53
194.458	34.82
194.678	40.96
194.897	47.1
195.116	14.34
195.335	65.53
195.555	30.72
195.774	10.24
195.993	36.86
196.212	-16.38
196.432	4.1
196.651	12.29
196.87	-28.67
197.089	53.25
197.308	104.45
197.528	100.35
197.747	-63.49
197.966	40.96
198.185	88.06
198.404	-12.29
198.623	-16.38
198.842	30.72
199.062	57.34
199.281	94.21
199.5	4.1
199.719	81.92
199.938	88.06
200.157	38.91
200.376	20.48
200.595	75.77
200.814	47.1
201.033	26.62
201.252	24.58
201.471	40.96
201.69	57.34
201.909	-18.43
202.128	20.48
202.347	43.01
202.566	16.38
202.785	16.38
203.004	-14.34
203.223	100.35
203.442	73.73
203.661	79.87
203.879	-8.19
204.098	40.96
204.317	-53.25
204.536	40.96
204.755	71.68
204.974	124.93
205.193	30.72
205.411	120.83
205.63	67.58
205.849	73.73
206.068	26.62
206.287	8.19
206.505	90.11
206.724	38.91
206.943	30.72
207.162	16.38
207.381	-40.96
207.599	8.19
207.818	61.44
208.037	24.58
208.255	28.67
208.474	40.96
208.693	24.58
208.911	12.29
209.13	65.53
209.349	16.38
209.567	28.67
209.786	145.41
210.005	47.1
210.223	16.38
210.442	-0
210.661	-10.24
210.879	-2.05
211.098	18.43
211.316	90.11
211.535	49.15
211.753	40.96
211.972	114.69
212.191	40.96
212.409	131.07
212.628	71.68
212.846	26.62
213.065	49.15
213.283	124.93
213.502	59.39
213.72	-32.77
213.938	-12.29
214.157	8.19
214.375	36.86
214.594	24.58
214.812	45.06
215.031	57.34
215.249	24.58
215.467	102.4
215.686	49.15
215.904	110.59
216.122	57.34
216.341	131.07
216.559	51.2
216.778	63.49
216.996	100.35
217.214	53.25
217.432	-0
217.651	61.44
217.869	24.58
218.087	-4.1
218.306	57.34
218.524	65.53
218.742	43.01
218.96	65.53
219.179	12.29
219.397	69.63
219.615	32.77
219.833	-16.38
220.051	45.06
220.27	96.25
220.488	67.58
220.706	53.25
220.924	-12.29
221.142	-4.1
221.36	-8.19
221.578	94.21
221.796	38.91
222.015	47.1
222.233	34.82
222.451	137.21
222.669	26.62
222.887	98.3
223.105	30.72
223.323	63.49
223.541	-57.34
223.759	65.53
223.977	83.97
224.195	73.73
224.413	120.83
224.631	71.68
224.849	22.53
225.067	45.06
225.285	63.49
225.503	26.62
225.721	-34.82
225.939	-0
226.157	43.01
226.375	104.45
226.592	-12.29
226.81	53.25
227.028	71.68
227.246	32.77
227.464	63.49
227.682	49.15
227.9	-8.19
228.117	30.72
228.335	28.67
228.553	174.08
228.771	26.62
228.989	36.86
229.206	106.49
229.424	-47.1
229.642	24.58
229.86	49.15
230.077	65.53
230.295	51.2
230.513	71.68
230.731	94.21
230.948	73.73
231.166	18.43
231.384	47.1
231.601	6.14
231.819	14.34
232.037	-36.86
232.254	-0
232.472	-0
232.689	81.92
232.907	71.68
233.125	79.87
233.342	53.25
233.56	63.49
233.777	-30.72
233.995	24.58
234.213	79.87
234.43	20.48
234.648	24.58
234.865	73.73
235.083	55.3
235.3	106.49
235.518	75.77
235.735	106.49
235.953	112.64
236.17	16.38
236.388	55.3
236.605	8.19
236.822	86.01
237.04	49.15
237.257	55.3
237.475	-0
237.692	88.06
237.909	53.25
238.127	-2.05
238.344	53.25
238.562	112.64
238.779	43.01
238.996	-18.43
239.214	-32.77
239.431	94.21
239.648	-6.14
239.865	81.92
240.083	34.82
240.3	6.14
240.517	30.72
240.735	-16.38
240.952	57.34
241.169	16.38
241.386	73.73
241.603	18.43
241.821	53.25
242.038	63.49
242.255	18.43
242.472	61.44
242.689	102.4
242.907	59.39
243.124	-18.43
243.341	-16.38
243.558	-12.29
243.775	-16.38
243.992	49.15
244.209	92.16
244.426	14.34
244.643	26.62
244.86	-32.77
245.078	57.34
245.295	32.77
245.512	34.82
245.729	8.19
245.946	53.25
246.163	40.96
246.38	-0
246.597	49.15
246.814	77.82
247.031	45.06
247.248	73.73
247.464	24.58
247.681	49.15
247.898	-18.43
248.115	63.49
248.332	-20.48
248.549	131.07
248.766	2.05
248.983	165.89
249.2	-8.19
249.417	-0
249.633	10.24
249.85	36.86
250.067	28.67
250.284	40.96
250.501	55.3
250.717	69.63
250.934	24.58
251.151	32.77
251.368	14.34
251.585	145.41
251.801	63.49
252.018	-12.29
252.235	20.48
252.451	22.53
252.668	30.72
252.885	20.48
253.102	49.15
253.318	77.82
253.535	6.14
253.752	45.06
253.968	24.58
254.185	12.29
254.401	14.34
254.618	73.73
254.835	14.34
255.051	69.63
255.268	22.53
255.484	-14.34
255.701	55.3
255.917	131.07
256.134	-47.1
256.351	32.77
256.567	-28.67
256.784	57.34
257	18.43
257.217	116.73
257.433	38.91
257.65	14.34
257.866	81.92
258.082	73.73
258.299	40.96
258.515	65.53
258.732	-12.29
258.948	2.05
259.165	67.58
259.381	38.91
259.597	59.39
259.814	40.96
260.03	75.77
260.246	6.14
260.463	73.73
260.679	100.35
260.895	30.72
261.112	49.15
261.328	32.77
261.544	-12.29
261.761	116.73
261.977	26.62
262.193	16.38
262.409	100.35
262.626	86.01
262.842	-18.43
263.058	36.86
263.274	102.4
263.49	14.34
263.707	92.16
263.923	-2.05
264.139	-34.82
264.355	-4.1
264.571	8.19
264.787	-10.24
265.004	61.44
265.22	30.72
265.436	-36.86
265.652	40.96
265.868	88.06
266.084	28.67
266.3	81.92
266.516	-28.67
266.732	28.67
266.948	-36.86
267.164	40.96
267.38	122.88
267.596	47.1
267.812	69.63
268.028	57.34
268.244	32.77
268.46	94.21
268.676	40.96
268.892	22.53
269.108	34.82
269.324	61.44
269.54	102.4
269.756	20.48
269.972	30.72
270.188	65.53
270.403	49.15
270.619	16.38
270.835	12.29
271.051	-10.24
271.267	-24.58
271.483	94.21
271.698	-6.14
271.914	100.35
272.13	69.63
272.346	18.43
272.562	22.53
272.777	112.64
272.993	4.1
273.209	116.73
273.425	38.91
273.64	-12.29
273.856	63.49
274.072	57.34
274.287	57.34
274.503	106.49
274.719	81.92
274.934	129.02
275.15	47.1
275.366	16.38
275.581	-12.29
275.797	59.39
276.012	83.97
276.228	81.92
276.444	-6.14
276.659	40.96
276.875	-8.19
277.09	-16.38
277.306	90.11
277.521	24.58
277.737	-18.43
277.952	90.11
278.168	18.43
278.383	16.38
278.599	118.78
278.814	55.3
279.03	18.43
279.245	69.63
279.461	14.34
279.676	51.2
279.892	30.72
280.107	86.01
280.322	-4.1
280.538	73.73
280.753	73.73
280.969	34.82
281.184	22.53
281.399	129.02
281.615	12.29
281.83	34.82
282.045	12.29
282.26	-12.29
282.476	6.14
282.691	75.77
282.906	16.38
283.122	55.3
283.337	53.25
283.552	94.21
283.767	26.62
283.983	24.58
284.198	112.64
284.413	102.4
284.628	38.91
284.843	24.58
285.058	12.29
285.274	-4.1
285.489	-49.15
285.704	73.73
285.919	6.14
286.134	63.49
286.349	51.2
286.564	88.06
286.779	122.88
286.995	-22.53
287.21	22.53
287.425	98.3
287.64	-12.29
287.855	38.91
288.07	6.14
288.285	61.44
288.5	147.45
288.715	57.34
288.93	-4.1
289.145	47.1
289.36	40.96
289.575	63.49
289.79	67.58
290.004	26.62
290.219	36.86
290.434	30.72
290.649	90.11
290.864	122.88
291.079	28.67
291.294	-22.53
291.509	102.4
291.724	110.59
291.938	47.1
292.153	112.64
292.368	4.1
292.583	79.87
292.798	118.78
293.012	-22.53
293.227	43.01
293.442	-53.25
293.657	86.01
293.871	149.5
294.086	47.1
294.301	110.59
294.516	34.82
294.73	-10.24
294.945	8.19
295.16	81.92
295.374	145.41
295.589	-18.43
295.804	90.11
296.018	110.59
296.233	104.45
296.447	65.53
296.662	-83.97
296.877	126.97
297.091	8.19
297.306	34.82
297.52	92.16
297.735	14.34
297.949	47.1
298.164	36.86
298.378	-8.19
298.593	45.06
298.807	77.82
299.022	49.15
299.236	88.06
299.451	28.67
299.665	30.72
299.88	-45.06
300.094	63.49
300.309	133.12
300.523	36.86
300.737	49.15
300.952	51.2
301.166	12.29
301.381	40.96
301.595	63.49
301.809	36.86
302.024	75.77
302.238	12.29
302.452	90.11
302.667	88.06
302.881	96.25
303.095	81.92
303.309	94.21
303.524	102.4
303.738	-0
303.952	55.3
304.166	14.34
304.381	-0
304.595	28.67
304.809	96.25
305.023	57.34
305.237	59.39
305.452	30.72
305.666	114.69
305.88	-4.1
306.094	86.01
306.308	77.82
306.522	69.63
306.736	34.82
306.95	75.77
307.164	20.48
307.379	73.73
307.593	126.97
307.807	55.3
308.021	102.4
308.235	32.77
308.449	-32.77
308.663	-12.29
308.877	100.35
309.091	49.15
309.305	12.29
309.519	32.77
309.733	126.97
309.947	65.53
310.161	112.64
310.374	83.97
310.588	81.92
310.802	69.63
311.016	20.48
311.23	137.21
311.444	71.68
311.658	106.49
311.872	73.73
312.085	51.2
312.299	69.63
312.513	53.25
312.727	112.64
312.941	-18.43
313.154	63.49
313.368	73.73
313.582	55.3
313.796	36.86
314.009	81.92
314.223	53.25
314.437	32.77
314.651	69.63
314.864	51.2
315.078	-10.24
315.292	4.1
315.505	34.82
315.719	49.15
315.933	104.45
316.146	88.06
316.36	-28.67
316.573	98.3
316.787	40.96
317.001	32.77
317.214	-18.43
317.428	51.2
317.641	90.11
317.855	49.15
318.068	65.53
318.282	63.49
318.495	53.25
318.709	53.25
318.922	24.58
319.136	-8.19
319.349	153.6
319.563	61.44
319.776	-0
319.99	-4.1
320.203	92.16
320.417	75.77
320.63	26.62
320.843	71.68
321.057	51.2
321.27	14.34
321.483	34.82
321.697	98.3
321.91	22.53
322.124	59.39
322.337	106.49
322.55	24.58
322.763	28.67
322.977	55.3
323.19	139.26
323.403	30.72
323.617	-16.38
323.83	36.86
324.043	32.77
324.256	94.21
324.469	47.1
324.683	67.58
324.896	-10.24
325.109	47.1
325.322	2.05
325.535	18.43
325.748	59.39
325.962	18.43
326.175	65.53
326.388	63.49
326.601	24.58
326.814	129.02
327.027	47.1
327.24	71.68
327.453	-8.19
327.666	65.53
327.879	47.1
328.092	22.53
328.305	16.38
328.518	86.01
328.731	88.06
328.944	110.59
329.157	63.49
329.37	57.34
329.583	135.17
329.796	112.64
330.009	-2.05
330.222	65.53
330.435	38.91
330.648	34.82
330.861	65.53
331.073	34.82
331.286	14.34
331.499	90.11
331.712	16.38
331.925	61.44
332.138	100.35
332.35	49.15
332.563	16.38
332.776	4.1
332.989	32.77
333.202	-8.19
333.414	28.67
333.627	106.49
333.84	16.38
334.053	106.49
334.265	53.25
334.478	47.1
334.691	14.34
334.903	90.11
335.116	108.54
335.329	22.53
335.541	55.3
335.754	98.3
335.966	40.96
336.179	122.88
336.392	16.38
336.604	36.86
336.817	67.58
337.029	73.73
337.242	36.86
337.454	126.97
337.667	38.91
337.88	120.83
338.092	24.58
338.305	79.87
338.517	8.19
338.729	129.02
338.942	81.92
339.154	75.77
339.367	71.68
339.579	2.05
339.792	32.77
340.004	61.44
340.217	36.86
340.429	38.91
340.641	30.72
340.854	26.62
341.066	77.82
341.278	149.5
341.491	69.63
341.703	94.21
341.915	18.43
342.128	36.86
342.34	49.15
342.552	49.15
342.764	94.21
342.977	98.3
343.189	8.19
343.401	43.01
343.613	53.25
343.826	83.97
344.038	96.25
344.25	36.86
344.462	30.72
344.674	53.25
344.886	77.82
345.099	133.12
345.311	98.3
345.523	-4.1
345.735	36.86
345.947	145.41
346.159	96.25
346.371	110.59
346.583	51.2
346.795	106.49
347.007	-24.58
347.219	141.31
347.431	-6.14
347.643	49.15
347.855	49.15
348.067	149.5
348.279	12.29
348.491	116.73
348.703	61.44
348.915	102.4
349.127	34.82
349.339	77.82
349.551	55.3
349.763	16.38
349.975	98.3
350.187	112.64
350.399	143.36
350.61	38.91
350.822	32.77
351.034	79.87
351.246	81.92
351.458	32.77
351.669	36.86
351.881	69.63
352.093	200.7
352.305	110.59
352.517	65.53
352.728	69.63
352.94	22.53
353.152	88.06
353.363	75.77
353.575	59.39
353.787	88.06
353.999	57.34
354.21	145.41
354.422	69.63
354.633	77.82
354.845	47.1
355.057	102.4
355.268	124.93
355.48	-16.38
355.692	-45.06
355.903	-14.34
356.115	63.49
356.326	-16.38
356.538	98.3
356.749	104.45
356.961	86.01
357.172	122.88
357.384	8.19
357.595	12.29
357.807	32.77
358.018	73.73
358.23	-0
358.441	120.83
358.653	34.82
358.864	20.48
359.075	20.48
359.287	53.25
359.498	63.49
359.709	-2.05
359.921	53.25
360.132	-24.58
360.344	108.54
360.555	40.96
360.766	65.53
360.977	102.4
361.189	57.34
361.4	96.25
361.611	47.1
361.823	135.17
362.034	90.11
362.245	20.48
362.456	69.63
362.667	79.87
362.879	106.49
363.09	12.29
363.301	22.53
363.512	61.44
363.723	40.96
363.935	77.82
364.146	36.86
364.357	81.92
364.568	94.21
364.779	45.06
364.99	149.5
365.201	112.64
365.412	114.69
365.623	16.38
365.834	86.01
366.045	69.63
366.256	-12.29
366.467	32.77
366.678	63.49
366.889	92.16
367.1	92.16
367.311	102.4
367.522	-24.58
367.733	92.16
367.944	86.01
368.155	63.49
368.366	45.06
368.577	129.02
368.788	98.3
368.999	36.86
369.209	88.06
369.42	133.12
369.631	28.67
369.842	69.63
370.053	53.25
370.264	61.44
370.474	100.35
370.685	24.58
370.896	-36.86
371.107	112.64
371.317	61.44
371.528	65.53
371.739	135.17
371.95	49.15
372.16	16.38
372.371	16.38
372.582	34.82
372.792	47.1
373.003	81.92
373.214	63.49
373.424	124.93
373.635	-4.1
373.846	120.83
374.056	26.62
374.267	100.35
374.477	30.72
374.688	49.15
374.898	114.69
375.109	36.86
375.319	40.96
375.53	53.25
375.74	135.17
375.951	51.2
376.161	22.53
376.372	47.1
376.582	-18.43
376.793	73.73
377.003	26.62
377.214	65.53
377.424	67.58
377.635	71.68
377.845	83.97
378.055	63.49
378.266	57.34
378.476	40.96
378.686	63.49
378.897	67.58
379.107	92.16
379.317	112.64
379.528	55.3
379.738	86.01
379.948	49.15
380.158	131.07
380.369	159.74
380.579	69.63
380.789	22.53
380.999	83.97
381.21	110.59
381.42	149.5
381.63	71.68
381.84	34.82
382.05	163.84
382.261	149.5
382.471	45.06
382.681	24.58
382.891	96.25
383.101	104.45
383.311	102.4
383.521	55.3
383.731	129.02
383.941	45.06
384.151	71.68
384.361	126.97
384.571	116.73
384.781	94.21
384.991	159.74
385.201	69.63
385.411	63.49
385.621	63.49
385.831	65.53
386.041	-0
386.251	79.87
386.461	135.17
386.671	120.83
386.881	45.06
387.091	43.01
387.301	106.49
387.511	34.82
387.72	204.8
387.93	112.64
388.14	12.29
388.35	61.44
388.56	71.68
388.769	180.22
388.979	106.49
389.189	61.44
389.399	-0
389.609	126.97
389.818	79.87
390.028	24.58
390.238	102.4
390.447	-8.19
390.657	75.77
390.867	110.59
391.076	71.68
391.286	81.92
391.496	47.1
391.705	106.49
391.915	69.63
392.125	114.69
392.334	81.92
392.544	153.6
392.753	57.34
392.963	47.1
393.172	75.77
393.382	61.44
393.591	141.31
393.801	102.4
394.01	188.41
394.22	120.83
394.429	163.84
394.639	49.15
394.848	47.1
395.058	110.59
395.267	28.67
395.477	155.65
395.686	133.12
395.895	184.32
396.105	212.99
396.314	94.21
396.524	69.63
396.733	112.64
396.942	100.35
397.152	98.3
397.361	178.17
397.57	153.6
397.78	110.59
397.989	153.6
398.198	163.84
398.407	133.12
398.617	131.07
398.826	98.3
399.035	110.59
399.244	139.26
399.453	106.49
399.663	200.7
399.872	169.98
400.081	182.27
400.29	122.88
400.499	139.26
400.708	174.08
400.917	133.12
401.127	139.26
401.336	110.59
401.545	172.03
401.754	129.02
401.963	122.88
402.172	116.73
402.381	182.27
402.59	198.65
402.799	106.49
403.008	194.56
403.217	104.45
403.426	139.26
403.635	151.55
403.844	120.83
404.053	98.3
404.262	65.53
404.471	215.04
404.68	155.65
404.888	196.6
405.097	163.84
405.306	180.22
405.515	176.13
405.724	272.38
405.933	235.52
406.142	186.37
406.35	217.08
406.559	196.6
406.768	286.72
406.977	212.99
407.185	231.42
407.394	325.63
407.603	276.48
407.812	245.76
408.02	229.37
408.229	243.71
408.438	307.2
408.646	264.19
408.855	278.52
409.064	354.3
409.272	299
409.481	368.63
409.69	325.63
409.898	376.83
410.107	370.68
410.315	374.78
410.524	401.4
410.733	364.54
410.941	440.31
411.15	438.27
411.358	489.46
411.567	534.52
411.775	423.93
411.984	546.81
412.192	550.9
412.401	559.1
412.609	511.99
412.818	636.92
413.026	514.04
413.234	612.34
413.443	606.2
413.651	602.1
413.86	669.69
414.068	729.08
414.276	727.03
414.485	743.41
414.693	704.5
414.901	831.48
415.11	841.72
415.318	882.67
415.526	892.91
415.734	931.83
415.943	917.49
416.151	950.26
416.359	1003.5
416.567	1085.42
416.776	1093.62
416.984	1181.68
417.192	1208.3
417.4	1171.44
417.608	1175.53
417.817	1226.73
418.025	1304.56
418.233	1331.18
418.441	1368.04
418.649	1411.05
418.857	1525.74
419.065	1572.84
419.273	1675.24
419.481	1607.66
419.689	1742.82
419.897	1763.3
420.105	1755.11
420.313	1845.22
420.521	1908.71
420.729	1966.05
420.937	2152.42
421.145	2170.85
421.353	2185.18
421.561	2338.78
421.769	2367.45
421.977	2461.66
422.185	2498.52
422.393	2611.16
422.601	2658.26
422.809	2754.52
423.017	2777.05
423.224	3006.42
423.432	2930.64
423.64	2992.08
423.848	3301.33
424.056	3186.64
424.263	3590.09
424.471	3336.14
424.679	3356.62
424.887	3686.34
425.094	3817.41
425.302	3776.45
425.51	4007.87
425.718	4032.45
425.925	4155.33
426.133	4251.58
426.341	4472.76
426.548	4771.77
426.756	4794.29
426.964	4710.33
427.171	5103.54
427.379	5148.59
427.586	5289.9
427.794	5466.03
428.001	5783.46
428.209	5889.96
428.417	5844.9
428.624	6193.06
428.832	6221.73
429.039	6246.3
429.247	6145.95
429.454	6649.75
429.662	7313.3
429.869	6784.92
430.076	7202.71
430.284	6969.24
430.491	7219.09
430.699	7778.19
430.906	7841.67
431.114	7790.47
431.321	8124.29
431.528	8249.22
431.736	8927.1
431.943	9156.47
432.15	9043.83
432.358	9199.48
432.565	9545.58
432.772	9490.29
432.979	10037.09
433.187	10104.68
433.394	10342.24
433.601	10970.97
433.808	10964.82
434.016	11073.37
434.223	11431.76
434.43	12021.58
434.637	11618.13
434.844	12584.77
435.052	13053.75
435.259	12736.32
435.466	12912.44
435.673	12801.85
435.88	13711.15
436.087	14116.65
436.294	14257.96
436.501	13709.1
436.708	14317.35
436.915	14761.76
437.122	15224.6
437.329	15314.71
437.537	15679.25
437.743	15765.26
437.95	15935.24
438.157	16617.22
438.364	17313.53
438.571	17473.27
438.778	17243.9
438.985	18896.61
439.192	18345.7
439.399	18843.36
439.606	18278.12
439.813	19439.32
440.02	20717.25
440.227	20215.5
440.433	19922.64
440.64	20643.52
440.847	20569.8
441.054	21071.55
441.261	22286
441.467	21780.15
441.674	22410.92
441.881	23514.78
442.088	23514.78
442.294	23246.49
442.501	23565.98
442.708	23871.12
442.914	25112.19
443.121	26205.81
443.328	25595.51
443.534	27256.42
443.741	26418.8
443.948	26113.65
444.154	28018.26
444.361	27999.83
444.568	28083.8
444.774	28085.84
444.981	28155.47
445.187	29238.85
445.394	30498.35
445.6	29965.88
445.807	32914.95
446.013	31483.42
446.22	31940.12
446.426	32929.29
446.633	33709.57
446.839	34510.32
447.046	32902.67
447.252	34651.63
447.459	35276.26
447.665	34332.15
447.871	36603.35
448.078	38069.69
448.284	35861.98
448.491	37299.65
448.697	38442.42
448.903	38929.84
449.11	39099.82
449.316	38092.22
449.522	39380.39
449.728	39708.07
449.935	40451.48
450.141	40043.93
450.347	40990.09
450.553	39683.49
450.76	40105.37
450.966	41727.36
451.172	41043.34
451.378	42046.85
451.584	41299.34
451.791	42165.63
451.997	41823.62
452.203	42550.65
452.409	42513.78
452.615	42485.11
452.821	40545.69
453.027	40154.52
453.233	42544.5
453.44	40459.67
453.646	40891.79
453.852	41084.3
454.058	41930.11
454.264	40390.04
454.47	41334.15
454.676	40383.9
454.882	41796.99
455.088	38049.21
455.294	38817.2
455.5	39275.94
455.705	40037.79
455.911	38133.18
456.117	37221.83
456.323	36793.81
456.529	35010.03
456.735	36400.6
456.941	35444.2
457.147	34579.95
457.352	33701.37
457.558	33570.3
457.764	33752.57
457.97	32759.31
458.176	31905.31
458.381	32044.57
458.587	30412.34
458.793	30418.48
458.999	28995.14
459.204	31047.21
459.41	30242.35
459.616	28218.96
459.821	28145.23
460.027	28180.05
460.233	27692.63
460.438	26279.53
460.644	26156.66
460.85	25167.49
461.055	24927.88
461.261	24729.22
461.466	23099.04
461.672	22281.9
461.878	24067.73
462.083	22279.85
462.289	21941.94
462.494	21583.54
462.7	20932.29
462.905	20442.82
463.111	20797.12
463.316	20786.88
463.522	20465.35
463.727	20682.44
463.932	20520.65
464.138	20274.89
464.343	20541.13
464.549	19637.97
464.754	20532.93
464.959	20405.96
465.165	20070.09
465.37	19320.54
465.575	18898.66
465.781	19480.28
465.986	19586.77
466.191	18734.82
466.397	18556.64
466.602	17444.6
466.807	18427.62
467.012	18493.16
467.218	18259.69
467.423	18073.32
467.628	18218.73
467.833	18620.13
468.038	17878.77
468.244	17909.49
468.449	18093.8
468.654	17841.9
468.859	17553.14
469.064	17413.88
469.269	16934.65
469.474	17028.86
469.679	17352.44
469.885	16746.24
470.09	17102.59
470.295	17055.48
470.5	16389.89
470.705	16658.18
470.91	16267.02
471.115	16011.02
471.32	16434.95
471.525	15988.49
471.73	15720.21
471.935	15535.89
472.139	15179.54
472.344	15413.01
472.549	15359.77
472.754	15083.29
472.959	14948.12
473.164	14728.99
473.369	14090.02
473.574	14790.43
473.778	14507.81
473.983	14483.24
474.188	14489.38
474.393	13991.72
474.598	13954.86
474.802	13782.83
475.007	13604.66
475.212	13715.25
475.417	13012.79
475.621	13426.48
475.826	13258.55
476.031	12982.07
476.235	12922.68
476.44	12918.59
476.645	13014.84
476.849	12668.73
477.054	12330.82
477.259	12330.82
477.463	12209.99
477.668	12048.2
477.872	12234.57
478.077	11890.51
478.282	11698
478.486	11777.87
478.691	11765.58
478.895	11665.23
479.1	11464.53
479.304	11558.74
479.509	11186.01
479.713	11444.05
479.918	11194.2
480.122	10981.21
480.326	11061.08
480.531	10903.39
480.735	11118.42
480.94	10868.57
481.144	11296.6
481.348	10772.32
481.553	10751.84
481.757	10559.33
481.961	10903.39
482.166	10989.4
482.37	10583.9
482.574	10329.95
482.778	10766.17
482.983	10932.06
483.187	10700.64
483.391	10753.88
483.595	10764.12
483.8	10446.69
484.004	10491.74
484.208	10606.43
484.412	10510.18
484.616	10649.44
484.821	10710.88
485.025	10530.66
485.229	10737.5
485.433	10583.9
485.637	10518.37
485.841	10555.23
486.045	10336.1
486.249	10598.24
486.453	10565.47
486.657	10577.76
486.861	10610.53
487.065	10352.48
487.269	10528.61
487.473	10366.82
487.677	10651.49
487.881	10622.81
488.085	10493.79
488.289	10676.06
488.493	10649.44
488.697	10823.51
488.901	10831.71
489.105	10604.38
489.309	10817.37
489.512	10823.51
489.716	10735.45
489.92	10819.42
490.124	10731.36
490.328	10880.86
490.531	10704.73
490.735	11026.26
490.939	10884.95
491.143	10911.58
491.346	10841.95
491.55	11032.41
491.754	11075.42
491.958	11016.02
492.161	11315.03
492.365	11091.8
492.569	11325.27
492.772	11181.91
492.976	11442
493.18	11460.43
493.383	11468.62
493.587	11472.72
493.79	11616.08
493.994	11337.56
494.197	11736.91
494.401	11833.16
494.605	11876.17
494.808	12316.48
495.012	12093.26
495.215	12060.49
495.419	12201.8
495.622	12048.2
495.825	12345.16
496.029	12398.4
496.232	12742.46
496.436	12705.6
496.639	12939.07
496.843	12955.45
497.046	12910.4
497.249	13147.96
497.453	13164.34
497.656	13426.48
497.859	13473.59
498.063	13573.94
498.266	14085.93
498.469	13938.48
498.673	13946.67
498.876	14290.73
499.079	14395.17
499.282	14200.62
499.485	14960.41
499.689	14688.03
499.892	14935.84
500.095	14866.21
500.298	15718.16
500.501	15353.62
500.705	15597.33
500.908	15879.95
501.111	16039.69
501.314	16109.32
501.517	16398.09
501.72	16414.47
501.923	16424.71
502.126	16680.71
502.329	17053.44
502.532	16936.7
502.735	17436.41
502.938	17788.66
503.141	17551.09
503.344	17921.77
503.547	17938.16
503.75	18233.07
503.953	18450.15
504.156	18677.47
504.359	19007.2
504.562	18779.87
504.765	19482.33
504.968	19400.41
505.17	19863.25
505.373	19812.05
505.576	20338.38
505.779	20383.43
505.982	20367.05
506.185	21028.54
506.387	21276.35
506.59	21411.51
506.793	21675.7
506.996	21663.41
507.198	22091.44
507.401	21882.55
507.604	22181.55
507.807	22742.69
508.009	22951.59
508.212	22935.2
508.415	23262.88
508.617	23404.19
508.82	23590.55
509.022	23303.84
509.225	24237.71
509.428	24391.31
509.63	24737.41
509.833	24673.93
510.035	25296.51
510.238	25065.09
510.44	25593.47
510.643	26021.49
510.845	26465.9
511.048	26103.41
511.25	26476.14
511.453	27076.19
511.655	27768.41
511.858	27178.59
512.06	27328.09
512.262	27731.54
512.465	27928.15
512.667	28540.49
512.87	28730.95
513.072	28565.07
513.274	29238.85
513.477	29455.93
513.679	29591.1
513.881	29959.73
514.084	30723.63
514.286	30246.45
514.488	30705.2
514.69	31712.8
514.893	31118.89
515.095	31768.09
515.297	32286.23
515.499	32235.03
515.701	32671.25
515.904	32708.11
516.106	33062.41
516.308	33453.57
516.51	33781.24
516.712	34031.1
516.914	34356.72
517.116	34835.95
517.318	34878.96
517.52	35155.43
517.722	35120.62
517.925	35786.21
518.127	36408.79
518.329	36382.16
518.531	36402.64
518.733	36951.5
518.935	37352.9
519.136	37551.56
519.338	37887.42
519.54	37774.78
519.742	38446.52
519.944	38598.07
520.146	39265.7
520.348	39521.7
520.55	39191.98
520.752	39996.83
520.954	40316.31
521.155	40271.26
521.357	40883.6
521.559	41219.47
521.761	41694.6
521.963	41743.75
522.164	41854.34
522.366	41868.67
522.568	42962.29
522.77	42937.71
522.971	43044.21
523.173	43148.65
523.375	43427.18
523.576	43724.13
523.778	43812.2
523.98	44262.75
524.181	44555.61
524.383	44805.46
524.584	44938.58
524.786	45143.38
524.988	45083.98
525.189	45628.74
525.391	45821.25
525.592	46294.33
525.794	46148.93
525.995	46243.13
526.197	46615.86
526.398	46540.09
526.6	47252.78
526.801	47144.24
527.003	47699.24
527.204	47523.11
527.406	47895.85
527.607	48213.28
527.808	48526.62
528.01	47465.77
528.211	48170.27
528.412	49149.2
528.614	48510.24
528.815	48463.13
529.016	49364.24
529.218	48833.81
529.419	49063.19
529.62	49235.22
529.822	49255.7
530.023	48993.56
530.224	49874.18
530.425	49456.4
530.626	49458.45
530.828	48981.27
531.029	50341.12
531.23	49966.34
531.431	50158.85
531.632	50343.17
531.833	50382.08
532.035	50240.77
532.236	50629.88
532.437	50103.56
532.638	50046.21
532.839	50461.95
533.04	50853.11
533.241	50107.65
533.442	51045.62
533.643	50726.14
533.844	50922.74
534.045	50918.65
534.246	50427.13
534.447	51117.3
534.648	50636.03
534.849	51016.95
535.05	50550.01
535.251	50797.82
535.451	50828.54
535.652	50738.43
535.853	51012.85
536.054	50990.33
536.255	51178.74
536.456	50988.28
536.657	51258.61
536.857	50529.53
537.058	50746.62
537.259	51404.02
537.46	51350.77
537.66	50937.08
537.861	51395.82
538.062	51246.32
538.263	50830.58
538.463	51266.8
538.664	51340.53
538.865	51000.57
539.065	50963.7
539.266	51055.86
539.466	51365.1
539.667	50459.9
539.868	51401.97
540.068	51221.75
540.269	51021.05
540.469	51234.03
540.67	50693.37
540.87	51111.16
541.071	50760.95
541.271	50928.89
541.472	50973.94
541.672	50519.29
541.873	50693.37
542.073	50595.07
542.274	51012.85
542.474	50932.98
542.675	50681.08
542.875	51137.78
543.075	50660.6
543.276	50570.49
543.476	51225.84
543.676	50490.62
543.877	51129.59
544.077	50719.99
544.277	50783.48
544.478	50509.05
544.678	51152.12
544.878	50681.08
545.078	50619.64
545.279	50504.96
545.479	50535.68
545.679	50855.16
545.879	50363.65
546.079	50990.33
546.28	50111.75
546.48	50050.31
546.68	50771.19
546.88	50795.77
547.08	50894.07
547.28	50119.94
547.48	49970.44
547.68	50525.44
547.88	50017.54
548.081	50980.09
548.281	50502.91
548.481	50124.04
548.681	50840.82
548.881	50799.86
549.081	50441.47
549.28	50273.54
549.48	50703.61
549.68	50390.27
549.88	51412.21
550.08	50298.11
550.28	50509.05
550.48	50124.04
550.68	50644.22
550.88	50550.01
551.08	50054.4
551.279	50476.29
551.479	49792.26
551.679	50304.26
551.879	50275.58
552.079	50705.66
552.278	49841.42
552.478	49986.82
552.678	49890.57
552.878	50574.59
553.077	50128.13
553.277	49822.98
553.477	50251.01
553.676	50054.4
553.876	50011.4
554.076	49786.12
554.275	49759.5
554.475	49005.84
554.674	49661.19
554.874	49673.48
555.074	49671.43
555.273	49511.69
555.473	49976.58
555.672	50017.54
555.872	49456.4
556.071	49595.66
556.271	49464.59
556.47	49218.83
556.67	49075.48
556.869	49337.62
557.068	49587.47
557.268	49151.25
557.467	48801.05
557.667	49161.49
557.866	48862.49
558.065	49300.75
558.265	48819.48
558.464	48313.63
558.663	49243.41
558.863	48508.19
559.062	49038.61
559.261	48131.36
559.461	49024.28
559.66	47981.86
559.859	48899.35
560.058	48178.46
560.258	48459.04
560.457	48149.79
560.656	48678.17
560.855	47797.54
561.054	48260.38
561.253	47609.13
561.453	47654.18
561.652	47924.52
561.851	47760.68
562.05	47566.12
562.249	47203.63
562.448	47744.3
562.647	47645.99
562.846	47199.54
563.045	47346.99
563.244	47095.09
563.443	47140.14
563.642	46564.67
563.841	47072.56
564.04	46632.25
564.239	46892.34
564.438	46277.95
564.637	46468.41
564.836	46476.6
565.035	46060.87
565.234	46040.39
565.432	46222.65
565.631	46009.67
565.83	46327.1
566.029	45817.16
566.228	45618.5
566.427	45376.84
566.625	45475.15
566.824	45233.49
567.023	45401.42
567.222	44461.4
567.42	45598.02
567.619	44889.43
567.818	45163.85
568.016	44735.83
568.215	45083.98
568.414	44848.47
568.612	44932.43
568.811	44598.62
569.01	44367.19
569.208	43758.95
569.407	44840.28
569.605	43674.98
569.804	44338.52
570.002	43603.3
570.201	43779.43
570.4	43457.9
570.598	43230.57
570.797	43265.39
570.995	43500.9
571.193	42646.9
571.392	43527.53
571.59	42653.05
571.789	42993.01
571.987	42665.33
572.186	42911.09
572.384	42454.39
572.582	42685.81
572.781	42491.26
572.979	41844.1
573.177	42288.51
573.376	42120.57
573.574	41915.78
573.772	42153.34
573.971	41751.94
574.169	41696.64
574.367	41268.62
574.565	41440.65
574.763	41241.99
574.962	41166.22
575.16	40836.5
575.358	41059.73
575.556	40340.89
575.754	41125.26
575.952	40408.47
576.151	40813.97
576.349	39998.88
576.547	40392.09
576.745	40711.57
576.943	40207.77
577.141	40054.17
577.339	40129.95
577.537	39978.4
577.735	39880.1
577.933	39585.19
578.131	39779.75
578.329	38856.11
578.527	39314.86
578.725	39419.3
578.923	39341.48
579.121	38577.59
579.319	39013.8
579.516	39138.73
579.714	39169.45
579.912	38845.87
580.11	38800.82
580.308	38702.51
580.506	38667.7
580.704	37946.81
580.901	38038.97
581.099	38483.38
581.297	38104.51
581.495	37825.98
581.692	37881.28
581.89	37678.53
582.088	37963.2
582.285	37193.16
582.483	37725.63
582.681	37225.93
582.878	36969.93
583.076	36869.58
583.274	37330.37
583.471	36672.98
583.669	37074.38
583.866	36478.42
584.064	37008.84
584.262	36343.25
584.459	36879.82
584.657	36304.34
584.854	36722.13
585.052	35849.69
585.249	36361.69
585.447	36023.77
585.644	35886.56
585.841	35937.76
586.039	36183.51
586.236	35616.22
586.434	35425.76
586.631	35075.56
586.828	35292.65
587.026	35427.81
587.223	35251.69
587.42	35091.94
587.618	34530.8
587.815	34500.08
588.012	34283
588.21	34510.32
588.407	34885.1
588.604	34203.13
588.801	34366.96
588.999	34149.88
589.196	34113.02
589.393	33953.27
589.59	33912.31
589.787	33748.48
589.984	33564.16
590.182	33281.54
590.379	33738.24
590.576	33193.48
590.773	33322.5
590.97	33140.23
591.167	33093.13
591.364	32810.51
591.561	33269.25
591.758	32646.67
591.955	32564.75
592.152	32861.71
592.349	32716.3
592.546	32818.7
592.743	32859.66
592.94	31798.81
593.137	32527.89
593.334	32308.75
593.531	31870.49
593.727	32116.25
593.924	31723.04
594.121	31270.43
594.318	31974.94
594.515	31403.55
594.712	31481.38
594.908	31163.94
595.105	31438.37
595.302	31088.17
595.499	31301.15
595.696	31182.37
595.892	30801.45
596.089	31049.25
596.286	30877.22
596.482	30699.05
596.679	30492.21
596.876	30367.28
597.072	30185.01
597.269	30180.92
597.466	30049.85
597.662	30025.27
597.859	30338.61
598.055	29959.73
598.252	29965.88
598.448	29728.31
598.645	29468.22
598.841	29128.26
599.038	29603.39
599.234	29630.01
599.431	29132.36
599.627	29040.2
599.824	29292.1
600.02	28696.14
600.217	28943.94
600.413	28784.2
600.609	28591.69
600.806	28612.17
601.002	28894.79
601.198	28520.01
601.395	28401.23
601.591	28173.91
601.787	28454.48
601.984	27874.9
602.18	28517.96
602.376	27909.72
602.572	27999.83
602.769	28005.97
602.965	27557.47
603.161	27584.09
603.357	27532.89
603.553	27471.45
603.75	27580
603.946	27371.1
604.142	27194.98
604.338	26877.54
604.534	27219.55
604.73	26787.43
604.926	26783.34
605.122	27117.15
605.318	26875.49
605.514	26738.28
605.71	26496.62
605.906	26222.19
606.102	26130.03
606.298	26588.78
606.494	26285.68
606.69	26353.26
606.886	26459.76
607.082	26052.21
607.278	26132.08
607.474	25910.9
607.67	26041.97
607.866	25325.18
608.062	26037.87
608.257	25943.67
608.453	25583.23
608.649	25726.58
608.845	25054.85
609.041	25374.33
609.236	25525.88
609.432	25419.39
609.628	25357.95
609.824	25183.87
610.019	25212.54
610.215	25089.67
610.411	25327.23
610.606	24952.45
610.802	24940.16
610.998	24958.6
611.193	24798.85
611.389	25114.24
611.584	24815.24
611.78	24546.95
611.976	24805
612.171	24598.15
612.367	24792.71
612.562	24491.66
612.758	24063.63
612.953	24217.23
613.149	24555.15
613.344	24108.69
613.539	24358.54
613.735	24141.46
613.93	24499.85
614.126	24067.73
614.321	24252.05
614.517	24096.4
614.712	23690.9
614.907	23690.9
615.103	23961.23
615.298	23811.73
615.493	24084.11
615.688	23680.66
615.884	24104.59
616.079	23221.92
616.274	23447.19
616.47	23752.34
616.665	23477.91
616.86	23289.5
617.055	23393.95
617.25	23221.92
617.445	23383.71
617.641	22933.15
617.836	23207.58
618.031	22806.18
618.226	23238.3
618.421	22709.93
618.616	22742.69
618.811	22380.2
619.006	22953.63
619.201	22257.32
619.396	22763.17
619.591	22034.1
619.786	22429.35
619.981	22075.06
620.176	22349.48
620.371	22156.97
620.566	22253.23
620.761	22341.29
620.956	21798.58
621.151	21370.55
621.346	21870.26
621.541	21421.75
621.735	21409.47
621.93	20907.71
622.125	21395.13
622.32	21206.72
622.515	20862.66
622.709	20815.55
622.904	20704.96
623.099	20377.29
623.294	20762.31
623.488	20381.38
623.683	20768.45
623.878	20016.85
624.072	20305.61
624.267	20090.57
624.462	19867.34
624.656	19853.01
624.851	19574.49
625.046	19453.66
625.24	19728.08
625.435	19568.34
625.629	19465.94
625.824	19023.58
626.018	19148.51
626.213	18951.9
626.407	18824.93
626.602	18798.31
626.796	18714.34
626.991	18771.68
627.185	18546.4
627.38	18378.47
627.574	18274.03
627.768	18054.89
627.963	18175.72
628.157	17874.67
628.352	17979.12
628.546	17432.31
628.74	17919.73
628.935	17532.66
629.129	17649.39
629.323	17297.14
629.517	17460.98
629.712	17348.34
629.906	17221.37
630.1	16936.7
630.294	17018.62
630.489	16914.17
630.683	16854.78
630.877	16598.79
631.071	16652.03
631.265	16658.18
631.459	16596.74
631.653	16250.63
631.848	16480
632.042	16230.15
632.236	16461.57
632.43	15861.52
632.624	15937.29
632.818	16074.51
633.012	15765.26
633.206	15628.05
633.4	15793.93
633.594	15654.67
633.788	15398.68
633.982	15494.93
634.176	15197.98
634.369	15179.54
634.563	15163.16
634.757	14966.56
634.951	14952.22
635.145	15013.66
635.339	14688.03
635.533	14708.51
635.726	14745.38
635.92	14726.94
636.114	14423.84
636.308	14436.13
636.501	14300.97
636.695	14300.97
636.889	14268.2
637.083	14053.16
637.276	13928.24
637.47	13965.1
637.664	13981.48
637.857	13999.91
638.051	13745.97
638.244	13688.62
638.438	13606.7
638.632	13588.27
638.825	13455.15
639.019	13250.36
639.212	13236.02
639.406	13262.65
639.599	13410.1
639.793	13139.77
639.986	12891.96
640.18	13109.05
640.373	12900.16
640.567	12754.75
640.76	12920.63
640.954	12572.48
641.147	12580.67
641.34	12523.33
641.534	12392.26
641.727	12455.75
641.92	12406.59
642.114	12269.38
642.307	12293.96
642.5	12042.06
642.694	12009.29
642.887	11796.3
643.08	12076.87
643.273	11863.88
643.467	11738.96
643.66	11661.13
643.853	11902.79
644.046	11550.54
644.239	11521.87
644.432	11460.43
644.626	11566.93
644.819	11159.38
645.012	11439.95
645.205	11220.82
645.398	11183.96
645.591	11153.24
645.784	10835.8
645.977	10821.47
646.17	11157.33
646.363	10766.17
646.556	10588
646.749	10784.6
646.942	10723.16
647.135	10616.67
647.328	10684.25
647.521	10387.3
647.714	10420.06
647.907	10233.7
648.099	10329.95
648.292	10319.71
648.485	10112.87
648.678	10202.98
648.871	10051.43
649.064	9881.45
649.256	10090.34
649.449	9959.27
649.642	9805.67
649.835	9879.4
650.027	9918.31
650.22	9895.78
650.413	9785.19
650.605	9774.95
650.798	9443.18
650.991	9684.84
651.183	9621.36
651.376	9453.42
651.568	9508.72
651.761	9324.4
651.954	9226.1
652.146	9305.97
652.339	9066.36
652.531	9092.98
652.724	9002.87
652.916	9156.47
653.109	9135.99
653.301	9025.4
653.494	8972.15
653.686	8722.3
653.879	8929.14
654.071	8941.43
654.263	8775.55
654.456	8595.32
654.648	8798.07
654.84	8677.24
655.033	8605.56
655.225	8636.28
655.417	8435.58
655.61	8585.08
655.802	8312.71
655.994	8312.71
656.186	8392.58
656.379	8085.38
656.571	8212.35
656.763	8030.09
656.955	8109.96
657.148	8130.44
657.34	8081.28
657.532	7921.54
657.724	8130.44
657.916	7923.59
658.108	7991.17
658.3	7890.82
658.492	7933.83
658.684	7821.19
658.876	7700.36
659.068	7729.03
659.26	7683.98
659.452	7827.34
659.644	7595.92
659.836	7352.21
660.028	7507.85
660.22	7217.04
660.412	7309.2
660.604	7301.01
660.796	7372.69
660.988	7210.9
661.18	7212.95
661.372	7151.51
661.563	7315.34
661.755	7223.19
661.947	7137.17
662.139	7313.3
662.331	7077.78
662.522	7051.16
662.714	7061.4
662.906	6936.47
663.097	6897.56
663.289	7049.11
663.481	6829.98
663.673	6762.39
663.864	6619.03
664.056	6719.39
664.247	6776.73
664.439	6616.99
664.631	6756.25
664.822	6649.75
665.014	6739.87
665.205	6678.43
665.397	6590.36
665.588	6412.19
665.78	6610.84
665.971	6447.01
666.163	6512.54
666.354	6379.42
666.546	6291.36
666.737	6373.28
666.929	6313.89
667.12	6176.67
667.311	6129.57
667.503	6360.99
667.694	6303.65
667.885	6229.92
668.077	6055.84
668.268	6201.25
668.459	5998.5
668.651	6186.91
668.842	5859.24
669.033	5912.49
669.224	5842.85
669.416	5986.21
669.607	6035.36
669.798	6055.84
669.989	5857.19
670.18	5830.57
670.371	5767.08
670.563	5797.8
670.754	5851.05
670.945	5826.47
671.136	5830.57
671.327	5799.85
671.518	5787.56
671.709	5627.82
671.9	5810.09
672.091	5578.67
672.282	5623.72
672.473	5595.05
672.664	5623.72
672.855	5660.59
673.046	5525.42
673.237	5633.96
673.428	5492.65
673.619	5668.78
673.809	5537.71
674	5545.9
674.191	5476.27
674.382	5427.12
674.573	5457.84
674.764	5447.6
674.954	5543.85
675.145	5281.71
675.336	5345.2
675.527	5423.02
675.717	5257.14
675.908	5152.69
676.099	5324.72
676.289	5318.57
676.48	5144.5
676.671	5263.28
676.861	5420.97
677.052	5439.4
677.243	5263.28
677.433	5085.11
677.624	5236.66
677.814	5226.42
678.005	5191.6
678.195	5234.61
678.386	5078.96
678.576	5181.36
678.767	5240.75
678.957	5107.63
679.148	4984.76
679.338	5124.02
679.529	5124.02
679.719	5083.06
679.909	5234.61
680.1	5076.91
680.29	5083.06
680.481	5124.02
680.671	5095.35
680.861	5046.19
681.052	5019.57
681.242	5054.39
681.432	5113.78
681.622	4906.93
681.813	5046.19
682.003	5058.48
682.193	4870.07
682.383	5062.58
682.573	5175.22
682.764	4882.36
682.954	4902.84
683.144	5025.72
683.334	4995
683.524	4886.45
683.714	5017.52
683.904	4943.8
684.094	5060.53
684.284	4810.68
684.474	5009.33
684.664	4712.38
684.854	4802.49
685.044	4865.97
685.234	4753.34
685.424	4816.82
685.614	4818.87
685.804	4820.92
685.994	4931.51
686.184	4816.82
686.374	4857.78
686.564	4695.99
686.753	4786.1
686.943	4632.51
687.133	4763.58
687.323	4550.59
687.513	4665.27
687.702	4581.31
687.892	4503.48
688.082	4583.35
688.272	4652.98
688.461	4583.35
688.651	4573.11
688.841	4472.76
689.03	4552.63
689.22	4485.05
689.41	4544.44
689.599	4288.45
689.789	4505.53
689.979	4356.03
690.168	4341.69
690.358	4394.94
690.547	4329.41
690.737	4386.75
690.926	4388.8
691.116	4298.69
691.305	4497.34
691.495	4409.28
691.684	4210.62
691.874	4327.36
692.063	4097.99
692.252	4192.19
692.442	4255.68
692.631	4235.2
692.82	4079.55
693.01	4198.34
693.199	3995.59
693.388	4044.74
693.578	4100.03
693.767	4108.23
693.956	4118.47
694.146	4104.13
694.335	4153.28
694.524	4028.35
694.713	4257.73
694.902	3942.34
695.092	4147.14
695.281	3966.92
695.47	3911.62
695.659	3844.04
695.848	4048.83
696.037	3913.67
696.226	3829.7
696.415	3944.39
696.604	4149.18
696.793	4079.55
696.982	4030.4
697.171	3973.06
697.36	3977.16
697.549	3882.95
697.738	3788.74
697.927	3866.56
698.116	3880.9
698.305	3889.09
698.494	3887.04
698.683	3870.66
698.872	3858.37
699.061	3807.17
699.25	3788.74
699.438	3909.57
699.627	3848.13
699.816	4052.93
700.005	3817.41
700.193	3868.61
700.382	3774.41
700.571	3889.09
700.76	3874.76
700.948	3870.66
701.137	3788.74
701.326	3753.93
701.514	3706.82
701.703	3891.14
701.892	3688.39
702.08	3829.7
702.269	3717.06
702.457	3588.04
702.646	3798.98
702.834	3633.1
703.023	3794.89
703.212	3758.02
703.4	3725.26
703.589	3645.38
703.777	3846.09
703.965	3686.34
704.154	3610.57
704.342	3669.96
704.531	3657.67
704.719	3778.5
704.907	3727.3
705.096	3676.1
705.284	3807.17
705.472	3655.62
705.661	3729.35
705.849	3715.02
706.037	3792.84
706.226	3710.92
706.414	3825.61
706.602	3706.82
706.79	3698.63
706.979	3774.41
707.167	3774.41
707.355	3667.91
707.543	3774.41
707.731	3809.22
707.919	3616.71
708.107	3622.86
708.296	3669.96
708.484	3637.19
708.672	3825.61
708.86	3616.71
709.048	3717.06
709.236	3715.02
709.424	3809.22
709.612	3712.97
709.8	3708.87
709.988	3737.54
710.176	3520.46
710.364	3712.97
710.551	3764.17
710.739	3719.11
710.927	3817.41
711.115	3758.02
711.303	3692.49
711.491	3569.61
711.679	3588.04
711.866	3731.4
712.054	3739.59
712.242	3676.1
712.43	3585.99
712.617	3612.62
712.805	3655.62
712.993	3573.71
713.181	3731.4
713.368	3770.31
713.556	3794.89
713.744	3592.14
713.931	3825.61
714.119	3733.45
714.306	3823.56
714.494	3631.05
714.682	3737.54
714.869	3717.06
715.057	3647.43
715.244	3686.34
715.432	3727.3
715.619	3702.73
715.807	3776.45
715.994	3692.49
716.182	3643.34
716.369	3788.74
716.556	3841.99
716.744	3712.97
716.931	3706.82
717.119	3729.35
717.306	3641.29
717.493	3717.06
717.681	3649.48
717.868	3690.44
718.055	3571.66
718.242	3659.72
718.43	3669.96
718.617	3712.97
718.804	3663.82
718.991	3604.42
719.179	3653.58
719.366	3710.92
719.553	3631.05
719.74	3565.51
719.927	3643.34
720.114	3661.77
720.301	3731.4
720.488	3780.55
720.676	3704.78
720.863	3897.28
721.05	3635.14
721.237	3667.91
721.424	3602.38
721.611	3669.96
721.798	3497.93
721.985	3684.3
722.172	3686.34
722.358	3559.37
722.545	3768.26
722.732	3598.28
722.919	3682.25
723.106	3643.34
723.293	3551.18
723.48	3608.52
723.667	3522.51
723.853	3633.1
724.04	3663.82
724.227	3520.46
724.414	3764.17
724.6	3575.75
724.787	3672.01
724.974	3678.15
725.161	3622.86
725.347	3559.37
725.534	3706.82
725.72	3620.81
725.907	3758.02
726.094	3692.49
726.28	3530.7
726.467	3540.94
726.653	3653.58
726.84	3719.11
727.027	3629
727.213	3428.3
727.4	3710.92
727.586	3618.76
727.773	3456.97
727.959	3569.61
728.145	3495.88
728.332	3493.83
728.518	3567.56
728.705	3590.09
728.891	3690.44
729.077	3422.16
729.264	3516.36
729.45	3551.18
729.636	3594.19
729.823	3530.7
730.009	3610.57
730.195	3438.54
730.382	3547.08
730.568	3444.68
730.754	3499.98
730.94	3336.14
731.126	3706.82
731.313	3565.51
731.499	3317.71
731.685	3506.12
731.871	3735.49
732.057	3526.6
732.243	3506.12
732.429	3508.17
732.615	3493.83
732.801	3530.7
732.987	3399.63
733.173	3553.23
733.359	3405.77
733.545	3530.7
733.731	3364.81
733.917	3526.6
734.103	3411.92
734.289	3422.16
734.475	3440.59
734.661	3596.23
734.847	3305.42
735.033	3485.64
735.219	3522.51
735.404	3389.39
735.59	3389.39
735.776	3286.99
735.962	3456.97
736.148	3438.54
736.333	3362.76
736.519	3360.72
736.705	3413.96
736.89	3332.05
737.076	3254.22
737.262	3284.94
737.447	3282.89
737.633	3399.63
737.819	3379.15
738.004	3178.45
738.19	3203.02
738.375	3338.19
738.561	3284.94
738.747	3151.82
738.932	3401.68
739.118	3221.45
739.303	3252.17
739.489	3176.4
739.674	3145.68
739.859	3321.81
740.045	3235.79
740.23	3076.05
740.416	3127.25
740.601	3203.02
740.786	3143.63
740.972	3125.2
741.157	3088.34
741.342	3141.58
741.528	3284.94
741.713	3157.97
741.898	3125.2
742.084	3153.87
742.269	3110.86
742.454	3160.02
742.639	3004.37
742.824	3049.43
743.01	2930.64
743.195	2965.46
743.38	2912.21
743.565	3037.14
743.75	2934.74
743.935	2846.68
744.12	2951.12
744.305	2861.01
744.49	2875.35
744.675	2906.07
744.86	2975.7
745.045	2760.66
745.23	2830.29
745.415	2908.12
745.6	2930.64
745.785	2904.02
745.97	2818.01
746.155	2797.53
746.34	2793.43
746.525	2793.43
746.71	2736.09
746.895	2656.22
747.079	2756.57
747.264	2766.81
747.449	2734.04
747.634	2664.41
747.819	2625.5
748.003	2514.91
748.188	2570.2
748.373	2488.28
748.557	2598.87
748.742	2553.82
748.927	2578.39
749.111	2471.9
749.296	2471.9
749.481	2465.75
749.665	2482.14
749.85	2430.94
750.034	2394.08
750.219	2379.74
750.404	2301.92
750.588	2453.47
750.773	2209.76
750.957	2379.74
751.141	2373.6
751.326	2297.82
751.51	2201.57
751.695	2150.37
751.879	2199.52
752.064	2260.96
752.248	2236.38
752.432	2187.23
752.617	2246.62
752.801	2203.61
752.985	2232.29
753.17	2142.18
753.354	2095.07
753.538	2127.84
753.722	2080.74
753.907	2037.73
754.091	2070.5
754.275	2084.83
754.459	1976.29
754.643	2043.87
754.828	2027.49
755.012	1964
755.196	2019.3
755.38	1818.6
755.564	1998.82
755.748	1988.58
755.932	1929.19
756.116	1927.14
756.3	2015.2
756.484	1888.23
756.668	1847.27
756.852	1834.98
757.036	1902.56
757.22	1806.31
757.404	1789.92
757.588	1757.16
757.772	1794.02
757.956	1730.53
758.14	1826.79
758.323	1718.25
758.507	1695.72
758.691	1687.53
758.875	1634.28
759.059	1761.25
759.242	1726.44
759.426	1621.99
759.61	1603.56
759.794	1714.15
759.977	1699.81
760.161	1832.93
760.345	1712.1
760.528	1587.18
760.712	1675.24
760.895	1591.27
761.079	1744.87
761.263	1572.84
761.446	1607.66
761.63	1652.71
761.813	1662.95
761.997	1568.74
762.18	1476.59
762.364	1615.85
762.547	1507.3
762.731	1538.02
762.914	1521.64
763.098	1542.12
763.281	1482.73
763.464	1449.96
763.648	1503.21
763.831	1501.16
764.015	1495.02
764.198	1382.38
764.381	1433.58
764.564	1486.83
764.748	1402.86
764.931	1370.09
765.114	1400.81
765.297	1343.47
765.481	1413.1
765.664	1437.67
765.847	1398.76
766.03	1538.02
766.213	1382.38
766.397	1372.14
766.58	1398.76
766.763	1400.81
766.946	1398.76
767.129	1335.28
767.312	1347.56
767.495	1277.93
767.678	1339.37
767.861	1341.42
768.044	1327.08
768.227	1282.03
768.41	1361.9
768.593	1402.86
768.776	1288.17
768.959	1329.13
769.142	1314.8
769.324	1294.32
769.507	1228.78
769.69	1284.08
769.873	1263.6
770.056	1236.97
770.239	1204.21
770.421	1226.73
770.604	1282.03
770.787	1288.17
770.97	1206.25
771.152	1189.87
771.335	1208.3
771.518	1048.56
771.7	1134.57
771.883	1245.16
772.066	1165.29
772.248	1150.96
772.431	1095.66
772.613	1120.24
772.796	1081.33
772.978	1218.54
773.161	1146.86
773.343	1144.81
773.526	1091.57
773.708	1107.95
773.891	1122.29
774.073	1052.66
774.256	993.26
774.438	1114.09
774.621	1095.66
774.803	966.64
774.985	1005.55
775.168	1007.6
775.35	972.79
775.532	1007.6
775.715	980.98
775.897	958.45
776.079	972.79
776.261	1005.55
776.444	983.02
776.626	1040.37
776.808	956.4
776.99	933.87
777.173	962.55
777.355	917.49
777.537	991.22
777.719	929.78
777.901	843.76
778.083	843.76
778.265	860.15
778.447	933.87
778.629	858.1
778.811	837.62
778.993	890.87
779.175	876.53
779.357	774.13
779.539	798.71
779.721	851.95
779.903	890.87
780.085	827.38
780.267	872.43
780.449	749.56
780.631	868.34
780.812	823.28
780.994	913.39
781.176	870.39
781.358	761.84
781.54	794.61
781.721	796.66
781.903	770.04
782.085	729.08
782.267	835.57
782.448	739.32
782.63	706.55
782.812	763.89
782.993	759.8
783.175	696.31
783.357	743.41
783.538	767.99
783.72	729.08
783.901	811
784.083	620.53
784.264	688.12
784.446	659.45
784.627	626.68
784.809	663.54
784.99	665.59
785.172	737.27
785.353	614.39
785.535	661.49
785.716	681.97
785.897	612.34
786.079	604.15
786.26	624.63
786.441	632.82
786.623	548.86
786.804	651.25
786.985	595.96
787.167	559.1
787.348	548.86
787.529	663.54
787.71	675.83
787.891	602.1
788.073	534.52
788.254	489.46
788.435	587.77
788.616	532.47
788.797	514.04
788.978	450.55
789.159	552.95
789.34	536.57
789.522	542.71
789.703	524.28
789.884	581.62
790.065	442.36
790.246	559.1
790.427	479.22
790.607	516.09
790.788	532.47
790.969	538.62
791.15	505.85
791.331	481.27
791.512	450.55
791.693	376.83
791.874	471.03
792.054	524.28
792.235	530.42
792.416	434.17
792.597	382.97
792.778	458.74
792.958	522.23
793.139	446.46
793.32	454.65
793.5	417.79
793.681	534.52
793.862	409.59
794.042	440.31
794.223	335.87
794.404	395.26
794.584	403.45
794.765	444.41
794.945	473.08
795.126	374.78
795.306	446.46
795.487	425.98
795.667	428.03
795.848	409.59
796.028	446.46
796.209	454.65
796.389	348.15
796.57	401.4
796.75	407.55
796.93	395.26
797.111	331.77
797.291	391.16
797.471	374.78
797.652	405.5
797.832	403.45
798.012	372.73
798.192	411.64
798.373	323.58
798.553	344.06
798.733	417.79
798.913	317.44
799.093	374.78
799.274	325.63
799.454	348.15
799.634	315.39
799.814	401.4
799.994	378.87
800.174	376.83
800.354	397.31
800.534	370.68
800.714	325.63
800.894	387.07
801.074	262.14
801.254	372.73
801.434	360.44
801.614	370.68
801.794	247.8
801.974	800.76
802.154	327.67
802.334	376.83
802.514	274.43
802.693	331.77
802.873	249.85
803.053	282.62
803.233	327.67
803.413	344.06
803.592	311.29
803.772	229.37
803.952	249.85
804.131	286.72
804.311	360.44
804.491	266.24
804.67	272.38
804.85	290.81
805.03	270.33
805.209	337.91
805.389	317.44
805.568	428.03
805.748	315.39
805.928	303.1
806.107	225.28
806.287	284.67
806.466	296.96
806.646	301.05
806.825	233.47
807.004	303.1
807.184	245.76
807.363	311.29
807.543	292.86
807.722	337.91
807.901	360.44
808.081	258.04
808.26	180.22
808.439	282.62
808.619	237.56
808.798	278.52
808.977	186.37
809.156	288.76
809.336	233.47
809.515	294.91
809.694	286.72
809.873	163.84
810.052	262.14
810.231	299
810.411	294.91
810.59	231.42
810.769	223.23
810.948	303.1
811.127	219.13
811.306	178.17
811.485	180.22
811.664	333.82
811.843	251.9
812.022	202.75
812.201	233.47
812.38	184.32
812.559	165.89
812.737	290.81
812.916	114.69
813.095	190.46
813.274	212.99
813.453	251.9
813.632	208.89
813.811	243.71
813.989	221.18
814.168	237.56
814.347	243.71
814.526	266.24
814.704	235.52
814.883	270.33
815.062	221.18
815.24	258.04
815.419	229.37
815.598	176.13
815.776	180.22
815.955	237.56
816.133	192.51
816.312	270.33
816.49	180.22
816.669	227.32
816.847	253.95
817.026	237.56
817.204	266.24
817.383	151.55
817.561	172.03
817.74	217.08
817.918	186.37
818.097	223.23
818.275	219.13
818.453	186.37
818.632	192.51
818.81	151.55
818.988	188.41
819.167	163.84
819.345	186.37
819.523	110.59
819.701	153.6
819.879	161.79
820.058	200.7
820.236	200.7
820.414	98.3
820.592	233.47
820.77	210.94
820.948	190.46
821.127	172.03
821.305	163.84
821.483	172.03
821.661	192.51
821.839	169.98
822.017	159.74
822.195	141.31
822.373	245.76
822.551	106.49
822.729	92.16
822.907	88.06
823.085	202.75
823.262	159.74
823.44	149.5
823.618	184.32
823.796	147.45
823.974	182.27
824.152	192.51
824.329	229.37
824.507	202.75
824.685	219.13
824.863	223.23
825.04	129.02
825.218	135.17
825.396	176.13
825.574	147.45
825.751	131.07
825.929	202.75
826.107	83.97
826.284	126.97
826.462	135.17
826.639	143.36
826.817	92.16
826.994	106.49
827.172	90.11
827.349	233.47
827.527	92.16
827.704	122.88
827.882	221.18
828.059	186.37
828.237	122.88
828.414	124.93
828.591	22.53
828.769	174.08
828.946	137.21
829.124	137.21
829.301	81.92
829.478	106.49
829.655	219.13
829.833	129.02
830.01	65.53
830.187	184.32
830.364	104.45
830.542	139.26
830.719	155.65
830.896	98.3
831.073	145.41
831.25	139.26
831.427	131.07
831.604	122.88
831.782	137.21
831.959	155.65
832.136	129.02
832.313	96.25
832.49	124.93
832.667	135.17
832.844	94.21
833.021	159.74
833.198	167.93
833.374	176.13
833.551	147.45
833.728	116.73
833.905	131.07
834.082	106.49
834.259	118.78
834.436	104.45
834.612	161.79
834.789	118.78
834.966	108.54
835.143	81.92
835.319	98.3
835.496	129.02
835.673	81.92
835.85	38.91
836.026	73.73
836.203	118.78
836.38	112.64
836.556	81.92
836.733	94.21
836.909	143.36
837.086	116.73
837.262	102.4
837.439	122.88
837.616	94.21
837.792	122.88
837.968	59.39
838.145	122.88
838.321	57.34
838.498	106.49
838.674	106.49
838.851	178.17
839.027	108.54
839.203	53.25
839.38	106.49
839.556	98.3
839.732	126.97
839.909	38.91
840.085	63.49
840.261	143.36
840.437	98.3
840.614	59.39
840.79	67.58
840.966	149.5
841.142	49.15
841.318	139.26
841.494	102.4
841.671	137.21
841.847	55.3
842.023	98.3
842.199	94.21
842.375	106.49
842.551	-77.82
842.727	73.73
842.903	151.55
843.079	-12.29
843.255	169.98
843.431	147.45
843.607	49.15
843.783	34.82
843.959	141.31
844.134	102.4
844.31	124.93
844.486	98.3
844.662	30.72
844.838	65.53
845.013	73.73
845.189	28.67
845.365	86.01
845.541	40.96
845.716	43.01
845.892	57.34
846.068	45.06
846.244	104.45
846.419	116.73
846.595	-4.1
846.77	49.15
846.946	53.25
847.122	61.44
847.297	36.86
847.473	90.11
847.648	36.86
847.824	92.16
847.999	8.19
848.175	86.01
848.35	90.11
848.526	77.82
848.701	81.92
848.876	71.68
849.052	53.25
849.227	63.49
849.403	77.82
849.578	53.25
849.753	55.3
849.929	49.15
850.104	6.14
850.279	79.87
850.454	36.86
850.63	18.43
850.805	155.65
850.98	63.49
851.155	102.4
851.33	75.77
851.505	49.15
851.681	34.82
851.856	61.44
852.031	88.06
852.206	86.01
852.381	57.34
852.556	172.03
852.731	94.21
852.906	36.86
853.081	172.03
853.256	98.3
853.431	20.48
853.606	-16.38
853.781	40.96
853.956	90.11
854.131	65.53
854.305	79.87
854.48	20.48
854.655	14.34
854.83	51.2
855.005	69.63
855.18	26.62
855.354	57.34
855.529	96.25
855.704	36.86
855.879	69.63
856.053	63.49
856.228	102.4
856.403	38.91
856.577	79.87
856.752	47.1
856.926	83.97
857.101	32.77
857.276	-18.43
857.45	65.53
857.625	55.3
857.799	63.49
857.974	53.25
858.148	49.15
858.323	26.62
858.497	55.3
858.672	-57.34
858.846	-6.14
859.02	45.06
859.195	16.38
859.369	24.58
859.543	47.1
859.718	-6.14
859.892	12.29
860.066	38.91
860.241	30.72
860.415	90.11
860.589	53.25
860.763	98.3
860.938	126.97
861.112	47.1
861.286	20.48
861.46	77.82
861.634	16.38
861.808	53.25
861.982	96.25
862.157	151.55
862.331	8.19
862.505	-2.05
862.679	43.01
862.853	98.3
863.027	24.58
863.201	20.48
863.375	63.49
863.549	110.59
863.722	102.4
863.896	71.68
864.07	30.72
864.244	16.38
864.418	92.16
864.592	4.1
864.766	45.06
864.939	8.19
865.113	-45.06
865.287	24.58
865.461	14.34
865.634	90.11
865.808	53.25
865.982	30.72
866.156	32.77
866.329	34.82
866.503	24.58
866.676	49.15
866.85	28.67
867.024	49.15
867.197	73.73
867.371	-0
867.544	-4.1
867.718	32.77
867.891	61.44
868.065	32.77
868.238	40.96
868.412	79.87
868.585	2.05
868.759	-47.1
868.932	8.19
869.105	61.44
869.279	28.67
869.452	67.58
869.625	-34.82
869.799	22.53
869.972	-32.77
870.145	100.35
870.319	20.48
870.492	24.58
870.665	-8.19
870.838	73.73
871.011	-28.67
871.185	86.01
871.358	-20.48
871.531	32.77
871.704	12.29
871.877	57.34
872.05	36.86
872.223	14.34
872.396	53.25
872.569	59.39
872.742	24.58
872.915	53.25
873.088	-0
873.261	-16.38
873.434	102.4
873.607	-47.1
873.78	71.68
873.953	12.29
874.126	-4.1
874.299	26.62
874.471	14.34
874.644	30.72
874.817	53.25
874.99	102.4
875.163	77.82
875.335	34.82
875.508	57.34
875.681	73.73
875.853	16.38
876.026	-6.14
876.199	53.25
876.371	67.58
876.544	16.38
876.717	-32.77
876.889	14.34
877.062	34.82
877.234	-16.38
877.407	12.29
877.579	49.15
877.752	38.91
877.924	71.68
878.097	6.14
878.269	12.29
878.442	-18.43
878.614	79.87
878.786	-0
878.959	-45.06
879.131	8.19
879.303	2.05
879.476	-14.34
879.648	59.39
879.82	49.15
879.993	-4.1
880.165	-0
880.337	16.38
880.509	-2.05
880.681	12.29
880.854	16.38
881.026	8.19
881.198	114.69
881.37	79.87
881.542	77.82
881.714	8.19
881.886	-26.62
882.058	45.06
882.23	47.1
882.402	73.73
882.574	28.67
882.746	40.96
882.918	38.91
883.09	69.63
883.262	122.88
883.434	108.54
883.606	83.97
883.778	-32.77
883.95	36.86
884.122	77.82
884.293	94.21
884.465	24.58
884.637	94.21
884.809	55.3
884.98	49.15
885.152	8.19
885.324	92.16
885.496	-2.05
885.667	30.72
885.839	53.25
886.011	106.49
886.182	10.24
886.354	55.3
886.525	-16.38
886.697	-32.77
886.869	57.34
887.04	12.29
887.212	53.25
887.383	12.29
887.555	-4.1
887.726	4.1
887.897	14.34
888.069	16.38
888.24	104.45
888.412	32.77
888.583	-22.53
888.754	51.2
888.926	-34.82
889.097	63.49
889.268	-51.2
889.44	45.06
889.611	-12.29
889.782	36.86
889.953	-0
890.125	-16.38
890.296	4.1
890.467	53.25
890.638	40.96
890.809	88.06
890.98	24.58
891.151	28.67
891.323	90.11
891.494	8.19
891.665	24.58
891.836	32.77
892.007	57.34
892.178	49.15
892.349	57.34
892.52	-10.24
892.691	-14.34
892.862	-20.48
893.032	14.34
893.203	83.97
893.374	22.53
893.545	55.3
893.716	-4.1
893.887	4.1
894.057	10.24
894.228	20.48
894.399	-2.05
894.57	40.96
894.74	-49.15
894.911	20.48
895.082	71.68
895.253	-0
895.423	22.53
895.594	65.53
895.764	18.43
895.935	75.77
896.106	-16.38
896.276	28.67
896.447	110.59
896.617	14.34
896.788	-0
896.958	77.82
897.129	-8.19
897.299	8.19
897.47	102.4
897.64	-10.24
897.81	16.38
897.981	-4.1
898.151	45.06
898.322	10.24
898.492	26.62
898.662	47.1
898.832	79.87
899.003	-32.77
899.173	61.44
899.343	-18.43
899.513	-30.72
