Data from USB4F104151__132__10-25-45-240.txt Node

Date: Wed Mar 12 10:25:45 EDT 2025
User: louis
Spectrometer: USB4F10415
Trigger mode: 4
Integration Time (sec): 3.000000E-2
Scans to average: 1
Electric dark correction enabled: true
Nonlinearity correction enabled: false
Boxcar width: 0
XAxis mode: Wavelengths
Number of Pixels in Spectrum: 3648
>>>>>Begin Spectral Data<<<<<
178.204	-26.28
178.424	-26.28
178.644	-26.28
178.864	-85.67
179.084	-85.67
179.304	-38.57
179.524	20.82
179.744	39.25
179.964	-9.9
180.184	10.58
180.404	4.44
180.624	41.3
180.844	29.01
181.064	-54.95
181.283	-34.47
181.503	-18.09
181.723	10.58
181.943	-26.28
182.163	55.64
182.383	18.77
182.602	67.92
182.822	55.64
183.042	57.68
183.262	-28.33
183.482	0.34
183.701	-20.14
183.921	18.77
184.141	12.63
184.361	59.73
184.58	18.77
184.8	69.97
185.02	6.49
185.239	16.73
185.459	-18.09
185.679	45.4
185.898	-28.33
186.118	24.92
186.338	-36.52
186.557	108.88
186.777	2.39
186.997	-28.33
187.216	69.97
187.436	100.69
187.655	22.87
187.875	67.92
188.095	53.59
188.314	67.92
188.534	37.2
188.753	20.82
188.973	59.73
189.192	-1.71
189.412	90.45
189.631	12.63
189.851	39.25
190.07	18.77
190.29	10.58
190.509	16.73
190.729	61.78
190.948	6.49
191.168	141.65
191.387	51.54
191.607	35.16
191.826	88.4
192.045	-26.28
192.265	96.6
192.484	-26.28
192.704	-13.99
192.923	72.02
193.142	127.32
193.362	47.44
193.581	78.16
193.8	-13.99
194.02	33.11
194.239	14.68
194.458	80.21
194.678	76.12
194.897	-7.85
195.116	0.34
195.335	59.73
195.555	29.01
195.774	-20.14
195.993	39.25
196.212	53.59
196.432	16.73
196.651	74.07
196.87	33.11
197.089	117.08
197.308	88.4
197.528	55.64
197.747	14.68
197.966	-9.9
198.185	112.98
198.404	-67.24
198.623	33.11
198.842	43.35
199.062	88.4
199.281	100.69
199.5	76.12
199.719	35.16
199.938	67.92
200.157	18.77
200.376	82.26
200.595	61.78
200.814	53.59
201.033	29.01
201.252	-20.14
201.471	10.58
201.69	35.16
201.909	41.3
202.128	-48.81
202.347	-20.14
202.566	0.34
202.785	88.4
203.004	16.73
203.223	112.98
203.442	31.06
203.661	-5.8
203.879	-3.75
204.098	74.07
204.317	-5.8
204.536	76.12
204.755	121.17
204.974	33.11
205.193	-11.95
205.411	82.26
205.63	94.55
205.849	22.87
206.068	-9.9
206.287	14.68
206.505	49.49
206.724	63.83
206.943	94.55
207.162	59.73
207.381	96.6
207.599	43.35
207.818	47.44
208.037	37.2
208.255	16.73
208.474	24.92
208.693	-28.33
208.911	35.16
209.13	106.84
209.349	51.54
209.567	33.11
209.786	35.16
210.005	55.64
210.223	-1.71
210.442	-50.86
210.661	96.6
210.879	45.4
211.098	45.4
211.316	61.78
211.535	-1.71
211.753	22.87
211.972	-13.99
212.191	14.68
212.409	-30.38
212.628	6.49
212.846	-36.52
213.065	4.44
213.283	76.12
213.502	88.4
213.72	22.87
213.938	14.68
214.157	-30.38
214.375	100.69
214.594	24.92
214.812	69.97
215.031	24.92
215.249	31.06
215.467	-34.47
215.686	78.16
215.904	65.88
216.122	110.93
216.341	72.02
216.559	2.39
216.778	35.16
216.996	29.01
217.214	31.06
217.432	51.54
217.651	76.12
217.869	8.53
218.087	18.77
218.306	-5.8
218.524	72.02
218.742	-3.75
218.96	67.92
219.179	-36.52
219.397	55.64
219.615	88.4
219.833	47.44
220.051	59.73
220.27	84.31
220.488	4.44
220.706	4.44
220.924	6.49
221.142	-13.99
221.36	65.88
221.578	35.16
221.796	96.6
222.015	67.92
222.233	-46.76
222.451	8.53
222.669	-38.57
222.887	22.87
223.105	-24.23
223.323	35.16
223.541	20.82
223.759	100.69
223.977	35.16
224.195	-20.14
224.413	63.83
224.631	45.4
224.849	53.59
225.067	92.5
225.285	35.16
225.503	53.59
225.721	-50.86
225.939	61.78
226.157	106.84
226.375	170.32
226.592	-16.04
226.81	82.26
227.028	67.92
227.246	55.64
227.464	-16.04
227.682	31.06
227.9	2.39
228.117	10.58
228.335	61.78
228.553	69.97
228.771	-38.57
228.989	6.49
229.206	-63.15
229.424	45.4
229.642	35.16
229.86	29.01
230.077	22.87
230.295	-7.85
230.513	108.88
230.731	26.96
230.948	127.32
231.166	125.27
231.384	55.64
231.601	43.35
231.819	125.27
232.037	90.45
232.254	26.96
232.472	-22.19
232.689	80.21
232.907	149.84
233.125	-5.8
233.342	45.4
233.56	59.73
233.777	69.97
233.995	22.87
234.213	110.93
234.43	24.92
234.648	53.59
234.865	47.44
235.083	61.78
235.3	-30.38
235.518	45.4
235.735	100.69
235.953	61.78
236.17	2.39
236.388	-3.75
236.605	63.83
236.822	33.11
237.04	86.36
237.257	80.21
237.475	119.12
237.692	72.02
237.909	39.25
238.127	49.49
238.344	2.39
238.562	14.68
238.779	-26.28
238.996	22.87
239.214	12.63
239.431	6.49
239.648	69.97
239.865	39.25
240.083	49.49
240.3	104.79
240.517	47.44
240.735	121.17
240.952	45.4
241.169	47.44
241.386	31.06
241.603	49.49
241.821	39.25
242.038	100.69
242.255	2.39
242.472	-32.43
242.689	86.36
242.907	117.08
243.124	18.77
243.341	31.06
243.558	18.77
243.775	-5.8
243.992	4.44
244.209	6.49
244.426	119.12
244.643	-1.71
244.86	59.73
245.078	31.06
245.295	14.68
245.512	76.12
245.729	4.44
245.946	49.49
246.163	-26.28
246.38	14.68
246.597	41.3
246.814	24.92
247.031	26.96
247.248	84.31
247.464	55.64
247.681	29.01
247.898	145.75
248.115	153.94
248.332	20.82
248.549	59.73
248.766	26.96
248.983	31.06
249.2	24.92
249.417	16.73
249.633	69.97
249.85	108.88
250.067	86.36
250.284	37.2
250.501	92.5
250.717	98.64
250.934	39.25
251.151	-3.75
251.368	43.35
251.585	-9.9
251.801	31.06
252.018	-13.99
252.235	-30.38
252.451	67.92
252.668	-3.75
252.885	2.39
253.102	39.25
253.318	96.6
253.535	61.78
253.752	35.16
253.968	-46.76
254.185	47.44
254.401	2.39
254.618	74.07
254.835	10.58
255.051	47.44
255.268	127.32
255.484	31.06
255.701	22.87
255.917	76.12
256.134	10.58
256.351	82.26
256.567	-69.29
256.784	-1.71
257	-28.33
257.217	59.73
257.433	45.4
257.65	108.88
257.866	-3.75
258.082	-1.71
258.299	92.5
258.515	0.34
258.732	61.78
258.948	10.58
259.165	80.21
259.381	24.92
259.597	14.68
259.814	6.49
260.03	-1.71
260.246	37.2
260.463	45.4
260.679	69.97
260.895	92.5
261.112	76.12
261.328	-38.57
261.544	2.39
261.761	57.68
261.977	0.34
262.193	59.73
262.409	92.5
262.626	22.87
262.842	-11.95
263.058	33.11
263.274	20.82
263.49	14.68
263.707	90.45
263.923	47.44
264.139	-7.85
264.355	33.11
264.571	49.49
264.787	88.4
265.004	47.44
265.22	29.01
265.436	78.16
265.652	45.4
265.868	61.78
266.084	67.92
266.3	43.35
266.516	86.36
266.732	63.83
266.948	35.16
267.164	45.4
267.38	35.16
267.596	86.36
267.812	84.31
268.028	67.92
268.244	18.77
268.46	63.83
268.676	12.63
268.892	104.79
269.108	-5.8
269.324	-3.75
269.54	18.77
269.756	35.16
269.972	2.39
270.188	18.77
270.403	102.74
270.619	63.83
270.835	84.31
271.051	65.88
271.267	67.92
271.483	-42.67
271.698	24.92
271.914	104.79
272.13	94.55
272.346	-7.85
272.562	86.36
272.777	31.06
272.993	61.78
273.209	0.34
273.425	78.16
273.64	24.92
273.856	-11.95
274.072	65.88
274.287	80.21
274.503	59.73
274.719	2.39
274.934	22.87
275.15	80.21
275.366	45.4
275.581	31.06
275.797	80.21
276.012	35.16
276.228	39.25
276.444	4.44
276.659	41.3
276.875	47.44
277.09	55.64
277.306	74.07
277.521	55.64
277.737	39.25
277.952	72.02
278.168	88.4
278.383	61.78
278.599	-3.75
278.814	35.16
279.03	65.88
279.245	61.78
279.461	-13.99
279.676	67.92
279.892	-42.67
280.107	-50.86
280.322	108.88
280.538	92.5
280.753	-46.76
280.969	4.44
281.184	35.16
281.399	65.88
281.615	65.88
281.83	98.64
282.045	61.78
282.26	47.44
282.476	131.41
282.691	47.44
282.906	47.44
283.122	29.01
283.337	6.49
283.552	69.97
283.767	10.58
283.983	78.16
284.198	55.64
284.413	45.4
284.628	-34.47
284.843	65.88
285.058	-20.14
285.274	57.68
285.489	-38.57
285.704	96.6
285.919	-18.09
286.134	29.01
286.349	47.44
286.564	67.92
286.779	39.25
286.995	80.21
287.21	-44.71
287.425	88.4
287.64	-9.9
287.855	-3.75
288.07	2.39
288.285	86.36
288.5	10.58
288.715	94.55
288.93	4.44
289.145	-22.19
289.36	61.78
289.575	45.4
289.79	72.02
290.004	-9.9
290.219	14.68
290.434	63.83
290.649	-7.85
290.864	59.73
291.079	37.2
291.294	88.4
291.509	20.82
291.724	-32.43
291.938	59.73
292.153	53.59
292.368	63.83
292.583	29.01
292.798	0.34
293.012	0.34
293.227	10.58
293.442	55.64
293.657	65.88
293.871	149.84
294.086	72.02
294.301	137.56
294.516	26.96
294.73	37.2
294.945	63.83
295.16	53.59
295.374	31.06
295.589	94.55
295.804	51.54
296.018	-5.8
296.233	82.26
296.447	59.73
296.662	-9.9
296.877	18.77
297.091	31.06
297.306	102.74
297.52	22.87
297.735	51.54
297.949	76.12
298.164	41.3
298.378	78.16
298.593	24.92
298.807	53.59
299.022	76.12
299.236	119.12
299.451	20.82
299.665	18.77
299.88	0.34
300.094	-28.33
300.309	4.44
300.523	72.02
300.737	59.73
300.952	12.63
301.166	37.2
301.381	14.68
301.595	29.01
301.809	-30.38
302.024	63.83
302.238	24.92
302.452	51.54
302.667	33.11
302.881	61.78
303.095	86.36
303.309	78.16
303.524	22.87
303.738	55.64
303.952	-11.95
304.166	100.69
304.381	20.82
304.595	55.64
304.809	-5.8
305.023	69.97
305.237	14.68
305.452	63.83
305.666	53.59
305.88	170.32
306.094	39.25
306.308	55.64
306.522	20.82
306.736	47.44
306.95	-9.9
307.164	53.59
307.379	-9.9
307.593	102.74
307.807	31.06
308.021	26.96
308.235	94.55
308.449	78.16
308.663	35.16
308.877	80.21
309.091	67.92
309.305	78.16
309.519	22.87
309.733	121.17
309.947	8.53
310.161	96.6
310.374	41.3
310.588	112.98
310.802	-9.9
311.016	61.78
311.23	39.25
311.444	20.82
311.658	20.82
311.872	76.12
312.085	235.86
312.299	100.69
312.513	43.35
312.727	115.03
312.941	22.87
313.154	82.26
313.368	12.63
313.582	-5.8
313.796	45.4
314.009	39.25
314.223	55.64
314.437	22.87
314.651	88.4
314.864	12.63
315.078	61.78
315.292	12.63
315.505	4.44
315.719	45.4
315.933	-34.47
316.146	72.02
316.36	102.74
316.573	108.88
316.787	22.87
317.001	125.27
317.214	12.63
317.428	57.68
317.641	4.44
317.855	31.06
318.068	121.17
318.282	72.02
318.495	143.7
318.709	47.44
318.922	33.11
319.136	201.04
319.349	26.96
319.563	63.83
319.776	10.58
319.99	72.02
320.203	37.2
320.417	14.68
320.63	39.25
320.843	67.92
321.057	141.65
321.27	-28.33
321.483	-1.71
321.697	110.93
321.91	-1.71
322.124	33.11
322.337	-1.71
322.55	59.73
322.763	133.46
322.977	102.74
323.19	37.2
323.403	78.16
323.617	16.73
323.83	67.92
324.043	119.12
324.256	51.54
324.469	69.97
324.683	-3.75
324.896	31.06
325.109	2.39
325.322	-50.86
325.535	121.17
325.748	31.06
325.962	31.06
326.175	-5.8
326.388	102.74
326.601	112.98
326.814	26.96
327.027	14.68
327.24	112.98
327.453	24.92
327.666	59.73
327.879	65.88
328.092	67.92
328.305	67.92
328.518	31.06
328.731	2.39
328.944	53.59
329.157	80.21
329.37	82.26
329.583	82.26
329.796	90.45
330.009	-20.14
330.222	31.06
330.435	74.07
330.648	4.44
330.861	14.68
331.073	55.64
331.286	127.32
331.499	76.12
331.712	22.87
331.925	59.73
332.138	26.96
332.35	117.08
332.563	47.44
332.776	26.96
332.989	45.4
333.202	-18.09
333.414	55.64
333.627	53.59
333.84	96.6
334.053	29.01
334.265	18.77
334.478	78.16
334.691	43.35
334.903	69.97
335.116	35.16
335.329	-26.28
335.541	45.4
335.754	78.16
335.966	65.88
336.179	72.02
336.392	-22.19
336.604	94.55
336.817	100.69
337.029	69.97
337.242	74.07
337.454	59.73
337.667	-11.95
337.88	112.98
338.092	35.16
338.305	82.26
338.517	22.87
338.729	61.78
338.942	96.6
339.154	24.92
339.367	-5.8
339.579	61.78
339.792	-20.14
340.004	53.59
340.217	26.96
340.429	47.44
340.641	31.06
340.854	31.06
341.066	69.97
341.278	76.12
341.491	125.27
341.703	20.82
341.915	4.44
342.128	55.64
342.34	80.21
342.552	31.06
342.764	117.08
342.977	67.92
343.189	47.44
343.401	31.06
343.613	53.59
343.826	76.12
344.038	-3.75
344.25	100.69
344.462	-13.99
344.674	53.59
344.886	10.58
345.099	55.64
345.311	110.93
345.523	31.06
345.735	2.39
345.947	22.87
346.159	61.78
346.371	2.39
346.583	41.3
346.795	133.46
347.007	74.07
347.219	63.83
347.431	22.87
347.643	115.03
347.855	88.4
348.067	98.64
348.279	37.2
348.491	59.73
348.703	14.68
348.915	104.79
349.127	63.83
349.339	82.26
349.551	65.88
349.763	92.5
349.975	84.31
350.187	78.16
350.399	14.68
350.61	78.16
350.822	49.49
351.034	67.92
351.246	20.82
351.458	59.73
351.669	-1.71
351.881	55.64
352.093	110.93
352.305	82.26
352.517	37.2
352.728	55.64
352.94	82.26
353.152	26.96
353.363	47.44
353.575	92.5
353.787	104.79
353.999	41.3
354.21	110.93
354.422	55.64
354.633	76.12
354.845	78.16
355.057	61.78
355.268	39.25
355.48	106.84
355.692	49.49
355.903	29.01
356.115	-5.8
356.326	8.53
356.538	88.4
356.749	22.87
356.961	119.12
357.172	37.2
357.384	63.83
357.595	129.36
357.807	16.73
358.018	35.16
358.23	61.78
358.441	78.16
358.653	63.83
358.864	49.49
359.075	16.73
359.287	37.2
359.498	0.34
359.709	59.73
359.921	139.6
360.132	45.4
360.344	-11.95
360.555	12.63
360.766	2.39
360.977	57.68
361.189	131.41
361.4	80.21
361.611	96.6
361.823	168.27
362.034	170.32
362.245	74.07
362.456	108.88
362.667	31.06
362.879	94.55
363.09	96.6
363.301	67.92
363.512	12.63
363.723	18.77
363.935	51.54
364.146	69.97
364.357	55.64
364.568	18.77
364.779	-1.71
364.99	84.31
365.201	-9.9
365.412	125.27
365.623	55.64
365.834	104.79
366.045	115.03
366.256	53.59
366.467	63.83
366.678	123.22
366.889	80.21
367.1	18.77
367.311	24.92
367.522	55.64
367.733	14.68
367.944	125.27
368.155	59.73
368.366	29.01
368.577	43.35
368.788	96.6
368.999	26.96
369.209	69.97
369.42	112.98
369.631	166.23
369.842	20.82
370.053	-11.95
370.264	100.69
370.474	37.2
370.685	133.46
370.896	41.3
371.107	94.55
371.317	123.22
371.528	69.97
371.739	59.73
371.95	100.69
372.16	108.88
372.371	47.44
372.582	39.25
372.792	31.06
373.003	55.64
373.214	92.5
373.424	55.64
373.635	55.64
373.846	112.98
374.056	35.16
374.267	12.63
374.477	-26.28
374.688	63.83
374.898	2.39
375.109	31.06
375.319	51.54
375.53	65.88
375.74	63.83
375.951	-13.99
376.161	55.64
376.372	74.07
376.582	47.44
376.793	139.6
377.003	6.49
377.214	76.12
377.424	80.21
377.635	49.49
377.845	-3.75
378.055	78.16
378.266	47.44
378.476	94.55
378.686	20.82
378.897	47.44
379.107	92.5
379.317	123.22
379.528	47.44
379.738	84.31
379.948	72.02
380.158	18.77
380.369	59.73
380.579	39.25
380.789	31.06
380.999	-22.19
381.21	151.89
381.42	72.02
381.63	108.88
381.84	119.12
382.05	59.73
382.261	110.93
382.471	55.64
382.681	43.35
382.891	141.65
383.101	94.55
383.311	63.83
383.521	82.26
383.731	112.98
383.941	94.55
384.151	35.16
384.361	47.44
384.571	86.36
384.781	51.54
384.991	76.12
385.201	65.88
385.411	102.74
385.621	125.27
385.831	115.03
386.041	2.39
386.251	47.44
386.461	61.78
386.671	26.96
386.881	110.93
387.091	24.92
387.301	96.6
387.511	43.35
387.72	53.59
387.93	90.45
388.14	59.73
388.35	82.26
388.56	55.64
388.769	51.54
388.979	45.4
389.189	39.25
389.399	39.25
389.609	65.88
389.818	49.49
390.028	39.25
390.238	55.64
390.447	43.35
390.657	119.12
390.867	65.88
391.076	35.16
391.286	29.01
391.496	76.12
391.705	84.31
391.915	143.7
392.125	24.92
392.334	35.16
392.544	110.93
392.753	112.98
392.963	76.12
393.172	80.21
393.382	55.64
393.591	82.26
393.801	96.6
394.01	115.03
394.22	31.06
394.429	117.08
394.639	74.07
394.848	86.36
395.058	59.73
395.267	94.55
395.477	96.6
395.686	102.74
395.895	137.56
396.105	176.47
396.314	47.44
396.524	143.7
396.733	80.21
396.942	86.36
397.152	164.18
397.361	39.25
397.57	78.16
397.78	137.56
397.989	164.18
398.198	215.38
398.407	88.4
398.617	129.36
398.826	55.64
399.035	186.71
399.244	158.03
399.453	72.02
399.663	137.56
399.872	137.56
400.081	14.68
400.29	176.47
400.499	104.79
400.708	133.46
400.917	125.27
401.127	217.43
401.336	137.56
401.545	149.84
401.754	178.51
401.963	112.98
402.172	125.27
402.381	162.13
402.59	112.98
402.799	90.45
403.008	176.47
403.217	67.92
403.426	108.88
403.635	84.31
403.844	137.56
404.053	108.88
404.262	143.7
404.471	182.61
404.68	135.51
404.888	112.98
405.097	131.41
405.306	98.64
405.515	211.28
405.724	153.94
405.933	213.33
406.142	143.7
406.35	233.81
406.559	180.56
406.768	145.75
406.977	201.04
407.185	252.24
407.394	176.47
407.603	246.1
407.812	188.75
408.02	338.26
408.229	325.97
408.438	235.86
408.646	196.95
408.855	262.48
409.064	256.34
409.272	260.43
409.481	381.26
409.69	252.24
409.898	307.54
410.107	272.72
410.315	291.15
410.524	287.06
410.733	299.34
410.941	309.58
411.15	317.78
411.358	436.56
411.567	403.79
411.775	411.98
411.984	473.42
412.192	444.75
412.401	366.93
412.609	485.71
412.818	448.85
413.026	502.09
413.234	534.86
413.443	516.43
413.651	555.34
413.86	600.4
414.068	649.55
414.276	610.64
414.485	594.25
414.693	643.4
414.901	753.99
415.11	760.14
415.318	702.79
415.526	815.43
415.734	760.14
415.943	786.76
416.151	887.11
416.359	866.63
416.567	948.55
416.776	1024.33
416.984	915.78
417.192	993.61
417.4	891.21
417.608	919.88
417.817	973.13
418.025	1079.62
418.233	1237.31
418.441	1141.06
418.649	1108.29
418.857	1347.9
419.065	1175.88
419.273	1358.14
419.481	1413.44
419.689	1462.59
419.897	1472.83
420.105	1444.16
420.313	1546.56
420.521	1564.99
420.729	1685.82
420.937	1628.48
421.145	1782.07
421.353	1843.51
421.561	1907
421.769	1929.53
421.977	1986.87
422.185	1999.16
422.393	2216.24
422.601	2335.03
422.809	2298.16
423.017	2357.55
423.224	2283.83
423.432	2382.13
423.64	2550.06
423.848	2730.28
424.056	2558.25
424.263	2799.91
424.471	3043.62
424.679	2945.32
424.887	3060.01
425.094	3139.88
425.302	3193.12
425.51	3316
425.718	3365.15
425.925	3475.74
426.133	3512.61
426.341	3692.83
426.548	3875.1
426.756	3934.49
426.964	4051.22
427.171	4274.45
427.379	4264.21
427.586	4223.25
427.794	4387.09
428.001	4604.18
428.209	4978.95
428.417	4927.75
428.624	5153.03
428.832	5169.41
429.039	5206.28
429.247	5112.07
429.454	5617.92
429.662	6097.14
429.869	5372.16
430.076	6058.23
430.284	5724.41
430.491	5990.65
430.699	6392.05
430.906	6473.97
431.114	6412.53
431.321	6725.87
431.528	6895.85
431.736	7291.11
431.943	7641.31
432.15	7452.9
432.358	7565.54
432.565	7936.22
432.772	7743.71
432.979	8331.48
433.187	8349.91
433.394	8409.3
433.601	9007.31
433.808	9134.28
434.016	8898.77
434.223	9246.92
434.43	10141.88
434.637	9785.54
434.844	10229.95
435.052	10549.43
435.259	10356.92
435.466	10664.11
435.673	10426.55
435.88	11292.84
436.087	11534.5
436.294	11671.72
436.501	11403.43
436.708	11487.4
436.915	12050.59
437.122	12687.51
437.329	12568.73
437.537	12925.07
437.743	13457.54
437.95	12935.31
438.157	13787.27
438.364	14301.31
438.571	14180.48
438.778	14149.76
438.985	15505.51
439.192	14944.37
439.399	15521.9
439.606	15280.24
439.813	15947.87
440.02	16863.32
440.227	16521.31
440.433	16592.98
440.64	17244.24
440.847	17016.91
441.054	17303.63
441.261	18389.05
441.467	18432.06
441.674	18401.34
441.881	19042.35
442.088	19097.65
442.294	19210.29
442.501	19230.77
442.708	19894.31
442.914	20760.6
443.121	21604.36
443.328	20934.68
443.534	22333.44
443.741	21876.74
443.948	21434.38
444.154	23058.42
444.361	22874.1
444.568	23138.29
444.774	23261.17
444.981	23150.58
445.187	23959.53
445.394	24965.08
445.6	24754.14
445.807	26763.2
446.013	25548.75
446.22	26386.37
446.426	27508.66
446.633	27479.99
446.839	28176.3
447.046	27150.26
447.252	28721.06
447.459	28682.14
447.665	28387.24
447.871	30023.56
448.078	30812.03
448.284	29781.9
448.491	30293.9
448.697	31367.03
448.903	31928.17
449.11	31991.66
449.316	31694.71
449.522	31922.03
449.728	32761.7
449.935	33187.67
450.141	32913.25
450.347	33757.01
450.553	32694.11
450.76	32933.73
450.966	33906.51
451.172	33617.75
451.378	34490.18
451.584	33744.72
451.791	34457.42
451.997	34328.39
452.203	34645.83
452.409	35131.2
452.615	34942.78
452.821	33701.72
453.027	33296.22
453.233	34688.84
453.44	33582.93
453.646	33746.77
453.852	34121.55
454.058	34455.37
454.264	33351.51
454.47	34338.63
454.676	33447.77
454.882	34234.19
455.088	31209.34
455.294	31340.41
455.5	32022.38
455.705	32329.58
455.911	31047.55
456.117	30414.73
456.323	30154.63
456.529	28352.42
456.735	29603.73
456.941	28811.17
457.147	28409.76
457.352	27486.13
457.558	27295.67
457.764	27271.09
457.97	26740.67
458.176	26316.74
458.381	26177.48
458.587	24727.52
458.793	25044.95
458.999	23349.23
459.204	25276.37
459.41	24612.83
459.616	22880.25
459.821	22849.53
460.027	22779.9
460.233	22298.63
460.438	21114.9
460.644	21534.73
460.85	20617.24
461.055	20277.28
461.261	20201.51
461.466	18571.32
461.672	17920.07
461.878	19492.91
462.083	17946.69
462.289	17633.35
462.494	17598.54
462.7	16595.03
462.905	16224.35
463.111	17080.4
463.316	17082.45
463.522	16857.17
463.727	16840.79
463.932	16867.41
464.138	16595.03
464.343	16455.77
464.549	15911.01
464.754	16848.98
464.959	16691.29
465.165	16504.92
465.37	15908.96
465.575	15155.31
465.781	16052.32
465.986	16021.6
466.191	15538.28
466.397	15118.45
466.602	14108.8
466.807	15165.55
467.012	14948.47
467.218	14999.66
467.423	14747.76
467.628	14864.5
467.833	15186.03
468.038	14753.91
468.244	14456.95
468.449	14841.97
468.654	14454.9
468.859	14307.45
469.064	14323.83
469.269	13953.15
469.474	13918.34
469.679	14153.85
469.885	13611.14
470.09	13936.77
470.295	13760.64
470.5	13375.63
470.705	13555.85
470.91	13250.7
471.115	12841.11
471.32	13226.12
471.525	13050
471.73	12773.52
471.935	12503.19
472.139	12386.46
472.344	12529.81
472.549	12478.61
472.754	12259.48
472.959	11972.77
473.164	11761.83
473.369	11673.76
473.574	12093.6
473.778	12013.73
473.983	11810.98
474.188	11659.43
474.393	11053.23
474.598	11243.69
474.802	11114.67
475.007	11225.26
475.212	11053.23
475.417	10774.7
475.621	10696.88
475.826	10672.31
476.031	10504.37
476.235	10479.8
476.44	10690.74
476.645	10303.67
476.849	10293.43
477.054	10172.6
477.259	10174.65
477.463	9920.7
477.668	9715.91
477.872	9969.85
478.077	9828.54
478.282	9533.64
478.486	9423.05
478.691	9357.51
478.895	9287.88
479.1	9511.11
479.304	9421
479.509	9015.5
479.713	9058.51
479.918	9025.74
480.122	8833.23
480.326	9009.36
480.531	9091.27
480.735	8827.09
480.94	8767.7
481.144	9269.45
481.348	8812.75
481.553	8796.37
481.757	8349.91
481.961	8831.18
482.166	8734.93
482.37	8726.74
482.574	8573.14
482.778	8614.1
482.983	8958.16
483.187	8579.28
483.391	8798.42
483.595	8653.01
483.8	8661.2
484.004	8628.43
484.208	8808.65
484.412	8710.35
484.616	8730.83
484.821	8665.3
485.025	8542.42
485.229	8569.04
485.433	8505.56
485.637	8607.95
485.841	8622.29
486.045	8517.84
486.249	8538.32
486.453	8579.28
486.657	8685.78
486.861	8708.3
487.065	8378.58
487.269	8777.94
487.473	8575.19
487.677	8837.33
487.881	8655.06
488.085	8698.06
488.289	8544.47
488.493	8751.31
488.697	8777.94
488.901	8763.6
489.105	8786.13
489.309	8669.39
489.512	8714.45
489.716	8540.37
489.92	8751.31
490.124	8833.23
490.328	9009.36
490.531	8833.23
490.735	8896.72
490.939	8997.07
491.143	8845.52
491.346	8745.17
491.55	9085.13
491.754	9101.51
491.958	9009.36
492.161	9021.64
492.365	9009.36
492.569	9017.55
492.772	9140.43
492.976	9154.76
493.18	9177.29
493.383	9390.28
493.587	9447.62
493.79	9480.39
493.994	9324.74
494.197	9511.11
494.401	9509.06
494.605	9865.41
494.808	9750.72
495.012	9830.59
495.215	9853.12
495.419	10039.48
495.622	9951.42
495.825	10160.31
496.029	10203.32
496.232	10406.07
496.436	10299.58
496.639	10590.39
496.843	10694.83
497.046	10610.87
497.249	10707.12
497.453	10719.41
497.656	10770.61
497.859	10905.77
498.063	11163.82
498.266	11354.28
498.469	11262.12
498.673	11167.91
498.876	11649.19
499.079	11499.69
499.282	11706.53
499.485	12163.23
499.689	11948.19
499.892	12001.44
500.095	12255.39
500.298	12695.7
500.501	12558.49
500.705	12794
500.908	12873.87
501.111	13045.9
501.314	12953.74
501.517	13152.4
501.72	13383.82
501.923	13449.35
502.126	13627.53
502.329	13883.52
502.532	14012.54
502.735	14162.05
502.938	14495.86
503.141	14592.12
503.344	14620.79
503.547	14825.59
503.75	14727.28
503.953	15126.64
504.156	15329.39
504.359	15335.53
504.562	15140.97
504.765	15722.6
504.968	15902.82
505.17	16105.57
505.373	16029.79
505.576	16420.95
505.779	16693.33
505.982	16578.65
506.185	17002.58
506.387	17035.35
506.59	17440.84
506.793	17567.82
506.996	17418.32
507.198	18096.19
507.401	17946.69
507.604	18290.75
507.807	18427.96
508.009	18655.29
508.212	18544.7
508.415	19265.58
508.617	19042.35
508.82	18929.72
509.022	19056.69
509.225	19818.53
509.428	19978.28
509.63	20113.44
509.833	20326.43
510.035	20600.86
510.238	20351.01
510.44	20908.05
510.643	21340.18
510.845	21434.38
511.048	21262.35
511.25	21612.56
511.453	21741.58
511.655	22667.26
511.858	22411.26
512.06	22206.47
512.262	22738.94
512.465	22904.82
512.667	23087.09
512.87	23154.68
513.072	23562.22
513.274	23855.08
513.477	23746.54
513.679	24225.76
513.881	24643.55
514.084	24367.07
514.286	24836.06
514.488	24764.38
514.69	25649.1
514.893	25675.73
515.095	25905.1
515.297	26238.92
515.499	26159.05
515.701	26468.29
515.904	26826.68
516.106	26763.2
516.308	27631.54
516.51	27869.1
516.712	27586.48
516.914	28028.84
517.116	28223.4
517.318	28737.44
517.52	28876.7
517.722	28743.58
517.925	29319.06
518.127	29953.93
518.329	29507.48
518.531	29650.83
518.733	30304.13
518.935	30713.73
519.136	30738.3
519.338	31149.95
519.54	30975.87
519.742	31504.24
519.944	31313.78
520.146	32065.39
520.348	32071.53
520.55	32567.14
520.752	32511.85
520.954	33220.44
521.155	32872.29
521.357	33458.01
521.559	33431.38
521.761	34084.69
521.963	33832.79
522.164	34174.8
522.366	34545.48
522.568	35020.61
522.77	35163.96
522.971	35577.65
523.173	35094.33
523.375	35637.05
523.576	35835.7
523.778	35911.47
523.98	36192.05
524.181	36486.95
524.383	36427.56
524.584	37111.58
524.786	37170.97
524.988	36890.4
525.189	37437.21
525.391	37703.45
525.592	38051.6
525.794	38104.85
525.995	37850.9
526.197	38074.13
526.398	38428.43
526.6	38766.34
526.801	38747.91
527.003	38854.4
527.204	39106.3
527.406	39503.61
527.607	39335.68
527.808	39976.69
528.01	39311.1
528.211	39515.9
528.412	40531.69
528.614	40275.69
528.815	39939.83
529.016	40613.61
529.218	39925.49
529.419	40414.96
529.62	40347.37
529.822	40220.4
530.023	40773.35
530.224	40318.7
530.425	40972
530.626	40322.8
530.828	40521.45
531.029	41430.75
531.23	40732.39
531.431	40959.72
531.632	41625.31
531.833	41422.56
532.035	40951.52
532.236	41449.18
532.437	41762.52
532.638	41238.24
532.839	41658.07
533.04	41271.01
533.241	41174.75
533.442	42477.26
533.643	41731.8
533.844	41774.81
534.045	41662.17
534.246	41457.37
534.447	42028.76
534.648	41858.77
534.849	41883.35
535.05	41696.99
535.251	41987.8
535.451	41551.58
535.652	41899.73
535.853	41623.26
536.054	42143.44
536.255	42059.48
536.456	41535.2
536.657	42413.77
536.857	41557.72
537.058	41414.37
537.259	41905.88
537.46	42000.08
537.66	41783
537.861	42241.74
538.062	42057.43
538.263	41860.82
538.463	41742.04
538.664	42190.55
538.865	42368.72
539.065	42450.64
539.266	41684.7
539.466	42243.79
539.667	41699.03
539.868	42419.92
540.068	42004.18
540.269	42135.25
540.469	42274.51
540.67	41559.77
540.87	41889.49
541.071	41549.53
541.271	42133.2
541.472	41651.93
541.672	41756.38
541.873	41582.3
542.073	41516.76
542.274	42016.47
542.474	41754.33
542.675	41264.86
542.875	41879.25
543.075	41545.44
543.276	41363.17
543.476	41926.36
543.676	41690.84
543.877	42122.96
544.077	41680.6
544.277	41512.67
544.478	41459.42
544.678	41758.42
544.878	41901.78
545.078	41604.83
545.279	41666.27
545.479	41520.86
545.679	41787.1
545.879	41516.76
546.079	41891.54
546.28	41762.52
546.48	41221.86
546.68	41770.71
546.88	41903.83
547.08	41393.89
547.28	41348.83
547.48	41432.8
547.68	41541.34
547.88	41660.12
548.081	42206.93
548.281	41715.42
548.481	41381.6
548.681	41662.17
548.881	41881.3
549.081	41711.32
549.28	41184.99
549.48	41471.71
549.68	41182.94
549.88	41899.73
550.08	41189.09
550.28	41375.45
550.48	41184.99
550.68	41414.37
550.88	40892.13
551.08	41533.15
551.279	41328.35
551.479	40955.62
551.679	41877.21
551.879	41123.55
552.079	41086.69
552.278	41035.49
552.478	41123.55
552.678	40992.48
552.878	41025.25
553.077	41066.21
553.277	40783.59
553.477	41754.33
553.676	40779.5
553.876	40906.47
554.076	40728.3
554.275	40994.53
554.475	40343.28
554.674	40701.67
554.874	41074.4
555.074	40705.77
555.273	40865.51
555.473	41324.25
555.672	40701.67
555.872	40476.4
556.071	40566.51
556.271	40773.35
556.47	40146.67
556.67	40541.93
556.869	40175.34
557.068	40627.95
557.268	40267.5
557.467	40449.77
557.667	40161.01
557.866	40419.05
558.065	40187.63
558.265	39853.81
558.464	40072.95
558.663	40259.31
558.863	39339.77
559.062	40460.01
559.261	39565.05
559.461	40140.53
559.66	39739.13
559.859	39775.99
560.058	39409.4
560.258	39814.9
560.457	39292.67
560.656	39329.53
560.855	39337.73
561.054	39493.37
561.253	39194.37
561.453	39401.21
561.652	39558.91
561.851	39120.64
562.05	38665.99
562.249	38801.16
562.448	39044.87
562.647	39323.39
562.846	38690.57
563.045	38571.78
563.244	38356.75
563.443	38878.98
563.642	38057.74
563.841	38428.43
564.04	38088.46
564.239	38442.76
564.438	38334.22
564.637	38379.28
564.836	37969.68
565.035	37621.53
565.234	37842.71
565.432	37734.17
565.631	37166.88
565.83	38174.48
566.029	37173.02
566.228	37222.17
566.427	37273.37
566.625	37314.33
566.824	36962.08
567.023	37244.7
567.222	36507.43
567.42	37060.38
567.619	36716.33
567.818	36802.34
568.016	36052.78
568.215	36818.72
568.414	36523.82
568.612	36603.69
568.811	36241.2
569.01	36278.06
569.208	35465.02
569.407	36353.83
569.605	36101.93
569.804	36368.17
570.002	35397.43
570.201	35874.61
570.4	35630.9
570.598	35792.69
570.797	35243.84
570.995	35665.72
571.193	34649.92
571.392	35299.13
571.59	34973.5
571.789	34981.7
571.987	34967.36
572.186	34705.22
572.384	34748.23
572.582	34557.77
572.781	34553.67
572.979	34160.46
573.177	34733.89
573.376	34479.94
573.574	33943.38
573.772	34406.22
573.971	33767.25
574.169	33789.78
574.367	33531.73
574.565	33935.18
574.763	33175.39
574.962	34070.35
575.16	33204.06
575.358	33773.39
575.556	33101.66
575.754	33482.58
575.952	33255.26
576.151	33439.58
576.349	32759.65
576.547	32720.74
576.745	32927.58
576.943	32919.39
577.141	32622.44
577.339	32542.56
577.537	32266.09
577.735	32399.21
577.933	31995.76
578.131	32458.6
578.329	32307.05
578.527	31829.87
578.725	31975.28
578.923	32161.64
579.121	32126.83
579.319	31588.21
579.516	31670.13
579.714	31815.54
579.912	31444.85
580.11	31459.19
580.308	31272.82
580.506	31156.09
580.704	31129.47
580.901	31096.7
581.099	31133.56
581.297	31059.84
581.495	30746.5
581.692	30992.25
581.89	30390.15
582.088	31111.03
582.285	30396.29
582.483	30633.86
582.681	30531.46
582.878	30046.09
583.076	29835.15
583.274	30287.75
583.471	29656.98
583.669	30205.83
583.866	29665.17
584.064	30216.07
584.262	29595.54
584.459	29493.14
584.657	29632.4
584.854	29710.22
585.052	29108.12
585.249	29495.19
585.447	29323.16
585.644	29104.03
585.841	29382.55
586.039	29255.57
586.236	28714.91
586.434	28766.11
586.631	28706.72
586.828	28839.84
587.026	28778.4
587.223	28473.25
587.42	28544.93
587.618	28618.66
587.815	28153.77
588.012	27940.78
588.21	27973.55
588.407	28116.9
588.604	27479.99
588.801	27879.34
588.999	27963.31
589.196	27920.3
589.393	27551.66
589.59	27484.08
589.787	27223.99
589.984	27187.13
590.182	26914.75
590.379	27348.92
590.576	27066.3
590.773	27254.71
590.97	26881.98
591.167	26884.03
591.364	26724.29
591.561	26965.95
591.758	26476.48
591.955	26075.08
592.152	26621.89
592.349	26296.26
592.546	26605.5
592.743	26138.57
592.94	25898.95
593.137	26136.52
593.334	26091.46
593.531	25569.23
593.727	26124.23
593.924	25780.17
594.121	25561.04
594.318	25808.84
594.515	25464.78
594.712	25624.53
594.908	25518.03
595.105	25362.39
595.302	25274.32
595.499	25188.31
595.696	25077.72
595.892	24938.46
596.089	24989.66
596.286	24795.1
596.482	24766.43
596.679	25026.52
596.876	24817.63
597.072	24651.74
597.269	24680.41
597.466	24631.26
597.662	24240.1
597.859	24479.71
598.055	24258.53
598.252	23969.77
598.448	24139.75
598.645	24035.3
598.841	23629.8
599.038	23793.64
599.234	24160.23
599.431	23836.65
599.627	23732.2
599.824	23500.78
600.02	23531.5
600.217	23457.78
600.413	23732.2
600.609	23255.03
600.806	23126
601.002	23504.88
601.198	22716.41
601.395	22992.89
601.591	23013.37
601.787	23128.05
601.984	22888.44
602.18	23281.65
602.376	22761.47
602.572	22597.63
602.769	22566.91
602.965	22155.27
603.161	22536.19
603.357	22292.48
603.553	22343.68
603.75	22327.3
603.946	22114.31
604.142	22290.43
604.338	21915.65
604.534	22222.85
604.73	21987.33
604.926	21854.22
605.122	21899.27
605.318	21626.89
605.514	21585.93
605.71	21493.77
605.906	21657.61
606.102	21526.54
606.298	21497.87
606.494	21315.6
606.69	21512.21
606.886	21422.09
607.082	20713.5
607.278	21418
607.474	20926.49
607.67	21104.66
607.866	20731.93
608.062	21219.35
608.257	20623.39
608.453	20846.62
608.649	21006.36
608.845	20582.43
609.041	20516.89
609.236	20791.32
609.432	20834.33
609.628	20949.01
609.824	20371.49
610.019	20369.44
610.215	20342.81
610.411	20367.39
610.606	20256.8
610.802	20269.09
610.998	20002.85
611.193	20400.16
611.389	20166.69
611.584	20301.86
611.78	19877.93
611.976	19767.34
612.171	19968.04
612.367	20062.24
612.562	20267.04
612.758	19781.67
612.953	19798.06
613.149	19544.11
613.344	19357.74
613.539	19943.46
613.735	19718.18
613.93	19920.93
614.126	19312.69
614.321	19658.79
614.517	19599.4
614.712	19402.8
614.907	19472.43
615.103	19570.73
615.298	19193.9
615.493	19507.24
615.688	19089.46
615.884	19757.1
616.079	19157.04
616.274	19105.84
616.47	19130.42
616.665	19210.29
616.86	18790.45
617.055	18907.19
617.25	18915.38
617.445	18907.19
617.641	18593.85
617.836	19036.21
618.031	18567.23
618.226	18882.61
618.421	18630.71
618.616	18767.93
618.811	18389.05
619.006	18968.63
619.201	18417.72
619.396	18321.47
619.591	18073.67
619.786	18362.43
619.981	17801.29
620.176	18319.42
620.371	17895.49
620.566	17893.44
620.761	17850.44
620.956	17891.4
621.151	17565.77
621.346	17549.39
621.541	17504.33
621.735	17473.61
621.93	17234
622.125	17240.14
622.32	17236.05
622.515	17193.04
622.709	16973.91
622.904	17006.67
623.099	16885.84
623.294	16838.74
623.488	16728.15
623.683	16738.39
623.878	16353.37
624.072	16394.33
624.267	16451.67
624.462	16423
624.656	15954.02
624.851	16246.88
625.046	16076.9
625.24	16042.08
625.435	15659.11
625.629	15714.41
625.824	15810.66
626.018	15566.95
626.213	15364.2
626.407	15716.45
626.602	15124.59
626.796	15532.14
626.991	15177.84
627.185	15116.4
627.38	14884.98
627.574	14936.18
627.768	14762.1
627.963	14772.34
628.157	14841.97
628.352	14774.39
628.546	14524.54
628.74	14637.17
628.935	14315.64
629.129	14303.36
629.323	14063.74
629.517	14086.27
629.712	13926.53
629.906	13998.21
630.1	13678.72
630.294	13617.29
630.489	13674.63
630.683	13955.2
630.877	13625.48
631.071	13774.98
631.265	13781.12
631.459	13400.2
631.653	13416.58
631.848	13394.06
632.042	13127.82
632.236	13394.06
632.43	12884.11
632.624	13410.44
632.818	13031.57
633.012	12820.63
633.206	12779.67
633.4	12839.06
633.594	12527.77
633.788	12707.99
633.982	12654.74
634.176	12671.12
634.369	12466.33
634.563	12402.84
634.757	12161.18
634.951	12259.48
635.145	12234.91
635.339	12386.46
635.533	11974.81
635.726	12001.44
635.92	11671.72
636.114	11985.05
636.308	11894.94
636.501	11827.36
636.695	11720.87
636.889	11655.33
637.083	11460.77
637.276	11485.35
637.47	11544.74
637.664	11317.42
637.857	11479.21
638.051	11362.47
638.244	11243.69
638.438	11153.58
638.632	11172.01
638.825	10973.36
639.019	10956.97
639.212	10696.88
639.406	10858.67
639.599	10678.45
639.793	10868.91
639.986	10748.08
640.18	10782.9
640.373	10512.56
640.567	10408.12
640.76	10342.58
640.954	10350.78
641.147	10336.44
641.34	10174.65
641.534	10113.21
641.727	10096.83
641.92	10172.6
642.114	10174.65
642.307	10057.92
642.5	9963.71
642.694	9869.5
642.887	9781.44
643.08	9922.75
643.273	9693.38
643.467	9611.46
643.66	9728.19
643.853	9545.92
644.046	9406.66
644.239	9523.4
644.432	9435.33
644.626	9357.51
644.819	9402.57
645.012	9187.53
645.205	9353.41
645.398	9273.54
645.591	9042.12
645.784	9089.23
645.977	9060.56
646.17	8919.25
646.363	8888.53
646.556	8818.89
646.749	8904.91
646.942	8829.13
647.135	8720.59
647.328	8706.26
647.521	8464.6
647.714	8394.97
647.907	8440.02
648.099	8515.8
648.292	8573.14
648.485	8458.45
648.678	8100.06
648.871	8257.75
649.064	8141.02
649.256	8356.05
649.449	8253.66
649.642	8302.81
649.835	8038.62
650.027	7930.08
650.22	8085.72
650.413	7882.97
650.605	8059.1
650.798	7936.22
650.991	7747.81
651.183	8005.85
651.376	7731.42
651.568	7891.16
651.761	7622.88
651.954	7725.28
652.146	7684.32
652.339	7682.27
652.531	7461.09
652.724	7583.97
652.916	7446.76
653.109	7422.18
653.301	7467.24
653.494	7524.58
653.686	7182.57
653.879	7391.46
654.071	7319.78
654.263	7246.05
654.456	7354.6
654.648	7198.95
654.84	7020.78
655.033	7061.74
655.225	7076.07
655.417	6994.15
655.61	7112.94
655.802	6945
655.994	6811.89
656.186	6838.51
656.379	6885.61
656.571	6748.4
656.763	6699.25
656.955	6650.1
657.148	6797.55
657.34	6521.07
657.532	6664.43
657.724	6543.6
657.916	6627.57
658.108	6412.53
658.3	6381.81
658.492	6430.96
658.684	6549.75
658.876	6461.68
659.068	6260.98
659.26	6213.88
659.452	6170.87
659.644	6148.34
659.836	6213.88
660.028	6082.81
660.22	6066.42
660.412	6174.97
660.604	6037.75
660.796	6015.23
660.988	6015.23
661.18	5923.07
661.372	5970.17
661.563	6058.23
661.755	5968.12
661.947	5945.59
662.139	5718.27
662.331	5916.92
662.522	5630.21
662.714	5839.1
662.906	5697.79
663.097	5708.03
663.289	5581.06
663.481	5732.61
663.673	5656.83
663.864	5607.68
664.056	5470.47
664.247	5495.04
664.439	5417.22
664.631	5550.34
664.822	5677.31
665.014	5605.63
665.205	5597.44
665.397	5349.64
665.588	5454.08
665.78	5259.53
665.971	5331.2
666.163	5241.09
666.354	5294.34
666.546	5228.81
666.737	5273.86
666.929	5218.57
667.12	5157.13
667.311	5214.47
667.503	5110.02
667.694	5093.64
667.885	5083.4
668.077	5193.99
668.268	4806.92
668.459	4985.1
668.651	4952.33
668.842	4940.04
669.033	4937.99
669.224	4864.27
669.416	4976.91
669.607	4841.74
669.798	4831.5
669.989	4960.52
670.18	4698.38
670.371	4841.74
670.563	4829.45
670.754	4794.64
670.945	4798.73
671.136	4786.44
671.327	4737.29
671.518	4819.21
671.709	4688.14
671.9	4735.25
672.091	4780.3
672.282	4725.01
672.473	4661.52
672.664	4655.37
672.855	4589.84
673.046	4600.08
673.237	4649.23
673.428	4630.8
673.619	4546.83
673.809	4561.17
674	4548.88
674.191	4622.61
674.382	4630.8
674.573	4344.08
674.764	4473.11
674.954	4409.62
675.145	4452.63
675.336	4366.61
675.527	4395.28
675.717	4356.37
675.908	4294.93
676.099	4331.8
676.289	4448.53
676.48	4382.99
676.671	4462.87
676.861	4405.52
677.052	4284.69
677.243	4233.49
677.433	4165.91
677.624	4434.19
677.814	4391.19
678.005	4274.45
678.195	4266.26
678.386	4239.64
678.576	4303.12
678.767	4272.4
678.957	4217.11
679.148	4407.57
679.338	4210.97
679.529	4329.75
679.719	4282.64
679.909	4266.26
680.1	4108.57
680.29	4382.99
680.481	4315.41
680.671	4204.82
680.861	4215.06
681.052	4176.15
681.242	4221.2
681.432	4172.05
681.622	4159.77
681.813	4202.77
682.003	4094.23
682.193	4170.01
682.383	4110.61
682.573	4096.28
682.764	4147.48
682.954	4120.85
683.144	4145.43
683.334	4192.53
683.524	4106.52
683.714	3881.24
683.904	3971.35
684.094	4004.12
684.284	4061.46
684.474	4137.24
684.664	4223.25
684.854	3907.87
685.044	4086.04
685.234	4018.46
685.424	3877.15
685.614	4032.79
685.804	4067.61
685.994	3973.4
686.184	3901.72
686.374	3987.74
686.564	3891.48
686.753	3852.57
686.943	3893.53
687.133	3862.81
687.323	3909.91
687.513	4026.65
687.702	3889.43
687.892	3852.57
688.082	3830.04
688.272	3889.43
688.461	3838.23
688.651	3756.32
688.841	3762.46
689.03	3731.74
689.22	3733.79
689.41	3754.27
689.599	3780.89
689.789	3660.06
689.979	3737.88
690.168	3686.69
690.358	3522.85
690.547	3705.12
690.737	3686.69
690.926	3508.51
691.116	3543.33
691.305	3604.77
691.495	3535.14
691.684	3449.12
691.874	3475.74
692.063	3608.86
692.252	3373.35
692.442	3463.46
692.631	3447.07
692.82	3498.27
693.01	3354.91
693.199	3469.6
693.388	3354.91
693.578	3373.35
693.767	3475.74
693.956	3350.82
694.146	3393.83
694.335	3373.35
694.524	3295.52
694.713	3275.04
694.902	3293.48
695.092	3330.34
695.281	3283.24
695.47	3324.19
695.659	3356.96
695.848	3242.28
696.037	3229.99
696.226	3426.59
696.415	3332.39
696.604	3344.67
696.793	3328.29
696.982	3193.12
697.171	3229.99
697.36	3164.45
697.549	3189.03
697.738	3223.84
697.927	3121.45
698.116	3258.66
698.305	3092.77
698.494	3250.47
698.683	3180.84
698.872	3266.85
699.061	3361.06
699.25	3170.6
699.438	3064.1
699.627	3191.08
699.816	3176.74
700.005	3184.93
700.193	3082.53
700.382	3158.31
700.571	3184.93
700.76	3166.5
700.948	3045.67
701.137	3152.17
701.326	3131.69
701.514	3150.12
701.703	3082.53
701.892	3076.39
702.08	3201.32
702.269	3160.36
702.457	2996.52
702.646	3174.69
702.834	3113.25
703.023	3094.82
703.212	3031.34
703.4	3170.6
703.589	3029.29
703.777	3133.73
703.965	3113.25
704.154	3080.49
704.342	3074.34
704.531	3051.81
704.719	3062.05
704.907	3189.03
705.096	3012.9
705.284	2894.12
705.472	3023.14
705.661	3021.1
705.849	3066.15
706.037	3121.45
706.226	3078.44
706.414	2914.6
706.602	3078.44
706.79	3135.78
706.979	3035.43
707.167	3055.91
707.355	2922.79
707.543	3031.34
707.731	2986.28
707.919	3037.48
708.107	2943.27
708.296	2971.94
708.484	2992.42
708.672	3000.62
708.86	2980.14
709.048	2959.66
709.236	2967.85
709.424	3029.29
709.612	2924.84
709.8	2939.18
709.988	3070.25
710.176	3051.81
710.364	2990.38
710.551	2885.93
710.739	3023.14
710.927	2918.7
711.115	3039.53
711.303	3017
711.491	2937.13
711.679	3002.66
711.866	2982.18
712.054	2994.47
712.242	2761
712.43	2941.22
712.617	2853.16
712.805	2971.94
712.993	3055.91
713.181	3023.14
713.368	3031.34
713.556	2859.31
713.744	2988.33
713.931	3166.5
714.119	2971.94
714.306	2941.22
714.494	3021.1
714.682	2894.12
714.869	2867.5
715.057	2992.42
715.244	2916.65
715.432	3000.62
715.619	2939.18
715.807	3131.69
715.994	3094.82
716.182	3037.48
716.369	3082.53
716.556	2973.99
716.744	3068.2
716.931	3109.16
717.119	3090.73
717.306	2986.28
717.493	2980.14
717.681	3002.66
717.868	2937.13
718.055	2976.04
718.242	2996.52
718.43	2967.85
718.617	3010.86
718.804	2971.94
718.991	2990.38
719.179	2984.23
719.366	2918.7
719.553	3045.67
719.74	2914.6
719.927	2890.03
720.114	2978.09
720.301	2928.94
720.488	2996.52
720.676	2967.85
720.863	2904.36
721.05	3062.05
721.237	2973.99
721.424	2969.9
721.611	2877.74
721.798	2881.83
721.985	2939.18
722.172	2879.79
722.358	2990.38
722.545	3047.72
722.732	2961.7
722.919	2959.66
723.106	2804.01
723.293	2875.69
723.48	2844.97
723.667	2998.57
723.853	2832.68
724.04	2791.72
724.227	2873.64
724.414	2951.46
724.6	2857.26
724.787	2937.13
724.974	2816.3
725.161	2869.55
725.347	2847.02
725.534	2941.22
725.72	3019.05
725.907	2937.13
726.094	2842.92
726.28	2982.18
726.467	2822.44
726.653	2834.73
726.84	2828.59
727.027	2838.83
727.213	2855.21
727.4	2810.15
727.586	2808.11
727.773	2869.55
727.959	2818.35
728.145	2855.21
728.332	2699.56
728.518	2728.24
728.705	2871.59
728.891	2844.97
729.077	2857.26
729.264	2767.15
729.45	2834.73
729.636	2797.87
729.823	2728.24
730.009	2775.34
730.195	2820.39
730.382	2904.36
730.568	2847.02
730.754	2853.16
730.94	2773.29
731.126	2736.43
731.313	2773.29
731.499	2740.52
731.685	2720.04
731.871	2857.26
732.057	2787.63
732.243	2750.76
732.429	2853.16
732.615	2756.91
732.801	2726.19
732.987	2722.09
733.173	2701.61
733.359	2771.24
733.545	2693.42
733.731	2619.69
733.917	2720.04
734.103	2748.72
734.289	2840.87
734.475	2799.91
734.661	2724.14
734.847	2742.57
735.033	2662.7
735.219	2769.2
735.404	2652.46
735.59	2877.74
735.776	2697.52
735.962	2783.53
736.148	2677.04
736.333	2689.32
736.519	2588.97
736.705	2654.51
736.89	2631.98
737.076	2664.75
737.262	2486.58
737.447	2597.17
737.633	2656.56
737.819	2662.7
738.004	2521.39
738.19	2656.56
738.375	2453.81
738.561	2582.83
738.747	2541.87
738.932	2642.22
739.118	2605.36
739.303	2627.89
739.489	2672.94
739.674	2543.92
739.859	2554.16
740.045	2543.92
740.23	2447.66
740.416	2484.53
740.601	2539.82
740.786	2541.87
740.972	2562.35
741.157	2580.78
741.342	2373.94
741.528	2398.51
741.713	2496.82
741.898	2353.46
742.084	2418.99
742.269	2433.33
742.454	2410.8
742.639	2527.53
742.824	2279.73
743.01	2482.48
743.195	2355.51
743.38	2443.57
743.565	2361.65
743.75	2482.48
743.935	2337.07
744.12	2404.66
744.305	2287.92
744.49	2324.79
744.675	2337.07
744.86	2228.53
745.045	2300.21
745.23	2101.56
745.415	2234.68
745.6	2287.92
745.785	2310.45
745.97	2335.03
746.155	2255.15
746.34	2218.29
746.525	2091.32
746.71	2076.98
746.895	2062.65
747.079	2152.76
747.264	2122.04
747.449	2214.2
747.634	2246.96
747.819	2115.89
748.003	2060.6
748.188	2079.03
748.373	2072.89
748.557	2070.84
748.742	2072.89
748.927	2021.69
749.111	2070.84
749.296	2029.88
749.481	2003.25
749.665	1952.06
749.85	1882.42
750.034	1884.47
750.219	1964.34
750.404	1882.42
750.588	1927.48
750.773	1847.61
750.957	1868.09
751.141	1970.49
751.326	1820.99
751.51	1853.75
751.695	1743.16
751.879	1898.81
752.064	1823.03
752.248	1694.01
752.432	1718.59
752.617	1724.73
752.801	1800.51
752.985	1722.68
753.17	1773.88
753.354	1694.01
753.538	1745.21
753.722	1741.11
753.907	1677.63
754.091	1521.98
754.275	1585.47
754.459	1560.89
754.643	1573.18
754.828	1642.81
755.012	1503.55
755.196	1564.99
755.38	1595.71
755.564	1530.17
755.748	1558.85
755.932	1521.98
756.116	1519.93
756.3	1517.89
756.484	1409.34
756.668	1481.02
756.852	1370.43
757.036	1589.57
757.22	1380.67
757.404	1427.78
757.588	1472.83
757.772	1478.97
757.956	1470.78
758.14	1399.1
758.323	1405.25
758.507	1462.59
758.691	1335.62
758.875	1304.9
759.059	1409.34
759.242	1438.02
759.426	1327.43
759.61	1390.91
759.794	1376.58
759.977	1333.57
760.161	1392.96
760.345	1306.95
760.528	1331.52
760.712	1278.27
760.895	1286.47
761.079	1315.14
761.263	1259.84
761.446	1118.53
761.63	1282.37
761.813	1282.37
761.997	1130.82
762.18	1317.19
762.364	1255.75
762.547	1265.99
762.731	1171.78
762.914	1210.69
763.098	1179.97
763.281	1149.25
763.464	1261.89
763.648	1096
763.831	1157.44
764.015	1194.31
764.198	1165.64
764.381	1067.33
764.564	1153.35
764.748	1053
764.931	1182.02
765.114	1128.77
765.297	1079.62
765.481	1104.2
765.664	1063.24
765.847	1069.38
766.03	1112.39
766.213	1081.67
766.397	1102.15
766.58	1155.4
766.763	1089.86
766.946	1057.09
767.129	1083.72
767.312	1069.38
767.495	1012.04
767.678	977.22
767.861	1005.89
768.044	1069.38
768.227	1016.13
768.41	989.51
768.593	1034.57
768.776	1128.77
768.959	1020.23
769.142	1071.43
769.324	1001.8
769.507	1038.66
769.69	932.17
769.873	903.5
770.056	981.32
770.239	889.16
770.421	987.46
770.604	1020.23
770.787	973.13
770.97	954.69
771.152	940.36
771.335	948.55
771.518	942.41
771.7	1014.09
771.883	1005.89
772.066	940.36
772.248	897.35
772.431	903.5
772.613	952.65
772.796	895.3
772.978	870.73
773.161	942.41
773.343	854.34
773.526	850.25
773.708	852.3
773.891	880.97
774.073	870.73
774.256	827.72
774.438	870.73
774.621	815.43
774.803	844.1
774.985	772.43
775.168	801.1
775.35	872.78
775.532	891.21
775.715	758.09
775.897	835.91
776.079	717.13
776.261	856.39
776.444	708.94
776.626	837.96
776.808	698.7
776.99	725.32
777.173	737.61
777.355	784.71
777.537	743.75
777.719	659.79
777.901	774.47
778.083	694.6
778.265	715.08
778.447	753.99
778.629	661.84
778.811	741.71
778.993	700.75
779.175	692.55
779.357	624.97
779.539	620.88
779.721	627.02
779.903	674.12
780.085	649.55
780.267	647.5
780.449	571.72
780.631	684.36
780.812	680.27
780.994	586.06
781.176	653.64
781.358	563.53
781.54	690.51
781.721	579.92
781.903	624.97
782.085	655.69
782.267	584.01
782.448	541.01
782.63	641.36
782.812	649.55
782.993	555.34
783.175	624.97
783.357	522.57
783.538	633.16
783.72	510.29
783.901	520.53
784.083	547.15
784.264	524.62
784.446	495.95
784.627	516.43
784.809	647.5
784.99	487.76
785.172	495.95
785.353	518.48
785.535	397.65
785.716	516.43
785.897	481.61
786.079	524.62
786.26	551.24
786.441	489.81
786.623	424.27
786.804	553.29
786.985	512.33
787.167	530.77
787.348	463.18
787.529	442.7
787.71	477.52
787.891	479.57
788.073	457.04
788.254	418.13
788.435	465.23
788.616	506.19
788.797	418.13
788.978	541.01
789.159	409.94
789.34	424.27
789.522	448.85
789.703	399.7
789.884	428.37
790.065	395.6
790.246	457.04
790.427	436.56
790.607	389.46
790.788	450.89
790.969	321.87
791.15	403.79
791.331	432.46
791.512	364.88
791.693	334.16
791.874	395.6
792.054	411.98
792.235	457.04
792.416	383.31
792.597	397.65
792.778	438.61
792.958	399.7
793.139	334.16
793.32	452.94
793.5	407.89
793.681	346.45
793.862	346.45
794.042	221.52
794.223	266.58
794.404	291.15
794.584	266.58
794.765	358.74
794.945	362.83
795.126	354.64
795.306	405.84
795.487	368.98
795.667	289.1
795.848	342.35
796.028	305.49
796.209	352.59
796.389	270.67
796.57	389.46
796.75	237.91
796.93	348.5
797.111	295.25
797.291	338.26
797.471	293.2
797.652	317.78
797.832	280.91
798.012	291.15
798.192	254.29
798.373	258.39
798.553	317.78
798.733	330.06
798.913	344.4
799.093	276.82
799.274	285.01
799.454	262.48
799.634	321.87
799.814	360.78
799.994	244.05
800.174	293.2
800.354	178.51
800.534	184.66
800.714	289.1
800.894	260.43
801.074	250.19
801.254	207.19
801.434	348.5
801.614	223.57
801.794	194.9
801.974	768.33
802.154	285.01
802.334	313.68
802.514	215.38
802.693	266.58
802.873	278.87
803.053	301.39
803.233	233.81
803.413	321.87
803.592	223.57
803.772	227.67
803.952	223.57
804.131	266.58
804.311	303.44
804.491	242
804.67	235.86
804.85	239.95
805.03	346.45
805.209	248.15
805.389	203.09
805.568	231.76
805.748	186.71
805.928	196.95
806.107	182.61
806.287	194.9
806.466	139.6
806.646	137.56
806.825	186.71
807.004	184.66
807.184	192.85
807.363	272.72
807.543	268.63
807.722	250.19
807.901	196.95
808.081	184.66
808.26	143.7
808.439	233.81
808.619	250.19
808.798	215.38
808.977	203.09
809.156	342.35
809.336	211.28
809.515	239.95
809.694	205.14
809.873	186.71
810.052	162.13
810.231	192.85
810.411	178.51
810.59	264.53
810.769	256.34
810.948	182.61
811.127	106.84
811.306	190.8
811.485	131.41
811.664	229.71
811.843	242
812.022	186.71
812.201	135.51
812.38	155.99
812.559	143.7
812.737	201.04
812.916	168.27
813.095	141.65
813.274	196.95
813.453	242
813.632	168.27
813.811	205.14
813.989	153.94
814.168	162.13
814.347	117.08
814.526	145.75
814.704	192.85
814.883	205.14
815.062	182.61
815.24	219.47
815.419	213.33
815.598	184.66
815.776	117.08
815.955	139.6
816.133	162.13
816.312	155.99
816.49	145.75
816.669	252.24
816.847	158.03
817.026	194.9
817.204	98.64
817.383	82.26
817.561	194.9
817.74	254.29
817.918	178.51
818.097	151.89
818.275	143.7
818.453	155.99
818.632	194.9
818.81	88.4
818.988	145.75
819.167	155.99
819.345	174.42
819.523	166.23
819.701	82.26
819.879	121.17
820.058	233.81
820.236	219.47
820.414	147.8
820.592	110.93
820.77	172.37
820.948	180.56
821.127	72.02
821.305	217.43
821.483	164.18
821.661	223.57
821.839	149.84
822.017	194.9
822.195	139.6
822.373	166.23
822.551	192.85
822.729	172.37
822.907	112.98
823.085	176.47
823.262	131.41
823.44	121.17
823.618	121.17
823.796	133.46
823.974	194.9
824.152	121.17
824.329	110.93
824.507	139.6
824.685	143.7
824.863	76.12
825.04	129.36
825.218	186.71
825.396	143.7
825.574	194.9
825.751	172.37
825.929	160.08
826.107	123.22
826.284	112.98
826.462	139.6
826.639	102.74
826.817	88.4
826.994	102.74
827.172	86.36
827.349	141.65
827.527	145.75
827.704	158.03
827.882	153.94
828.059	119.12
828.237	190.8
828.414	129.36
828.591	145.75
828.769	117.08
828.946	80.21
829.124	84.31
829.301	153.94
829.478	176.47
829.655	176.47
829.833	69.97
830.01	55.64
830.187	110.93
830.364	129.36
830.542	139.6
830.719	51.54
830.896	131.41
831.073	84.31
831.25	76.12
831.427	45.4
831.604	131.41
831.782	149.84
831.959	82.26
832.136	63.83
832.313	92.5
832.49	100.69
832.667	127.32
832.844	41.3
833.021	69.97
833.198	53.59
833.374	117.08
833.551	47.44
833.728	84.31
833.905	61.78
834.082	63.83
834.259	67.92
834.436	96.6
834.612	86.36
834.789	133.46
834.966	84.31
835.143	182.61
835.319	51.54
835.496	74.07
835.673	55.64
835.85	115.03
836.026	100.69
836.203	133.46
836.38	102.74
836.556	31.06
836.733	84.31
836.909	121.17
837.086	86.36
837.262	14.68
837.439	94.55
837.616	78.16
837.792	100.69
837.968	125.27
838.145	26.96
838.321	168.27
838.498	55.64
838.674	102.74
838.851	80.21
839.027	84.31
839.203	18.77
839.38	145.75
839.556	88.4
839.732	65.88
839.909	22.87
840.085	82.26
840.261	39.25
840.437	76.12
840.614	59.73
840.79	39.25
840.966	63.83
841.142	45.4
841.318	10.58
841.494	24.92
841.671	96.6
841.847	57.68
842.023	92.5
842.199	92.5
842.375	223.57
842.551	47.44
842.727	90.45
842.903	129.36
843.079	4.44
843.255	117.08
843.431	92.5
843.607	112.98
843.783	76.12
843.959	45.4
844.134	29.01
844.31	55.64
844.486	53.59
844.662	4.44
844.838	51.54
845.013	84.31
845.189	117.08
845.365	84.31
845.541	10.58
845.716	31.06
845.892	123.22
846.068	8.53
846.244	108.88
846.419	110.93
846.595	123.22
846.77	14.68
846.946	20.82
847.122	100.69
847.297	39.25
847.473	82.26
847.648	47.44
847.824	127.32
847.999	-42.67
848.175	16.73
848.35	59.73
848.526	98.64
848.701	-13.99
848.876	100.69
849.052	55.64
849.227	47.44
849.403	43.35
849.578	41.3
849.753	35.16
849.929	61.78
850.104	35.16
850.279	112.98
850.454	67.92
850.63	51.54
850.805	78.16
850.98	31.06
851.155	55.64
851.33	55.64
851.505	29.01
851.681	6.49
851.856	20.82
852.031	74.07
852.206	49.49
852.381	57.68
852.556	39.25
852.731	49.49
852.906	63.83
853.081	72.02
853.256	141.65
853.431	22.87
853.606	31.06
853.781	39.25
853.956	2.39
854.131	55.64
854.305	96.6
854.48	78.16
854.655	-1.71
854.83	37.2
855.005	29.01
855.18	18.77
855.354	22.87
855.529	22.87
855.704	31.06
855.879	14.68
856.053	106.84
856.228	61.78
856.403	26.96
856.577	106.84
856.752	2.39
856.926	90.45
857.101	-26.28
857.276	22.87
857.45	24.92
857.625	67.92
857.799	4.44
857.974	41.3
858.148	26.96
858.323	63.83
858.497	26.96
858.672	49.49
858.846	35.16
859.02	14.68
859.195	35.16
859.369	86.36
859.543	92.5
859.718	110.93
859.892	72.02
860.066	74.07
860.241	24.92
860.415	16.73
860.589	49.49
860.763	31.06
860.938	45.4
861.112	-3.75
861.286	-5.8
861.46	78.16
861.634	0.34
861.808	110.93
861.982	-71.34
862.157	18.77
862.331	4.44
862.505	10.58
862.679	12.63
862.853	-26.28
863.027	35.16
863.201	78.16
863.375	47.44
863.549	67.92
863.722	4.44
863.896	16.73
864.07	14.68
864.244	55.64
864.418	-3.75
864.592	104.79
864.766	51.54
864.939	63.83
865.113	31.06
865.287	41.3
865.461	88.4
865.634	69.97
865.808	-20.14
865.982	76.12
866.156	47.44
866.329	-16.04
866.503	74.07
866.676	20.82
866.85	20.82
867.024	20.82
867.197	47.44
867.371	33.11
867.544	16.73
867.718	37.2
867.891	72.02
868.065	0.34
868.238	-26.28
868.412	39.25
868.585	112.98
868.759	92.5
868.932	22.87
869.105	-38.57
869.279	47.44
869.452	10.58
869.625	80.21
869.799	20.82
869.972	8.53
870.145	98.64
870.319	20.82
870.492	41.3
870.665	-22.19
870.838	31.06
871.011	-42.67
871.185	26.96
871.358	2.39
871.531	69.97
871.704	84.31
871.877	2.39
872.05	35.16
872.223	-11.95
872.396	33.11
872.569	-9.9
872.742	-18.09
872.915	80.21
873.088	-32.43
873.261	2.39
873.434	102.74
873.607	-20.14
873.78	104.79
873.953	-18.09
874.126	-18.09
874.299	12.63
874.471	14.68
874.644	18.77
874.817	98.64
874.99	76.12
875.163	12.63
875.335	4.44
875.508	80.21
875.681	14.68
875.853	-36.52
876.026	57.68
876.199	6.49
876.371	51.54
876.544	8.53
876.717	37.2
876.889	78.16
877.062	31.06
877.234	16.73
877.407	24.92
877.579	39.25
877.752	57.68
877.924	-11.95
878.097	33.11
878.269	35.16
878.442	49.49
878.614	41.3
878.786	18.77
878.959	-11.95
879.131	41.3
879.303	-11.95
879.476	-1.71
879.648	-32.43
879.82	41.3
879.993	45.4
880.165	112.98
880.337	10.58
880.509	10.58
880.681	-18.09
880.854	-20.14
881.026	-5.8
881.198	115.03
881.37	72.02
881.542	33.11
881.714	-26.28
881.886	-18.09
882.058	-18.09
882.23	41.3
882.402	18.77
882.574	49.49
882.746	0.34
882.918	74.07
883.09	31.06
883.262	88.4
883.434	-32.43
883.606	6.49
883.778	59.73
883.95	37.2
884.122	63.83
884.293	69.97
884.465	-30.38
884.637	14.68
884.809	0.34
884.98	53.59
885.152	18.77
885.324	49.49
885.496	-3.75
885.667	20.82
885.839	35.16
886.011	155.99
886.182	10.58
886.354	6.49
886.525	72.02
886.697	8.53
886.869	-67.24
887.04	29.01
887.212	35.16
887.383	61.78
887.555	-46.76
887.726	-7.85
887.897	-5.8
888.069	16.73
888.24	35.16
888.412	-3.75
888.583	53.59
888.754	-24.23
888.926	-44.71
889.097	59.73
889.268	37.2
889.44	31.06
889.611	4.44
889.782	39.25
889.953	35.16
890.125	33.11
890.296	-13.99
890.467	-32.43
890.638	33.11
890.809	18.77
890.98	69.97
891.151	12.63
891.323	51.54
891.494	94.55
891.665	-26.28
891.836	22.87
892.007	-11.95
892.178	-1.71
892.349	35.16
892.52	12.63
892.691	-3.75
892.862	-38.57
893.032	67.92
893.203	-13.99
893.374	-46.76
893.545	39.25
893.716	61.78
893.887	-1.71
894.057	22.87
894.228	47.44
894.399	10.58
894.57	10.58
894.74	-28.33
894.911	-22.19
895.082	59.73
895.253	47.44
895.423	12.63
895.594	69.97
895.764	-5.8
895.935	-5.8
896.106	39.25
896.276	41.3
896.447	80.21
896.617	-24.23
896.788	-16.04
896.958	49.49
897.129	-9.9
897.299	-3.75
897.47	12.63
897.64	18.77
897.81	-18.09
897.981	12.63
898.151	6.49
898.322	35.16
898.492	-40.62
898.662	8.53
898.832	10.58
899.003	6.49
899.173	-26.28
899.343	-20.14
899.513	-3.75
