Data from USB4F104151__218__10-30-08-731.txt Node

Date: Wed Mar 12 10:30:08 EDT 2025
User: louis
Spectrometer: USB4F10415
Trigger mode: 4
Integration Time (sec): 3.000000E-2
Scans to average: 1
Electric dark correction enabled: true
Nonlinearity correction enabled: false
Boxcar width: 0
XAxis mode: Wavelengths
Number of Pixels in Spectrum: 3648
>>>>>Begin Spectral Data<<<<<
178.204	-71.34
178.424	-71.34
178.644	-71.34
178.864	-140.97
179.084	-91.82
179.304	-13.99
179.524	-40.62
179.744	-38.57
179.964	39.25
180.184	0.34
180.404	-44.71
180.624	-18.09
180.844	16.73
181.064	-7.85
181.283	59.73
181.503	26.96
181.723	20.82
181.943	-16.04
182.163	76.12
182.383	31.06
182.602	98.64
182.822	29.01
183.042	2.39
183.262	-20.14
183.482	-20.14
183.701	37.2
183.921	24.92
184.141	-18.09
184.361	8.53
184.58	94.55
184.8	12.63
185.02	-16.04
185.239	63.83
185.459	90.45
185.679	78.16
185.898	-5.8
186.118	16.73
186.338	82.26
186.557	76.12
186.777	12.63
186.997	41.3
187.216	12.63
187.436	51.54
187.655	45.4
187.875	37.2
188.095	-7.85
188.314	-22.19
188.534	20.82
188.753	16.73
188.973	18.77
189.192	26.96
189.412	8.53
189.631	63.83
189.851	16.73
190.07	55.64
190.29	12.63
190.509	63.83
190.729	-11.95
190.948	55.64
191.168	102.74
191.387	110.93
191.607	-65.19
191.826	98.64
192.045	22.87
192.265	49.49
192.484	31.06
192.704	-3.75
192.923	12.63
193.142	45.4
193.362	65.88
193.581	53.59
193.8	39.25
194.02	39.25
194.239	39.25
194.458	-7.85
194.678	43.35
194.897	16.73
195.116	14.68
195.335	53.59
195.555	14.68
195.774	57.68
195.993	53.59
196.212	53.59
196.432	33.11
196.651	43.35
196.87	12.63
197.089	78.16
197.308	65.88
197.528	55.64
197.747	6.49
197.966	49.49
198.185	39.25
198.404	31.06
198.623	59.73
198.842	78.16
199.062	-7.85
199.281	90.45
199.5	14.68
199.719	69.97
199.938	82.26
200.157	4.44
200.376	123.22
200.595	49.49
200.814	72.02
201.033	4.44
201.252	43.35
201.471	104.79
201.69	55.64
201.909	98.64
202.128	39.25
202.347	41.3
202.566	-5.8
202.785	-7.85
203.004	-11.95
203.223	82.26
203.442	102.74
203.661	10.58
203.879	39.25
204.098	31.06
204.317	-32.43
204.536	61.78
204.755	94.55
204.974	90.45
205.193	20.82
205.411	129.36
205.63	65.88
205.849	20.82
206.068	-3.75
206.287	10.58
206.505	6.49
206.724	14.68
206.943	35.16
207.162	-40.62
207.381	16.73
207.599	4.44
207.818	14.68
208.037	-5.8
208.255	57.68
208.474	33.11
208.693	49.49
208.911	18.77
209.13	6.49
209.349	26.96
209.567	4.44
209.786	104.79
210.005	49.49
210.223	94.55
210.442	-32.43
210.661	39.25
210.879	31.06
211.098	26.96
211.316	74.07
211.535	92.5
211.753	-36.52
211.972	49.49
212.191	29.01
212.409	65.88
212.628	57.68
212.846	39.25
213.065	63.83
213.283	69.97
213.502	26.96
213.72	61.78
213.938	24.92
214.157	92.5
214.375	8.53
214.594	31.06
214.812	29.01
215.031	43.35
215.249	14.68
215.467	20.82
215.686	31.06
215.904	100.69
216.122	20.82
216.341	-7.85
216.559	61.78
216.778	47.44
216.996	45.4
217.214	-13.99
217.432	57.68
217.651	16.73
217.869	47.44
218.087	61.78
218.306	6.49
218.524	59.73
218.742	18.77
218.96	88.4
219.179	31.06
219.397	16.73
219.615	102.74
219.833	-40.62
220.051	35.16
220.27	45.4
220.488	76.12
220.706	69.97
220.924	102.74
221.142	-42.67
221.36	63.83
221.578	-3.75
221.796	8.53
222.015	98.64
222.233	80.21
222.451	16.73
222.669	-32.43
222.887	2.39
223.105	-30.38
223.323	24.92
223.541	14.68
223.759	29.01
223.977	16.73
224.195	117.08
224.413	4.44
224.631	39.25
224.849	-28.33
225.067	135.51
225.285	-5.8
225.503	24.92
225.721	-30.38
225.939	57.68
226.157	49.49
226.375	98.64
226.592	76.12
226.81	82.26
227.028	16.73
227.246	80.21
227.464	-7.85
227.682	0.34
227.9	63.83
228.117	115.03
228.335	-16.04
228.553	41.3
228.771	55.64
228.989	57.68
229.206	12.63
229.424	-13.99
229.642	63.83
229.86	51.54
230.077	-28.33
230.295	106.84
230.513	29.01
230.731	65.88
230.948	20.82
231.166	55.64
231.384	-13.99
231.601	39.25
231.819	-7.85
232.037	0.34
232.254	-11.95
232.472	57.68
232.689	22.87
232.907	8.53
233.125	-3.75
233.342	69.97
233.56	-20.14
233.777	49.49
233.995	51.54
234.213	65.88
234.43	-3.75
234.648	10.58
234.865	-3.75
235.083	41.3
235.3	72.02
235.518	35.16
235.735	92.5
235.953	16.73
236.17	39.25
236.388	-26.28
236.605	-3.75
236.822	0.34
237.04	119.12
237.257	12.63
237.475	74.07
237.692	29.01
237.909	49.49
238.127	2.39
238.344	33.11
238.562	8.53
238.779	6.49
238.996	22.87
239.214	45.4
239.431	145.75
239.648	67.92
239.865	72.02
240.083	61.78
240.3	39.25
240.517	37.2
240.735	35.16
240.952	49.49
241.169	20.82
241.386	47.44
241.603	43.35
241.821	35.16
242.038	96.6
242.255	63.83
242.472	-32.43
242.689	53.59
242.907	-9.9
243.124	119.12
243.341	43.35
243.558	110.93
243.775	22.87
243.992	-11.95
244.209	69.97
244.426	33.11
244.643	43.35
244.86	41.3
245.078	43.35
245.295	20.82
245.512	45.4
245.729	-44.71
245.946	98.64
246.163	45.4
246.38	76.12
246.597	14.68
246.814	20.82
247.031	2.39
247.248	4.44
247.464	29.01
247.681	37.2
247.898	8.53
248.115	41.3
248.332	-24.23
248.549	69.97
248.766	80.21
248.983	-13.99
249.2	100.69
249.417	51.54
249.633	33.11
249.85	121.17
250.067	-7.85
250.284	57.68
250.501	24.92
250.717	61.78
250.934	31.06
251.151	37.2
251.368	26.96
251.585	45.4
251.801	24.92
252.018	2.39
252.235	98.64
252.451	-3.75
252.668	61.78
252.885	12.63
253.102	39.25
253.318	78.16
253.535	-20.14
253.752	61.78
253.968	98.64
254.185	6.49
254.401	59.73
254.618	0.34
254.835	90.45
255.051	33.11
255.268	45.4
255.484	82.26
255.701	14.68
255.917	86.36
256.134	8.53
256.351	0.34
256.567	33.11
256.784	92.5
257	33.11
257.217	53.59
257.433	69.97
257.65	59.73
257.866	-5.8
258.082	0.34
258.299	0.34
258.515	129.36
258.732	63.83
258.948	16.73
259.165	86.36
259.381	90.45
259.597	45.4
259.814	8.53
260.03	53.59
260.246	8.53
260.463	18.77
260.679	33.11
260.895	76.12
261.112	53.59
261.328	-46.76
261.544	41.3
261.761	88.4
261.977	0.34
262.193	0.34
262.409	29.01
262.626	96.6
262.842	-7.85
263.058	33.11
263.274	147.8
263.49	67.92
263.707	29.01
263.923	6.49
264.139	22.87
264.355	61.78
264.571	49.49
264.787	53.59
265.004	94.55
265.22	41.3
265.436	65.88
265.652	-40.62
265.868	37.2
266.084	59.73
266.3	16.73
266.516	39.25
266.732	98.64
266.948	61.78
267.164	-24.23
267.38	49.49
267.596	61.78
267.812	51.54
268.028	-1.71
268.244	69.97
268.46	88.4
268.676	45.4
268.892	37.2
269.108	59.73
269.324	-20.14
269.54	-7.85
269.756	67.92
269.972	43.35
270.188	72.02
270.403	35.16
270.619	41.3
270.835	63.83
271.051	37.2
271.267	-3.75
271.483	55.64
271.698	37.2
271.914	65.88
272.13	80.21
272.346	22.87
272.562	45.4
272.777	12.63
272.993	16.73
273.209	78.16
273.425	45.4
273.64	55.64
273.856	16.73
274.072	8.53
274.287	39.25
274.503	26.96
274.719	90.45
274.934	16.73
275.15	29.01
275.366	31.06
275.581	-3.75
275.797	-40.62
276.012	-20.14
276.228	82.26
276.444	37.2
276.659	35.16
276.875	61.78
277.09	41.3
277.306	57.68
277.521	24.92
277.737	41.3
277.952	94.55
278.168	14.68
278.383	63.83
278.599	55.64
278.814	69.97
279.03	24.92
279.245	98.64
279.461	39.25
279.676	119.12
279.892	16.73
280.107	41.3
280.322	33.11
280.538	20.82
280.753	29.01
280.969	22.87
281.184	18.77
281.399	90.45
281.615	61.78
281.83	-16.04
282.045	33.11
282.26	88.4
282.476	12.63
282.691	98.64
282.906	-3.75
283.122	47.44
283.337	33.11
283.552	80.21
283.767	-20.14
283.983	141.65
284.198	92.5
284.413	12.63
284.628	47.44
284.843	57.68
285.058	67.92
285.274	-40.62
285.489	16.73
285.704	10.58
285.919	86.36
286.134	82.26
286.349	33.11
286.564	29.01
286.779	74.07
286.995	59.73
287.21	33.11
287.425	-40.62
287.64	-24.23
287.855	63.83
288.07	4.44
288.285	12.63
288.5	16.73
288.715	61.78
288.93	94.55
289.145	49.49
289.36	35.16
289.575	98.64
289.79	123.22
290.004	31.06
290.219	121.17
290.434	88.4
290.649	-1.71
290.864	-36.52
291.079	51.54
291.294	129.36
291.509	39.25
291.724	106.84
291.938	33.11
292.153	20.82
292.368	8.53
292.583	45.4
292.798	41.3
293.012	24.92
293.227	49.49
293.442	72.02
293.657	110.93
293.871	112.98
294.086	41.3
294.301	47.44
294.516	39.25
294.73	-36.52
294.945	33.11
295.16	63.83
295.374	82.26
295.589	14.68
295.804	57.68
296.018	74.07
296.233	88.4
296.447	16.73
296.662	74.07
296.877	18.77
297.091	37.2
297.306	90.45
297.52	29.01
297.735	94.55
297.949	47.44
298.164	78.16
298.378	29.01
298.593	53.59
298.807	33.11
299.022	-34.47
299.236	145.75
299.451	10.58
299.665	47.44
299.88	80.21
300.094	63.83
300.309	45.4
300.523	39.25
300.737	37.2
300.952	20.82
301.166	57.68
301.381	-32.43
301.595	-9.9
301.809	59.73
302.024	0.34
302.238	-32.43
302.452	57.68
302.667	4.44
302.881	115.03
303.095	57.68
303.309	49.49
303.524	80.21
303.738	4.44
303.952	74.07
304.166	106.84
304.381	10.58
304.595	47.44
304.809	51.54
305.023	41.3
305.237	26.96
305.452	61.78
305.666	53.59
305.88	100.69
306.094	90.45
306.308	43.35
306.522	53.59
306.736	37.2
306.95	90.45
307.164	47.44
307.379	63.83
307.593	74.07
307.807	67.92
308.021	4.44
308.235	82.26
308.449	96.6
308.663	47.44
308.877	135.51
309.091	100.69
309.305	102.74
309.519	-1.71
309.733	43.35
309.947	-18.09
310.161	51.54
310.374	16.73
310.588	47.44
310.802	-11.95
311.016	-1.71
311.23	112.98
311.444	74.07
311.658	61.78
311.872	131.41
312.085	57.68
312.299	59.73
312.513	63.83
312.727	74.07
312.941	-26.28
313.154	74.07
313.368	45.4
313.582	63.83
313.796	69.97
314.009	94.55
314.223	74.07
314.437	49.49
314.651	100.69
314.864	59.73
315.078	16.73
315.292	41.3
315.505	6.49
315.719	49.49
315.933	39.25
316.146	51.54
316.36	53.59
316.573	8.53
316.787	143.7
317.001	41.3
317.214	-5.8
317.428	59.73
317.641	51.54
317.855	29.01
318.068	90.45
318.282	72.02
318.495	86.36
318.709	8.53
318.922	98.64
319.136	78.16
319.349	104.79
319.563	24.92
319.776	24.92
319.99	-18.09
320.203	139.6
320.417	31.06
320.63	65.88
320.843	57.68
321.057	69.97
321.27	80.21
321.483	43.35
321.697	24.92
321.91	-3.75
322.124	88.4
322.337	110.93
322.55	14.68
322.763	-26.28
322.977	104.79
323.19	8.53
323.403	-73.39
323.617	80.21
323.83	37.2
324.043	22.87
324.256	151.89
324.469	61.78
324.683	90.45
324.896	57.68
325.109	55.64
325.322	-50.86
325.535	51.54
325.748	33.11
325.962	115.03
326.175	35.16
326.388	49.49
326.601	84.31
326.814	74.07
327.027	55.64
327.24	147.8
327.453	-16.04
327.666	106.84
327.879	47.44
328.092	-44.71
328.305	65.88
328.518	-7.85
328.731	0.34
328.944	35.16
329.157	67.92
329.37	43.35
329.583	78.16
329.796	29.01
330.009	37.2
330.222	117.08
330.435	-3.75
330.648	65.88
330.861	72.02
331.073	24.92
331.286	139.6
331.499	63.83
331.712	39.25
331.925	47.44
332.138	59.73
332.35	78.16
332.563	22.87
332.776	94.55
332.989	20.82
333.202	14.68
333.414	8.53
333.627	78.16
333.84	-3.75
334.053	63.83
334.265	20.82
334.478	67.92
334.691	18.77
334.903	94.55
335.116	49.49
335.329	94.55
335.541	-54.95
335.754	80.21
335.966	80.21
336.179	86.36
336.392	80.21
336.604	14.68
336.817	-32.43
337.029	35.16
337.242	74.07
337.454	104.79
337.667	37.2
337.88	139.6
338.092	20.82
338.305	-18.09
338.517	43.35
338.729	-1.71
338.942	117.08
339.154	6.49
339.367	55.64
339.579	74.07
339.792	22.87
340.004	47.44
340.217	33.11
340.429	74.07
340.641	8.53
340.854	35.16
341.066	-5.8
341.278	80.21
341.491	127.32
341.703	115.03
341.915	72.02
342.128	6.49
342.34	33.11
342.552	0.34
342.764	76.12
342.977	82.26
343.189	94.55
343.401	84.31
343.613	-30.38
343.826	108.88
344.038	-9.9
344.25	65.88
344.462	8.53
344.674	47.44
344.886	-40.62
345.099	100.69
345.311	8.53
345.523	39.25
345.735	-30.38
345.947	20.82
346.159	145.75
346.371	39.25
346.583	-1.71
346.795	84.31
347.007	94.55
347.219	80.21
347.431	49.49
347.643	92.5
347.855	63.83
348.067	131.41
348.279	61.78
348.491	76.12
348.703	20.82
348.915	104.79
349.127	8.53
349.339	63.83
349.551	6.49
349.763	39.25
349.975	129.36
350.187	82.26
350.399	117.08
350.61	47.44
350.822	104.79
351.034	178.51
351.246	39.25
351.458	55.64
351.669	61.78
351.881	47.44
352.093	76.12
352.305	88.4
352.517	72.02
352.728	63.83
352.94	51.54
353.152	63.83
353.363	47.44
353.575	125.27
353.787	110.93
353.999	86.36
354.21	127.32
354.422	14.68
354.633	18.77
354.845	98.64
355.057	86.36
355.268	39.25
355.48	37.2
355.692	-1.71
355.903	31.06
356.115	-36.52
356.326	-38.57
356.538	143.7
356.749	4.44
356.961	63.83
357.172	45.4
357.384	31.06
357.595	94.55
357.807	18.77
358.018	41.3
358.23	88.4
358.441	82.26
358.653	37.2
358.864	57.68
359.075	115.03
359.287	24.92
359.498	57.68
359.709	55.64
359.921	43.35
360.132	18.77
360.344	31.06
360.555	-46.76
360.766	6.49
360.977	86.36
361.189	76.12
361.4	74.07
361.611	49.49
361.823	51.54
362.034	61.78
362.245	16.73
362.456	37.2
362.667	16.73
362.879	41.3
363.09	63.83
363.301	18.77
363.512	94.55
363.723	61.78
363.935	12.63
364.146	0.34
364.357	8.53
364.568	78.16
364.779	37.2
364.99	92.5
365.201	24.92
365.412	57.68
365.623	63.83
365.834	33.11
366.045	43.35
366.256	47.44
366.467	72.02
366.678	45.4
366.889	39.25
367.1	35.16
367.311	164.18
367.522	74.07
367.733	33.11
367.944	119.12
368.155	45.4
368.366	47.44
368.577	98.64
368.788	117.08
368.999	-7.85
369.209	82.26
369.42	112.98
369.631	119.12
369.842	4.44
370.053	22.87
370.264	74.07
370.474	51.54
370.685	102.74
370.896	65.88
371.107	-13.99
371.317	160.08
371.528	74.07
371.739	86.36
371.95	51.54
372.16	61.78
372.371	45.4
372.582	47.44
372.792	39.25
373.003	131.41
373.214	67.92
373.424	37.2
373.635	-3.75
373.846	112.98
374.056	29.01
374.267	65.88
374.477	2.39
374.688	0.34
374.898	108.88
375.109	127.32
375.319	29.01
375.53	43.35
375.74	24.92
375.951	65.88
376.161	123.22
376.372	125.27
376.582	57.68
376.793	86.36
377.003	74.07
377.214	43.35
377.424	63.83
377.635	80.21
377.845	53.59
378.055	49.49
378.266	39.25
378.476	72.02
378.686	10.58
378.897	131.41
379.107	72.02
379.317	24.92
379.528	121.17
379.738	37.2
379.948	-16.04
380.158	98.64
380.369	-20.14
380.579	72.02
380.789	26.96
380.999	47.44
381.21	12.63
381.42	137.56
381.63	37.2
381.84	80.21
382.05	98.64
382.261	137.56
382.471	16.73
382.681	76.12
382.891	90.45
383.101	-38.57
383.311	82.26
383.521	72.02
383.731	61.78
383.941	98.64
384.151	67.92
384.361	4.44
384.571	108.88
384.781	69.97
384.991	112.98
385.201	76.12
385.411	92.5
385.621	96.6
385.831	63.83
386.041	37.2
386.251	102.74
386.461	88.4
386.671	57.68
386.881	102.74
387.091	24.92
387.301	123.22
387.511	67.92
387.72	92.5
387.93	72.02
388.14	33.11
388.35	74.07
388.56	61.78
388.769	125.27
388.979	45.4
389.189	57.68
389.399	121.17
389.609	88.4
389.818	69.97
390.028	45.4
390.238	74.07
390.447	69.97
390.657	104.79
390.867	63.83
391.076	61.78
391.286	74.07
391.496	6.49
391.705	76.12
391.915	180.56
392.125	51.54
392.334	72.02
392.544	121.17
392.753	166.23
392.963	160.08
393.172	65.88
393.382	63.83
393.591	106.84
393.801	72.02
394.01	121.17
394.22	96.6
394.429	110.93
394.639	86.36
394.848	80.21
395.058	186.71
395.267	121.17
395.477	57.68
395.686	139.6
395.895	139.6
396.105	149.84
396.314	98.64
396.524	123.22
396.733	121.17
396.942	98.64
397.152	172.37
397.361	110.93
397.57	162.13
397.78	76.12
397.989	172.37
398.198	115.03
398.407	96.6
398.617	102.74
398.826	153.94
399.035	104.79
399.244	151.89
399.453	123.22
399.663	53.59
399.872	123.22
400.081	65.88
400.29	207.19
400.499	90.45
400.708	190.8
400.917	145.75
401.127	115.03
401.336	117.08
401.545	139.6
401.754	123.22
401.963	121.17
402.172	74.07
402.381	188.75
402.59	145.75
402.799	153.94
403.008	147.8
403.217	110.93
403.426	119.12
403.635	192.85
403.844	149.84
404.053	182.61
404.262	86.36
404.471	227.67
404.68	196.95
404.888	209.23
405.097	196.95
405.306	221.52
405.515	182.61
405.724	141.65
405.933	180.56
406.142	139.6
406.35	205.14
406.559	201.04
406.768	260.43
406.977	233.81
407.185	256.34
407.394	201.04
407.603	239.95
407.812	213.33
408.02	299.34
408.229	235.86
408.438	250.19
408.646	182.61
408.855	299.34
409.064	278.87
409.272	317.78
409.481	299.34
409.69	293.2
409.898	319.82
410.107	350.54
410.315	364.88
410.524	436.56
410.733	364.88
410.941	336.21
411.15	428.37
411.358	432.46
411.567	436.56
411.775	500.05
411.984	430.41
412.192	465.23
412.401	528.72
412.609	538.96
412.818	541.01
413.026	551.24
413.234	528.72
413.443	606.54
413.651	616.78
413.86	573.77
414.068	674.12
414.276	700.75
414.485	596.3
414.693	762.19
414.901	792.91
415.11	831.82
415.318	776.52
415.526	801.1
415.734	956.74
415.943	766.28
416.151	917.83
416.359	878.92
416.567	975.17
416.776	1014.09
416.984	1030.47
417.192	1026.37
417.4	1200.45
417.608	1036.61
417.817	1083.72
418.025	1194.31
418.233	1255.75
418.441	1200.45
418.649	1278.27
418.857	1409.34
419.065	1489.21
419.273	1366.34
419.481	1515.84
419.689	1456.45
419.897	1571.13
420.105	1620.28
420.313	1683.77
420.521	1745.21
420.729	1720.64
420.937	1749.31
421.145	1823.03
421.353	1960.25
421.561	2062.65
421.769	2142.52
421.977	2294.07
422.185	2187.57
422.393	2271.54
422.601	2605.36
422.809	2464.05
423.017	2459.95
423.224	2496.82
423.432	2654.51
423.64	2666.8
423.848	2939.18
424.056	2830.63
424.263	3135.78
424.471	3166.5
424.679	3109.16
424.887	3367.2
425.094	3359.01
425.302	3322.15
425.51	3346.72
425.718	3465.5
425.925	3594.53
426.133	3801.37
426.341	3879.19
426.548	4129.05
426.756	4153.62
426.964	4313.36
427.171	4509.97
427.379	4612.37
427.586	4575.5
427.794	4661.52
428.001	5044.49
428.209	5114.12
428.417	5241.09
428.624	5523.71
428.832	5624.06
429.039	5476.61
429.247	5523.71
429.454	6088.95
429.662	6240.5
429.869	6029.56
430.076	6394.1
430.284	6154.49
430.491	6447.35
430.699	6865.13
430.906	6961.39
431.114	6924.52
431.321	7151.85
431.528	7391.46
431.736	7803.1
431.943	8251.61
432.15	7848.16
432.358	8083.67
432.565	8444.12
432.772	8523.99
432.979	9015.5
433.187	8779.98
433.394	9128.14
433.601	9586.88
433.808	9576.64
434.016	9660.61
434.223	10027.2
434.43	10531
434.637	10385.59
434.844	11153.58
435.052	11419.82
435.259	11249.83
435.466	11352.23
435.673	11235.5
435.88	11980.96
436.087	12667.03
436.294	12445.85
436.501	12109.98
436.708	12472.47
436.915	12646.55
437.122	13295.75
437.329	13246.6
437.537	13893.76
437.743	13901.95
437.95	14080.13
438.157	14755.96
438.364	15075.44
438.571	15224.94
438.778	15253.61
438.985	16615.51
439.192	16003.17
439.399	16513.11
439.606	16203.87
439.813	16826.45
440.02	18061.38
440.227	17805.38
440.433	17741.89
440.64	18393.15
440.847	18065.47
441.054	18536.51
441.261	19746.86
441.467	19636.27
441.674	19482.67
441.881	20822.04
442.088	20373.53
442.294	20355.1
442.501	21075.99
442.708	21241.87
442.914	22183.94
443.121	22976.5
443.328	22321.15
443.534	23887.85
443.741	23347.19
443.948	22747.13
444.154	24537.05
444.361	24448.99
444.568	24704.99
444.774	24690.65
444.981	24911.83
445.187	25810.89
445.394	26507.2
445.6	26177.48
445.807	28678.05
446.013	27658.16
446.22	27879.34
446.426	29128.6
446.633	29003.67
446.839	30304.13
447.046	28999.58
447.252	30543.75
447.459	30623.62
447.665	30750.59
447.871	31870.83
448.078	33165.15
448.284	31659.89
448.491	32614.24
448.697	33435.48
448.903	34168.65
449.11	34174.8
449.316	33703.76
449.522	34203.47
449.728	35161.92
449.935	35643.19
450.141	35659.57
450.347	36271.92
450.553	35039.04
450.76	35710.77
450.966	36439.85
451.172	36149.04
451.378	36855.59
451.584	36325.16
451.791	37037.86
451.997	36992.8
452.203	37578.52
452.409	37349.15
452.615	37300
452.821	35977.01
453.027	35637.05
453.233	37334.81
453.44	35966.77
453.646	36251.44
453.852	36562.73
454.058	36693.8
454.264	36038.45
454.47	36941.6
454.676	35786.55
454.882	36775.72
455.088	33441.62
455.294	33990.48
455.5	34395.98
455.705	34936.64
455.911	33769.3
456.117	32794.46
456.323	32597.86
456.529	30533.51
456.735	32094.06
456.941	31016.83
457.147	30574.47
457.352	29732.75
457.558	29319.06
457.764	29415.32
457.97	28917.66
458.176	28014.51
458.381	28336.04
458.587	26879.93
458.793	26560.45
458.999	25075.67
459.204	27023.29
459.41	26535.87
459.616	24799.19
459.821	24770.52
460.027	24737.76
460.233	24266.72
460.438	22962.17
460.644	23365.62
460.85	21850.12
461.055	21948.42
461.261	21778.44
461.466	19857.45
461.672	19546.16
461.878	21155.86
462.083	19896.36
462.289	19314.73
462.494	19050.55
462.7	18305.09
462.905	17827.91
463.111	18204.74
463.316	18468.92
463.522	17829.96
463.727	18217.02
463.932	17924.16
464.138	17887.3
464.343	18014.27
464.549	17395.79
464.754	17803.33
464.959	17913.92
465.165	17727.56
465.37	17012.82
465.575	16429.15
465.781	17170.51
465.986	17373.26
466.191	16560.22
466.397	16480.35
466.602	15540.33
466.807	16050.27
467.012	16220.25
467.218	15960.16
467.423	15816.8
467.628	16189.53
467.833	16592.98
468.038	16033.89
468.244	15577.19
468.449	16056.42
468.654	15280.24
468.859	15267.95
469.064	15386.73
469.269	14704.76
469.474	14960.75
469.679	15331.44
469.885	14719.09
470.09	14862.45
470.295	14960.75
470.5	14538.87
470.705	14661.75
470.91	14192.76
471.115	14375.03
471.32	14280.83
471.525	14338.17
471.73	14086.27
471.935	13863.04
472.139	13408.39
472.344	13531.27
472.549	13463.69
472.754	13316.23
472.959	12923.02
473.164	12771.47
473.369	12589.21
473.574	13226.12
473.778	12740.75
473.983	12695.7
474.188	12597.4
474.393	12204.19
474.598	12353.69
474.802	12159.13
475.007	12009.63
475.212	12152.99
475.417	11483.3
475.621	11684
475.826	11802.79
476.031	11499.69
476.235	11362.47
476.44	11380.9
476.645	11327.66
476.849	11278.51
477.054	11167.91
477.259	10547.38
477.463	10881.2
477.668	10602.68
477.872	10764.47
478.077	10610.87
478.282	10174.65
478.486	10354.87
478.691	10354.87
478.895	10125.5
479.1	10133.69
479.304	10027.2
479.509	9941.18
479.713	10162.36
479.918	9928.89
480.122	9609.41
480.326	9961.66
480.531	9785.54
480.735	9709.76
480.94	9642.18
481.144	9781.44
481.348	9246.92
481.553	9566.4
481.757	9441.48
481.961	9588.93
482.166	9638.08
482.37	9511.11
482.574	9441.48
482.778	9455.81
482.983	9443.53
483.187	9431.24
483.391	9621.7
483.595	9498.82
483.8	9054.41
484.004	9326.79
484.208	9466.05
484.412	9371.85
484.616	9308.36
484.821	9550.02
485.025	9224.39
485.229	9435.33
485.433	9191.63
485.637	9474.24
485.841	9054.41
486.045	9398.47
486.249	9312.46
486.453	9083.08
486.657	9279.69
486.861	9519.3
487.065	9175.24
487.269	9312.46
487.473	9081.03
487.677	9474.24
487.881	9433.29
488.085	9251.02
488.289	9406.66
488.493	9298.12
488.697	9492.68
488.901	9365.7
489.105	9359.56
489.309	9423.05
489.512	9597.12
489.716	9345.22
489.92	9617.6
490.124	9347.27
490.328	9687.23
490.531	9541.83
490.735	9662.66
490.939	9693.38
491.143	9502.92
491.346	9806.02
491.55	9763.01
491.754	9791.68
491.958	9937.09
492.161	9892.03
492.365	9797.82
492.569	10123.45
492.772	9834.69
492.976	9699.52
493.18	10184.89
493.383	10201.27
493.587	10141.88
493.79	10315.96
493.994	10338.49
494.197	10340.54
494.401	10574
494.605	10510.52
494.808	10582.2
495.012	10662.07
495.215	10729.65
495.419	10920.11
495.622	10705.07
495.825	10684.59
496.029	10967.21
496.232	11124.91
496.436	11126.96
496.639	11348.14
496.843	11395.24
497.046	11554.98
497.249	11847.84
497.453	11761.83
497.656	11774.11
497.859	12017.82
498.063	11974.81
498.266	12247.19
498.469	12187.8
498.673	12230.81
498.876	12632.21
499.079	12613.78
499.282	12662.93
499.485	13019.28
499.689	13197.45
499.892	13195.4
500.095	13244.56
500.298	13824.13
500.501	13600.9
500.705	13987.97
500.908	13955.2
501.111	13973.63
501.314	14143.61
501.517	14499.96
501.72	14770.29
501.923	14262.4
502.126	15173.74
502.329	15122.54
502.532	15022.19
502.735	15362.15
502.938	15603.82
503.141	15798.37
503.344	16162.91
503.547	16124
503.75	16220.25
503.953	16455.77
504.156	16762.97
504.359	16703.57
504.562	16855.12
504.765	17152.08
504.968	17358.92
505.17	17547.34
505.373	17561.67
505.576	18073.67
505.779	17991.75
505.982	18479.16
506.185	18729.02
506.387	18370.62
506.59	18937.91
506.793	19343.41
506.996	19056.69
507.198	19722.28
507.401	19519.53
507.604	19959.84
507.807	20410.4
508.009	20459.55
508.212	20424.73
508.415	20709.4
508.617	20967.45
508.82	21004.31
509.022	20957.21
509.225	21643.28
509.428	21585.93
509.63	22007.81
509.833	21995.53
510.035	23099.38
510.238	22652.92
510.44	22882.3
510.643	23492.59
510.845	23463.92
511.048	23353.33
511.25	23609.33
511.453	23621.61
511.655	24817.63
511.858	24262.63
512.06	24655.84
512.262	25053.14
512.465	24821.72
512.667	25259.99
512.87	25546.7
513.072	25782.22
513.274	26189.77
513.477	26347.46
513.679	26283.97
513.881	27205.56
514.084	27330.48
514.286	27404.21
514.488	27314.1
514.69	28458.92
514.893	28223.4
515.095	28389.28
515.297	28800.93
515.499	28944.28
515.701	29110.17
515.904	29255.57
516.106	29577.11
516.308	30041.99
516.51	30447.49
516.712	30353.29
516.914	30754.69
517.116	31364.98
517.318	31307.64
517.52	31672.18
517.722	31954.8
517.925	32055.15
518.127	32520.04
518.329	32776.03
518.531	32864.1
518.733	33539.93
518.935	33679.19
519.136	33632.08
519.338	34148.17
519.54	34391.88
519.742	34826.05
519.944	34973.5
520.146	35356.47
520.348	35667.77
520.55	35630.9
520.752	35981.1
520.954	36564.78
521.155	36343.59
521.357	37084.96
521.559	37437.21
521.761	37875.48
521.963	37723.93
522.164	37824.28
522.366	38227.73
522.568	38463.24
522.77	38684.42
522.971	38876.93
523.173	38872.84
523.375	39448.32
523.576	39372.54
523.778	39962.36
523.98	40097.52
524.181	40273.65
524.383	40646.38
524.584	41230.05
524.786	41621.21
524.988	41035.49
525.189	41432.8
525.391	41881.3
525.592	42274.51
525.794	42108.63
525.995	42370.77
526.197	42233.55
526.398	42327.76
526.6	42981.06
526.801	42745.55
527.003	43351.74
527.204	43351.74
527.406	43402.94
527.607	43773.63
527.808	44125.88
528.01	43404.99
528.211	43906.74
528.412	44979.88
528.614	44433.07
528.815	44981.93
529.016	45287.07
529.218	44592.81
529.419	45196.96
529.62	45022.89
529.822	45192.87
530.023	44551.85
530.224	45231.78
530.425	45311.65
530.626	45325.99
530.828	45084.33
531.029	46407.31
531.23	45545.12
531.431	45713.05
531.632	45844.12
531.833	45919.9
532.035	46147.22
532.236	46251.67
532.437	46638.73
532.638	45979.29
532.839	46050.97
533.04	46990.98
533.241	45983.38
533.442	47535.74
533.643	46345.87
533.844	46096.02
534.045	46593.68
534.246	46409.36
534.447	46651.02
534.648	46466.7
534.849	46892.68
535.05	46739.08
535.251	46671.5
535.451	46866.06
535.652	46970.5
535.853	46769.8
536.054	46716.56
536.255	47275.65
536.456	46890.63
536.657	46861.96
536.857	46522
537.058	46945.93
537.259	47146.63
537.46	46859.91
537.66	47263.36
537.861	46720.65
538.062	46958.22
538.263	46902.92
538.463	46818.95
538.664	46851.72
538.865	46622.35
539.065	47064.71
539.266	46945.93
539.466	47146.63
539.667	46313.11
539.868	47654.53
540.068	46585.49
540.269	46962.31
540.469	47140.49
540.67	46659.21
540.87	46886.54
541.071	47009.42
541.271	47533.7
541.472	47242.88
541.672	47029.9
541.873	47074.95
542.073	46376.59
542.274	47261.32
542.474	46886.54
542.675	46706.32
542.875	47154.82
543.075	46925.45
543.276	46507.66
543.476	46995.08
543.676	46847.63
543.877	47085.19
544.077	47105.67
544.277	46665.36
544.478	46519.95
544.678	46802.57
544.878	46429.84
545.078	46755.47
545.279	46468.75
545.479	46413.46
545.679	46663.31
545.879	46356.11
546.079	46691.98
546.28	46714.51
546.48	46685.84
546.68	46546.58
546.88	46773.9
547.08	46552.72
547.28	46259.86
547.48	46194.32
547.68	46778
547.88	46091.93
548.081	46880.39
548.281	46401.17
548.481	46671.5
548.681	46773.9
548.881	46517.9
549.081	46290.58
549.28	46655.12
549.48	47001.22
549.68	46448.27
549.88	46982.79
550.08	46560.91
550.28	46950.02
550.48	46413.46
550.68	46679.69
550.88	45975.19
551.08	45948.57
551.279	46343.83
551.479	45758.11
551.679	46141.08
551.879	46216.85
552.079	46790.28
552.278	46337.68
552.478	45944.47
552.678	46300.82
552.878	45967
553.077	46007.96
553.277	45696.67
553.477	46343.83
553.676	46053.01
553.876	45926.04
554.076	45862.55
554.275	45995.67
554.475	45344.42
554.674	46286.48
554.874	45944.47
555.074	45837.98
555.273	45719.2
555.473	46204.56
555.672	45579.93
555.872	45995.67
556.071	45543.07
556.271	45412
556.47	45131.43
556.67	45373.09
556.869	45477.54
557.068	45698.72
557.268	45024.93
557.467	45176.48
557.667	45104.81
557.866	44797.61
558.065	45123.24
558.265	45092.52
558.464	44504.75
558.663	45368.99
558.863	44070.58
559.062	45184.68
559.261	44508.85
559.461	45022.89
559.66	44029.62
559.859	44639.92
560.058	43894.46
560.258	44459.69
560.457	43988.66
560.656	44738.22
560.855	44041.91
561.054	44199.6
561.253	43800.25
561.453	44043.96
561.652	44013.24
561.851	44508.85
562.05	43466.43
562.249	43448
562.448	43830.97
562.647	43814.58
562.846	43370.18
563.045	43419.33
563.244	42688.2
563.443	43603.64
563.642	42610.38
563.841	43331.26
564.04	42763.98
564.239	43495.1
564.438	42415.82
564.637	42837.7
564.836	42948.29
565.035	42190.55
565.234	42329.81
565.432	41950.93
565.631	41942.74
565.83	42178.26
566.029	41813.72
566.228	41694.94
566.427	41834.2
566.625	41256.67
566.824	41078.5
567.023	41789.14
567.222	40922.85
567.42	41328.35
567.619	40885.99
567.818	41187.04
568.016	40898.28
568.215	40951.52
568.414	40496.88
568.612	41379.55
568.811	40212.21
569.01	40167.15
569.208	40158.96
569.407	40546.03
569.605	39589.63
569.804	40322.8
570.002	39786.23
570.201	40179.44
570.4	39519.99
570.598	39493.37
570.797	39188.22
570.995	39290.62
571.193	38956.8
571.392	39302.91
571.59	39069.44
571.789	38997.76
571.987	38985.47
572.186	38700.81
572.384	38709
572.582	38803.21
572.781	38493.96
572.979	38188.81
573.177	38534.92
573.376	38446.86
573.574	38176.53
573.772	38127.38
573.971	37713.69
574.169	37508.89
574.367	37355.29
574.565	37842.71
574.763	37580.57
574.962	37478.17
575.16	36675.37
575.358	37205.79
575.556	36912.93
575.754	37099.3
575.952	36562.73
576.151	37271.32
576.349	36540.2
576.547	36478.76
576.745	36585.26
576.943	36441.9
577.141	36357.93
577.339	36515.62
577.537	35895.09
577.735	36146.99
577.933	35718.96
578.131	35770.16
578.329	35790.64
578.527	35245.88
578.725	35620.66
578.923	35512.12
579.121	35309.37
579.319	35174.2
579.516	35297.08
579.714	35059.52
579.912	35245.88
580.11	34893.63
580.308	34953.02
580.506	34840.39
580.704	34080.59
580.901	34742.08
581.099	34578.25
581.297	34490.18
581.495	34051.92
581.692	34056.01
581.89	33640.28
582.088	34365.26
582.285	33738.58
582.483	34045.77
582.681	33707.86
582.878	33437.53
583.076	33310.55
583.274	33709.91
583.471	32927.58
583.669	33167.2
583.866	32898.91
584.064	33314.65
584.262	32694.11
584.459	33054.56
584.657	32515.94
584.854	33150.81
585.052	32294.76
585.249	32642.92
585.447	32036.72
585.644	31893.36
585.841	32427.88
586.039	32135.02
586.236	31688.56
586.434	31983.47
586.631	31631.22
586.828	32018.28
587.026	31717.23
587.223	32008.04
587.42	31371.13
587.618	31436.66
587.815	31096.7
588.012	30848.89
588.21	31111.03
588.407	31321.98
588.604	30709.63
588.801	30531.46
588.999	30652.29
589.196	30723.97
589.393	30599.04
589.59	30463.88
589.787	30160.78
589.984	30072.71
590.182	29673.36
590.379	30058.38
590.576	30048.14
590.773	30162.83
590.97	29968.27
591.167	29620.11
591.364	29349.78
591.561	29296.53
591.758	29306.77
591.955	29556.63
592.152	29542.29
592.349	29120.41
592.546	28952.48
592.743	29302.68
592.94	28829.6
593.137	28993.43
593.334	28936.09
593.531	28663.71
593.727	28442.53
593.924	28381.09
594.121	28143.53
594.318	28657.57
594.515	27994.03
594.712	28325.8
594.908	27994.03
595.105	28387.24
595.302	27785.13
595.499	27805.61
595.696	27652.02
595.892	27690.93
596.089	27699.12
596.286	27713.45
596.482	27373.49
596.679	27535.28
596.876	27430.83
597.072	27267
597.269	27621.3
597.466	27006.91
597.662	26695.61
597.859	26843.07
598.055	26783.68
598.252	26703.81
598.448	26482.63
598.645	26308.55
598.841	26304.45
599.038	26554.3
599.234	26283.97
599.431	26050.5
599.627	25946.06
599.824	26126.28
600.02	25831.37
600.217	25868.23
600.413	25724.88
600.609	25710.54
600.806	25501.65
601.002	25712.59
601.198	25251.8
601.395	25171.93
601.591	25159.64
601.787	25417.68
601.984	25167.83
602.18	25599.95
602.376	24940.5
602.572	25124.82
602.769	24868.83
602.965	24827.87
603.161	24584.16
603.357	24547.29
603.553	24367.07
603.75	24907.74
603.946	24317.92
604.142	24803.29
604.338	24061.93
604.534	24492
604.73	24190.95
604.926	23881.7
605.122	24369.12
605.318	23791.59
605.514	23898.09
605.71	23822.31
605.906	23689.2
606.102	23361.52
606.298	23597.04
606.494	23869.42
606.69	23695.34
606.886	23470.06
607.082	23236.59
607.278	23361.52
607.474	22792.19
607.67	23519.21
607.866	22781.95
608.062	23232.5
608.257	22878.2
608.453	23046.13
608.649	22968.31
608.845	22753.27
609.041	22697.98
609.236	22482.94
609.432	22585.34
609.628	22284.29
609.824	22315.01
610.019	22474.75
610.215	22704.12
610.411	22454.27
610.606	22183.94
610.802	22351.87
610.998	22159.36
611.193	22339.58
611.389	22237.19
611.584	22007.81
611.78	21925.89
611.976	21774.35
612.171	22085.64
612.367	21874.7
612.562	21874.7
612.758	21514.25
612.953	21516.3
613.149	22003.72
613.344	21602.32
613.539	21749.77
613.735	21837.83
613.93	21602.32
614.126	21356.56
614.321	21479.44
614.517	21540.88
614.712	21426.19
614.907	21104.66
615.103	21532.68
615.298	20967.45
615.493	21194.77
615.688	21260.3
615.884	21200.91
616.079	20967.45
616.274	21059.6
616.47	20713.5
616.665	20998.16
616.86	20897.81
617.055	20633.63
617.25	20672.54
617.445	21065.75
617.641	20555.8
617.836	20430.88
618.031	20394.01
618.226	20656.15
618.421	20498.46
618.616	20656.15
618.811	19978.28
619.006	20516.89
619.201	19652.65
619.396	19984.42
619.591	19712.04
619.786	20035.62
619.981	19769.38
620.176	19857.45
620.371	19230.77
620.566	19703.85
620.761	19439.66
620.956	19564.59
621.151	19175.47
621.346	19138.61
621.541	19259.44
621.735	19275.82
621.93	18917.43
622.125	18866.23
622.32	18608.19
622.515	18292.8
622.709	18712.63
622.904	18669.62
623.099	18425.92
623.294	18372.67
623.488	18022.47
623.683	18387
623.878	17854.53
624.072	18221.12
624.267	18042.95
624.462	17743.94
624.656	17608.78
624.851	17881.16
625.046	17340.49
625.24	17774.66
625.435	17311.82
625.629	17121.36
625.824	17107.02
626.018	17135.7
626.213	16732.25
626.407	16867.41
626.602	16623.7
626.796	16908.37
626.991	16848.98
627.185	16572.5
627.38	16539.74
627.574	16484.44
627.768	16267.36
627.963	16074.85
628.157	15921.25
628.352	16336.99
628.546	15655.01
628.74	16099.42
628.935	15652.97
629.129	15825
629.323	15818.85
629.517	15497.32
629.712	15591.53
629.906	15544.42
630.1	15368.3
630.294	15210.61
630.489	15280.24
630.683	15155.31
630.877	14960.75
631.071	14725.24
631.265	14936.18
631.459	14618.74
631.653	14899.31
631.848	14473.34
632.042	14680.18
632.236	14489.72
632.43	14350.46
632.624	14569.59
632.818	14129.28
633.012	14051.45
633.206	14227.58
633.4	14151.81
633.594	13975.68
633.788	14012.54
633.982	13930.62
634.176	13963.39
634.369	13783.17
634.563	13695.11
634.757	13518.98
634.951	13801.6
635.145	13666.44
635.339	13367.43
635.533	13064.33
635.726	13230.22
635.92	13258.89
636.114	13047.95
636.308	12828.82
636.501	13074.57
636.695	12834.96
636.889	12804.24
637.083	12564.63
637.276	12644.5
637.47	12599.45
637.664	12552.34
637.857	12435.61
638.051	12361.88
638.244	12325.02
638.438	12099.74
638.632	12439.7
638.825	12169.37
639.019	11968.67
639.212	11993.25
639.406	12001.44
639.599	11722.91
639.793	11808.93
639.986	11767.97
640.18	11718.82
640.373	11622.56
640.567	11452.58
640.76	11362.47
640.954	11452.58
641.147	11370.66
641.34	11255.98
641.534	11280.55
641.727	11215.02
641.92	11249.83
642.114	10836.14
642.307	11112.62
642.5	11006.13
642.694	10770.61
642.887	10780.85
643.08	10918.06
643.273	10750.13
643.467	10737.84
643.66	10512.56
643.853	10641.59
644.046	10404.02
644.239	10453.17
644.432	10375.35
644.626	10234.04
644.819	10330.3
645.012	10279.1
645.205	10186.94
645.398	10246.33
645.591	9994.43
645.784	10053.82
645.977	9971.9
646.17	9965.76
646.363	9709.76
646.556	9697.47
646.749	9832.64
646.942	9668.8
647.135	9646.27
647.328	9316.55
647.521	9425.09
647.714	9363.65
647.907	9445.57
648.099	9435.33
648.292	9441.48
648.485	9361.61
648.678	9269.45
648.871	9165
649.064	9220.3
649.256	9181.39
649.449	9031.88
649.642	8925.39
649.835	8843.47
650.027	8992.97
650.22	8822.99
650.413	8777.94
650.605	8794.32
650.798	8612.05
650.991	8581.33
651.183	8603.86
651.376	8644.82
651.568	8462.55
651.761	8429.78
651.954	8448.21
652.146	8507.6
652.339	8489.17
652.531	8243.42
652.724	8265.94
652.916	7995.61
653.109	8100.06
653.301	7887.07
653.494	8175.83
653.686	8046.81
653.879	8089.82
654.071	8065.24
654.263	7784.67
654.456	7889.12
654.648	7790.81
654.84	7862.49
655.033	7741.66
655.225	7792.86
655.417	7762.14
655.61	7663.84
655.802	7770.33
655.994	7596.26
656.186	7547.11
656.379	7569.63
656.571	7481.57
656.763	7311.59
656.955	7340.26
657.148	7338.21
657.34	7344.36
657.532	7135.46
657.724	7409.89
657.916	7299.3
658.108	7217.38
658.3	7258.34
658.492	7194.86
658.684	7055.59
658.876	6985.96
659.068	6922.48
659.26	6865.13
659.452	6983.91
659.644	6828.27
659.836	6861.04
660.028	7018.73
660.22	6582.51
660.412	6559.99
660.604	6588.66
660.796	6744.3
660.988	6697.2
661.18	6457.59
661.372	6779.12
661.563	6633.71
661.755	6541.55
661.947	6394.1
662.139	6621.42
662.331	6224.12
662.522	6154.49
662.714	6322.42
662.906	6177.02
663.097	6299.89
663.289	6230.26
663.481	5992.7
663.673	6252.79
663.864	6187.25
664.056	6125.82
664.247	6013.18
664.439	5998.84
664.631	6078.71
664.822	6047.99
665.014	6011.13
665.205	6078.71
665.397	5980.41
665.588	5910.78
665.78	5826.81
665.971	6013.18
666.163	6000.89
666.354	6027.51
666.546	5853.44
666.737	5742.85
666.929	5767.42
667.12	5751.04
667.311	5703.93
667.503	5654.78
667.694	5767.42
667.885	5615.87
668.077	5726.46
668.268	5519.62
668.459	5558.53
668.651	5554.43
668.842	5415.17
669.033	5368.07
669.224	5382.4
669.416	5437.7
669.607	5501.19
669.798	5255.43
669.989	5280
670.18	5357.83
670.371	5269.76
670.563	5327.11
670.754	5267.72
670.945	5363.97
671.136	5382.4
671.327	5159.17
671.518	5159.17
671.709	5239.05
671.9	5290.24
672.091	5032.2
672.282	5077.26
672.473	5107.98
672.664	5216.52
672.855	5105.93
673.046	5142.79
673.237	5118.22
673.428	5116.17
673.619	4991.24
673.809	5083.4
674	5058.82
674.191	5073.16
674.382	5062.92
674.573	4913.42
674.764	4985.1
674.954	5153.03
675.145	5050.63
675.336	4968.71
675.527	4862.22
675.717	4890.89
675.908	4755.72
676.099	4862.22
676.289	4866.32
676.48	4727.05
676.671	4886.79
676.861	4931.85
677.052	4632.85
677.243	4813.07
677.433	4729.1
677.624	4880.65
677.814	4786.44
678.005	4692.24
678.195	4671.76
678.386	4804.88
678.576	4782.35
678.767	4784.4
678.957	4825.36
679.148	4718.86
679.338	4915.47
679.529	4747.53
679.719	4653.33
679.909	4882.7
680.1	4718.86
680.29	4702.48
680.481	4743.44
680.671	4784.4
680.861	4694.29
681.052	4782.35
681.242	4792.59
681.432	4755.72
681.622	4712.72
681.813	4616.46
682.003	4700.43
682.193	4747.53
682.383	4659.47
682.573	4819.21
682.764	4700.43
682.954	4604.18
683.144	4577.55
683.334	4636.94
683.524	4741.39
683.714	4497.68
683.904	4704.53
684.094	4684.05
684.284	4567.31
684.474	4563.22
684.664	4641.04
684.854	4544.78
685.044	4479.25
685.234	4456.72
685.424	4589.84
685.614	4405.52
685.804	4358.42
685.994	4430.1
686.184	4595.98
686.374	4477.2
686.564	4256.02
686.753	4407.57
686.943	4301.08
687.133	4350.23
687.323	4395.28
687.513	4471.06
687.702	4333.84
687.892	4356.37
688.082	4225.3
688.272	4339.99
688.461	4346.13
688.651	4325.65
688.841	4208.92
689.03	4305.17
689.22	4200.73
689.41	4170.01
689.599	4225.3
689.789	4129.05
689.979	4182.29
690.168	4077.85
690.358	3926.3
690.547	3989.78
690.737	4190.49
690.926	4018.46
691.116	3911.96
691.305	4051.22
691.495	4067.61
691.684	3940.63
691.874	4020.5
692.063	4059.42
692.252	3926.3
692.442	4055.32
692.631	3971.35
692.82	3920.15
693.01	3942.68
693.199	4040.98
693.388	3735.84
693.578	3881.24
693.767	3737.88
693.956	3842.33
694.146	3965.21
694.335	3899.67
694.524	3797.28
694.713	3832.09
694.902	3815.71
695.092	3813.66
695.281	3772.7
695.47	3764.51
695.659	3774.75
695.848	3715.36
696.037	3612.96
696.226	3731.74
696.415	3703.07
696.604	3770.65
696.793	3684.64
696.982	3655.97
697.171	3920.15
697.36	3809.56
697.549	3797.28
697.738	3668.25
697.927	3674.4
698.116	3768.6
698.305	3744.03
698.494	3666.21
698.683	3801.37
698.872	3674.4
699.061	3565.85
699.25	3619.1
699.438	3621.15
699.627	3539.23
699.816	3565.85
700.005	3694.88
700.193	3528.99
700.382	3516.7
700.571	3627.29
700.76	3594.53
700.948	3602.72
701.137	3588.38
701.326	3606.81
701.514	3633.44
701.703	3696.92
701.892	3510.56
702.08	3711.26
702.269	3526.94
702.457	3518.75
702.646	3584.29
702.834	3592.48
703.023	3535.14
703.212	3485.98
703.4	3639.58
703.589	3551.52
703.777	3692.83
703.965	3539.23
704.154	3545.38
704.342	3477.79
704.531	3666.21
704.719	3485.98
704.907	3647.77
705.096	3551.52
705.284	3520.8
705.472	3549.47
705.661	3518.75
705.849	3584.29
706.037	3688.73
706.226	3619.1
706.414	3594.53
706.602	3504.42
706.79	3563.81
706.979	3510.56
707.167	3449.12
707.355	3502.37
707.543	3512.61
707.731	3537.18
707.919	3537.18
708.107	3502.37
708.296	3518.75
708.484	3602.72
708.672	3436.83
708.86	3551.52
709.048	3563.81
709.236	3580.19
709.424	3586.33
709.612	3574.05
709.8	3483.94
709.988	3479.84
710.176	3711.26
710.364	3551.52
710.551	3483.94
710.739	3506.46
710.927	3471.65
711.115	3408.16
711.303	3584.29
711.491	3557.66
711.679	3688.73
711.866	3531.04
712.054	3498.27
712.242	3531.04
712.43	3731.74
712.617	3557.66
712.805	3629.34
712.993	3539.23
713.181	3504.42
713.368	3690.78
713.556	3567.9
713.744	3526.94
713.931	3709.21
714.119	3524.9
714.306	3653.92
714.494	3526.94
714.682	3520.8
714.869	3496.22
715.057	3676.45
715.244	3473.7
715.432	3615.01
715.619	3481.89
715.807	3496.22
715.994	3524.9
716.182	3531.04
716.369	3492.13
716.556	3596.57
716.744	3475.74
716.931	3502.37
717.119	3653.92
717.306	3561.76
717.493	3547.42
717.681	3686.69
717.868	3541.28
718.055	3576.09
718.242	3557.66
718.43	3617.05
718.617	3440.93
718.804	3463.46
718.991	3483.94
719.179	3590.43
719.366	3623.2
719.553	3596.57
719.74	3402.02
719.927	3559.71
720.114	3524.9
720.301	3674.4
720.488	3590.43
720.676	3606.81
720.863	3537.18
721.05	3592.48
721.237	3500.32
721.424	3508.51
721.611	3526.94
721.798	3533.09
721.985	3463.46
722.172	3606.81
722.358	3432.74
722.545	3586.33
722.732	3485.98
722.919	3617.05
723.106	3492.13
723.293	3442.98
723.48	3535.14
723.667	3473.7
723.853	3485.98
724.04	3600.67
724.227	3428.64
724.414	3311.91
724.6	3545.38
724.787	3436.83
724.974	3555.62
725.161	3457.31
725.347	3502.37
725.534	3479.84
725.72	3414.31
725.907	3424.55
726.094	3436.83
726.28	3352.87
726.467	3320.1
726.653	3227.94
726.84	3432.74
727.027	3477.79
727.213	3340.58
727.4	3373.35
727.586	3477.79
727.773	3465.5
727.959	3467.55
728.145	3498.27
728.332	3381.54
728.518	3379.49
728.705	3514.66
728.891	3354.91
729.077	3367.2
729.264	3381.54
729.45	3414.31
729.636	3387.68
729.823	3363.11
730.009	3299.62
730.195	3344.67
730.382	3389.73
730.568	3504.42
730.754	3352.87
730.94	3379.49
731.126	3412.26
731.313	3365.15
731.499	3328.29
731.685	3367.2
731.871	3354.91
732.057	3528.99
732.243	3342.63
732.429	3252.52
732.615	3418.4
732.801	3393.83
732.987	3301.67
733.173	3338.53
733.359	3336.48
733.545	3324.19
733.731	3375.39
733.917	3428.64
734.103	3328.29
734.289	3301.67
734.475	3195.17
734.661	3399.97
734.847	3193.12
735.033	3354.91
735.219	3227.94
735.404	3227.94
735.59	3340.58
735.776	3287.33
735.962	3309.86
736.148	3275.04
736.333	3186.98
736.519	3201.32
736.705	3291.43
736.89	3191.08
737.076	3277.09
737.262	3201.32
737.447	3213.6
737.633	3215.65
737.819	3203.36
738.004	3047.72
738.19	3029.29
738.375	3209.51
738.561	3158.31
738.747	3217.7
738.932	3080.49
739.118	3121.45
739.303	3027.24
739.489	3107.11
739.674	3100.97
739.859	3203.36
740.045	3105.06
740.23	3199.27
740.416	3150.12
740.601	3135.78
740.786	2963.75
740.972	3074.34
741.157	3154.21
741.342	3047.72
741.528	2902.31
741.713	2994.47
741.898	2969.9
742.084	3066.15
742.269	3084.58
742.454	2959.66
742.639	3014.95
742.824	2990.38
743.01	3066.15
743.195	2945.32
743.38	2904.36
743.565	2945.32
743.75	2947.37
743.935	2883.88
744.12	2941.22
744.305	2769.2
744.49	2943.27
744.675	2883.88
744.86	2861.35
745.045	2744.62
745.23	2732.33
745.415	2685.23
745.6	2699.56
745.785	2740.52
745.97	2761
746.155	2808.11
746.34	2744.62
746.525	2660.65
746.71	2806.06
746.895	2691.37
747.079	2552.11
747.264	2574.64
747.449	2607.41
747.634	2705.71
747.819	2576.69
748.003	2484.53
748.188	2433.33
748.373	2439.47
748.557	2636.08
748.742	2423.09
748.927	2429.23
749.111	2449.71
749.296	2576.69
749.481	2425.14
749.665	2347.31
749.85	2367.79
750.034	2316.59
750.219	2296.11
750.404	2390.32
750.588	2269.49
750.773	2306.35
750.957	2222.39
751.141	2292.02
751.326	2240.82
751.51	2273.59
751.695	2277.68
751.879	2064.69
752.064	2269.49
752.248	2124.08
752.432	2265.39
752.617	2210.1
752.801	2054.45
752.985	2076.98
753.17	1913.14
753.354	2154.8
753.538	2029.88
753.722	2023.73
753.907	1999.16
754.091	1931.58
754.275	1978.68
754.459	1990.97
754.643	1954.1
754.828	2023.73
755.012	1882.42
755.196	1960.25
755.38	2091.32
755.564	1868.09
755.748	1790.27
755.932	1808.7
756.116	1837.37
756.3	1833.27
756.484	1839.42
756.668	1855.8
756.852	1786.17
757.036	1794.36
757.22	1853.75
757.404	1835.32
757.588	1751.35
757.772	1730.87
757.956	1726.78
758.14	1818.94
758.323	1708.35
758.507	1747.26
758.691	1657.15
758.875	1698.11
759.059	1728.83
759.242	1739.07
759.426	1648.96
759.61	1640.76
759.794	1511.74
759.977	1605.95
760.161	1608
760.345	1573.18
760.528	1622.33
760.712	1562.94
760.895	1720.64
761.079	1595.71
761.263	1456.45
761.446	1425.73
761.63	1515.84
761.813	1483.07
761.997	1462.59
762.18	1521.98
762.364	1528.13
762.547	1476.93
762.731	1386.82
762.914	1456.45
763.098	1427.78
763.281	1511.74
763.464	1474.88
763.648	1470.78
763.831	1360.19
764.015	1427.78
764.198	1464.64
764.381	1440.06
764.564	1354.05
764.748	1468.73
764.931	1499.45
765.114	1392.96
765.297	1440.06
765.481	1311.04
765.664	1401.15
765.847	1397.06
766.03	1407.3
766.213	1315.14
766.397	1319.23
766.58	1241.41
766.763	1327.43
766.946	1302.85
767.129	1327.43
767.312	1245.51
767.495	1186.12
767.678	1231.17
767.861	1317.19
768.044	1284.42
768.227	1208.64
768.41	1206.59
768.593	1333.57
768.776	1227.07
768.959	1208.64
769.142	1245.51
769.324	1235.27
769.507	1204.55
769.69	1104.2
769.873	1190.21
770.056	1247.55
770.239	1218.88
770.421	1202.5
770.604	1153.35
770.787	1204.55
770.97	1151.3
771.152	1143.11
771.335	1139.01
771.518	1110.34
771.7	1141.06
771.883	1063.24
772.066	1206.59
772.248	1114.44
772.431	1091.91
772.613	1073.48
772.796	1065.29
772.978	1081.67
773.161	1179.97
773.343	1077.57
773.526	1042.76
773.708	1071.43
773.891	1024.33
774.073	1036.61
774.256	1018.18
774.438	1102.15
774.621	962.89
774.803	983.37
774.985	917.83
775.168	1057.09
775.35	983.37
775.532	1034.57
775.715	1014.09
775.897	954.69
776.079	821.58
776.261	856.39
776.444	934.22
776.626	842.06
776.808	889.16
776.99	958.79
777.173	964.93
777.355	852.3
777.537	942.41
777.719	887.11
777.901	825.67
778.083	846.15
778.265	831.82
778.447	874.82
778.629	751.95
778.811	846.15
778.993	842.06
779.175	739.66
779.357	835.91
779.539	803.15
779.721	825.67
779.903	747.85
780.085	778.57
780.267	737.61
780.449	745.8
780.631	782.67
780.812	866.63
780.994	735.56
781.176	729.42
781.358	749.9
781.54	692.55
781.721	831.82
781.903	676.17
782.085	651.6
782.267	751.95
782.448	618.83
782.63	788.81
782.812	702.79
782.993	637.26
783.175	743.75
783.357	690.51
783.538	614.73
783.72	735.56
783.901	723.27
784.083	698.7
784.264	604.49
784.446	579.92
784.627	581.96
784.809	678.22
784.99	616.78
785.172	653.64
785.353	590.16
785.535	596.3
785.716	713.03
785.897	575.82
786.079	653.64
786.26	563.53
786.441	608.59
786.623	594.25
786.804	510.29
786.985	594.25
787.167	594.25
787.348	590.16
787.529	590.16
787.71	629.07
787.891	508.24
788.073	506.19
788.254	547.15
788.435	561.48
788.616	553.29
788.797	520.53
788.978	485.71
789.159	536.91
789.34	536.91
789.522	573.77
789.703	551.24
789.884	571.72
790.065	477.52
790.246	536.91
790.427	514.38
790.607	598.35
790.788	555.34
790.969	467.28
791.15	528.72
791.331	504.14
791.512	430.41
791.693	459.09
791.874	475.47
792.054	534.86
792.235	536.91
792.416	481.61
792.597	498
792.778	438.61
792.958	465.23
793.139	434.51
793.32	520.53
793.5	498
793.681	475.47
793.862	473.42
794.042	405.84
794.223	426.32
794.404	457.04
794.584	379.22
794.765	454.99
794.945	401.74
795.126	422.22
795.306	461.13
795.487	422.22
795.667	448.85
795.848	371.02
796.028	422.22
796.209	498
796.389	422.22
796.57	397.65
796.75	356.69
796.93	360.78
797.111	338.26
797.291	377.17
797.471	422.22
797.652	338.26
797.832	344.4
798.012	416.08
798.192	368.98
798.373	336.21
798.553	375.12
798.733	338.26
798.913	364.88
799.093	319.82
799.274	459.09
799.454	358.74
799.634	364.88
799.814	360.78
799.994	352.59
800.174	315.73
800.354	375.12
800.534	211.28
800.714	354.64
800.894	315.73
801.074	303.44
801.254	291.15
801.434	344.4
801.614	344.4
801.794	287.06
801.974	817.48
802.154	287.06
802.334	371.02
802.514	381.26
802.693	313.68
802.873	229.71
803.053	422.22
803.233	260.43
803.413	317.78
803.592	270.67
803.772	291.15
803.952	254.29
804.131	209.23
804.311	293.2
804.491	319.82
804.67	270.67
804.85	266.58
805.03	344.4
805.209	344.4
805.389	205.14
805.568	313.68
805.748	182.61
805.928	299.34
806.107	391.5
806.287	264.53
806.466	340.3
806.646	287.06
806.825	231.76
807.004	237.91
807.184	244.05
807.363	272.72
807.543	178.51
807.722	282.96
807.901	270.67
808.081	291.15
808.26	168.27
808.439	272.72
808.619	282.96
808.798	227.67
808.977	285.01
809.156	246.1
809.336	264.53
809.515	192.85
809.694	194.9
809.873	250.19
810.052	287.06
810.231	246.1
810.411	311.63
810.59	186.71
810.769	278.87
810.948	262.48
811.127	227.67
811.306	225.62
811.485	209.23
811.664	289.1
811.843	227.67
812.022	219.47
812.201	237.91
812.38	221.52
812.559	246.1
812.737	180.56
812.916	192.85
813.095	293.2
813.274	221.52
813.453	192.85
813.632	205.14
813.811	205.14
813.989	242
814.168	209.23
814.347	194.9
814.526	242
814.704	303.44
814.883	231.76
815.062	180.56
815.24	186.71
815.419	190.8
815.598	225.62
815.776	301.39
815.955	180.56
816.133	164.18
816.312	256.34
816.49	172.37
816.669	137.56
816.847	170.32
817.026	196.95
817.204	217.43
817.383	225.62
817.561	178.51
817.74	186.71
817.918	229.71
818.097	227.67
818.275	205.14
818.453	231.76
818.632	194.9
818.81	201.04
818.988	164.18
819.167	201.04
819.345	184.66
819.523	201.04
819.701	239.95
819.879	143.7
820.058	196.95
820.236	221.52
820.414	207.19
820.592	125.27
820.77	168.27
820.948	164.18
821.127	151.89
821.305	129.36
821.483	119.12
821.661	176.47
821.839	155.99
822.017	106.84
822.195	162.13
822.373	182.61
822.551	215.38
822.729	203.09
822.907	205.14
823.085	205.14
823.262	147.8
823.44	135.51
823.618	112.98
823.796	129.36
823.974	96.6
824.152	155.99
824.329	106.84
824.507	96.6
824.685	131.41
824.863	160.08
825.04	168.27
825.218	207.19
825.396	170.32
825.574	110.93
825.751	168.27
825.929	158.03
826.107	74.07
826.284	162.13
826.462	192.85
826.639	121.17
826.817	155.99
826.994	127.32
827.172	98.64
827.349	186.71
827.527	176.47
827.704	131.41
827.882	141.65
828.059	121.17
828.237	145.75
828.414	174.42
828.591	119.12
828.769	127.32
828.946	94.55
829.124	92.5
829.301	209.23
829.478	180.56
829.655	112.98
829.833	151.89
830.01	82.26
830.187	117.08
830.364	98.64
830.542	94.55
830.719	170.32
830.896	133.46
831.073	129.36
831.25	76.12
831.427	98.64
831.604	88.4
831.782	119.12
831.959	96.6
832.136	78.16
832.313	96.6
832.49	196.95
832.667	184.66
832.844	135.51
833.021	108.88
833.198	121.17
833.374	151.89
833.551	90.45
833.728	98.64
833.905	106.84
834.082	112.98
834.259	125.27
834.436	133.46
834.612	135.51
834.789	123.22
834.966	31.06
835.143	158.03
835.319	86.36
835.496	119.12
835.673	188.75
835.85	74.07
836.026	180.56
836.203	137.56
836.38	80.21
836.556	35.16
836.733	141.65
836.909	141.65
837.086	37.2
837.262	90.45
837.439	106.84
837.616	123.22
837.792	33.11
837.968	82.26
838.145	96.6
838.321	2.39
838.498	82.26
838.674	104.79
838.851	65.88
839.027	39.25
839.203	92.5
839.38	104.79
839.556	35.16
839.732	49.49
839.909	106.84
840.085	88.4
840.261	115.03
840.437	63.83
840.614	69.97
840.79	121.17
840.966	125.27
841.142	106.84
841.318	35.16
841.494	102.74
841.671	123.22
841.847	37.2
842.023	69.97
842.199	125.27
842.375	37.2
842.551	59.73
842.727	88.4
842.903	88.4
843.079	10.58
843.255	78.16
843.431	92.5
843.607	74.07
843.783	33.11
843.959	61.78
844.134	24.92
844.31	74.07
844.486	31.06
844.662	94.55
844.838	90.45
845.013	53.59
845.189	78.16
845.365	90.45
845.541	39.25
845.716	37.2
845.892	84.31
846.068	55.64
846.244	39.25
846.419	98.64
846.595	104.79
846.77	100.69
846.946	158.03
847.122	69.97
847.297	86.36
847.473	47.44
847.648	-28.33
847.824	90.45
847.999	-34.47
848.175	49.49
848.35	49.49
848.526	92.5
848.701	37.2
848.876	76.12
849.052	69.97
849.227	51.54
849.403	61.78
849.578	90.45
849.753	67.92
849.929	69.97
850.104	47.44
850.279	82.26
850.454	88.4
850.63	78.16
850.805	82.26
850.98	76.12
851.155	55.64
851.33	29.01
851.505	135.51
851.681	117.08
851.856	123.22
852.031	72.02
852.206	57.68
852.381	80.21
852.556	102.74
852.731	72.02
852.906	84.31
853.081	-5.8
853.256	90.45
853.431	-7.85
853.606	61.78
853.781	74.07
853.956	59.73
854.131	74.07
854.305	14.68
854.48	33.11
854.655	39.25
854.83	26.96
855.005	26.96
855.18	63.83
855.354	164.18
855.529	12.63
855.704	53.59
855.879	37.2
856.053	80.21
856.228	67.92
856.403	-52.91
856.577	65.88
856.752	16.73
856.926	37.2
857.101	45.4
857.276	16.73
857.45	8.53
857.625	72.02
857.799	29.01
857.974	53.59
858.148	-24.23
858.323	61.78
858.497	20.82
858.672	53.59
858.846	14.68
859.02	74.07
859.195	18.77
859.369	117.08
859.543	45.4
859.718	26.96
859.892	37.2
860.066	-9.9
860.241	-3.75
860.415	10.58
860.589	57.68
860.763	-5.8
860.938	31.06
861.112	33.11
861.286	96.6
861.46	76.12
861.634	12.63
861.808	121.17
861.982	24.92
862.157	6.49
862.331	-3.75
862.505	39.25
862.679	-13.99
862.853	41.3
863.027	14.68
863.201	41.3
863.375	22.87
863.549	49.49
863.722	41.3
863.896	26.96
864.07	-7.85
864.244	63.83
864.418	35.16
864.592	57.68
864.766	-11.95
864.939	16.73
865.113	39.25
865.287	33.11
865.461	-22.19
865.634	57.68
865.808	-7.85
865.982	41.3
866.156	45.4
866.329	-50.86
866.503	121.17
866.676	55.64
866.85	18.77
867.024	24.92
867.197	115.03
867.371	4.44
867.544	92.5
867.718	51.54
867.891	76.12
868.065	-7.85
868.238	0.34
868.412	41.3
868.585	51.54
868.759	45.4
868.932	59.73
869.105	-36.52
869.279	29.01
869.452	0.34
869.625	4.44
869.799	47.44
869.972	-32.43
870.145	76.12
870.319	104.79
870.492	94.55
870.665	-50.86
870.838	72.02
871.011	29.01
871.185	-9.9
871.358	59.73
871.531	41.3
871.704	20.82
871.877	12.63
872.05	-79.53
872.223	-7.85
872.396	100.69
872.569	115.03
872.742	14.68
872.915	45.4
873.088	-91.82
873.261	57.68
873.434	47.44
873.607	108.88
873.78	31.06
873.953	29.01
874.126	18.77
874.299	29.01
874.471	6.49
874.644	41.3
874.817	57.68
874.99	57.68
875.163	-5.8
875.335	65.88
875.508	8.53
875.681	121.17
875.853	8.53
876.026	-3.75
876.199	12.63
876.371	137.56
876.544	39.25
876.717	37.2
876.889	-18.09
877.062	112.98
877.234	-50.86
877.407	29.01
877.579	37.2
877.752	37.2
877.924	-13.99
878.097	61.78
878.269	29.01
878.442	-3.75
878.614	37.2
878.786	55.64
878.959	45.4
879.131	22.87
879.303	24.92
879.476	-16.04
879.648	39.25
879.82	20.82
879.993	-16.04
880.165	-1.71
880.337	29.01
880.509	4.44
880.681	55.64
880.854	-7.85
881.026	-48.81
881.198	72.02
881.37	22.87
881.542	39.25
881.714	-40.62
881.886	10.58
882.058	22.87
882.23	45.4
882.402	49.49
882.574	-38.57
882.746	-9.9
882.918	-50.86
883.09	39.25
883.262	31.06
883.434	26.96
883.606	-26.28
883.778	24.92
883.95	86.36
884.122	22.87
884.293	78.16
884.465	72.02
884.637	57.68
884.809	-9.9
884.98	92.5
885.152	43.35
885.324	6.49
885.496	69.97
885.667	0.34
885.839	8.53
886.011	12.63
886.182	-44.71
886.354	67.92
886.525	-3.75
886.697	6.49
886.869	49.49
887.04	18.77
887.212	69.97
887.383	69.97
887.555	45.4
887.726	57.68
887.897	74.07
888.069	16.73
888.24	82.26
888.412	10.58
888.583	0.34
888.754	-30.38
888.926	-7.85
889.097	26.96
889.268	-20.14
889.44	4.44
889.611	24.92
889.782	20.82
889.953	-1.71
890.125	-3.75
890.296	-5.8
890.467	22.87
890.638	88.4
890.809	53.59
890.98	20.82
891.151	-11.95
891.323	80.21
891.494	0.34
891.665	49.49
891.836	53.59
892.007	8.53
892.178	-11.95
892.349	-18.09
892.52	-40.62
892.691	-26.28
892.862	45.4
893.032	33.11
893.203	0.34
893.374	6.49
893.545	86.36
893.716	8.53
893.887	100.69
894.057	-18.09
894.228	37.2
894.399	-83.63
894.57	4.44
894.74	-11.95
894.911	57.68
895.082	-54.95
895.253	31.06
895.423	41.3
895.594	24.92
895.764	24.92
895.935	35.16
896.106	74.07
896.276	37.2
896.447	10.58
896.617	-16.04
896.788	-34.47
896.958	29.01
897.129	-44.71
897.299	-1.71
897.47	12.63
897.64	104.79
897.81	26.96
897.981	74.07
898.151	-75.43
898.322	63.83
898.492	-57
898.662	18.77
898.832	-36.52
899.003	72.02
899.173	24.92
899.343	8.53
899.513	-5.8
