Data from USB4F104151__241__10-30-36-809.txt Node

Date: Wed Mar 12 10:30:36 EDT 2025
User: louis
Spectrometer: USB4F10415
Trigger mode: 4
Integration Time (sec): 3.000000E-2
Scans to average: 1
Electric dark correction enabled: true
Nonlinearity correction enabled: false
Boxcar width: 0
XAxis mode: Wavelengths
Number of Pixels in Spectrum: 3648
>>>>>Begin Spectral Data<<<<<
178.204	-93.35
178.424	-93.35
178.644	-93.35
178.864	-177.32
179.084	-154.79
179.304	-38.06
179.524	31.57
179.744	-21.67
179.964	-13.48
180.184	37.72
180.404	13.14
180.624	9.05
180.844	-3.24
181.064	-52.39
181.283	45.91
181.503	-9.39
181.723	0.85
181.943	-23.72
182.163	17.24
182.383	23.38
182.602	35.67
182.822	4.95
183.042	2.9
183.262	29.52
183.482	109.4
183.701	-62.63
183.921	-9.39
184.141	-72.87
184.361	88.92
184.58	-17.58
184.8	7
185.02	23.38
185.239	50
185.459	13.14
185.679	-44.2
185.898	-27.82
186.118	0.85
186.338	56.15
186.557	-1.19
186.777	60.24
186.997	-5.29
187.216	50
187.436	88.92
187.655	23.38
187.875	76.63
188.095	21.33
188.314	19.29
188.534	21.33
188.753	4.95
188.973	29.52
189.192	70.48
189.412	-17.58
189.631	78.68
189.851	25.43
190.07	70.48
190.29	-9.39
190.509	15.19
190.729	-11.43
190.948	78.68
191.168	129.88
191.387	17.24
191.607	23.38
191.826	52.05
192.045	-3.24
192.265	-15.53
192.484	50
192.704	-79.02
192.923	7
193.142	93.01
193.362	113.49
193.581	35.67
193.8	101.2
194.02	35.67
194.239	-33.96
194.458	47.96
194.678	37.72
194.897	11.09
195.116	9.05
195.335	-21.67
195.555	-17.58
195.774	56.15
195.993	-7.34
196.212	11.09
196.432	-1.19
196.651	2.9
196.87	0.85
197.089	45.91
197.308	68.44
197.528	37.72
197.747	29.52
197.966	-25.77
198.185	-5.29
198.404	-15.53
198.623	29.52
198.842	11.09
199.062	11.09
199.281	66.39
199.5	-31.91
199.719	56.15
199.938	21.33
200.157	72.53
200.376	25.43
200.595	11.09
200.814	115.54
201.033	39.76
201.252	47.96
201.471	-17.58
201.69	56.15
201.909	9.05
202.128	2.9
202.347	35.67
202.566	7
202.785	-17.58
203.004	-46.25
203.223	43.86
203.442	-19.63
203.661	41.81
203.879	-25.77
204.098	113.49
204.317	37.72
204.536	54.1
204.755	-74.92
204.974	56.15
205.193	68.44
205.411	111.44
205.63	7
205.849	43.86
206.068	-1.19
206.287	76.63
206.505	2.9
206.724	43.86
206.943	-58.54
207.162	11.09
207.381	7
207.599	-38.06
207.818	21.33
208.037	60.24
208.255	37.72
208.474	-25.77
208.693	2.9
208.911	0.85
209.13	21.33
209.349	37.72
209.567	101.2
209.786	15.19
210.005	17.24
210.223	-5.29
210.442	-58.54
210.661	29.52
210.879	31.57
211.098	62.29
211.316	-38.06
211.535	2.9
211.753	54.1
211.972	-31.91
212.191	-58.54
212.409	-13.48
212.628	47.96
212.846	-29.87
213.065	-11.43
213.283	66.39
213.502	-25.77
213.72	-42.15
213.938	29.52
214.157	29.52
214.375	25.43
214.594	25.43
214.812	0.85
215.031	-1.19
215.249	27.48
215.467	2.9
215.686	11.09
215.904	60.24
216.122	13.14
216.341	37.72
216.559	9.05
216.778	68.44
216.996	52.05
217.214	-36.01
217.432	109.4
217.651	25.43
217.869	43.86
218.087	15.19
218.306	2.9
218.524	-9.39
218.742	62.29
218.96	17.24
219.179	56.15
219.397	113.49
219.615	37.72
219.833	-19.63
220.051	4.95
220.27	60.24
220.488	7
220.706	21.33
220.924	15.19
221.142	88.92
221.36	0.85
221.578	43.86
221.796	9.05
222.015	7
222.233	68.44
222.451	39.76
222.669	7
222.887	19.29
223.105	31.57
223.323	7
223.541	-7.34
223.759	-3.24
223.977	-13.48
224.195	78.68
224.413	0.85
224.631	-33.96
224.849	-36.01
225.067	72.53
225.285	47.96
225.503	19.29
225.721	-25.77
225.939	97.11
226.157	56.15
226.375	68.44
226.592	-27.82
226.81	15.19
227.028	31.57
227.246	93.01
227.464	35.67
227.682	29.52
227.9	54.1
228.117	33.62
228.335	-27.82
228.553	52.05
228.771	33.62
228.989	76.63
229.206	19.29
229.424	-36.01
229.642	-52.39
229.86	7
230.077	-9.39
230.295	33.62
230.513	35.67
230.731	37.72
230.948	54.1
231.166	-42.15
231.384	15.19
231.601	11.09
231.819	47.96
232.037	21.33
232.254	-11.43
232.472	27.48
232.689	7
232.907	23.38
233.125	7
233.342	43.86
233.56	47.96
233.777	-17.58
233.995	43.86
234.213	35.67
234.43	-5.29
234.648	15.19
234.865	9.05
235.083	-5.29
235.3	-23.72
235.518	60.24
235.735	56.15
235.953	90.96
236.17	-31.91
236.388	-9.39
236.605	2.9
236.822	19.29
237.04	7
237.257	27.48
237.475	-72.87
237.692	-3.24
237.909	54.1
238.127	-11.43
238.344	23.38
238.562	-36.01
238.779	-60.59
238.996	9.05
239.214	25.43
239.431	4.95
239.648	-1.19
239.865	86.87
240.083	27.48
240.3	-5.29
240.517	62.29
240.735	39.76
240.952	50
241.169	111.44
241.386	15.19
241.603	-60.59
241.821	58.2
242.038	107.35
242.255	88.92
242.472	31.57
242.689	39.76
242.907	95.06
243.124	31.57
243.341	-3.24
243.558	-27.82
243.775	-5.29
243.992	-60.59
244.209	35.67
244.426	50
244.643	80.72
244.86	23.38
245.078	60.24
245.295	-50.35
245.512	-58.54
245.729	-7.34
245.946	54.1
246.163	72.53
246.38	45.91
246.597	-3.24
246.814	80.72
247.031	-44.2
247.248	9.05
247.464	11.09
247.681	11.09
247.898	88.92
248.115	-3.24
248.332	-15.53
248.549	45.91
248.766	50
248.983	64.34
249.2	76.63
249.417	62.29
249.633	-3.24
249.85	23.38
250.067	50
250.284	-17.58
250.501	-25.77
250.717	9.05
250.934	23.38
251.151	17.24
251.368	-5.29
251.585	15.19
251.801	33.62
252.018	13.14
252.235	60.24
252.451	-11.43
252.668	-29.87
252.885	54.1
253.102	0.85
253.318	-42.15
253.535	-15.53
253.752	17.24
253.968	17.24
254.185	45.91
254.401	43.86
254.618	50
254.835	70.48
255.051	56.15
255.268	-3.24
255.484	0.85
255.701	-9.39
255.917	23.38
256.134	21.33
256.351	99.16
256.567	-27.82
256.784	27.48
257	25.43
257.217	86.87
257.433	60.24
257.65	21.33
257.866	127.83
258.082	-66.73
258.299	-9.39
258.515	-9.39
258.732	103.25
258.948	4.95
259.165	4.95
259.381	15.19
259.597	52.05
259.814	21.33
260.03	76.63
260.246	68.44
260.463	27.48
260.679	50
260.895	54.1
261.112	86.87
261.328	27.48
261.544	-25.77
261.761	88.92
261.977	-46.25
262.193	-44.2
262.409	11.09
262.626	56.15
262.842	25.43
263.058	-5.29
263.274	-5.29
263.49	-1.19
263.707	45.91
263.923	47.96
264.139	33.62
264.355	64.34
264.571	4.95
264.787	76.63
265.004	-15.53
265.22	27.48
265.436	-15.53
265.652	-66.73
265.868	-40.11
266.084	-1.19
266.3	-15.53
266.516	4.95
266.732	127.83
266.948	76.63
267.164	13.14
267.38	7
267.596	11.09
267.812	88.92
268.028	19.29
268.244	11.09
268.46	72.53
268.676	43.86
268.892	-1.19
269.108	17.24
269.324	-19.63
269.54	-1.19
269.756	19.29
269.972	25.43
270.188	45.91
270.403	56.15
270.619	27.48
270.835	43.86
271.051	17.24
271.267	-52.39
271.483	2.9
271.698	60.24
271.914	105.3
272.13	7
272.346	95.06
272.562	80.72
272.777	72.53
272.993	-3.24
273.209	52.05
273.425	-19.63
273.64	-13.48
273.856	27.48
274.072	23.38
274.287	2.9
274.503	86.87
274.719	54.1
274.934	21.33
275.15	-1.19
275.366	-13.48
275.581	-27.82
275.797	0.85
276.012	33.62
276.228	43.86
276.444	-5.29
276.659	13.14
276.875	2.9
277.09	97.11
277.306	29.52
277.521	21.33
277.737	33.62
277.952	-50.35
278.168	25.43
278.383	27.48
278.599	84.82
278.814	84.82
279.03	43.86
279.245	109.4
279.461	29.52
279.676	84.82
279.892	-11.43
280.107	-17.58
280.322	-42.15
280.538	19.29
280.753	-9.39
280.969	58.2
281.184	27.48
281.399	37.72
281.615	47.96
281.83	78.68
282.045	-42.15
282.26	11.09
282.476	7
282.691	58.2
282.906	23.38
283.122	35.67
283.337	31.57
283.552	27.48
283.767	25.43
283.983	47.96
284.198	33.62
284.413	41.81
284.628	15.19
284.843	37.72
285.058	123.73
285.274	29.52
285.489	-3.24
285.704	25.43
285.919	-13.48
286.134	60.24
286.349	7
286.564	45.91
286.779	76.63
286.995	0.85
287.21	-15.53
287.425	52.05
287.64	39.76
287.855	37.72
288.07	-66.73
288.285	39.76
288.5	58.2
288.715	64.34
288.93	9.05
289.145	-13.48
289.36	2.9
289.575	74.58
289.79	47.96
290.004	107.35
290.219	31.57
290.434	-21.67
290.649	15.19
290.864	117.59
291.079	21.33
291.294	35.67
291.509	27.48
291.724	39.76
291.938	17.24
292.153	33.62
292.368	58.2
292.583	-9.39
292.798	47.96
293.012	56.15
293.227	4.95
293.442	27.48
293.657	29.52
293.871	45.91
294.086	31.57
294.301	64.34
294.516	-9.39
294.73	2.9
294.945	2.9
295.16	15.19
295.374	60.24
295.589	88.92
295.804	4.95
296.018	25.43
296.233	78.68
296.447	107.35
296.662	76.63
296.877	27.48
297.091	0.85
297.306	82.77
297.52	29.52
297.735	39.76
297.949	35.67
298.164	84.82
298.378	-64.68
298.593	-5.29
298.807	56.15
299.022	13.14
299.236	58.2
299.451	7
299.665	29.52
299.88	29.52
300.094	2.9
300.309	-48.3
300.523	2.9
300.737	68.44
300.952	52.05
301.166	35.67
301.381	13.14
301.595	0.85
301.809	-46.25
302.024	-60.59
302.238	7
302.452	-23.72
302.667	43.86
302.881	111.44
303.095	72.53
303.309	41.81
303.524	17.24
303.738	-64.68
303.952	-54.44
304.166	13.14
304.381	-50.35
304.595	70.48
304.809	23.38
305.023	74.58
305.237	9.05
305.452	50
305.666	64.34
305.88	95.06
306.094	7
306.308	54.1
306.522	31.57
306.736	66.39
306.95	64.34
307.164	-3.24
307.379	13.14
307.593	52.05
307.807	13.14
308.021	35.67
308.235	21.33
308.449	50
308.663	64.34
308.877	54.1
309.091	11.09
309.305	0.85
309.519	-15.53
309.733	113.49
309.947	-13.48
310.161	21.33
310.374	25.43
310.588	72.53
310.802	60.24
311.016	4.95
311.23	66.39
311.444	45.91
311.658	43.86
311.872	47.96
312.085	17.24
312.299	74.58
312.513	95.06
312.727	64.34
312.941	-23.72
313.154	84.82
313.368	58.2
313.582	60.24
313.796	39.76
314.009	4.95
314.223	2.9
314.437	47.96
314.651	109.4
314.864	9.05
315.078	31.57
315.292	50
315.505	-3.24
315.719	54.1
315.933	0.85
316.146	93.01
316.36	52.05
316.573	2.9
316.787	33.62
317.001	58.2
317.214	7
317.428	-33.96
317.641	-13.48
317.855	-25.77
318.068	-36.01
318.282	13.14
318.495	121.68
318.709	80.72
318.922	62.29
319.136	93.01
319.349	33.62
319.563	-1.19
319.776	80.72
319.99	25.43
320.203	78.68
320.417	80.72
320.63	23.38
320.843	50
321.057	7
321.27	60.24
321.483	84.82
321.697	13.14
321.91	33.62
322.124	17.24
322.337	66.39
322.55	-36.01
322.763	23.38
322.977	52.05
323.19	-9.39
323.403	-42.15
323.617	-23.72
323.83	37.72
324.043	109.4
324.256	-5.29
324.469	11.09
324.683	11.09
324.896	70.48
325.109	125.78
325.322	-33.96
325.535	31.57
325.748	0.85
325.962	54.1
326.175	39.76
326.388	84.82
326.601	84.82
326.814	60.24
327.027	19.29
327.24	60.24
327.453	-1.19
327.666	129.88
327.879	45.91
328.092	64.34
328.305	60.24
328.518	-38.06
328.731	-3.24
328.944	19.29
329.157	123.73
329.37	47.96
329.583	86.87
329.796	72.53
330.009	-36.01
330.222	60.24
330.435	47.96
330.648	52.05
330.861	62.29
331.073	68.44
331.286	-38.06
331.499	2.9
331.712	15.19
331.925	35.67
332.138	66.39
332.35	-3.24
332.563	45.91
332.776	60.24
332.989	-40.11
333.202	33.62
333.414	-50.35
333.627	68.44
333.84	47.96
334.053	56.15
334.265	-21.67
334.478	43.86
334.691	97.11
334.903	43.86
335.116	-23.72
335.329	-33.96
335.541	84.82
335.754	45.91
335.966	4.95
336.179	2.9
336.392	-7.34
336.604	9.05
336.817	41.81
337.029	47.96
337.242	125.78
337.454	39.76
337.667	31.57
337.88	31.57
338.092	119.64
338.305	45.91
338.517	2.9
338.729	105.3
338.942	35.67
339.154	47.96
339.367	-33.96
339.579	47.96
339.792	50
340.004	52.05
340.217	39.76
340.429	47.96
340.641	72.53
340.854	66.39
341.066	21.33
341.278	23.38
341.491	78.68
341.703	47.96
341.915	-44.2
342.128	72.53
342.34	35.67
342.552	52.05
342.764	-11.43
342.977	-25.77
343.189	56.15
343.401	-17.58
343.613	7
343.826	37.72
344.038	86.87
344.25	117.59
344.462	-11.43
344.674	62.29
344.886	39.76
345.099	74.58
345.311	-13.48
345.523	-1.19
345.735	-40.11
345.947	82.77
346.159	-31.91
346.371	-5.29
346.583	23.38
346.795	43.86
347.007	17.24
347.219	95.06
347.431	-44.2
347.643	33.62
347.855	-11.43
348.067	17.24
348.279	41.81
348.491	45.91
348.703	15.19
348.915	41.81
349.127	62.29
349.339	31.57
349.551	70.48
349.763	27.48
349.975	52.05
350.187	39.76
350.399	7
350.61	4.95
350.822	105.3
351.034	7
351.246	90.96
351.458	45.91
351.669	64.34
351.881	68.44
352.093	74.58
352.305	90.96
352.517	88.92
352.728	64.34
352.94	35.67
353.152	25.43
353.363	33.62
353.575	47.96
353.787	74.58
353.999	11.09
354.21	82.77
354.422	17.24
354.633	88.92
354.845	142.16
355.057	47.96
355.268	11.09
355.48	56.15
355.692	33.62
355.903	-5.29
356.115	33.62
356.326	95.06
356.538	41.81
356.749	15.19
356.961	101.2
357.172	88.92
357.384	27.48
357.595	103.25
357.807	62.29
358.018	11.09
358.23	-15.53
358.441	9.05
358.653	95.06
358.864	21.33
359.075	13.14
359.287	107.35
359.498	60.24
359.709	105.3
359.921	25.43
360.132	27.48
360.344	64.34
360.555	-9.39
360.766	60.24
360.977	80.72
361.189	23.38
361.4	99.16
361.611	54.1
361.823	17.24
362.034	-1.19
362.245	19.29
362.456	64.34
362.667	60.24
362.879	33.62
363.09	76.63
363.301	86.87
363.512	25.43
363.723	56.15
363.935	27.48
364.146	52.05
364.357	47.96
364.568	80.72
364.779	39.76
364.99	93.01
365.201	-19.63
365.412	37.72
365.623	-3.24
365.834	50
366.045	-1.19
366.256	72.53
366.467	95.06
366.678	-25.77
366.889	21.33
367.1	54.1
367.311	64.34
367.522	-15.53
367.733	13.14
367.944	-25.77
368.155	-17.58
368.366	101.2
368.577	35.67
368.788	62.29
368.999	76.63
369.209	37.72
369.42	76.63
369.631	70.48
369.842	50
370.053	60.24
370.264	97.11
370.474	7
370.685	50
370.896	74.58
371.107	19.29
371.317	39.76
371.528	15.19
371.739	7
371.95	41.81
372.16	99.16
372.371	-31.91
372.582	23.38
372.792	27.48
373.003	0.85
373.214	13.14
373.424	31.57
373.635	-3.24
373.846	43.86
374.056	95.06
374.267	113.49
374.477	23.38
374.688	60.24
374.898	56.15
375.109	33.62
375.319	19.29
375.53	78.68
375.74	80.72
375.951	84.82
376.161	13.14
376.372	76.63
376.582	72.53
376.793	111.44
377.003	-3.24
377.214	33.62
377.424	66.39
377.635	121.68
377.845	-9.39
378.055	103.25
378.266	54.1
378.476	70.48
378.686	47.96
378.897	23.38
379.107	140.12
379.317	80.72
379.528	80.72
379.738	27.48
379.948	64.34
380.158	11.09
380.369	144.21
380.579	88.92
380.789	19.29
380.999	29.52
381.21	13.14
381.42	107.35
381.63	-1.19
381.84	86.87
382.05	23.38
382.261	13.14
382.471	78.68
382.681	0.85
382.891	78.68
383.101	29.52
383.311	-9.39
383.521	25.43
383.731	52.05
383.941	95.06
384.151	111.44
384.361	21.33
384.571	62.29
384.781	76.63
384.991	158.55
385.201	86.87
385.411	93.01
385.621	43.86
385.831	72.53
386.041	4.95
386.251	93.01
386.461	41.81
386.671	50
386.881	58.2
387.091	76.63
387.301	101.2
387.511	7
387.72	52.05
387.93	64.34
388.14	15.19
388.35	47.96
388.56	19.29
388.769	86.87
388.979	29.52
389.189	15.19
389.399	9.05
389.609	60.24
389.818	133.97
390.028	39.76
390.238	101.2
390.447	80.72
390.657	45.91
390.867	-21.67
391.076	52.05
391.286	136.02
391.496	88.92
391.705	88.92
391.915	66.39
392.125	47.96
392.334	19.29
392.544	97.11
392.753	39.76
392.963	88.92
393.172	90.96
393.382	-23.72
393.591	52.05
393.801	72.53
394.01	113.49
394.22	121.68
394.429	138.07
394.639	144.21
394.848	90.96
395.058	60.24
395.267	133.97
395.477	154.45
395.686	86.87
395.895	164.69
396.105	93.01
396.314	119.64
396.524	111.44
396.733	54.1
396.942	105.3
397.152	160.59
397.361	144.21
397.57	97.11
397.78	162.64
397.989	179.03
398.198	90.96
398.407	105.3
398.617	72.53
398.826	131.92
399.035	170.83
399.244	125.78
399.453	125.78
399.663	123.73
399.872	101.2
400.081	47.96
400.29	142.16
400.499	109.4
400.708	109.4
400.917	117.59
401.127	50
401.336	117.59
401.545	115.54
401.754	117.59
401.963	119.64
402.172	41.81
402.381	90.96
402.59	125.78
402.799	136.02
403.008	127.83
403.217	138.07
403.426	146.26
403.635	109.4
403.844	160.59
404.053	117.59
404.262	60.24
404.471	174.93
404.68	136.02
404.888	109.4
405.097	183.12
405.306	183.12
405.515	211.79
405.724	109.4
405.933	197.46
406.142	205.65
406.35	189.27
406.559	168.79
406.768	203.6
406.977	254.8
407.185	252.75
407.394	242.51
407.603	224.08
407.812	213.84
408.02	232.27
408.229	273.23
408.438	293.71
408.646	236.37
408.855	287.57
409.064	359.25
409.272	240.47
409.481	269.14
409.69	324.43
409.898	297.81
410.107	365.39
410.315	318.29
410.524	392.02
410.733	318.29
410.941	295.76
411.15	361.3
411.358	355.15
411.567	387.92
411.775	457.55
411.984	480.08
412.192	371.54
412.401	484.17
412.609	619.34
412.818	547.66
413.026	502.61
413.234	480.08
413.443	635.72
413.651	654.16
413.86	635.72
414.068	662.35
414.276	682.83
414.485	709.45
414.693	711.5
414.901	754.51
415.11	699.21
415.318	701.26
415.526	809.8
415.734	758.6
415.943	805.71
416.151	895.82
416.359	944.97
416.567	916.3
416.776	953.16
416.984	1024.84
417.192	1121.09
417.4	1051.46
417.608	1045.32
417.817	1157.96
418.025	1170.24
418.233	1301.31
418.441	1178.44
418.649	1254.21
418.857	1399.62
419.065	1461.06
419.273	1397.57
419.481	1524.54
419.689	1631.04
419.897	1649.47
420.105	1717.05
420.313	1909.56
420.521	1735.48
420.729	1801.02
420.937	1913.66
421.145	1962.81
421.353	2001.72
421.561	2083.64
421.769	2136.88
421.977	2294.58
422.185	2216.76
422.393	2456.37
422.601	2442.03
422.809	2538.29
423.017	2448.18
423.224	2650.92
423.432	2624.3
423.64	2595.63
423.848	3101.48
424.056	2886.44
424.263	3042.09
424.471	3068.71
424.679	3234.6
424.887	3394.34
425.094	3474.21
425.302	3572.51
425.51	3676.96
425.718	3781.4
425.925	3687.2
426.133	3844.89
426.341	4115.22
426.548	4303.64
426.756	4264.72
426.964	4395.79
427.171	4668.17
427.379	4670.22
427.586	4819.72
427.794	4895.5
428.001	5126.92
428.209	5290.76
428.417	5348.1
428.624	5757.69
428.832	5806.84
429.039	5591.81
429.247	5577.47
429.454	6202.1
429.662	6560.5
429.869	6150.9
430.076	6712.05
430.284	6443.76
430.491	6828.78
430.699	7160.55
430.906	7201.51
431.114	7291.62
431.321	7451.36
431.528	7703.26
431.736	8016.6
431.943	8432.34
432.15	8233.69
432.358	8288.98
432.565	8837.84
432.772	8727.25
432.979	9335.49
433.187	9468.61
433.394	9247.43
433.601	10015.42
433.808	10017.47
434.016	9984.7
434.223	10418.87
434.43	11010.73
434.637	11043.5
434.844	11618.98
435.052	11676.32
435.259	11530.92
435.466	11969.18
435.673	11342.5
435.88	12569.24
436.087	13095.57
436.294	13157
436.501	12728.98
436.708	13171.34
436.915	13415.05
437.122	14381.69
437.329	13820.55
437.537	14422.65
437.743	14701.17
437.95	14750.32
438.157	15286.89
438.364	15878.76
438.571	15747.69
438.778	15977.06
438.985	17359.44
439.192	16622.17
439.399	17302.09
439.606	16667.22
439.813	17779.27
440.02	18940.47
440.227	18229.82
440.433	18207.3
440.64	18780.73
440.847	18653.75
441.054	19296.81
441.261	20406.81
441.467	20331.04
441.674	20539.93
441.881	21275.15
442.088	21395.98
442.294	21043.73
442.501	21709.32
442.708	22340.1
442.914	23376.37
443.121	24199.65
443.328	23431.66
443.534	25006.55
443.741	24209.89
443.948	24072.68
444.154	25733.58
444.361	25412.05
444.568	25858.51
444.774	25706.96
444.981	25862.6
445.187	26606.02
445.394	27748.78
445.6	27376.05
445.807	29995.4
446.013	28862.88
446.22	29319.57
446.426	30474.63
446.633	30673.28
446.839	31519.09
447.046	30308.74
447.252	31877.49
447.459	32244.07
447.665	31770.99
447.871	33304.92
448.078	34599.24
448.284	32917.86
448.491	33655.12
448.697	35045.69
448.903	35631.41
449.11	35539.26
449.316	35113.28
449.522	36067.63
449.728	36737.32
449.935	37038.37
450.141	36751.65
450.347	37669.14
450.553	36258.09
450.76	37114.14
450.966	37964.05
451.172	37839.12
451.378	38770.95
451.584	37822.74
451.791	38838.53
451.997	38816.01
452.203	38961.41
452.409	39385.34
452.615	39072
452.821	37646.61
453.027	37234.97
453.233	39028.99
453.44	37538.07
453.646	37923.09
453.852	38351.12
454.058	38572.3
454.264	37411.1
454.47	38039.82
454.676	37284.12
454.882	38277.39
455.088	34890.05
455.294	35610.93
455.5	35981.62
455.705	36499.75
455.911	34828.61
456.117	34156.88
456.323	33763.67
456.529	31848.82
456.735	33255.77
456.941	32604.52
457.147	31949.17
457.352	31017.34
457.558	30271.88
457.764	30464.39
457.97	30329.22
458.176	29274.52
458.381	29622.67
458.587	27638.19
458.793	28074.41
458.999	26708.41
459.204	28424.61
459.41	27597.23
459.616	25741.77
459.821	25991.62
460.027	25790.92
460.233	25188.82
460.438	23957.99
460.644	24238.56
460.85	23187.96
461.055	23081.46
461.261	22776.31
461.466	21199.38
461.672	20382.24
461.878	22188.55
462.083	20591.13
462.289	20236.83
462.494	20046.37
462.7	19049.01
462.905	18545.21
463.111	18940.47
463.316	19003.96
463.522	18780.73
463.727	19173.94
463.932	18942.52
464.138	18657.85
464.343	18752.06
464.549	18373.18
464.754	18895.41
464.959	18993.72
465.165	18588.22
465.37	17605.19
465.575	17359.44
465.781	17973.83
465.986	18240.06
466.191	17611.34
466.397	17080.91
466.602	16091.74
466.807	16769.62
467.012	16777.81
467.218	16806.48
467.423	16839.25
467.628	16806.48
467.833	17349.2
468.038	16855.64
468.244	16349.79
468.449	16773.72
468.654	16196.19
468.859	16247.39
469.064	15909.47
469.269	15309.42
469.474	15569.51
469.679	16101.98
469.885	15374.95
470.09	15731.3
470.295	15583.85
470.5	15131.25
470.705	15293.04
470.91	14811.76
471.115	14582.39
471.32	14971.5
471.525	14963.31
471.73	14783.09
471.935	14615.16
472.139	13957.76
472.344	14379.64
472.549	14416.51
472.754	13847.17
472.959	13720.2
473.164	13384.33
473.369	13224.59
473.574	13664.9
473.778	13507.21
473.983	13361.8
474.188	13208.2
474.393	12778.13
474.598	12726.93
474.802	12532.37
475.007	12559
475.212	12761.75
475.417	12157.6
475.621	12266.14
475.826	12395.16
476.031	12020.38
476.235	11874.98
476.44	11907.74
476.645	11602.6
476.849	11727.52
477.054	11641.51
477.259	11365.03
477.463	11477.67
477.668	11391.66
477.872	11293.35
478.077	11043.5
478.282	10662.58
478.486	10875.57
478.691	10586.8
478.895	10910.38
479.1	10715.83
479.304	10683.06
479.509	10400.44
479.713	10554.04
479.918	10361.53
480.122	10091.2
480.326	10330.81
480.531	10179.26
480.735	10242.75
480.94	10035.9
481.144	10359.48
481.348	9843.39
481.553	10136.25
481.757	9845.44
481.961	9992.89
482.166	10046.14
482.37	9941.69
482.574	9775.81
482.778	9870.01
482.983	10169.02
483.187	9880.25
483.391	9935.55
483.595	9902.78
483.8	9681.6
484.004	9831.1
484.208	10052.28
484.412	9718.47
484.616	9908.93
484.821	9822.91
485.025	9695.94
485.229	10033.85
485.433	9779.9
485.637	9943.74
485.841	9618.11
486.045	9902.78
486.249	9796.29
486.453	9665.22
486.657	9923.26
486.861	9910.97
487.065	9802.43
487.269	9765.57
487.473	9663.17
487.677	9841.34
487.881	10058.43
488.085	9847.49
488.289	9960.13
488.493	9992.89
488.697	10005.18
488.901	10040
489.105	9902.78
489.309	10066.62
489.512	10070.72
489.716	10042.04
489.92	9919.17
490.124	10042.04
490.328	9966.27
490.531	10097.34
490.735	10140.35
490.939	10197.69
491.143	9949.89
491.346	10214.07
491.55	10238.65
491.754	10531.51
491.958	10609.33
492.161	10279.61
492.365	10363.58
492.569	10386.1
492.772	10326.71
492.976	10492.6
493.18	10750.64
493.383	10658.48
493.587	10566.32
493.79	10816.18
493.994	10836.66
494.197	10898.1
494.401	10939.05
494.605	10984.11
494.808	11301.54
495.012	11334.31
495.215	11563.68
495.419	11532.97
495.622	11322.02
495.825	11522.73
496.029	11627.17
496.232	11885.22
496.436	11715.23
496.639	11948.7
496.843	11952.8
497.046	12157.6
497.249	12616.34
497.453	12389.02
497.656	12528.28
497.859	12790.42
498.063	12604.05
498.266	13109.9
498.469	12800.66
498.673	13132.43
498.876	13181.58
499.079	13679.24
499.282	13322.89
499.485	13789.83
499.689	13738.63
499.892	14056.06
500.095	14164.61
500.298	14389.88
500.501	14393.98
500.705	14510.71
500.908	14774.9
501.111	15045.23
501.314	15166.06
501.517	15178.35
501.72	15338.09
501.923	15366.76
502.126	16030.3
502.329	15888.99
502.532	16224.86
502.735	16312.92
502.938	16644.7
503.141	16659.03
503.344	17054.29
503.547	16847.44
503.75	17318.48
503.953	17721.93
504.156	17435.21
504.359	17961.54
504.562	18340.41
504.765	18502.2
504.968	18362.94
505.17	18618.94
505.373	18631.23
505.576	19028.53
505.779	19145.27
505.982	19192.37
506.185	19769.9
506.387	19696.17
506.59	19857.96
506.793	20527.64
506.996	20415.01
507.198	20920.85
507.401	20740.63
507.604	21162.51
507.807	21561.87
508.009	21930.5
508.212	21686.79
508.415	21967.37
508.617	22456.83
508.82	22379.01
509.022	22368.77
509.225	23063.03
509.428	23159.28
509.63	23169.52
509.833	23556.59
510.035	23867.88
510.238	24087.01
510.44	24455.65
510.643	24781.28
510.845	24824.28
511.048	24625.63
511.25	25235.92
511.453	25381.33
511.655	26454.47
511.858	25831.88
512.06	26362.31
512.262	26479.04
512.465	26755.52
512.667	26968.51
512.87	27206.07
513.072	27756.97
513.274	28135.85
513.477	28410.28
513.679	28457.38
513.881	28703.14
514.084	29012.38
514.286	29133.21
514.488	29532.56
514.69	30261.64
514.893	30564.74
515.095	30071.18
515.297	30605.7
515.499	30740.86
515.701	30943.61
515.904	31687.03
516.106	31945.07
516.308	32260.46
516.51	33128.8
516.712	32444.77
516.914	32823.65
517.116	33898.83
517.318	33571.16
517.52	33919.31
517.722	33827.15
517.925	34634.05
518.127	35137.85
518.329	35098.94
518.531	35049.79
518.733	36243.76
518.935	36290.86
519.136	36127.02
519.338	36878.63
519.54	37101.86
519.742	37271.84
519.944	37497.11
520.146	37880.08
520.348	38461.71
520.55	38707.46
520.752	38590.73
520.954	39598.33
521.155	39149.82
521.357	39977.2
521.559	40098.03
521.761	40450.28
521.963	40702.18
522.164	40866.02
522.366	41038.05
522.568	41539.8
522.77	41926.87
522.971	42408.14
523.173	41691.35
523.375	42571.98
523.576	42356.94
523.778	42668.23
523.98	43589.82
524.181	43372.74
524.383	43712.7
524.584	44105.91
524.786	44312.75
524.988	43919.54
525.189	44781.74
525.391	44697.77
525.592	44898.47
525.794	45871.26
525.995	45523.1
526.197	45654.17
526.398	45760.67
526.6	46049.43
526.801	46586
527.003	46522.51
527.204	46655.63
527.406	47194.25
527.607	47257.73
527.808	47491.2
528.01	46960.78
528.211	47523.97
528.412	48083.06
528.614	47855.74
528.815	48074.87
529.016	48973.93
529.218	48136.31
529.419	48463.99
529.62	48572.53
529.822	48529.52
530.023	48818.28
530.224	48894.06
530.425	48722.03
530.626	48730.22
530.828	49029.23
531.029	49703.01
531.23	49080.42
531.431	49143.91
531.632	49399.91
531.833	49483.87
532.035	49600.61
532.236	49551.46
532.437	49832.03
532.638	49789.02
532.839	50106.46
533.04	50137.18
533.241	49461.35
533.442	50270.29
533.643	50382.93
533.844	50165.85
534.045	50045.02
534.246	49911.9
534.447	50282.58
534.648	50069.59
534.849	50440.28
535.05	50002.01
535.251	50180.18
535.451	50389.08
535.652	50782.29
535.853	50016.35
536.054	50372.69
536.255	50710.61
536.456	50507.86
536.657	50874.45
536.857	50358.36
537.058	50190.42
537.259	51007.56
537.46	50724.94
537.66	50143.32
537.861	50516.05
538.062	50118.74
538.263	50507.86
538.463	50155.61
538.664	50188.38
538.865	50309.21
539.065	50524.24
539.266	49946.72
539.466	51230.79
539.667	49995.87
539.868	51019.85
540.068	50440.28
540.269	50278.49
540.469	50843.73
540.67	49959
540.87	50237.53
541.071	50663.5
541.271	50585.68
541.472	50587.73
541.672	50438.23
541.873	50282.58
542.073	49854.56
542.274	50751.57
542.474	50579.54
542.675	50337.88
542.875	50589.78
543.075	50307.16
543.276	49791.07
543.476	50696.27
543.676	49686.62
543.877	50460.76
544.077	50018.39
544.277	50237.53
544.478	50055.26
544.678	50602.07
544.878	50012.25
545.078	50233.43
545.279	49932.38
545.479	50194.52
545.679	50073.69
545.879	50147.42
546.079	50114.65
546.28	50282.58
546.48	49758.3
546.68	49959
546.88	49856.6
547.08	50077.79
547.28	50063.45
547.48	49864.8
547.68	50057.31
547.88	49668.19
548.081	50198.62
548.281	49854.56
548.481	49397.86
548.681	50167.9
548.881	50210.9
549.081	49651.81
549.28	49735.77
549.48	50118.74
549.68	49807.45
549.88	50106.46
550.08	49586.27
550.28	49963.1
550.48	49293.41
550.68	50268.25
550.88	49887.32
551.08	49750.11
551.279	49954.91
551.479	49571.94
551.679	49692.77
551.879	49408.1
552.079	49930.33
552.278	49227.88
552.478	49619.04
552.678	49375.33
552.878	49838.17
553.077	49829.98
553.277	49021.03
553.477	49528.93
553.676	49487.97
553.876	49145.96
554.076	49047.66
554.275	49137.77
554.475	48646.26
554.674	49309.8
554.874	49283.17
555.074	49113.19
555.273	49105
555.473	49186.92
555.672	48740.46
555.872	49018.99
556.071	48832.62
556.271	48982.12
556.47	48531.57
556.67	48597.1
556.869	48574.58
557.068	48943.21
557.268	48545.9
557.467	48717.93
557.667	48253.05
557.866	48588.91
558.065	48459.89
558.265	47792.25
558.464	47945.85
558.663	48500.85
558.863	47671.42
559.062	48572.53
559.261	47689.85
559.461	48312.44
559.66	47984.76
559.859	48142.45
560.058	47595.65
560.258	47706.24
560.457	47278.21
560.656	47751.29
560.855	47466.63
561.054	47693.95
561.253	47161.48
561.453	47556.74
561.652	47030.41
561.851	47116.42
562.05	46839.95
562.249	46542.99
562.448	47286.4
562.647	46725.26
562.846	46448.78
563.045	46792.84
563.244	46278.8
563.443	46864.52
563.642	46006.42
563.841	46127.25
564.04	45588.64
564.239	46381.2
564.438	45752.48
564.637	45977.75
564.836	46125.21
565.035	45361.31
565.234	45330.59
565.432	45328.55
565.631	45338.79
565.83	45379.74
566.029	45056.17
566.228	44628.14
566.427	44871.85
566.625	44736.68
566.824	44165.3
567.023	44837.03
567.222	43921.59
567.42	44861.61
567.619	44040.37
567.818	44232.88
568.016	44200.11
568.215	44206.26
568.414	43952.31
568.612	43983.03
568.811	43448.51
569.01	43761.85
569.208	43358.4
569.407	43575.48
569.605	42952.9
569.804	43620.54
570.002	42782.92
570.201	42731.72
570.4	42383.57
570.598	42707.15
570.797	42418.38
570.995	42602.7
571.193	41947.35
571.392	42571.98
571.59	42283.22
571.789	42125.52
571.987	41599.19
572.186	41650.39
572.384	41611.48
572.582	41890.01
572.781	41879.77
572.979	40855.78
573.177	41306.34
573.376	41189.6
573.574	41158.88
573.772	41318.62
573.971	40882.41
574.169	40753.38
574.367	40220.91
574.565	40730.86
574.763	40673.51
574.962	40601.83
575.16	39825.65
575.358	40118.51
575.556	39538.94
575.754	39923.96
575.952	39624.95
576.151	39930.1
576.349	39313.66
576.547	39192.83
576.745	39581.95
576.943	39358.72
577.141	39016.71
577.339	39125.25
577.537	38981.89
577.735	38914.31
577.933	38316.3
578.131	38967.55
578.329	38236.43
578.527	38263.05
578.725	38361.36
578.923	38430.99
579.121	38265.1
579.319	38158.61
579.516	37900.56
579.714	37746.97
579.912	37603.61
580.11	37632.28
580.308	37583.13
580.506	37437.72
580.704	37095.71
580.901	37200.16
581.099	37445.91
581.297	36802.85
581.495	36929.83
581.692	37314.84
581.89	36598.05
582.088	36909.35
582.285	36495.66
582.483	36823.33
582.681	36389.16
582.878	36112.69
583.076	35655.99
583.274	36426.03
583.471	35486.01
583.669	35834.16
583.866	35823.92
584.064	35946.8
584.262	35514.68
584.459	36073.77
584.657	35119.42
584.854	35578.17
585.052	34953.54
585.249	35299.64
585.447	35303.74
585.644	34693.44
585.841	34644.29
586.039	35354.94
586.236	34523.46
586.434	34586.95
586.631	34189.64
586.828	34062.67
587.026	34173.26
587.223	34443.59
587.42	34140.49
587.618	34150.73
587.815	33691.99
588.012	34023.76
588.21	33739.09
588.407	33990.99
588.604	33612.12
588.801	33419.61
588.999	33229.15
589.196	32989.53
589.393	33098.08
589.59	32989.53
589.787	32817.5
589.984	32559.46
590.182	32147.82
590.379	33046.88
590.576	32399.72
590.773	32315.75
590.97	32188.78
591.167	32201.07
591.364	31863.15
591.561	32160.11
591.758	31639.92
591.955	32129.39
592.152	32022.89
592.349	31617.39
592.546	31975.79
592.743	31975.79
592.94	31170.94
593.137	31721.84
593.334	31433.08
593.531	31058.3
593.727	31115.64
593.924	31099.26
594.121	31043.96
594.318	30978.43
594.515	30427.53
594.712	31252.86
594.908	30486.92
595.105	30386.57
595.302	30417.29
595.499	30423.43
595.696	30261.64
595.892	29882.77
596.089	30278.02
596.286	30339.46
596.482	30087.56
596.679	29659.54
596.876	29755.79
597.072	29739.41
597.269	29780.37
597.466	29766.03
597.662	29434.26
597.859	29467.03
598.055	29499.8
598.252	29286.81
598.448	29006.23
598.645	29378.97
598.841	28809.63
599.038	28856.73
599.234	28696.99
599.431	28416.42
599.627	28545.44
599.824	28656.03
600.02	28211.62
600.217	28305.83
600.413	28105.13
600.609	28004.78
600.806	28340.64
601.002	28092.84
601.198	27634.1
601.395	28191.14
601.591	27476.4
601.787	27556.27
601.984	27455.92
602.18	27734.45
602.376	27466.16
602.572	27470.26
602.769	27484.59
602.965	26952.12
603.161	27300.28
603.357	27175.35
603.553	26702.27
603.75	26763.71
603.946	26876.35
604.142	27251.13
604.338	26517.95
604.534	26780.09
604.73	26415.55
604.926	26665.41
605.122	26442.18
605.318	26266.05
605.514	25727.44
605.71	26177.99
605.906	26083.78
606.102	25938.38
606.298	25743.82
606.494	25887.18
606.69	25866.7
606.886	25905.61
607.082	25129.43
607.278	25926.09
607.474	25389.52
607.67	25731.53
607.866	25031.13
608.062	25653.71
608.257	25346.51
608.453	25182.68
608.649	25477.58
608.845	24766.94
609.041	25133.53
609.236	25190.87
609.432	25299.41
609.628	24795.61
609.824	24938.97
610.019	24748.51
610.215	24758.75
610.411	24586.72
610.606	24318.43
610.802	24687.07
610.998	24562.14
611.193	24717.79
611.389	24332.77
611.584	24498.66
611.78	24105.45
611.976	24601.05
612.171	24357.35
612.367	24019.43
612.562	24062.44
612.758	23898.6
612.953	24068.58
613.149	24324.58
613.344	23714.28
613.539	24074.73
613.735	23859.69
613.93	24107.49
614.126	23769.58
614.321	23767.53
614.517	23978.47
614.712	23779.82
614.907	23460.34
615.103	23806.44
615.298	23654.89
615.493	23810.54
615.688	23400.94
615.884	23798.25
616.079	23155.19
616.274	23290.35
616.47	23341.55
616.665	23427.57
616.86	23036.41
617.055	23159.28
617.25	22862.33
617.445	23421.42
617.641	22434.3
617.836	22886.9
618.031	22823.42
618.226	22868.47
618.421	22499.84
618.616	22938.1
618.811	22602.24
619.006	22493.69
619.201	22266.37
619.396	22436.35
619.591	22008.33
619.786	22094.34
619.981	21803.53
620.176	22096.39
620.371	21879.3
620.566	22123.01
620.761	21639.69
620.956	21711.37
621.151	21412.37
621.346	21531.15
621.541	21058.07
621.735	21576.2
621.93	20865.56
622.125	21193.23
622.32	20691.48
622.515	20701.72
622.709	20564.51
622.904	20455.97
623.099	20591.13
623.294	20394.53
623.488	19999.27
623.683	20191.78
623.878	19884.58
624.072	19726.89
624.267	20265.5
624.462	19726.89
624.656	19604.01
624.851	19499.56
625.046	19659.31
625.24	19458.6
625.435	18983.48
625.629	19313.2
625.824	19049.01
626.018	19014.2
626.213	18854.45
626.407	18803.25
626.602	18405.95
626.796	18711.1
626.991	18893.37
627.185	18557.5
627.38	18213.44
627.574	18182.72
627.768	18088.51
627.963	17963.59
628.157	17539.66
628.352	17816.13
628.546	17629.77
628.74	17740.36
628.935	17533.51
629.129	17809.99
629.323	17101.39
629.517	17222.22
629.712	17185.36
629.906	17005.14
630.1	17117.78
630.294	17021.52
630.489	16783.96
630.683	16812.63
630.877	16470.62
631.071	16697.94
631.265	16357.98
631.459	16136.8
631.653	16290.4
631.848	16566.87
632.042	16118.37
632.236	16104.03
632.43	16011.87
632.624	15854.18
632.818	15592.04
633.012	15624.81
633.206	15417.96
633.4	15465.07
633.594	15411.82
633.788	15415.91
633.982	15575.66
634.176	15086.19
634.369	14922.35
634.563	14959.22
634.757	14809.72
634.951	15024.75
635.145	14955.12
635.339	14617.21
635.533	14613.11
635.726	14715.51
635.92	14574.2
636.114	14611.06
636.308	14504.57
636.501	14574.2
636.695	14400.12
636.889	14183.04
637.083	14090.88
637.276	13947.52
637.47	13722.24
637.664	13859.46
637.857	13791.87
638.051	13630.09
638.244	13611.65
638.438	13685.38
638.632	13453.96
638.825	13263.5
639.019	13193.87
639.212	13265.55
639.406	13349.51
639.599	13093.52
639.793	13073.04
639.986	12780.18
640.18	12845.71
640.373	12833.43
640.567	12673.68
640.76	12933.78
640.954	12481.17
641.147	12276.38
641.34	12407.45
641.534	12413.59
641.727	12188.32
641.92	12153.5
642.114	12087.96
642.307	12196.51
642.5	12106.4
642.694	11856.54
642.887	11881.12
643.08	11983.52
643.273	12032.67
643.467	11639.46
643.66	11713.19
643.853	11590.31
644.046	11397.8
644.239	11498.15
644.432	11379.37
644.626	11176.62
644.819	11158.19
645.012	11260.59
645.205	11178.67
645.398	11195.05
645.591	10963.63
645.784	11029.17
645.977	10873.52
646.17	10767.03
646.363	10750.64
646.556	10674.87
646.749	10693.3
646.942	10658.48
647.135	10504.89
647.328	10599.09
647.521	10549.94
647.714	10410.68
647.907	10214.07
648.099	10230.46
648.292	10359.48
648.485	10126.01
648.678	9933.5
648.871	9939.65
649.064	10048.19
649.256	10214.07
649.449	9800.38
649.642	9863.87
649.835	9812.67
650.027	9837.25
650.22	9749.18
650.413	9548.48
650.605	9515.72
650.798	9562.82
650.991	9296.58
651.183	9448.13
651.376	9229
651.568	9448.13
651.761	9229
651.954	9069.26
652.146	9161.42
652.339	9128.65
652.531	9083.59
652.724	9087.69
652.916	8970.96
653.109	8948.43
653.301	8985.29
653.494	8954.57
653.686	8760.02
653.879	8866.51
654.071	8848.08
654.263	8469.2
654.456	8538.84
654.648	8604.37
654.84	8487.64
655.033	8540.88
655.225	8266.46
655.417	8469.2
655.61	8354.52
655.802	8463.06
655.994	8471.25
656.186	8186.58
656.379	8125.15
656.571	8119
656.763	8182.49
656.955	8035.03
657.148	8153.82
657.34	7938.78
657.532	8006.36
657.724	7983.84
657.916	7867.1
658.108	7789.28
658.3	7885.53
658.492	7793.37
658.684	7543.52
658.876	7824.09
659.068	7592.67
659.26	7625.44
659.452	7549.67
659.644	7584.48
659.836	7422.69
660.028	7408.36
660.22	7269.09
660.412	7463.65
660.604	7357.16
660.796	7242.47
660.988	7041.77
661.18	7232.23
661.372	7326.44
661.563	7095.02
661.755	7123.69
661.947	6966
662.139	7113.45
662.331	6970.09
662.522	6906.6
662.714	7105.26
662.906	6816.49
663.097	7011.05
663.289	6818.54
663.481	6845.16
663.673	6736.62
663.864	6615.79
664.056	6642.42
664.247	6580.98
664.439	6460.15
664.631	6619.89
664.822	6669.04
665.014	6552.31
665.205	6501.11
665.397	6601.46
665.588	6503.15
665.78	6441.72
665.971	6441.72
666.163	6511.35
666.354	6417.14
666.546	6271.73
666.737	6234.87
666.929	6513.39
667.12	6290.17
667.311	6359.8
667.503	6089.46
667.694	6105.85
667.885	6302.45
668.077	6216.44
668.268	6073.08
668.459	6025.98
668.651	6068.98
668.842	6044.41
669.033	6071.03
669.224	5876.48
669.416	6030.07
669.607	6071.03
669.798	5853.95
669.989	5937.91
670.18	6036.22
670.371	5868.28
670.563	5769.98
670.754	5772.03
670.945	5786.37
671.136	5937.91
671.327	5718.78
671.518	5708.54
671.709	5812.99
671.9	5745.41
672.091	5772.03
672.282	5784.32
672.473	5671.68
672.664	5661.44
672.855	5540.61
673.046	5700.35
673.237	5536.51
673.428	5571.33
673.619	5571.33
673.809	5651.2
674	5479.17
674.191	5651.2
674.382	5600
674.573	5569.28
674.764	5583.62
674.954	5640.96
675.145	5532.42
675.336	5427.97
675.527	5440.26
675.717	5554.94
675.908	5450.5
676.099	5382.92
676.289	5421.83
676.48	5436.16
676.671	5450.5
676.861	5450.5
677.052	5262.09
677.243	5374.72
677.433	5581.57
677.624	5600
677.814	5417.73
678.005	5397.25
678.195	5384.96
678.386	5303.04
678.576	5219.08
678.767	5427.97
678.957	5307.14
679.148	5391.11
679.338	5202.69
679.529	5360.39
679.719	5409.54
679.909	5425.92
680.1	5339.91
680.29	5315.33
680.481	5352.2
680.671	5298.95
680.861	5376.77
681.052	5327.62
681.242	5286.66
681.432	5384.96
681.622	5282.56
681.813	5411.59
682.003	5399.3
682.193	5266.18
682.383	5298.95
682.573	5286.66
682.764	5270.28
682.954	5393.16
683.144	5282.56
683.334	5268.23
683.524	5368.58
683.714	5149.45
683.904	5202.69
684.094	5341.96
684.284	5167.88
684.474	5368.58
684.664	5214.98
684.854	5190.41
685.044	5131.02
685.234	5194.5
685.424	5182.21
685.614	5237.51
685.804	5112.58
685.994	5102.34
686.184	5235.46
686.374	5057.29
686.564	4999.95
686.753	5110.54
686.943	5079.82
687.133	5085.96
687.323	5012.23
687.513	5073.67
687.702	4928.27
687.892	4938.51
688.082	4799.24
688.272	4977.42
688.461	4807.44
688.651	4872.97
688.841	4899.59
689.03	4879.11
689.22	4887.31
689.41	4813.58
689.599	4807.44
689.789	4754.19
689.979	4741.9
690.168	4715.28
690.358	4793.1
690.547	4643.6
690.737	4616.97
690.926	4713.23
691.116	4657.93
691.305	4616.97
691.495	4580.11
691.684	4569.87
691.874	4606.74
692.063	4598.54
692.252	4604.69
692.442	4592.4
692.631	4424.47
692.82	4496.14
693.01	4434.71
693.199	4438.8
693.388	4498.19
693.578	4340.5
693.767	4395.79
693.956	4365.07
694.146	4442.9
694.335	4336.4
694.524	4451.09
694.713	4379.41
694.902	4463.38
695.092	4428.56
695.281	4334.36
695.47	4309.78
695.659	4168.47
695.848	4272.92
696.037	4369.17
696.226	4274.96
696.415	4252.44
696.604	4246.29
696.793	4234
696.982	4217.62
697.171	4342.55
697.36	4291.35
697.549	4244.24
697.738	4147.99
697.927	4215.57
698.116	4223.76
698.305	4299.54
698.494	4279.06
698.683	4236.05
698.872	4207.38
699.061	4201.24
699.25	4133.65
699.438	4082.46
699.627	4307.73
699.816	4317.97
700.005	4201.24
700.193	4145.94
700.382	4229.91
700.571	4152.09
700.76	4240.15
700.948	4229.91
701.137	4215.57
701.326	4113.17
701.514	4051.74
701.703	4150.04
701.892	4094.74
702.08	4178.71
702.269	4184.85
702.457	3955.48
702.646	4147.99
702.834	4064.02
703.023	4064.02
703.212	4119.32
703.4	4156.18
703.589	4135.7
703.777	4289.3
703.965	4082.46
704.154	4115.22
704.342	4150.04
704.531	4156.18
704.719	3984.15
704.907	4248.34
705.096	4145.94
705.284	4008.73
705.472	4061.98
705.661	4111.13
705.849	3959.58
706.037	4061.98
706.226	4043.54
706.414	3980.06
706.602	4082.46
706.79	4066.07
706.979	4117.27
707.167	4082.46
707.355	3984.15
707.543	4191
707.731	4172.57
707.919	4164.37
708.107	4027.16
708.296	3943.19
708.484	4008.73
708.672	4035.35
708.86	4057.88
709.048	4260.63
709.236	4127.51
709.424	4047.64
709.612	4018.97
709.8	3939.1
709.988	3873.56
710.176	4172.57
710.364	4057.88
710.551	3891.99
710.739	4111.13
710.927	3996.44
711.115	4072.22
711.303	4123.41
711.491	4057.88
711.679	4051.74
711.866	4090.65
712.054	4021.02
712.242	3947.29
712.43	4281.11
712.617	4131.61
712.805	4076.31
712.993	3988.25
713.181	4049.69
713.368	4006.68
713.556	4002.58
713.744	3959.58
713.931	4016.92
714.119	4086.55
714.306	4010.78
714.494	4012.82
714.682	4002.58
714.869	3932.95
715.057	4061.98
715.244	4057.88
715.432	4141.85
715.619	4004.63
715.807	4012.82
715.994	4012.82
716.182	3986.2
716.369	3967.77
716.556	4121.37
716.744	4016.92
716.931	4109.08
717.119	4049.69
717.306	4018.97
717.493	3982.1
717.681	3959.58
717.868	3920.67
718.055	4053.78
718.242	4033.3
718.43	4027.16
718.617	4039.45
718.804	4078.36
718.991	3896.09
719.179	3914.52
719.366	3935
719.553	4127.51
719.74	4010.78
719.927	3969.82
720.114	4076.31
720.301	3937.05
720.488	3935
720.676	3955.48
720.863	4018.97
721.05	4008.73
721.237	3973.91
721.424	4096.79
721.611	4025.11
721.798	3914.52
721.985	3947.29
722.172	4129.56
722.358	3918.62
722.545	3914.52
722.732	3906.33
722.919	4045.59
723.106	3945.24
723.293	3961.62
723.48	3824.41
723.667	4008.73
723.853	3896.09
724.04	3992.34
724.227	3914.52
724.414	3857.18
724.6	3984.15
724.787	3853.08
724.974	3932.95
725.161	3851.03
725.347	3947.29
725.534	3967.77
725.72	3928.86
725.907	3863.32
726.094	4021.02
726.28	3920.67
726.467	3836.7
726.653	3724.06
726.84	3928.86
727.027	4059.93
727.213	3906.33
727.4	3953.43
727.586	3869.47
727.773	3935
727.959	3822.36
728.145	3828.51
728.332	3701.53
728.518	3943.19
728.705	3779.36
728.891	3699.48
729.077	3955.48
729.264	3832.6
729.45	3885.85
729.636	3857.18
729.823	3848.99
730.009	3877.66
730.195	3775.26
730.382	3943.19
730.568	3797.79
730.754	3808.03
730.94	3820.32
731.126	3926.81
731.313	3842.84
731.499	3840.79
731.685	3672.86
731.871	3738.4
732.057	3853.08
732.243	3656.48
732.429	3791.64
732.615	3832.6
732.801	3801.88
732.987	3738.4
733.173	3599.13
733.359	3722.01
733.545	3746.59
733.731	3765.02
733.917	3820.32
734.103	3621.66
734.289	3685.15
734.475	3615.52
734.661	3724.06
734.847	3691.29
735.033	3705.63
735.219	3883.8
735.404	3658.53
735.59	3572.51
735.776	3570.46
735.962	3642.14
736.148	3642.14
736.333	3627.81
736.519	3613.47
736.705	3734.3
736.89	3474.21
737.076	3664.67
737.262	3509.02
737.447	3504.93
737.633	3582.75
737.819	3586.85
738.004	3511.07
738.19	3535.65
738.375	3504.93
738.561	3609.37
738.747	3459.87
738.932	3504.93
739.118	3554.08
739.303	3629.85
739.489	3549.98
739.674	3607.33
739.859	3511.07
740.045	3511.07
740.23	3478.3
740.416	3377.95
740.601	3504.93
740.786	3429.15
740.972	3275.56
741.157	3332.9
741.342	3394.34
741.528	3373.86
741.713	3279.65
741.898	3353.38
742.084	3394.34
742.269	3349.28
742.454	3242.79
742.639	3400.48
742.824	3185.44
743.01	3214.12
743.195	3377.95
743.38	3220.26
743.565	3253.03
743.75	3222.31
743.935	3201.83
744.12	3210.02
744.305	3095.33
744.49	3232.55
744.675	3037.99
744.86	3162.92
745.045	3066.66
745.23	3222.31
745.415	3076.9
745.6	3095.33
745.785	2960.17
745.97	2992.94
746.155	3033.9
746.34	3124.01
746.525	3042.09
746.71	3050.28
746.895	2939.69
747.079	2943.78
747.264	2861.87
747.449	2906.92
747.634	2900.78
747.819	2865.96
748.003	2896.68
748.188	2868.01
748.373	2865.96
748.557	2786.09
748.742	2806.57
748.927	2771.76
749.111	2665.26
749.296	2734.89
749.481	2632.49
749.665	2634.54
749.85	2554.67
750.034	2743.08
750.219	2632.49
750.404	2636.59
750.588	2659.12
750.773	2505.52
750.957	2558.77
751.141	2552.62
751.326	2519.85
751.51	2433.84
751.695	2542.38
751.879	2444.08
752.064	2487.09
752.248	2439.98
752.432	2423.6
752.617	2380.59
752.801	2417.46
752.985	2372.4
753.17	2294.58
753.354	2290.48
753.538	2337.59
753.722	2298.67
753.907	2261.81
754.091	2282.29
754.275	2274.1
754.459	2259.76
754.643	2210.61
754.828	2106.17
755.012	2198.32
755.196	2179.89
755.38	2259.76
755.564	2016.05
755.748	2136.88
755.932	2071.35
756.116	1989.43
756.3	2083.64
756.484	1981.24
756.668	2032.44
756.852	2009.91
757.036	1989.43
757.22	2028.34
757.404	1973.05
757.588	1891.13
757.772	1948.47
757.956	1887.03
758.14	1893.18
758.323	1833.79
758.507	1858.36
758.691	1796.92
758.875	1866.55
759.059	1837.88
759.242	1839.93
759.426	1739.58
759.61	1807.16
759.794	1764.15
759.977	1841.98
760.161	1911.61
760.345	1733.43
760.528	1727.29
760.712	1694.52
760.895	1715
761.079	1753.91
761.263	1717.05
761.446	1692.48
761.63	1557.31
761.813	1719.1
761.997	1690.43
762.18	1571.65
762.364	1620.8
762.547	1639.23
762.731	1682.24
762.914	1626.94
763.098	1676.09
763.281	1684.28
763.464	1590.08
763.648	1729.34
763.831	1499.97
764.015	1502.01
764.198	1528.64
764.381	1592.13
764.564	1690.43
764.748	1602.36
764.931	1448.77
765.114	1508.16
765.297	1559.36
765.481	1469.25
765.664	1477.44
765.847	1547.07
766.03	1518.4
766.213	1416
766.397	1430.34
766.58	1473.34
766.763	1489.73
766.946	1487.68
767.129	1432.38
767.312	1358.66
767.495	1481.53
767.678	1352.51
767.861	1379.14
768.044	1432.38
768.227	1442.62
768.41	1405.76
768.593	1381.18
768.776	1397.57
768.959	1301.31
769.142	1399.62
769.324	1416
769.507	1340.22
769.69	1254.21
769.873	1315.65
770.056	1295.17
770.239	1325.89
770.421	1350.46
770.604	1362.75
770.787	1375.04
770.97	1293.12
771.152	1315.65
771.335	1248.07
771.518	1307.46
771.7	1248.07
771.883	1360.7
772.066	1137.48
772.248	1284.93
772.431	1176.39
772.613	1194.82
772.796	1213.25
772.978	1198.92
773.161	1174.34
773.343	1268.55
773.526	1135.43
773.708	1133.38
773.891	1108.8
774.073	1133.38
774.256	1084.23
774.438	1141.57
774.621	1139.52
774.803	1215.3
774.985	1141.57
775.168	1094.47
775.35	1117
775.532	1151.81
775.715	983.88
775.897	1078.08
776.079	998.21
776.261	1078.08
776.444	1022.79
776.626	1020.74
776.808	957.25
776.99	965.45
777.173	1004.36
777.355	1006.41
777.537	983.88
777.719	965.45
777.901	922.44
778.083	889.67
778.265	1033.03
778.447	1010.5
778.629	817.99
778.811	805.71
778.993	985.93
779.175	908.1
779.357	942.92
779.539	928.58
779.721	899.91
779.903	850.76
780.085	908.1
780.267	817.99
780.449	772.94
780.631	865.1
780.812	885.58
780.994	834.38
781.176	805.71
781.358	867.14
781.54	785.23
781.721	883.53
781.903	805.71
782.085	795.47
782.267	805.71
782.448	682.83
782.63	879.43
782.812	801.61
782.993	834.38
783.175	777.03
783.357	672.59
783.538	648.01
783.72	748.36
783.901	748.36
784.083	723.79
784.264	680.78
784.446	695.11
784.627	740.17
784.809	699.21
784.99	637.77
785.172	637.77
785.353	629.58
785.535	713.55
785.716	674.64
785.897	684.87
786.079	654.16
786.26	697.16
786.441	637.77
786.623	553.8
786.804	615.24
786.985	658.25
787.167	547.66
787.348	555.85
787.529	564.04
787.71	531.28
787.891	662.35
788.073	525.13
788.254	625.48
788.435	588.62
788.616	547.66
788.797	496.46
788.978	580.43
789.159	498.51
789.34	576.33
789.522	598.86
789.703	555.85
789.884	564.04
790.065	518.99
790.246	559.95
790.427	529.23
790.607	619.34
790.788	600.91
790.969	441.17
791.15	564.04
791.331	498.51
791.512	490.32
791.693	533.33
791.874	498.51
792.054	510.8
792.235	510.8
792.416	430.93
792.597	496.46
792.778	424.78
792.958	447.31
793.139	547.66
793.32	414.54
793.5	457.55
793.681	535.37
793.862	412.5
794.042	447.31
794.223	471.89
794.404	430.93
794.584	402.26
794.765	486.22
794.945	480.08
795.126	422.73
795.306	523.09
795.487	531.28
795.667	469.84
795.848	383.82
796.028	439.12
796.209	324.43
796.389	459.6
796.57	457.55
796.75	445.26
796.93	428.88
797.111	314.19
797.291	387.92
797.471	428.88
797.652	367.44
797.832	340.82
798.012	392.02
798.192	361.3
798.373	406.35
798.553	375.63
798.733	404.3
798.913	371.54
799.093	387.92
799.274	426.83
799.454	461.65
799.634	465.74
799.814	394.06
799.994	428.88
800.174	422.73
800.354	303.95
800.534	297.81
800.714	455.5
800.894	396.11
801.074	338.77
801.254	398.16
801.434	297.81
801.614	332.62
801.794	277.33
801.974	848.71
802.154	363.34
802.334	308.05
802.514	322.38
802.693	260.95
802.873	283.47
803.053	359.25
803.233	346.96
803.413	283.47
803.592	318.29
803.772	324.43
803.952	379.73
804.131	306
804.311	248.66
804.491	316.24
804.67	250.71
804.85	314.19
805.03	308.05
805.209	351.06
805.389	357.2
805.568	355.15
805.748	291.66
805.928	334.67
806.107	324.43
806.287	299.86
806.466	269.14
806.646	215.89
806.825	234.32
807.004	246.61
807.184	240.47
807.363	291.66
807.543	330.58
807.722	273.23
807.901	285.52
808.081	267.09
808.26	174.93
808.439	295.76
808.619	238.42
808.798	162.64
808.977	283.47
809.156	295.76
809.336	273.23
809.515	267.09
809.694	140.12
809.873	256.85
810.052	281.43
810.231	340.82
810.411	285.52
810.59	273.23
810.769	254.8
810.948	232.27
811.127	203.6
811.306	320.34
811.485	236.37
811.664	285.52
811.843	228.18
812.022	154.45
812.201	244.56
812.38	222.03
812.559	185.17
812.737	301.9
812.916	219.99
813.095	222.03
813.274	289.62
813.453	172.88
813.632	240.47
813.811	277.33
813.989	242.51
814.168	187.22
814.347	179.03
814.526	234.32
814.704	187.22
814.883	234.32
815.062	203.6
815.24	150.36
815.419	252.75
815.598	181.07
815.776	146.26
815.955	154.45
816.133	148.31
816.312	207.7
816.49	156.5
816.669	232.27
816.847	244.56
817.026	293.71
817.204	162.64
817.383	242.51
817.561	195.41
817.74	277.33
817.918	215.89
818.097	256.85
818.275	172.88
818.453	267.09
818.632	211.79
818.81	156.5
818.988	195.41
819.167	273.23
819.345	164.69
819.523	234.32
819.701	187.22
819.879	217.94
820.058	187.22
820.236	236.37
820.414	164.69
820.592	203.6
820.77	136.02
820.948	152.4
821.127	185.17
821.305	179.03
821.483	131.92
821.661	168.79
821.839	146.26
822.017	179.03
822.195	152.4
822.373	133.97
822.551	136.02
822.729	207.7
822.907	207.7
823.085	260.95
823.262	166.74
823.44	174.93
823.618	121.68
823.796	160.59
823.974	113.49
824.152	217.94
824.329	64.34
824.507	164.69
824.685	156.5
824.863	127.83
825.04	170.83
825.218	150.36
825.396	172.88
825.574	138.07
825.751	115.54
825.929	158.55
826.107	97.11
826.284	142.16
826.462	158.55
826.639	150.36
826.817	176.98
826.994	123.73
827.172	217.94
827.349	193.36
827.527	97.11
827.704	113.49
827.882	31.57
828.059	199.51
828.237	21.33
828.414	138.07
828.591	97.11
828.769	107.35
828.946	115.54
829.124	127.83
829.301	183.12
829.478	160.59
829.655	156.5
829.833	109.4
830.01	86.87
830.187	68.44
830.364	152.4
830.542	86.87
830.719	129.88
830.896	123.73
831.073	93.01
831.25	47.96
831.427	72.53
831.604	37.72
831.782	136.02
831.959	99.16
832.136	88.92
832.313	172.88
832.49	86.87
832.667	117.59
832.844	140.12
833.021	109.4
833.198	168.79
833.374	121.68
833.551	156.5
833.728	80.72
833.905	101.2
834.082	105.3
834.259	140.12
834.436	158.55
834.612	68.44
834.789	158.55
834.966	148.31
835.143	90.96
835.319	56.15
835.496	52.05
835.673	62.29
835.85	117.59
836.026	54.1
836.203	125.78
836.38	183.12
836.556	154.45
836.733	115.54
836.909	133.97
837.086	97.11
837.262	31.57
837.439	101.2
837.616	41.81
837.792	101.2
837.968	99.16
838.145	72.53
838.321	-13.48
838.498	80.72
838.674	80.72
838.851	93.01
839.027	76.63
839.203	47.96
839.38	140.12
839.556	56.15
839.732	121.68
839.909	170.83
840.085	70.48
840.261	95.06
840.437	127.83
840.614	39.76
840.79	123.73
840.966	86.87
841.142	76.63
841.318	58.2
841.494	109.4
841.671	50
841.847	74.58
842.023	39.76
842.199	138.07
842.375	74.58
842.551	90.96
842.727	101.2
842.903	39.76
843.079	52.05
843.255	111.44
843.431	62.29
843.607	133.97
843.783	23.38
843.959	50
844.134	47.96
844.31	93.01
844.486	86.87
844.662	60.24
844.838	70.48
845.013	105.3
845.189	150.36
845.365	146.26
845.541	45.91
845.716	101.2
845.892	84.82
846.068	43.86
846.244	136.02
846.419	131.92
846.595	80.72
846.77	86.87
846.946	95.06
847.122	39.76
847.297	117.59
847.473	86.87
847.648	60.24
847.824	17.24
847.999	43.86
848.175	72.53
848.35	90.96
848.526	60.24
848.701	54.1
848.876	27.48
849.052	97.11
849.227	58.2
849.403	103.25
849.578	33.62
849.753	-40.11
849.929	93.01
850.104	-17.58
850.279	121.68
850.454	45.91
850.63	84.82
850.805	62.29
850.98	47.96
851.155	23.38
851.33	76.63
851.505	39.76
851.681	74.58
851.856	-60.59
852.031	105.3
852.206	80.72
852.381	-1.19
852.556	15.19
852.731	76.63
852.906	47.96
853.081	179.03
853.256	93.01
853.431	15.19
853.606	62.29
853.781	27.48
853.956	35.67
854.131	19.29
854.305	-1.19
854.48	60.24
854.655	15.19
854.83	50
855.005	50
855.18	76.63
855.354	66.39
855.529	41.81
855.704	-19.63
855.879	72.53
856.053	78.68
856.228	60.24
856.403	-52.39
856.577	58.2
856.752	7
856.926	64.34
857.101	9.05
857.276	37.72
857.45	56.15
857.625	-5.29
857.799	54.1
857.974	13.14
858.148	19.29
858.323	43.86
858.497	31.57
858.672	62.29
858.846	68.44
859.02	19.29
859.195	29.52
859.369	66.39
859.543	-33.96
859.718	52.05
859.892	68.44
860.066	31.57
860.241	43.86
860.415	-13.48
860.589	33.62
860.763	27.48
860.938	-36.01
861.112	56.15
861.286	-1.19
861.46	9.05
861.634	41.81
861.808	19.29
861.982	35.67
862.157	31.57
862.331	-5.29
862.505	-1.19
862.679	-70.83
862.853	35.67
863.027	9.05
863.201	31.57
863.375	86.87
863.549	-56.49
863.722	101.2
863.896	15.19
864.07	-5.29
864.244	-5.29
864.418	-40.11
864.592	13.14
864.766	101.2
864.939	-1.19
865.113	15.19
865.287	29.52
865.461	37.72
865.634	25.43
865.808	4.95
865.982	62.29
866.156	56.15
866.329	-44.2
866.503	84.82
866.676	62.29
866.85	-46.25
867.024	25.43
867.197	25.43
867.371	58.2
867.544	11.09
867.718	-48.3
867.891	-1.19
868.065	19.29
868.238	-19.63
868.412	29.52
868.585	25.43
868.759	-17.58
868.932	7
869.105	-105.64
869.279	-31.91
869.452	43.86
869.625	33.62
869.799	-9.39
869.972	-3.24
870.145	45.91
870.319	11.09
870.492	90.96
870.665	-25.77
870.838	54.1
871.011	13.14
871.185	43.86
871.358	-31.91
871.531	-3.24
871.704	-21.67
871.877	101.2
872.05	35.67
872.223	15.19
872.396	76.63
872.569	39.76
872.742	80.72
872.915	84.82
873.088	-17.58
873.261	-38.06
873.434	50
873.607	76.63
873.78	54.1
873.953	-19.63
874.126	74.58
874.299	-29.87
874.471	-17.58
874.644	21.33
874.817	27.48
874.99	-9.39
875.163	2.9
875.335	52.05
875.508	-1.19
875.681	56.15
875.853	7
876.026	15.19
876.199	78.68
876.371	86.87
876.544	47.96
876.717	37.72
876.889	-68.78
877.062	17.24
877.234	-5.29
877.407	-11.43
877.579	-3.24
877.752	15.19
877.924	7
878.097	70.48
878.269	-42.15
878.442	11.09
878.614	52.05
878.786	-56.49
878.959	11.09
879.131	35.67
879.303	-44.2
879.476	-31.91
879.648	58.2
879.82	-5.29
879.993	21.33
880.165	-36.01
880.337	60.24
880.509	-36.01
880.681	4.95
880.854	-48.3
881.026	72.53
881.198	23.38
881.37	-5.29
881.542	33.62
881.714	-50.35
881.886	19.29
882.058	11.09
882.23	-15.53
882.402	17.24
882.574	54.1
882.746	64.34
882.918	17.24
883.09	-42.15
883.262	-38.06
883.434	64.34
883.606	-21.67
883.778	-44.2
883.95	66.39
884.122	-38.06
884.293	19.29
884.465	-38.06
884.637	0.85
884.809	4.95
884.98	-9.39
885.152	-31.91
885.324	23.38
885.496	7
885.667	11.09
885.839	-5.29
886.011	39.76
886.182	21.33
886.354	-54.44
886.525	-68.78
886.697	43.86
886.869	-1.19
887.04	-89.26
887.212	70.48
887.383	17.24
887.555	-85.16
887.726	54.1
887.897	-3.24
888.069	-23.72
888.24	31.57
888.412	-17.58
888.583	25.43
888.754	-33.96
888.926	66.39
889.097	21.33
889.268	-87.21
889.44	-3.24
889.611	-91.31
889.782	13.14
889.953	47.96
890.125	45.91
890.296	-38.06
890.467	2.9
890.638	-44.2
890.809	-9.39
890.98	-44.2
891.151	11.09
891.323	64.34
891.494	-11.43
891.665	-27.82
891.836	9.05
892.007	21.33
892.178	-5.29
892.349	-42.15
892.52	-58.54
892.691	9.05
892.862	35.67
893.032	-17.58
893.203	54.1
893.374	29.52
893.545	43.86
893.716	-27.82
893.887	60.24
894.057	-25.77
894.228	13.14
894.399	-21.67
894.57	-50.35
894.74	39.76
894.911	9.05
895.082	-9.39
895.253	-33.96
895.423	-9.39
895.594	0.85
895.764	-19.63
895.935	31.57
896.106	60.24
896.276	-15.53
896.447	7
896.617	-58.54
896.788	-74.92
896.958	-36.01
897.129	-62.63
897.299	-29.87
897.47	35.67
897.64	13.14
897.81	11.09
897.981	9.05
898.151	2.9
898.322	7
898.492	-9.39
898.662	-25.77
898.832	-17.58
899.003	56.15
899.173	35.67
899.343	15.19
899.513	-27.82
