Data from USB4F104151__253__10-39-44-309.txt Node

Date: Wed Mar 12 10:39:44 EDT 2025
User: louis
Spectrometer: USB4F10415
Trigger mode: 4
Integration Time (sec): 3.000000E-2
Scans to average: 1
Electric dark correction enabled: true
Nonlinearity correction enabled: false
Boxcar width: 0
XAxis mode: Wavelengths
Number of Pixels in Spectrum: 3648
>>>>>Begin Spectral Data<<<<<
178.204	-89.77
178.424	-89.77
178.644	-89.77
178.864	-93.87
179.084	-75.43
179.304	-50.86
179.524	-3.75
179.744	8.53
179.964	8.53
180.184	29.01
180.404	20.82
180.624	-5.8
180.844	-32.43
181.064	-48.81
181.283	26.96
181.503	20.82
181.723	26.96
181.943	-16.04
182.163	47.44
182.383	14.68
182.602	84.31
182.822	72.02
183.042	22.87
183.262	80.21
183.482	35.16
183.701	84.31
183.921	24.92
184.141	88.4
184.361	51.54
184.58	51.54
184.8	-9.9
185.02	-7.85
185.239	78.16
185.459	12.63
185.679	90.45
185.898	12.63
186.118	41.3
186.338	-13.99
186.557	29.01
186.777	45.4
186.997	4.44
187.216	26.96
187.436	139.6
187.655	10.58
187.875	16.73
188.095	-18.09
188.314	100.69
188.534	61.78
188.753	18.77
188.973	-9.9
189.192	135.51
189.412	112.98
189.631	12.63
189.851	65.88
190.07	102.74
190.29	-26.28
190.509	33.11
190.729	22.87
190.948	41.3
191.168	106.84
191.387	76.12
191.607	-42.67
191.826	22.87
192.045	35.16
192.265	63.83
192.484	2.39
192.704	49.49
192.923	16.73
193.142	168.27
193.362	94.55
193.581	102.74
193.8	94.55
194.02	31.06
194.239	31.06
194.458	8.53
194.678	37.2
194.897	67.92
195.116	-1.71
195.335	35.16
195.555	-18.09
195.774	94.55
195.993	39.25
196.212	-13.99
196.432	24.92
196.651	29.01
196.87	55.64
197.089	158.03
197.308	119.12
197.528	43.35
197.747	43.35
197.966	45.4
198.185	106.84
198.404	121.17
198.623	49.49
198.842	69.97
199.062	6.49
199.281	67.92
199.5	78.16
199.719	47.44
199.938	96.6
200.157	57.68
200.376	4.44
200.595	112.98
200.814	-50.86
201.033	37.2
201.252	129.36
201.471	-1.71
201.69	80.21
201.909	16.73
202.128	65.88
202.347	80.21
202.566	-50.86
202.785	-11.95
203.004	55.64
203.223	129.36
203.442	31.06
203.661	35.16
203.879	-24.23
204.098	37.2
204.317	14.68
204.536	51.54
204.755	127.32
204.974	16.73
205.193	20.82
205.411	102.74
205.63	-11.95
205.849	-22.19
206.068	129.36
206.287	16.73
206.505	45.4
206.724	104.79
206.943	-32.43
207.162	55.64
207.381	31.06
207.599	26.96
207.818	100.69
208.037	20.82
208.255	108.88
208.474	104.79
208.693	-20.14
208.911	-5.8
209.13	47.44
209.349	72.02
209.567	39.25
209.786	168.27
210.005	100.69
210.223	69.97
210.442	65.88
210.661	18.77
210.879	45.4
211.098	-24.23
211.316	49.49
211.535	123.22
211.753	-9.9
211.972	-9.9
212.191	35.16
212.409	153.94
212.628	37.2
212.846	-18.09
213.065	35.16
213.283	106.84
213.502	29.01
213.72	55.64
213.938	72.02
214.157	51.54
214.375	53.59
214.594	-20.14
214.812	78.16
215.031	104.79
215.249	31.06
215.467	-3.75
215.686	86.36
215.904	61.78
216.122	20.82
216.341	51.54
216.559	80.21
216.778	29.01
216.996	31.06
217.214	57.68
217.432	78.16
217.651	22.87
217.869	100.69
218.087	100.69
218.306	49.49
218.524	119.12
218.742	-3.75
218.96	84.31
219.179	72.02
219.397	51.54
219.615	35.16
219.833	74.07
220.051	-30.38
220.27	115.03
220.488	129.36
220.706	-46.76
220.924	53.59
221.142	-28.33
221.36	4.44
221.578	22.87
221.796	-32.43
222.015	49.49
222.233	29.01
222.451	80.21
222.669	61.78
222.887	94.55
223.105	53.59
223.323	51.54
223.541	24.92
223.759	55.64
223.977	84.31
224.195	80.21
224.413	102.74
224.631	57.68
224.849	35.16
225.067	178.51
225.285	53.59
225.503	53.59
225.721	22.87
225.939	96.6
226.157	55.64
226.375	188.75
226.592	55.64
226.81	35.16
227.028	24.92
227.246	59.73
227.464	51.54
227.682	-1.71
227.9	53.59
228.117	88.4
228.335	33.11
228.553	125.27
228.771	104.79
228.989	37.2
229.206	88.4
229.424	69.97
229.642	12.63
229.86	37.2
230.077	88.4
230.295	29.01
230.513	-30.38
230.731	55.64
230.948	88.4
231.166	110.93
231.384	-34.47
231.601	41.3
231.819	63.83
232.037	69.97
232.254	37.2
232.472	84.31
232.689	31.06
232.907	0.34
233.125	20.82
233.342	14.68
233.56	-32.43
233.777	51.54
233.995	-3.75
234.213	110.93
234.43	24.92
234.648	84.31
234.865	-34.47
235.083	80.21
235.3	45.4
235.518	90.45
235.735	86.36
235.953	-24.23
236.17	94.55
236.388	78.16
236.605	63.83
236.822	115.03
237.04	88.4
237.257	86.36
237.475	74.07
237.692	92.5
237.909	51.54
238.127	88.4
238.344	74.07
238.562	86.36
238.779	115.03
238.996	63.83
239.214	10.58
239.431	63.83
239.648	-97.96
239.865	88.4
240.083	10.58
240.3	2.39
240.517	-38.57
240.735	12.63
240.952	80.21
241.169	94.55
241.386	117.08
241.603	45.4
241.821	-7.85
242.038	147.8
242.255	10.58
242.472	-5.8
242.689	43.35
242.907	108.88
243.124	69.97
243.341	88.4
243.558	12.63
243.775	35.16
243.992	12.63
244.209	29.01
244.426	78.16
244.643	74.07
244.86	84.31
245.078	4.44
245.295	86.36
245.512	35.16
245.729	-20.14
245.946	35.16
246.163	4.44
246.38	-18.09
246.597	41.3
246.814	20.82
247.031	110.93
247.248	31.06
247.464	59.73
247.681	86.36
247.898	2.39
248.115	55.64
248.332	35.16
248.549	43.35
248.766	94.55
248.983	37.2
249.2	-16.04
249.417	110.93
249.633	29.01
249.85	90.45
250.067	61.78
250.284	22.87
250.501	45.4
250.717	53.59
250.934	-24.23
251.151	82.26
251.368	39.25
251.585	61.78
251.801	80.21
252.018	67.92
252.235	61.78
252.451	-9.9
252.668	94.55
252.885	137.56
253.102	39.25
253.318	49.49
253.535	10.58
253.752	24.92
253.968	55.64
254.185	-22.19
254.401	31.06
254.618	22.87
254.835	-13.99
255.051	88.4
255.268	8.53
255.484	61.78
255.701	69.97
255.917	106.84
256.134	8.53
256.351	51.54
256.567	43.35
256.784	59.73
257	82.26
257.217	94.55
257.433	94.55
257.65	6.49
257.866	39.25
258.082	-20.14
258.299	24.92
258.515	49.49
258.732	61.78
258.948	2.39
259.165	100.69
259.381	31.06
259.597	35.16
259.814	63.83
260.03	20.82
260.246	86.36
260.463	-3.75
260.679	14.68
260.895	45.4
261.112	35.16
261.328	41.3
261.544	22.87
261.761	82.26
261.977	43.35
262.193	88.4
262.409	119.12
262.626	43.35
262.842	67.92
263.058	-5.8
263.274	145.75
263.49	100.69
263.707	43.35
263.923	0.34
264.139	2.39
264.355	61.78
264.571	104.79
264.787	29.01
265.004	115.03
265.22	63.83
265.436	35.16
265.652	33.11
265.868	22.87
266.084	16.73
266.3	22.87
266.516	92.5
266.732	74.07
266.948	69.97
267.164	37.2
267.38	12.63
267.596	139.6
267.812	145.75
268.028	55.64
268.244	92.5
268.46	-24.23
268.676	53.59
268.892	84.31
269.108	-36.52
269.324	20.82
269.54	4.44
269.756	55.64
269.972	22.87
270.188	45.4
270.403	16.73
270.619	112.98
270.835	78.16
271.051	35.16
271.267	72.02
271.483	-3.75
271.698	-20.14
271.914	67.92
272.13	78.16
272.346	-5.8
272.562	63.83
272.777	45.4
272.993	88.4
273.209	35.16
273.425	67.92
273.64	2.39
273.856	104.79
274.072	55.64
274.287	37.2
274.503	145.75
274.719	16.73
274.934	51.54
275.15	-9.9
275.366	45.4
275.581	14.68
275.797	4.44
276.012	31.06
276.228	-26.28
276.444	26.96
276.659	67.92
276.875	-16.04
277.09	63.83
277.306	61.78
277.521	94.55
277.737	31.06
277.952	80.21
278.168	96.6
278.383	72.02
278.599	65.88
278.814	76.12
279.03	78.16
279.245	127.32
279.461	45.4
279.676	88.4
279.892	26.96
280.107	55.64
280.322	88.4
280.538	37.2
280.753	35.16
280.969	65.88
281.184	78.16
281.399	96.6
281.615	110.93
281.83	94.55
282.045	-9.9
282.26	8.53
282.476	14.68
282.691	100.69
282.906	-3.75
283.122	43.35
283.337	-9.9
283.552	88.4
283.767	92.5
283.983	67.92
284.198	137.56
284.413	78.16
284.628	0.34
284.843	47.44
285.058	94.55
285.274	43.35
285.489	24.92
285.704	78.16
285.919	31.06
286.134	16.73
286.349	14.68
286.564	26.96
286.779	18.77
286.995	45.4
287.21	24.92
287.425	51.54
287.64	24.92
287.855	-3.75
288.07	-26.28
288.285	88.4
288.5	55.64
288.715	53.59
288.93	74.07
289.145	6.49
289.36	110.93
289.575	69.97
289.79	31.06
290.004	-13.99
290.219	123.22
290.434	59.73
290.649	104.79
290.864	31.06
291.079	37.2
291.294	59.73
291.509	139.6
291.724	100.69
291.938	-5.8
292.153	117.08
292.368	-3.75
292.583	84.31
292.798	74.07
293.012	47.44
293.227	47.44
293.442	98.64
293.657	53.59
293.871	69.97
294.086	117.08
294.301	90.45
294.516	86.36
294.73	31.06
294.945	57.68
295.16	6.49
295.374	51.54
295.589	29.01
295.804	39.25
296.018	65.88
296.233	61.78
296.447	43.35
296.662	47.44
296.877	84.31
297.091	39.25
297.306	84.31
297.52	39.25
297.735	20.82
297.949	41.3
298.164	162.13
298.378	125.27
298.593	41.3
298.807	24.92
299.022	55.64
299.236	76.12
299.451	84.31
299.665	43.35
299.88	92.5
300.094	76.12
300.309	74.07
300.523	80.21
300.737	12.63
300.952	69.97
301.166	67.92
301.381	82.26
301.595	84.31
301.809	63.83
302.024	14.68
302.238	35.16
302.452	78.16
302.667	20.82
302.881	76.12
303.095	121.17
303.309	29.01
303.524	0.34
303.738	82.26
303.952	2.39
304.166	112.98
304.381	78.16
304.595	125.27
304.809	53.59
305.023	129.36
305.237	22.87
305.452	121.17
305.666	84.31
305.88	72.02
306.094	-34.47
306.308	41.3
306.522	12.63
306.736	63.83
306.95	110.93
307.164	22.87
307.379	110.93
307.593	80.21
307.807	43.35
308.021	158.03
308.235	-20.14
308.449	110.93
308.663	59.73
308.877	92.5
309.091	-5.8
309.305	59.73
309.519	57.68
309.733	82.26
309.947	31.06
310.161	92.5
310.374	47.44
310.588	100.69
310.802	29.01
311.016	37.2
311.23	74.07
311.444	76.12
311.658	20.82
311.872	67.92
312.085	92.5
312.299	108.88
312.513	29.01
312.727	61.78
312.941	96.6
313.154	65.88
313.368	-18.09
313.582	69.97
313.796	-3.75
314.009	67.92
314.223	125.27
314.437	55.64
314.651	41.3
314.864	39.25
315.078	100.69
315.292	-16.04
315.505	14.68
315.719	72.02
315.933	10.58
316.146	63.83
316.36	-1.71
316.573	63.83
316.787	47.44
317.001	84.31
317.214	37.2
317.428	12.63
317.641	72.02
317.855	108.88
318.068	78.16
318.282	47.44
318.495	69.97
318.709	86.36
318.922	33.11
319.136	53.59
319.349	84.31
319.563	-5.8
319.776	20.82
319.99	16.73
320.203	33.11
320.417	141.65
320.63	2.39
320.843	125.27
321.057	45.4
321.27	16.73
321.483	92.5
321.697	51.54
321.91	55.64
322.124	65.88
322.337	39.25
322.55	53.59
322.763	61.78
322.977	16.73
323.19	35.16
323.403	35.16
323.617	76.12
323.83	61.78
324.043	76.12
324.256	67.92
324.469	57.68
324.683	104.79
324.896	-16.04
325.109	26.96
325.322	29.01
325.535	108.88
325.748	63.83
325.962	65.88
326.175	35.16
326.388	117.08
326.601	43.35
326.814	37.2
327.027	47.44
327.24	168.27
327.453	-18.09
327.666	53.59
327.879	160.08
328.092	112.98
328.305	61.78
328.518	-9.9
328.731	-13.99
328.944	90.45
329.157	100.69
329.37	100.69
329.583	84.31
329.796	12.63
330.009	2.39
330.222	63.83
330.435	80.21
330.648	55.64
330.861	80.21
331.073	29.01
331.286	100.69
331.499	63.83
331.712	-30.38
331.925	88.4
332.138	67.92
332.35	121.17
332.563	61.78
332.776	110.93
332.989	57.68
333.202	96.6
333.414	119.12
333.627	115.03
333.84	35.16
334.053	45.4
334.265	-7.85
334.478	10.58
334.691	59.73
334.903	47.44
335.116	10.58
335.329	43.35
335.541	-13.99
335.754	37.2
335.966	102.74
336.179	123.22
336.392	53.59
336.604	110.93
336.817	119.12
337.029	63.83
337.242	74.07
337.454	67.92
337.667	72.02
337.88	129.36
338.092	117.08
338.305	39.25
338.517	10.58
338.729	88.4
338.942	147.8
339.154	-30.38
339.367	88.4
339.579	88.4
339.792	55.64
340.004	39.25
340.217	112.98
340.429	59.73
340.641	-42.67
340.854	-34.47
341.066	39.25
341.278	115.03
341.491	26.96
341.703	-18.09
341.915	51.54
342.128	14.68
342.34	-18.09
342.552	-18.09
342.764	61.78
342.977	33.11
343.189	117.08
343.401	57.68
343.613	37.2
343.826	135.51
344.038	45.4
344.25	35.16
344.462	72.02
344.674	88.4
344.886	104.79
345.099	104.79
345.311	-13.99
345.523	98.64
345.735	53.59
345.947	41.3
346.159	29.01
346.371	67.92
346.583	133.46
346.795	110.93
347.007	94.55
347.219	43.35
347.431	74.07
347.643	94.55
347.855	94.55
348.067	2.39
348.279	65.88
348.491	55.64
348.703	53.59
348.915	96.6
349.127	45.4
349.339	67.92
349.551	-22.19
349.763	92.5
349.975	-1.71
350.187	100.69
350.399	61.78
350.61	22.87
350.822	67.92
351.034	119.12
351.246	45.4
351.458	117.08
351.669	96.6
351.881	72.02
352.093	67.92
352.305	72.02
352.517	80.21
352.728	100.69
352.94	35.16
353.152	78.16
353.363	26.96
353.575	82.26
353.787	55.64
353.999	63.83
354.21	121.17
354.422	57.68
354.633	67.92
354.845	37.2
355.057	47.44
355.268	127.32
355.48	-18.09
355.692	84.31
355.903	-9.9
356.115	88.4
356.326	29.01
356.538	100.69
356.749	102.74
356.961	139.6
357.172	22.87
357.384	86.36
357.595	61.78
357.807	45.4
358.018	69.97
358.23	33.11
358.441	117.08
358.653	96.6
358.864	65.88
359.075	29.01
359.287	37.2
359.498	108.88
359.709	69.97
359.921	61.78
360.132	67.92
360.344	59.73
360.555	35.16
360.766	53.59
360.977	67.92
361.189	102.74
361.4	22.87
361.611	137.56
361.823	92.5
362.034	84.31
362.245	67.92
362.456	74.07
362.667	143.7
362.879	100.69
363.09	47.44
363.301	96.6
363.512	76.12
363.723	-5.8
363.935	47.44
364.146	92.5
364.357	47.44
364.568	82.26
364.779	69.97
364.99	47.44
365.201	84.31
365.412	84.31
365.623	39.25
365.834	59.73
366.045	61.78
366.256	-18.09
366.467	43.35
366.678	121.17
366.889	119.12
367.1	24.92
367.311	69.97
367.522	100.69
367.733	143.7
367.944	86.36
368.155	123.22
368.366	72.02
368.577	24.92
368.788	104.79
368.999	59.73
369.209	59.73
369.42	82.26
369.631	80.21
369.842	110.93
370.053	69.97
370.264	47.44
370.474	29.01
370.685	63.83
370.896	61.78
371.107	115.03
371.317	80.21
371.528	39.25
371.739	135.51
371.95	63.83
372.16	82.26
372.371	33.11
372.582	63.83
372.792	55.64
373.003	14.68
373.214	78.16
373.424	110.93
373.635	29.01
373.846	108.88
374.056	51.54
374.267	72.02
374.477	57.68
374.688	59.73
374.898	92.5
375.109	110.93
375.319	67.92
375.53	86.36
375.74	88.4
375.951	22.87
376.161	94.55
376.372	6.49
376.582	115.03
376.793	86.36
377.003	147.8
377.214	110.93
377.424	55.64
377.635	69.97
377.845	49.49
378.055	125.27
378.266	43.35
378.476	53.59
378.686	102.74
378.897	39.25
379.107	59.73
379.317	98.64
379.528	41.3
379.738	92.5
379.948	53.59
380.158	141.65
380.369	153.94
380.579	133.46
380.789	96.6
380.999	86.36
381.21	141.65
381.42	104.79
381.63	12.63
381.84	8.53
382.05	31.06
382.261	104.79
382.471	80.21
382.681	80.21
382.891	160.08
383.101	86.36
383.311	94.55
383.521	43.35
383.731	57.68
383.941	84.31
384.151	96.6
384.361	94.55
384.571	139.6
384.781	10.58
384.991	86.36
385.201	76.12
385.411	61.78
385.621	80.21
385.831	102.74
386.041	74.07
386.251	90.45
386.461	86.36
386.671	2.39
386.881	8.53
387.091	61.78
387.301	104.79
387.511	117.08
387.72	96.6
387.93	76.12
388.14	18.77
388.35	137.56
388.56	78.16
388.769	141.65
388.979	22.87
389.189	88.4
389.399	121.17
389.609	115.03
389.818	117.08
390.028	80.21
390.238	184.66
390.447	43.35
390.657	133.46
390.867	88.4
391.076	57.68
391.286	119.12
391.496	69.97
391.705	143.7
391.915	123.22
392.125	149.84
392.334	131.41
392.544	162.13
392.753	37.2
392.963	143.7
393.172	108.88
393.382	69.97
393.591	162.13
393.801	119.12
394.01	80.21
394.22	207.19
394.429	94.55
394.639	67.92
394.848	186.71
395.058	108.88
395.267	55.64
395.477	170.32
395.686	203.09
395.895	172.37
396.105	139.6
396.314	137.56
396.524	176.47
396.733	125.27
396.942	139.6
397.152	139.6
397.361	125.27
397.57	143.7
397.78	106.84
397.989	143.7
398.198	108.88
398.407	67.92
398.617	151.89
398.826	172.37
399.035	168.27
399.244	190.8
399.453	162.13
399.663	158.03
399.872	166.23
400.081	104.79
400.29	160.08
400.499	225.62
400.708	135.51
400.917	106.84
401.127	98.64
401.336	143.7
401.545	168.27
401.754	151.89
401.963	201.04
402.172	147.8
402.381	151.89
402.59	176.47
402.799	223.57
403.008	198.99
403.217	174.42
403.426	205.14
403.635	141.65
403.844	151.89
404.053	137.56
404.262	145.75
404.471	244.05
404.68	178.51
404.888	233.81
405.097	209.23
405.306	168.27
405.515	231.76
405.724	209.23
405.933	176.47
406.142	242
406.35	272.72
406.559	248.15
406.768	203.09
406.977	325.97
407.185	252.24
407.394	287.06
407.603	239.95
407.812	330.06
408.02	309.58
408.229	291.15
408.438	342.35
408.646	334.16
408.855	348.5
409.064	465.23
409.272	325.97
409.481	383.31
409.69	387.41
409.898	401.74
410.107	432.46
410.315	487.76
410.524	416.08
410.733	508.24
410.941	416.08
411.15	579.92
411.358	510.29
411.567	569.68
411.775	563.53
411.984	584.01
412.192	641.36
412.401	489.81
412.609	643.4
412.818	743.75
413.026	647.5
413.234	731.47
413.443	661.84
413.651	723.27
413.86	739.66
414.068	704.84
414.276	825.67
414.485	837.96
414.693	831.82
414.901	909.64
415.11	981.32
415.318	911.69
415.526	1005.89
415.734	1028.42
415.943	1093.96
416.151	1126.72
416.359	1149.25
416.567	1192.26
416.776	1169.73
416.984	1231.17
417.192	1274.18
417.4	1349.95
417.608	1370.43
417.817	1442.11
418.025	1446.21
418.233	1648.96
418.441	1464.64
418.649	1608
418.857	1683.77
419.065	1804.6
419.273	1720.64
419.481	1825.08
419.689	1900.86
419.897	2031.93
420.105	2005.3
420.313	2191.67
420.521	2048.31
420.729	2195.76
420.937	2298.16
421.145	2406.7
421.353	2584.88
421.561	2529.58
421.769	2646.32
421.977	2871.59
422.185	2820.39
422.393	2904.36
422.601	3125.54
422.809	3256.61
423.017	3146.02
423.224	3287.33
423.432	3408.16
423.64	3455.26
423.848	3711.26
424.056	3531.04
424.263	3836.19
424.471	3891.48
424.679	4110.61
424.887	4124.95
425.094	4370.71
425.302	4423.95
425.51	4618.51
425.718	4720.91
425.925	4864.27
426.133	4915.47
426.341	5206.28
426.548	5339.4
426.756	5298.44
426.964	5404.93
427.171	5859.58
427.379	5941.5
427.586	6134.01
427.794	6252.79
428.001	6666.48
428.209	6803.69
428.417	6662.38
428.624	7071.98
428.832	7198.95
429.039	7213.29
429.247	7071.98
429.454	7831.77
429.662	8337.62
429.869	7712.99
430.076	8235.22
430.284	8022.23
430.491	8583.38
430.699	8988.88
430.906	9044.17
431.114	9066.7
431.321	9312.46
431.528	9574.6
431.736	10125.5
431.943	10596.53
432.15	10418.36
432.358	10483.89
432.565	11049.13
432.772	10807.47
432.979	11739.3
433.187	11901.09
433.394	11868.32
433.601	12595.35
433.808	13011.09
434.016	12605.59
434.223	13279.37
434.43	13846.66
434.637	13678.72
434.844	14506.1
435.052	14854.26
435.259	14635.13
435.466	14852.21
435.673	14690.42
435.88	15980.64
436.087	16697.43
436.294	16498.78
436.501	16062.56
436.708	16425.05
436.915	17260.62
437.122	17735.75
437.329	17778.76
437.537	18264.13
437.743	18913.33
437.95	18800.69
438.157	19652.65
438.364	20406.3
438.571	20197.41
438.778	20258.85
438.985	22149.12
439.192	21420.05
439.399	22138.88
439.606	21497.87
439.813	22728.7
440.02	24334.31
440.227	23607.28
440.433	23255.03
440.64	24377.31
440.847	24096.74
441.054	24748
441.261	26247.11
441.467	26081.22
441.674	26515.39
441.881	27377.59
442.088	27307.96
442.294	27310
442.501	27758.51
442.708	28573.6
442.914	29470.61
443.121	30900.09
443.328	30322.57
443.534	32321.38
443.741	31117.18
443.948	30885.76
444.154	33267.55
444.361	32986.97
444.568	33255.26
444.774	33509.21
444.981	33611.6
445.187	34465.61
445.394	35909.43
445.6	36079.41
445.807	38999.81
446.013	37400.35
446.22	37857.04
446.426	39364.35
446.633	39530.23
446.839	41133.79
447.046	39214.85
447.252	41557.72
447.459	41342.69
447.665	41273.06
447.871	43058.88
448.078	44924.58
448.284	42663.63
448.491	43941.56
448.697	45213.35
448.903	46206.61
449.11	46472.85
449.316	45692.57
449.522	46323.35
449.728	47169.16
449.935	47711.87
450.141	47683.2
450.347	48690.8
450.553	47230.6
450.76	47574.66
450.966	49167.98
451.172	48156.28
451.378	49284.71
451.584	48780.91
451.791	49391.2
451.997	49540.71
452.203	50202.2
452.409	49915.48
452.615	50114.14
452.821	47894.14
453.027	47296.13
453.233	49528.42
453.44	47668.86
453.646	48299.64
453.852	48395.89
454.058	49231.46
454.264	47357.57
454.47	48199.29
454.676	47228.55
454.882	48631.41
455.088	44371.63
455.294	45313.7
455.5	45768.35
455.705	46325.39
455.911	44181.17
456.117	43290.3
456.323	42675.91
456.529	40115.95
456.735	42319.57
456.941	40849.13
457.147	40513.26
457.352	39010.05
457.558	38653.7
457.764	38508.3
457.97	37971.73
458.176	37035.81
458.381	36783.91
458.587	35227.45
458.793	35032.89
458.999	33095.52
459.204	35483.45
459.41	34699.08
459.616	32386.92
459.821	32341.86
460.027	32493.41
460.233	31313.78
460.438	30082.95
460.644	30599.04
460.85	28735.39
461.055	28587.94
461.261	28520.35
461.466	26181.57
461.672	25558.99
461.878	27594.67
462.083	25397.2
462.289	25331.67
462.494	24780.76
462.7	23805.93
462.905	23341.04
463.111	23908.33
463.316	24147.94
463.522	23672.81
463.727	23635.95
463.932	23427.06
464.138	23195.64
464.343	23529.45
464.549	22724.6
464.754	23773.16
464.959	23209.97
465.165	23341.04
465.37	22415.36
465.575	21809.16
465.781	22716.41
465.986	22763.51
466.191	21878.79
466.397	21676.04
466.602	20439.07
466.807	21147.67
467.012	21424.14
467.218	21192.72
467.423	21022.74
467.628	21205.01
467.833	21714.95
468.038	20951.06
468.244	20297.76
468.449	21190.67
468.654	20723.74
468.859	20852.76
469.064	20174.88
469.269	19468.33
469.474	19853.35
469.679	20389.92
469.885	19408.94
470.09	19789.86
470.295	19527.72
470.5	19091.51
470.705	19251.25
470.91	18563.13
471.115	18440.25
471.32	18671.67
471.525	18956.34
471.73	18196.54
471.935	18104.39
472.139	17655.88
472.344	17846.34
472.549	17604.68
472.754	17227.85
472.959	17078.35
473.164	16554.07
473.369	16543.83
473.574	17113.17
473.778	16840.79
473.983	16881.75
474.188	16724.05
474.393	15872.1
474.598	16197.73
474.802	15845.48
475.007	15702.12
475.212	15825
475.417	15216.75
475.621	15022.19
475.826	15448.17
476.031	14831.73
476.235	14758
476.44	15218.8
476.645	14565.5
476.849	14573.69
477.054	14526.58
477.259	14203
477.463	14329.98
477.668	13992.06
477.872	14080.13
478.077	13774.98
478.282	13570.18
478.486	13383.82
478.691	13392.01
478.895	13074.57
479.1	13181.07
479.304	13281.42
479.509	12861.59
479.713	13039.76
479.918	12892.3
480.122	12540.05
480.326	12925.07
480.531	12966.03
480.735	12781.71
480.94	12634.26
481.144	13121.68
481.348	12230.81
481.553	12671.12
481.757	12206.24
481.961	12447.9
482.166	12619.92
482.37	12419.22
482.574	12265.63
482.778	12419.22
482.983	12404.89
483.187	12374.17
483.391	12759.19
483.595	12316.83
483.8	12081.31
484.004	12488.85
484.208	12329.11
484.412	12159.13
484.616	12634.26
484.821	12417.18
485.025	12284.06
485.229	12531.86
485.433	12183.71
485.637	12511.38
485.841	12335.26
486.045	12236.95
486.249	12421.27
486.453	12298.39
486.657	12243.1
486.861	12454.04
487.065	12015.77
487.269	12517.53
487.473	12509.33
487.677	12617.88
487.881	12478.61
488.085	12120.22
488.289	12593.3
488.493	12443.8
488.697	12478.61
488.901	12224.67
489.105	12548.25
489.309	12560.53
489.512	12495
489.716	12837.01
489.92	12558.49
490.124	12890.26
490.328	12787.86
490.531	12554.39
490.735	13011.09
490.939	12900.5
491.143	12863.63
491.346	12720.28
491.55	13150.35
491.754	13043.85
491.958	13035.66
492.161	12933.26
492.365	13076.62
492.569	13191.31
492.772	13009.04
492.976	13623.43
493.18	13602.95
493.383	13525.13
493.587	13512.84
493.79	13897.86
493.994	13471.88
494.197	13774.98
494.401	13971.58
494.605	14006.4
494.808	14000.26
495.012	14188.67
495.215	14514.3
495.419	14463.1
495.622	14334.07
495.825	14489.72
496.029	14729.33
496.232	15095.92
496.436	14901.36
496.639	15353.96
496.843	15325.29
497.046	15765.6
497.249	15540.33
497.453	15700.07
497.656	15825
497.859	15986.79
498.063	16259.17
498.266	16533.59
498.469	16623.7
498.673	16437.34
498.876	16926.8
499.079	16967.76
499.282	16791.64
499.485	17639.5
499.689	17348.68
499.892	17932.36
500.095	17610.82
500.298	18374.72
500.501	18288.7
500.705	18823.22
500.908	18802.74
501.111	19134.51
501.314	19189.81
501.517	19503.15
501.72	20023.33
501.923	19673.13
502.126	20297.76
502.329	20498.46
502.532	20465.69
502.735	20475.93
502.938	20631.58
503.141	20967.45
503.344	21243.92
503.547	21374.99
503.75	21506.06
503.953	21886.98
504.156	22341.63
504.359	22532.09
504.562	22552.57
504.765	23023.61
504.968	23359.47
505.17	23537.65
505.373	23703.53
505.576	23771.11
505.779	24297.44
505.982	24338.4
506.185	24715.23
506.387	25292.76
506.59	25165.78
506.793	25626.57
506.996	25608.14
507.198	26423.23
507.401	26335.17
507.604	26517.44
507.807	26886.08
508.009	27162.55
508.212	27639.73
508.415	27742.13
508.617	27836.33
508.82	28077.99
509.022	27838.38
509.225	29106.07
509.428	29110.17
509.63	29317.01
509.833	29222.81
510.035	30011.28
510.238	30230.41
510.44	30328.71
510.643	30689.15
510.845	31070.08
511.048	31008.64
511.25	31465.33
511.453	31731.57
511.655	32931.68
511.858	32673.63
512.06	32763.75
512.262	32853.86
512.465	32845.66
512.667	33828.69
512.87	34111.31
513.072	33976.14
513.274	34780.99
513.477	35110.72
513.679	35231.55
513.881	35581.75
514.084	36173.61
514.286	36157.23
514.488	36464.42
514.69	37240.61
514.893	37463.83
515.095	37480.22
515.297	37945.11
515.499	37900.05
515.701	38280.97
515.904	39083.78
516.106	38872.84
516.308	39714.55
516.51	39892.72
516.712	39874.29
516.914	40838.89
517.116	41115.36
517.318	41731.8
517.52	41561.82
517.722	41588.44
517.925	42524.36
518.127	42747.59
518.329	42970.82
518.531	42573.52
518.733	43716.28
518.935	44091.06
519.136	43982.52
519.338	45106.85
519.54	45045.41
519.742	45620.89
519.944	45235.88
520.146	46112.41
520.348	46401.17
520.55	46646.93
520.752	46648.97
520.954	48053.88
521.155	47480.45
521.357	47869.56
521.559	48402.03
521.761	49159.78
521.963	49100.39
522.164	49430.12
522.366	49757.79
522.568	50325.08
522.77	50142.81
522.971	50757.2
523.173	50693.71
523.375	51084.87
523.576	50984.52
523.778	51379.78
523.98	52182.59
524.181	51725.89
524.383	52571.7
524.584	52741.68
524.786	53315.11
524.988	53095.98
525.189	53386.79
525.391	54009.37
525.592	54298.14
525.794	54722.07
525.995	54261.27
526.197	54308.38
526.398	54828.56
526.6	55229.96
526.801	55066.13
527.003	55627.27
527.204	55404.04
527.406	56090.11
527.607	55836.16
527.808	56643.06
528.01	55711.24
528.211	56188.41
528.412	56974.83
528.614	56710.64
528.815	56520.18
529.016	57486.82
529.218	57116.14
529.419	57558.5
529.62	57476.58
529.822	57474.54
530.023	57359.85
530.224	57454.06
530.425	57712.1
530.626	57386.47
530.828	57365.99
531.029	58293.72
531.23	58060.26
531.431	58160.61
531.632	58220
531.833	58244.57
532.035	58424.79
532.236	58357.21
532.437	58617.3
532.638	58340.83
532.839	58555.86
533.04	59049.42
533.241	58263
533.442	59241.93
533.643	58758.61
533.844	59375.05
534.045	59184.59
534.246	58418.65
534.447	59145.68
534.648	58629.59
534.849	59065.81
535.05	58891.73
535.251	59121.1
535.451	58942.93
535.652	59366.86
535.853	59080.14
536.054	59112.91
536.255	59375.05
536.456	58746.32
536.657	59719.11
536.857	59301.32
537.058	58527.19
537.259	59409.87
537.46	59182.54
537.66	59104.72
537.861	59276.75
538.062	59061.71
538.263	59317.71
538.463	58605.02
538.664	59182.54
538.865	59608.52
539.065	59387.34
539.266	58799.57
539.466	59649.48
539.667	58414.55
539.868	59805.12
540.068	58828.24
540.269	58801.62
540.469	59377.1
540.67	58715.61
540.87	59334.09
541.071	59104.72
541.271	59235.79
541.472	59108.82
541.672	58719.7
541.873	58955.22
542.073	58762.71
542.274	59321.8
542.474	58674.65
542.675	58693.08
542.875	59047.38
543.075	59026.9
543.276	58430.94
543.476	59438.54
543.676	58564.06
543.877	59188.69
544.077	58990.03
544.277	58717.65
544.478	58973.65
544.678	59078.1
544.878	58590.68
545.078	58908.11
545.279	58615.25
545.479	58377.69
545.679	58633.69
545.879	58566.1
546.079	58551.77
546.28	58572.25
546.48	58478.04
546.68	58834.39
546.88	58697.17
547.08	58678.74
547.28	58351.07
547.48	58457.56
547.68	58553.82
547.88	58588.63
548.081	58631.64
548.281	58445.27
548.481	58353.11
548.681	58940.88
548.881	58678.74
549.081	57787.88
549.28	57945.57
549.48	58975.7
549.68	58353.11
549.88	58934.74
550.08	57933.28
550.28	58547.67
550.48	58301.92
550.68	58674.65
550.88	58056.16
551.08	58381.79
551.279	58179.04
551.479	57982.43
551.679	57966.05
551.879	58324.44
552.079	58275.29
552.278	57802.21
552.478	58291.68
552.678	58291.68
552.878	58324.44
553.077	58047.97
553.277	57976.29
553.477	58811.86
553.676	57705.96
553.876	58093.02
554.076	57429.48
554.275	57544.17
554.475	57099.76
554.674	58140.13
554.874	58115.55
555.074	57183.72
555.273	57912.8
555.473	57949.67
555.672	57398.76
555.872	57261.55
556.071	57296.36
556.271	57611.75
556.47	57748.96
556.67	56802.8
556.869	56606.2
557.068	57212.4
557.268	56954.35
557.467	57355.75
557.667	57114.09
557.866	57224.68
558.065	56925.68
558.265	56954.35
558.464	56843.76
558.663	57234.92
558.863	56444.41
559.062	57064.94
559.261	56143.36
559.461	56874.48
559.66	56000
559.859	56215.04
560.058	55840.26
560.258	56712.69
560.457	56032.77
560.656	56067.58
560.855	55881.22
561.054	56243.71
561.253	55602.69
561.453	55954.94
561.652	55940.61
561.851	55819.78
562.05	55713.28
562.249	55057.93
562.448	55600.64
562.647	55379.46
562.846	55787.01
563.045	55418.38
563.244	54439.45
563.443	55197.2
563.642	54496.79
563.841	55121.42
564.04	54812.18
564.239	55340.55
564.438	54652.44
564.637	54468.12
564.836	54697.49
565.035	53954.08
565.234	54726.16
565.432	53902.88
565.631	53710.37
565.83	54183.45
566.029	53626.4
566.228	53720.61
566.427	53141.03
566.625	53028.4
566.824	52764.21
567.023	53427.75
567.222	52162.11
567.42	53282.34
567.619	52946.48
567.818	52606.51
568.016	52502.07
568.215	52878.89
568.414	52344.37
568.612	52684.34
568.811	51793.47
569.01	52190.78
569.208	51469.89
569.407	51992.12
569.605	51420.74
569.804	52213.3
570.002	51254.86
570.201	51732.03
570.4	51029.58
570.598	50712.14
570.797	51084.87
570.995	51119.69
571.193	50075.23
571.392	50892.36
571.59	50404.95
571.789	50538.07
571.987	50353.75
572.186	50380.37
572.384	50011.74
572.582	50286.17
572.781	50351.7
572.979	49583.71
573.177	49999.45
573.376	49727.07
573.574	48954.99
573.772	49426.02
573.971	49323.62
574.169	49380.96
574.367	49038.95
574.565	48903.79
574.763	48832.11
574.962	48733.81
575.16	48383.6
575.358	48735.85
575.556	47853.18
575.754	48911.98
575.952	47785.6
576.151	48365.17
576.349	47505.02
576.547	47683.2
576.745	47840.89
576.943	47875.71
577.141	47330.95
577.339	47507.07
577.537	47384.19
577.735	47419.01
577.933	46837.39
578.131	47013.51
578.329	46864.01
578.527	46313.11
578.725	46407.31
578.923	47120.01
579.121	46352.02
579.319	46462.61
579.516	46392.98
579.714	46292.63
579.912	45903.51
580.11	46018.2
580.308	45989.53
580.506	45547.17
580.704	45407.9
580.901	45590.17
581.099	45809.31
581.297	45039.27
581.495	44699.31
581.692	45403.81
581.89	45088.42
582.088	45059.75
582.285	44623.53
582.483	44973.74
582.681	44482.22
582.878	44504.75
583.076	43947.7
583.274	44261.04
583.471	43794.11
583.669	44056.25
583.866	43572.92
584.064	44031.67
584.262	43138.76
584.459	43876.02
584.657	43456.19
584.854	43837.11
585.052	42602.19
585.249	43417.28
585.447	43052.74
585.644	42843.85
585.841	42440.4
586.039	43167.43
586.236	42374.86
586.434	42534.6
586.631	42204.88
586.828	42198.74
587.026	42307.28
587.223	42110.67
587.42	41885.4
587.618	41866.97
587.815	41479.9
588.012	41600.73
588.21	41457.37
588.407	41789.14
588.604	41230.05
588.801	40460.01
588.999	40949.48
589.196	40945.38
589.393	40922.85
589.59	40384.24
589.787	40259.31
589.984	40183.54
590.182	40034.03
590.379	40380.14
590.576	39968.5
590.773	40226.54
590.97	39892.72
591.167	39931.64
591.364	39845.62
591.561	39292.67
591.758	39339.77
591.955	39476.99
592.152	39522.04
592.349	38844.16
592.546	38876.93
592.743	39167.74
592.94	38461.19
593.137	38586.12
593.334	38850.31
593.531	38391.56
593.727	38704.9
593.924	38354.7
594.121	38059.79
594.318	38053.65
594.515	37615.38
594.712	37973.78
594.908	37779.22
595.105	37914.39
595.302	37302.04
595.499	37709.59
595.696	37515.03
595.892	36839.2
596.089	37412.63
596.286	36880.16
596.482	36951.84
596.679	36929.31
596.876	36658.98
597.072	36622.12
597.269	36425.51
597.466	36015.92
597.662	36255.53
597.859	36497.19
598.055	36093.74
598.252	35917.62
598.448	35796.79
598.645	35454.78
598.841	35452.73
599.038	35651.38
599.234	35553.08
599.431	35114.81
599.627	35536.7
599.824	35325.75
600.02	34805.57
600.217	34826.05
600.413	34793.28
600.609	34649.92
600.806	34488.14
601.002	34811.71
601.198	34086.73
601.395	34148.17
601.591	34336.59
601.787	33949.52
601.984	33742.67
602.18	34053.97
602.376	33822.55
602.572	33771.35
602.769	33511.25
602.965	33447.77
603.161	33357.66
603.357	33439.58
603.553	33374.04
603.75	33468.25
603.946	32968.54
604.142	32921.44
604.338	32489.32
604.534	33003.36
604.73	32497.51
604.926	32434.02
605.122	32554.85
605.318	32116.59
605.514	32210.79
605.71	32198.51
605.906	32157.55
606.102	32024.43
606.298	31758.19
606.494	31913.84
606.69	31891.31
606.886	32155.5
607.082	31225.72
607.278	31743.86
607.474	31137.66
607.67	31543.16
607.866	31090.55
608.062	31326.07
608.257	30838.65
608.453	30719.87
608.649	31014.78
608.845	30633.86
609.041	30715.78
609.236	30900.09
609.432	30762.88
609.628	30613.38
609.824	30611.33
610.019	30480.26
610.215	30474.12
610.411	30619.52
610.606	30058.38
610.802	30142.35
610.998	30099.34
611.193	30459.78
611.389	29843.34
611.584	29962.12
611.78	29814.67
611.976	29904.78
612.171	29726.61
612.367	29609.87
612.562	29603.73
612.758	29366.17
612.953	29108.12
613.149	29673.36
613.344	28870.56
613.539	29874.06
613.735	29327.25
613.93	29380.5
614.126	28827.55
614.321	29216.66
614.517	29106.07
614.712	29030.3
614.907	28762.01
615.103	29085.59
615.298	28907.42
615.493	29128.6
615.688	28393.38
615.884	29147.03
616.079	28290.98
616.274	28772.25
616.47	28471.2
616.665	28467.11
616.86	28245.93
617.055	28503.97
617.25	28434.34
617.445	28270.5
617.641	27928.49
617.836	28290.98
618.031	28096.42
618.226	27944.87
618.421	27639.73
618.616	27856.81
618.811	27436.98
619.006	27656.11
619.201	27226.04
619.396	27215.8
619.591	26849.21
619.786	27135.93
619.981	26841.02
620.176	27287.48
620.371	26603.46
620.566	26959.8
620.761	26488.77
620.956	26900.41
621.151	26271.68
621.346	26419.14
621.541	25939.91
621.735	26249.16
621.93	25622.48
622.125	25792.46
622.32	25290.71
622.515	25546.7
622.709	25264.08
622.904	25198.55
623.099	25036.76
623.294	24975.32
623.488	24578.01
623.683	24727.52
623.878	24448.99
624.072	24498.14
624.267	24225.76
624.462	24203.24
624.656	23865.32
624.851	24020.97
625.046	24168.42
625.24	23736.3
625.435	23570.41
625.629	23314.42
625.824	23390.19
626.018	23324.66
626.213	22587.39
626.407	22898.68
626.602	22632.44
626.796	22802.43
626.991	22665.21
627.185	22337.54
627.38	22331.39
627.574	22249.47
627.768	21862.41
627.963	21856.26
628.157	21415.95
628.352	21645.32
628.546	21200.91
628.74	21434.38
628.935	21139.47
629.129	21164.05
629.323	20813.85
629.517	20934.68
629.712	20645.91
629.906	20924.44
630.1	20576.28
630.294	20527.13
630.489	20320.29
630.683	20551.71
630.877	20219.94
631.071	20025.38
631.265	20166.69
631.459	19824.68
631.653	19540.01
631.848	19888.17
632.042	19542.06
632.236	19589.16
632.43	19087.41
632.624	19134.51
632.818	19087.41
633.012	18837.56
633.206	18894.9
633.4	18778.17
633.594	18704.44
633.788	18706.49
633.982	18339.9
634.176	18270.27
634.369	18118.72
634.563	18292.8
634.757	18016.32
634.951	18067.52
635.145	18008.13
635.339	18133.06
635.533	17563.72
635.726	17496.14
635.92	17190.99
636.114	17543.24
636.308	17420.36
636.501	17281.1
636.695	17346.64
636.889	17037.39
637.083	17096.78
637.276	16674.9
637.47	16670.81
637.664	16525.4
637.857	16420.95
638.051	16635.99
638.244	16361.56
638.438	16275.55
638.632	16291.93
638.825	16117.86
639.019	16158.81
639.212	15935.59
639.406	15884.39
639.599	15734.89
639.793	15751.27
639.986	15495.27
640.18	15700.07
640.373	15622.25
640.567	15069.3
640.76	15300.72
640.954	15161.45
641.147	14948.47
641.34	15026.29
641.534	14981.23
641.727	14526.58
641.92	14571.64
642.114	14760.05
642.307	14387.32
642.5	14454.9
642.694	14448.76
642.887	14215.29
643.08	14461.05
643.273	14170.24
643.467	14102.65
643.66	13914.24
643.853	13959.3
644.046	13588.61
644.239	13887.62
644.432	13645.96
644.626	13478.02
644.819	13695.11
645.012	13572.23
645.205	13619.33
645.398	13260.94
645.591	13176.97
645.784	13291.66
645.977	13004.94
646.17	12945.55
646.363	12888.21
646.556	12755.09
646.749	12781.71
646.942	12753.04
647.135	12785.81
647.328	12656.79
647.521	12587.16
647.714	12333.21
647.907	12394.65
648.099	12087.45
648.292	12337.31
648.485	12212.38
648.678	12021.92
648.871	12116.12
649.064	12071.07
649.256	11995.29
649.449	12017.82
649.642	11913.38
649.835	11624.61
650.027	11331.75
650.22	11397.29
650.413	11679.91
650.605	11667.62
650.798	11360.42
650.991	11231.4
651.183	11450.53
651.376	11073.71
651.568	11172.01
651.761	11083.95
651.954	11137.2
652.146	11036.84
652.339	10797.23
652.531	10922.16
652.724	10823.86
652.916	10569.91
653.109	10604.72
653.301	10561.72
653.494	10649.78
653.686	10434.74
653.879	10608.82
654.071	10506.42
654.263	10348.73
654.456	10375.35
654.648	10215.61
654.84	10186.94
655.033	10078.4
655.225	10098.88
655.417	10043.58
655.61	10059.96
655.802	9859.26
655.994	9967.81
656.186	9906.37
656.379	9830.59
656.571	9892.03
656.763	9689.28
656.955	9433.29
657.148	9617.6
657.34	9568.45
657.532	9386.18
657.724	9386.18
657.916	9240.78
658.108	9398.47
658.3	9236.68
658.492	9199.82
658.684	8988.88
658.876	9138.38
659.068	9224.39
659.26	9005.26
659.452	8896.72
659.644	8945.87
659.836	8794.32
660.028	8976.59
660.22	8851.66
660.412	8646.87
660.604	8663.25
660.796	8534.23
660.988	8736.98
661.18	8409.3
661.372	8503.51
661.563	8485.08
661.755	8427.73
661.947	8401.11
662.139	8253.66
662.331	8079.58
662.522	8014.04
662.714	8141.02
662.906	8077.53
663.097	8102.11
663.289	8005.85
663.481	8106.2
663.673	7958.75
663.864	7915.74
664.056	7723.23
664.247	7741.66
664.439	7739.62
664.631	7688.42
664.822	7733.47
665.014	7764.19
665.205	7614.69
665.397	7530.72
665.588	7588.07
665.78	7442.66
665.971	7399.65
666.163	7434.47
666.354	7377.12
666.546	7452.9
666.737	7284.97
666.929	7448.8
667.12	7235.81
667.311	7149.8
667.503	7172.33
667.694	7305.45
667.885	7063.79
668.077	7063.79
668.268	7041.26
668.459	6959.34
668.651	6803.69
668.842	7160.04
669.033	6775.02
669.224	6875.37
669.416	7008.49
669.607	6836.46
669.798	6674.67
669.989	6940.91
670.18	6652.14
670.371	6650.1
670.563	6750.45
670.754	6691.06
670.945	6471.92
671.136	6586.61
671.327	6519.03
671.518	6486.26
671.709	6502.64
671.9	6621.42
672.091	6568.18
672.282	6359.28
672.473	6451.44
672.664	6367.48
672.855	6301.94
673.046	6375.67
673.237	6297.85
673.428	6244.6
673.619	6394.1
673.809	6414.58
674	6265.08
674.191	6230.26
674.382	6236.41
674.573	6295.8
674.764	6207.73
674.954	6248.69
675.145	6080.76
675.336	6140.15
675.527	6031.61
675.717	6009.08
675.908	6043.9
676.099	5927.16
676.289	6025.47
676.48	6004.99
676.671	6023.42
676.861	5978.36
677.052	5873.92
677.243	5896.44
677.433	5906.68
677.624	5789.95
677.814	5820.67
678.005	5918.97
678.195	5894.4
678.386	5875.96
678.576	5626.11
678.767	5792
678.957	5656.83
679.148	5830.91
679.338	5662.97
679.529	5761.28
679.719	5662.97
679.909	5802.24
680.1	5636.35
680.29	5660.93
680.481	5746.94
680.671	5599.49
680.861	5576.96
681.052	5605.63
681.242	5492.99
681.432	5583.1
681.622	5464.32
681.813	5605.63
682.003	5531.9
682.193	5529.86
682.383	5511.43
682.573	5437.7
682.764	5421.31
682.954	5613.82
683.144	5554.43
683.334	5472.51
683.524	5402.88
683.714	5501.19
683.904	5390.6
684.094	5413.12
684.284	5398.79
684.474	5482.75
684.664	5370.12
684.854	5402.88
685.044	5337.35
685.234	5185.8
685.424	5288.2
685.614	5366.02
685.804	5282.05
685.994	5282.05
686.184	5267.72
686.374	5282.05
686.564	5245.19
686.753	5167.37
686.943	5054.73
687.133	5159.17
687.323	5177.61
687.513	5093.64
687.702	5024.01
687.892	4845.84
688.082	4999.43
688.272	4884.75
688.461	4911.37
688.651	4919.56
688.841	4821.26
689.03	4985.1
689.22	4888.84
689.41	5007.62
689.599	4950.28
689.789	4790.54
689.979	4802.83
690.168	4798.73
690.358	4759.82
690.547	4712.72
690.737	4782.35
690.926	4743.44
691.116	4675.85
691.305	4782.35
691.495	4636.94
691.684	4616.46
691.874	4591.89
692.063	4743.44
692.252	4598.03
692.442	4552.98
692.631	4503.82
692.82	4530.45
693.01	4395.28
693.199	4536.59
693.388	4475.15
693.578	4456.72
693.767	4411.67
693.956	4432.15
694.146	4552.98
694.335	4356.37
694.524	4333.84
694.713	4393.23
694.902	4210.97
695.092	4481.3
695.281	4335.89
695.47	4401.43
695.659	4217.11
695.848	4458.77
696.037	4260.12
696.226	4360.47
696.415	4423.95
696.604	4380.95
696.793	4253.97
696.982	4260.12
697.171	4387.09
697.36	4135.19
697.549	4335.89
697.738	4153.62
697.927	4213.01
698.116	4321.56
698.305	4186.39
698.494	4157.72
698.683	4344.08
698.872	4182.29
699.061	4290.84
699.25	4116.76
699.438	4208.92
699.627	4122.9
699.816	4231.44
700.005	4110.61
700.193	4219.16
700.382	4241.68
700.571	4147.48
700.76	4315.41
700.948	4239.64
701.137	4301.08
701.326	4272.4
701.514	4204.82
701.703	4208.92
701.892	4135.19
702.08	4127
702.269	4151.57
702.457	4071.7
702.646	4198.68
702.834	4073.75
703.023	4118.81
703.212	4190.49
703.4	4051.22
703.589	4034.84
703.777	4038.94
703.965	4147.48
704.154	4122.9
704.342	4110.61
704.531	4118.81
704.719	4022.55
704.907	4098.33
705.096	4057.37
705.284	4108.57
705.472	4065.56
705.661	4051.22
705.849	4090.13
706.037	4127
706.226	4149.53
706.414	4135.19
706.602	4051.22
706.79	4219.16
706.979	4034.84
707.167	4112.66
707.355	4184.34
707.543	4131.09
707.731	4108.57
707.919	3959.06
708.107	4059.42
708.296	3961.11
708.484	4057.37
708.672	4083.99
708.86	4000.02
709.048	3971.35
709.236	4288.79
709.424	4075.8
709.612	4032.79
709.8	4022.55
709.988	4063.51
710.176	4124.95
710.364	4096.28
710.551	4045.08
710.739	4055.32
710.927	4081.94
711.115	3918.11
711.303	4092.18
711.491	4137.24
711.679	4036.89
711.866	4059.42
712.054	4155.67
712.242	3877.15
712.43	4110.61
712.617	4131.09
712.805	4098.33
712.993	4026.65
713.181	3873.05
713.368	4038.94
713.556	3901.72
713.744	3909.91
713.931	4016.41
714.119	4098.33
714.306	4038.94
714.494	3963.16
714.682	3934.49
714.869	4024.6
715.057	3971.35
715.244	4043.03
715.432	4190.49
715.619	4055.32
715.807	4043.03
715.994	3954.97
716.182	4002.07
716.369	4024.6
716.556	4020.5
716.744	4067.61
716.931	4100.37
717.119	4057.37
717.306	4008.22
717.493	3995.93
717.681	3979.54
717.868	3901.72
718.055	3979.54
718.242	4018.46
718.43	3973.4
718.617	3963.16
718.804	4036.89
718.991	3983.64
719.179	3897.63
719.366	3997.98
719.553	3973.4
719.74	4133.14
719.927	4124.95
720.114	4020.5
720.301	3989.78
720.488	4067.61
720.676	3871
720.863	3918.11
721.05	3995.93
721.237	3936.54
721.424	3815.71
721.611	4014.36
721.798	3838.23
721.985	3844.38
722.172	3944.73
722.358	3856.67
722.545	3866.91
722.732	3954.97
722.919	3817.76
723.106	3946.78
723.293	3838.23
723.48	3989.78
723.667	3903.77
723.853	3756.32
724.04	4061.46
724.227	3948.83
724.414	3928.35
724.6	3879.19
724.787	3903.77
724.974	3969.3
725.161	3938.59
725.347	3741.98
725.534	3873.05
725.72	3930.39
725.907	3918.11
726.094	3979.54
726.28	3862.81
726.467	3797.28
726.653	3928.35
726.84	3823.9
727.027	3952.92
727.213	3744.03
727.4	3713.31
727.586	3864.86
727.773	3811.61
727.959	3729.69
728.145	3836.19
728.332	3670.3
728.518	3832.09
728.705	3862.81
728.891	3799.32
729.077	3645.73
729.264	3619.1
729.45	3764.51
729.636	3799.32
729.823	3694.88
730.009	3813.66
730.195	3750.17
730.382	3805.47
730.568	3705.12
730.754	3643.68
730.94	3760.41
731.126	3701.02
731.313	3791.13
731.499	3512.61
731.685	3756.32
731.871	3660.06
732.057	3674.4
732.243	3594.53
732.429	3692.83
732.615	3703.07
732.801	3631.39
732.987	3825.95
733.173	3711.26
733.359	3793.18
733.545	3643.68
733.731	3737.88
733.917	3676.45
734.103	3590.43
734.289	3594.53
734.475	3594.53
734.661	3754.27
734.847	3471.65
735.033	3639.58
735.219	3559.71
735.404	3590.43
735.59	3547.42
735.776	3428.64
735.962	3594.53
736.148	3539.23
736.333	3492.13
736.519	3615.01
736.705	3584.29
736.89	3426.59
737.076	3508.51
737.262	3420.45
737.447	3623.2
737.633	3410.21
737.819	3545.38
738.004	3492.13
738.19	3354.91
738.375	3371.3
738.561	3436.83
738.747	3397.92
738.932	3385.63
739.118	3451.17
739.303	3336.48
739.489	3442.98
739.674	3344.67
739.859	3367.2
740.045	3326.24
740.23	3244.32
740.416	3279.14
740.601	3340.58
740.786	3363.11
740.972	3340.58
741.157	3258.66
741.342	3344.67
741.528	3412.26
741.713	3193.12
741.898	3100.97
742.084	3225.89
742.269	3219.75
742.454	3111.21
742.639	3195.17
742.824	3215.65
743.01	3115.3
743.195	3256.61
743.38	2967.85
743.565	3049.77
743.75	3131.69
743.935	3039.53
744.12	3092.77
744.305	3170.6
744.49	3066.15
744.675	3000.62
744.86	2873.64
745.045	2928.94
745.23	3012.9
745.415	2900.27
745.6	2930.98
745.785	2793.77
745.97	2918.7
746.155	2879.79
746.34	2955.56
746.525	2838.83
746.71	2842.92
746.895	2779.43
747.079	2758.96
747.264	2879.79
747.449	2808.11
747.634	2865.45
747.819	2652.46
748.003	2754.86
748.188	2642.22
748.373	2767.15
748.557	2736.43
748.742	2562.35
748.927	2693.42
749.111	2554.16
749.296	2599.21
749.481	2574.64
749.665	2564.4
749.85	2543.92
750.034	2615.6
750.219	2593.07
750.404	2511.15
750.588	2496.82
750.773	2498.86
750.957	2386.22
751.141	2472.24
751.326	2388.27
751.51	2328.88
751.695	2390.32
751.879	2357.55
752.064	2337.07
752.248	2361.65
752.432	2427.18
752.617	2222.39
752.801	2165.04
752.985	2224.44
753.17	2244.92
753.354	2384.18
753.538	2208.05
753.722	2152.76
753.907	2169.14
754.091	2091.32
754.275	2142.52
754.459	2107.7
754.643	2042.17
754.828	2027.83
755.012	2095.41
755.196	2044.21
755.38	2054.45
755.564	2089.27
755.748	2060.6
755.932	2072.89
756.116	1970.49
756.3	1970.49
756.484	2093.37
756.668	2015.54
756.852	1894.71
757.036	1954.1
757.22	1904.95
757.404	1927.48
757.588	1882.42
757.772	1847.61
757.956	1913.14
758.14	1923.38
758.323	1818.94
758.507	1931.58
758.691	1806.65
758.875	1849.66
759.059	1909.05
759.242	1782.07
759.426	1714.49
759.61	1685.82
759.794	1782.07
759.977	1734.97
760.161	1753.4
760.345	1655.1
760.528	1788.22
760.712	1636.67
760.895	1722.68
761.079	1696.06
761.263	1587.52
761.446	1698.11
761.63	1589.57
761.813	1732.92
761.997	1513.79
762.18	1605.95
762.364	1661.24
762.547	1528.13
762.731	1472.83
762.914	1620.28
763.098	1603.9
763.281	1495.36
763.464	1481.02
763.648	1665.34
763.831	1532.22
764.015	1493.31
764.198	1468.73
764.381	1388.86
764.564	1542.46
764.748	1444.16
764.931	1505.6
765.114	1517.89
765.297	1509.69
765.481	1448.26
765.664	1440.06
765.847	1515.84
766.03	1524.03
766.213	1481.02
766.397	1435.97
766.58	1378.62
766.763	1415.49
766.946	1431.87
767.129	1368.38
767.312	1384.77
767.495	1390.91
767.678	1388.86
767.861	1384.77
768.044	1364.29
768.227	1397.06
768.41	1368.38
768.593	1382.72
768.776	1413.44
768.959	1384.77
769.142	1319.23
769.324	1302.85
769.507	1284.42
769.69	1358.14
769.873	1364.29
770.056	1329.47
770.239	1337.66
770.421	1335.62
770.604	1343.81
770.787	1323.33
770.97	1339.71
771.152	1282.37
771.335	1259.84
771.518	1274.18
771.7	1308.99
771.883	1311.04
772.066	1288.51
772.248	1259.84
772.431	1304.9
772.613	1128.77
772.796	1169.73
772.978	1216.83
773.161	1149.25
773.343	1184.07
773.526	1173.83
773.708	1161.54
773.891	1161.54
774.073	1220.93
774.256	1067.33
774.438	1147.2
774.621	1106.24
774.803	1087.81
774.985	1098.05
775.168	1141.06
775.35	1118.53
775.532	1042.76
775.715	1040.71
775.897	1165.64
776.079	1067.33
776.261	1067.33
776.444	983.37
776.626	1001.8
776.808	1014.09
776.99	997.7
777.173	1028.42
777.355	989.51
777.537	1022.28
777.719	987.46
777.901	1009.99
778.083	911.69
778.265	903.5
778.447	1009.99
778.629	899.4
778.811	907.59
778.993	950.6
779.175	954.69
779.357	889.16
779.539	901.45
779.721	940.36
779.903	997.7
780.085	928.07
780.267	807.24
780.449	848.2
780.631	835.91
780.812	938.31
780.994	919.88
781.176	852.3
781.358	809.29
781.54	782.67
781.721	833.86
781.903	786.76
782.085	815.43
782.267	848.2
782.448	772.43
782.63	788.81
782.812	721.23
782.993	815.43
783.175	786.76
783.357	901.45
783.538	770.38
783.72	729.42
783.901	794.95
784.083	760.14
784.264	688.46
784.446	784.71
784.627	700.75
784.809	731.47
784.99	661.84
785.172	694.6
785.353	710.99
785.535	698.7
785.716	674.12
785.897	665.93
786.079	620.88
786.26	700.75
786.441	670.03
786.623	756.04
786.804	608.59
786.985	667.98
787.167	686.41
787.348	602.44
787.529	670.03
787.71	645.45
787.891	622.92
788.073	571.72
788.254	555.34
788.435	631.12
788.616	657.74
788.797	528.72
788.978	653.64
789.159	571.72
789.34	584.01
789.522	528.72
789.703	581.96
789.884	538.96
790.065	567.63
790.246	629.07
790.427	612.68
790.607	518.48
790.788	563.53
790.969	569.68
791.15	541.01
791.331	536.91
791.512	454.99
791.693	528.72
791.874	467.28
792.054	454.99
792.235	516.43
792.416	581.96
792.597	541.01
792.778	418.13
792.958	538.96
793.139	498
793.32	481.61
793.5	506.19
793.681	454.99
793.862	481.61
794.042	440.65
794.223	422.22
794.404	471.37
794.584	463.18
794.765	510.29
794.945	418.13
795.126	518.48
795.306	446.8
795.487	454.99
795.667	440.65
795.848	502.09
796.028	366.93
796.209	418.13
796.389	465.23
796.57	411.98
796.75	444.75
796.93	428.37
797.111	411.98
797.291	405.84
797.471	426.32
797.652	440.65
797.832	366.93
798.012	432.46
798.192	409.94
798.373	340.3
798.553	469.33
798.733	397.65
798.913	438.61
799.093	485.71
799.274	375.12
799.454	418.13
799.634	354.64
799.814	409.94
799.994	330.06
800.174	356.69
800.354	362.83
800.534	416.08
800.714	334.16
800.894	334.16
801.074	397.65
801.254	315.73
801.434	301.39
801.614	399.7
801.794	301.39
801.974	770.38
802.154	323.92
802.334	393.55
802.514	291.15
802.693	356.69
802.873	338.26
803.053	383.31
803.233	364.88
803.413	348.5
803.592	278.87
803.772	334.16
803.952	311.63
804.131	383.31
804.311	282.96
804.491	274.77
804.67	309.58
804.85	260.43
805.03	285.01
805.209	381.26
805.389	330.06
805.568	295.25
805.748	260.43
805.928	346.45
806.107	348.5
806.287	342.35
806.466	293.2
806.646	305.49
806.825	375.12
807.004	223.57
807.184	334.16
807.363	362.83
807.543	264.53
807.722	244.05
807.901	321.87
808.081	362.83
808.26	219.47
808.439	319.82
808.619	307.54
808.798	278.87
808.977	309.58
809.156	350.54
809.336	219.47
809.515	256.34
809.694	225.62
809.873	233.81
810.052	276.82
810.231	252.24
810.411	274.77
810.59	342.35
810.769	313.68
810.948	272.72
811.127	219.47
811.306	252.24
811.485	198.99
811.664	219.47
811.843	268.63
812.022	237.91
812.201	231.76
812.38	325.97
812.559	231.76
812.737	205.14
812.916	203.09
813.095	237.91
813.274	215.38
813.453	285.01
813.632	301.39
813.811	231.76
813.989	229.71
814.168	317.78
814.347	307.54
814.526	213.33
814.704	297.3
814.883	313.68
815.062	233.81
815.24	256.34
815.419	172.37
815.598	209.23
815.776	125.27
815.955	178.51
816.133	168.27
816.312	235.86
816.49	172.37
816.669	205.14
816.847	215.38
817.026	223.57
817.204	145.75
817.383	256.34
817.561	127.32
817.74	145.75
817.918	305.49
818.097	201.04
818.275	143.7
818.453	188.75
818.632	219.47
818.81	248.15
818.988	158.03
819.167	221.52
819.345	176.47
819.523	207.19
819.701	219.47
819.879	153.94
820.058	166.23
820.236	92.5
820.414	190.8
820.592	96.6
820.77	190.8
820.948	170.32
821.127	137.56
821.305	211.28
821.483	186.71
821.661	178.51
821.839	194.9
822.017	129.36
822.195	258.39
822.373	145.75
822.551	117.08
822.729	250.19
822.907	143.7
823.085	176.47
823.262	229.71
823.44	194.9
823.618	151.89
823.796	203.09
823.974	158.03
824.152	108.88
824.329	158.03
824.507	196.95
824.685	176.47
824.863	153.94
825.04	158.03
825.218	98.64
825.396	174.42
825.574	198.99
825.751	215.38
825.929	166.23
826.107	141.65
826.284	188.75
826.462	129.36
826.639	137.56
826.817	129.36
826.994	160.08
827.172	104.79
827.349	182.61
827.527	176.47
827.704	201.04
827.882	211.28
828.059	170.32
828.237	92.5
828.414	209.23
828.591	194.9
828.769	178.51
828.946	184.66
829.124	203.09
829.301	190.8
829.478	86.36
829.655	178.51
829.833	117.08
830.01	129.36
830.187	182.61
830.364	153.94
830.542	145.75
830.719	119.12
830.896	117.08
831.073	137.56
831.25	172.37
831.427	153.94
831.604	172.37
831.782	162.13
831.959	110.93
832.136	135.51
832.313	198.99
832.49	78.16
832.667	135.51
832.844	145.75
833.021	145.75
833.198	8.53
833.374	104.79
833.551	129.36
833.728	127.32
833.905	117.08
834.082	143.7
834.259	119.12
834.436	151.89
834.612	182.61
834.789	112.98
834.966	94.55
835.143	112.98
835.319	67.92
835.496	178.51
835.673	100.69
835.85	106.84
836.026	92.5
836.203	49.49
836.38	63.83
836.556	117.08
836.733	131.41
836.909	100.69
837.086	39.25
837.262	106.84
837.439	160.08
837.616	76.12
837.792	92.5
837.968	119.12
838.145	35.16
838.321	76.12
838.498	53.59
838.674	184.66
838.851	96.6
839.027	96.6
839.203	149.84
839.38	119.12
839.556	2.39
839.732	143.7
839.909	31.06
840.085	143.7
840.261	168.27
840.437	55.64
840.614	49.49
840.79	160.08
840.966	106.84
841.142	74.07
841.318	86.36
841.494	106.84
841.671	112.98
841.847	127.32
842.023	26.96
842.199	98.64
842.375	135.51
842.551	63.83
842.727	63.83
842.903	174.42
843.079	100.69
843.255	151.89
843.431	18.77
843.607	108.88
843.783	61.78
843.959	147.8
844.134	45.4
844.31	115.03
844.486	88.4
844.662	65.88
844.838	110.93
845.013	14.68
845.189	112.98
845.365	41.3
845.541	45.4
845.716	106.84
845.892	72.02
846.068	-11.95
846.244	69.97
846.419	63.83
846.595	61.78
846.77	22.87
846.946	76.12
847.122	61.78
847.297	106.84
847.473	63.83
847.648	92.5
847.824	112.98
847.999	63.83
848.175	43.35
848.35	35.16
848.526	88.4
848.701	-9.9
848.876	117.08
849.052	110.93
849.227	80.21
849.403	63.83
849.578	61.78
849.753	104.79
849.929	108.88
850.104	45.4
850.279	16.73
850.454	12.63
850.63	57.68
850.805	-69.29
850.98	80.21
851.155	35.16
851.33	47.44
851.505	84.31
851.681	59.73
851.856	29.01
852.031	69.97
852.206	162.13
852.381	20.82
852.556	8.53
852.731	78.16
852.906	104.79
853.081	47.44
853.256	74.07
853.431	84.31
853.606	69.97
853.781	65.88
853.956	-26.28
854.131	119.12
854.305	69.97
854.48	2.39
854.655	-32.43
854.83	69.97
855.005	61.78
855.18	164.18
855.354	16.73
855.529	6.49
855.704	18.77
855.879	137.56
856.053	2.39
856.228	29.01
856.403	26.96
856.577	35.16
856.752	-13.99
856.926	98.64
857.101	59.73
857.276	26.96
857.45	35.16
857.625	26.96
857.799	106.84
857.974	55.64
858.148	-28.33
858.323	102.74
858.497	45.4
858.672	2.39
858.846	-26.28
859.02	67.92
859.195	57.68
859.369	80.21
859.543	104.79
859.718	78.16
859.892	-7.85
860.066	74.07
860.241	51.54
860.415	67.92
860.589	72.02
860.763	18.77
860.938	69.97
861.112	72.02
861.286	-7.85
861.46	49.49
861.634	53.59
861.808	26.96
861.982	18.77
862.157	72.02
862.331	80.21
862.505	31.06
862.679	-34.47
862.853	16.73
863.027	33.11
863.201	8.53
863.375	-16.04
863.549	90.45
863.722	43.35
863.896	123.22
864.07	65.88
864.244	90.45
864.418	76.12
864.592	96.6
864.766	6.49
864.939	24.92
865.113	2.39
865.287	94.55
865.461	39.25
865.634	18.77
865.808	102.74
865.982	-9.9
866.156	74.07
866.329	61.78
866.503	51.54
866.676	16.73
866.85	43.35
867.024	29.01
867.197	117.08
867.371	43.35
867.544	63.83
867.718	55.64
867.891	43.35
868.065	-18.09
868.238	-3.75
868.412	12.63
868.585	92.5
868.759	61.78
868.932	-52.91
869.105	-30.38
869.279	18.77
869.452	8.53
869.625	18.77
869.799	14.68
869.972	47.44
870.145	26.96
870.319	108.88
870.492	16.73
870.665	10.58
870.838	-48.81
871.011	-20.14
871.185	24.92
871.358	-7.85
871.531	69.97
871.704	31.06
871.877	94.55
872.05	72.02
872.223	-11.95
872.396	84.31
872.569	96.6
872.742	26.96
872.915	55.64
873.088	18.77
873.261	74.07
873.434	-13.99
873.607	14.68
873.78	26.96
873.953	8.53
874.126	94.55
874.299	39.25
874.471	43.35
874.644	119.12
874.817	0.34
874.99	57.68
875.163	53.59
875.335	69.97
875.508	49.49
875.681	35.16
875.853	0.34
876.026	45.4
876.199	92.5
876.371	74.07
876.544	67.92
876.717	-20.14
876.889	-24.23
877.062	53.59
877.234	43.35
877.407	4.44
877.579	39.25
877.752	41.3
877.924	92.5
878.097	65.88
878.269	-18.09
878.442	6.49
878.614	69.97
878.786	22.87
878.959	-3.75
879.131	24.92
879.303	-61.1
879.476	57.68
879.648	-1.71
879.82	88.4
879.993	22.87
880.165	-5.8
880.337	-7.85
880.509	110.93
880.681	-38.57
880.854	-18.09
881.026	41.3
881.198	88.4
881.37	47.44
881.542	14.68
881.714	33.11
881.886	82.26
882.058	51.54
882.23	45.4
882.402	-30.38
882.574	55.64
882.746	72.02
882.918	72.02
883.09	24.92
883.262	31.06
883.434	10.58
883.606	-91.82
883.778	51.54
883.95	29.01
884.122	51.54
884.293	6.49
884.465	35.16
884.637	37.2
884.809	-18.09
884.98	80.21
885.152	-18.09
885.324	8.53
885.496	20.82
885.667	-5.8
885.839	-1.71
886.011	49.49
886.182	-3.75
886.354	18.77
886.525	-13.99
886.697	72.02
886.869	18.77
887.04	26.96
887.212	67.92
887.383	92.5
887.555	-16.04
887.726	18.77
887.897	0.34
888.069	12.63
888.24	-32.43
888.412	26.96
888.583	31.06
888.754	39.25
888.926	-48.81
889.097	45.4
889.268	6.49
889.44	-48.81
889.611	18.77
889.782	-7.85
889.953	10.58
890.125	-5.8
890.296	-28.33
890.467	24.92
890.638	2.39
890.809	47.44
890.98	84.31
891.151	18.77
891.323	55.64
891.494	18.77
891.665	-9.9
891.836	-11.95
892.007	18.77
892.178	10.58
892.349	35.16
892.52	31.06
892.691	108.88
892.862	29.01
893.032	8.53
893.203	20.82
893.374	31.06
893.545	49.49
893.716	-1.71
893.887	151.89
894.057	14.68
894.228	14.68
894.399	-9.9
894.57	125.27
894.74	-75.43
894.911	35.16
895.082	-63.15
895.253	51.54
895.423	53.59
895.594	61.78
895.764	106.84
895.935	26.96
896.106	16.73
896.276	-87.72
896.447	57.68
896.617	31.06
896.788	117.08
896.958	31.06
897.129	-3.75
897.299	63.83
897.47	-5.8
897.64	0.34
897.81	-1.71
897.981	76.12
898.151	47.44
898.322	18.77
898.492	-100.01
898.662	-13.99
898.832	31.06
899.003	4.44
899.173	115.03
899.343	4.44
899.513	-1.71
