Data from USB4F104151__293__10-42-29-170.txt Node

Date: Wed Mar 12 10:42:29 EDT 2025
User: louis
Spectrometer: USB4F10415
Trigger mode: 4
Integration Time (sec): 3.000000E-2
Scans to average: 1
Electric dark correction enabled: true
Nonlinearity correction enabled: false
Boxcar width: 0
XAxis mode: Wavelengths
Number of Pixels in Spectrum: 3648
>>>>>Begin Spectral Data<<<<<
178.204	-128.68
178.424	-128.68
178.644	-128.68
178.864	-97.96
179.084	-157.35
179.304	-48.81
179.524	-52.91
179.744	-5.8
179.964	55.64
180.184	-3.75
180.404	-13.99
180.624	-22.19
180.844	45.4
181.064	-5.8
181.283	35.16
181.503	-38.57
181.723	55.64
181.943	-40.62
182.163	110.93
182.383	59.73
182.602	10.58
182.822	45.4
183.042	24.92
183.262	10.58
183.482	29.01
183.701	10.58
183.921	22.87
184.141	-3.75
184.361	10.58
184.58	16.73
184.8	69.97
185.02	26.96
185.239	78.16
185.459	-32.43
185.679	35.16
185.898	20.82
186.118	-3.75
186.338	-22.19
186.557	35.16
186.777	-50.86
186.997	0.34
187.216	26.96
187.436	14.68
187.655	59.73
187.875	18.77
188.095	94.55
188.314	41.3
188.534	18.77
188.753	35.16
188.973	39.25
189.192	82.26
189.412	90.45
189.631	24.92
189.851	22.87
190.07	88.4
190.29	-46.76
190.509	-24.23
190.729	41.3
190.948	31.06
191.168	108.88
191.387	31.06
191.607	35.16
191.826	18.77
192.045	18.77
192.265	16.73
192.484	18.77
192.704	76.12
192.923	-9.9
193.142	53.59
193.362	-9.9
193.581	188.75
193.8	43.35
194.02	98.64
194.239	63.83
194.458	76.12
194.678	-13.99
194.897	4.44
195.116	51.54
195.335	39.25
195.555	16.73
195.774	39.25
195.993	33.11
196.212	-7.85
196.432	24.92
196.651	61.78
196.87	35.16
197.089	82.26
197.308	53.59
197.528	55.64
197.747	29.01
197.966	-38.57
198.185	104.79
198.404	8.53
198.623	74.07
198.842	39.25
199.062	78.16
199.281	86.36
199.5	6.49
199.719	24.92
199.938	59.73
200.157	82.26
200.376	72.02
200.595	55.64
200.814	24.92
201.033	-22.19
201.252	26.96
201.471	-5.8
201.69	49.49
201.909	-24.23
202.128	20.82
202.347	86.36
202.566	-52.91
202.785	72.02
203.004	2.39
203.223	72.02
203.442	26.96
203.661	-11.95
203.879	-38.57
204.098	88.4
204.317	20.82
204.536	53.59
204.755	51.54
204.974	117.08
205.193	33.11
205.411	100.69
205.63	16.73
205.849	57.68
206.068	59.73
206.287	45.4
206.505	78.16
206.724	-34.47
206.943	57.68
207.162	20.82
207.381	-7.85
207.599	53.59
207.818	-54.95
208.037	49.49
208.255	29.01
208.474	102.74
208.693	43.35
208.911	69.97
209.13	10.58
209.349	0.34
209.567	63.83
209.786	31.06
210.005	6.49
210.223	59.73
210.442	-32.43
210.661	41.3
210.879	-16.04
211.098	18.77
211.316	63.83
211.535	20.82
211.753	92.5
211.972	22.87
212.191	10.58
212.409	47.44
212.628	33.11
212.846	33.11
213.065	41.3
213.283	18.77
213.502	-7.85
213.72	59.73
213.938	6.49
214.157	45.4
214.375	-13.99
214.594	41.3
214.812	2.39
215.031	16.73
215.249	-18.09
215.467	-38.57
215.686	26.96
215.904	143.7
216.122	37.2
216.341	45.4
216.559	57.68
216.778	-16.04
216.996	108.88
217.214	33.11
217.432	-34.47
217.651	-44.71
217.869	18.77
218.087	29.01
218.306	35.16
218.524	-1.71
218.742	18.77
218.96	139.6
219.179	6.49
219.397	10.58
219.615	80.21
219.833	115.03
220.051	-20.14
220.27	51.54
220.488	43.35
220.706	43.35
220.924	10.58
221.142	-50.86
221.36	45.4
221.578	61.78
221.796	-22.19
222.015	98.64
222.233	22.87
222.451	51.54
222.669	10.58
222.887	76.12
223.105	-44.71
223.323	63.83
223.541	59.73
223.759	37.2
223.977	-28.33
224.195	26.96
224.413	41.3
224.631	63.83
224.849	20.82
225.067	102.74
225.285	-28.33
225.503	6.49
225.721	-102.06
225.939	43.35
226.157	2.39
226.375	39.25
226.592	-81.58
226.81	-38.57
227.028	6.49
227.246	155.99
227.464	49.49
227.682	49.49
227.9	26.96
228.117	72.02
228.335	35.16
228.553	125.27
228.771	47.44
228.989	43.35
229.206	65.88
229.424	4.44
229.642	-30.38
229.86	-63.15
230.077	67.92
230.295	16.73
230.513	-7.85
230.731	108.88
230.948	102.74
231.166	80.21
231.384	-57
231.601	45.4
231.819	45.4
232.037	4.44
232.254	-13.99
232.472	74.07
232.689	-38.57
232.907	96.6
233.125	8.53
233.342	43.35
233.56	53.59
233.777	43.35
233.995	72.02
234.213	53.59
234.43	76.12
234.648	-28.33
234.865	-7.85
235.083	2.39
235.3	35.16
235.518	4.44
235.735	104.79
235.953	59.73
236.17	41.3
236.388	-7.85
236.605	82.26
236.822	41.3
237.04	37.2
237.257	37.2
237.475	-9.9
237.692	14.68
237.909	63.83
238.127	22.87
238.344	4.44
238.562	31.06
238.779	-9.9
238.996	24.92
239.214	-18.09
239.431	47.44
239.648	20.82
239.865	78.16
240.083	69.97
240.3	-59.05
240.517	12.63
240.735	49.49
240.952	51.54
241.169	10.58
241.386	29.01
241.603	22.87
241.821	-32.43
242.038	49.49
242.255	67.92
242.472	-38.57
242.689	43.35
242.907	80.21
243.124	-16.04
243.341	4.44
243.558	-18.09
243.775	-3.75
243.992	-40.62
244.209	55.64
244.426	12.63
244.643	-34.47
244.86	14.68
245.078	55.64
245.295	55.64
245.512	102.74
245.729	-16.04
245.946	-9.9
246.163	-48.81
246.38	31.06
246.597	-13.99
246.814	20.82
247.031	55.64
247.248	18.77
247.464	-9.9
247.681	41.3
247.898	74.07
248.115	82.26
248.332	35.16
248.549	26.96
248.766	49.49
248.983	-11.95
249.2	-79.53
249.417	33.11
249.633	35.16
249.85	22.87
250.067	35.16
250.284	47.44
250.501	63.83
250.717	-20.14
250.934	22.87
251.151	-36.52
251.368	63.83
251.585	158.03
251.801	43.35
252.018	45.4
252.235	80.21
252.451	61.78
252.668	35.16
252.885	96.6
253.102	65.88
253.318	26.96
253.535	-67.24
253.752	18.77
253.968	18.77
254.185	8.53
254.401	51.54
254.618	39.25
254.835	76.12
255.051	112.98
255.268	-52.91
255.484	26.96
255.701	14.68
255.917	59.73
256.134	-16.04
256.351	-30.38
256.567	63.83
256.784	59.73
257	-9.9
257.217	-3.75
257.433	67.92
257.65	80.21
257.866	20.82
258.082	47.44
258.299	22.87
258.515	20.82
258.732	-7.85
258.948	35.16
259.165	49.49
259.381	26.96
259.597	92.5
259.814	39.25
260.03	63.83
260.246	2.39
260.463	41.3
260.679	43.35
260.895	35.16
261.112	49.49
261.328	24.92
261.544	-26.28
261.761	108.88
261.977	26.96
262.193	24.92
262.409	20.82
262.626	65.88
262.842	24.92
263.058	45.4
263.274	-1.71
263.49	-3.75
263.707	72.02
263.923	22.87
264.139	37.2
264.355	6.49
264.571	20.82
264.787	2.39
265.004	110.93
265.22	-50.86
265.436	76.12
265.652	69.97
265.868	80.21
266.084	76.12
266.3	55.64
266.516	-22.19
266.732	6.49
266.948	55.64
267.164	78.16
267.38	14.68
267.596	104.79
267.812	76.12
268.028	41.3
268.244	12.63
268.46	33.11
268.676	35.16
268.892	92.5
269.108	0.34
269.324	69.97
269.54	41.3
269.756	55.64
269.972	-59.05
270.188	90.45
270.403	-63.15
270.619	29.01
270.835	-61.1
271.051	20.82
271.267	12.63
271.483	4.44
271.698	141.65
271.914	33.11
272.13	12.63
272.346	82.26
272.562	53.59
272.777	-30.38
272.993	55.64
273.209	24.92
273.425	16.73
273.64	-69.29
273.856	43.35
274.072	22.87
274.287	41.3
274.503	6.49
274.719	6.49
274.934	100.69
275.15	24.92
275.366	-22.19
275.581	-5.8
275.797	61.78
276.012	80.21
276.228	33.11
276.444	47.44
276.659	88.4
276.875	-1.71
277.09	37.2
277.306	-13.99
277.521	61.78
277.737	72.02
277.952	-28.33
278.168	76.12
278.383	115.03
278.599	67.92
278.814	63.83
279.03	51.54
279.245	45.4
279.461	39.25
279.676	98.64
279.892	-42.67
280.107	31.06
280.322	-11.95
280.538	-38.57
280.753	8.53
280.969	37.2
281.184	10.58
281.399	94.55
281.615	26.96
281.83	24.92
282.045	-30.38
282.26	20.82
282.476	10.58
282.691	59.73
282.906	94.55
283.122	20.82
283.337	29.01
283.552	104.79
283.767	-54.95
283.983	39.25
284.198	31.06
284.413	86.36
284.628	-18.09
284.843	14.68
285.058	84.31
285.274	69.97
285.489	63.83
285.704	127.32
285.919	74.07
286.134	14.68
286.349	2.39
286.564	6.49
286.779	33.11
286.995	67.92
287.21	-11.95
287.425	59.73
287.64	57.68
287.855	4.44
288.07	-22.19
288.285	4.44
288.5	76.12
288.715	106.84
288.93	39.25
289.145	-13.99
289.36	141.65
289.575	22.87
289.79	63.83
290.004	-22.19
290.219	49.49
290.434	59.73
290.649	12.63
290.864	26.96
291.079	20.82
291.294	-3.75
291.509	55.64
291.724	4.44
291.938	-7.85
292.153	2.39
292.368	-46.76
292.583	57.68
292.798	96.6
293.012	76.12
293.227	57.68
293.442	-24.23
293.657	51.54
293.871	37.2
294.086	61.78
294.301	59.73
294.516	123.22
294.73	-7.85
294.945	69.97
295.16	76.12
295.374	129.36
295.589	123.22
295.804	14.68
296.018	49.49
296.233	82.26
296.447	22.87
296.662	14.68
296.877	-13.99
297.091	26.96
297.306	16.73
297.52	41.3
297.735	16.73
297.949	18.77
298.164	72.02
298.378	45.4
298.593	33.11
298.807	-9.9
299.022	63.83
299.236	0.34
299.451	-22.19
299.665	-5.8
299.88	-1.71
300.094	39.25
300.309	67.92
300.523	22.87
300.737	-11.95
300.952	43.35
301.166	104.79
301.381	4.44
301.595	18.77
301.809	-5.8
302.024	4.44
302.238	-50.86
302.452	51.54
302.667	31.06
302.881	115.03
303.095	102.74
303.309	92.5
303.524	80.21
303.738	-42.67
303.952	67.92
304.166	76.12
304.381	55.64
304.595	88.4
304.809	49.49
305.023	84.31
305.237	59.73
305.452	8.53
305.666	119.12
305.88	26.96
306.094	67.92
306.308	51.54
306.522	6.49
306.736	-46.76
306.95	47.44
307.164	-26.28
307.379	6.49
307.593	80.21
307.807	72.02
308.021	96.6
308.235	24.92
308.449	-54.95
308.663	29.01
308.877	131.41
309.091	26.96
309.305	90.45
309.519	-7.85
309.733	-5.8
309.947	18.77
310.161	16.73
310.374	104.79
310.588	43.35
310.802	26.96
311.016	-9.9
311.23	-18.09
311.444	-3.75
311.658	43.35
311.872	-16.04
312.085	76.12
312.299	2.39
312.513	-26.28
312.727	33.11
312.941	94.55
313.154	18.77
313.368	6.49
313.582	102.74
313.796	74.07
314.009	10.58
314.223	51.54
314.437	-9.9
314.651	26.96
314.864	2.39
315.078	49.49
315.292	65.88
315.505	22.87
315.719	74.07
315.933	-32.43
316.146	2.39
316.36	-9.9
316.573	139.6
316.787	41.3
317.001	4.44
317.214	100.69
317.428	72.02
317.641	-16.04
317.855	-30.38
318.068	26.96
318.282	141.65
318.495	43.35
318.709	74.07
318.922	20.82
319.136	86.36
319.349	78.16
319.563	74.07
319.776	-9.9
319.99	-1.71
320.203	82.26
320.417	57.68
320.63	76.12
320.843	102.74
321.057	123.22
321.27	31.06
321.483	104.79
321.697	76.12
321.91	74.07
322.124	63.83
322.337	-9.9
322.55	98.64
322.763	67.92
322.977	-16.04
323.19	18.77
323.403	-38.57
323.617	80.21
323.83	10.58
324.043	18.77
324.256	86.36
324.469	39.25
324.683	102.74
324.896	35.16
325.109	12.63
325.322	-9.9
325.535	-11.95
325.748	67.92
325.962	33.11
326.175	-5.8
326.388	59.73
326.601	115.03
326.814	115.03
327.027	35.16
327.24	82.26
327.453	-20.14
327.666	84.31
327.879	59.73
328.092	18.77
328.305	57.68
328.518	14.68
328.731	-28.33
328.944	47.44
329.157	67.92
329.37	14.68
329.583	65.88
329.796	108.88
330.009	29.01
330.222	123.22
330.435	82.26
330.648	6.49
330.861	72.02
331.073	53.59
331.286	24.92
331.499	147.8
331.712	26.96
331.925	108.88
332.138	-9.9
332.35	33.11
332.563	-3.75
332.776	74.07
332.989	8.53
333.202	10.58
333.414	47.44
333.627	-13.99
333.84	55.64
334.053	61.78
334.265	6.49
334.478	39.25
334.691	59.73
334.903	53.59
335.116	-26.28
335.329	72.02
335.541	51.54
335.754	57.68
335.966	-16.04
336.179	20.82
336.392	61.78
336.604	61.78
336.817	119.12
337.029	20.82
337.242	14.68
337.454	53.59
337.667	20.82
337.88	158.03
338.092	123.22
338.305	2.39
338.517	78.16
338.729	86.36
338.942	63.83
339.154	6.49
339.367	37.2
339.579	67.92
339.792	-24.23
340.004	119.12
340.217	51.54
340.429	78.16
340.641	84.31
340.854	10.58
341.066	2.39
341.278	8.53
341.491	123.22
341.703	74.07
341.915	65.88
342.128	22.87
342.34	49.49
342.552	94.55
342.764	74.07
342.977	12.63
343.189	24.92
343.401	2.39
343.613	12.63
343.826	43.35
344.038	35.16
344.25	104.79
344.462	10.58
344.674	45.4
344.886	-7.85
345.099	112.98
345.311	29.01
345.523	22.87
345.735	72.02
345.947	63.83
346.159	-50.86
346.371	39.25
346.583	137.56
346.795	31.06
347.007	-11.95
347.219	63.83
347.431	22.87
347.643	41.3
347.855	59.73
348.067	100.69
348.279	-59.05
348.491	76.12
348.703	39.25
348.915	41.3
349.127	51.54
349.339	115.03
349.551	47.44
349.763	76.12
349.975	16.73
350.187	63.83
350.399	57.68
350.61	96.6
350.822	43.35
351.034	55.64
351.246	-11.95
351.458	112.98
351.669	8.53
351.881	80.21
352.093	-30.38
352.305	108.88
352.517	65.88
352.728	84.31
352.94	20.82
353.152	-5.8
353.363	33.11
353.575	39.25
353.787	39.25
353.999	100.69
354.21	59.73
354.422	92.5
354.633	-5.8
354.845	82.26
355.057	96.6
355.268	82.26
355.48	-11.95
355.692	-5.8
355.903	84.31
356.115	53.59
356.326	-28.33
356.538	41.3
356.749	45.4
356.961	61.78
357.172	45.4
357.384	-9.9
357.595	131.41
357.807	8.53
358.018	-28.33
358.23	76.12
358.441	29.01
358.653	37.2
358.864	76.12
359.075	29.01
359.287	151.89
359.498	117.08
359.709	35.16
359.921	51.54
360.132	51.54
360.344	63.83
360.555	65.88
360.766	47.44
360.977	78.16
361.189	92.5
361.4	39.25
361.611	92.5
361.823	98.64
362.034	41.3
362.245	-1.71
362.456	18.77
362.667	117.08
362.879	39.25
363.09	98.64
363.301	72.02
363.512	41.3
363.723	-9.9
363.935	29.01
364.146	22.87
364.357	26.96
364.568	49.49
364.779	67.92
364.99	72.02
365.201	-40.62
365.412	63.83
365.623	-3.75
365.834	35.16
366.045	80.21
366.256	94.55
366.467	115.03
366.678	33.11
366.889	-36.52
367.1	108.88
367.311	92.5
367.522	121.17
367.733	18.77
367.944	33.11
368.155	-16.04
368.366	104.79
368.577	125.27
368.788	45.4
368.999	16.73
369.209	92.5
369.42	147.8
369.631	121.17
369.842	108.88
370.053	-22.19
370.264	69.97
370.474	31.06
370.685	43.35
370.896	104.79
371.107	61.78
371.317	80.21
371.528	43.35
371.739	41.3
371.95	65.88
372.16	76.12
372.371	31.06
372.582	8.53
372.792	80.21
373.003	51.54
373.214	72.02
373.424	129.36
373.635	49.49
373.846	53.59
374.056	35.16
374.267	47.44
374.477	96.6
374.688	65.88
374.898	119.12
375.109	51.54
375.319	80.21
375.53	88.4
375.74	51.54
375.951	29.01
376.161	92.5
376.372	108.88
376.582	39.25
376.793	100.69
377.003	-9.9
377.214	63.83
377.424	26.96
377.635	78.16
377.845	12.63
378.055	129.36
378.266	72.02
378.476	24.92
378.686	12.63
378.897	4.44
379.107	67.92
379.317	63.83
379.528	65.88
379.738	31.06
379.948	39.25
380.158	88.4
380.369	-32.43
380.579	92.5
380.789	88.4
380.999	4.44
381.21	67.92
381.42	102.74
381.63	31.06
381.84	102.74
382.05	67.92
382.261	88.4
382.471	84.31
382.681	82.26
382.891	55.64
383.101	108.88
383.311	55.64
383.521	24.92
383.731	35.16
383.941	129.36
384.151	135.51
384.361	29.01
384.571	55.64
384.781	108.88
384.991	117.08
385.201	55.64
385.411	96.6
385.621	10.58
385.831	143.7
386.041	82.26
386.251	67.92
386.461	194.9
386.671	80.21
386.881	61.78
387.091	104.79
387.301	41.3
387.511	53.59
387.72	55.64
387.93	147.8
388.14	0.34
388.35	63.83
388.56	90.45
388.769	102.74
388.979	39.25
389.189	-13.99
389.399	141.65
389.609	49.49
389.818	131.41
390.028	31.06
390.238	108.88
390.447	149.84
390.657	125.27
390.867	43.35
391.076	-3.75
391.286	57.68
391.496	72.02
391.705	69.97
391.915	115.03
392.125	151.89
392.334	41.3
392.544	133.46
392.753	94.55
392.963	29.01
393.172	137.56
393.382	72.02
393.591	106.84
393.801	117.08
394.01	164.18
394.22	53.59
394.429	74.07
394.639	121.17
394.848	51.54
395.058	86.36
395.267	110.93
395.477	80.21
395.686	115.03
395.895	147.8
396.105	151.89
396.314	90.45
396.524	131.41
396.733	96.6
396.942	127.32
397.152	84.31
397.361	82.26
397.57	121.17
397.78	96.6
397.989	166.23
398.198	192.85
398.407	133.46
398.617	100.69
398.826	117.08
399.035	141.65
399.244	141.65
399.453	170.32
399.663	145.75
399.872	162.13
400.081	69.97
400.29	147.8
400.499	98.64
400.708	37.2
400.917	117.08
401.127	88.4
401.336	121.17
401.545	176.47
401.754	67.92
401.963	147.8
402.172	67.92
402.381	153.94
402.59	133.46
402.799	129.36
403.008	186.71
403.217	123.22
403.426	205.14
403.635	121.17
403.844	164.18
404.053	115.03
404.262	178.51
404.471	250.19
404.68	213.33
404.888	102.74
405.097	121.17
405.306	158.03
405.515	153.94
405.724	219.47
405.933	235.86
406.142	221.52
406.35	209.23
406.559	213.33
406.768	219.47
406.977	268.63
407.185	231.76
407.394	268.63
407.603	287.06
407.812	254.29
408.02	297.3
408.229	272.72
408.438	272.72
408.646	274.77
408.855	276.82
409.064	231.76
409.272	311.63
409.481	358.74
409.69	305.49
409.898	297.3
410.107	375.12
410.315	446.8
410.524	332.11
410.733	426.32
410.941	317.78
411.15	438.61
411.358	448.85
411.567	348.5
411.775	454.99
411.984	485.71
412.192	553.29
412.401	473.42
412.609	440.65
412.818	524.62
413.026	512.33
413.234	598.35
413.443	649.55
413.651	633.16
413.86	710.99
414.068	762.19
414.276	756.04
414.485	653.64
414.693	756.04
414.901	911.69
415.11	829.77
415.318	811.34
415.526	903.5
415.734	772.43
415.943	926.02
416.151	956.74
416.359	999.75
416.567	952.65
416.776	1018.18
416.984	1083.72
417.192	1116.48
417.4	1145.16
417.608	1182.02
417.817	1280.32
418.025	1249.6
418.233	1354.05
418.441	1337.66
418.649	1401.15
418.857	1448.26
419.065	1544.51
419.273	1501.5
419.481	1591.61
419.689	1626.43
419.897	1714.49
420.105	1757.5
420.313	1804.6
420.521	1907
420.729	1894.71
420.937	1990.97
421.145	2144.56
421.353	2124.08
421.561	2167.09
421.769	2259.25
421.977	2287.92
422.185	2400.56
422.393	2421.04
422.601	2658.6
422.809	2672.94
423.017	2609.45
423.224	2734.38
423.432	2869.55
423.64	2867.5
423.848	3127.59
424.056	2967.85
424.263	3361.06
424.471	3279.14
424.679	3377.44
424.887	3606.81
425.094	3696.92
425.302	3737.88
425.51	3768.6
425.718	3920.15
425.925	4065.56
426.133	4202.77
426.341	4325.65
426.548	4503.82
426.756	4503.82
426.964	4452.63
427.171	4923.66
427.379	5101.83
427.586	5142.79
427.794	5361.92
428.001	5390.6
428.209	5648.64
428.417	5587.2
428.624	6015.23
428.832	5996.79
429.039	5984.51
429.247	6043.9
429.454	6650.1
429.662	7192.81
429.869	6541.55
430.076	6865.13
430.284	6983.91
430.491	7006.44
430.699	7495.91
430.906	7606.5
431.114	7704.8
431.321	8026.33
431.528	8091.87
431.736	8616.15
431.943	8771.79
432.15	8601.81
432.358	8741.07
432.565	9394.37
432.772	9105.61
432.979	9595.07
433.187	9795.78
433.394	9767.1
433.601	10377.4
433.808	10723.51
434.016	10750.13
434.223	10913.97
434.43	11710.63
434.637	11352.23
434.844	11983.01
435.052	12241.05
435.259	12288.15
435.466	12288.15
435.673	12103.84
435.88	13090.96
436.087	13719.68
436.294	13559.94
436.501	13435.02
436.708	13740.16
436.915	14323.83
437.122	14698.61
437.329	14772.34
437.537	15087.73
437.743	15554.66
437.95	15501.42
438.157	16169.05
438.364	16754.77
438.571	16410.71
438.778	16746.58
438.985	18141.25
439.192	17514.57
439.399	18026.56
439.606	17666.12
439.813	18753.59
440.02	19791.91
440.227	19595.31
440.433	19384.37
440.64	19855.4
440.847	19939.37
441.054	20406.3
441.261	21555.21
441.467	21141.52
441.674	21960.71
441.881	22323.2
442.088	22511.61
442.294	21950.47
442.501	22849.53
442.708	23242.74
442.914	24430.56
443.121	24858.59
443.328	25114.58
443.534	26226.63
443.741	25733.07
443.948	25515.98
444.154	27447.22
444.361	26888.12
444.568	27131.83
444.774	27451.31
444.981	27197.37
445.187	28112.81
445.394	29509.52
445.6	28710.82
445.807	31989.61
446.013	30588.8
446.22	31043.45
446.426	31889.26
446.633	32305
446.839	33529.69
447.046	32210.79
447.252	33681.24
447.459	33714
447.665	33646.42
447.871	35020.61
448.078	36794.15
448.284	35061.57
448.491	35872.56
448.697	37285.66
448.903	37910.29
449.11	37947.15
449.316	37388.06
449.522	37957.39
449.728	38569.74
449.935	39397.12
450.141	39264
450.347	39677.69
450.553	38764.29
450.76	39433.98
450.966	40431.34
451.172	39886.58
451.378	40926.95
451.584	40498.92
451.791	40756.97
451.997	41393.89
452.203	41537.24
452.409	42036.95
452.615	41522.91
452.821	39907.06
453.027	39454.46
453.233	41346.78
453.44	39538.43
453.646	39845.62
453.852	40169.2
454.058	40840.93
454.264	39198.46
454.47	40345.33
454.676	39487.23
454.882	40527.59
455.088	37310.24
455.294	38014.74
455.5	38475.53
455.705	38932.23
455.911	36970.27
456.117	36396.84
456.323	35790.64
456.529	33845.07
456.735	35270.46
456.941	34563.91
457.147	33560.41
457.352	33040.22
457.558	32335.72
457.764	32200.55
457.97	31786.86
458.176	30891.9
458.381	31029.12
458.587	29722.51
458.793	29577.11
458.999	28039.08
459.204	30070.67
459.41	28995.48
459.616	27531.19
459.821	27365.3
460.027	27209.65
460.233	26644.41
460.438	25094.1
460.644	25579.47
460.85	24684.51
461.055	24035.3
461.261	23861.23
461.466	22134.79
461.672	21506.06
461.878	23126
462.083	21710.86
462.289	21192.72
462.494	20809.75
462.7	20054.05
462.905	19787.82
463.111	20289.57
463.316	20127.78
463.522	19658.79
463.727	19798.06
463.932	19976.23
464.138	19685.42
464.343	19814.44
464.549	19001.4
464.754	19863.59
464.959	19630.12
465.165	19384.37
465.37	18415.68
465.575	18135.1
465.781	18944.05
465.986	19163.18
466.191	18221.12
466.397	18077.76
466.602	17006.67
466.807	18092.1
467.012	17829.96
467.218	17526.86
467.423	17252.43
467.628	17533
467.833	18325.57
468.038	17659.98
468.244	17145.94
468.449	18065.47
468.654	17305.68
468.859	17160.27
469.064	16961.62
469.269	16406.62
469.474	16519.26
469.679	16955.47
469.885	16011.36
470.09	16621.66
470.295	16365.66
470.5	16060.51
470.705	16185.44
470.91	15603.82
471.115	15673.45
471.32	15839.33
471.525	15831.14
471.73	15282.28
471.935	15134.83
472.139	14905.46
472.344	14614.65
472.549	14901.36
472.754	14641.27
472.959	14360.7
473.164	14141.57
473.369	13883.52
473.574	14329.98
473.778	14252.16
473.983	14002.3
474.188	13947.01
474.393	13506.7
474.598	13426.82
474.802	13287.56
475.007	13191.31
475.212	13058.19
475.417	12757.14
475.621	12808.34
475.826	12777.62
476.031	12513.43
476.235	12384.41
476.44	12507.29
476.645	12187.8
476.849	12058.78
477.054	12275.87
477.259	11952.29
477.463	11999.39
477.668	11505.83
477.872	11886.75
478.077	11571.36
478.282	11212.97
478.486	11317.42
478.691	11180.2
478.895	11200.68
479.1	11014.32
479.304	10944.69
479.509	10813.62
479.713	10999.98
479.918	10782.9
480.122	10760.37
480.326	10590.39
480.531	10625.2
480.735	10424.5
480.94	10598.58
481.144	10879.15
481.348	10387.64
481.553	10438.84
481.757	10283.19
481.961	10418.36
482.166	10612.92
482.37	10354.87
482.574	10137.79
482.778	10418.36
482.983	10492.09
483.187	10037.44
483.391	10332.34
483.595	10289.34
483.8	10160.31
484.004	10262.71
484.208	10375.35
484.412	10291.38
484.616	10379.45
484.821	10414.26
485.025	10043.58
485.229	10188.99
485.433	10127.55
485.637	10223.8
485.841	10094.78
486.045	10035.39
486.249	10088.64
486.453	10045.63
486.657	10215.61
486.861	10180.79
487.065	9887.93
487.269	10094.78
487.473	10004.67
487.677	10389.69
487.881	10334.39
488.085	10438.84
488.289	10262.71
488.493	10145.98
488.697	10283.19
488.901	10455.22
489.105	10193.08
489.309	10391.73
489.512	10283.19
489.716	10367.16
489.92	10301.62
490.124	10414.26
490.328	10490.04
490.531	10469.56
490.735	10387.64
490.939	10567.86
491.143	10406.07
491.346	10379.45
491.55	10442.93
491.754	10760.37
491.958	10873.01
492.161	10674.35
492.365	10795.18
492.569	10649.78
492.772	10885.3
492.976	10893.49
493.18	11053.23
493.383	10975.41
493.587	11122.86
493.79	11227.31
493.994	11055.28
494.197	11036.84
494.401	11368.62
494.605	11468.97
494.808	11413.67
495.012	11475.11
495.215	11698.34
495.419	11684
495.622	11761.83
495.825	12056.73
496.029	11671.72
496.232	12257.43
496.436	12079.26
496.639	12370.07
496.843	12167.32
497.046	12607.64
497.249	12822.67
497.453	12972.18
497.656	12896.4
497.859	12859.54
498.063	12953.74
498.266	13308.04
498.469	13123.73
498.673	13400.2
498.876	13592.71
499.079	13635.72
499.282	13713.54
499.485	14190.72
499.689	14188.67
499.892	14258.3
500.095	14424.19
500.298	14608.5
500.501	14715
500.705	15100.01
500.908	15276.14
501.111	15290.48
501.314	15583.34
501.517	15532.14
501.72	15956.07
501.923	16130.14
502.126	16175.2
502.329	16300.12
502.532	16607.32
502.735	16498.78
502.938	17053.78
503.141	16861.27
503.344	17090.64
503.547	17352.78
503.75	17678.41
503.953	18032.71
504.156	17922.12
504.359	18067.52
504.562	18391.1
504.765	18513.98
504.968	18892.85
505.17	18901.04
505.373	19255.34
505.576	19202.1
505.779	19470.38
505.982	19607.59
506.185	19787.82
506.387	20047.91
506.59	20475.93
506.793	20754.46
506.996	20592.67
507.198	21176.34
507.401	21170.19
507.604	21559.31
507.807	21555.21
508.009	21811.21
508.212	22036.49
508.415	22351.87
508.617	22554.62
508.82	22990.84
509.022	22788.09
509.225	23496.69
509.428	23429.1
509.63	23455.73
509.833	23705.58
510.035	24274.91
510.238	24158.18
510.44	24530.91
510.643	24977.37
510.845	25083.86
511.048	25290.71
511.25	25575.38
511.453	25495.5
511.655	26654.65
511.858	25976.78
512.06	26183.62
512.262	26767.29
512.465	26691.52
512.667	26978.23
512.87	27477.94
513.072	27572.14
513.274	27746.22
513.477	28487.59
513.679	28637.09
513.881	28829.6
514.084	29171.61
514.286	29183.9
514.488	29366.17
514.69	30228.36
514.893	30224.26
515.095	30289.8
515.297	30744.45
515.499	30900.09
515.701	31137.66
515.904	31297.4
516.106	31940.46
516.308	31944.56
516.51	32192.36
516.712	32239.47
516.914	32786.27
517.116	33367.9
517.318	33435.48
517.52	33748.82
517.722	33693.52
517.925	34074.45
518.127	34735.94
518.329	34651.97
518.531	34832.19
518.733	35579.7
518.935	35583.8
519.136	35700.53
519.338	36347.69
519.54	36443.95
519.742	36658.98
519.944	36790.05
520.146	37494.55
520.348	37877.52
520.55	37764.89
520.752	38260.49
520.954	38973.19
521.155	38250.25
521.357	38954.75
521.559	39481.08
521.761	39935.73
521.963	39943.92
522.164	40261.36
522.366	40345.33
522.568	40785.64
522.77	41131.75
522.971	41416.41
523.173	41146.08
523.375	41176.8
523.576	41668.31
523.778	41983.7
523.98	42538.7
524.181	42057.43
524.383	42675.91
524.584	43474.62
524.786	42962.63
524.988	43212.48
525.189	43577.02
525.391	44060.34
525.592	44031.67
525.794	44316.34
525.995	44095.16
526.197	44623.53
526.398	44459.69
526.6	45125.28
526.801	45141.67
527.003	45264.55
527.204	45518.49
527.406	45706.91
527.607	45934.23
527.808	45995.67
528.01	45219.49
528.211	46083.73
528.412	46835.34
528.614	46452.37
528.815	46681.74
529.016	47040.14
529.218	46591.63
529.419	47007.37
529.62	46964.36
529.822	46528.14
530.023	46892.68
530.224	47617.66
530.425	47423.11
530.626	47115.91
530.828	46968.46
531.029	48207.48
531.23	47353.47
531.431	47591.04
531.632	47814.27
531.833	47883.9
532.035	48000.63
532.236	47689.34
532.437	47926.91
532.638	47730.3
532.839	48461.43
533.04	48555.63
533.241	47668.86
533.442	48905.84
533.643	48195.19
533.844	48477.81
534.045	48561.78
534.246	48352.88
534.447	48660.08
534.648	48569.97
534.849	48481.91
535.05	48000.63
535.251	48416.37
535.451	48299.64
535.652	48408.18
535.853	48531.06
536.054	48580.21
536.255	48918.12
536.456	47689.34
536.657	48672.37
536.857	48455.28
537.058	48395.89
537.259	48830.06
537.46	48586.35
537.66	48668.27
537.861	48418.42
538.062	48399.99
538.263	49036.91
538.463	48516.72
538.664	48684.65
538.865	48545.39
539.065	49165.93
539.266	48242.29
539.466	49067.62
539.667	47890.04
539.868	48823.92
540.068	48647.79
540.269	48535.15
540.469	48690.8
540.67	48612.98
540.87	48658.03
541.071	48313.97
541.271	48473.71
541.472	48576.11
541.672	48342.64
541.873	48324.21
542.073	47957.63
542.274	48703.09
542.474	47980.15
542.675	47873.66
542.875	48404.08
543.075	48146.04
543.276	47847.04
543.476	48594.54
543.676	47898.23
543.877	48518.77
544.077	48418.42
544.277	47912.57
544.478	48213.62
544.678	48635.5
544.878	48230.01
545.078	48148.09
545.279	48131.7
545.479	48322.16
545.679	48152.18
545.879	48164.47
546.079	47914.62
546.28	48113.27
546.48	47601.28
546.68	47781.5
546.88	48205.43
547.08	48275.06
547.28	48035.45
547.48	47505.02
547.68	48365.17
547.88	47502.98
548.081	48475.76
548.281	47961.72
548.481	47754.88
548.681	48725.61
548.881	47992.44
549.081	48113.27
549.28	47369.86
549.48	48131.7
549.68	47795.84
549.88	48668.27
550.08	47574.66
550.28	48066.17
550.48	47873.66
550.68	47900.28
550.88	47763.07
551.08	47697.53
551.279	48170.61
551.479	47601.28
551.679	48062.07
551.879	47672.96
552.079	47976.06
552.278	47275.65
552.478	47476.35
552.678	47885.95
552.878	47638.14
553.077	47736.44
553.277	46943.88
553.477	48025.21
553.676	47486.59
553.876	47451.78
554.076	47142.53
554.275	47459.97
554.475	47218.31
554.674	47240.84
554.874	47312.52
555.074	47120.01
555.273	47232.64
555.473	47470.21
555.672	47044.23
555.872	46986.89
556.071	47179.4
556.271	47380.1
556.47	47054.47
556.67	46618.25
556.869	46665.36
557.068	47017.61
557.268	46698.12
557.467	46511.76
557.667	46585.49
557.866	46911.11
558.065	46536.34
558.265	46227.09
558.464	46337.68
558.663	46667.41
558.863	45962.9
559.062	46550.67
559.261	45991.58
559.461	46241.43
559.66	45375.14
559.859	45844.12
560.058	45842.07
560.258	46028.44
560.457	45336.23
560.656	45977.24
560.855	45457.06
561.054	45678.24
561.253	45053.61
561.453	45452.96
561.652	45571.74
561.851	45436.58
562.05	45113
562.249	44560.05
562.448	45069.99
562.647	44904.1
562.846	45078.18
563.045	45035.17
563.244	44519.09
563.443	45121.19
563.642	44166.84
563.841	44646.06
564.04	44230.32
564.239	44846.76
564.438	43724.47
564.637	44142.26
564.836	44232.37
565.035	43306.69
565.234	43910.84
565.432	43708.09
565.631	43462.33
565.83	43343.55
566.029	43136.71
566.228	43663.04
566.427	43470.53
566.625	43101.89
566.824	42751.69
567.023	43112.13
567.222	42311.38
567.42	43001.54
567.619	43073.22
567.818	42833.61
568.016	42352.34
568.215	42766.02
568.414	42340.05
568.612	42694.35
568.811	42088.15
569.01	41938.65
569.208	41608.92
569.407	42125.01
569.605	41318.11
569.804	41803.48
570.002	41324.25
570.201	41531.1
570.4	41225.95
570.598	40974.05
570.797	40967.91
570.995	41060.07
571.193	40642.28
571.392	41021.16
571.59	40431.34
571.789	40584.94
571.987	40460.01
572.186	40396.52
572.384	40070.9
572.582	40165.1
572.781	40275.69
572.979	39841.53
573.177	40140.53
573.376	39704.31
573.574	39720.7
573.772	39941.88
573.971	39700.22
574.169	39253.76
574.367	38838.02
574.565	39622.39
574.763	38950.66
574.962	38942.47
575.16	38520.59
575.358	38997.76
575.556	38805.25
575.754	38993.67
575.952	38385.42
576.151	38446.86
576.349	37973.78
576.547	38336.27
576.745	37998.35
576.943	37998.35
577.141	38137.62
577.339	37793.56
577.537	37285.66
577.735	37467.93
577.933	36943.65
578.131	37441.31
578.329	37025.57
578.527	37039.9
578.725	36816.68
578.923	36884.26
579.121	36835.11
579.319	36738.85
579.516	36957.99
579.714	36214.57
579.912	36216.62
580.11	36417.32
580.308	36280.11
580.506	36206.38
580.704	35852.08
580.901	35798.84
581.099	36329.26
581.297	35557.17
581.495	35673.91
581.692	35770.16
581.89	35260.22
582.088	35596.09
582.285	35395.39
582.483	35475.26
582.681	35450.68
582.878	34852.67
583.076	34676.55
583.274	34871.11
583.471	34228.04
583.669	34758.47
583.866	34150.22
584.064	34594.63
584.262	33855.31
584.459	34502.47
584.657	34035.53
584.854	34191.18
585.052	33552.21
585.249	33967.95
585.447	33863.5
585.644	33488.73
585.841	33619.8
586.039	34099.02
586.236	33433.43
586.434	33285.98
586.631	33126.24
586.828	32866.14
587.026	32954.21
587.223	32800.61
587.42	32565.09
587.618	32837.47
587.815	32319.34
588.012	32178.03
588.21	32477.03
588.407	32587.62
588.604	31903.6
588.801	31911.79
588.999	31846.26
589.196	31891.31
589.393	32024.43
589.59	31788.91
589.787	31326.07
589.984	31285.11
590.182	31039.36
590.379	31278.97
590.576	31260.54
590.773	30834.56
590.97	30771.07
591.167	31256.44
591.364	30547.84
591.561	30633.86
591.758	30609.28
591.955	30490.5
592.152	30367.62
592.349	30191.5
592.546	30080.91
592.743	30381.96
592.94	29585.3
593.137	30029.71
593.334	29960.08
593.531	29540.24
593.727	29796.24
593.924	29349.78
594.121	29364.12
594.318	29278.1
594.515	29200.28
594.712	29144.98
594.908	29101.98
595.105	29179.8
595.302	28970.91
595.499	28616.61
595.696	28692.38
595.892	28551.07
596.089	28518.31
596.286	28487.59
596.482	28463.01
596.679	28395.43
596.876	28350.37
597.072	27928.49
597.269	27973.55
597.466	27910.06
597.662	27748.27
597.859	27672.5
598.055	27680.69
598.252	27430.83
598.448	27367.35
598.645	27606.96
598.841	27076.54
599.038	27318.2
599.234	27232.18
599.431	27279.29
599.627	26707.9
599.824	27166.65
600.02	26535.87
600.217	26746.81
600.413	26322.88
600.609	26558.4
600.806	26691.52
601.002	26447.81
601.198	26226.63
601.395	25802.7
601.591	25841.61
601.787	26017.74
601.984	25749.45
602.18	26212.29
602.376	25673.68
602.572	25688.01
602.769	25907.15
602.965	25159.64
603.161	25501.65
603.357	25341.91
603.553	25284.56
603.75	25653.2
603.946	25352.15
604.142	25128.92
604.338	24741.85
604.534	25040.86
604.73	24860.63
604.926	24696.8
605.122	24901.59
605.318	24475.62
605.514	24143.84
605.71	24545.25
605.906	24549.34
606.102	24035.3
606.298	24508.38
606.494	24141.8
606.69	24180.71
606.886	24158.18
607.082	23508.97
607.278	23803.88
607.474	23869.42
607.67	23670.76
607.866	23402.48
608.062	23951.34
608.257	23468.02
608.453	23601.13
608.649	23420.91
608.845	23175.16
609.041	23461.87
609.236	23289.84
609.432	22798.33
609.628	23199.73
609.824	22913.02
610.019	23066.61
610.215	22888.44
610.411	23142.39
610.606	22603.77
610.802	22966.26
610.998	22702.07
611.193	22810.62
611.389	22482.94
611.584	22564.86
611.78	22380.54
611.976	22491.13
612.171	22634.49
612.367	22446.08
612.562	22185.99
612.758	22126.6
612.953	22120.45
613.149	22378.5
613.344	22175.75
613.539	22284.29
613.735	22296.58
613.93	21835.78
614.126	21735.43
614.321	22149.12
614.517	21884.94
614.712	21606.41
614.907	21561.36
615.103	21780.49
615.298	21489.68
615.493	22032.39
615.688	21350.42
615.884	21843.98
616.079	21415.95
616.274	21559.31
616.47	21471.25
616.665	21477.39
616.86	21334.03
617.055	21491.73
617.25	21041.17
617.445	21542.92
617.641	21149.71
617.836	20920.34
618.031	20740.12
618.226	20992.02
618.421	20592.67
618.616	20963.35
618.811	20574.24
619.006	20746.26
619.201	20267.04
619.396	20488.22
619.591	20174.88
619.786	20437.02
619.981	20109.35
620.176	20287.52
620.371	19769.38
620.566	20117.54
620.761	19693.61
620.956	19922.98
621.151	19578.92
621.346	19675.18
621.541	19034.16
621.735	19613.74
621.93	19243.06
622.125	19179.57
622.32	18954.29
622.515	19087.41
622.709	18939.96
622.904	18769.97
623.099	18579.51
623.294	18855.99
623.488	18704.44
623.683	18548.79
623.878	18188.35
624.072	18376.76
624.267	18206.78
624.462	17952.84
624.656	18104.39
624.851	17952.84
625.046	17694.79
625.24	17877.06
625.435	17492.04
625.629	17438.8
625.824	17438.8
626.018	17373.26
626.213	16900.18
626.407	17320.01
626.602	16947.28
626.796	17190.99
626.991	16840.79
627.185	16916.56
627.38	16621.66
627.574	16474.2
627.768	16406.62
627.963	16562.26
628.157	16246.88
628.352	16529.5
628.546	16042.08
628.74	15964.26
628.935	15886.43
629.129	16318.56
629.323	15569
629.517	15855.72
629.712	15734.89
629.906	15550.57
630.1	15403.11
630.294	15229.04
630.489	15288.43
630.683	15229.04
630.877	14809.2
631.071	15278.19
631.265	15210.61
631.459	14823.54
631.653	14645.37
631.848	15001.71
632.042	14506.1
632.236	14780.53
632.43	14573.69
632.624	14598.26
632.818	14469.24
633.012	14256.25
633.206	14225.53
633.4	14211.2
633.594	13860.99
633.788	13961.34
633.982	13873.28
634.176	14096.51
634.369	13799.55
634.563	13899.91
634.757	13547.65
634.951	13467.78
635.145	13607.05
635.339	13426.82
635.533	13361.29
635.726	13385.87
635.92	13033.61
636.114	13176.97
636.308	13064.33
636.501	13254.8
636.695	13043.85
636.889	12775.57
637.083	12814.48
637.276	12718.23
637.47	12589.21
637.664	12363.93
637.857	12652.69
638.051	12656.79
638.244	12292.25
638.438	12388.5
638.632	12159.13
638.825	12064.93
639.019	12171.42
639.212	12017.82
639.406	12279.96
639.599	11872.42
639.793	12009.63
639.986	11714.72
640.18	12101.79
640.373	11913.38
640.567	11587.75
640.76	11436.2
640.954	11448.49
641.147	11354.28
641.34	11161.77
641.534	11319.46
641.727	11102.38
641.92	11319.46
642.114	11176.11
642.307	11258.03
642.5	10995.89
642.694	11014.32
642.887	10959.02
643.08	10979.5
643.273	10866.86
643.467	10660.02
643.66	10774.7
643.853	10643.63
644.046	10440.89
644.239	10617.01
644.432	10500.28
644.626	10318.01
644.819	10434.74
645.012	10221.75
645.205	10309.82
645.398	10086.59
645.591	10111.16
645.784	10033.34
645.977	10072.25
646.17	9984.19
646.363	9898.17
646.556	10043.58
646.749	9736.38
646.942	9808.06
647.135	9691.33
647.328	9724.1
647.521	9580.74
647.714	9480.39
647.907	9455.81
648.099	9580.74
648.292	9386.18
648.485	9527.49
648.678	9156.81
648.871	9119.95
649.064	9269.45
649.256	9117.9
649.449	8956.11
649.642	9119.95
649.835	9013.45
650.027	9025.74
650.22	8952.01
650.413	8861.9
650.605	8988.88
650.798	8710.35
650.991	8683.73
651.183	8640.72
651.376	8564.95
651.568	8552.66
651.761	8487.12
651.954	8558.8
652.146	8339.67
652.339	8478.93
652.531	8243.42
652.724	8106.2
652.916	8081.63
653.109	8337.62
653.301	8208.6
653.494	8351.96
653.686	8022.23
653.879	8108.25
654.071	7893.21
654.263	7930.08
654.456	7964.89
654.648	8005.85
654.84	7819.49
655.033	7796.96
655.225	7608.55
655.417	7696.61
655.61	7712.99
655.802	7708.9
655.994	7715.04
656.186	7524.58
656.379	7426.28
656.571	7368.93
656.763	7377.12
656.955	7223.53
657.148	7522.53
657.34	7500
657.532	7178.47
657.724	7145.7
657.916	7219.43
658.108	7203.05
658.3	7110.89
658.492	7080.17
658.684	7100.65
658.876	7106.79
659.068	6942.96
659.26	6996.2
659.452	6963.44
659.644	7039.21
659.836	6955.24
660.028	6783.21
660.22	6732.01
660.412	6779.12
660.604	6711.53
660.796	6609.14
660.988	6600.94
661.18	6605.04
661.372	6480.11
661.563	6437.11
661.755	6594.8
661.947	6369.52
662.139	6469.87
662.331	6361.33
662.522	6242.55
662.714	6232.31
662.906	6402.29
663.097	6217.97
663.289	6236.41
663.481	6193.4
663.673	6224.12
663.864	6082.81
664.056	6017.27
664.247	6080.76
664.439	6144.25
664.631	6144.25
664.822	6082.81
665.014	5970.17
665.205	5855.48
665.397	5890.3
665.588	5759.23
665.78	5976.31
665.971	5837.05
666.163	5992.7
666.354	5796.09
666.546	5681.41
666.737	5622.02
666.929	5599.49
667.12	5742.85
667.311	5714.17
667.503	5511.43
667.694	5536
667.885	5560.58
668.077	5501.19
668.268	5398.79
668.459	5314.82
668.651	5433.6
668.842	5474.56
669.033	5347.59
669.224	5374.21
669.416	5425.41
669.607	5320.96
669.798	5191.94
669.989	5482.75
670.18	5163.27
670.371	5308.68
670.563	5185.8
670.754	5302.53
670.945	5153.03
671.136	5288.2
671.327	5171.46
671.518	5312.77
671.709	5077.26
671.9	5187.85
672.091	5099.78
672.282	5069.06
672.473	5161.22
672.664	5085.45
672.855	5105.93
673.046	5083.4
673.237	4985.1
673.428	5048.58
673.619	4983.05
673.809	4989.19
674	4968.71
674.191	5040.39
674.382	4993.29
674.573	4759.82
674.764	4866.32
674.954	4974.86
675.145	4819.21
675.336	4729.1
675.527	4837.64
675.717	4735.25
675.908	4753.68
676.099	4761.87
676.289	4712.72
676.48	4716.81
676.671	4798.73
676.861	4649.23
677.052	4507.92
677.243	4628.75
677.433	4798.73
677.624	4684.05
677.814	4589.84
678.005	4722.96
678.195	4741.39
678.386	4651.28
678.576	4622.61
678.767	4636.94
678.957	4677.9
679.148	4606.22
679.338	4591.89
679.529	4524.3
679.719	4489.49
679.909	4604.18
680.1	4739.34
680.29	4559.12
680.481	4522.26
680.671	4487.44
680.861	4385.04
681.052	4575.5
681.242	4438.29
681.432	4475.15
681.622	4364.56
681.813	4524.3
682.003	4540.69
682.193	4536.59
682.383	4307.22
682.573	4438.29
682.764	4366.61
682.954	4561.17
683.144	4469.01
683.334	4305.17
683.524	4432.15
683.714	4382.99
683.904	4360.47
684.094	4358.42
684.284	4339.99
684.474	4512.02
684.664	4253.97
684.854	4473.11
685.044	4233.49
685.234	4360.47
685.424	4122.9
685.614	4305.17
685.804	4262.16
685.994	4253.97
686.184	4380.95
686.374	4110.61
686.564	4092.18
686.753	4241.68
686.943	4057.37
687.133	4186.39
687.323	4104.47
687.513	4208.92
687.702	3950.87
687.892	4196.63
688.082	4147.48
688.272	4206.87
688.461	4024.6
688.651	3975.45
688.841	4090.13
689.03	3940.63
689.22	3942.68
689.41	4081.94
689.599	3877.15
689.789	3946.78
689.979	4038.94
690.168	3889.43
690.358	3789.08
690.547	3711.26
690.737	3887.39
690.926	3885.34
691.116	3813.66
691.305	3825.95
691.495	3862.81
691.684	3731.74
691.874	3854.62
692.063	3688.73
692.252	3885.34
692.442	3690.78
692.631	3580.19
692.82	3725.6
693.01	3596.57
693.199	3608.86
693.388	3578.14
693.578	3672.35
693.767	3518.75
693.956	3600.67
694.146	3733.79
694.335	3496.22
694.524	3604.77
694.713	3594.53
694.902	3479.84
695.092	3526.94
695.281	3506.46
695.47	3737.88
695.659	3477.79
695.848	3504.42
696.037	3477.79
696.226	3557.66
696.415	3492.13
696.604	3645.73
696.793	3397.92
696.982	3475.74
697.171	3369.25
697.36	3410.21
697.549	3455.26
697.738	3471.65
697.927	3217.7
698.116	3512.61
698.305	3332.39
698.494	3481.89
698.683	3336.48
698.872	3438.88
699.061	3498.27
699.25	3299.62
699.438	3350.82
699.627	3291.43
699.816	3406.11
700.005	3389.73
700.193	3500.32
700.382	3348.77
700.571	3316
700.76	3287.33
700.948	3490.08
701.137	3207.46
701.326	3281.19
701.514	3297.57
701.703	3279.14
701.892	3229.99
702.08	3367.2
702.269	3299.62
702.457	3172.64
702.646	3348.77
702.834	3180.84
703.023	3217.7
703.212	3252.52
703.4	3229.99
703.589	3256.61
703.777	3199.27
703.965	3219.75
704.154	3205.41
704.342	3111.21
704.531	3217.7
704.719	3268.9
704.907	3313.95
705.096	3219.75
705.284	3148.07
705.472	3277.09
705.661	3131.69
705.849	3250.47
706.037	3217.7
706.226	3139.88
706.414	3268.9
706.602	3176.74
706.79	3260.71
706.979	3119.4
707.167	3066.15
707.355	3133.73
707.543	3215.65
707.731	3166.5
707.919	3199.27
708.107	3186.98
708.296	3254.56
708.484	3133.73
708.672	3139.88
708.86	3164.45
709.048	3301.67
709.236	3270.95
709.424	3205.41
709.612	3146.02
709.8	3223.84
709.988	3133.73
710.176	3189.03
710.364	3219.75
710.551	3064.1
710.739	3156.26
710.927	3236.13
711.115	3242.28
711.303	3184.93
711.491	3227.94
711.679	3242.28
711.866	3076.39
712.054	3172.64
712.242	3137.83
712.43	3160.36
712.617	3156.26
712.805	3180.84
712.993	3205.41
713.181	3103.01
713.368	3098.92
713.556	3254.56
713.744	2994.47
713.931	3148.07
714.119	3225.89
714.306	3143.97
714.494	3146.02
714.682	3141.93
714.869	3098.92
715.057	3264.8
715.244	3039.53
715.432	3094.82
715.619	3115.3
715.807	3189.03
715.994	3246.37
716.182	3178.79
716.369	3266.85
716.556	3113.25
716.744	2965.8
716.931	3217.7
717.119	3168.55
717.306	3033.38
717.493	3137.83
717.681	3184.93
717.868	3232.04
718.055	3201.32
718.242	3180.84
718.43	3100.97
718.617	3133.73
718.804	3184.93
718.991	3162.41
719.179	3234.08
719.366	3074.34
719.553	3125.54
719.74	3119.4
719.927	3062.05
720.114	3201.32
720.301	3115.3
720.488	3133.73
720.676	3111.21
720.863	3209.51
721.05	3199.27
721.237	3148.07
721.424	3213.6
721.611	3143.97
721.798	3049.77
721.985	3055.91
722.172	3021.1
722.358	3119.4
722.545	3131.69
722.732	3074.34
722.919	3068.2
723.106	3156.26
723.293	3096.87
723.48	3115.3
723.667	3111.21
723.853	3094.82
724.04	3141.93
724.227	3092.77
724.414	3094.82
724.6	3004.71
724.787	3066.15
724.974	3148.07
725.161	2947.37
725.347	2959.66
725.534	3072.29
725.72	3100.97
725.907	3227.94
726.094	3107.11
726.28	3017
726.467	3098.92
726.653	3033.38
726.84	2955.56
727.027	3123.49
727.213	3064.1
727.4	3143.97
727.586	3066.15
727.773	2961.7
727.959	2947.37
728.145	3004.71
728.332	3086.63
728.518	3002.66
728.705	2973.99
728.891	3064.1
729.077	3068.2
729.264	2894.12
729.45	2924.84
729.636	3041.57
729.823	3066.15
730.009	3062.05
730.195	3027.24
730.382	3170.6
730.568	2982.18
730.754	3084.58
730.94	3098.92
731.126	3049.77
731.313	3193.12
731.499	3037.48
731.685	3000.62
731.871	3062.05
732.057	2978.09
732.243	3074.34
732.429	2998.57
732.615	2941.22
732.801	3000.62
732.987	2941.22
733.173	2971.94
733.359	2797.87
733.545	2930.98
733.731	2969.9
733.917	3037.48
734.103	2920.74
734.289	3080.49
734.475	2926.89
734.661	3039.53
734.847	2875.69
735.033	2992.42
735.219	2828.59
735.404	2885.93
735.59	2965.8
735.776	2994.47
735.962	2896.17
736.148	2994.47
736.333	2904.36
736.519	2881.83
736.705	2945.32
736.89	2873.64
737.076	2926.89
737.262	2783.53
737.447	2855.21
737.633	2715.95
737.819	2795.82
738.004	2828.59
738.19	2754.86
738.375	2826.54
738.561	2939.18
738.747	2777.39
738.932	2799.91
739.118	2804.01
739.303	2855.21
739.489	2654.51
739.674	2838.83
739.859	2826.54
740.045	2851.11
740.23	2709.8
740.416	2722.09
740.601	2687.28
740.786	2799.91
740.972	2599.21
741.157	2787.63
741.342	2619.69
741.528	2574.64
741.713	2666.8
741.898	2703.66
742.084	2631.98
742.269	2621.74
742.454	2496.82
742.639	2640.17
742.824	2607.41
743.01	2550.06
743.195	2609.45
743.38	2603.31
743.565	2574.64
743.75	2650.41
743.935	2513.2
744.12	2443.57
744.305	2406.7
744.49	2408.75
744.675	2476.34
744.86	2453.81
745.045	2492.72
745.23	2554.16
745.415	2421.04
745.6	2488.62
745.785	2402.61
745.97	2392.37
746.155	2367.79
746.34	2371.89
746.525	2378.03
746.71	2353.46
746.895	2306.35
747.079	2238.77
747.264	2298.16
747.449	2392.37
747.634	2320.69
747.819	2320.69
748.003	2249.01
748.188	2220.34
748.373	2255.15
748.557	2095.41
748.742	2216.24
748.927	2081.08
749.111	2119.99
749.296	2193.72
749.481	2152.76
749.665	2146.61
749.85	2079.03
750.034	2074.93
750.219	2132.28
750.404	2083.13
750.588	2083.13
750.773	2025.78
750.957	2068.79
751.141	1931.58
751.326	1923.38
751.51	1982.78
751.695	2021.69
751.879	1976.63
752.064	2017.59
752.248	1866.04
752.432	1933.62
752.617	1890.62
752.801	1900.86
752.985	1718.59
753.17	1747.26
753.354	1927.48
753.538	1892.66
753.722	1855.8
753.907	1870.14
754.091	1726.78
754.275	1624.38
754.459	1700.16
754.643	1716.54
754.828	1747.26
755.012	1704.25
755.196	1710.4
755.38	1630.52
755.564	1620.28
755.748	1669.44
755.932	1780.03
756.116	1624.38
756.3	1636.67
756.484	1608
756.668	1610.04
756.852	1648.96
757.036	1610.04
757.22	1550.65
757.404	1540.41
757.588	1495.36
757.772	1708.35
757.956	1591.61
758.14	1556.8
758.323	1579.33
758.507	1526.08
758.691	1489.21
758.875	1567.04
759.059	1433.92
759.242	1513.79
759.426	1413.44
759.61	1517.89
759.794	1427.78
759.977	1491.26
760.161	1433.92
760.345	1423.68
760.528	1372.48
760.712	1278.27
760.895	1382.72
761.079	1425.73
761.263	1331.52
761.446	1339.71
761.63	1354.05
761.813	1335.62
761.997	1347.9
762.18	1345.86
762.364	1374.53
762.547	1319.23
762.731	1280.32
762.914	1364.29
763.098	1335.62
763.281	1198.4
763.464	1265.99
763.648	1288.51
763.831	1208.64
764.015	1257.79
764.198	1231.17
764.381	1247.55
764.564	1171.78
764.748	1184.07
764.931	1284.42
765.114	1259.84
765.297	1296.71
765.481	1161.54
765.664	1265.99
765.847	1198.4
766.03	1282.37
766.213	1198.4
766.397	1233.22
766.58	1190.21
766.763	1268.03
766.946	1177.92
767.129	1194.31
767.312	1124.68
767.495	1055.05
767.678	1128.77
767.861	1196.36
768.044	1108.29
768.227	1073.48
768.41	1067.33
768.593	1147.2
768.776	1055.05
768.959	1171.78
769.142	1165.64
769.324	1028.42
769.507	1044.81
769.69	1069.38
769.873	1192.26
770.056	1124.68
770.239	1073.48
770.421	1085.76
770.604	1048.9
770.787	1104.2
770.97	1001.8
771.152	1048.9
771.335	1104.2
771.518	1012.04
771.7	1053
771.883	1075.52
772.066	878.92
772.248	1059.14
772.431	1042.76
772.613	995.65
772.796	983.37
772.978	991.56
773.161	1044.81
773.343	944.45
773.526	876.87
773.708	1020.23
773.891	936.26
774.073	969.03
774.256	938.31
774.438	962.89
774.621	956.74
774.803	975.17
774.985	919.88
775.168	942.41
775.35	928.07
775.532	862.54
775.715	964.93
775.897	960.84
776.079	825.67
776.261	889.16
776.444	909.64
776.626	915.78
776.808	768.33
776.99	774.47
777.173	766.28
777.355	774.47
777.537	821.58
777.719	784.71
777.901	756.04
778.083	749.9
778.265	827.72
778.447	809.29
778.629	704.84
778.811	805.19
778.993	784.71
779.175	837.96
779.357	680.27
779.539	737.61
779.721	620.88
779.903	710.99
780.085	571.72
780.267	643.4
780.449	672.08
780.631	710.99
780.812	743.75
780.994	641.36
781.176	622.92
781.358	674.12
781.54	616.78
781.721	653.64
781.903	674.12
782.085	678.22
782.267	665.93
782.448	530.77
782.63	604.49
782.812	604.49
782.993	618.83
783.175	692.55
783.357	584.01
783.538	641.36
783.72	629.07
783.901	547.15
784.083	616.78
784.264	555.34
784.446	604.49
784.627	510.29
784.809	534.86
784.99	567.63
785.172	493.9
785.353	614.73
785.535	547.15
785.716	553.29
785.897	498
786.079	479.57
786.26	573.77
786.441	493.9
786.623	477.52
786.804	532.81
786.985	524.62
787.167	563.53
787.348	520.53
787.529	442.7
787.71	551.24
787.891	481.61
788.073	469.33
788.254	454.99
788.435	567.63
788.616	420.17
788.797	373.07
788.978	436.56
789.159	442.7
789.34	522.57
789.522	442.7
789.703	493.9
789.884	471.37
790.065	487.76
790.246	493.9
790.427	481.61
790.607	440.65
790.788	498
790.969	475.47
791.15	448.85
791.331	375.12
791.512	364.88
791.693	454.99
791.874	510.29
792.054	391.5
792.235	399.7
792.416	428.37
792.597	411.98
792.778	409.94
792.958	436.56
793.139	434.51
793.32	418.13
793.5	491.85
793.681	368.98
793.862	352.59
794.042	422.22
794.223	354.64
794.404	319.82
794.584	364.88
794.765	430.41
794.945	274.77
795.126	381.26
795.306	432.46
795.487	315.73
795.667	315.73
795.848	321.87
796.028	416.08
796.209	239.95
796.389	268.63
796.57	379.22
796.75	336.21
796.93	328.02
797.111	338.26
797.291	295.25
797.471	315.73
797.652	293.2
797.832	366.93
798.012	362.83
798.192	391.5
798.373	239.95
798.553	362.83
798.733	354.64
798.913	280.91
799.093	342.35
799.274	264.53
799.454	301.39
799.634	328.02
799.814	299.34
799.994	334.16
800.174	305.49
800.354	280.91
800.534	276.82
800.714	301.39
800.894	336.21
801.074	344.4
801.254	256.34
801.434	315.73
801.614	280.91
801.794	258.39
801.974	858.44
802.154	252.24
802.334	272.72
802.514	301.39
802.693	276.82
802.873	268.63
803.053	252.24
803.233	221.52
803.413	332.11
803.592	217.43
803.772	289.1
803.952	201.04
804.131	178.51
804.311	217.43
804.491	315.73
804.67	190.8
804.85	239.95
805.03	346.45
805.209	227.67
805.389	215.38
805.568	272.72
805.748	217.43
805.928	219.47
806.107	325.97
806.287	233.81
806.466	276.82
806.646	248.15
806.825	237.91
807.004	250.19
807.184	252.24
807.363	211.28
807.543	301.39
807.722	186.71
807.901	299.34
808.081	182.61
808.26	252.24
808.439	235.86
808.619	170.32
808.798	272.72
808.977	258.39
809.156	215.38
809.336	182.61
809.515	246.1
809.694	223.57
809.873	223.57
810.052	182.61
810.231	205.14
810.411	217.43
810.59	256.34
810.769	248.15
810.948	258.39
811.127	166.23
811.306	303.44
811.485	266.58
811.664	231.76
811.843	186.71
812.022	184.66
812.201	190.8
812.38	158.03
812.559	201.04
812.737	215.38
812.916	137.56
813.095	162.13
813.274	180.56
813.453	229.71
813.632	182.61
813.811	172.37
813.989	182.61
814.168	188.75
814.347	170.32
814.526	209.23
814.704	153.94
814.883	221.52
815.062	123.22
815.24	239.95
815.419	201.04
815.598	162.13
815.776	49.49
815.955	135.51
816.133	160.08
816.312	137.56
816.49	158.03
816.669	147.8
816.847	227.67
817.026	98.64
817.204	219.47
817.383	147.8
817.561	180.56
817.74	215.38
817.918	192.85
818.097	158.03
818.275	84.31
818.453	133.46
818.632	188.75
818.81	80.21
818.988	172.37
819.167	88.4
819.345	141.65
819.523	74.07
819.701	219.47
819.879	166.23
820.058	186.71
820.236	141.65
820.414	155.99
820.592	125.27
820.77	123.22
820.948	143.7
821.127	119.12
821.305	147.8
821.483	145.75
821.661	119.12
821.839	158.03
822.017	22.87
822.195	158.03
822.373	160.08
822.551	125.27
822.729	147.8
822.907	133.46
823.085	198.99
823.262	69.97
823.44	102.74
823.618	145.75
823.796	92.5
823.974	139.6
824.152	100.69
824.329	82.26
824.507	92.5
824.685	106.84
824.863	94.55
825.04	69.97
825.218	151.89
825.396	100.69
825.574	117.08
825.751	137.56
825.929	125.27
826.107	82.26
826.284	166.23
826.462	125.27
826.639	139.6
826.817	53.59
826.994	149.84
827.172	59.73
827.349	201.04
827.527	168.27
827.704	112.98
827.882	145.75
828.059	133.46
828.237	108.88
828.414	41.3
828.591	131.41
828.769	143.7
828.946	129.36
829.124	174.42
829.301	172.37
829.478	125.27
829.655	121.17
829.833	117.08
830.01	96.6
830.187	69.97
830.364	76.12
830.542	201.04
830.719	170.32
830.896	65.88
831.073	102.74
831.25	100.69
831.427	158.03
831.604	117.08
831.782	104.79
831.959	121.17
832.136	104.79
832.313	69.97
832.49	51.54
832.667	55.64
832.844	43.35
833.021	127.32
833.198	31.06
833.374	108.88
833.551	119.12
833.728	94.55
833.905	139.6
834.082	108.88
834.259	92.5
834.436	184.66
834.612	33.11
834.789	160.08
834.966	47.44
835.143	59.73
835.319	29.01
835.496	49.49
835.673	82.26
835.85	78.16
836.026	43.35
836.203	88.4
836.38	125.27
836.556	88.4
836.733	45.4
836.909	37.2
837.086	49.49
837.262	63.83
837.439	147.8
837.616	90.45
837.792	139.6
837.968	39.25
838.145	69.97
838.321	4.44
838.498	112.98
838.674	31.06
838.851	57.68
839.027	2.39
839.203	57.68
839.38	133.46
839.556	104.79
839.732	49.49
839.909	86.36
840.085	98.64
840.261	51.54
840.437	41.3
840.614	104.79
840.79	76.12
840.966	127.32
841.142	45.4
841.318	76.12
841.494	127.32
841.671	117.08
841.847	37.2
842.023	108.88
842.199	29.01
842.375	108.88
842.551	-18.09
842.727	10.58
842.903	84.31
843.079	-26.28
843.255	33.11
843.431	20.82
843.607	102.74
843.783	24.92
843.959	22.87
844.134	26.96
844.31	59.73
844.486	37.2
844.662	45.4
844.838	35.16
845.013	84.31
845.189	76.12
845.365	88.4
845.541	104.79
845.716	51.54
845.892	63.83
846.068	24.92
846.244	41.3
846.419	67.92
846.595	43.35
846.77	45.4
846.946	112.98
847.122	65.88
847.297	96.6
847.473	100.69
847.648	39.25
847.824	86.36
847.999	-28.33
848.175	4.44
848.35	67.92
848.526	61.78
848.701	47.44
848.876	69.97
849.052	108.88
849.227	6.49
849.403	59.73
849.578	51.54
849.753	-16.04
849.929	22.87
850.104	47.44
850.279	57.68
850.454	74.07
850.63	55.64
850.805	26.96
850.98	69.97
851.155	84.31
851.33	108.88
851.505	12.63
851.681	45.4
851.856	45.4
852.031	104.79
852.206	6.49
852.381	-20.14
852.556	55.64
852.731	43.35
852.906	18.77
853.081	61.78
853.256	115.03
853.431	65.88
853.606	8.53
853.781	18.77
853.956	-44.71
854.131	125.27
854.305	-3.75
854.48	20.82
854.655	33.11
854.83	74.07
855.005	59.73
855.18	29.01
855.354	67.92
855.529	29.01
855.704	61.78
855.879	67.92
856.053	82.26
856.228	18.77
856.403	10.58
856.577	53.59
856.752	35.16
856.926	37.2
857.101	59.73
857.276	-24.23
857.45	2.39
857.625	129.36
857.799	-16.04
857.974	-67.24
858.148	-3.75
858.323	8.53
858.497	45.4
858.672	67.92
858.846	51.54
859.02	74.07
859.195	67.92
859.369	59.73
859.543	-7.85
859.718	4.44
859.892	22.87
860.066	51.54
860.241	-28.33
860.415	84.31
860.589	22.87
860.763	96.6
860.938	47.44
861.112	39.25
861.286	47.44
861.46	29.01
861.634	-11.95
861.808	121.17
861.982	-3.75
862.157	92.5
862.331	-1.71
862.505	-1.71
862.679	-26.28
862.853	31.06
863.027	-18.09
863.201	55.64
863.375	-1.71
863.549	106.84
863.722	59.73
863.896	45.4
864.07	80.21
864.244	-36.52
864.418	14.68
864.592	31.06
864.766	33.11
864.939	6.49
865.113	20.82
865.287	2.39
865.461	29.01
865.634	53.59
865.808	-42.67
865.982	-7.85
866.156	4.44
866.329	-42.67
866.503	24.92
866.676	33.11
866.85	24.92
867.024	65.88
867.197	94.55
867.371	63.83
867.544	53.59
867.718	-52.91
867.891	35.16
868.065	-18.09
868.238	8.53
868.412	67.92
868.585	26.96
868.759	26.96
868.932	49.49
869.105	35.16
869.279	-22.19
869.452	14.68
869.625	16.73
869.799	67.92
869.972	26.96
870.145	65.88
870.319	59.73
870.492	43.35
870.665	43.35
870.838	39.25
871.011	-22.19
871.185	14.68
871.358	39.25
871.531	-3.75
871.704	-1.71
871.877	-54.95
872.05	29.01
872.223	33.11
872.396	53.59
872.569	22.87
872.742	37.2
872.915	59.73
873.088	16.73
873.261	-13.99
873.434	26.96
873.607	31.06
873.78	41.3
873.953	-30.38
874.126	74.07
874.299	31.06
874.471	-7.85
874.644	65.88
874.817	61.78
874.99	14.68
875.163	16.73
875.335	-32.43
875.508	55.64
875.681	-42.67
875.853	-1.71
876.026	-11.95
876.199	18.77
876.371	96.6
876.544	-3.75
876.717	49.49
876.889	47.44
877.062	14.68
877.234	49.49
877.407	6.49
877.579	-30.38
877.752	39.25
877.924	10.58
878.097	35.16
878.269	-16.04
878.442	-46.76
878.614	-1.71
878.786	-20.14
878.959	0.34
879.131	2.39
879.303	37.2
879.476	51.54
879.648	16.73
879.82	53.59
879.993	2.39
880.165	2.39
880.337	-48.81
880.509	76.12
880.681	0.34
880.854	-16.04
881.026	72.02
881.198	39.25
881.37	102.74
881.542	6.49
881.714	-24.23
881.886	37.2
882.058	-40.62
882.23	51.54
882.402	24.92
882.574	-36.52
882.746	-1.71
882.918	45.4
883.09	2.39
883.262	-26.28
883.434	18.77
883.606	-40.62
883.778	18.77
883.95	22.87
884.122	39.25
884.293	35.16
884.465	74.07
884.637	29.01
884.809	-11.95
884.98	-3.75
885.152	31.06
885.324	14.68
885.496	10.58
885.667	-75.43
885.839	-44.71
886.011	37.2
886.182	-42.67
886.354	57.68
886.525	-34.47
886.697	16.73
886.869	51.54
887.04	35.16
887.212	4.44
887.383	47.44
887.555	-11.95
887.726	72.02
887.897	41.3
888.069	31.06
888.24	16.73
888.412	-3.75
888.583	14.68
888.754	45.4
888.926	-54.95
889.097	-1.71
889.268	41.3
889.44	20.82
889.611	-1.71
889.782	10.58
889.953	-5.8
890.125	20.82
890.296	-50.86
890.467	-30.38
890.638	-63.15
890.809	24.92
890.98	-54.95
891.151	57.68
891.323	6.49
891.494	-16.04
891.665	67.92
891.836	-36.52
892.007	-13.99
892.178	29.01
892.349	2.39
892.52	-18.09
892.691	18.77
892.862	31.06
893.032	-11.95
893.203	55.64
893.374	-9.9
893.545	-5.8
893.716	-26.28
893.887	8.53
894.057	61.78
894.228	-20.14
894.399	-7.85
894.57	143.7
894.74	18.77
894.911	4.44
895.082	61.78
895.253	10.58
895.423	43.35
895.594	78.16
895.764	72.02
895.935	6.49
896.106	-38.57
896.276	-44.71
896.447	29.01
896.617	45.4
896.788	26.96
896.958	59.73
897.129	-3.75
897.299	35.16
897.47	2.39
897.64	16.73
897.81	102.74
897.981	18.77
898.151	-95.91
898.322	29.01
898.492	24.92
898.662	22.87
898.832	-22.19
899.003	-20.14
899.173	26.96
899.343	-16.04
899.513	-75.43
