Data from USB4F104151__256__10-39-45-749.txt Node

Date: Wed Mar 12 10:39:45 EDT 2025
User: louis
Spectrometer: USB4F10415
Trigger mode: 4
Integration Time (sec): 3.000000E-2
Scans to average: 1
Electric dark correction enabled: true
Nonlinearity correction enabled: false
Boxcar width: 0
XAxis mode: Wavelengths
Number of Pixels in Spectrum: 3648
>>>>>Begin Spectral Data<<<<<
178.204	-109.57
178.424	-109.57
178.644	-109.57
178.864	-103.42
179.084	-109.57
179.304	7.17
179.524	-46.08
179.744	54.27
179.964	31.74
180.184	-31.74
180.404	13.31
180.624	3.07
180.844	-1.02
181.064	1.02
181.283	-11.26
181.503	-41.98
181.723	21.5
181.943	-50.18
182.163	46.08
182.383	-9.22
182.602	66.56
182.822	46.08
183.042	13.31
183.262	23.55
183.482	72.7
183.701	58.37
183.921	95.23
184.141	1.02
184.361	23.55
184.58	15.36
184.8	97.28
185.02	60.42
185.239	13.31
185.459	93.18
185.679	80.89
185.898	-29.7
186.118	76.8
186.338	64.51
186.557	19.46
186.777	31.74
186.997	93.18
187.216	64.51
187.436	152.57
187.655	31.74
187.875	-5.12
188.095	15.36
188.314	44.03
188.534	48.13
188.753	31.74
188.973	60.42
189.192	-19.46
189.412	60.42
189.631	15.36
189.851	48.13
190.07	7.17
190.29	48.13
190.509	56.32
190.729	31.74
190.948	117.76
191.168	109.57
191.387	68.61
191.607	27.65
191.826	89.09
192.045	-13.31
192.265	-33.79
192.484	84.99
192.704	23.55
192.923	-46.08
193.142	82.94
193.362	117.76
193.581	68.61
193.8	7.17
194.02	56.32
194.239	48.13
194.458	39.94
194.678	80.89
194.897	-9.22
195.116	-3.07
195.335	-41.98
195.555	48.13
195.774	29.7
195.993	52.22
196.212	-9.22
196.432	76.8
196.651	82.94
196.87	27.65
197.089	80.89
197.308	84.99
197.528	5.12
197.747	-29.7
197.966	146.43
198.185	84.99
198.404	23.55
198.623	-15.36
198.842	39.94
199.062	56.32
199.281	97.28
199.5	-17.41
199.719	44.03
199.938	91.13
200.157	74.75
200.376	89.09
200.595	44.03
200.814	35.84
201.033	7.17
201.252	119.81
201.471	76.8
201.69	66.56
201.909	-5.12
202.128	72.7
202.347	76.8
202.566	-1.02
202.785	-11.26
203.004	44.03
203.223	148.48
203.442	23.55
203.661	9.22
203.879	35.84
204.098	37.89
204.317	31.74
204.536	-7.17
204.755	-15.36
204.974	107.52
205.193	39.94
205.411	142.33
205.63	56.32
205.849	37.89
206.068	84.99
206.287	44.03
206.505	29.7
206.724	-62.46
206.943	1.02
207.162	33.79
207.381	64.51
207.599	93.18
207.818	64.51
208.037	68.61
208.255	-23.55
208.474	72.7
208.693	52.22
208.911	-27.65
209.13	68.61
209.349	5.12
209.567	93.18
209.786	84.99
210.005	23.55
210.223	56.32
210.442	58.37
210.661	80.89
210.879	17.41
211.098	50.18
211.316	-5.12
211.535	48.13
211.753	58.37
211.972	37.89
212.191	39.94
212.409	68.61
212.628	27.65
212.846	33.79
213.065	-31.74
213.283	27.65
213.502	-52.22
213.72	-23.55
213.938	93.18
214.157	99.33
214.375	3.07
214.594	58.37
214.812	37.89
215.031	121.85
215.249	-62.46
215.467	21.5
215.686	105.47
215.904	25.6
216.122	48.13
216.341	103.42
216.559	44.03
216.778	21.5
216.996	50.18
217.214	15.36
217.432	80.89
217.651	23.55
217.869	-3.07
218.087	68.61
218.306	74.75
218.524	7.17
218.742	80.89
218.96	52.22
219.179	23.55
219.397	-29.7
219.615	50.18
219.833	111.61
220.051	23.55
220.27	74.75
220.488	64.51
220.706	23.55
220.924	50.18
221.142	-39.94
221.36	23.55
221.578	-25.6
221.796	74.75
222.015	13.31
222.233	-15.36
222.451	105.47
222.669	-5.12
222.887	68.61
223.105	76.8
223.323	54.27
223.541	-9.22
223.759	60.42
223.977	52.22
224.195	91.13
224.413	82.94
224.631	142.33
224.849	3.07
225.067	113.66
225.285	-5.12
225.503	72.7
225.721	-13.31
225.939	80.89
226.157	25.6
226.375	97.28
226.592	-5.12
226.81	35.84
227.028	125.95
227.246	117.76
227.464	-13.31
227.682	29.7
227.9	50.18
228.117	70.65
228.335	74.75
228.553	105.47
228.771	72.7
228.989	54.27
229.206	52.22
229.424	17.41
229.642	52.22
229.86	19.46
230.077	128
230.295	25.6
230.513	15.36
230.731	125.95
230.948	109.57
231.166	39.94
231.384	35.84
231.601	50.18
231.819	48.13
232.037	35.84
232.254	64.51
232.472	56.32
232.689	9.22
232.907	91.13
233.125	-17.41
233.342	11.26
233.56	29.7
233.777	33.79
233.995	-37.89
234.213	50.18
234.43	66.56
234.648	17.41
234.865	48.13
235.083	-13.31
235.3	119.81
235.518	58.37
235.735	185.34
235.953	99.33
236.17	29.7
236.388	54.27
236.605	7.17
236.822	115.71
237.04	-41.98
237.257	93.18
237.475	15.36
237.692	-1.02
237.909	52.22
238.127	-15.36
238.344	21.5
238.562	41.98
238.779	58.37
238.996	-23.55
239.214	27.65
239.431	87.04
239.648	89.09
239.865	3.07
240.083	107.52
240.3	64.51
240.517	50.18
240.735	44.03
240.952	72.7
241.169	46.08
241.386	13.31
241.603	-3.07
241.821	60.42
242.038	121.85
242.255	-52.22
242.472	15.36
242.689	-9.22
242.907	46.08
243.124	72.7
243.341	80.89
243.558	21.5
243.775	9.22
243.992	89.09
244.209	91.13
244.426	70.65
244.643	68.61
244.86	-37.89
245.078	41.98
245.295	91.13
245.512	9.22
245.729	1.02
245.946	15.36
246.163	27.65
246.38	3.07
246.597	64.51
246.814	50.18
247.031	48.13
247.248	-1.02
247.464	21.5
247.681	50.18
247.898	70.65
248.115	87.04
248.332	1.02
248.549	21.5
248.766	95.23
248.983	70.65
249.2	3.07
249.417	64.51
249.633	35.84
249.85	27.65
250.067	39.94
250.284	56.32
250.501	117.76
250.717	3.07
250.934	52.22
251.151	80.89
251.368	31.74
251.585	68.61
251.801	5.12
252.018	64.51
252.235	-9.22
252.451	13.31
252.668	-13.31
252.885	72.7
253.102	58.37
253.318	35.84
253.535	125.95
253.752	27.65
253.968	19.46
254.185	-7.17
254.401	7.17
254.618	52.22
254.835	46.08
255.051	76.8
255.268	95.23
255.484	97.28
255.701	15.36
255.917	76.8
256.134	84.99
256.351	-21.5
256.567	-35.84
256.784	125.95
257	1.02
257.217	95.23
257.433	89.09
257.65	39.94
257.866	31.74
258.082	35.84
258.299	5.12
258.515	46.08
258.732	97.28
258.948	27.65
259.165	25.6
259.381	41.98
259.597	35.84
259.814	48.13
260.03	89.09
260.246	115.71
260.463	52.22
260.679	70.65
260.895	5.12
261.112	37.89
261.328	48.13
261.544	44.03
261.761	89.09
261.977	33.79
262.193	-7.17
262.409	52.22
262.626	-17.41
262.842	23.55
263.058	-7.17
263.274	1.02
263.49	5.12
263.707	70.65
263.923	33.79
264.139	37.89
264.355	-1.02
264.571	93.18
264.787	64.51
265.004	39.94
265.22	-1.02
265.436	19.46
265.652	-15.36
265.868	1.02
266.084	76.8
266.3	-9.22
266.516	-23.55
266.732	50.18
266.948	76.8
267.164	84.99
267.38	84.99
267.596	62.46
267.812	84.99
268.028	64.51
268.244	35.84
268.46	121.85
268.676	9.22
268.892	95.23
269.108	19.46
269.324	7.17
269.54	3.07
269.756	60.42
269.972	15.36
270.188	31.74
270.403	31.74
270.619	93.18
270.835	117.76
271.051	41.98
271.267	-21.5
271.483	9.22
271.698	15.36
271.914	87.04
272.13	-17.41
272.346	-5.12
272.562	52.22
272.777	58.37
272.993	9.22
273.209	-46.08
273.425	82.94
273.64	-9.22
273.856	44.03
274.072	58.37
274.287	21.5
274.503	97.28
274.719	52.22
274.934	-15.36
275.15	91.13
275.366	7.17
275.581	-25.6
275.797	56.32
276.012	132.09
276.228	56.32
276.444	-35.84
276.659	44.03
276.875	-23.55
277.09	23.55
277.306	62.46
277.521	80.89
277.737	72.7
277.952	95.23
278.168	84.99
278.383	74.75
278.599	44.03
278.814	93.18
279.03	11.26
279.245	-5.12
279.461	-7.17
279.676	146.43
279.892	46.08
280.107	-39.94
280.322	44.03
280.538	68.61
280.753	70.65
280.969	111.61
281.184	11.26
281.399	62.46
281.615	44.03
281.83	27.65
282.045	-1.02
282.26	-72.7
282.476	50.18
282.691	97.28
282.906	29.7
283.122	46.08
283.337	23.55
283.552	109.57
283.767	80.89
283.983	15.36
284.198	84.99
284.413	101.37
284.628	-29.7
284.843	58.37
285.058	50.18
285.274	1.02
285.489	-9.22
285.704	103.42
285.919	52.22
286.134	-7.17
286.349	-13.31
286.564	70.65
286.779	107.52
286.995	1.02
287.21	-50.18
287.425	-9.22
287.64	-48.13
287.855	52.22
288.07	54.27
288.285	134.14
288.5	19.46
288.715	101.37
288.93	76.8
289.145	46.08
289.36	15.36
289.575	72.7
289.79	48.13
290.004	93.18
290.219	76.8
290.434	3.07
290.649	9.22
290.864	27.65
291.079	89.09
291.294	48.13
291.509	-39.94
291.724	17.41
291.938	60.42
292.153	27.65
292.368	37.89
292.583	50.18
292.798	87.04
293.012	44.03
293.227	3.07
293.442	5.12
293.657	87.04
293.871	87.04
294.086	39.94
294.301	89.09
294.516	21.5
294.73	52.22
294.945	13.31
295.16	33.79
295.374	125.95
295.589	41.98
295.804	62.46
296.018	58.37
296.233	87.04
296.447	97.28
296.662	68.61
296.877	39.94
297.091	66.56
297.306	44.03
297.52	132.09
297.735	93.18
297.949	123.9
298.164	-5.12
298.378	19.46
298.593	78.85
298.807	50.18
299.022	109.57
299.236	44.03
299.451	72.7
299.665	68.61
299.88	-5.12
300.094	111.61
300.309	60.42
300.523	64.51
300.737	54.27
300.952	171.01
301.166	84.99
301.381	19.46
301.595	64.51
301.809	1.02
302.024	76.8
302.238	1.02
302.452	48.13
302.667	58.37
302.881	103.42
303.095	60.42
303.309	62.46
303.524	11.26
303.738	103.42
303.952	23.55
304.166	39.94
304.381	13.31
304.595	138.24
304.809	84.99
305.023	76.8
305.237	11.26
305.452	5.12
305.666	78.85
305.88	64.51
306.094	21.5
306.308	62.46
306.522	50.18
306.736	115.71
306.95	39.94
307.164	41.98
307.379	39.94
307.593	93.18
307.807	91.13
308.021	54.27
308.235	48.13
308.449	29.7
308.663	5.12
308.877	87.04
309.091	7.17
309.305	64.51
309.519	11.26
309.733	27.65
309.947	-39.94
310.161	39.94
310.374	23.55
310.588	35.84
310.802	62.46
311.016	25.6
311.23	87.04
311.444	35.84
311.658	54.27
311.872	48.13
312.085	121.85
312.299	134.14
312.513	74.75
312.727	107.52
312.941	48.13
313.154	144.38
313.368	56.32
313.582	70.65
313.796	27.65
314.009	93.18
314.223	87.04
314.437	72.7
314.651	39.94
314.864	-15.36
315.078	29.7
315.292	-5.12
315.505	-27.65
315.719	103.42
315.933	-15.36
316.146	-9.22
316.36	9.22
316.573	72.7
316.787	103.42
317.001	91.13
317.214	3.07
317.428	103.42
317.641	76.8
317.855	39.94
318.068	117.76
318.282	27.65
318.495	117.76
318.709	72.7
318.922	-13.31
319.136	15.36
319.349	99.33
319.563	31.74
319.776	48.13
319.99	56.32
320.203	66.56
320.417	48.13
320.63	80.89
320.843	111.61
321.057	119.81
321.27	68.61
321.483	-15.36
321.697	74.75
321.91	99.33
322.124	27.65
322.337	41.98
322.55	-15.36
322.763	29.7
322.977	35.84
323.19	58.37
323.403	25.6
323.617	52.22
323.83	101.37
324.043	-29.7
324.256	72.7
324.469	48.13
324.683	84.99
324.896	3.07
325.109	119.81
325.322	52.22
325.535	35.84
325.748	-7.17
325.962	5.12
326.175	11.26
326.388	125.95
326.601	84.99
326.814	50.18
327.027	54.27
327.24	140.29
327.453	68.61
327.666	62.46
327.879	-15.36
328.092	-37.89
328.305	25.6
328.518	91.13
328.731	27.65
328.944	54.27
329.157	50.18
329.37	52.22
329.583	97.28
329.796	136.19
330.009	23.55
330.222	76.8
330.435	27.65
330.648	50.18
330.861	41.98
331.073	68.61
331.286	60.42
331.499	95.23
331.712	21.5
331.925	64.51
332.138	54.27
332.35	3.07
332.563	19.46
332.776	84.99
332.989	37.89
333.202	48.13
333.414	68.61
333.627	68.61
333.84	109.57
334.053	105.47
334.265	72.7
334.478	80.89
334.691	7.17
334.903	105.47
335.116	62.46
335.329	-21.5
335.541	91.13
335.754	140.29
335.966	11.26
336.179	19.46
336.392	70.65
336.604	136.19
336.817	50.18
337.029	84.99
337.242	95.23
337.454	52.22
337.667	72.7
337.88	125.95
338.092	50.18
338.305	58.37
338.517	58.37
338.729	66.56
338.942	37.89
339.154	23.55
339.367	33.79
339.579	35.84
339.792	-23.55
340.004	68.61
340.217	41.98
340.429	64.51
340.641	19.46
340.854	101.37
341.066	56.32
341.278	136.19
341.491	82.94
341.703	54.27
341.915	66.56
342.128	62.46
342.34	78.85
342.552	44.03
342.764	31.74
342.977	84.99
343.189	68.61
343.401	89.09
343.613	84.99
343.826	97.28
344.038	33.79
344.25	60.42
344.462	121.85
344.674	179.2
344.886	87.04
345.099	72.7
345.311	39.94
345.523	50.18
345.735	52.22
345.947	95.23
346.159	21.5
346.371	62.46
346.583	109.57
346.795	78.85
347.007	93.18
347.219	50.18
347.431	3.07
347.643	164.86
347.855	-15.36
348.067	74.75
348.279	19.46
348.491	48.13
348.703	68.61
348.915	-7.17
349.127	41.98
349.339	87.04
349.551	-31.74
349.763	87.04
349.975	17.41
350.187	66.56
350.399	115.71
350.61	15.36
350.822	52.22
351.034	56.32
351.246	113.66
351.458	72.7
351.669	60.42
351.881	-1.02
352.093	87.04
352.305	52.22
352.517	48.13
352.728	84.99
352.94	82.94
353.152	31.74
353.363	56.32
353.575	84.99
353.787	64.51
353.999	87.04
354.21	84.99
354.422	39.94
354.633	41.98
354.845	132.09
355.057	50.18
355.268	15.36
355.48	105.47
355.692	27.65
355.903	80.89
356.115	-23.55
356.326	72.7
356.538	97.28
356.749	74.75
356.961	136.19
357.172	54.27
357.384	23.55
357.595	48.13
357.807	23.55
358.018	44.03
358.23	82.94
358.441	29.7
358.653	62.46
358.864	87.04
359.075	11.26
359.287	27.65
359.498	56.32
359.709	52.22
359.921	31.74
360.132	31.74
360.344	33.79
360.555	52.22
360.766	62.46
360.977	41.98
361.189	99.33
361.4	15.36
361.611	52.22
361.823	33.79
362.034	27.65
362.245	25.6
362.456	74.75
362.667	74.75
362.879	48.13
363.09	87.04
363.301	62.46
363.512	-7.17
363.723	23.55
363.935	82.94
364.146	68.61
364.357	74.75
364.568	103.42
364.779	-41.98
364.99	97.28
365.201	68.61
365.412	103.42
365.623	58.37
365.834	175.1
366.045	136.19
366.256	35.84
366.467	125.95
366.678	107.52
366.889	60.42
367.1	13.31
367.311	136.19
367.522	27.65
367.733	44.03
367.944	115.71
368.155	46.08
368.366	21.5
368.577	105.47
368.788	93.18
368.999	64.51
369.209	72.7
369.42	105.47
369.631	125.95
369.842	44.03
370.053	60.42
370.264	105.47
370.474	-3.07
370.685	80.89
370.896	97.28
371.107	46.08
371.317	58.37
371.528	58.37
371.739	15.36
371.95	89.09
372.16	64.51
372.371	44.03
372.582	58.37
372.792	54.27
373.003	105.47
373.214	175.1
373.424	58.37
373.635	60.42
373.846	173.05
374.056	19.46
374.267	66.56
374.477	62.46
374.688	72.7
374.898	68.61
375.109	54.27
375.319	58.37
375.53	214.01
375.74	99.33
375.951	56.32
376.161	44.03
376.372	72.7
376.582	105.47
376.793	87.04
377.003	-1.02
377.214	-17.41
377.424	109.57
377.635	54.27
377.845	91.13
378.055	54.27
378.266	82.94
378.476	56.32
378.686	115.71
378.897	78.85
379.107	-9.22
379.317	82.94
379.528	35.84
379.738	82.94
379.948	62.46
380.158	15.36
380.369	101.37
380.579	60.42
380.789	56.32
380.999	84.99
381.21	37.89
381.42	68.61
381.63	52.22
381.84	115.71
382.05	113.66
382.261	117.76
382.471	93.18
382.681	144.38
382.891	52.22
383.101	50.18
383.311	72.7
383.521	64.51
383.731	31.74
383.941	130.05
384.151	84.99
384.361	37.89
384.571	64.51
384.781	70.65
384.991	130.05
385.201	150.53
385.411	64.51
385.621	132.09
385.831	99.33
386.041	107.52
386.251	125.95
386.461	107.52
386.671	52.22
386.881	93.18
387.091	111.61
387.301	113.66
387.511	142.33
387.72	138.24
387.93	107.52
388.14	39.94
388.35	29.7
388.56	171.01
388.769	175.1
388.979	56.32
389.189	72.7
389.399	91.13
389.609	175.1
389.818	164.86
390.028	123.9
390.238	60.42
390.447	33.79
390.657	109.57
390.867	84.99
391.076	101.37
391.286	82.94
391.496	76.8
391.705	76.8
391.915	132.09
392.125	56.32
392.334	101.37
392.544	128
392.753	117.76
392.963	3.07
393.172	97.28
393.382	39.94
393.591	150.53
393.801	128
394.01	115.71
394.22	105.47
394.429	52.22
394.639	132.09
394.848	197.63
395.058	146.43
395.267	56.32
395.477	152.57
395.686	132.09
395.895	109.57
396.105	246.78
396.314	125.95
396.524	125.95
396.733	160.77
396.942	138.24
397.152	171.01
397.361	125.95
397.57	142.33
397.78	95.23
397.989	111.61
398.198	173.05
398.407	211.96
398.617	95.23
398.826	101.37
399.035	91.13
399.244	195.58
399.453	189.44
399.663	142.33
399.872	171.01
400.081	76.8
400.29	150.53
400.499	156.67
400.708	162.81
400.917	84.99
401.127	197.63
401.336	134.14
401.545	158.72
401.754	183.29
401.963	101.37
402.172	146.43
402.381	185.34
402.59	87.04
402.799	144.38
403.008	252.92
403.217	144.38
403.426	269.31
403.635	166.91
403.844	158.72
404.053	244.73
404.262	105.47
404.471	216.06
404.68	195.58
404.888	201.72
405.097	142.33
405.306	287.74
405.515	244.73
405.724	207.87
405.933	205.82
406.142	250.88
406.35	318.46
406.559	244.73
406.768	267.26
406.977	277.5
407.185	310.27
407.394	314.36
407.603	257.02
407.812	320.51
408.02	300.03
408.229	306.17
408.438	250.88
408.646	254.97
408.855	263.16
409.064	326.65
409.272	386.04
409.481	435.19
409.69	383.99
409.898	375.8
410.107	451.58
410.315	531.45
410.524	406.52
410.733	445.43
410.941	392.19
411.15	420.86
411.358	513.02
411.567	613.37
411.775	551.93
411.984	590.84
412.192	562.17
412.401	687.09
412.609	703.48
412.818	633.85
413.026	623.61
413.234	703.48
413.443	791.54
413.651	752.63
413.86	723.96
414.068	824.31
414.276	850.93
414.485	689.14
414.693	922.61
414.901	930.8
415.11	965.62
415.318	973.81
415.526	1059.82
415.734	1047.54
415.943	1104.88
416.151	1143.79
416.359	1131.5
416.567	1082.35
416.776	1317.87
416.984	1244.14
417.192	1301.48
417.4	1299.44
417.608	1311.72
417.817	1422.31
418.025	1491.95
418.233	1518.57
418.441	1522.66
418.649	1612.78
418.857	1823.72
419.065	1768.42
419.273	1780.71
419.481	1938.4
419.689	1965.03
419.897	2108.38
420.105	2073.57
420.313	2188.25
420.521	2169.82
420.729	2372.57
420.937	2261.98
421.145	2309.08
421.353	2517.98
421.561	2593.75
421.769	2657.24
421.977	2847.7
422.185	2800.6
422.393	2919.38
422.601	3191.76
422.809	3158.99
423.017	3144.66
423.224	3199.95
423.432	3484.62
423.64	3359.69
423.848	3701.7
424.056	3728.33
424.263	4008.9
424.471	4019.14
424.679	4000.71
424.887	4225.98
425.094	4344.77
425.302	4203.46
425.51	4506.56
425.718	4694.97
425.925	4651.96
426.133	4926.39
426.341	5079.99
426.548	5348.27
426.756	5299.12
426.964	5555.12
427.171	5766.06
427.379	5954.47
427.586	5942.18
427.794	6214.56
428.001	6663.07
428.209	6652.83
428.417	6575
428.624	7160.72
428.832	7256.98
429.039	7080.85
429.247	7242.64
429.454	7854.98
429.662	8444.8
429.869	7791.5
430.076	8446.85
430.284	8264.58
430.491	8610.68
430.699	9116.53
430.906	9087.86
431.114	9200.5
431.321	9800.55
431.528	9706.35
431.736	10152.81
431.943	10761.05
432.15	10566.49
432.358	10462.05
432.565	11232.08
432.772	11279.19
432.979	11701.07
433.187	11746.12
433.394	12022.6
433.601	12794.68
433.808	12612.42
434.016	12663.61
434.223	13386.55
434.43	14177.06
434.637	13808.43
434.844	14615.33
435.052	15039.26
435.259	14895.9
435.466	14928.67
435.673	14668.58
435.88	15874.83
436.087	16694.02
436.294	16714.5
436.501	16343.81
436.708	16624.39
436.915	17072.89
437.122	17873.65
437.329	17824.5
437.537	18553.57
437.743	18954.97
437.95	18494.18
438.157	19688.15
438.364	20437.7
438.571	20220.62
438.778	20581.06
438.985	22571.69
439.192	21588.66
439.399	21959.34
439.606	21760.69
439.813	22940.32
440.02	24472.2
440.227	23816.85
440.433	23442.07
440.64	24472.2
440.847	24445.58
441.054	25105.02
441.261	26739.3
441.467	25975.41
441.674	26624.62
441.881	27359.84
442.088	27630.17
442.294	27736.66
442.501	28222.03
442.708	28615.24
442.914	29524.54
443.121	31113.77
443.328	30210.61
443.534	32373.27
443.741	31552.03
443.948	31207.97
444.154	33563.14
444.361	32899.59
444.568	33393.15
444.774	33223.17
444.981	33546.75
445.187	34845.16
445.394	36354.52
445.6	35703.26
445.807	38904.24
446.013	37267.91
446.22	38119.87
446.426	39215.53
446.633	39463.33
446.839	40753.55
447.046	39371.18
447.252	41523.59
447.459	41601.41
447.665	41146.76
447.871	43626.85
448.078	45113.68
448.284	42776.95
448.491	44095.84
448.697	45601.1
448.903	46711.1
449.11	46510.39
449.316	45498.7
449.522	46223.68
449.728	47706.41
449.935	48185.63
450.141	47966.5
450.347	49045.78
450.553	47212.85
450.76	47489.32
450.966	49506.57
451.172	48787.74
451.378	49598.73
451.584	48668.95
451.791	50155.78
451.997	49819.91
452.203	50452.73
452.409	50211.07
452.615	50010.37
452.821	48402.72
453.027	47927.59
453.233	50002.18
453.44	48259.36
453.646	48943.38
453.852	48861.46
454.058	49207.57
454.264	47724.84
454.47	48519.45
454.676	47194.42
454.882	49031.44
455.088	44607.83
455.294	45498.7
455.5	45572.42
455.705	46508.35
455.911	44396.89
456.117	43759.97
456.323	42709.36
456.529	40954.26
456.735	42348.92
456.941	41320.84
457.147	40315.29
457.352	39506.34
457.558	38724.02
457.764	38861.23
457.97	37929.41
458.176	37403.08
458.381	37206.47
458.587	35406.31
458.793	35568.1
458.999	33675.77
459.204	36336.09
459.41	34922.99
459.616	32340.5
459.821	32608.78
460.027	32021.02
460.233	31697.44
460.438	30239.28
460.644	30515.76
460.85	28944.97
461.055	28850.76
461.261	28428.88
461.466	26536.56
461.672	25633.4
461.878	27619.93
462.083	26071.67
462.289	25612.92
462.494	25010.82
462.7	24275.6
462.905	23261.85
463.111	24304.27
463.316	23972.5
463.522	23569.05
463.727	23786.13
463.932	23753.37
464.138	23470.75
464.343	23706.26
464.549	23061.15
464.754	23646.87
464.959	23454.36
465.165	23401.11
465.37	22203.05
465.575	21930.67
465.781	22657.7
465.986	23005.86
466.191	22010.54
466.397	21512.89
466.602	20705.99
466.807	21379.77
467.012	21473.98
467.218	21217.98
467.423	20912.83
467.628	21465.78
467.833	21725.88
468.038	21209.79
468.244	20439.75
468.449	21619.38
468.654	20554.44
468.859	20712.13
469.064	20558.53
469.269	19548.89
469.474	19581.65
469.679	20398.79
469.885	19391.19
470.09	19782.35
470.295	19624.66
470.5	19131.1
470.705	19243.74
470.91	18807.52
471.115	18598.63
471.32	19049.18
471.525	18885.34
471.73	18291.43
471.935	18402.02
472.139	17437.43
472.344	17818.35
472.549	17756.91
472.754	17550.07
472.959	17056.51
473.164	16706.31
473.369	16603.91
473.574	17136.38
473.778	16976.64
473.983	16732.93
474.188	16390.92
474.393	15936.27
474.598	16288.52
474.802	15807.25
475.007	15848.21
475.212	15821.58
475.417	15051.55
475.621	15389.46
475.826	15358.74
476.031	14904.09
476.235	14811.93
476.44	15061.79
476.645	14459.68
476.849	14715.68
477.054	14453.54
477.259	14543.65
477.463	14279.46
477.668	14002.99
477.872	14068.52
478.077	13849.39
478.282	13636.4
478.486	13671.22
478.691	13656.88
478.895	13497.14
479.1	13169.46
479.304	13204.28
479.509	12972.86
479.713	13208.37
479.918	12942.14
480.122	12755.77
480.326	12901.18
480.531	13108.02
480.735	12710.72
480.94	12704.57
481.144	12976.95
481.348	12376.9
481.553	12432.19
481.757	12245.83
481.961	12753.73
482.166	12929.85
482.37	12665.66
482.574	12200.77
482.778	12495.68
482.983	12614.46
483.187	12655.42
483.391	12569.41
483.595	12479.3
483.8	12346.18
484.004	12378.95
484.208	12649.28
484.412	12573.5
484.616	12475.2
484.821	12565.31
485.025	12211.01
485.229	12507.97
485.433	12354.37
485.637	12309.32
485.841	12284.74
486.045	12256.07
486.249	12376.9
486.453	12311.36
486.657	12567.36
486.861	12626.75
487.065	12235.59
487.269	12413.76
487.473	12260.16
487.677	12612.42
487.881	12514.11
488.085	12446.53
488.289	12626.75
488.493	12618.56
488.697	12653.37
488.901	12581.7
489.105	12854.08
489.309	12688.19
489.512	12821.31
489.716	12778.3
489.92	12614.46
490.124	12555.07
490.328	13007.67
490.531	12526.4
490.735	12866.36
490.939	12974.91
491.143	12628.8
491.346	12659.52
491.55	13060.92
491.754	12907.32
491.958	13196.09
492.161	13179.7
492.365	13142.84
492.569	12960.57
492.772	13278.01
492.976	13353.78
493.18	13390.64
493.383	13536.05
493.587	13736.75
493.79	13871.92
493.994	13650.74
494.197	13749.04
494.401	14011.18
494.605	14029.61
494.808	14129.96
495.012	14314.28
495.215	14125.86
495.419	14658.34
495.622	14447.4
495.825	14779.17
496.029	14703.39
496.232	14940.96
496.436	14963.48
496.639	15383.32
496.843	15244.06
497.046	15561.49
497.249	15645.46
497.453	15735.57
497.656	16001.8
497.859	15739.66
498.063	16233.22
498.266	16614.15
498.469	16411.4
498.673	16519.94
498.876	16894.72
499.079	17214.2
499.282	16864
499.485	17498.87
499.689	17593.08
499.892	17572.6
500.095	17894.13
500.298	18164.46
500.501	18123.5
500.705	18647.78
500.908	18916.06
501.111	19010.27
501.314	19145.44
501.517	19557.08
501.72	19804.88
501.923	19466.97
502.126	20116.17
502.329	20189.9
502.532	20400.84
502.735	20933.31
502.938	21170.88
503.141	20957.89
503.344	21203.64
503.547	21783.22
503.75	21914.29
503.953	22364.84
504.156	22510.25
504.359	22256.3
504.562	22878.88
504.765	23145.12
504.968	23474.84
505.17	23648.92
505.373	23702.17
505.576	24169.1
505.779	24744.58
505.982	24531.59
506.185	24953.48
506.387	24924.8
506.59	25465.47
506.793	25739.9
506.996	25739.9
507.198	26548.84
507.401	26172.02
507.604	26735.21
507.807	27175.52
508.009	27476.57
508.212	27499.1
508.415	27841.11
508.617	28103.25
508.82	28349.01
509.022	28164.69
509.225	28897.86
509.428	29063.75
509.63	29485.63
509.833	29524.54
510.035	30407.22
510.238	30054.97
510.44	30270
510.643	30829.1
510.845	31324.71
511.048	31017.51
511.25	31545.89
511.453	31754.78
511.655	32975.37
511.858	32281.11
512.06	33038.86
512.262	33325.57
512.465	33301
512.667	33894.91
512.87	34202.1
513.072	34218.49
513.274	35293.67
513.477	35144.17
513.679	35385.83
513.881	35946.97
514.084	36286.93
514.286	36098.52
514.488	36493.78
514.69	37669.31
514.893	37407.17
515.095	37607.87
515.297	38365.62
515.499	38431.16
515.701	38861.23
515.904	38941.1
516.106	39385.51
516.308	39723.43
516.51	40221.08
516.712	40513.94
516.914	40862.1
517.116	41070.99
517.318	41693.57
517.52	41603.46
517.722	41720.2
517.925	42469.75
518.127	43155.82
518.329	43434.35
518.531	42998.13
518.733	44153.18
518.935	44144.99
519.136	44224.86
519.338	45173.07
519.54	44880.21
519.742	45560.14
519.944	45807.94
520.146	46926.13
520.348	46768.44
520.55	46643.51
520.752	47403.31
520.954	47853.86
521.155	47337.77
521.357	48406.81
521.559	48550.17
521.761	49516.81
521.963	48929.05
522.164	49805.58
522.366	49838.34
522.568	49971.46
522.77	50037
522.971	51173.62
523.173	50761.98
523.375	51478.77
523.576	51753.19
523.778	51359.98
523.98	52326.63
524.181	52646.11
524.383	52605.15
524.584	53031.13
524.786	53113.05
524.988	53022.93
525.189	53592.27
525.391	53928.14
525.592	54546.62
525.794	54726.84
525.995	54571.2
526.197	54556.86
526.398	55122.1
526.6	55034.04
526.801	55169.21
527.003	55443.63
527.204	55367.86
527.406	56146.09
527.607	56152.23
527.808	56584.35
528.01	56053.93
528.211	56395.94
528.412	57751.69
528.614	56789.15
528.815	57292.95
529.016	57581.71
529.218	57024.67
529.419	57618.58
529.62	57309.33
529.822	57626.77
530.023	57606.29
530.224	57569.43
530.425	57546.9
530.626	57712.78
530.828	57776.27
531.029	58939.52
531.23	58136.71
531.431	58675.33
531.632	58531.97
531.833	58822.78
532.035	58497.16
532.236	58761.34
532.437	59150.46
532.638	58419.33
532.839	58978.43
533.04	59205.75
533.241	58374.28
533.442	59338.87
533.643	59119.74
533.844	59261.05
534.045	59302.01
534.246	58853.5
534.447	59529.33
534.648	59431.03
534.849	59449.46
535.05	59033.72
535.251	59408.5
535.451	59043.96
535.652	59445.36
535.853	59527.28
536.054	59797.62
536.255	59560.05
536.456	58837.12
536.657	60196.97
536.857	59023.48
537.058	59146.36
537.259	59809.9
537.46	59687.03
537.66	59457.65
537.861	59818.1
538.062	59060.35
538.263	59461.75
538.463	59093.11
538.664	59080.83
538.865	59476.08
539.065	59504.76
539.266	58962.04
539.466	59959.41
539.667	59097.21
539.868	60006.51
540.068	59267.19
540.269	59150.46
540.469	59906.16
540.67	59101.31
540.87	59418.74
541.071	59476.08
541.271	59703.41
541.472	59224.18
541.672	59308.15
541.873	59261.05
542.073	58562.69
542.274	59654.26
542.474	58851.45
542.675	59170.94
542.875	59230.33
543.075	59134.07
543.276	58200.2
543.476	59719.79
543.676	59103.35
543.877	59385.97
544.077	58767.49
544.277	59150.46
544.478	58919.04
544.678	59095.16
544.878	58863.74
545.078	59023.48
545.279	58916.99
545.479	58611.84
545.679	59162.75
545.879	58964.09
546.079	59039.87
546.28	59213.94
546.48	58658.94
546.68	59140.22
546.88	58890.37
547.08	59072.63
547.28	58757.25
547.48	58278.02
547.68	58802.3
547.88	58097.8
548.081	58869.89
548.281	58605.7
548.481	58663.04
548.681	58855.55
548.881	59039.87
549.081	58368.13
549.28	58331.27
549.48	58953.85
549.68	58568.83
549.88	59181.18
550.08	58331.27
550.28	58552.45
550.48	58437.76
550.68	58796.16
550.88	58169.48
551.08	58497.16
551.279	58579.07
551.479	58024.07
551.679	58222.73
551.879	58548.35
552.079	58290.31
552.278	58491.01
552.478	57993.36
552.678	58089.61
552.878	58398.85
553.077	58255.5
553.277	57925.77
553.477	58826.88
553.676	58400.9
553.876	58232.97
554.076	57780.37
554.275	57548.95
554.475	57528.47
554.674	58151.05
554.874	57991.31
555.074	57858.19
555.273	58134.66
555.473	57958.54
555.672	57798.8
555.872	57929.87
556.071	57594
556.271	57774.22
556.47	57389.2
556.67	57196.7
556.869	57495.7
557.068	57903.24
557.268	56981.66
557.467	57360.53
557.667	56828.06
557.866	57446.55
558.065	57098.39
558.265	56783.01
558.464	56754.33
558.663	57372.82
558.863	56783.01
559.062	57307.29
559.261	56707.23
559.461	57591.95
559.66	56096.94
559.859	56662.18
560.058	56246.44
560.258	56668.32
560.457	55849.13
560.656	56332.45
560.855	56303.78
561.054	56737.95
561.253	55578.8
561.453	55777.45
561.652	56139.94
561.851	55955.63
562.05	55636.14
562.249	55822.51
562.448	55906.47
562.647	55570.61
562.846	55668.91
563.045	55365.81
563.244	54831.29
563.443	55500.98
563.642	54616.25
563.841	55161.01
564.04	54835.39
564.239	55294.13
564.438	54352.07
564.637	54862.01
564.836	54907.07
565.035	54100.17
565.234	54280.39
565.432	54094.02
565.631	53678.28
565.83	54227.14
566.029	54059.21
566.228	53491.92
566.427	53510.35
566.625	53448.91
566.824	52859.1
567.023	53686.48
567.222	52564.19
567.42	53461.2
567.619	53170.39
567.818	52924.63
568.016	52508.89
568.215	53362.9
568.414	52351.2
568.612	52840.67
568.811	52728.03
569.01	52670.68
569.208	51685.61
569.407	52592.86
569.605	51876.07
569.804	51732.71
570.002	51384.56
570.201	52009.19
570.4	51419.38
570.598	51294.45
570.797	51529.97
570.995	51460.33
571.193	50626.81
571.392	51255.54
571.59	50913.53
571.789	50614.52
571.987	50340.1
572.186	50737.4
572.384	50243.84
572.582	50561.28
572.781	49842.44
572.979	49719.56
573.177	50135.3
573.376	49807.62
573.574	49647.88
573.772	49912.07
573.971	49639.69
574.169	49348.88
574.367	49125.65
574.565	49373.45
574.763	48916.76
574.962	49066.26
575.16	48730.39
575.358	49197.33
575.556	48050.47
575.754	49066.26
575.952	47698.22
576.151	48877.85
576.349	47808.81
576.547	47857.96
576.745	47952.16
576.943	48148.77
577.141	47589.67
577.339	47632.68
577.537	47284.53
577.735	47429.93
577.933	46975.28
578.131	47214.9
578.329	46903.6
578.527	46739.77
578.725	47182.13
578.923	47055.15
579.121	46289.21
579.319	46633.27
579.516	46733.62
579.714	46072.13
579.912	46262.59
580.11	46029.12
580.308	46250.3
580.506	46012.74
580.704	45496.65
580.901	45742.41
581.099	46315.84
581.297	45427.02
581.495	45236.56
581.692	45240.65
581.89	44925.27
582.088	45257.04
582.285	45103.44
582.483	45056.34
582.681	44558.68
582.878	44355.93
583.076	44353.88
583.274	44669.27
583.471	44093.79
583.669	44188
583.866	43909.47
584.064	44319.07
584.262	43381.1
584.459	43841.89
584.657	43442.54
584.854	43684.2
585.052	42688.88
585.249	43155.82
585.447	43297.13
585.644	42604.92
585.841	42727.8
586.039	43200.88
586.236	42914.16
586.434	42568.05
586.631	42115.45
586.828	42275.19
587.026	42150.27
587.223	42123.65
587.42	41857.41
587.618	42049.92
587.815	41720.2
588.012	41550.21
588.21	41480.58
588.407	41992.58
588.604	41175.44
588.801	41070.99
588.999	41259.4
589.196	41359.75
589.393	41435.53
589.59	40745.36
589.787	40407.45
589.984	40378.78
590.182	40288.67
590.379	40667.54
590.576	40223.13
590.773	40440.21
590.97	40106.4
591.167	40118.68
591.364	39815.58
591.561	39707.04
591.758	39186.86
591.955	39608.74
592.152	39252.39
592.349	39084.46
592.546	39424.42
592.743	38859.18
592.94	38418.87
593.137	39066.03
593.334	38959.53
593.531	38584.76
593.727	38846.9
593.924	38818.22
594.121	38109.63
594.318	38298.04
594.515	37648.83
594.712	37747.14
594.908	37855.68
595.105	38021.56
595.302	37327.3
595.499	37724.61
595.696	37251.53
595.892	37288.39
596.089	37648.83
596.286	37478.85
596.482	37198.28
596.679	37116.36
596.876	36874.7
597.072	36782.54
597.269	36886.99
597.466	36516.31
597.662	36301.27
597.859	36286.93
598.055	36286.93
598.252	36188.63
598.448	35992.03
598.645	35717.6
598.841	35529.19
599.038	35582.43
599.234	35797.47
599.431	35336.68
599.627	35158.5
599.824	35260.9
600.02	35074.54
600.217	35201.51
600.413	34785.77
600.609	34927.08
600.806	34963.95
601.002	34822.64
601.198	34746.86
601.395	34259.45
601.591	34189.81
601.787	34359.8
601.984	34228.73
602.18	34554.35
602.376	34034.17
602.572	33538.56
602.769	33925.63
602.965	33311.24
603.161	33421.83
603.357	33438.21
603.553	33296.9
603.75	33411.59
603.946	33137.16
604.142	33237.51
604.338	32395.79
604.534	32961.03
604.73	32522.77
604.926	32756.24
605.122	32760.33
605.318	32338.45
605.514	32469.52
605.71	32449.04
605.906	32182.8
606.102	32084.5
606.298	32193.04
606.494	31990.3
606.69	32100.89
606.886	32147.99
607.082	31261.22
607.278	31797.79
607.474	31373.86
607.67	31916.57
607.866	31283.75
608.062	31556.13
608.257	31267.36
608.453	31298.08
608.649	31449.63
608.845	30935.59
609.041	31015.46
609.236	31138.34
609.432	30818.86
609.628	30706.22
609.824	30904.87
610.019	30396.98
610.215	30298.67
610.411	30575.15
610.606	30110.26
610.802	30212.66
610.998	30280.24
611.193	30263.86
611.389	30040.63
611.584	29975.09
611.78	29966.9
611.976	29862.46
612.171	30061.11
612.367	29897.27
612.562	29454.91
612.758	29327.94
612.953	29209.15
613.149	30190.13
613.344	29114.95
613.539	29725.24
613.735	29626.94
613.93	29452.86
614.126	29282.88
614.321	29618.75
614.517	29479.49
614.712	29012.55
614.907	29270.59
615.103	29104.71
615.298	29211.2
615.493	29160
615.688	28502.61
615.884	29512.25
616.079	28555.85
616.274	28957.25
616.47	28699.21
616.665	28510.8
616.86	28619.34
617.055	28361.3
617.25	28353.1
617.445	28660.3
617.641	27953.75
617.836	28262.99
618.031	27660.89
618.226	28062.29
618.421	27779.67
618.616	27734.62
618.811	27456.09
619.006	28011.09
619.201	27519.58
619.396	27689.56
619.591	27157.09
619.786	27400.8
619.981	26808.93
620.176	27052.64
620.371	26577.51
620.566	27034.21
620.761	26622.57
620.956	26665.58
621.151	26249.84
621.346	26477.16
621.541	26083.95
621.735	26446.44
621.93	25784.95
622.125	25969.27
622.32	25569.91
622.515	25553.53
622.709	25475.71
622.904	25473.66
623.099	25094.79
623.294	25334.4
623.488	25080.45
623.683	24984.19
623.878	24443.53
624.072	24375.95
624.267	24455.82
624.462	24214.16
624.656	23909.01
624.851	24492.68
625.046	23794.32
625.24	23634.58
625.435	23417.5
625.629	23470.75
625.824	23118.5
626.018	23083.68
626.213	22598.31
626.407	23112.35
626.602	22532.78
626.796	22788.77
626.991	22715.05
627.185	22526.63
627.38	22405.8
627.574	22241.96
627.768	22332.08
627.963	22061.74
628.157	21813.94
628.352	22094.51
628.546	21435.06
628.74	21801.65
628.935	21484.22
629.129	21514.94
629.323	21267.13
629.517	21082.81
629.712	20961.98
629.906	20859.59
630.1	20685.51
630.294	20775.62
630.489	20329.16
630.683	20267.72
630.877	20021.97
631.071	20255.43
631.265	20288.2
631.459	19604.18
631.653	19688.15
631.848	19860.18
632.042	19561.17
632.236	19788.5
632.43	19215.07
632.624	19360.47
632.818	19221.21
633.012	18975.45
633.206	19026.65
633.4	19081.95
633.594	18506.47
633.788	18703.07
633.982	18606.82
634.176	18690.79
634.369	18416.36
634.563	18197.23
634.757	17996.53
634.951	18127.6
635.145	18053.87
635.339	17693.43
635.533	17687.28
635.726	18000.62
635.92	17386.23
636.114	17359.61
636.308	17498.87
636.501	17507.06
636.695	17427.19
636.889	17085.18
637.083	17169.15
637.276	17081.08
637.47	16870.14
637.664	16939.77
637.857	16450.31
638.051	16464.64
638.244	16634.63
638.438	16444.17
638.632	16106.25
638.825	16055.05
639.019	15973.13
639.212	16132.87
639.406	15723.28
639.599	15813.39
639.793	15971.08
639.986	15446.8
640.18	15717.14
640.373	15719.18
640.567	15149.85
640.76	15358.74
640.954	15139.61
641.147	15217.43
641.34	14975.77
641.534	14986.01
641.727	14738.21
641.92	14553.89
642.114	14658.34
642.307	14705.44
642.5	14660.38
642.694	14396.2
642.887	14170.92
643.08	14535.46
643.273	14138.15
643.467	14326.57
643.66	14052.14
643.853	13847.34
644.046	13740.85
644.239	13855.53
644.432	13656.88
644.626	13558.58
644.819	13450.03
645.012	13429.56
645.205	13261.62
645.398	13466.42
645.591	12974.91
645.784	13353.78
645.977	13046.58
646.17	13120.31
646.363	13036.35
646.556	12856.12
646.749	12909.37
646.942	12829.5
647.135	12657.47
647.328	12641.09
647.521	12503.87
647.714	12348.23
647.907	12430.15
648.099	12389.19
648.292	12325.7
648.485	12378.95
648.678	12235.59
648.871	11881.29
649.064	12075.85
649.256	12061.51
649.449	11971.4
649.642	11860.81
649.835	11666.25
650.027	11764.56
650.22	11684.69
650.413	11549.52
650.605	11586.38
650.798	11539.28
650.991	11406.16
651.183	11043.67
651.376	11477.84
651.568	11271
651.761	10804.06
651.954	10900.31
652.146	10969.94
652.339	10912.6
652.531	10773.34
652.724	10842.97
652.916	10543.97
653.109	10855.26
653.301	10802.01
653.494	10634.08
653.686	10429.28
653.879	10482.53
654.071	10515.3
654.263	10275.68
654.456	10269.54
654.648	10384.23
654.84	10087.27
655.033	10326.88
655.225	10167.14
655.417	10109.8
655.61	10040.17
655.802	10099.56
655.994	9673.58
656.186	9796.46
656.379	9728.88
656.571	9763.69
656.763	9700.2
656.955	9599.85
657.148	9571.18
657.34	9522.03
657.532	9448.3
657.724	9513.84
657.916	9440.11
658.108	9290.61
658.3	9216.88
658.492	9169.78
658.684	9040.76
658.876	9110.39
659.068	9030.52
659.26	9083.77
659.452	9040.76
659.644	8915.83
659.836	8799.1
660.028	8864.63
660.22	8670.08
660.412	8575.87
660.604	8741.75
660.796	8721.27
660.988	8584.06
661.18	8436.61
661.372	8496
661.563	8629.12
661.755	8561.53
661.947	8489.85
662.139	8283.01
662.331	8293.25
662.522	8162.18
662.714	8317.83
662.906	8115.08
663.097	8055.69
663.289	8108.93
663.481	7867.27
663.673	8092.55
663.864	7893.9
664.056	7969.67
664.247	7891.85
664.439	7803.78
664.631	8016.77
664.822	7885.7
665.014	7695.24
665.205	7549.84
665.397	7746.44
665.588	7682.95
665.78	7523.21
665.971	7455.63
666.163	7580.56
666.354	7375.76
666.546	7265.17
666.737	7265.17
666.929	7512.97
667.12	7502.73
667.311	7283.6
667.503	7226.26
667.694	7265.17
667.885	7207.83
668.077	7222.16
668.268	7093.14
668.459	6998.93
668.651	7066.52
668.842	7078.8
669.033	6982.55
669.224	6982.55
669.416	6925.21
669.607	6763.42
669.798	6802.33
669.989	6804.38
670.18	6755.22
670.371	6837.14
670.563	6638.49
670.754	6583.2
670.945	6671.26
671.136	6718.36
671.327	6800.28
671.518	6611.87
671.709	6587.29
671.9	6753.18
672.091	6579.1
672.282	6335.39
672.473	6523.8
672.664	6343.58
672.855	6378.4
673.046	6427.55
673.237	6462.37
673.428	6562.72
673.619	6386.59
673.809	6314.91
674	6257.57
674.191	6290.34
674.382	6173.6
674.573	6204.32
674.764	6202.27
674.954	6146.98
675.145	6130.59
675.336	6155.17
675.527	6013.86
675.717	6138.79
675.908	6056.87
676.099	6046.63
676.289	6046.63
676.48	5866.41
676.671	5815.21
676.861	5895.08
677.052	5925.8
677.243	5694.38
677.433	5944.23
677.624	5874.6
677.814	5761.96
678.005	5770.15
678.195	5786.54
678.386	5735.34
678.576	5655.47
678.767	5686.19
678.957	5764.01
679.148	5872.55
679.338	5739.43
679.529	5655.47
679.719	5548.97
679.909	5618.6
680.1	5634.99
680.29	5632.94
680.481	5530.54
680.671	5573.55
680.861	5649.32
681.052	5551.02
681.242	5647.27
681.432	5782.44
681.622	5448.62
681.813	5618.6
682.003	5577.64
682.193	5411.76
682.383	5483.44
682.573	5475.24
682.764	5497.77
682.954	5483.44
683.144	5520.3
683.334	5323.69
683.524	5364.65
683.714	5329.84
683.904	5393.33
684.094	5444.52
684.284	5426.09
684.474	5465
684.664	5333.93
684.854	5262.26
685.044	5333.93
685.234	5254.06
685.424	5077.94
685.614	5231.54
685.804	5166
685.994	5147.57
686.184	4961.2
686.374	5036.98
686.564	5196.72
686.753	5147.57
686.943	5254.06
687.133	5063.6
687.323	4944.82
687.513	5106.61
687.702	5067.7
687.892	4942.77
688.082	4901.81
688.272	4912.05
688.461	5077.94
688.651	4948.92
688.841	4819.89
689.03	4944.82
689.22	4887.48
689.41	4766.65
689.599	4869.05
689.789	4836.28
689.979	4645.82
690.168	4760.5
690.358	4654.01
690.547	4662.2
690.737	4682.68
690.926	4811.7
691.116	4746.17
691.305	4613.05
691.495	4576.19
691.684	4567.99
691.874	4555.71
692.063	4570.04
692.252	4524.99
692.442	4641.72
692.631	4412.35
692.82	4541.37
693.01	4494.27
693.199	4371.39
693.388	4340.67
693.578	4570.04
693.767	4395.96
693.956	4291.52
694.146	4455.36
694.335	4553.66
694.524	4295.61
694.713	4359.1
694.902	4254.66
695.092	4293.57
695.281	4412.35
695.47	4379.58
695.659	4314.05
695.848	4381.63
696.037	4244.42
696.226	4291.52
696.415	4295.61
696.604	4275.13
696.793	4273.09
696.982	4400.06
697.171	4340.67
697.36	4275.13
697.549	4289.47
697.738	4258.75
697.927	4082.63
698.116	4336.57
698.305	4062.15
698.494	4228.03
698.683	4228.03
698.872	4238.27
699.061	4035.52
699.25	4189.12
699.438	4189.12
699.627	4049.86
699.816	4254.66
700.005	4283.33
700.193	4205.5
700.382	4223.94
700.571	4275.13
700.76	4197.31
700.948	4230.08
701.137	4033.47
701.326	4156.35
701.514	4076.48
701.703	4123.59
701.892	4125.63
702.08	4193.22
702.269	4287.42
702.457	4158.4
702.646	4144.06
702.834	4125.63
703.023	4152.26
703.212	4109.25
703.4	4060.1
703.589	4080.58
703.777	4025.28
703.965	4152.26
704.154	4211.65
704.342	4084.67
704.531	4111.3
704.719	4099.01
704.907	4152.26
705.096	4021.19
705.284	4180.93
705.472	4047.81
705.661	4008.9
705.849	4031.43
706.037	4105.15
706.226	4068.29
706.414	4209.6
706.602	4025.28
706.79	4115.39
706.979	4090.82
707.167	4070.34
707.355	4051.91
707.543	4172.74
707.731	4205.5
707.919	4064.19
708.107	3990.47
708.296	3933.12
708.484	3898.31
708.672	4070.34
708.86	4150.21
709.048	4070.34
709.236	4045.76
709.424	4056
709.612	4170.69
709.8	4060.1
709.988	4084.67
710.176	4064.19
710.364	4076.48
710.551	3906.5
710.739	3990.47
710.927	4223.94
711.115	4113.35
711.303	3959.75
711.491	3986.37
711.679	3965.89
711.866	4023.23
712.054	3937.22
712.242	3996.61
712.43	4039.62
712.617	3951.56
712.805	3926.98
712.993	4060.1
713.181	3947.46
713.368	4090.82
713.556	4074.43
713.744	3912.64
713.931	4072.39
714.119	3939.27
714.306	3980.23
714.494	3935.17
714.682	3892.16
714.869	3984.32
715.057	4029.38
715.244	4017.09
715.432	4000.71
715.619	3982.28
715.807	3943.36
715.994	3994.56
716.182	4101.06
716.369	4043.71
716.556	4019.14
716.744	4090.82
716.931	3888.07
717.119	4053.95
717.306	4066.24
717.493	4000.71
717.681	4023.23
717.868	3961.8
718.055	3996.61
718.242	3926.98
718.43	4029.38
718.617	4029.38
718.804	4017.09
718.991	4017.09
719.179	4058.05
719.366	4002.75
719.553	3996.61
719.74	3802.05
719.927	3957.7
720.114	3804.1
720.301	3724.23
720.488	3857.35
720.676	4045.76
720.863	3994.56
721.05	3922.88
721.237	3855.3
721.424	3881.92
721.611	3843.01
721.798	3886.02
721.985	3937.22
722.172	3793.86
722.358	3847.11
722.545	3935.17
722.732	3808.2
722.919	3941.32
723.106	3812.29
723.293	3787.72
723.48	3900.36
723.667	3892.16
723.853	3701.7
724.04	3877.83
724.227	3822.53
724.414	3869.64
724.6	3650.5
724.787	3976.13
724.974	3906.5
725.161	4084.67
725.347	3853.25
725.534	3840.97
725.72	3699.66
725.907	3763.14
726.094	3826.63
726.28	3750.85
726.467	3775.43
726.653	3797.96
726.84	3748.81
727.027	3922.88
727.213	3660.74
727.4	3800.01
727.586	3851.21
727.773	3824.58
727.959	3765.19
728.145	3681.22
728.332	3759.05
728.518	3673.03
728.705	3750.85
728.891	3787.72
729.077	3720.14
729.264	3648.46
729.45	3711.94
729.636	3847.11
729.823	3691.46
730.009	3834.82
730.195	3812.29
730.382	3736.52
730.568	3607.5
730.754	3654.6
730.94	3611.59
731.126	3693.51
731.313	3761.09
731.499	3578.83
731.685	3738.57
731.871	3599.31
732.057	3507.15
732.243	3632.07
732.429	3611.59
732.615	3648.46
732.801	3599.31
732.987	3638.22
733.173	3693.51
733.359	3613.64
733.545	3548.11
733.731	3529.67
733.917	3447.76
734.103	3650.5
734.289	3537.87
734.475	3429.32
734.661	3584.97
734.847	3546.06
735.033	3589.07
735.219	3570.63
735.404	3400.65
735.59	3531.72
735.776	3617.74
735.962	3447.76
736.148	3501
736.333	3410.89
736.519	3412.94
736.705	3474.38
736.89	3378.12
737.076	3427.28
737.262	3337.17
737.447	3425.23
737.633	3374.03
737.819	3451.85
738.004	3414.99
738.19	3441.61
738.375	3398.6
738.561	3417.04
738.747	3408.84
738.932	3351.5
739.118	3345.36
739.303	3300.3
739.489	3279.82
739.674	3320.78
739.859	3275.73
740.045	3374.03
740.23	3257.29
740.416	3165.14
740.601	3460.04
740.786	3271.63
740.972	3236.81
741.157	3216.33
741.342	3167.18
741.528	3179.47
741.713	3306.45
741.898	3185.62
742.084	3101.65
742.269	3267.53
742.454	3236.81
742.639	3130.32
742.824	3118.03
743.01	3120.08
743.195	3087.31
743.38	3040.21
743.565	3183.57
743.75	2943.96
743.935	2948.05
744.12	3038.16
744.305	2982.87
744.49	2905.04
744.675	2923.48
744.86	3025.87
745.045	3019.73
745.23	3060.69
745.415	2919.38
745.6	3062.74
745.785	2743.25
745.97	2933.72
746.155	2915.28
746.34	2782.17
746.525	2794.45
746.71	2710.49
746.895	2800.6
747.079	2771.93
747.264	2702.29
747.449	2812.89
747.634	2630.62
747.819	2640.86
748.003	2696.15
748.188	2698.2
748.373	2591.7
748.557	2644.95
748.742	2472.92
748.927	2575.32
749.111	2610.14
749.296	2493.4
749.481	2542.55
749.665	2532.31
749.85	2456.54
750.034	2444.25
750.219	2526.17
750.404	2483.16
750.588	2452.44
750.773	2331.61
750.957	2409.44
751.141	2374.62
751.326	2350.04
751.51	2378.72
751.695	2384.86
751.879	2237.41
752.064	2382.81
752.248	2302.94
752.432	2251.74
752.617	2452.44
752.801	2206.69
752.985	2245.6
753.17	2096.1
753.354	2161.63
753.538	2104.29
753.722	2106.34
753.907	2145.25
754.091	2110.43
754.275	2096.1
754.459	2051.04
754.643	2008.03
754.828	2034.66
755.012	2077.66
755.196	1926.11
755.38	2044.9
755.564	2096.1
755.748	1917.92
755.932	1942.5
756.116	1950.69
756.3	1967.07
756.484	1913.83
756.668	1944.55
756.852	1942.5
757.036	1973.22
757.22	1885.16
757.404	1805.28
757.588	1784.8
757.772	1891.3
757.956	1778.66
758.14	1971.17
758.323	1743.85
758.507	1854.44
758.691	1725.41
758.875	1772.52
759.059	1793
759.242	1700.84
759.426	1768.42
759.61	1672.17
759.794	1827.81
759.977	1657.83
760.161	1719.27
760.345	1649.64
760.528	1625.06
760.712	1657.83
760.895	1747.94
761.079	1680.36
761.263	1596.39
761.446	1618.92
761.63	1526.76
761.813	1649.64
761.997	1526.76
762.18	1653.73
762.364	1526.76
762.547	1453.03
762.731	1584.1
762.914	1582.06
763.098	1465.32
763.281	1450.99
763.464	1477.61
763.648	1547.24
763.831	1506.28
764.015	1436.65
764.198	1491.95
764.381	1518.57
764.564	1520.62
764.748	1559.53
764.931	1416.17
765.114	1516.52
765.297	1522.66
765.481	1397.74
765.664	1498.09
765.847	1428.46
766.03	1346.54
766.213	1485.8
766.397	1508.33
766.58	1481.71
766.763	1403.88
766.946	1303.53
767.129	1426.41
767.312	1438.7
767.495	1342.44
767.678	1397.74
767.861	1373.16
768.044	1383.4
768.227	1420.27
768.41	1432.55
768.593	1453.03
768.776	1319.92
768.959	1362.92
769.142	1299.44
769.324	1313.77
769.507	1219.57
769.69	1387.5
769.873	1281
770.056	1346.54
770.239	1289.2
770.421	1389.55
770.604	1289.2
770.787	1270.76
770.97	1252.33
771.152	1225.71
771.335	1238
771.518	1192.94
771.7	1238
771.883	1315.82
772.066	1238
772.248	1223.66
772.431	1297.39
772.613	1156.08
772.796	1113.07
772.978	1252.33
773.161	1223.66
773.343	1235.95
773.526	1180.65
773.708	1088.5
773.891	984.05
774.073	1162.22
774.256	1133.55
774.438	1203.18
774.621	1068.02
774.803	1129.45
774.985	1098.74
775.168	1145.84
775.35	1172.46
775.532	1070.06
775.715	1080.3
775.897	1111.02
776.079	975.86
776.261	1000.43
776.444	1027.06
776.626	1006.58
776.808	984.05
776.99	1049.58
777.173	1092.59
777.355	973.81
777.537	975.86
777.719	1006.58
777.901	967.67
778.083	873.46
778.265	982
778.447	1008.62
778.629	965.62
778.811	961.52
778.993	934.9
779.175	910.32
779.357	971.76
779.539	912.37
779.721	934.9
779.903	814.07
780.085	846.84
780.267	934.9
780.449	883.7
780.631	791.54
780.812	900.08
780.994	871.41
781.176	795.64
781.358	842.74
781.54	748.53
781.721	769.01
781.903	842.74
782.085	764.92
782.267	885.75
782.448	807.92
782.63	748.53
782.812	789.49
782.993	789.49
783.175	791.54
783.357	840.69
783.538	730.1
783.72	719.86
783.901	730.1
784.083	762.87
784.264	787.44
784.446	635.89
784.627	691.19
784.809	676.85
784.99	705.53
785.172	691.19
785.353	740.34
785.535	697.33
785.716	648.18
785.897	662.52
786.079	654.33
786.26	687.09
786.441	650.23
786.623	556.02
786.804	541.69
786.985	562.17
787.167	617.46
787.348	642.04
787.529	543.74
787.71	662.52
787.891	646.13
788.073	609.27
788.254	551.93
788.435	625.65
788.616	631.8
788.797	519.16
788.978	607.22
789.159	541.69
789.34	562.17
789.522	537.59
789.703	539.64
789.884	560.12
790.065	527.35
790.246	646.13
790.427	494.58
790.607	529.4
790.788	592.89
790.969	502.78
791.15	523.26
791.331	453.63
791.512	502.78
791.693	517.11
791.874	478.2
792.054	568.31
792.235	472.06
792.416	449.53
792.597	422.91
792.778	492.54
792.958	482.3
793.139	406.52
793.32	402.43
793.5	435.19
793.681	558.07
793.862	480.25
794.042	408.57
794.223	427
794.404	449.53
794.584	455.67
794.765	429.05
794.945	490.49
795.126	427
795.306	463.86
795.487	447.48
795.667	429.05
795.848	392.19
796.028	347.13
796.209	408.57
796.389	470.01
796.57	457.72
796.75	412.67
796.93	404.47
797.111	367.61
797.291	410.62
797.471	457.72
797.652	427
797.832	453.63
798.012	437.24
798.192	371.71
798.373	375.8
798.553	334.84
798.733	386.04
798.913	363.51
799.093	383.99
799.274	414.71
799.454	404.47
799.634	359.42
799.814	418.81
799.994	365.56
800.174	396.28
800.354	402.43
800.534	386.04
800.714	427
800.894	369.66
801.074	328.7
801.254	289.79
801.434	420.86
801.614	349.18
801.794	343.03
801.974	771.06
802.154	302.08
802.334	390.14
802.514	318.46
802.693	351.23
802.873	322.56
803.053	359.42
803.233	304.12
803.413	363.51
803.592	351.23
803.772	361.47
803.952	359.42
804.131	343.03
804.311	332.79
804.491	316.41
804.67	396.28
804.85	295.93
805.03	410.62
805.209	347.13
805.389	435.19
805.568	345.08
805.748	297.98
805.928	334.84
806.107	236.54
806.287	289.79
806.466	244.73
806.646	289.79
806.825	252.92
807.004	232.44
807.184	326.65
807.363	334.84
807.543	347.13
807.722	271.36
807.901	273.4
808.081	257.02
808.26	214.01
808.439	234.49
808.619	314.36
808.798	306.17
808.977	277.5
809.156	324.6
809.336	275.45
809.515	330.75
809.694	240.64
809.873	238.59
810.052	209.92
810.231	300.03
810.411	297.98
810.59	250.88
810.769	334.84
810.948	228.35
811.127	134.14
811.306	222.2
811.485	211.96
811.664	328.7
811.843	230.4
812.022	273.4
812.201	207.87
812.38	316.41
812.559	289.79
812.737	218.11
812.916	244.73
813.095	226.3
813.274	275.45
813.453	199.68
813.632	216.06
813.811	244.73
813.989	150.53
814.168	185.34
814.347	248.83
814.526	144.38
814.704	207.87
814.883	240.64
815.062	201.72
815.24	281.6
815.419	218.11
815.598	218.11
815.776	158.72
815.955	175.1
816.133	136.19
816.312	308.22
816.49	164.86
816.669	199.68
816.847	214.01
817.026	269.31
817.204	113.66
817.383	222.2
817.561	287.74
817.74	222.2
817.918	257.02
818.097	171.01
818.275	199.68
818.453	144.38
818.632	183.29
818.81	191.49
818.988	271.36
819.167	144.38
819.345	158.72
819.523	199.68
819.701	259.07
819.879	144.38
820.058	101.37
820.236	199.68
820.414	179.2
820.592	125.95
820.77	199.68
820.948	187.39
821.127	187.39
821.305	214.01
821.483	168.96
821.661	154.62
821.839	191.49
822.017	162.81
822.195	138.24
822.373	228.35
822.551	171.01
822.729	203.77
822.907	171.01
823.085	187.39
823.262	146.43
823.44	203.77
823.618	238.59
823.796	179.2
823.974	228.35
824.152	115.71
824.329	144.38
824.507	156.67
824.685	183.29
824.863	175.1
825.04	199.68
825.218	191.49
825.396	158.72
825.574	111.61
825.751	136.19
825.929	218.11
826.107	138.24
826.284	140.29
826.462	121.85
826.639	130.05
826.817	136.19
826.994	121.85
827.172	132.09
827.349	150.53
827.527	187.39
827.704	109.57
827.882	166.91
828.059	134.14
828.237	168.96
828.414	164.86
828.591	54.27
828.769	103.42
828.946	125.95
829.124	121.85
829.301	195.58
829.478	80.89
829.655	183.29
829.833	189.44
830.01	84.99
830.187	158.72
830.364	113.66
830.542	183.29
830.719	142.33
830.896	138.24
831.073	91.13
831.25	113.66
831.427	70.65
831.604	187.39
831.782	82.94
831.959	99.33
832.136	144.38
832.313	191.49
832.49	101.37
832.667	214.01
832.844	109.57
833.021	158.72
833.198	123.9
833.374	107.52
833.551	128
833.728	121.85
833.905	115.71
834.082	70.65
834.259	103.42
834.436	146.43
834.612	44.03
834.789	142.33
834.966	50.18
835.143	142.33
835.319	142.33
835.496	101.37
835.673	125.95
835.85	101.37
836.026	27.65
836.203	179.2
836.38	66.56
836.556	183.29
836.733	23.55
836.909	201.72
837.086	148.48
837.262	78.85
837.439	191.49
837.616	115.71
837.792	82.94
837.968	117.76
838.145	64.51
838.321	103.42
838.498	84.99
838.674	113.66
838.851	111.61
839.027	130.05
839.203	78.85
839.38	35.84
839.556	113.66
839.732	107.52
839.909	121.85
840.085	115.71
840.261	41.98
840.437	44.03
840.614	93.18
840.79	132.09
840.966	78.85
841.142	87.04
841.318	37.89
841.494	68.61
841.671	156.67
841.847	33.79
842.023	41.98
842.199	119.81
842.375	107.52
842.551	54.27
842.727	109.57
842.903	134.14
843.079	99.33
843.255	125.95
843.431	37.89
843.607	68.61
843.783	50.18
843.959	70.65
844.134	97.28
844.31	113.66
844.486	29.7
844.662	140.29
844.838	50.18
845.013	138.24
845.189	19.46
845.365	64.51
845.541	95.23
845.716	91.13
845.892	78.85
846.068	82.94
846.244	44.03
846.419	48.13
846.595	60.42
846.77	46.08
846.946	50.18
847.122	39.94
847.297	52.22
847.473	84.99
847.648	-5.12
847.824	25.6
847.999	39.94
848.175	78.85
848.35	101.37
848.526	87.04
848.701	95.23
848.876	84.99
849.052	84.99
849.227	56.32
849.403	109.57
849.578	128
849.753	125.95
849.929	117.76
850.104	89.09
850.279	64.51
850.454	97.28
850.63	50.18
850.805	130.05
850.98	68.61
851.155	93.18
851.33	11.26
851.505	48.13
851.681	68.61
851.856	35.84
852.031	80.89
852.206	70.65
852.381	56.32
852.556	5.12
852.731	74.75
852.906	3.07
853.081	93.18
853.256	68.61
853.431	60.42
853.606	33.79
853.781	103.42
853.956	-15.36
854.131	19.46
854.305	50.18
854.48	107.52
854.655	9.22
854.83	62.46
855.005	13.31
855.18	89.09
855.354	3.07
855.529	44.03
855.704	39.94
855.879	103.42
856.053	62.46
856.228	56.32
856.403	33.79
856.577	35.84
856.752	35.84
856.926	-11.26
857.101	91.13
857.276	25.6
857.45	97.28
857.625	113.66
857.799	52.22
857.974	89.09
858.148	35.84
858.323	50.18
858.497	54.27
858.672	37.89
858.846	76.8
859.02	125.95
859.195	37.89
859.369	3.07
859.543	132.09
859.718	84.99
859.892	37.89
860.066	99.33
860.241	56.32
860.415	132.09
860.589	17.41
860.763	19.46
860.938	74.75
861.112	117.76
861.286	33.79
861.46	15.36
861.634	33.79
861.808	44.03
861.982	84.99
862.157	25.6
862.331	44.03
862.505	-7.17
862.679	-29.7
862.853	64.51
863.027	60.42
863.201	113.66
863.375	33.79
863.549	74.75
863.722	19.46
863.896	74.75
864.07	31.74
864.244	1.02
864.418	1.02
864.592	46.08
864.766	130.05
864.939	84.99
865.113	-1.02
865.287	31.74
865.461	56.32
865.634	-15.36
865.808	21.5
865.982	29.7
866.156	-54.27
866.329	46.08
866.503	-13.31
866.676	48.13
866.85	64.51
867.024	70.65
867.197	80.89
867.371	37.89
867.544	-33.79
867.718	-21.5
867.891	68.61
868.065	17.41
868.238	76.8
868.412	82.94
868.585	50.18
868.759	101.37
868.932	33.79
869.105	-29.7
869.279	58.37
869.452	60.42
869.625	52.22
869.799	13.31
869.972	15.36
870.145	5.12
870.319	68.61
870.492	46.08
870.665	-54.27
870.838	-44.03
871.011	-5.12
871.185	76.8
871.358	48.13
871.531	-5.12
871.704	-9.22
871.877	17.41
872.05	62.46
872.223	64.51
872.396	60.42
872.569	62.46
872.742	-9.22
872.915	64.51
873.088	19.46
873.261	54.27
873.434	15.36
873.607	27.65
873.78	3.07
873.953	-70.65
874.126	-48.13
874.299	35.84
874.471	-17.41
874.644	93.18
874.817	13.31
874.99	113.66
875.163	1.02
875.335	1.02
875.508	60.42
875.681	68.61
875.853	39.94
876.026	56.32
876.199	-15.36
876.371	-15.36
876.544	21.5
876.717	-17.41
876.889	62.46
877.062	68.61
877.234	-62.46
877.407	19.46
877.579	15.36
877.752	103.42
877.924	-3.07
878.097	35.84
878.269	9.22
878.442	5.12
878.614	60.42
878.786	48.13
878.959	41.98
879.131	23.55
879.303	11.26
879.476	130.05
879.648	78.85
879.82	29.7
879.993	9.22
880.165	7.17
880.337	37.89
880.509	29.7
880.681	7.17
880.854	74.75
881.026	54.27
881.198	82.94
881.37	-48.13
881.542	-27.65
881.714	-23.55
881.886	-9.22
882.058	58.37
882.23	64.51
882.402	31.74
882.574	64.51
882.746	35.84
882.918	5.12
883.09	11.26
883.262	58.37
883.434	21.5
883.606	-17.41
883.778	-70.65
883.95	46.08
884.122	-9.22
884.293	48.13
884.465	-7.17
884.637	-21.5
884.809	17.41
884.98	-29.7
885.152	-23.55
885.324	44.03
885.496	5.12
885.667	27.65
885.839	-46.08
886.011	136.19
886.182	54.27
886.354	89.09
886.525	46.08
886.697	-46.08
886.869	41.98
887.04	52.22
887.212	11.26
887.383	93.18
887.555	70.65
887.726	25.6
887.897	17.41
888.069	-13.31
888.24	21.5
888.412	33.79
888.583	52.22
888.754	58.37
888.926	-21.5
889.097	3.07
889.268	-56.32
889.44	70.65
889.611	-15.36
889.782	31.74
889.953	17.41
890.125	130.05
890.296	-35.84
890.467	35.84
890.638	-5.12
890.809	48.13
890.98	-33.79
891.151	-9.22
891.323	48.13
891.494	-56.32
891.665	-37.89
891.836	19.46
892.007	-5.12
892.178	50.18
892.349	37.89
892.52	13.31
892.691	39.94
892.862	-54.27
893.032	48.13
893.203	29.7
893.374	33.79
893.545	23.55
893.716	72.7
893.887	68.61
894.057	33.79
894.228	19.46
894.399	-58.37
894.57	44.03
894.74	-1.02
894.911	76.8
895.082	56.32
895.253	25.6
895.423	17.41
895.594	52.22
895.764	7.17
895.935	-17.41
896.106	21.5
896.276	23.55
896.447	23.55
896.617	-60.42
896.788	-1.02
896.958	-46.08
897.129	13.31
897.299	-5.12
897.47	130.05
897.64	89.09
897.81	15.36
897.981	31.74
898.151	1.02
898.322	9.22
898.492	-58.37
898.662	19.46
898.832	1.02
899.003	41.98
899.173	-50.18
899.343	-46.08
899.513	23.55
