Data from USB4F104151__204__10-29-36-426.txt Node

Date: Wed Mar 12 10:29:36 EDT 2025
User: louis
Spectrometer: USB4F10415
Trigger mode: 4
Integration Time (sec): 3.000000E-2
Scans to average: 1
Electric dark correction enabled: true
Nonlinearity correction enabled: false
Boxcar width: 0
XAxis mode: Wavelengths
Number of Pixels in Spectrum: 3648
>>>>>Begin Spectral Data<<<<<
178.204	-175.78
178.424	-175.78
178.644	-175.78
178.864	-161.45
179.084	-157.35
179.304	2.39
179.524	0.34
179.744	2.39
179.964	12.63
180.184	-73.39
180.404	-48.81
180.624	6.49
180.844	69.97
181.064	26.96
181.283	61.78
181.503	-42.67
181.723	-18.09
181.943	-79.53
182.163	-22.19
182.383	-13.99
182.602	18.77
182.822	26.96
183.042	-22.19
183.262	-95.91
183.482	-18.09
183.701	-30.38
183.921	35.16
184.141	20.82
184.361	74.07
184.58	20.82
184.8	-57
185.02	-50.86
185.239	49.49
185.459	18.77
185.679	12.63
185.898	0.34
186.118	47.44
186.338	-67.24
186.557	110.93
186.777	-44.71
186.997	4.44
187.216	18.77
187.436	6.49
187.655	18.77
187.875	10.58
188.095	-7.85
188.314	-3.75
188.534	0.34
188.753	-11.95
188.973	35.16
189.192	31.06
189.412	16.73
189.631	72.02
189.851	33.11
190.07	84.31
190.29	-59.05
190.509	35.16
190.729	24.92
190.948	33.11
191.168	188.75
191.387	6.49
191.607	22.87
191.826	10.58
192.045	-1.71
192.265	-7.85
192.484	4.44
192.704	33.11
192.923	-16.04
193.142	65.88
193.362	-26.28
193.581	55.64
193.8	80.21
194.02	20.82
194.239	-48.81
194.458	22.87
194.678	24.92
194.897	-48.81
195.116	24.92
195.335	63.83
195.555	10.58
195.774	47.44
195.993	59.73
196.212	-3.75
196.432	6.49
196.651	39.25
196.87	0.34
197.089	65.88
197.308	-79.53
197.528	33.11
197.747	12.63
197.966	20.82
198.185	72.02
198.404	-1.71
198.623	84.31
198.842	-104.11
199.062	8.53
199.281	39.25
199.5	-46.76
199.719	24.92
199.938	80.21
200.157	14.68
200.376	-1.71
200.595	51.54
200.814	29.01
201.033	37.2
201.252	14.68
201.471	43.35
201.69	33.11
201.909	-5.8
202.128	74.07
202.347	24.92
202.566	0.34
202.785	-34.47
203.004	39.25
203.223	51.54
203.442	22.87
203.661	31.06
203.879	57.68
204.098	-16.04
204.317	-24.23
204.536	18.77
204.755	-40.62
204.974	-38.57
205.193	14.68
205.411	-44.71
205.63	-13.99
205.849	51.54
206.068	12.63
206.287	2.39
206.505	39.25
206.724	65.88
206.943	6.49
207.162	51.54
207.381	-7.85
207.599	-34.47
207.818	16.73
208.037	-16.04
208.255	14.68
208.474	-3.75
208.693	72.02
208.911	55.64
209.13	69.97
209.349	16.73
209.567	-40.62
209.786	76.12
210.005	39.25
210.223	-20.14
210.442	55.64
210.661	-46.76
210.879	8.53
211.098	59.73
211.316	-38.57
211.535	65.88
211.753	45.4
211.972	82.26
212.191	14.68
212.409	35.16
212.628	16.73
212.846	-18.09
213.065	35.16
213.283	63.83
213.502	53.59
213.72	8.53
213.938	-16.04
214.157	-11.95
214.375	31.06
214.594	-24.23
214.812	51.54
215.031	14.68
215.249	86.36
215.467	51.54
215.686	6.49
215.904	84.31
216.122	35.16
216.341	63.83
216.559	-22.19
216.778	8.53
216.996	24.92
217.214	8.53
217.432	6.49
217.651	-63.15
217.869	16.73
218.087	-3.75
218.306	-67.24
218.524	18.77
218.742	59.73
218.96	78.16
219.179	26.96
219.397	-18.09
219.615	117.08
219.833	8.53
220.051	-26.28
220.27	86.36
220.488	6.49
220.706	57.68
220.924	-59.05
221.142	55.64
221.36	33.11
221.578	59.73
221.796	20.82
222.015	-112.3
222.233	35.16
222.451	35.16
222.669	-50.86
222.887	-5.8
223.105	-9.9
223.323	26.96
223.541	22.87
223.759	37.2
223.977	43.35
224.195	76.12
224.413	-11.95
224.631	8.53
224.849	4.44
225.067	26.96
225.285	4.44
225.503	57.68
225.721	-50.86
225.939	45.4
226.157	10.58
226.375	26.96
226.592	-44.71
226.81	-42.67
227.028	61.78
227.246	92.5
227.464	18.77
227.682	-18.09
227.9	24.92
228.117	-18.09
228.335	-50.86
228.553	39.25
228.771	41.3
228.989	57.68
229.206	67.92
229.424	65.88
229.642	0.34
229.86	63.83
230.077	96.6
230.295	-32.43
230.513	59.73
230.731	55.64
230.948	63.83
231.166	49.49
231.384	-40.62
231.601	8.53
231.819	4.44
232.037	29.01
232.254	-38.57
232.472	-40.62
232.689	18.77
232.907	-18.09
233.125	90.45
233.342	-40.62
233.56	-38.57
233.777	76.12
233.995	18.77
234.213	53.59
234.43	45.4
234.648	8.53
234.865	-7.85
235.083	-26.28
235.3	-26.28
235.518	39.25
235.735	53.59
235.953	14.68
236.17	2.39
236.388	-67.24
236.605	18.77
236.822	22.87
237.04	4.44
237.257	-9.9
237.475	6.49
237.692	55.64
237.909	2.39
238.127	6.49
238.344	24.92
238.562	35.16
238.779	22.87
238.996	-5.8
239.214	-89.77
239.431	24.92
239.648	43.35
239.865	33.11
240.083	45.4
240.3	6.49
240.517	-48.81
240.735	14.68
240.952	35.16
241.169	26.96
241.386	0.34
241.603	102.74
241.821	-67.24
242.038	47.44
242.255	10.58
242.472	24.92
242.689	0.34
242.907	100.69
243.124	35.16
243.341	69.97
243.558	63.83
243.775	-22.19
243.992	-20.14
244.209	-22.19
244.426	10.58
244.643	92.5
244.86	8.53
245.078	35.16
245.295	78.16
245.512	12.63
245.729	-5.8
245.946	67.92
246.163	76.12
246.38	-13.99
246.597	-5.8
246.814	55.64
247.031	-40.62
247.248	108.88
247.464	10.58
247.681	-11.95
247.898	-16.04
248.115	2.39
248.332	-46.76
248.549	86.36
248.766	14.68
248.983	16.73
249.2	35.16
249.417	63.83
249.633	-34.47
249.85	39.25
250.067	10.58
250.284	22.87
250.501	53.59
250.717	31.06
250.934	-40.62
251.151	-9.9
251.368	41.3
251.585	96.6
251.801	10.58
252.018	8.53
252.235	43.35
252.451	65.88
252.668	20.82
252.885	76.12
253.102	22.87
253.318	-34.47
253.535	98.64
253.752	55.64
253.968	2.39
254.185	57.68
254.401	-1.71
254.618	47.44
254.835	-22.19
255.051	0.34
255.268	-7.85
255.484	20.82
255.701	31.06
255.917	39.25
256.134	43.35
256.351	37.2
256.567	-5.8
256.784	-28.33
257	-48.81
257.217	14.68
257.433	10.58
257.65	57.68
257.866	24.92
258.082	20.82
258.299	-18.09
258.515	45.4
258.732	35.16
258.948	0.34
259.165	12.63
259.381	53.59
259.597	49.49
259.814	4.44
260.03	-5.8
260.246	57.68
260.463	-3.75
260.679	43.35
260.895	39.25
261.112	39.25
261.328	59.73
261.544	37.2
261.761	26.96
261.977	18.77
262.193	-7.85
262.409	117.08
262.626	35.16
262.842	55.64
263.058	45.4
263.274	-11.95
263.49	6.49
263.707	55.64
263.923	82.26
264.139	-5.8
264.355	37.2
264.571	24.92
264.787	-1.71
265.004	59.73
265.22	35.16
265.436	-3.75
265.652	41.3
265.868	20.82
266.084	-7.85
266.3	18.77
266.516	-28.33
266.732	-5.8
266.948	35.16
267.164	26.96
267.38	24.92
267.596	39.25
267.812	45.4
268.028	59.73
268.244	-16.04
268.46	55.64
268.676	-26.28
268.892	10.58
269.108	-9.9
269.324	18.77
269.54	-13.99
269.756	39.25
269.972	-13.99
270.188	-26.28
270.403	-30.38
270.619	65.88
270.835	72.02
271.051	-5.8
271.267	88.4
271.483	20.82
271.698	-28.33
271.914	53.59
272.13	47.44
272.346	74.07
272.562	-5.8
272.777	18.77
272.993	39.25
273.209	-18.09
273.425	-1.71
273.64	45.4
273.856	-5.8
274.072	22.87
274.287	-13.99
274.503	37.2
274.719	49.49
274.934	8.53
275.15	-34.47
275.366	18.77
275.581	-26.28
275.797	76.12
276.012	90.45
276.228	29.01
276.444	55.64
276.659	31.06
276.875	-38.57
277.09	22.87
277.306	-36.52
277.521	22.87
277.737	2.39
277.952	2.39
278.168	31.06
278.383	16.73
278.599	12.63
278.814	16.73
279.03	-30.38
279.245	96.6
279.461	39.25
279.676	12.63
279.892	-7.85
280.107	35.16
280.322	-50.86
280.538	-22.19
280.753	2.39
280.969	69.97
281.184	12.63
281.399	-13.99
281.615	22.87
281.83	22.87
282.045	-32.43
282.26	-50.86
282.476	10.58
282.691	121.17
282.906	-30.38
283.122	-5.8
283.337	24.92
283.552	80.21
283.767	6.49
283.983	82.26
284.198	-28.33
284.413	76.12
284.628	-22.19
284.843	-22.19
285.058	108.88
285.274	22.87
285.489	18.77
285.704	14.68
285.919	-5.8
286.134	-9.9
286.349	14.68
286.564	14.68
286.779	72.02
286.995	31.06
287.21	-22.19
287.425	-5.8
287.64	10.58
287.855	26.96
288.07	-20.14
288.285	16.73
288.5	94.55
288.715	18.77
288.93	18.77
289.145	10.58
289.36	96.6
289.575	-22.19
289.79	20.82
290.004	-1.71
290.219	96.6
290.434	84.31
290.649	-30.38
290.864	72.02
291.079	-32.43
291.294	-9.9
291.509	-18.09
291.724	82.26
291.938	55.64
292.153	76.12
292.368	-7.85
292.583	14.68
292.798	26.96
293.012	41.3
293.227	78.16
293.442	20.82
293.657	35.16
293.871	72.02
294.086	67.92
294.301	10.58
294.516	-30.38
294.73	57.68
294.945	-5.8
295.16	22.87
295.374	12.63
295.589	55.64
295.804	-1.71
296.018	2.39
296.233	98.64
296.447	10.58
296.662	-9.9
296.877	43.35
297.091	31.06
297.306	74.07
297.52	29.01
297.735	108.88
297.949	41.3
298.164	41.3
298.378	78.16
298.593	4.44
298.807	0.34
299.022	100.69
299.236	125.27
299.451	12.63
299.665	18.77
299.88	-30.38
300.094	37.2
300.309	-3.75
300.523	37.2
300.737	-71.34
300.952	10.58
301.166	76.12
301.381	39.25
301.595	2.39
301.809	51.54
302.024	18.77
302.238	49.49
302.452	65.88
302.667	18.77
302.881	80.21
303.095	88.4
303.309	65.88
303.524	-11.95
303.738	82.26
303.952	-42.67
304.166	86.36
304.381	-5.8
304.595	61.78
304.809	-11.95
305.023	-32.43
305.237	49.49
305.452	-13.99
305.666	43.35
305.88	65.88
306.094	10.58
306.308	14.68
306.522	76.12
306.736	-5.8
306.95	12.63
307.164	86.36
307.379	-1.71
307.593	112.98
307.807	76.12
308.021	110.93
308.235	-34.47
308.449	29.01
308.663	-22.19
308.877	149.84
309.091	63.83
309.305	80.21
309.519	14.68
309.733	108.88
309.947	6.49
310.161	55.64
310.374	8.53
310.588	112.98
310.802	8.53
311.016	22.87
311.23	22.87
311.444	2.39
311.658	80.21
311.872	49.49
312.085	141.65
312.299	78.16
312.513	22.87
312.727	82.26
312.941	69.97
313.154	63.83
313.368	10.58
313.582	43.35
313.796	47.44
314.009	-7.85
314.223	61.78
314.437	45.4
314.651	69.97
314.864	4.44
315.078	-5.8
315.292	14.68
315.505	37.2
315.719	72.02
315.933	2.39
316.146	10.58
316.36	18.77
316.573	-11.95
316.787	82.26
317.001	90.45
317.214	2.39
317.428	33.11
317.641	-28.33
317.855	55.64
318.068	-7.85
318.282	33.11
318.495	0.34
318.709	31.06
318.922	-18.09
319.136	88.4
319.349	35.16
319.563	-9.9
319.776	84.31
319.99	-7.85
320.203	37.2
320.417	8.53
320.63	74.07
320.843	67.92
321.057	39.25
321.27	55.64
321.483	74.07
321.697	49.49
321.91	0.34
322.124	63.83
322.337	65.88
322.55	-24.23
322.763	18.77
322.977	47.44
323.19	16.73
323.403	0.34
323.617	41.3
323.83	-20.14
324.043	74.07
324.256	39.25
324.469	0.34
324.683	55.64
324.896	-13.99
325.109	29.01
325.322	-22.19
325.535	43.35
325.748	49.49
325.962	-11.95
326.175	80.21
326.388	59.73
326.601	76.12
326.814	63.83
327.027	18.77
327.24	92.5
327.453	-28.33
327.666	82.26
327.879	8.53
328.092	33.11
328.305	20.82
328.518	-9.9
328.731	74.07
328.944	33.11
329.157	51.54
329.37	61.78
329.583	82.26
329.796	51.54
330.009	8.53
330.222	26.96
330.435	6.49
330.648	98.64
330.861	6.49
331.073	51.54
331.286	67.92
331.499	69.97
331.712	-30.38
331.925	-22.19
332.138	-22.19
332.35	18.77
332.563	88.4
332.776	74.07
332.989	-13.99
333.202	43.35
333.414	-38.57
333.627	39.25
333.84	-9.9
334.053	-7.85
334.265	-22.19
334.478	47.44
334.691	51.54
334.903	-24.23
335.116	-24.23
335.329	47.44
335.541	92.5
335.754	57.68
335.966	43.35
336.179	102.74
336.392	10.58
336.604	51.54
336.817	67.92
337.029	51.54
337.242	76.12
337.454	39.25
337.667	65.88
337.88	4.44
338.092	-5.8
338.305	39.25
338.517	6.49
338.729	22.87
338.942	49.49
339.154	35.16
339.367	-16.04
339.579	10.58
339.792	41.3
340.004	63.83
340.217	47.44
340.429	49.49
340.641	-11.95
340.854	-1.71
341.066	10.58
341.278	49.49
341.491	119.12
341.703	31.06
341.915	-7.85
342.128	53.59
342.34	88.4
342.552	35.16
342.764	102.74
342.977	57.68
343.189	2.39
343.401	2.39
343.613	12.63
343.826	4.44
344.038	-13.99
344.25	39.25
344.462	-52.91
344.674	33.11
344.886	0.34
345.099	121.17
345.311	41.3
345.523	18.77
345.735	-65.19
345.947	12.63
346.159	88.4
346.371	8.53
346.583	26.96
346.795	65.88
347.007	51.54
347.219	59.73
347.431	-1.71
347.643	47.44
347.855	43.35
348.067	33.11
348.279	16.73
348.491	16.73
348.703	115.03
348.915	47.44
349.127	6.49
349.339	10.58
349.551	0.34
349.763	43.35
349.975	51.54
350.187	39.25
350.399	43.35
350.61	72.02
350.822	-7.85
351.034	61.78
351.246	51.54
351.458	82.26
351.669	24.92
351.881	67.92
352.093	90.45
352.305	39.25
352.517	-7.85
352.728	104.79
352.94	59.73
353.152	106.84
353.363	24.92
353.575	72.02
353.787	43.35
353.999	29.01
354.21	51.54
354.422	-30.38
354.633	57.68
354.845	115.03
355.057	51.54
355.268	18.77
355.48	47.44
355.692	-11.95
355.903	45.4
356.115	14.68
356.326	-24.23
356.538	78.16
356.749	18.77
356.961	45.4
357.172	104.79
357.384	-71.34
357.595	94.55
357.807	76.12
358.018	-1.71
358.23	-36.52
358.441	108.88
358.653	100.69
358.864	80.21
359.075	31.06
359.287	35.16
359.498	16.73
359.709	-22.19
359.921	35.16
360.132	47.44
360.344	26.96
360.555	43.35
360.766	63.83
360.977	-50.86
361.189	88.4
361.4	-32.43
361.611	72.02
361.823	76.12
362.034	92.5
362.245	2.39
362.456	18.77
362.667	16.73
362.879	127.32
363.09	22.87
363.301	63.83
363.512	-22.19
363.723	96.6
363.935	41.3
364.146	43.35
364.357	43.35
364.568	-16.04
364.779	35.16
364.99	74.07
365.201	-13.99
365.412	102.74
365.623	-83.63
365.834	35.16
366.045	35.16
366.256	37.2
366.467	24.92
366.678	41.3
366.889	164.18
367.1	112.98
367.311	92.5
367.522	26.96
367.733	16.73
367.944	-22.19
368.155	84.31
368.366	100.69
368.577	2.39
368.788	92.5
368.999	2.39
369.209	125.27
369.42	117.08
369.631	100.69
369.842	55.64
370.053	22.87
370.264	108.88
370.474	74.07
370.685	65.88
370.896	-5.8
371.107	33.11
371.317	53.59
371.528	57.68
371.739	84.31
371.95	55.64
372.16	76.12
372.371	16.73
372.582	29.01
372.792	84.31
373.003	74.07
373.214	31.06
373.424	26.96
373.635	26.96
373.846	104.79
374.056	55.64
374.267	72.02
374.477	31.06
374.688	51.54
374.898	31.06
375.109	22.87
375.319	37.2
375.53	108.88
375.74	121.17
375.951	39.25
376.161	33.11
376.372	4.44
376.582	10.58
376.793	59.73
377.003	26.96
377.214	69.97
377.424	12.63
377.635	63.83
377.845	41.3
378.055	141.65
378.266	51.54
378.476	63.83
378.686	26.96
378.897	-32.43
379.107	61.78
379.317	-30.38
379.528	41.3
379.738	16.73
379.948	-7.85
380.158	69.97
380.369	127.32
380.579	47.44
380.789	14.68
380.999	104.79
381.21	33.11
381.42	112.98
381.63	102.74
381.84	35.16
382.05	88.4
382.261	33.11
382.471	127.32
382.681	55.64
382.891	59.73
383.101	76.12
383.311	-48.81
383.521	65.88
383.731	59.73
383.941	108.88
384.151	112.98
384.361	69.97
384.571	14.68
384.781	12.63
384.991	51.54
385.201	129.36
385.411	55.64
385.621	76.12
385.831	74.07
386.041	6.49
386.251	57.68
386.461	88.4
386.671	51.54
386.881	139.6
387.091	102.74
387.301	59.73
387.511	57.68
387.72	104.79
387.93	129.36
388.14	16.73
388.35	35.16
388.56	84.31
388.769	53.59
388.979	82.26
389.189	35.16
389.399	84.31
389.609	69.97
389.818	41.3
390.028	24.92
390.238	96.6
390.447	59.73
390.657	104.79
390.867	67.92
391.076	47.44
391.286	72.02
391.496	82.26
391.705	65.88
391.915	67.92
392.125	72.02
392.334	72.02
392.544	98.64
392.753	24.92
392.963	59.73
393.172	45.4
393.382	65.88
393.591	158.03
393.801	2.39
394.01	160.08
394.22	57.68
394.429	106.84
394.639	14.68
394.848	94.55
395.058	147.8
395.267	82.26
395.477	88.4
395.686	123.22
395.895	121.17
396.105	131.41
396.314	139.6
396.524	76.12
396.733	158.03
396.942	104.79
397.152	149.84
397.361	100.69
397.57	80.21
397.78	63.83
397.989	57.68
398.198	108.88
398.407	63.83
398.617	125.27
398.826	84.31
399.035	43.35
399.244	43.35
399.453	94.55
399.663	147.8
399.872	166.23
400.081	98.64
400.29	117.08
400.499	67.92
400.708	76.12
400.917	104.79
401.127	76.12
401.336	127.32
401.545	117.08
401.754	162.13
401.963	186.71
402.172	123.22
402.381	139.6
402.59	125.27
402.799	149.84
403.008	203.09
403.217	137.56
403.426	76.12
403.635	98.64
403.844	198.99
404.053	102.74
404.262	90.45
404.471	192.85
404.68	151.89
404.888	155.99
405.097	106.84
405.306	153.94
405.515	198.99
405.724	158.03
405.933	221.52
406.142	190.8
406.35	186.71
406.559	172.37
406.768	182.61
406.977	219.47
407.185	248.15
407.394	295.25
407.603	233.81
407.812	264.53
408.02	305.49
408.229	313.68
408.438	221.52
408.646	297.3
408.855	313.68
409.064	305.49
409.272	325.97
409.481	350.54
409.69	313.68
409.898	301.39
410.107	457.04
410.315	399.7
410.524	373.07
410.733	348.5
410.941	346.45
411.15	399.7
411.358	461.13
411.567	524.62
411.775	502.09
411.984	471.37
412.192	495.95
412.401	473.42
412.609	663.88
412.818	581.96
413.026	594.25
413.234	608.59
413.443	629.07
413.651	649.55
413.86	627.02
414.068	805.19
414.276	782.67
414.485	880.97
414.693	797
414.901	850.25
415.11	846.15
415.318	930.12
415.526	880.97
415.734	1005.89
415.943	1044.81
416.151	966.98
416.359	1012.04
416.567	1093.96
416.776	1040.71
416.984	1106.24
417.192	1216.83
417.4	1261.89
417.608	1280.32
417.817	1151.3
418.025	1411.39
418.233	1298.75
418.441	1409.34
418.649	1499.45
418.857	1509.69
419.065	1657.15
419.273	1573.18
419.481	1599.8
419.689	1700.16
419.897	1952.06
420.105	2076.98
420.313	1968.44
420.521	2056.5
420.729	1947.96
420.937	2122.04
421.145	2240.82
421.353	2353.46
421.561	2425.14
421.769	2484.53
421.977	2605.36
422.185	2457.9
422.393	2693.42
422.601	2918.7
422.809	2847.02
423.017	2847.02
423.224	2961.7
423.432	3012.9
423.64	3092.77
423.848	3309.86
424.056	3320.1
424.263	3508.51
424.471	3588.38
424.679	3469.6
424.887	3854.62
425.094	3914.01
425.302	3918.11
425.51	4149.53
425.718	4202.77
425.925	4243.73
426.133	4456.72
426.341	4657.42
426.548	4929.8
426.756	4839.69
426.964	4903.18
427.171	5273.86
427.379	5396.74
427.586	5468.42
427.794	5599.49
428.001	5730.56
428.209	6138.1
428.417	5935.35
428.624	6580.46
428.832	6461.68
429.039	6482.16
429.247	6412.53
429.454	7114.98
429.662	7469.28
429.869	6998.25
430.076	7512.29
430.284	7244.01
430.491	7669.98
430.699	8089.82
430.906	7921.88
431.114	8304.85
431.321	8403.16
431.528	8706.26
431.736	9111.75
431.943	9652.42
432.15	9230.54
432.358	9423.05
432.565	9820.35
432.772	9904.32
432.979	10459.32
433.187	10686.64
433.394	10813.62
433.601	11458.73
433.808	11417.77
434.016	11428.01
434.223	11839.65
434.43	12822.67
434.637	12265.63
434.844	12957.84
435.052	13535.37
435.259	13240.46
435.466	13254.8
435.673	13183.12
435.88	14012.54
436.087	14596.21
436.294	14921.84
436.501	14432.38
436.708	14610.55
436.915	15233.13
437.122	16070.75
437.329	15908.96
437.537	16228.45
437.743	16595.03
437.95	16371.8
438.157	17461.32
438.364	17723.46
438.571	17864.77
438.778	17842.25
438.985	19970.08
439.192	18989.11
439.399	19501.1
439.606	18935.86
439.813	20109.35
440.02	21467.15
440.227	21135.38
440.433	20846.62
440.64	21418
440.847	21235.73
441.054	21776.39
441.261	23242.74
441.467	22757.37
441.674	23545.84
441.881	24166.37
442.088	23977.96
442.294	23963.62
442.501	24739.8
442.708	24971.22
442.914	25929.67
443.121	26949.56
443.328	26314.69
443.534	28233.64
443.741	27465.65
443.948	27086.78
444.154	29329.3
444.361	29005.72
444.568	29425.56
444.774	29327.25
444.981	29208.47
445.187	30138.25
445.394	31516.53
445.6	30994.3
445.807	34096.97
446.013	32534.37
446.22	33038.17
446.426	34541.38
446.633	34795.33
446.839	35946.29
447.046	33861.46
447.252	36034.35
447.459	36290.35
447.665	35819.31
447.871	37738.26
448.078	39649.02
448.284	36951.84
448.491	38106.9
448.697	39831.29
448.903	40380.14
449.11	40568.55
449.316	39755.51
449.522	40410.86
449.728	41397.98
449.935	41778.9
450.141	41498.33
450.347	43005.64
450.553	41324.25
450.76	42006.23
450.966	43273.92
451.172	42403.53
451.378	43448
451.584	42761.93
451.791	43667.13
451.997	43536.06
452.203	44349.1
452.409	44027.57
452.615	44086.96
452.821	42485.45
453.027	42008.28
453.233	44326.58
453.44	42073.81
453.646	42694.35
453.852	43179.71
454.058	43738.81
454.264	41942.74
454.47	43144.9
454.676	42129.11
454.882	43523.77
455.088	39544.57
455.294	40402.67
455.5	40609.51
455.705	41160.42
455.911	39452.41
456.117	38735.62
456.323	38436.62
456.529	36161.33
456.735	37506.84
456.941	36888.35
457.147	36208.43
457.352	35456.82
457.558	34516.81
457.764	34770.75
457.97	34150.22
458.176	33591.12
458.381	33341.27
458.587	31766.38
458.793	31641.46
458.999	29958.03
459.204	32272.23
459.41	31506.29
459.616	29304.73
459.821	29695.89
460.027	29269.91
460.233	28387.24
460.438	26918.84
460.644	27527.09
460.85	26382.27
461.055	25909.19
461.261	25722.83
461.466	24008.68
461.672	23408.62
461.878	24666.08
462.083	23201.78
462.289	22788.09
462.494	22902.78
462.7	21700.62
462.905	21209.11
463.111	21710.86
463.316	21940.23
463.522	21426.19
463.727	21078.04
463.932	21014.55
464.138	20961.3
464.343	21282.83
464.549	20830.23
464.754	21602.32
464.959	21071.89
465.165	20879.38
465.37	20078.63
465.575	19531.82
465.781	20555.8
465.986	20633.63
466.191	19681.32
466.397	19402.8
466.602	18296.89
466.807	19236.91
467.012	19263.54
467.218	19202.1
467.423	18683.96
467.628	18888.76
467.833	19804.2
468.038	18847.8
468.244	18540.6
468.449	19142.71
468.654	18864.18
468.859	18546.75
469.064	18198.59
469.269	17729.61
469.474	17700.94
469.679	17954.88
469.885	17434.7
470.09	17985.6
470.295	17639.5
470.5	17465.42
470.705	17680.46
470.91	17147.98
471.115	16844.88
471.32	17193.04
471.525	17174.61
471.73	16513.11
471.935	16564.31
472.139	16025.7
472.344	16259.17
472.549	16187.49
472.754	15792.23
472.959	15622.25
473.164	15384.68
473.369	15102.06
473.574	15630.44
473.778	15554.66
473.983	15458.41
474.188	15435.88
474.393	14653.56
474.598	14991.47
474.802	14411.9
475.007	14114.94
475.212	14577.78
475.417	13924.48
475.621	13856.9
475.826	13783.17
476.031	13756.55
476.235	13686.92
476.44	13605
476.645	13463.69
476.849	13316.23
477.054	13193.36
477.259	13043.85
477.463	13281.42
477.668	12789.91
477.872	12851.35
478.077	12386.46
478.282	12572.82
478.486	12675.22
478.691	12245.15
478.895	12097.69
479.1	12374.17
479.304	12355.74
479.509	11790.5
479.713	12273.82
479.918	11511.97
480.122	11649.19
480.326	11708.58
480.531	11798.69
480.735	11630.76
480.94	11622.56
481.144	11864.22
481.348	11511.97
481.553	11735.2
481.757	11272.36
481.961	11491.49
482.166	11548.84
482.37	11610.28
482.574	11178.15
482.778	11423.91
482.983	11581.6
483.187	11612.32
483.391	11573.41
483.595	11200.68
483.8	11210.92
484.004	11350.18
484.208	11430.05
484.412	11321.51
484.616	11344.04
484.821	11628.71
485.025	11135.15
485.229	11552.93
485.433	11278.51
485.637	11471.01
485.841	11366.57
486.045	11432.1
486.249	11399.34
486.453	11188.39
486.657	11552.93
486.861	11319.46
487.065	11145.39
487.269	11253.93
487.473	11124.91
487.677	11258.03
487.881	11407.53
488.085	11356.33
488.289	11391.14
488.493	11473.06
488.697	11364.52
488.901	11493.54
489.105	11563.17
489.309	11571.36
489.512	11620.52
489.716	11395.24
489.92	11499.69
490.124	11477.16
490.328	11759.78
490.531	11540.65
490.735	11761.83
490.939	11602.08
491.143	11804.83
491.346	11675.81
491.55	11853.98
491.754	11892.9
491.958	11946.14
492.161	12060.83
492.365	12181.66
492.569	12069.02
492.772	11919.52
492.976	11960.48
493.18	12259.48
493.383	12404.89
493.587	12320.92
493.79	12712.08
493.994	12433.56
494.197	12632.21
494.401	12734.61
494.605	12634.26
494.808	13224.08
495.012	12916.88
495.215	12947.6
495.419	13068.43
495.622	13168.78
495.825	13262.99
496.029	13359.24
496.232	13809.79
496.436	13533.32
496.639	14039.17
496.843	13865.09
497.046	14057.6
497.249	14545.02
497.453	14387.32
497.656	14436.47
497.859	14307.45
498.063	14674.04
498.266	14997.62
498.469	14958.71
498.673	15183.98
498.876	15317.1
499.079	15353.96
499.282	15210.61
499.485	15951.97
499.689	16021.6
499.892	16132.19
500.095	16091.23
500.298	16582.74
500.501	16572.5
500.705	16881.75
500.908	17061.97
501.111	17244.24
501.314	17592.39
501.517	17686.6
501.72	17805.38
501.923	17803.33
502.126	18122.82
502.329	18317.37
502.532	18440.25
502.735	18509.88
502.938	19120.18
503.141	19091.51
503.344	19075.12
503.547	19294.25
503.75	19585.07
503.953	19953.7
504.156	20168.74
504.359	20406.3
504.562	20221.98
504.765	20791.32
504.968	21020.69
505.17	20955.16
505.373	21172.24
505.576	21661.71
505.779	21735.43
505.982	22071.3
506.185	22603.77
506.387	22448.13
506.59	22501.37
506.793	23070.71
506.996	23361.52
507.198	23642.09
507.401	23681
507.604	23967.72
507.807	24446.94
508.009	24164.32
508.212	24457.18
508.415	24838.11
508.617	24838.11
508.82	25327.57
509.022	25212.88
509.225	25788.36
509.428	25980.87
509.63	26013.64
509.833	26093.51
510.035	26943.42
510.238	27025.34
510.44	27420.59
510.643	27504.56
510.845	27539.38
511.048	27662.26
511.25	28168.1
511.453	28151.72
511.655	29157.27
511.858	29169.56
512.06	29317.01
512.262	29364.12
512.465	29493.14
512.667	29994.89
512.87	30406.53
513.072	30611.33
513.274	31156.09
513.477	31420.28
513.679	31156.09
513.881	31395.7
514.084	31936.37
514.286	32135.02
514.488	32077.68
514.69	33343.32
514.893	33357.66
515.095	33310.55
515.297	33871.7
515.499	33906.51
515.701	34395.98
515.904	34758.47
516.106	34856.77
516.308	35305.27
516.51	35526.46
516.712	35149.63
516.914	36163.37
517.116	36564.78
517.318	36511.53
517.52	36826.92
517.722	36519.72
517.925	37256.99
518.127	37881.62
518.329	37949.2
518.531	38227.73
518.733	38838.02
518.935	39137.02
519.136	39087.87
519.338	39317.25
519.54	39792.37
519.742	40113.91
519.944	39960.31
520.146	40965.86
520.348	41119.46
520.55	41166.56
520.752	41264.86
520.954	42378.96
521.155	41498.33
521.357	41780.95
521.559	42847.94
521.761	43290.3
521.963	43177.67
522.164	43257.54
522.366	43355.84
522.568	44482.22
522.77	43925.18
522.971	44828.33
523.173	44725.93
523.375	45325.99
523.576	44887.72
523.778	44842.67
523.98	45975.19
524.181	45872.79
524.383	45745.82
524.584	46558.86
524.786	46352.02
524.988	46673.55
525.189	46935.69
525.391	46962.31
525.592	47486.59
525.794	47459.97
525.995	47365.76
526.197	47500.93
526.398	47793.79
526.6	48332.4
526.801	48352.88
527.003	48840.3
527.204	48221.81
527.406	49139.3
527.607	48846.44
527.808	49331.81
528.01	48502.39
528.211	48916.07
528.412	50044.51
528.614	50054.75
528.815	49548.9
529.016	50542.16
529.218	50087.51
529.419	49925.72
529.62	50142.81
529.822	50331.22
530.023	50257.49
530.224	50591.31
530.425	50511.44
530.626	50024.03
530.828	49985.11
531.029	51564.1
531.23	50869.84
531.431	51007.05
531.632	50828.88
531.833	51422.79
532.035	51273.29
532.236	51332.68
532.437	51369.54
532.638	50863.69
532.839	51519.04
533.04	51818.05
533.241	50900.56
533.442	52190.78
533.643	51246.66
533.844	51320.39
534.045	51883.58
534.246	51222.09
534.447	51732.03
534.648	51439.17
534.849	51682.88
535.05	51467.84
535.251	51672.64
535.451	51320.39
535.652	51729.98
535.853	51846.72
536.054	52115
536.255	52158.01
536.456	51256.9
536.657	52436.53
536.857	51510.85
537.058	51844.67
537.259	52121.15
537.46	51707.46
537.66	51934.78
537.861	52051.52
538.062	51717.7
538.263	51947.07
538.463	51664.45
538.664	51875.39
538.865	52047.42
539.065	52233.78
539.266	51932.73
539.466	52084.28
539.667	51174.98
539.868	52581.94
540.068	51871.29
540.269	51899.97
540.469	52485.68
540.67	51699.26
540.87	51564.1
541.071	51865.15
541.271	52256.31
541.472	51801.66
541.672	51168.84
541.873	52094.52
542.073	51017.29
542.274	52440.63
542.474	51400.26
542.675	51301.96
542.875	51744.32
543.075	51674.69
543.276	51205.7
543.476	52201.02
543.676	51349.06
543.877	52317.75
544.077	51658.31
544.277	51834.43
544.478	51377.73
544.678	51916.35
544.878	51795.52
545.078	52090.43
545.279	51318.34
545.479	51334.73
545.679	51652.16
545.879	51631.68
546.079	51609.15
546.28	51623.49
546.48	51248.71
546.68	51738.18
546.88	51869.25
547.08	51498.56
547.28	51392.07
547.48	51181.13
547.68	51754.56
547.88	51240.52
548.081	51805.76
548.281	51955.26
548.481	51572.29
548.681	51971.64
548.881	51824.19
549.081	51373.64
549.28	51347.01
549.48	51732.03
549.68	51265.1
549.88	51861.05
550.08	51168.84
550.28	51615.3
550.48	51308.1
550.68	51433.03
550.88	51537.47
551.08	51029.58
551.279	51453.51
551.479	51043.91
551.679	51408.45
551.879	51142.22
552.079	51289.67
552.278	51027.53
552.478	51603.01
552.678	51455.56
552.878	51367.49
553.077	51246.66
553.277	50662.99
553.477	51850.81
553.676	51179.08
553.876	51224.14
554.076	51074.63
554.275	50900.56
554.475	50452.05
554.674	51283.53
554.874	50771.53
555.074	51146.31
555.273	51023.43
555.473	51455.56
555.672	50902.6
555.872	50683.47
556.071	50792.01
556.271	51359.3
556.47	50433.62
556.67	50576.98
556.869	50490.96
557.068	50955.85
557.268	50341.46
557.467	50474.58
557.667	50572.88
557.866	50390.61
558.065	50511.44
558.265	50230.87
558.464	49991.26
558.663	50902.6
558.863	49935.96
559.062	50734.67
559.261	50200.15
559.461	50531.92
559.66	49704.54
559.859	50396.76
560.058	49514.08
560.258	49944.16
560.457	49251.94
560.656	50015.83
560.855	49571.42
561.054	50302.55
561.253	49200.74
561.453	49679.97
561.652	49624.67
561.851	49731.17
562.05	49170.02
562.249	49507.94
562.448	49655.39
562.647	49139.3
562.846	49217.13
563.045	49385.06
563.244	48442.99
563.443	49589.86
563.642	48281.2
563.841	48725.61
564.04	48561.78
564.239	49368.68
564.438	48615.02
564.637	48860.78
564.836	48647.79
565.035	47830.65
565.234	48531.06
565.432	47931
565.631	48143.99
565.83	48275.06
566.029	48053.88
566.228	47920.76
566.427	47883.9
566.625	47312.52
566.824	47226.5
567.023	47789.69
567.222	46821
567.42	47236.74
567.619	47246.98
567.818	47664.77
568.016	46323.35
568.215	47353.47
568.414	46931.59
568.612	47320.71
568.811	46556.81
569.01	47001.22
569.208	46243.48
569.407	46857.87
569.605	46077.59
569.804	46554.77
570.002	45901.46
570.201	46251.67
570.4	46014.1
570.598	45506.21
570.797	45395.62
570.995	46055.06
571.193	45493.92
571.392	45807.26
571.59	45121.19
571.789	45354.66
571.987	45403.81
572.186	45100.71
572.384	44897.96
572.582	44770.99
572.781	45149.86
572.979	44351.15
573.177	44805.8
573.376	44830.38
573.574	44850.86
573.772	44689.07
573.971	44068.53
574.169	43955.89
574.367	43972.28
574.565	44625.58
574.763	44152.5
574.962	43964.09
575.16	43380.42
575.358	43824.82
575.556	43351.74
575.754	44013.24
575.952	43038.4
576.151	43685.56
576.349	42880.71
576.547	43361.98
576.745	42915.53
576.943	43245.25
577.141	43017.92
577.339	42847.94
577.537	42694.35
577.735	42634.95
577.933	42360.53
578.131	42512.08
578.329	42206.93
578.527	42098.39
578.725	42239.7
578.923	42274.51
579.121	41778.9
579.319	41742.04
579.516	42360.53
579.714	41922.26
579.912	41443.04
580.11	41909.97
580.308	41397.98
580.506	41348.83
580.704	40546.03
580.901	41242.34
581.099	41094.88
581.297	40783.59
581.495	40795.88
581.692	40838.89
581.89	40570.6
582.088	40750.82
582.285	40369.9
582.483	40429.29
582.681	39980.79
582.878	40234.74
583.076	39628.54
583.274	40234.74
583.471	39288.57
583.669	39579.39
583.866	39591.67
584.064	39706.36
584.262	39120.64
584.459	39194.37
584.657	39184.13
584.854	39964.4
585.052	38571.78
585.249	39153.41
585.447	39141.12
585.644	38688.52
585.841	38848.26
586.039	38815.49
586.236	38289.17
586.434	38375.18
586.631	37996.31
586.828	38053.65
587.026	38434.57
587.223	38229.77
587.42	37840.66
587.618	38250.25
587.815	37467.93
588.012	37566.23
588.21	37125.92
588.407	37730.07
588.604	36863.78
588.801	36851.49
588.999	36816.68
589.196	37263.13
589.393	37025.57
589.59	36734.76
589.787	36695.85
589.984	36529.96
590.182	36046.64
590.379	36357.93
590.576	36271.92
590.773	36441.9
590.97	36017.97
591.167	35897.14
591.364	35385.15
591.561	36077.36
591.758	35659.57
591.955	35288.89
592.152	35499.83
592.349	35127.1
592.546	35411.77
592.743	35290.94
592.94	34844.48
593.137	35186.49
593.334	34713.41
593.531	34522.95
593.727	34770.75
593.924	34525
594.121	34377.54
594.318	34506.57
594.515	33937.23
594.712	34334.54
594.908	34131.79
595.105	34060.11
595.302	33918.8
595.499	33627.99
595.696	33648.47
595.892	33619.8
596.089	33533.78
596.286	33429.34
596.482	33183.58
596.679	33341.27
596.876	33019.74
597.072	33062.75
597.269	32999.26
597.466	32843.62
597.662	32487.27
597.859	32501.61
598.055	32599.91
598.252	32124.78
598.448	32481.13
598.645	32204.65
598.841	32106.35
599.038	31942.51
599.234	31973.23
599.431	31754.1
599.627	31733.62
599.824	31532.92
600.02	31686.51
600.217	31364.98
600.413	31139.71
600.609	31184.76
600.806	31197.05
601.002	31293.3
601.198	30734.21
601.395	30779.26
601.591	30818.18
601.787	30881.66
601.984	30680.96
602.18	30855.04
602.376	30304.13
602.572	30367.62
602.769	30525.32
602.965	30154.63
603.161	30068.62
603.357	30220.17
603.553	29618.07
603.75	29812.62
603.946	29546.39
604.142	29933.45
604.338	29263.77
604.534	29687.7
604.73	28901.28
604.926	29269.91
605.122	29142.94
605.318	29108.12
605.514	28737.44
605.71	29024.15
605.906	28620.7
606.102	28815.26
606.298	28626.85
606.494	28387.24
606.69	28432.29
606.886	28719.01
607.082	28051.37
607.278	28628.9
607.474	28000.17
607.67	28526.5
607.866	28102.57
608.062	28102.57
608.257	27858.86
608.453	27871.15
608.649	28049.32
608.845	27781.04
609.041	28149.67
609.236	27953.07
609.432	27656.11
609.628	27799.47
609.824	27643.82
610.019	27529.14
610.215	27342.77
610.411	27516.85
610.606	27051.96
610.802	27471.79
610.998	27226.04
611.193	27344.82
611.389	26683.33
611.584	26912.7
611.78	27099.06
611.976	26591.17
612.171	26636.22
612.367	26417.09
612.562	26478.53
612.758	26337.22
612.953	26374.08
613.149	26658.75
613.344	26316.74
613.539	26662.85
613.735	26259.4
613.93	26554.3
614.126	26138.57
614.321	26378.18
614.517	26134.47
614.712	25798.6
614.907	26154.95
615.103	25683.92
615.298	25923.53
615.493	26255.3
615.688	25857.99
615.884	26165.19
616.079	25284.56
616.274	25671.63
616.47	25860.04
616.665	25882.57
616.86	25214.93
617.055	25520.08
617.25	25186.26
617.445	25669.58
617.641	24944.6
617.836	25468.88
618.031	24922.07
618.226	25047
618.421	24750.04
618.616	25020.38
618.811	24516.58
619.006	25010.14
619.201	24414.18
619.396	24641.5
619.591	24389.6
619.786	24426.46
619.981	24023.01
620.176	24299.49
620.371	23834.6
620.566	23699.44
620.761	23623.66
620.956	24049.64
621.151	23484.4
621.346	23719.92
621.541	23298.03
621.735	23584.75
621.93	22996.98
622.125	23179.25
622.32	22841.34
622.515	22925.3
622.709	22908.92
622.904	22839.29
623.099	22499.33
623.294	22446.08
623.488	22226.95
623.683	22450.17
623.878	21774.35
624.072	22022.15
624.267	21868.55
624.462	21626.89
624.656	21334.03
624.851	21594.12
625.046	21458.96
625.24	21383.18
625.435	21227.54
625.629	21133.33
625.824	21106.71
626.018	20899.86
626.213	20635.67
626.407	20711.45
626.602	20557.85
626.796	20496.41
626.991	20322.34
627.185	20221.98
627.38	20013.09
627.574	20092.96
627.768	19603.5
627.963	19843.11
628.157	19374.13
628.352	19701.8
628.546	19419.18
628.74	19378.22
628.935	18999.35
629.129	19042.35
629.323	18720.82
629.517	18952.24
629.712	18884.66
629.906	19054.64
630.1	18374.72
630.294	18466.88
630.489	18219.07
630.683	18497.6
630.877	17969.22
631.071	18257.98
631.265	18186.3
631.459	18131.01
631.653	17793.09
631.848	17655.88
632.042	17756.23
632.236	17533
632.43	17387.6
632.624	17393.74
632.818	17274.96
633.012	16961.62
633.206	17078.35
633.4	17135.7
633.594	16724.05
633.788	16736.34
633.982	16748.63
634.176	16619.61
634.369	16545.88
634.563	16427.1
634.757	16234.59
634.951	16529.5
635.145	16298.08
635.339	16144.48
635.533	16177.25
635.726	16085.09
635.92	15886.43
636.114	15706.21
636.308	16019.55
636.501	15468.65
636.695	15720.55
636.889	15489.13
637.083	15356.01
637.276	15263.85
637.47	15315.05
637.664	15100.01
637.857	15249.52
638.051	15200.37
638.244	15038.58
638.438	14852.21
638.632	14749.81
638.825	14749.81
639.019	14626.93
639.212	14563.45
639.406	14465.14
639.599	14481.53
639.793	14518.39
639.986	14094.46
640.18	14418.04
640.373	14067.84
640.567	14104.7
640.76	14239.87
640.954	13957.25
641.147	13668.48
641.34	13625.48
641.534	13817.99
641.727	13506.7
641.92	13725.83
642.114	13404.3
642.307	13437.06
642.5	13291.66
642.694	13023.37
642.887	13262.99
643.08	13084.81
643.273	13021.33
643.467	13166.73
643.66	12730.52
643.853	12984.46
644.046	12701.84
644.239	12759.19
644.432	12685.46
644.626	12587.16
644.819	12499.09
645.012	12648.6
645.205	12507.29
645.398	12279.96
645.591	12198.04
645.784	12277.91
645.977	12021.92
646.17	12157.08
646.363	11917.47
646.556	11804.83
646.749	11593.89
646.942	11694.24
647.135	11802.79
647.328	11837.6
647.521	11610.28
647.714	11548.84
647.907	11604.13
648.099	11493.54
648.292	11487.4
648.485	11305.13
648.678	11290.79
648.871	11253.93
649.064	11245.74
649.256	11028.65
649.449	11028.65
649.642	11053.23
649.835	10782.9
650.027	10805.42
650.22	10692.79
650.413	10643.63
650.605	10737.84
650.798	10684.59
650.991	10567.86
651.183	10700.98
651.376	10549.43
651.568	10348.73
651.761	10520.76
651.954	10401.97
652.146	10119.35
652.339	10123.45
652.531	10023.1
652.724	10117.31
652.916	9914.56
653.109	9963.71
653.301	9881.79
653.494	10016.96
653.686	9722.05
653.879	9916.61
654.071	9672.9
654.263	9816.26
654.456	9607.36
654.648	9631.94
654.84	9449.67
655.033	9656.51
655.225	9418.95
655.417	9226.44
655.61	9408.71
655.802	9298.12
655.994	9216.2
656.186	9339.08
656.379	9040.08
656.571	9152.71
656.763	8882.38
656.955	9052.36
657.148	9128.14
657.34	8866
657.532	8874.19
657.724	8937.68
657.916	8853.71
658.108	8835.28
658.3	8829.13
658.492	8696.02
658.684	8472.79
658.876	8380.63
659.068	8444.12
659.26	8442.07
659.452	8392.92
659.644	8468.69
659.836	8343.77
660.028	8407.25
660.22	8214.74
660.412	8272.09
660.604	8249.56
660.796	8411.35
660.988	8022.23
661.18	8020.19
661.372	8141.02
661.563	7799.01
661.755	7968.99
661.947	8040.67
662.139	7747.81
662.331	7827.68
662.522	7586.02
662.714	7657.7
662.906	7620.83
663.097	7563.49
663.289	7704.8
663.481	7569.63
663.673	7557.35
663.864	7413.99
664.056	7319.78
664.247	7426.28
664.439	7405.8
664.631	7495.91
664.822	7413.99
665.014	7319.78
665.205	7225.58
665.397	7176.42
665.588	7241.96
665.78	7088.36
665.971	7190.76
666.163	7225.58
666.354	7000.3
666.546	6951.15
666.737	6928.62
666.929	7096.55
667.12	6889.71
667.311	6861.04
667.503	6951.15
667.694	6711.53
667.885	6613.23
668.077	6580.46
668.268	6717.68
668.459	6605.04
668.651	6789.36
668.842	6818.03
669.033	6588.66
669.224	6488.31
669.416	6652.14
669.607	6557.94
669.798	6598.9
669.989	6381.81
670.18	6455.54
670.371	6330.61
670.563	6494.45
670.754	6562.03
670.945	6336.76
671.136	6334.71
671.327	6322.42
671.518	6273.27
671.709	6240.5
671.9	6260.98
672.091	6105.34
672.282	6318.32
672.473	6142.2
672.664	6174.97
672.855	6099.19
673.046	6076.66
673.237	6234.36
673.428	6035.71
673.619	6080.76
673.809	5904.64
674	6015.23
674.191	6039.8
674.382	5968.12
674.573	6043.9
674.764	5890.3
674.954	5806.33
675.145	5830.91
675.336	5794.04
675.527	5781.76
675.717	5894.4
675.908	5824.76
676.099	5726.46
676.289	5660.93
676.48	5634.3
676.671	5607.68
676.861	5693.69
677.052	5669.12
677.243	5671.17
677.433	5486.85
677.624	5755.13
677.814	5587.2
678.005	5480.71
678.195	5576.96
678.386	5419.27
678.576	5576.96
678.767	5554.43
678.957	5482.75
679.148	5576.96
679.338	5542.14
679.529	5372.16
679.719	5339.4
679.909	5421.31
680.1	5478.66
680.29	5400.83
680.481	5306.63
680.671	5550.34
680.861	5163.27
681.052	5486.85
681.242	5417.22
681.432	5390.6
681.622	5200.13
681.813	5351.68
682.003	5333.25
682.193	5372.16
682.383	5447.94
682.573	5339.4
682.764	5271.81
682.954	5114.12
683.144	5210.37
683.334	5230.85
683.524	5212.42
683.714	5306.63
683.904	5173.51
684.094	5296.39
684.284	5212.42
684.474	5302.53
684.664	5191.94
684.854	5097.74
685.044	5134.6
685.234	4999.43
685.424	5064.97
685.614	4948.23
685.804	4792.59
685.994	4944.14
686.184	4960.52
686.374	5044.49
686.564	4933.9
686.753	4841.74
686.943	4989.19
687.133	4856.08
687.323	4915.47
687.513	4897.03
687.702	4864.27
687.892	4710.67
688.082	4710.67
688.272	4823.31
688.461	4786.44
688.651	4628.75
688.841	4849.93
689.03	4710.67
689.22	4638.99
689.41	4647.18
689.599	4677.9
689.789	4585.74
689.979	4440.34
690.168	4481.3
690.358	4436.24
690.547	4548.88
690.737	4473.11
690.926	4446.48
691.116	4348.18
691.305	4344.08
691.495	4409.62
691.684	4352.27
691.874	4389.14
692.063	4368.66
692.252	4301.08
692.442	4258.07
692.631	4241.68
692.82	4276.5
693.01	4235.54
693.199	4200.73
693.388	4102.42
693.578	4200.73
693.767	4043.03
693.956	3950.87
694.146	4118.81
694.335	4022.55
694.524	4127
694.713	4090.13
694.902	4131.09
695.092	4086.04
695.281	3995.93
695.47	4057.37
695.659	3920.15
695.848	3934.49
696.037	4057.37
696.226	3950.87
696.415	4016.41
696.604	3981.59
696.793	3957.02
696.982	3961.11
697.171	3903.77
697.36	4038.94
697.549	3825.95
697.738	4049.18
697.927	3938.59
698.116	3903.77
698.305	4016.41
698.494	4008.22
698.683	3985.69
698.872	3860.76
699.061	3932.44
699.25	3883.29
699.438	3760.41
699.627	3762.46
699.816	3850.52
700.005	3864.86
700.193	3823.9
700.382	3678.49
700.571	3799.32
700.76	3651.87
700.948	3817.76
701.137	3703.07
701.326	3670.3
701.514	3672.35
701.703	3881.24
701.892	3694.88
702.08	3676.45
702.269	3696.92
702.457	3696.92
702.646	3617.05
702.834	3619.1
703.023	3686.69
703.212	3762.46
703.4	3598.62
703.589	3561.76
703.777	3778.84
703.965	3553.57
704.154	3698.97
704.342	3545.38
704.531	3731.74
704.719	3545.38
704.907	3701.02
705.096	3725.6
705.284	3399.97
705.472	3553.57
705.661	3578.14
705.849	3608.86
706.037	3604.77
706.226	3563.81
706.414	3549.47
706.602	3498.27
706.79	3692.83
706.979	3629.34
707.167	3655.97
707.355	3494.18
707.543	3553.57
707.731	3567.9
707.919	3479.84
708.107	3553.57
708.296	3490.08
708.484	3539.23
708.672	3561.76
708.86	3440.93
709.048	3555.62
709.236	3557.66
709.424	3473.7
709.612	3574.05
709.8	3506.46
709.988	3410.21
710.176	3598.62
710.364	3524.9
710.551	3471.65
710.739	3541.28
710.927	3273
711.115	3451.17
711.303	3594.53
711.491	3488.03
711.679	3402.02
711.866	3434.78
712.054	3406.11
712.242	3537.18
712.43	3506.46
712.617	3447.07
712.805	3496.22
712.993	3434.78
713.181	3402.02
713.368	3371.3
713.556	3483.94
713.744	3244.32
713.931	3471.65
714.119	3424.55
714.306	3442.98
714.494	3449.12
714.682	3406.11
714.869	3316
715.057	3612.96
715.244	3207.46
715.432	3436.83
715.619	3475.74
715.807	3424.55
715.994	3399.97
716.182	3442.98
716.369	3352.87
716.556	3402.02
716.744	3404.07
716.931	3414.31
717.119	3522.85
717.306	3393.83
717.493	3244.32
717.681	3305.76
717.868	3356.96
718.055	3287.33
718.242	3330.34
718.43	3424.55
718.617	3283.24
718.804	3373.35
718.991	3301.67
719.179	3428.64
719.366	3232.04
719.553	3318.05
719.74	3293.48
719.927	3369.25
720.114	3289.38
720.301	3264.8
720.488	3262.76
720.676	3240.23
720.863	3299.62
721.05	3348.77
721.237	3266.85
721.424	3338.53
721.611	3268.9
721.798	3320.1
721.985	3260.71
722.172	3283.24
722.358	3168.55
722.545	3346.72
722.732	3117.35
722.919	3287.33
723.106	3236.13
723.293	3281.19
723.48	3225.89
723.667	3127.59
723.853	3154.21
724.04	3270.95
724.227	3377.44
724.414	3074.34
724.6	3123.49
724.787	3197.22
724.974	3156.26
725.161	3180.84
725.347	3170.6
725.534	3111.21
725.72	3154.21
725.907	3164.45
726.094	3148.07
726.28	3178.79
726.467	3080.49
726.653	3254.56
726.84	3129.64
727.027	3238.18
727.213	3082.53
727.4	3184.93
727.586	3080.49
727.773	3150.12
727.959	3096.87
728.145	3035.43
728.332	3111.21
728.518	3078.44
728.705	3125.54
728.891	3096.87
729.077	3094.82
729.264	2973.99
729.45	3090.73
729.636	3166.5
729.823	3119.4
730.009	3023.14
730.195	3135.78
730.382	3219.75
730.568	3156.26
730.754	2986.28
730.94	2976.04
731.126	3025.19
731.313	3043.62
731.499	2982.18
731.685	3070.25
731.871	3064.1
732.057	3064.1
732.243	3008.81
732.429	2916.65
732.615	3053.86
732.801	2840.87
732.987	2971.94
733.173	2871.59
733.359	3010.86
733.545	3002.66
733.731	2943.27
733.917	2918.7
734.103	2935.08
734.289	2978.09
734.475	2971.94
734.661	2908.46
734.847	2982.18
735.033	2978.09
735.219	2930.98
735.404	2869.55
735.59	2939.18
735.776	2883.88
735.962	2861.35
736.148	2959.66
736.333	2920.74
736.519	2906.41
736.705	2822.44
736.89	2838.83
737.076	2791.72
737.262	2822.44
737.447	2728.24
737.633	2744.62
737.819	2816.3
738.004	2900.27
738.19	2720.04
738.375	2822.44
738.561	2840.87
738.747	2853.16
738.932	2711.85
739.118	2799.91
739.303	2771.24
739.489	2877.74
739.674	2857.26
739.859	2648.36
740.045	2783.53
740.23	2728.24
740.416	2691.37
740.601	2775.34
740.786	2689.32
740.972	2586.93
741.157	2656.56
741.342	2625.84
741.528	2580.78
741.713	2599.21
741.898	2609.45
742.084	2629.93
742.269	2683.18
742.454	2679.08
742.639	2670.89
742.824	2545.97
743.01	2558.25
743.195	2588.97
743.38	2545.97
743.565	2634.03
743.75	2525.49
743.935	2462
744.12	2480.43
744.305	2511.15
744.49	2570.54
744.675	2392.37
744.86	2474.29
745.045	2462
745.23	2457.9
745.415	2369.84
745.6	2521.39
745.785	2349.36
745.97	2324.79
746.155	2310.45
746.34	2341.17
746.525	2271.54
746.71	2279.73
746.895	2283.83
747.079	2324.79
747.264	2249.01
747.449	2230.58
747.634	2173.24
747.819	2275.63
748.003	2185.52
748.188	2167.09
748.373	2201.91
748.557	2203.96
748.742	2095.41
748.927	1960.25
749.111	2234.68
749.296	2165.04
749.481	2029.88
749.665	2150.71
749.85	2060.6
750.034	2044.21
750.219	2091.32
750.404	2093.37
750.588	2019.64
750.773	1921.34
750.957	1984.82
751.141	1952.06
751.326	1933.62
751.51	1868.09
751.695	1945.91
751.879	1902.9
752.064	1990.97
752.248	1988.92
752.432	1894.71
752.617	1927.48
752.801	1964.34
752.985	1890.62
753.17	1790.27
753.354	1759.55
753.538	1820.99
753.722	1837.37
753.907	1802.55
754.091	1700.16
754.275	1724.73
754.459	1767.74
754.643	1702.2
754.828	1548.61
755.012	1712.44
755.196	1681.72
755.38	1620.28
755.564	1710.4
755.748	1628.48
755.932	1638.72
756.116	1626.43
756.3	1624.38
756.484	1556.8
756.668	1581.37
756.852	1515.84
757.036	1573.18
757.22	1526.08
757.404	1452.35
757.588	1509.69
757.772	1513.79
757.956	1524.03
758.14	1476.93
758.323	1476.93
758.507	1474.88
758.691	1444.16
758.875	1470.78
759.059	1442.11
759.242	1372.48
759.426	1382.72
759.61	1431.87
759.794	1468.73
759.977	1374.53
760.161	1534.27
760.345	1456.45
760.528	1388.86
760.712	1374.53
760.895	1347.9
761.079	1304.9
761.263	1358.14
761.446	1278.27
761.63	1284.42
761.813	1397.06
761.997	1395.01
762.18	1288.51
762.364	1376.58
762.547	1251.65
762.731	1093.96
762.914	1263.94
763.098	1261.89
763.281	1290.56
763.464	1222.98
763.648	1155.4
763.831	1198.4
764.015	1247.55
764.198	1288.51
764.381	1188.16
764.564	1194.31
764.748	1218.88
764.931	1225.03
765.114	1165.64
765.297	1196.36
765.481	1184.07
765.664	1171.78
765.847	1225.03
766.03	1177.92
766.213	1165.64
766.397	1169.73
766.58	1130.82
766.763	1229.12
766.946	1112.39
767.129	1038.66
767.312	1212.74
767.495	1083.72
767.678	1190.21
767.861	1120.58
768.044	1081.67
768.227	1116.48
768.41	999.75
768.593	1079.62
768.776	1106.24
768.959	1024.33
769.142	1126.72
769.324	964.93
769.507	1136.96
769.69	1007.94
769.873	1009.99
770.056	1071.43
770.239	1042.76
770.421	1009.99
770.604	1118.53
770.787	989.51
770.97	1075.52
771.152	1001.8
771.335	1073.48
771.518	991.56
771.7	1032.52
771.883	1069.38
772.066	966.98
772.248	899.4
772.431	1079.62
772.613	952.65
772.796	966.98
772.978	977.22
773.161	1067.33
773.343	938.31
773.526	876.87
773.708	926.02
773.891	973.13
774.073	932.17
774.256	964.93
774.438	989.51
774.621	909.64
774.803	823.62
774.985	835.91
775.168	878.92
775.35	805.19
775.532	909.64
775.715	833.86
775.897	788.81
776.079	837.96
776.261	768.33
776.444	833.86
776.626	870.73
776.808	739.66
776.99	706.89
777.173	690.51
777.355	827.72
777.537	764.23
777.719	764.23
777.901	739.66
778.083	729.42
778.265	721.23
778.447	835.91
778.629	723.27
778.811	827.72
778.993	811.34
779.175	846.15
779.357	747.85
779.539	627.02
779.721	702.79
779.903	723.27
780.085	739.66
780.267	731.47
780.449	686.41
780.631	694.6
780.812	737.61
780.994	618.83
781.176	627.02
781.358	680.27
781.54	641.36
781.721	571.72
781.903	663.88
782.085	649.55
782.267	622.92
782.448	610.64
782.63	581.96
782.812	614.73
782.993	657.74
783.175	631.12
783.357	569.68
783.538	567.63
783.72	584.01
783.901	559.44
784.083	612.68
784.264	604.49
784.446	518.48
784.627	514.38
784.809	649.55
784.99	553.29
785.172	522.57
785.353	461.13
785.535	543.05
785.716	538.96
785.897	473.42
786.079	581.96
786.26	604.49
786.441	526.67
786.623	479.57
786.804	512.33
786.985	553.29
787.167	514.38
787.348	426.32
787.529	577.87
787.71	457.04
787.891	493.9
788.073	448.85
788.254	518.48
788.435	381.26
788.616	422.22
788.797	461.13
788.978	440.65
789.159	426.32
789.34	479.57
789.522	491.85
789.703	495.95
789.884	498
790.065	420.17
790.246	500.05
790.427	422.22
790.607	411.98
790.788	483.66
790.969	454.99
791.15	414.03
791.331	358.74
791.512	424.27
791.693	391.5
791.874	387.41
792.054	428.37
792.235	379.22
792.416	309.58
792.597	360.78
792.778	381.26
792.958	342.35
793.139	368.98
793.32	360.78
793.5	301.39
793.681	360.78
793.862	411.98
794.042	303.44
794.223	285.01
794.404	356.69
794.584	295.25
794.765	407.89
794.945	360.78
795.126	338.26
795.306	291.15
795.487	303.44
795.667	348.5
795.848	383.31
796.028	356.69
796.209	282.96
796.389	348.5
796.57	354.64
796.75	309.58
796.93	381.26
797.111	278.87
797.291	289.1
797.471	379.22
797.652	330.06
797.832	303.44
798.012	379.22
798.192	354.64
798.373	291.15
798.553	264.53
798.733	311.63
798.913	282.96
799.093	252.24
799.274	319.82
799.454	354.64
799.634	297.3
799.814	371.02
799.994	305.49
800.174	250.19
800.354	311.63
800.534	252.24
800.714	223.57
800.894	272.72
801.074	291.15
801.254	254.29
801.434	258.39
801.614	205.14
801.794	248.15
801.974	772.43
802.154	317.78
802.334	276.82
802.514	268.63
802.693	266.58
802.873	293.2
803.053	256.34
803.233	289.1
803.413	211.28
803.592	233.81
803.772	184.66
803.952	287.06
804.131	219.47
804.311	217.43
804.491	266.58
804.67	233.81
804.85	215.38
805.03	282.96
805.209	239.95
805.389	264.53
805.568	305.49
805.748	295.25
805.928	198.99
806.107	246.1
806.287	319.82
806.466	274.77
806.646	176.47
806.825	254.29
807.004	223.57
807.184	280.91
807.363	252.24
807.543	229.71
807.722	190.8
807.901	194.9
808.081	256.34
808.26	135.51
808.439	178.51
808.619	248.15
808.798	276.82
808.977	184.66
809.156	227.67
809.336	215.38
809.515	280.91
809.694	90.45
809.873	235.86
810.052	198.99
810.231	141.65
810.411	176.47
810.59	153.94
810.769	158.03
810.948	131.41
811.127	166.23
811.306	237.91
811.485	188.75
811.664	207.19
811.843	219.47
812.022	231.76
812.201	162.13
812.38	205.14
812.559	186.71
812.737	149.84
812.916	176.47
813.095	112.98
813.274	133.46
813.453	194.9
813.632	209.23
813.811	158.03
813.989	182.61
814.168	213.33
814.347	108.88
814.526	182.61
814.704	129.36
814.883	174.42
815.062	84.31
815.24	115.03
815.419	164.18
815.598	178.51
815.776	153.94
815.955	133.46
816.133	139.6
816.312	196.95
816.49	108.88
816.669	151.89
816.847	174.42
817.026	147.8
817.204	164.18
817.383	121.17
817.561	123.22
817.74	151.89
817.918	96.6
818.097	119.12
818.275	139.6
818.453	153.94
818.632	133.46
818.81	209.23
818.988	141.65
819.167	145.75
819.345	76.12
819.523	135.51
819.701	149.84
819.879	153.94
820.058	158.03
820.236	135.51
820.414	131.41
820.592	166.23
820.77	153.94
820.948	67.92
821.127	153.94
821.305	104.79
821.483	98.64
821.661	180.56
821.839	121.17
822.017	162.13
822.195	74.07
822.373	129.36
822.551	65.88
822.729	131.41
822.907	80.21
823.085	131.41
823.262	94.55
823.44	96.6
823.618	57.68
823.796	125.27
823.974	76.12
824.152	129.36
824.329	67.92
824.507	80.21
824.685	137.56
824.863	139.6
825.04	92.5
825.218	158.03
825.396	55.64
825.574	82.26
825.751	123.22
825.929	170.32
826.107	164.18
826.284	155.99
826.462	119.12
826.639	92.5
826.817	-22.19
826.994	100.69
827.172	112.98
827.349	155.99
827.527	51.54
827.704	84.31
827.882	129.36
828.059	160.08
828.237	82.26
828.414	31.06
828.591	65.88
828.769	123.22
828.946	49.49
829.124	90.45
829.301	88.4
829.478	112.98
829.655	51.54
829.833	61.78
830.01	37.2
830.187	82.26
830.364	45.4
830.542	24.92
830.719	186.71
830.896	90.45
831.073	57.68
831.25	121.17
831.427	67.92
831.604	-30.38
831.782	121.17
831.959	192.85
832.136	41.3
832.313	162.13
832.49	31.06
832.667	88.4
832.844	-34.47
833.021	182.61
833.198	33.11
833.374	4.44
833.551	86.36
833.728	74.07
833.905	166.23
834.082	35.16
834.259	37.2
834.436	82.26
834.612	41.3
834.789	158.03
834.966	102.74
835.143	43.35
835.319	6.49
835.496	100.69
835.673	39.25
835.85	121.17
836.026	80.21
836.203	92.5
836.38	65.88
836.556	112.98
836.733	47.44
836.909	104.79
837.086	59.73
837.262	12.63
837.439	55.64
837.616	6.49
837.792	115.03
837.968	51.54
838.145	80.21
838.321	24.92
838.498	92.5
838.674	65.88
838.851	139.6
839.027	78.16
839.203	55.64
839.38	61.78
839.556	-13.99
839.732	96.6
839.909	26.96
840.085	67.92
840.261	55.64
840.437	16.73
840.614	92.5
840.79	104.79
840.966	59.73
841.142	92.5
841.318	35.16
841.494	78.16
841.671	43.35
841.847	115.03
842.023	41.3
842.199	-16.04
842.375	129.36
842.551	86.36
842.727	45.4
842.903	84.31
843.079	14.68
843.255	121.17
843.431	16.73
843.607	80.21
843.783	-9.9
843.959	129.36
844.134	65.88
844.31	39.25
844.486	86.36
844.662	59.73
844.838	82.26
845.013	110.93
845.189	4.44
845.365	108.88
845.541	31.06
845.716	45.4
845.892	49.49
846.068	35.16
846.244	-26.28
846.419	29.01
846.595	45.4
846.77	49.49
846.946	31.06
847.122	-16.04
847.297	29.01
847.473	35.16
847.648	69.97
847.824	-5.8
847.999	39.25
848.175	112.98
848.35	82.26
848.526	61.78
848.701	92.5
848.876	102.74
849.052	43.35
849.227	82.26
849.403	6.49
849.578	53.59
849.753	63.83
849.929	24.92
850.104	8.53
850.279	4.44
850.454	26.96
850.63	16.73
850.805	112.98
850.98	18.77
851.155	10.58
851.33	39.25
851.505	-42.67
851.681	76.12
851.856	18.77
852.031	35.16
852.206	16.73
852.381	63.83
852.556	26.96
852.731	-28.33
852.906	51.54
853.081	98.64
853.256	22.87
853.431	49.49
853.606	82.26
853.781	14.68
853.956	0.34
854.131	57.68
854.305	-40.62
854.48	2.39
854.655	-30.38
854.83	22.87
855.005	31.06
855.18	12.63
855.354	31.06
855.529	-22.19
855.704	-24.23
855.879	18.77
856.053	10.58
856.228	63.83
856.403	-22.19
856.577	-22.19
856.752	-46.76
856.926	51.54
857.101	31.06
857.276	0.34
857.45	49.49
857.625	47.44
857.799	-13.99
857.974	-20.14
858.148	61.78
858.323	24.92
858.497	92.5
858.672	20.82
858.846	35.16
859.02	55.64
859.195	18.77
859.369	55.64
859.543	0.34
859.718	45.4
859.892	16.73
860.066	-1.71
860.241	-28.33
860.415	26.96
860.589	20.82
860.763	18.77
860.938	37.2
861.112	78.16
861.286	-46.76
861.46	-18.09
861.634	110.93
861.808	29.01
861.982	78.16
862.157	-30.38
862.331	-32.43
862.505	8.53
862.679	14.68
862.853	106.84
863.027	41.3
863.201	43.35
863.375	-38.57
863.549	57.68
863.722	-40.62
863.896	14.68
864.07	37.2
864.244	6.49
864.418	43.35
864.592	22.87
864.766	-26.28
864.939	-26.28
865.113	-26.28
865.287	47.44
865.461	53.59
865.634	63.83
865.808	10.58
865.982	39.25
866.156	-38.57
866.329	100.69
866.503	45.4
866.676	0.34
866.85	-79.53
867.024	31.06
867.197	74.07
867.371	0.34
867.544	31.06
867.718	-59.05
867.891	-22.19
868.065	-11.95
868.238	-57
868.412	41.3
868.585	-22.19
868.759	78.16
868.932	-65.19
869.105	-42.67
869.279	35.16
869.452	-42.67
869.625	22.87
869.799	-91.82
869.972	-36.52
870.145	35.16
870.319	86.36
870.492	-48.81
870.665	10.58
870.838	20.82
871.011	-13.99
871.185	-9.9
871.358	-63.15
871.531	10.58
871.704	-24.23
871.877	6.49
872.05	0.34
872.223	-24.23
872.396	51.54
872.569	18.77
872.742	47.44
872.915	8.53
873.088	8.53
873.261	-22.19
873.434	-38.57
873.607	35.16
873.78	110.93
873.953	-3.75
874.126	10.58
874.299	4.44
874.471	-13.99
874.644	-13.99
874.817	-7.85
874.99	63.83
875.163	-26.28
875.335	16.73
875.508	0.34
875.681	45.4
875.853	35.16
876.026	-42.67
876.199	-54.95
876.371	98.64
876.544	-38.57
876.717	24.92
876.889	-42.67
877.062	41.3
877.234	-34.47
877.407	-30.38
877.579	-34.47
877.752	-24.23
877.924	2.39
878.097	82.26
878.269	-38.57
878.442	-20.14
878.614	0.34
878.786	-42.67
878.959	-9.9
879.131	-13.99
879.303	14.68
879.476	-22.19
879.648	-16.04
879.82	24.92
879.993	-87.72
880.165	-44.71
880.337	-20.14
880.509	2.39
880.681	37.2
880.854	-7.85
881.026	-11.95
881.198	2.39
881.37	14.68
881.542	26.96
881.714	-30.38
881.886	67.92
882.058	-32.43
882.23	18.77
882.402	-5.8
882.574	-32.43
882.746	-20.14
882.918	69.97
883.09	-36.52
883.262	-5.8
883.434	-9.9
883.606	8.53
883.778	49.49
883.95	39.25
884.122	41.3
884.293	53.59
884.465	2.39
884.637	47.44
884.809	-36.52
884.98	10.58
885.152	-20.14
885.324	-26.28
885.496	-16.04
885.667	33.11
885.839	-36.52
886.011	29.01
886.182	6.49
886.354	-26.28
886.525	33.11
886.697	-3.75
886.869	18.77
887.04	10.58
887.212	43.35
887.383	37.2
887.555	-20.14
887.726	-22.19
887.897	2.39
888.069	-24.23
888.24	2.39
888.412	82.26
888.583	2.39
888.754	2.39
888.926	-89.77
889.097	-67.24
889.268	-104.11
889.44	43.35
889.611	-85.67
889.782	-59.05
889.953	-44.71
890.125	39.25
890.296	-26.28
890.467	-42.67
890.638	-34.47
890.809	-28.33
890.98	-32.43
891.151	-9.9
891.323	-11.95
891.494	-77.48
891.665	20.82
891.836	-1.71
892.007	-24.23
892.178	-3.75
892.349	-5.8
892.52	-36.52
892.691	-22.19
892.862	8.53
893.032	-34.47
893.203	-18.09
893.374	-16.04
893.545	22.87
893.716	14.68
893.887	-77.48
894.057	-50.86
894.228	2.39
894.399	-67.24
894.57	10.58
894.74	-13.99
894.911	22.87
895.082	-9.9
895.253	-52.91
895.423	-38.57
895.594	55.64
895.764	-13.99
895.935	8.53
896.106	35.16
896.276	-36.52
896.447	-5.8
896.617	-52.91
896.788	31.06
896.958	12.63
897.129	41.3
897.299	-77.48
897.47	43.35
897.64	26.96
897.81	10.58
897.981	-3.75
898.151	4.44
898.322	-26.28
898.492	-5.8
898.662	-36.52
898.832	-63.15
899.003	-7.85
899.173	-36.52
899.343	18.77
899.513	-34.47
