Data from USB4F104151__172__10-27-34-939.txt Node

Date: Wed Mar 12 10:27:34 EDT 2025
User: louis
Spectrometer: USB4F10415
Trigger mode: 4
Integration Time (sec): 3.000000E-2
Scans to average: 1
Electric dark correction enabled: true
Nonlinearity correction enabled: false
Boxcar width: 0
XAxis mode: Wavelengths
Number of Pixels in Spectrum: 3648
>>>>>Begin Spectral Data<<<<<
178.204	-115.2
178.424	-115.2
178.644	-115.2
178.864	-80.38
179.084	-92.67
179.304	22.02
179.524	-33.28
179.744	17.92
179.964	65.02
180.184	7.68
180.404	-25.09
180.624	-25.09
180.844	-18.94
181.064	-66.05
181.283	75.26
181.503	-16.9
181.723	-2.56
181.943	-10.75
182.163	24.06
182.383	-6.66
182.602	114.17
182.822	69.12
183.042	28.16
183.262	-10.75
183.482	-0.51
183.701	44.54
183.921	99.84
184.141	5.63
184.361	44.54
184.58	-31.23
184.8	36.35
185.02	32.26
185.239	48.64
185.459	17.92
185.679	1.54
185.898	-16.9
186.118	40.45
186.338	44.54
186.557	101.89
186.777	-10.75
186.997	-37.38
187.216	42.5
187.436	34.3
187.655	101.89
187.875	9.73
188.095	38.4
188.314	54.78
188.534	105.98
188.753	69.12
188.973	54.78
189.192	1.54
189.412	38.4
189.631	15.87
189.851	28.16
190.07	122.37
190.29	26.11
190.509	50.69
190.729	-8.7
190.948	81.41
191.168	105.98
191.387	56.83
191.607	30.21
191.826	103.93
192.045	17.92
192.265	-23.04
192.484	36.35
192.704	-31.23
192.923	26.11
193.142	130.56
193.362	44.54
193.581	30.21
193.8	36.35
194.02	5.63
194.239	85.5
194.458	42.5
194.678	22.02
194.897	56.83
195.116	44.54
195.335	50.69
195.555	9.73
195.774	32.26
195.993	38.4
196.212	-47.62
196.432	-14.85
196.651	-2.56
196.87	-14.85
197.089	95.74
197.308	67.07
197.528	42.5
197.747	-31.23
197.966	9.73
198.185	79.36
198.404	69.12
198.623	136.7
198.842	108.03
199.062	153.09
199.281	42.5
199.5	-6.66
199.719	71.17
199.938	26.11
200.157	26.11
200.376	15.87
200.595	24.06
200.814	56.83
201.033	77.31
201.252	75.26
201.471	46.59
201.69	103.93
201.909	11.78
202.128	118.27
202.347	65.02
202.566	15.87
202.785	13.82
203.004	-59.9
203.223	144.89
203.442	11.78
203.661	65.02
203.879	17.92
204.098	60.93
204.317	13.82
204.536	34.3
204.755	15.87
204.974	105.98
205.193	-23.04
205.411	-29.18
205.63	138.75
205.849	13.82
206.068	69.12
206.287	-0.51
206.505	95.74
206.724	19.97
206.943	-31.23
207.162	52.74
207.381	48.64
207.599	1.54
207.818	62.98
208.037	50.69
208.255	48.64
208.474	30.21
208.693	-23.04
208.911	97.79
209.13	79.36
209.349	-39.42
209.567	103.93
209.786	101.89
210.005	7.68
210.223	75.26
210.442	-6.66
210.661	42.5
210.879	65.02
211.098	-6.66
211.316	38.4
211.535	-4.61
211.753	65.02
211.972	-84.48
212.191	103.93
212.409	7.68
212.628	26.11
212.846	19.97
213.065	-4.61
213.283	97.79
213.502	-10.75
213.72	32.26
213.938	-25.09
214.157	38.4
214.375	54.78
214.594	79.36
214.812	22.02
215.031	99.84
215.249	77.31
215.467	67.07
215.686	26.11
215.904	128.51
216.122	75.26
216.341	58.88
216.559	5.63
216.778	73.21
216.996	26.11
217.214	13.82
217.432	22.02
217.651	44.54
217.869	11.78
218.087	89.6
218.306	36.35
218.524	11.78
218.742	38.4
218.96	58.88
219.179	13.82
219.397	108.03
219.615	110.08
219.833	73.21
220.051	-10.75
220.27	60.93
220.488	17.92
220.706	-16.9
220.924	24.06
221.142	65.02
221.36	-25.09
221.578	71.17
221.796	-8.7
222.015	32.26
222.233	79.36
222.451	56.83
222.669	9.73
222.887	67.07
223.105	44.54
223.323	-31.23
223.541	44.54
223.759	38.4
223.977	-18.94
224.195	79.36
224.413	48.64
224.631	112.13
224.849	60.93
225.067	99.84
225.285	36.35
225.503	58.88
225.721	-47.62
225.939	91.65
226.157	-4.61
226.375	136.7
226.592	-25.09
226.81	36.35
227.028	15.87
227.246	40.45
227.464	67.07
227.682	122.37
227.9	108.03
228.117	91.65
228.335	7.68
228.553	-16.9
228.771	17.92
228.989	56.83
229.206	1.54
229.424	-6.66
229.642	15.87
229.86	-16.9
230.077	79.36
230.295	32.26
230.513	22.02
230.731	50.69
230.948	67.07
231.166	130.56
231.384	-6.66
231.601	30.21
231.819	26.11
232.037	105.98
232.254	52.74
232.472	-29.18
232.689	73.21
232.907	148.99
233.125	65.02
233.342	71.17
233.56	71.17
233.777	30.21
233.995	81.41
234.213	44.54
234.43	62.98
234.648	44.54
234.865	19.97
235.083	77.31
235.3	54.78
235.518	46.59
235.735	46.59
235.953	77.31
236.17	28.16
236.388	50.69
236.605	50.69
236.822	46.59
237.04	56.83
237.257	15.87
237.475	46.59
237.692	48.64
237.909	38.4
238.127	-0.51
238.344	148.99
238.562	65.02
238.779	5.63
238.996	19.97
239.214	40.45
239.431	44.54
239.648	26.11
239.865	95.74
240.083	69.12
240.3	58.88
240.517	-39.42
240.735	75.26
240.952	79.36
241.169	30.21
241.386	67.07
241.603	-51.71
241.821	-20.99
242.038	67.07
242.255	79.36
242.472	97.79
242.689	42.5
242.907	56.83
243.124	30.21
243.341	-18.94
243.558	83.45
243.775	58.88
243.992	-12.8
244.209	108.03
244.426	103.93
244.643	83.45
244.86	48.64
245.078	105.98
245.295	26.11
245.512	30.21
245.729	17.92
245.946	32.26
246.163	83.45
246.38	44.54
246.597	32.26
246.814	24.06
247.031	62.98
247.248	93.69
247.464	40.45
247.681	79.36
247.898	87.55
248.115	60.93
248.332	58.88
248.549	95.74
248.766	17.92
248.983	-0.51
249.2	116.22
249.417	28.16
249.633	103.93
249.85	22.02
250.067	-0.51
250.284	62.98
250.501	54.78
250.717	73.21
250.934	52.74
251.151	99.84
251.368	3.58
251.585	44.54
251.801	95.74
252.018	-6.66
252.235	62.98
252.451	50.69
252.668	44.54
252.885	5.63
253.102	46.59
253.318	46.59
253.535	-14.85
253.752	-37.38
253.968	85.5
254.185	44.54
254.401	-35.33
254.618	81.41
254.835	38.4
255.051	69.12
255.268	110.08
255.484	54.78
255.701	36.35
255.917	36.35
256.134	81.41
256.351	75.26
256.567	-2.56
256.784	73.21
257	81.41
257.217	58.88
257.433	87.55
257.65	34.3
257.866	52.74
258.082	73.21
258.299	54.78
258.515	36.35
258.732	58.88
258.948	26.11
259.165	77.31
259.381	50.69
259.597	83.45
259.814	71.17
260.03	13.82
260.246	58.88
260.463	3.58
260.679	54.78
260.895	71.17
261.112	67.07
261.328	71.17
261.544	44.54
261.761	71.17
261.977	30.21
262.193	58.88
262.409	28.16
262.626	42.5
262.842	46.59
263.058	15.87
263.274	28.16
263.49	17.92
263.707	95.74
263.923	69.12
264.139	-6.66
264.355	-6.66
264.571	75.26
264.787	42.5
265.004	54.78
265.22	42.5
265.436	36.35
265.652	75.26
265.868	50.69
266.084	11.78
266.3	50.69
266.516	26.11
266.732	-2.56
266.948	73.21
267.164	19.97
267.38	136.7
267.596	79.36
267.812	89.6
268.028	73.21
268.244	5.63
268.46	26.11
268.676	30.21
268.892	62.98
269.108	46.59
269.324	67.07
269.54	32.26
269.756	110.08
269.972	-33.28
270.188	77.31
270.403	77.31
270.619	60.93
270.835	62.98
271.051	38.4
271.267	28.16
271.483	54.78
271.698	48.64
271.914	77.31
272.13	83.45
272.346	56.83
272.562	108.03
272.777	60.93
272.993	99.84
273.209	32.26
273.425	87.55
273.64	50.69
273.856	38.4
274.072	75.26
274.287	17.92
274.503	46.59
274.719	26.11
274.934	58.88
275.15	58.88
275.366	112.13
275.581	42.5
275.797	32.26
276.012	15.87
276.228	-18.94
276.444	42.5
276.659	91.65
276.875	32.26
277.09	38.4
277.306	15.87
277.521	97.79
277.737	13.82
277.952	124.41
278.168	75.26
278.383	26.11
278.599	52.74
278.814	44.54
279.03	-8.7
279.245	93.69
279.461	-43.52
279.676	19.97
279.892	46.59
280.107	11.78
280.322	32.26
280.538	54.78
280.753	36.35
280.969	-4.61
281.184	32.26
281.399	101.89
281.615	11.78
281.83	-23.04
282.045	-12.8
282.26	-0.51
282.476	24.06
282.691	48.64
282.906	52.74
283.122	34.3
283.337	17.92
283.552	65.02
283.767	17.92
283.983	110.08
284.198	40.45
284.413	17.92
284.628	26.11
284.843	128.51
285.058	38.4
285.274	15.87
285.489	-10.75
285.704	105.98
285.919	-8.7
286.134	87.55
286.349	50.69
286.564	71.17
286.779	81.41
286.995	75.26
287.21	87.55
287.425	89.6
287.64	17.92
287.855	50.69
288.07	-59.9
288.285	48.64
288.5	-2.56
288.715	67.07
288.93	34.3
289.145	13.82
289.36	71.17
289.575	62.98
289.79	83.45
290.004	97.79
290.219	22.02
290.434	26.11
290.649	-23.04
290.864	-29.18
291.079	56.83
291.294	54.78
291.509	67.07
291.724	28.16
291.938	-12.8
292.153	97.79
292.368	114.17
292.583	140.8
292.798	28.16
293.012	24.06
293.227	67.07
293.442	46.59
293.657	77.31
293.871	146.94
294.086	56.83
294.301	65.02
294.516	65.02
294.73	112.13
294.945	44.54
295.16	58.88
295.374	75.26
295.589	103.93
295.804	60.93
296.018	38.4
296.233	32.26
296.447	52.74
296.662	32.26
296.877	144.89
297.091	97.79
297.306	50.69
297.52	69.12
297.735	62.98
297.949	48.64
298.164	69.12
298.378	58.88
298.593	1.54
298.807	-10.75
299.022	120.32
299.236	5.63
299.451	54.78
299.665	52.74
299.88	30.21
300.094	34.3
300.309	75.26
300.523	30.21
300.737	-4.61
300.952	11.78
301.166	103.93
301.381	30.21
301.595	28.16
301.809	26.11
302.024	46.59
302.238	32.26
302.452	116.22
302.667	34.3
302.881	17.92
303.095	22.02
303.309	36.35
303.524	69.12
303.738	34.3
303.952	67.07
304.166	32.26
304.381	22.02
304.595	44.54
304.809	44.54
305.023	95.74
305.237	13.82
305.452	28.16
305.666	138.75
305.88	71.17
306.094	56.83
306.308	42.5
306.522	105.98
306.736	91.65
306.95	79.36
307.164	19.97
307.379	-18.94
307.593	103.93
307.807	87.55
308.021	50.69
308.235	42.5
308.449	11.78
308.663	40.45
308.877	138.75
309.091	22.02
309.305	62.98
309.519	58.88
309.733	38.4
309.947	52.74
310.161	30.21
310.374	46.59
310.588	50.69
310.802	73.21
311.016	22.02
311.23	-27.14
311.444	36.35
311.658	56.83
311.872	48.64
312.085	56.83
312.299	114.17
312.513	71.17
312.727	75.26
312.941	5.63
313.154	75.26
313.368	73.21
313.582	69.12
313.796	128.51
314.009	56.83
314.223	81.41
314.437	13.82
314.651	19.97
314.864	79.36
315.078	116.22
315.292	-2.56
315.505	67.07
315.719	157.18
315.933	9.73
316.146	24.06
316.36	22.02
316.573	46.59
316.787	73.21
317.001	60.93
317.214	-12.8
317.428	101.89
317.641	91.65
317.855	71.17
318.068	128.51
318.282	65.02
318.495	124.41
318.709	101.89
318.922	60.93
319.136	97.79
319.349	-0.51
319.563	-6.66
319.776	11.78
319.99	1.54
320.203	140.8
320.417	50.69
320.63	42.5
320.843	159.23
321.057	-4.61
321.27	46.59
321.483	48.64
321.697	87.55
321.91	77.31
322.124	48.64
322.337	60.93
322.55	60.93
322.763	38.4
322.977	5.63
323.19	36.35
323.403	99.84
323.617	58.88
323.83	79.36
324.043	87.55
324.256	9.73
324.469	73.21
324.683	108.03
324.896	26.11
325.109	42.5
325.322	67.07
325.535	71.17
325.748	77.31
325.962	34.3
326.175	93.69
326.388	-14.85
326.601	120.32
326.814	26.11
327.027	65.02
327.24	95.74
327.453	40.45
327.666	69.12
327.879	124.41
328.092	79.36
328.305	83.45
328.518	-29.18
328.731	13.82
328.944	52.74
329.157	17.92
329.37	-55.81
329.583	62.98
329.796	58.88
330.009	32.26
330.222	7.68
330.435	30.21
330.648	46.59
330.861	62.98
331.073	40.45
331.286	122.37
331.499	62.98
331.712	116.22
331.925	42.5
332.138	-23.04
332.35	108.03
332.563	83.45
332.776	140.8
332.989	-27.14
333.202	48.64
333.414	67.07
333.627	19.97
333.84	62.98
334.053	67.07
334.265	50.69
334.478	62.98
334.691	58.88
334.903	81.41
335.116	120.32
335.329	17.92
335.541	73.21
335.754	91.65
335.966	-10.75
336.179	95.74
336.392	105.98
336.604	58.88
336.817	65.02
337.029	75.26
337.242	116.22
337.454	24.06
337.667	69.12
337.88	103.93
338.092	75.26
338.305	91.65
338.517	60.93
338.729	9.73
338.942	93.69
339.154	46.59
339.367	89.6
339.579	-2.56
339.792	-4.61
340.004	89.6
340.217	-8.7
340.429	85.5
340.641	26.11
340.854	56.83
341.066	19.97
341.278	116.22
341.491	120.32
341.703	17.92
341.915	17.92
342.128	-27.14
342.34	26.11
342.552	108.03
342.764	44.54
342.977	108.03
343.189	71.17
343.401	77.31
343.613	73.21
343.826	26.11
344.038	-31.23
344.25	87.55
344.462	99.84
344.674	89.6
344.886	79.36
345.099	17.92
345.311	38.4
345.523	-6.66
345.735	1.54
345.947	91.65
346.159	75.26
346.371	97.79
346.583	40.45
346.795	81.41
347.007	75.26
347.219	118.27
347.431	34.3
347.643	112.13
347.855	15.87
348.067	79.36
348.279	22.02
348.491	81.41
348.703	44.54
348.915	60.93
349.127	3.58
349.339	89.6
349.551	101.89
349.763	54.78
349.975	114.17
350.187	42.5
350.399	120.32
350.61	101.89
350.822	26.11
351.034	26.11
351.246	42.5
351.458	48.64
351.669	122.37
351.881	75.26
352.093	44.54
352.305	87.55
352.517	108.03
352.728	44.54
352.94	67.07
353.152	75.26
353.363	1.54
353.575	128.51
353.787	42.5
353.999	50.69
354.21	87.55
354.422	46.59
354.633	42.5
354.845	-2.56
355.057	144.89
355.268	65.02
355.48	99.84
355.692	34.3
355.903	46.59
356.115	67.07
356.326	-18.94
356.538	93.69
356.749	38.4
356.961	114.17
357.172	54.78
357.384	71.17
357.595	67.07
357.807	48.64
358.018	75.26
358.23	91.65
358.441	95.74
358.653	73.21
358.864	24.06
359.075	81.41
359.287	58.88
359.498	105.98
359.709	22.02
359.921	67.07
360.132	58.88
360.344	5.63
360.555	50.69
360.766	26.11
360.977	-0.51
361.189	124.41
361.4	44.54
361.611	52.74
361.823	130.56
362.034	-18.94
362.245	50.69
362.456	36.35
362.667	22.02
362.879	26.11
363.09	75.26
363.301	79.36
363.512	34.3
363.723	50.69
363.935	89.6
364.146	93.69
364.357	5.63
364.568	15.87
364.779	122.37
364.99	69.12
365.201	60.93
365.412	67.07
365.623	60.93
365.834	71.17
366.045	165.37
366.256	114.17
366.467	69.12
366.678	103.93
366.889	46.59
367.1	83.45
367.311	108.03
367.522	1.54
367.733	48.64
367.944	132.61
368.155	-43.52
368.366	77.31
368.577	89.6
368.788	81.41
368.999	42.5
369.209	46.59
369.42	132.61
369.631	175.61
369.842	50.69
370.053	-4.61
370.264	122.37
370.474	-16.9
370.685	58.88
370.896	110.08
371.107	165.37
371.317	50.69
371.528	24.06
371.739	116.22
371.95	40.45
372.16	54.78
372.371	62.98
372.582	69.12
372.792	110.08
373.003	19.97
373.214	42.5
373.424	42.5
373.635	58.88
373.846	95.74
374.056	73.21
374.267	138.75
374.477	81.41
374.688	116.22
374.898	15.87
375.109	-2.56
375.319	116.22
375.53	58.88
375.74	42.5
375.951	116.22
376.161	34.3
376.372	136.7
376.582	30.21
376.793	93.69
377.003	-41.47
377.214	-6.66
377.424	40.45
377.635	54.78
377.845	38.4
378.055	122.37
378.266	60.93
378.476	48.64
378.686	50.69
378.897	50.69
379.107	101.89
379.317	22.02
379.528	7.68
379.738	77.31
379.948	48.64
380.158	79.36
380.369	65.02
380.579	50.69
380.789	62.98
380.999	148.99
381.21	9.73
381.42	132.61
381.63	136.7
381.84	83.45
382.05	99.84
382.261	99.84
382.471	108.03
382.681	-47.62
382.891	116.22
383.101	24.06
383.311	62.98
383.521	56.83
383.731	99.84
383.941	140.8
384.151	134.65
384.361	112.13
384.571	77.31
384.781	91.65
384.991	114.17
385.201	140.8
385.411	101.89
385.621	46.59
385.831	32.26
386.041	124.41
386.251	87.55
386.461	7.68
386.671	15.87
386.881	87.55
387.091	91.65
387.301	140.8
387.511	138.75
387.72	110.08
387.93	153.09
388.14	67.07
388.35	38.4
388.56	69.12
388.769	75.26
388.979	62.98
389.189	73.21
389.399	83.45
389.609	95.74
389.818	124.41
390.028	105.98
390.238	103.93
390.447	67.07
390.657	54.78
390.867	75.26
391.076	32.26
391.286	60.93
391.496	69.12
391.705	34.3
391.915	114.17
392.125	58.88
392.334	112.13
392.544	159.23
392.753	116.22
392.963	65.02
393.172	110.08
393.382	56.83
393.591	134.65
393.801	87.55
394.01	171.52
394.22	85.5
394.429	114.17
394.639	60.93
394.848	62.98
395.058	128.51
395.267	103.93
395.477	93.69
395.686	165.37
395.895	138.75
396.105	126.46
396.314	153.09
396.524	91.65
396.733	151.04
396.942	85.5
397.152	198.14
397.361	108.03
397.57	108.03
397.78	122.37
397.989	140.8
398.198	112.13
398.407	124.41
398.617	95.74
398.826	153.09
399.035	85.5
399.244	83.45
399.453	130.56
399.663	79.36
399.872	108.03
400.081	103.93
400.29	202.24
400.499	101.89
400.708	138.75
400.917	181.76
401.127	103.93
401.336	204.28
401.545	128.51
401.754	173.57
401.963	218.62
402.172	128.51
402.381	87.55
402.59	165.37
402.799	194.05
403.008	128.51
403.217	128.51
403.426	214.52
403.635	222.72
403.844	189.95
404.053	136.7
404.262	181.76
404.471	257.53
404.68	208.38
404.888	273.92
405.097	212.48
405.306	181.76
405.515	157.18
405.724	128.51
405.933	206.33
406.142	259.58
406.35	163.33
406.559	196.09
406.768	222.72
406.977	245.24
407.185	235
407.394	222.72
407.603	177.66
407.812	384.51
408.02	247.29
408.229	232.96
408.438	275.96
408.646	269.82
408.855	261.63
409.064	388.6
409.272	288.25
409.481	370.17
409.69	300.54
409.898	361.98
410.107	409.08
410.315	341.5
410.524	384.51
410.733	468.47
410.941	400.89
411.15	347.64
411.358	407.03
411.567	443.9
411.775	548.34
411.984	425.47
412.192	611.83
412.401	470.52
412.609	523.77
412.818	542.2
413.026	568.82
413.234	609.78
413.443	579.06
413.651	546.3
413.86	693.75
414.068	648.69
414.276	742.9
414.485	605.69
414.693	667.13
414.901	867.83
415.11	841.2
415.318	749.04
415.526	800.24
415.734	902.64
415.943	830.96
416.151	900.59
416.359	828.92
416.567	964.08
416.776	900.59
416.984	1027.57
417.192	1089.01
417.4	1144.3
417.608	1111.54
417.817	1097.2
418.025	1238.51
418.233	1304.04
418.441	1263.08
418.649	1232.37
418.857	1302
419.065	1424.87
419.273	1324.52
419.481	1533.42
419.689	1543.66
419.897	1627.62
420.105	1725.93
420.313	1760.74
420.521	1717.73
420.729	1820.13
420.937	1826.28
421.145	1934.82
421.353	2049.5
421.561	2170.33
421.769	2178.53
421.977	2282.97
422.185	2098.66
422.393	2450.91
422.601	2516.44
422.809	2469.34
423.017	2500.06
423.224	2569.69
423.432	2645.46
423.64	2704.85
423.848	2846.16
424.056	2913.75
424.263	3139.02
424.471	3089.87
424.679	3128.78
424.887	3325.39
425.094	3382.73
425.302	3333.58
425.51	3470.8
425.718	3675.59
425.925	3589.58
426.133	3794.37
426.341	4015.55
426.548	4099.52
426.756	4163.01
426.964	4228.54
427.171	4322.75
427.379	4529.59
427.586	4840.89
427.794	4875.7
428.001	4957.62
428.209	5256.62
428.417	5137.84
428.624	5422.51
428.832	5490.09
429.039	5449.13
429.247	5541.29
429.454	6018.47
429.662	6481.31
429.869	6020.52
430.076	6317.47
430.284	6020.52
430.491	6509.98
430.699	6755.74
430.906	6849.94
431.114	6923.67
431.321	7107.99
431.528	7216.53
431.736	7810.44
431.943	8150.4
432.15	7974.28
432.358	7916.94
432.565	8609.15
432.772	8506.75
432.979	8875.38
433.187	9024.89
433.394	9102.71
433.601	9610.61
433.808	9772.39
434.016	9594.22
434.223	10061.16
434.43	10618.21
434.637	10339.68
434.844	11343.19
435.052	11169.11
435.259	11158.87
435.466	11310.42
435.673	11324.76
435.88	11842.89
436.087	12666.17
436.294	12522.82
436.501	12213.57
436.708	12653.89
436.915	12961.08
437.122	13454.64
437.329	13501.75
437.537	13958.44
437.743	14124.33
437.95	14173.48
438.157	14556.45
438.364	15168.79
438.571	15127.83
438.778	15340.82
438.985	16766.21
439.192	15795.47
439.399	16438.53
439.606	16223.5
439.813	17253.62
440.02	18085.1
440.227	17763.57
440.433	17468.66
440.64	18375.91
440.847	18005.23
441.054	18347.24
441.261	19801.3
441.467	19541.21
441.674	20006.09
441.881	20526.28
442.088	20358.35
442.294	20282.57
442.501	21001.41
442.708	21267.64
442.914	21890.23
443.121	22994.08
443.328	22369.45
443.534	23772.31
443.741	23368.86
443.948	23045.28
444.154	24771.72
444.361	24310.93
444.568	24634.5
444.774	24667.27
444.981	24829.06
445.187	25912.44
445.394	26772.58
445.6	26137.71
445.807	28853.32
446.013	27610.2
446.22	28230.74
446.426	29228.1
446.633	29559.87
446.839	30364.72
447.046	29015.11
447.252	30618.67
447.459	30882.86
447.665	30190.64
447.871	31988.76
448.078	32834.57
448.284	31587.36
448.491	32605.2
448.697	33983.48
448.903	34089.98
449.11	33827.84
449.316	33883.13
449.522	34317.3
449.728	35195.88
449.935	35738.59
450.141	35281.89
450.347	36260.82
450.553	34743.28
450.76	35412.96
450.966	36522.96
451.172	36121.56
451.378	36580.31
451.584	36121.56
451.791	36858.83
451.997	36690.9
452.203	37374.92
452.409	37510.08
452.615	37450.69
452.821	36187.1
453.027	35378.15
453.233	37348.29
453.44	35816.41
453.646	36131.8
453.852	36309.97
454.058	36860.88
454.264	35304.42
454.47	36430.8
454.676	35480.55
454.882	36692.94
455.088	33266.69
455.294	34057.21
455.5	34208.76
455.705	34876.4
455.911	33211.4
456.117	32664.59
456.323	32467.98
456.529	30688.3
456.735	31876.12
456.941	30987.3
457.147	30520.37
457.352	29375.55
457.558	29459.52
457.764	29033.54
457.97	28765.26
458.176	28083.28
458.381	28148.82
458.587	26891.37
458.793	26760.3
458.999	25101.44
459.204	26840.17
459.41	26399.85
459.616	24726.66
459.821	24427.66
460.027	24620.17
460.233	23907.48
460.438	22516.9
460.644	23387.29
460.85	21863.6
461.055	21507.26
461.261	21486.78
461.466	19936.46
461.672	19442.9
461.878	20649.16
462.083	19104.99
462.289	19174.62
462.494	18949.34
462.7	18001.13
462.905	17374.45
463.111	18406.63
463.316	18314.47
463.522	17990.89
463.727	17906.93
463.932	17802.48
464.138	17646.83
464.343	17562.87
464.549	17282.3
464.754	17714.42
464.959	17743.09
465.165	17599.73
465.37	16905.47
465.575	16512.26
465.781	17081.6
465.986	17257.72
466.191	16194.82
466.397	16030.99
466.602	15512.85
466.807	16147.72
467.012	16108.81
467.218	15793.42
467.423	15684.88
467.628	15818
467.833	16545.03
468.038	15840.53
468.244	15344.92
468.449	16303.37
468.654	15580.43
468.859	15338.77
469.064	15342.87
469.269	14599.46
469.474	14894.36
469.679	14800.16
469.885	14486.82
470.09	14859.55
470.295	14529.83
470.5	14406.95
470.705	14478.63
470.91	14005.55
471.115	14013.74
471.32	14548.26
471.525	14204.2
471.73	13763.89
471.935	13690.16
472.139	13178.17
472.344	13557.04
472.549	13401.4
472.754	13284.66
472.959	12825.92
473.164	12477.76
473.369	12614.98
473.574	13008.19
473.778	12582.21
473.983	12600.64
474.188	12555.58
474.393	12139.85
474.598	12152.13
474.802	11973.96
475.007	11900.23
475.212	12076.36
475.417	11427.15
475.621	11584.85
475.826	11461.97
476.031	11361.62
476.235	11128.15
476.44	11353.43
476.645	10960.22
476.849	11111.77
477.054	10872.15
477.259	10716.51
477.463	10730.84
477.668	10593.63
477.872	10605.92
478.077	10388.83
478.282	10319.2
478.486	10237.28
478.691	10052.97
478.895	10001.77
479.1	9952.62
479.304	10151.27
479.509	9543.02
479.713	10104.17
479.918	9651.56
480.122	9622.89
480.326	9616.75
480.531	9645.42
480.735	9676.14
480.94	9360.75
481.144	9676.14
481.348	9434.48
481.553	9373.04
481.757	9147.76
481.961	9434.48
482.166	9557.36
482.37	9479.54
482.574	9262.45
482.778	9483.63
482.983	9358.71
483.187	9373.04
483.391	9438.58
483.595	9262.45
483.8	9184.63
484.004	9381.23
484.208	9416.05
484.412	9340.27
484.616	9211.25
484.821	9524.59
485.025	9004.41
485.229	9284.98
485.433	9375.09
485.637	9375.09
485.841	9266.55
486.045	9246.07
486.249	9297.27
486.453	9061.75
486.657	9176.44
486.861	9516.4
487.065	8965.5
487.269	8975.74
487.473	9133.43
487.677	9473.39
487.881	9393.52
488.085	9424.24
488.289	9203.06
488.493	9436.53
488.697	9473.39
488.901	9231.73
489.105	9678.19
489.309	9459.06
489.512	9317.75
489.716	9170.29
489.92	9549.17
490.124	9315.7
490.328	9592.17
490.531	9397.62
490.735	9717.1
490.939	9426.29
491.143	9536.88
491.346	9612.65
491.55	9776.49
491.754	9678.19
491.958	9819.5
492.161	9661.8
492.365	9790.83
492.569	9762.16
492.772	9872.75
492.976	9897.32
493.18	9919.85
493.383	9960.81
493.587	10130.79
493.79	10249.57
493.994	10190.18
494.197	10351.97
494.401	10591.58
494.605	10321.25
494.808	10284.39
495.012	10581.34
495.215	10501.47
495.419	10636.64
495.622	10497.38
495.825	10927.45
496.029	10755.42
496.232	10997.08
496.436	10978.65
496.639	11314.52
496.843	11302.23
497.046	11529.55
497.249	11695.44
497.453	11779.4
497.656	11869.51
497.859	11717.97
498.063	11898.19
498.266	12014.92
498.469	12172.61
498.673	12297.54
498.876	12379.46
499.079	12811.58
499.282	12764.48
499.485	12920.12
499.689	12946.75
499.892	13057.34
500.095	13382.96
500.298	13436.21
500.501	13133.11
500.705	13790.51
500.908	13980.97
501.111	14040.36
501.314	14075.18
501.517	14398.76
501.72	14468.39
501.923	14753.05
502.126	14859.55
502.329	15189.27
502.532	15146.26
502.735	15195.42
502.938	15404.31
503.141	15353.11
503.344	15766.8
503.547	15807.76
503.75	16117
503.953	16479.49
504.156	16311.56
504.359	16573.7
504.562	16819.46
504.765	17032.44
504.968	17165.56
505.17	17390.84
505.373	17495.29
505.576	17921.26
505.779	17941.74
505.982	18167.02
506.185	18435.3
506.387	18588.9
506.59	18697.44
506.793	19002.59
506.996	18644.2
507.198	19590.36
507.401	19350.74
507.604	19719.38
507.807	20163.79
508.009	20180.17
508.212	20145.36
508.415	20569.29
508.617	20800.71
508.82	20823.23
509.022	20890.82
509.225	21404.86
509.428	21435.58
509.63	21785.78
509.833	21785.78
510.035	22400.17
510.238	22217.9
510.44	22400.17
510.643	22983.84
510.845	22998.18
511.048	23403.67
511.25	23712.92
511.453	23450.78
511.655	24601.74
511.858	24104.08
512.06	24192.14
512.262	24609.93
512.465	24454.28
512.667	24974.47
512.87	25457.79
513.072	25175.17
513.274	26023.03
513.477	26254.45
513.679	26608.75
513.881	26805.35
514.084	26958.95
514.286	26778.73
514.488	27247.71
514.69	28275.79
514.893	27991.12
515.095	27952.21
515.297	28871.75
515.499	28736.59
515.701	28869.7
515.904	29312.06
516.106	29578.3
516.308	29633.6
516.51	30401.58
516.712	30313.52
516.914	30633
517.116	30807.08
517.318	31040.55
517.52	31218.72
517.722	31523.87
517.925	32091.16
518.127	32664.59
518.329	32719.88
518.531	32496.66
518.733	33178.63
518.935	33514.5
519.136	33338.37
519.338	34092.02
519.54	34249.72
519.742	34552.82
519.944	34391.03
520.146	35273.7
520.348	35468.26
520.55	35720.16
520.752	35861.47
520.954	36256.73
521.155	36344.79
521.357	37100.49
521.559	37055.43
521.761	37764.03
521.963	37596.1
522.164	37962.68
522.366	38013.88
522.568	38554.55
522.77	38411.19
522.971	39459.75
523.173	38816.69
523.375	39394.21
523.576	39340.97
523.778	39728.03
523.98	40203.16
524.181	40448.92
524.383	40518.55
524.584	41196.43
524.786	40756.11
524.988	40731.54
525.189	41358.22
525.391	41757.57
525.592	41900.93
525.794	42443.64
525.995	42249.08
526.197	42093.44
526.398	42306.43
526.6	42638.2
526.801	43279.21
527.003	43363.18
527.204	43406.19
527.406	44252
527.607	43858.79
527.808	44125.02
528.01	43488.1
528.211	44135.26
528.412	44778.32
528.614	44704.6
528.815	44473.18
529.016	45034.32
529.218	44563.29
529.419	44931.92
529.62	45255.5
529.822	45411.15
530.023	45327.18
530.224	45355.85
530.425	45484.87
530.626	45392.72
530.828	45364.04
531.029	46207.81
531.23	45646.66
531.431	45775.69
531.632	45964.1
531.833	46119.74
532.035	46132.03
532.236	46033.73
532.437	46598.97
532.638	46172.99
532.839	46467.9
533.04	46672.7
533.241	46396.22
533.442	47164.21
533.643	46623.54
533.844	46891.83
534.045	46891.83
534.246	46316.35
534.447	46922.55
534.648	46576.44
534.849	46986.04
535.05	46672.7
535.251	46701.37
535.451	46920.5
535.652	47094.58
535.853	46861.11
536.054	47199.02
536.255	47512.36
536.456	46633.78
536.657	47446.83
536.857	46973.75
537.058	46918.45
537.259	47065.91
537.46	47065.91
537.66	47244.08
537.861	47272.75
538.062	47123.25
538.263	47078.19
538.463	47121.2
538.664	46920.5
538.865	46955.32
539.065	47334.19
539.266	46883.64
539.466	47465.26
539.667	46744.37
539.868	47663.91
540.068	47434.54
540.269	47012.66
540.469	47631.15
540.67	47086.39
540.87	47237.94
541.071	46938.93
541.271	47254.32
541.472	46678.84
541.672	47000.37
541.873	47102.77
542.073	46893.88
542.274	47356.72
542.474	47090.48
542.675	46820.15
542.875	47573.8
543.075	46981.94
543.276	46799.67
543.476	47321.9
543.676	46773.05
543.877	47285.04
544.077	46930.74
544.277	47203.12
544.478	47049.52
544.678	47186.74
544.878	47049.52
545.078	47213.36
545.279	46850.87
545.479	46836.53
545.679	47495.98
545.879	46996.27
546.079	47278.89
546.28	47338.29
546.48	46254.91
546.68	46863.16
546.88	46934.84
547.08	46736.18
547.28	46617.4
547.48	46885.68
547.68	46750.52
547.88	46275.39
548.081	47479.6
548.281	46730.04
548.481	46478.14
548.681	46906.16
548.881	47008.56
549.081	46934.84
549.28	46441.28
549.48	47102.77
549.68	46850.87
549.88	47254.32
550.08	46658.36
550.28	46750.52
550.48	46988.08
550.68	46877.49
550.88	46037.83
551.08	46539.58
551.279	46564.15
551.479	46361.4
551.679	46844.73
551.879	46672.7
552.079	46781.24
552.278	46101.31
552.478	46271.29
552.678	46437.18
552.878	46938.93
553.077	46463.8
553.277	46627.64
553.477	46838.58
553.676	46205.76
553.876	46547.77
554.076	46402.36
554.275	46535.48
554.475	45714.25
554.674	46238.53
554.874	46355.26
555.074	46123.84
555.273	46050.11
555.473	46240.57
555.672	45624.14
555.872	46156.61
556.071	45908.8
556.271	46256.96
556.47	45622.09
556.67	45663.05
556.869	45652.81
557.068	46254.91
557.268	45546.31
557.467	45368.14
557.667	46066.5
557.866	45564.74
558.065	45763.4
558.265	45599.56
558.464	44950.35
558.663	45394.76
558.863	44976.98
559.062	45562.7
559.261	44997.46
559.461	45685.57
559.66	44665.69
559.859	44956.5
560.058	44395.35
560.258	45046.61
560.457	44374.87
560.656	44985.17
560.855	44483.42
561.054	44829.52
561.253	44135.26
561.453	44211.04
561.652	44184.41
561.851	44776.28
562.05	44297.05
562.249	43619.17
562.448	44006.24
562.647	43799.4
562.846	44219.23
563.045	44159.84
563.244	43547.5
563.443	43514.73
563.642	43225.96
563.841	43426.67
564.04	43103.09
564.239	43387.75
564.438	42814.32
564.637	43051.89
564.836	43043.7
565.035	42627.96
565.234	43000.69
565.432	43131.76
565.631	42806.13
565.83	42625.91
566.029	42034.05
566.228	42636.15
566.427	41773.95
566.625	42140.54
566.824	41659.27
567.023	42388.35
567.222	40840.08
567.42	42007.42
567.619	41849.73
567.818	41708.42
568.016	41331.59
568.215	41608.07
568.414	40909.71
568.612	41657.22
568.811	41038.73
569.01	40741.78
569.208	40242.07
569.407	41016.21
569.605	40203.16
569.804	40670.1
570.002	40121.24
570.201	40477.59
570.4	40199.07
570.598	40172.44
570.797	39936.93
570.995	39762.85
571.193	39166.89
571.392	39717.79
571.59	39082.92
571.789	39105.45
571.987	39455.65
572.186	39056.3
572.384	38714.29
572.582	39234.47
572.781	38880.17
572.979	38562.74
573.177	38835.12
573.376	38886.32
573.574	38349.75
573.772	38687.67
573.971	38273.98
574.169	38001.6
574.367	37485.51
574.565	38489.01
574.763	37831.61
574.962	37632.96
575.16	37364.68
575.358	37827.52
575.556	37045.19
575.754	37528.52
575.952	36918.22
576.151	37366.73
576.349	36815.82
576.547	36871.12
576.745	36977.61
576.943	36529.11
577.141	36600.79
577.339	36383.7
577.537	35998.68
577.735	36742.1
577.933	36209.62
578.131	36596.69
578.329	36123.61
578.527	35746.78
578.725	35722.21
578.923	35865.56
579.121	35410.92
579.319	35832.8
579.516	35636.19
579.714	35652.58
579.912	35326.95
580.11	35187.69
580.308	34864.11
580.506	34974.7
580.704	34376.69
580.901	34696.17
581.099	34702.32
581.297	34360.31
581.495	34339.83
581.692	34429.94
581.89	34272.25
582.088	34403.32
582.285	34044.92
582.483	34685.93
582.681	33993.72
582.878	34096.12
583.076	33590.27
583.274	33756.16
583.471	33207.3
583.669	33467.39
583.866	32836.62
584.064	33661.95
584.262	32840.71
584.459	33176.58
584.657	33084.42
584.854	33176.58
585.052	32795.66
585.249	32875.53
585.447	32814.09
585.644	32445.46
585.841	32324.63
586.039	32373.78
586.236	31898.65
586.434	31908.89
586.631	31863.83
586.828	31710.24
587.026	31878.17
587.223	31802.39
587.42	31624.22
587.618	31695.9
587.815	31130.66
588.012	31063.08
588.21	31243.3
588.407	31439.9
588.604	31130.66
588.801	30874.66
588.999	30731.31
589.196	30798.89
589.393	31147.04
589.59	30432.3
589.787	30637.1
589.984	30448.69
590.182	30237.75
590.379	30237.75
590.576	30366.77
590.773	30635.05
590.97	29795.39
591.167	29953.08
591.364	29459.52
591.561	29922.36
591.758	29316.16
591.955	29740.09
592.152	29549.63
592.349	29529.15
592.546	29449.28
592.743	29199.43
592.94	28935.24
593.137	29176.9
593.334	28863.56
593.531	28712.01
593.727	28873.8
593.924	28927.05
594.121	28486.73
594.318	28679.24
594.515	28036.18
594.712	28630.09
594.908	28384.33
595.105	28290.13
595.302	27786.33
595.499	28255.31
595.696	27921.49
595.892	27667.55
596.089	27642.97
596.286	27851.86
596.482	27323.49
596.679	27595.87
596.876	27456.61
597.072	27165.79
597.269	27346.01
597.466	26934.37
597.662	26868.84
597.859	26924.13
598.055	26987.62
598.252	26924.13
598.448	26874.98
598.645	26668.14
598.841	26399.85
599.038	26590.31
599.234	26631.27
599.431	26070.13
599.627	26526.83
599.824	26203.25
600.02	25887.86
600.217	26233.97
600.413	25795.7
600.609	25384.06
600.806	25779.32
601.002	25650.3
601.198	25502.84
601.395	25603.19
601.591	25621.63
601.787	25547.9
601.984	25527.42
602.18	25361.53
602.376	25209.98
602.572	24958.08
602.769	25095.3
602.965	24953.99
603.161	24964.23
603.357	24896.64
603.553	24765.57
603.75	24710.28
603.946	24491.15
604.142	24427.66
604.338	24042.64
604.534	24444.04
604.73	24128.66
604.926	24136.85
605.122	24118.42
605.318	23829.65
605.514	23860.37
605.71	23876.76
605.906	23487.64
606.102	23917.72
606.298	23637.14
606.494	23522.46
606.69	23473.31
606.886	23854.23
607.082	23278.75
607.278	23422.11
607.474	22920.35
607.67	23350.43
607.866	22760.61
608.062	23223.45
608.257	23336.09
608.453	22756.52
608.649	23221.41
608.845	22717.61
609.041	22719.65
609.236	22932.64
609.432	22592.68
609.628	22736.04
609.824	22502.57
610.019	22459.56
610.215	22432.94
610.411	22516.9
610.606	22154.41
610.802	22527.14
610.998	22424.75
611.193	22144.17
611.389	22037.68
611.584	21793.97
611.78	21945.52
611.976	21888.18
612.171	21935.28
612.367	21959.86
612.562	21589.17
612.758	21771.44
612.953	21658.81
613.149	21920.95
613.344	21341.37
613.539	22058.16
613.735	21542.07
613.93	21554.36
614.126	21222.59
614.321	21685.43
614.517	21347.51
614.712	21257.4
614.907	21210.3
615.103	21175.48
615.298	21208.25
615.493	21255.36
615.688	21064.89
615.884	21343.42
616.079	20901.06
616.274	21040.32
616.47	20798.66
616.665	20847.81
616.86	20649.16
617.055	20591.81
617.25	20671.68
617.445	20794.56
617.641	20579.53
617.836	20536.52
618.031	20477.13
618.226	20376.78
618.421	20573.38
618.616	20632.77
618.811	20249.8
619.006	20626.63
619.201	20016.33
619.396	20004.05
619.591	19573.97
619.786	19920.08
619.981	19485.91
620.176	19899.6
620.371	19266.78
620.566	19647.7
620.761	19508.44
620.956	19481.81
621.151	19246.3
621.346	19408.09
621.541	19033.31
621.735	19150.04
621.93	18871.52
622.125	19006.69
622.32	18515.17
622.515	18834.66
622.709	18377.96
622.904	18603.24
623.099	18367.72
623.294	18472.17
623.488	18146.54
623.683	18132.2
623.878	18242.79
624.072	17954.03
624.267	17870.06
624.462	17798.38
624.656	17325.3
624.851	17521.91
625.046	17450.23
625.24	17378.55
625.435	17245.43
625.629	16979.2
625.824	17345.78
626.018	17097.98
626.213	16659.71
626.407	16950.53
626.602	16727.3
626.796	16626.95
626.991	16764.16
627.185	16610.56
627.38	16340.23
627.574	16373
627.768	16141.58
627.963	16162.06
628.157	15820.05
628.352	16149.77
628.546	15787.28
628.74	15979.79
628.935	15555.86
629.129	15736.08
629.323	15449.36
629.517	15506.71
629.712	15463.7
629.906	15349.01
630.1	15199.51
630.294	15000.86
630.489	15056.15
630.683	15125.79
630.877	14841.12
631.071	14951.71
631.265	14898.46
631.459	14703.9
631.653	14773.53
631.848	14376.23
632.042	14734.62
632.236	14589.22
632.43	14466.34
632.624	14533.92
632.818	14157.1
633.012	14329.13
633.206	14208.3
633.4	14095.66
633.594	13890.86
633.788	13931.82
633.982	13894.96
634.176	13817.13
634.369	13731.12
634.563	13767.98
634.757	13477.17
634.951	13550.9
635.145	13520.18
635.339	13258.04
635.533	13155.64
635.726	13145.4
635.92	12969.27
636.114	13149.5
636.308	12954.94
636.501	13022.52
636.695	12744
636.889	12490.05
637.083	12674.37
637.276	12758.33
637.47	12549.44
637.664	12559.68
637.857	12457.28
638.051	12211.53
638.244	12422.47
638.438	12105.03
638.632	12309.83
638.825	12016.97
639.019	12285.25
639.212	11978.06
639.406	11857.23
639.599	11763.02
639.793	11779.4
639.986	11390.29
640.18	11660.62
640.373	11466.07
640.567	11369.81
640.76	11681.1
640.954	11259.22
641.147	11255.12
641.34	11181.4
641.534	11091.29
641.727	11138.39
641.92	11095.38
642.114	11027.8
642.307	10882.39
642.5	10904.92
642.694	10618.21
642.887	10691.93
643.08	10868.06
643.273	10810.72
643.467	10591.58
643.66	10730.84
643.853	10333.54
644.046	10356.07
644.239	10366.31
644.432	10296.67
644.626	10001.77
644.819	10222.95
645.012	9995.62
645.205	10138.98
645.398	10038.63
645.591	10034.53
645.784	10091.88
645.977	9833.83
646.17	10061.16
646.363	9811.31
646.556	9602.41
646.749	9680.24
646.942	9702.76
647.135	9657.71
647.328	9495.92
647.521	9487.73
647.714	9360.75
647.907	9368.95
648.099	9313.65
648.292	9299.31
648.485	9336.18
648.678	9313.65
648.871	9237.88
649.064	9100.66
649.256	8996.21
649.449	8902.01
649.642	8963.45
649.835	8834.43
650.027	8811.9
650.22	8787.32
650.413	8658.3
650.605	8746.36
650.798	8834.43
650.991	8539.52
651.183	8611.2
651.376	8379.78
651.568	8547.71
651.761	8537.47
651.954	8351.1
652.146	8379.78
652.339	8314.24
652.531	8207.75
652.724	8367.49
652.916	8029.57
653.109	8177.03
653.301	8213.89
653.494	8121.73
653.686	7935.37
653.879	8263.04
654.071	7978.37
654.263	7941.51
654.456	7912.84
654.648	7968.13
654.84	7605.64
655.033	7853.45
655.225	7914.89
655.417	7605.64
655.61	7433.61
655.802	7509.39
655.994	7738.76
656.186	7654.8
656.379	7386.51
656.571	7409.04
656.763	7548.3
656.955	7345.55
657.148	7247.25
657.34	7273.87
657.532	7370.13
657.724	7239.06
657.916	7161.23
658.108	7112.08
658.3	7046.55
658.492	7124.37
658.684	6942.1
658.876	6868.38
659.068	7017.88
659.26	6880.66
659.452	6946.2
659.644	6872.47
659.836	7038.36
660.028	6880.66
660.22	6718.87
660.412	6768.02
660.604	6645.15
660.796	6565.28
660.988	6653.34
661.18	6690.2
661.372	6632.86
661.563	6618.52
661.755	6331.81
661.947	6366.62
662.139	6374.81
662.331	6352.29
662.522	6370.72
662.714	6268.32
662.906	6278.56
663.097	6180.26
663.289	6223.27
663.481	6233.5
663.673	6348.19
663.864	6329.76
664.056	6055.33
664.247	6280.61
664.439	5844.39
664.631	6016.42
664.822	6233.5
665.014	6092.2
665.205	6036.9
665.397	5889.45
665.588	5830.06
665.78	5823.91
665.971	5989.8
666.163	5893.54
666.354	5832.1
666.546	5899.69
666.737	5666.22
666.929	5825.96
667.12	5639.59
667.311	5610.92
667.503	5531.05
667.694	5627.31
667.885	5719.46
668.077	5486
668.268	5465.52
668.459	5379.5
668.651	5402.03
668.842	5494.19
669.033	5375.41
669.224	5379.5
669.416	5445.04
669.607	5379.5
669.798	5311.92
669.989	5371.31
670.18	5350.83
670.371	5436.85
670.563	5234.1
670.754	5275.06
670.945	5412.27
671.136	5172.66
671.327	5129.65
671.518	5197.23
671.709	5217.71
671.9	5207.47
672.091	5172.66
672.282	5092.79
672.473	5225.9
672.664	4935.09
672.855	5160.37
673.046	5062.07
673.237	5064.11
673.428	5068.21
673.619	5131.7
673.809	4967.86
674	5066.16
674.191	5012.92
674.382	5051.83
674.573	4912.57
674.764	4896.18
674.954	5160.37
675.145	4939.19
675.336	4824.5
675.527	4844.98
675.717	5070.26
675.908	4804.02
676.099	4957.62
676.289	4859.32
676.48	4849.08
676.671	4801.97
676.861	4779.45
677.052	4746.68
677.243	4769.21
677.433	4738.49
677.624	4771.26
677.814	4857.27
678.005	4781.5
678.195	4785.59
678.386	4715.96
678.576	4715.96
678.767	4691.38
678.957	4748.73
679.148	4683.19
679.338	4754.87
679.529	4795.83
679.719	4640.19
679.909	4851.13
680.1	4627.9
680.29	4734.39
680.481	4652.47
680.671	4642.23
680.861	4541.88
681.052	4783.54
681.242	4713.91
681.432	4720.06
681.622	4597.18
681.813	4627.9
682.003	4691.38
682.193	4531.64
682.383	4681.14
682.573	4560.31
682.764	4603.32
682.954	4527.55
683.144	4638.14
683.334	4552.12
683.524	4644.28
683.714	4562.36
683.904	4578.75
684.094	4634.04
684.284	4427.2
684.474	4578.75
684.664	4662.71
684.854	4554.17
685.044	4529.59
685.234	4533.69
685.424	4517.31
685.614	4318.65
685.804	4500.92
685.994	4490.68
686.184	4619.71
686.374	4398.52
686.564	4449.72
686.753	4285.89
686.943	4281.79
687.133	4345.28
687.323	4279.74
687.513	4367.81
687.702	4351.42
687.892	4359.61
688.082	4279.74
688.272	4392.38
688.461	4255.17
688.651	4171.2
688.841	4257.22
689.03	4068.8
689.22	4117.95
689.41	4285.89
689.599	4208.06
689.789	4097.47
689.979	4111.81
690.168	4062.66
690.358	4076.99
690.547	4216.26
690.737	4068.8
690.926	4023.75
691.116	4011.46
691.305	4146.62
691.495	4005.31
691.684	3892.68
691.874	4027.84
692.063	4003.27
692.252	4087.23
692.442	3935.68
692.631	3929.54
692.82	4011.46
693.01	3853.77
693.199	3954.12
693.388	3818.95
693.578	3751.37
693.767	3861.96
693.956	3896.77
694.146	3804.61
694.335	3794.37
694.524	3927.49
694.713	3798.47
694.902	3765.7
695.092	3757.51
695.281	3837.38
695.47	3777.99
695.659	3777.99
695.848	3720.65
696.037	3816.9
696.226	3761.61
696.415	3794.37
696.604	3743.17
696.793	3659.21
696.982	3866.05
697.171	3894.72
697.36	3810.76
697.549	3626.44
697.738	3644.87
697.927	3681.74
698.116	3743.17
698.305	3691.98
698.494	3702.22
698.683	3663.3
698.872	3818.95
699.061	3554.76
699.25	3540.43
699.438	3657.16
699.627	3718.6
699.816	3669.45
700.005	3608.01
700.193	3495.37
700.382	3712.46
700.571	3646.92
700.76	3628.49
700.948	3732.94
701.137	3685.83
701.326	3622.34
701.514	3620.3
701.703	3714.5
701.892	3565
702.08	3700.17
702.269	3743.17
702.457	3618.25
702.646	3524.04
702.834	3452.36
703.023	3708.36
703.212	3575.24
703.4	3560.91
703.589	3499.47
703.777	3640.78
703.965	3610.06
704.154	3614.15
704.342	3577.29
704.531	3548.62
704.719	3640.78
704.907	3663.3
705.096	3556.81
705.284	3503.56
705.472	3636.68
705.661	3558.86
705.849	3550.67
706.037	3538.38
706.226	3472.84
706.414	3558.86
706.602	3632.58
706.79	3526.09
706.979	3532.23
707.167	3638.73
707.355	3560.91
707.543	3597.77
707.731	3560.91
707.919	3601.87
708.107	3534.28
708.296	3622.34
708.484	3577.29
708.672	3550.67
708.86	3481.03
709.048	3608.01
709.236	3544.52
709.424	3536.33
709.612	3542.47
709.8	3503.56
709.988	3538.38
710.176	3548.62
710.364	3618.25
710.551	3569.1
710.739	3470.8
710.927	3667.4
711.115	3511.75
711.303	3454.41
711.491	3599.82
711.679	3530.19
711.866	3507.66
712.054	3509.71
712.242	3489.23
712.43	3569.1
712.617	3663.3
712.805	3552.71
712.993	3505.61
713.181	3364.3
713.368	3591.63
713.556	3601.87
713.744	3528.14
713.931	3515.85
714.119	3524.04
714.306	3565
714.494	3481.03
714.682	3620.3
714.869	3556.81
715.057	3472.84
715.244	3495.37
715.432	3622.34
715.619	3640.78
715.807	3550.67
715.994	3528.14
716.182	3542.47
716.369	3536.33
716.556	3509.71
716.744	3603.91
716.931	3497.42
717.119	3528.14
717.306	3511.75
717.493	3524.04
717.681	3530.19
717.868	3503.56
718.055	3505.61
718.242	3575.24
718.43	3667.4
718.617	3571.15
718.804	3487.18
718.991	3507.66
719.179	3470.8
719.366	3448.27
719.553	3567.05
719.74	3491.27
719.927	3519.95
720.114	3464.65
720.301	3464.65
720.488	3407.31
720.676	3595.72
720.863	3630.54
721.05	3526.09
721.237	3415.5
721.424	3565
721.611	3487.18
721.798	3505.61
721.985	3386.83
722.172	3489.23
722.358	3399.12
722.545	3544.52
722.732	3462.6
722.919	3513.8
723.106	3433.93
723.293	3544.52
723.48	3454.41
723.667	3403.21
723.853	3417.55
724.04	3507.66
724.227	3483.08
724.414	3497.42
724.6	3397.07
724.787	3419.6
724.974	3491.27
725.161	3450.32
725.347	3261.9
725.534	3601.87
725.72	3241.42
725.907	3433.93
726.094	3329.49
726.28	3431.88
726.467	3309.01
726.653	3325.39
726.84	3401.16
727.027	3540.43
727.213	3327.44
727.4	3306.96
727.586	3296.72
727.773	3413.45
727.959	3352.01
728.145	3390.92
728.332	3341.77
728.518	3386.83
728.705	3421.64
728.891	3495.37
729.077	3216.85
729.264	3423.69
729.45	3259.85
729.636	3261.9
729.823	3331.53
730.009	3319.25
730.195	3302.86
730.382	3378.64
730.568	3397.07
730.754	3323.34
730.94	3266
731.126	3364.3
731.313	3296.72
731.499	3366.35
731.685	3270.09
731.871	3298.77
732.057	3304.91
732.243	3216.85
732.429	3347.92
732.615	3268.05
732.801	3304.91
732.987	3153.36
733.173	3243.47
733.359	3354.06
733.545	3151.31
733.731	3284.43
733.917	3255.76
734.103	3366.35
734.289	3280.33
734.475	3261.9
734.661	3309.01
734.847	3202.51
735.033	3241.42
735.219	3251.66
735.404	3175.89
735.59	3241.42
735.776	3182.03
735.962	3145.17
736.148	3190.22
736.333	3134.93
736.519	3257.81
736.705	3302.86
736.89	3237.33
737.076	3214.8
737.262	3141.07
737.447	3278.29
737.633	3069.39
737.819	3147.22
738.004	3016.15
738.19	3026.39
738.375	3042.77
738.561	3089.87
738.747	3163.6
738.932	3081.68
739.118	3149.26
739.303	3126.74
739.489	3032.53
739.674	3014.1
739.859	3190.22
740.045	2977.23
740.23	3194.32
740.416	2944.47
740.601	3098.06
740.786	2964.95
740.972	2969.04
741.157	2936.28
741.342	3036.63
741.528	2975.19
741.713	3005.91
741.898	2807.25
742.084	2889.17
742.269	2868.69
742.454	2926.04
742.639	2889.17
742.824	2962.9
743.01	2930.13
743.195	2907.6
743.38	2758.1
743.565	2762.2
743.75	2915.8
743.935	2708.95
744.12	2797.01
744.305	2688.47
744.49	2696.66
744.675	2647.51
744.86	2715.09
745.045	2672.09
745.23	2721.24
745.415	2772.44
745.6	2598.36
745.785	2649.56
745.97	2680.28
746.155	2571.74
746.34	2524.63
746.525	2489.82
746.71	2672.09
746.895	2506.2
747.079	2561.5
747.264	2547.16
747.449	2534.87
747.634	2506.2
747.819	2467.29
748.003	2362.84
748.188	2424.28
748.373	2516.44
748.557	2407.9
748.742	2366.94
748.927	2348.51
749.111	2420.19
749.296	2315.74
749.481	2352.6
749.665	2389.47
749.85	2227.68
750.034	2313.69
750.219	2272.73
750.404	2293.21
750.588	2127.33
750.773	2239.97
750.957	2244.06
751.141	2244.06
751.326	2127.33
751.51	2252.25
751.695	2123.23
751.879	2213.34
752.064	2115.04
752.248	2121.18
752.432	2133.47
752.617	2049.5
752.801	2055.65
752.985	2053.6
753.17	2078.18
753.354	1955.3
753.538	1869.28
753.722	2002.4
753.907	1918.43
754.091	2008.55
754.275	1957.35
754.459	1916.39
754.643	1922.53
754.828	1885.67
755.012	1918.43
755.196	1889.76
755.38	1930.72
755.564	1922.53
755.748	1893.86
755.932	1777.12
756.116	1787.36
756.3	1719.78
756.484	1859.04
756.668	1797.6
756.852	1781.22
757.036	1787.36
757.22	1691.11
757.404	1736.17
757.588	1654.25
757.772	1668.58
757.956	1670.63
758.14	1709.54
758.323	1508.84
758.507	1656.29
758.691	1605.1
758.875	1666.53
759.059	1717.73
759.242	1652.2
759.426	1506.79
759.61	1719.78
759.794	1603.05
759.977	1582.57
760.161	1578.47
760.345	1523.18
760.528	1490.41
760.712	1537.51
760.895	1529.32
761.079	1541.61
761.263	1451.5
761.446	1531.37
761.63	1445.35
761.813	1469.93
761.997	1557.99
762.18	1357.29
762.364	1549.8
762.547	1318.38
762.731	1471.98
762.914	1457.64
763.098	1316.33
763.281	1408.49
763.464	1402.35
763.648	1357.29
763.831	1371.63
764.015	1451.5
764.198	1369.58
764.381	1367.53
764.564	1371.63
764.748	1353.2
764.931	1359.34
765.114	1359.34
765.297	1451.5
765.481	1308.14
765.664	1351.15
765.847	1312.24
766.03	1326.57
766.213	1269.23
766.397	1244.65
766.58	1371.63
766.763	1312.24
766.946	1271.28
767.129	1347.05
767.312	1377.77
767.495	1263.08
767.678	1205.74
767.861	1277.42
768.044	1220.08
768.227	1254.89
768.41	1279.47
768.593	1211.89
768.776	1127.92
768.959	1302
769.142	1160.69
769.324	1224.17
769.507	1228.27
769.69	1213.93
769.873	1129.97
770.056	1242.61
770.239	1175.02
770.421	1166.83
770.604	1162.73
770.787	1152.49
770.97	1203.69
771.152	1146.35
771.335	1191.41
771.518	1119.73
771.7	1162.73
771.883	1062.38
772.066	1129.97
772.248	1025.52
772.431	1111.54
772.613	1093.1
772.796	1050.1
772.978	1027.57
773.161	1132.01
773.343	1015.28
773.526	1023.47
773.708	1005.04
773.891	1019.38
774.073	980.47
774.256	947.7
774.438	1072.62
774.621	923.12
774.803	1064.43
774.985	916.98
775.168	982.51
775.35	1011.18
775.532	1076.72
775.715	953.84
775.897	1015.28
776.079	966.13
776.261	1101.3
776.444	912.88
776.626	927.22
776.808	906.74
776.99	902.64
777.173	830.96
777.355	923.12
777.537	812.53
777.719	890.35
777.901	833.01
778.083	937.46
778.265	818.68
778.447	925.17
778.629	837.11
778.811	878.07
778.993	814.58
779.175	787.96
779.357	841.2
779.539	783.86
779.721	824.82
779.903	773.62
780.085	837.11
780.267	747
780.449	806.39
780.631	785.91
780.812	820.72
780.994	740.85
781.176	738.8
781.358	669.17
781.54	736.76
781.721	738.8
781.903	851.44
782.085	677.37
782.267	701.94
782.448	548.34
782.63	605.69
782.812	732.66
782.993	712.18
783.175	607.73
783.357	673.27
783.538	728.56
783.72	611.83
783.901	634.36
784.083	693.75
784.264	744.95
784.446	663.03
784.627	644.6
784.809	628.21
784.99	656.89
785.172	525.82
785.353	525.82
785.535	599.54
785.716	572.92
785.897	550.39
786.079	570.87
786.26	638.45
786.441	597.49
786.623	474.62
786.804	531.96
786.985	560.63
787.167	593.4
787.348	488.95
787.529	542.2
787.71	583.16
787.891	509.43
788.073	531.96
788.254	591.35
788.435	605.69
788.616	476.66
788.797	501.24
788.978	577.02
789.159	497.14
789.34	585.21
789.522	493.05
789.703	480.76
789.884	548.34
790.065	517.62
790.246	607.73
790.427	497.14
790.607	507.38
790.788	519.67
790.969	445.95
791.15	441.85
791.331	476.66
791.512	407.03
791.693	404.99
791.874	466.42
792.054	503.29
792.235	398.84
792.416	411.13
792.597	443.9
792.778	488.95
792.958	447.99
793.139	443.9
793.32	380.41
793.5	327.16
793.681	445.95
793.862	415.23
794.042	417.27
794.223	388.6
794.404	398.84
794.584	355.83
794.765	404.99
794.945	366.07
795.126	431.61
795.306	386.55
795.487	374.27
795.667	415.23
795.848	394.75
796.028	355.83
796.209	423.42
796.389	464.38
796.57	447.99
796.75	329.21
796.93	343.55
797.111	388.6
797.291	398.84
797.471	419.32
797.652	433.66
797.832	292.35
798.012	366.07
798.192	351.74
798.373	327.16
798.553	318.97
798.733	411.13
798.913	349.69
799.093	300.54
799.274	390.65
799.454	347.64
799.634	407.03
799.814	415.23
799.994	355.83
800.174	323.07
800.354	417.27
800.534	331.26
800.714	394.75
800.894	357.88
801.074	284.16
801.254	341.5
801.434	404.99
801.614	335.35
801.794	364.03
801.974	861.68
802.154	355.83
802.334	368.12
802.514	261.63
802.693	323.07
802.873	339.45
803.053	345.59
803.233	312.83
803.413	337.4
803.592	273.92
803.772	286.2
803.952	228.86
804.131	296.44
804.311	327.16
804.491	370.17
804.67	249.34
804.85	302.59
805.03	316.92
805.209	273.92
805.389	323.07
805.568	237.05
805.748	355.83
805.928	316.92
806.107	321.02
806.287	249.34
806.466	271.87
806.646	247.29
806.825	169.47
807.004	210.43
807.184	177.66
807.363	341.5
807.543	220.67
807.722	312.83
807.901	179.71
808.081	292.35
808.26	194.05
808.439	263.68
808.619	269.82
808.798	198.14
808.977	267.77
809.156	189.95
809.336	210.43
809.515	286.2
809.694	280.06
809.873	273.92
810.052	214.52
810.231	224.76
810.411	292.35
810.59	300.54
810.769	245.24
810.948	218.62
811.127	200.19
811.306	239.1
811.485	237.05
811.664	318.97
811.843	253.44
812.022	261.63
812.201	251.39
812.38	280.06
812.559	232.96
812.737	267.77
812.916	202.24
813.095	204.28
813.274	198.14
813.453	245.24
813.632	243.2
813.811	247.29
813.989	206.33
814.168	175.61
814.347	253.44
814.526	196.09
814.704	292.35
814.883	304.64
815.062	230.91
815.24	269.82
815.419	194.05
815.598	282.11
815.776	202.24
815.955	253.44
816.133	216.57
816.312	187.9
816.49	163.33
816.669	187.9
816.847	206.33
817.026	284.16
817.204	206.33
817.383	187.9
817.561	198.14
817.74	235
817.918	187.9
818.097	194.05
818.275	116.22
818.453	177.66
818.632	169.47
818.81	224.76
818.988	165.37
819.167	165.37
819.345	247.29
819.523	210.43
819.701	165.37
819.879	140.8
820.058	169.47
820.236	198.14
820.414	105.98
820.592	124.41
820.77	153.09
820.948	159.23
821.127	73.21
821.305	282.11
821.483	202.24
821.661	163.33
821.839	132.61
822.017	185.85
822.195	163.33
822.373	218.62
822.551	204.28
822.729	134.65
822.907	239.1
823.085	155.13
823.262	138.75
823.44	157.18
823.618	192
823.796	206.33
823.974	206.33
824.152	103.93
824.329	120.32
824.507	200.19
824.685	202.24
824.863	243.2
825.04	103.93
825.218	206.33
825.396	140.8
825.574	165.37
825.751	130.56
825.929	177.66
826.107	124.41
826.284	167.42
826.462	165.37
826.639	69.12
826.817	62.98
826.994	89.6
827.172	179.71
827.349	148.99
827.527	151.04
827.704	120.32
827.882	73.21
828.059	101.89
828.237	99.84
828.414	148.99
828.591	112.13
828.769	185.85
828.946	124.41
829.124	138.75
829.301	77.31
829.478	157.18
829.655	183.81
829.833	181.76
830.01	132.61
830.187	144.89
830.364	187.9
830.542	17.92
830.719	155.13
830.896	151.04
831.073	153.09
831.25	105.98
831.427	157.18
831.604	146.94
831.782	103.93
831.959	132.61
832.136	71.17
832.313	95.74
832.49	112.13
832.667	185.85
832.844	116.22
833.021	97.79
833.198	99.84
833.374	148.99
833.551	93.69
833.728	58.88
833.905	235
834.082	44.54
834.259	56.83
834.436	144.89
834.612	62.98
834.789	105.98
834.966	173.57
835.143	110.08
835.319	89.6
835.496	93.69
835.673	185.85
835.85	140.8
836.026	142.85
836.203	136.7
836.38	140.8
836.556	105.98
836.733	30.21
836.909	136.7
837.086	83.45
837.262	48.64
837.439	132.61
837.616	112.13
837.792	95.74
837.968	112.13
838.145	40.45
838.321	124.41
838.498	122.37
838.674	136.7
838.851	73.21
839.027	122.37
839.203	124.41
839.38	134.65
839.556	36.35
839.732	159.23
839.909	163.33
840.085	177.66
840.261	87.55
840.437	67.07
840.614	130.56
840.79	89.6
840.966	71.17
841.142	91.65
841.318	58.88
841.494	110.08
841.671	169.47
841.847	71.17
842.023	71.17
842.199	196.09
842.375	175.61
842.551	34.3
842.727	132.61
842.903	142.85
843.079	130.56
843.255	120.32
843.431	93.69
843.607	101.89
843.783	36.35
843.959	97.79
844.134	32.26
844.31	101.89
844.486	108.03
844.662	26.11
844.838	62.98
845.013	50.69
845.189	103.93
845.365	67.07
845.541	93.69
845.716	81.41
845.892	118.27
846.068	67.07
846.244	-16.9
846.419	97.79
846.595	124.41
846.77	13.82
846.946	87.55
847.122	34.3
847.297	114.17
847.473	62.98
847.648	54.78
847.824	83.45
847.999	54.78
848.175	77.31
848.35	87.55
848.526	79.36
848.701	75.26
848.876	58.88
849.052	144.89
849.227	87.55
849.403	65.02
849.578	19.97
849.753	79.36
849.929	99.84
850.104	56.83
850.279	52.74
850.454	118.27
850.63	17.92
850.805	81.41
850.98	32.26
851.155	99.84
851.33	3.58
851.505	46.59
851.681	140.8
851.856	87.55
852.031	99.84
852.206	56.83
852.381	71.17
852.556	-8.7
852.731	99.84
852.906	34.3
853.081	62.98
853.256	112.13
853.431	67.07
853.606	44.54
853.781	-18.94
853.956	46.59
854.131	60.93
854.305	83.45
854.48	99.84
854.655	73.21
854.83	-27.14
855.005	22.02
855.18	24.06
855.354	28.16
855.529	97.79
855.704	69.12
855.879	73.21
856.053	87.55
856.228	146.94
856.403	36.35
856.577	56.83
856.752	60.93
856.926	-20.99
857.101	73.21
857.276	22.02
857.45	118.27
857.625	87.55
857.799	24.06
857.974	38.4
858.148	42.5
858.323	15.87
858.497	9.73
858.672	24.06
858.846	34.3
859.02	40.45
859.195	60.93
859.369	32.26
859.543	73.21
859.718	120.32
859.892	38.4
860.066	46.59
860.241	-25.09
860.415	69.12
860.589	11.78
860.763	42.5
860.938	46.59
861.112	26.11
861.286	3.58
861.46	65.02
861.634	-2.56
861.808	54.78
861.982	7.68
862.157	52.74
862.331	46.59
862.505	71.17
862.679	34.3
862.853	99.84
863.027	73.21
863.201	75.26
863.375	40.45
863.549	120.32
863.722	-23.04
863.896	40.45
864.07	38.4
864.244	91.65
864.418	40.45
864.592	54.78
864.766	75.26
864.939	9.73
865.113	34.3
865.287	73.21
865.461	-0.51
865.634	81.41
865.808	75.26
865.982	110.08
866.156	67.07
866.329	-25.09
866.503	-2.56
866.676	30.21
866.85	34.3
867.024	56.83
867.197	118.27
867.371	34.3
867.544	73.21
867.718	62.98
867.891	73.21
868.065	28.16
868.238	173.57
868.412	48.64
868.585	-10.75
868.759	26.11
868.932	19.97
869.105	46.59
869.279	77.31
869.452	89.6
869.625	38.4
869.799	22.02
869.972	-80.38
870.145	97.79
870.319	36.35
870.492	9.73
870.665	32.26
870.838	42.5
871.011	7.68
871.185	103.93
871.358	75.26
871.531	13.82
871.704	67.07
871.877	-18.94
872.05	50.69
872.223	-4.61
872.396	101.89
872.569	75.26
872.742	-10.75
872.915	17.92
873.088	89.6
873.261	-47.62
873.434	-66.05
873.607	19.97
873.78	103.93
873.953	67.07
874.126	58.88
874.299	110.08
874.471	26.11
874.644	36.35
874.817	34.3
874.99	89.6
875.163	15.87
875.335	58.88
875.508	48.64
875.681	71.17
875.853	-6.66
876.026	50.69
876.199	42.5
876.371	22.02
876.544	5.63
876.717	-31.23
876.889	-23.04
877.062	85.5
877.234	19.97
877.407	38.4
877.579	71.17
877.752	24.06
877.924	87.55
878.097	67.07
878.269	48.64
878.442	46.59
878.614	65.02
878.786	48.64
878.959	5.63
879.131	75.26
879.303	7.68
879.476	5.63
879.648	75.26
879.82	9.73
879.993	34.3
880.165	22.02
880.337	38.4
880.509	62.98
880.681	19.97
880.854	-23.04
881.026	-4.61
881.198	87.55
881.37	26.11
881.542	13.82
881.714	15.87
881.886	56.83
882.058	46.59
882.23	-29.18
882.402	52.74
882.574	9.73
882.746	48.64
882.918	22.02
883.09	-0.51
883.262	58.88
883.434	77.31
883.606	-6.66
883.778	28.16
883.95	101.89
884.122	1.54
884.293	93.69
884.465	101.89
884.637	30.21
884.809	71.17
884.98	67.07
885.152	24.06
885.324	24.06
885.496	32.26
885.667	28.16
885.839	-0.51
886.011	85.5
886.182	110.08
886.354	69.12
886.525	24.06
886.697	93.69
886.869	48.64
887.04	-20.99
887.212	28.16
887.383	65.02
887.555	38.4
887.726	-0.51
887.897	5.63
888.069	22.02
888.24	54.78
888.412	36.35
888.583	34.3
888.754	42.5
888.926	71.17
889.097	73.21
889.268	-14.85
889.44	46.59
889.611	-18.94
889.782	40.45
889.953	99.84
890.125	134.65
890.296	13.82
890.467	58.88
890.638	-35.33
890.809	7.68
890.98	26.11
891.151	85.5
891.323	79.36
891.494	40.45
891.665	38.4
891.836	-78.33
892.007	73.21
892.178	69.12
892.349	54.78
892.52	30.21
892.691	36.35
892.862	52.74
893.032	24.06
893.203	-18.94
893.374	56.83
893.545	11.78
893.716	7.68
893.887	65.02
894.057	32.26
894.228	34.3
894.399	1.54
894.57	-2.56
894.74	-10.75
894.911	65.02
895.082	81.41
895.253	-78.33
895.423	5.63
895.594	87.55
895.764	-49.66
895.935	5.63
896.106	77.31
896.276	-20.99
896.447	-2.56
896.617	7.68
896.788	-16.9
896.958	67.07
897.129	42.5
897.299	13.82
897.47	15.87
897.64	26.11
897.81	7.68
897.981	42.5
898.151	-55.81
898.322	60.93
898.492	42.5
898.662	91.65
898.832	48.64
899.003	11.78
899.173	15.87
899.343	42.5
899.513	77.31
