Data from USB4F104151__171__10-27-34-399.txt Node

Date: Wed Mar 12 10:27:34 EDT 2025
User: louis
Spectrometer: USB4F10415
Trigger mode: 4
Integration Time (sec): 3.000000E-2
Scans to average: 1
Electric dark correction enabled: true
Nonlinearity correction enabled: false
Boxcar width: 0
XAxis mode: Wavelengths
Number of Pixels in Spectrum: 3648
>>>>>Begin Spectral Data<<<<<
178.204	-132.09
178.424	-132.09
178.644	-132.09
178.864	-152.57
179.084	-87.04
179.304	-15.36
179.524	3.07
179.744	31.74
179.964	-1.02
180.184	-52.22
180.404	-1.02
180.624	39.94
180.844	3.07
181.064	-35.84
181.283	-9.22
181.503	-19.46
181.723	56.32
181.943	-21.5
182.163	48.13
182.383	44.03
182.602	-25.6
182.822	1.02
183.042	48.13
183.262	-41.98
183.482	52.22
183.701	-9.22
183.921	-23.55
184.141	35.84
184.361	9.22
184.58	3.07
184.8	-9.22
185.02	-3.07
185.239	111.61
185.459	1.02
185.679	68.61
185.898	-54.27
186.118	17.41
186.338	-15.36
186.557	-5.12
186.777	-41.98
186.997	-7.17
187.216	-13.31
187.436	44.03
187.655	44.03
187.875	87.04
188.095	1.02
188.314	84.99
188.534	66.56
188.753	97.28
188.973	76.8
189.192	46.08
189.412	48.13
189.631	46.08
189.851	-37.89
190.07	125.95
190.29	39.94
190.509	-37.89
190.729	-7.17
190.948	7.17
191.168	84.99
191.387	1.02
191.607	-35.84
191.826	60.42
192.045	9.22
192.265	35.84
192.484	54.27
192.704	27.65
192.923	-41.98
193.142	27.65
193.362	-54.27
193.581	50.18
193.8	-21.5
194.02	56.32
194.239	15.36
194.458	-54.27
194.678	-17.41
194.897	19.46
195.116	29.7
195.335	52.22
195.555	62.46
195.774	33.79
195.993	115.71
196.212	-25.6
196.432	78.85
196.651	3.07
196.87	121.85
197.089	95.23
197.308	19.46
197.528	74.75
197.747	-1.02
197.966	76.8
198.185	41.98
198.404	-21.5
198.623	29.7
198.842	31.74
199.062	68.61
199.281	11.26
199.5	31.74
199.719	115.71
199.938	41.98
200.157	21.5
200.376	70.65
200.595	21.5
200.814	76.8
201.033	1.02
201.252	1.02
201.471	27.65
201.69	31.74
201.909	21.5
202.128	11.26
202.347	48.13
202.566	-11.26
202.785	-11.26
203.004	3.07
203.223	117.76
203.442	54.27
203.661	3.07
203.879	60.42
204.098	27.65
204.317	-1.02
204.536	46.08
204.755	56.32
204.974	-11.26
205.193	41.98
205.411	105.47
205.63	80.89
205.849	68.61
206.068	82.94
206.287	23.55
206.505	60.42
206.724	11.26
206.943	31.74
207.162	-41.98
207.381	58.37
207.599	48.13
207.818	11.26
208.037	25.6
208.255	11.26
208.474	70.65
208.693	62.46
208.911	-52.22
209.13	27.65
209.349	58.37
209.567	84.99
209.786	91.13
210.005	37.89
210.223	72.7
210.442	5.12
210.661	25.6
210.879	46.08
211.098	-37.89
211.316	25.6
211.535	-5.12
211.753	-41.98
211.972	101.37
212.191	-15.36
212.409	-9.22
212.628	97.28
212.846	11.26
213.065	56.32
213.283	70.65
213.502	-21.5
213.72	-19.46
213.938	37.89
214.157	50.18
214.375	52.22
214.594	68.61
214.812	-5.12
215.031	-33.79
215.249	78.85
215.467	44.03
215.686	44.03
215.904	60.42
216.122	62.46
216.341	11.26
216.559	44.03
216.778	25.6
216.996	39.94
217.214	19.46
217.432	15.36
217.651	35.84
217.869	113.66
218.087	54.27
218.306	-13.31
218.524	62.46
218.742	9.22
218.96	48.13
219.179	54.27
219.397	76.8
219.615	62.46
219.833	58.37
220.051	58.37
220.27	60.42
220.488	44.03
220.706	-11.26
220.924	7.17
221.142	-1.02
221.36	70.65
221.578	7.17
221.796	27.65
222.015	-5.12
222.233	7.17
222.451	115.71
222.669	-25.6
222.887	-9.22
223.105	-1.02
223.323	-7.17
223.541	27.65
223.759	-19.46
223.977	-62.46
224.195	48.13
224.413	74.75
224.631	44.03
224.849	3.07
225.067	80.89
225.285	-39.94
225.503	-25.6
225.721	-3.07
225.939	-41.98
226.157	78.85
226.375	64.51
226.592	1.02
226.81	72.7
227.028	1.02
227.246	23.55
227.464	84.99
227.682	54.27
227.9	19.46
228.117	37.89
228.335	-25.6
228.553	72.7
228.771	111.61
228.989	68.61
229.206	27.65
229.424	-9.22
229.642	-46.08
229.86	-1.02
230.077	23.55
230.295	-5.12
230.513	56.32
230.731	41.98
230.948	80.89
231.166	117.76
231.384	35.84
231.601	44.03
231.819	27.65
232.037	93.18
232.254	11.26
232.472	-15.36
232.689	56.32
232.907	-13.31
233.125	58.37
233.342	37.89
233.56	-1.02
233.777	-48.13
233.995	-9.22
234.213	21.5
234.43	27.65
234.648	80.89
234.865	60.42
235.083	17.41
235.3	64.51
235.518	15.36
235.735	125.95
235.953	41.98
236.17	56.32
236.388	-19.46
236.605	58.37
236.822	58.37
237.04	7.17
237.257	50.18
237.475	9.22
237.692	23.55
237.909	-11.26
238.127	-58.37
238.344	97.28
238.562	31.74
238.779	44.03
238.996	-13.31
239.214	25.6
239.431	78.85
239.648	25.6
239.865	1.02
240.083	91.13
240.3	-19.46
240.517	17.41
240.735	-11.26
240.952	62.46
241.169	58.37
241.386	48.13
241.603	5.12
241.821	66.56
242.038	23.55
242.255	74.75
242.472	19.46
242.689	80.89
242.907	33.79
243.124	72.7
243.341	-46.08
243.558	44.03
243.775	-5.12
243.992	-19.46
244.209	105.47
244.426	54.27
244.643	35.84
244.86	78.85
245.078	-3.07
245.295	70.65
245.512	23.55
245.729	27.65
245.946	101.37
246.163	41.98
246.38	1.02
246.597	82.94
246.814	23.55
247.031	15.36
247.248	15.36
247.464	64.51
247.681	54.27
247.898	-35.84
248.115	-19.46
248.332	-31.74
248.549	33.79
248.766	29.7
248.983	115.71
249.2	-87.04
249.417	19.46
249.633	31.74
249.85	7.17
250.067	-5.12
250.284	9.22
250.501	-15.36
250.717	44.03
250.934	-39.94
251.151	5.12
251.368	33.79
251.585	41.98
251.801	3.07
252.018	76.8
252.235	31.74
252.451	-41.98
252.668	23.55
252.885	80.89
253.102	21.5
253.318	87.04
253.535	25.6
253.752	33.79
253.968	27.65
254.185	31.74
254.401	7.17
254.618	-3.07
254.835	-7.17
255.051	93.18
255.268	72.7
255.484	-37.89
255.701	11.26
255.917	93.18
256.134	-3.07
256.351	52.22
256.567	-46.08
256.784	-37.89
257	-5.12
257.217	93.18
257.433	54.27
257.65	27.65
257.866	33.79
258.082	39.94
258.299	3.07
258.515	23.55
258.732	11.26
258.948	29.7
259.165	3.07
259.381	97.28
259.597	17.41
259.814	35.84
260.03	-9.22
260.246	44.03
260.463	78.85
260.679	56.32
260.895	-5.12
261.112	-11.26
261.328	23.55
261.544	-70.65
261.761	80.89
261.977	29.7
262.193	-19.46
262.409	19.46
262.626	-1.02
262.842	46.08
263.058	15.36
263.274	3.07
263.49	123.9
263.707	9.22
263.923	-35.84
264.139	46.08
264.355	27.65
264.571	84.99
264.787	3.07
265.004	87.04
265.22	-11.26
265.436	-31.74
265.652	-9.22
265.868	82.94
266.084	-37.89
266.3	-25.6
266.516	-9.22
266.732	60.42
266.948	19.46
267.164	33.79
267.38	-7.17
267.596	46.08
267.812	68.61
268.028	60.42
268.244	19.46
268.46	44.03
268.676	25.6
268.892	64.51
269.108	72.7
269.324	3.07
269.54	-62.46
269.756	78.85
269.972	19.46
270.188	-7.17
270.403	-5.12
270.619	1.02
270.835	-11.26
271.051	23.55
271.267	-23.55
271.483	3.07
271.698	39.94
271.914	5.12
272.13	-41.98
272.346	89.09
272.562	9.22
272.777	56.32
272.993	48.13
273.209	50.18
273.425	39.94
273.64	-25.6
273.856	50.18
274.072	37.89
274.287	35.84
274.503	109.57
274.719	48.13
274.934	-21.5
275.15	19.46
275.366	15.36
275.581	52.22
275.797	-17.41
276.012	27.65
276.228	58.37
276.444	17.41
276.659	66.56
276.875	72.7
277.09	-21.5
277.306	15.36
277.521	68.61
277.737	37.89
277.952	13.31
278.168	56.32
278.383	48.13
278.599	-29.7
278.814	-7.17
279.03	29.7
279.245	39.94
279.461	41.98
279.676	125.95
279.892	1.02
280.107	31.74
280.322	-25.6
280.538	74.75
280.753	21.5
280.969	27.65
281.184	74.75
281.399	23.55
281.615	25.6
281.83	-21.5
282.045	21.5
282.26	27.65
282.476	101.37
282.691	68.61
282.906	3.07
283.122	-11.26
283.337	-19.46
283.552	25.6
283.767	37.89
283.983	13.31
284.198	44.03
284.413	-39.94
284.628	54.27
284.843	89.09
285.058	31.74
285.274	52.22
285.489	19.46
285.704	37.89
285.919	7.17
286.134	29.7
286.349	115.71
286.564	-25.6
286.779	76.8
286.995	27.65
287.21	23.55
287.425	19.46
287.64	-39.94
287.855	48.13
288.07	46.08
288.285	3.07
288.5	115.71
288.715	103.42
288.93	27.65
289.145	-5.12
289.36	134.14
289.575	5.12
289.79	41.98
290.004	60.42
290.219	17.41
290.434	13.31
290.649	50.18
290.864	48.13
291.079	82.94
291.294	1.02
291.509	15.36
291.724	46.08
291.938	50.18
292.153	-21.5
292.368	41.98
292.583	132.09
292.798	72.7
293.012	-19.46
293.227	44.03
293.442	37.89
293.657	97.28
293.871	3.07
294.086	39.94
294.301	107.52
294.516	68.61
294.73	31.74
294.945	37.89
295.16	21.5
295.374	46.08
295.589	62.46
295.804	-1.02
296.018	21.5
296.233	128
296.447	48.13
296.662	7.17
296.877	82.94
297.091	5.12
297.306	60.42
297.52	35.84
297.735	62.46
297.949	50.18
298.164	-72.7
298.378	60.42
298.593	25.6
298.807	-11.26
299.022	50.18
299.236	11.26
299.451	39.94
299.665	-35.84
299.88	35.84
300.094	41.98
300.309	60.42
300.523	21.5
300.737	-5.12
300.952	39.94
301.166	72.7
301.381	-1.02
301.595	52.22
301.809	17.41
302.024	11.26
302.238	52.22
302.452	82.94
302.667	95.23
302.881	109.57
303.095	33.79
303.309	64.51
303.524	35.84
303.738	-33.79
303.952	29.7
304.166	27.65
304.381	27.65
304.595	70.65
304.809	66.56
305.023	-1.02
305.237	29.7
305.452	50.18
305.666	39.94
305.88	72.7
306.094	68.61
306.308	48.13
306.522	31.74
306.736	134.14
306.95	-13.31
307.164	-54.27
307.379	66.56
307.593	7.17
307.807	23.55
308.021	107.52
308.235	29.7
308.449	-7.17
308.663	44.03
308.877	103.42
309.091	1.02
309.305	111.61
309.519	-25.6
309.733	35.84
309.947	-5.12
310.161	13.31
310.374	76.8
310.588	39.94
310.802	-33.79
311.016	62.46
311.23	48.13
311.444	-19.46
311.658	76.8
311.872	84.99
312.085	84.99
312.299	29.7
312.513	5.12
312.727	41.98
312.941	3.07
313.154	70.65
313.368	72.7
313.582	52.22
313.796	52.22
314.009	-11.26
314.223	44.03
314.437	33.79
314.651	31.74
314.864	-5.12
315.078	93.18
315.292	50.18
315.505	64.51
315.719	82.94
315.933	68.61
316.146	68.61
316.36	-7.17
316.573	89.09
316.787	-29.7
317.001	72.7
317.214	46.08
317.428	37.89
317.641	3.07
317.855	33.79
318.068	-7.17
318.282	11.26
318.495	64.51
318.709	62.46
318.922	35.84
319.136	80.89
319.349	68.61
319.563	-13.31
319.776	68.61
319.99	70.65
320.203	76.8
320.417	-33.79
320.63	52.22
320.843	95.23
321.057	87.04
321.27	62.46
321.483	41.98
321.697	17.41
321.91	-25.6
322.124	33.79
322.337	44.03
322.55	-1.02
322.763	13.31
322.977	35.84
323.19	15.36
323.403	60.42
323.617	44.03
323.83	125.95
324.043	-37.89
324.256	-9.22
324.469	56.32
324.683	119.81
324.896	23.55
325.109	68.61
325.322	44.03
325.535	1.02
325.748	99.33
325.962	3.07
326.175	44.03
326.388	31.74
326.601	7.17
326.814	60.42
327.027	93.18
327.24	138.24
327.453	7.17
327.666	72.7
327.879	37.89
328.092	39.94
328.305	33.79
328.518	21.5
328.731	48.13
328.944	99.33
329.157	93.18
329.37	-5.12
329.583	105.47
329.796	150.53
330.009	3.07
330.222	15.36
330.435	101.37
330.648	27.65
330.861	84.99
331.073	13.31
331.286	19.46
331.499	76.8
331.712	76.8
331.925	66.56
332.138	44.03
332.35	121.85
332.563	35.84
332.776	60.42
332.989	31.74
333.202	56.32
333.414	23.55
333.627	52.22
333.84	9.22
334.053	54.27
334.265	3.07
334.478	-3.07
334.691	15.36
334.903	17.41
335.116	-37.89
335.329	48.13
335.541	93.18
335.754	66.56
335.966	33.79
336.179	52.22
336.392	-76.8
336.604	33.79
336.817	31.74
337.029	87.04
337.242	33.79
337.454	62.46
337.667	50.18
337.88	107.52
338.092	-9.22
338.305	76.8
338.517	21.5
338.729	109.57
338.942	97.28
339.154	48.13
339.367	9.22
339.579	93.18
339.792	-9.22
340.004	84.99
340.217	27.65
340.429	5.12
340.641	-29.7
340.854	111.61
341.066	29.7
341.278	117.76
341.491	136.19
341.703	-17.41
341.915	-29.7
342.128	48.13
342.34	80.89
342.552	37.89
342.764	-29.7
342.977	-19.46
343.189	56.32
343.401	89.09
343.613	44.03
343.826	-15.36
344.038	72.7
344.25	56.32
344.462	17.41
344.674	-25.6
344.886	21.5
345.099	48.13
345.311	50.18
345.523	78.85
345.735	35.84
345.947	52.22
346.159	64.51
346.371	-9.22
346.583	5.12
346.795	80.89
347.007	56.32
347.219	52.22
347.431	-41.98
347.643	99.33
347.855	9.22
348.067	97.28
348.279	37.89
348.491	27.65
348.703	52.22
348.915	50.18
349.127	35.84
349.339	64.51
349.551	52.22
349.763	3.07
349.975	72.7
350.187	19.46
350.399	105.47
350.61	9.22
350.822	35.84
351.034	9.22
351.246	84.99
351.458	52.22
351.669	95.23
351.881	93.18
352.093	109.57
352.305	93.18
352.517	109.57
352.728	44.03
352.94	91.13
353.152	72.7
353.363	-25.6
353.575	11.26
353.787	27.65
353.999	109.57
354.21	91.13
354.422	1.02
354.633	21.5
354.845	76.8
355.057	31.74
355.268	107.52
355.48	29.7
355.692	-5.12
355.903	17.41
356.115	19.46
356.326	-5.12
356.538	70.65
356.749	-1.02
356.961	123.9
357.172	-52.22
357.384	41.98
357.595	93.18
357.807	39.94
358.018	-21.5
358.23	-5.12
358.441	35.84
358.653	15.36
358.864	84.99
359.075	-35.84
359.287	37.89
359.498	23.55
359.709	93.18
359.921	5.12
360.132	76.8
360.344	68.61
360.555	35.84
360.766	62.46
360.977	-19.46
361.189	95.23
361.4	25.6
361.611	17.41
361.823	11.26
362.034	52.22
362.245	1.02
362.456	62.46
362.667	62.46
362.879	31.74
363.09	-44.03
363.301	76.8
363.512	9.22
363.723	25.6
363.935	11.26
364.146	97.28
364.357	35.84
364.568	-41.98
364.779	31.74
364.99	64.51
365.201	60.42
365.412	44.03
365.623	-9.22
365.834	152.57
366.045	78.85
366.256	175.1
366.467	44.03
366.678	64.51
366.889	-29.7
367.1	74.75
367.311	39.94
367.522	160.77
367.733	72.7
367.944	74.75
368.155	82.94
368.366	23.55
368.577	-21.5
368.788	95.23
368.999	91.13
369.209	60.42
369.42	111.61
369.631	-17.41
369.842	41.98
370.053	25.6
370.264	97.28
370.474	76.8
370.685	80.89
370.896	-13.31
371.107	99.33
371.317	-29.7
371.528	72.7
371.739	66.56
371.95	-29.7
372.16	89.09
372.371	23.55
372.582	39.94
372.792	66.56
373.003	48.13
373.214	84.99
373.424	136.19
373.635	37.89
373.846	156.67
374.056	-13.31
374.267	60.42
374.477	89.09
374.688	29.7
374.898	78.85
375.109	46.08
375.319	19.46
375.53	78.85
375.74	33.79
375.951	93.18
376.161	76.8
376.372	64.51
376.582	-35.84
376.793	80.89
377.003	-33.79
377.214	44.03
377.424	48.13
377.635	41.98
377.845	-1.02
378.055	119.81
378.266	3.07
378.476	11.26
378.686	19.46
378.897	72.7
379.107	29.7
379.317	109.57
379.528	74.75
379.738	148.48
379.948	35.84
380.158	58.37
380.369	41.98
380.579	113.66
380.789	78.85
380.999	128
381.21	109.57
381.42	95.23
381.63	125.95
381.84	1.02
382.05	33.79
382.261	103.42
382.471	95.23
382.681	29.7
382.891	52.22
383.101	95.23
383.311	11.26
383.521	62.46
383.731	74.75
383.941	60.42
384.151	29.7
384.361	68.61
384.571	78.85
384.781	58.37
384.991	74.75
385.201	87.04
385.411	148.48
385.621	82.94
385.831	41.98
386.041	15.36
386.251	27.65
386.461	175.1
386.671	50.18
386.881	41.98
387.091	152.57
387.301	175.1
387.511	31.74
387.72	121.85
387.93	58.37
388.14	60.42
388.35	74.75
388.56	44.03
388.769	58.37
388.979	89.09
389.189	82.94
389.399	87.04
389.609	74.75
389.818	35.84
390.028	-17.41
390.238	111.61
390.447	-1.02
390.657	44.03
390.867	15.36
391.076	33.79
391.286	58.37
391.496	68.61
391.705	74.75
391.915	125.95
392.125	84.99
392.334	80.89
392.544	48.13
392.753	76.8
392.963	82.94
393.172	123.9
393.382	87.04
393.591	130.05
393.801	44.03
394.01	168.96
394.22	89.09
394.429	166.91
394.639	66.56
394.848	95.23
395.058	54.27
395.267	142.33
395.477	111.61
395.686	50.18
395.895	48.13
396.105	130.05
396.314	93.18
396.524	105.47
396.733	111.61
396.942	107.52
397.152	113.66
397.361	185.34
397.57	80.89
397.78	136.19
397.989	171.01
398.198	101.37
398.407	97.28
398.617	87.04
398.826	107.52
399.035	105.47
399.244	134.14
399.453	144.38
399.663	89.09
399.872	177.15
400.081	148.48
400.29	128
400.499	111.61
400.708	138.24
400.917	154.62
401.127	76.8
401.336	84.99
401.545	134.14
401.754	130.05
401.963	80.89
402.172	150.53
402.381	66.56
402.59	136.19
402.799	134.14
403.008	193.53
403.217	74.75
403.426	175.1
403.635	87.04
403.844	160.77
404.053	134.14
404.262	132.09
404.471	140.29
404.68	197.63
404.888	211.96
405.097	166.91
405.306	195.58
405.515	130.05
405.724	142.33
405.933	156.67
406.142	246.78
406.35	226.3
406.559	154.62
406.768	214.01
406.977	254.97
407.185	228.35
407.394	205.82
407.603	238.59
407.812	238.59
408.02	283.64
408.229	226.3
408.438	207.87
408.646	209.92
408.855	228.35
409.064	345.08
409.272	257.02
409.481	252.92
409.69	293.88
409.898	320.51
410.107	306.17
410.315	369.66
410.524	343.03
410.733	338.94
410.941	367.61
411.15	330.75
411.358	424.95
411.567	470.01
411.775	476.15
411.984	439.29
412.192	494.58
412.401	500.73
412.609	449.53
412.818	560.12
413.026	517.11
413.234	513.02
413.443	500.73
413.651	525.3
413.86	564.22
414.068	633.85
414.276	588.79
414.485	646.13
414.693	707.57
414.901	732.15
415.11	730.1
415.318	709.62
415.526	846.84
415.734	826.36
415.943	824.31
416.151	879.6
416.359	928.75
416.567	859.12
416.776	979.95
416.984	1010.67
417.192	928.75
417.4	1074.16
417.608	1139.69
417.817	1180.65
418.025	1127.41
418.233	1321.96
418.441	1188.85
418.649	1324.01
418.857	1414.12
419.065	1377.26
419.273	1405.93
419.481	1403.88
419.689	1485.8
419.897	1649.64
420.105	1684.45
420.313	1680.36
420.521	1672.17
420.729	1729.51
420.937	1813.48
421.145	1903.59
421.353	2003.94
421.561	2108.38
421.769	2079.71
421.977	2206.69
422.185	2247.65
422.393	2335.71
422.601	2413.53
422.809	2372.57
423.017	2376.67
423.224	2591.7
423.432	2726.87
423.64	2632.66
423.848	2948.05
424.056	2941.91
424.263	3005.39
424.471	2972.63
424.679	3025.87
424.887	3265.49
425.094	3406.8
425.302	3484.62
425.51	3486.67
425.718	3630.02
425.925	3697.61
426.133	3818.44
426.341	4086.72
426.548	4238.27
426.756	4238.27
426.964	4277.18
427.171	4406.2
427.379	4611
427.586	4721.59
427.794	4823.99
428.001	5030.84
428.209	5309.36
428.417	5268.4
428.624	5553.07
428.832	5647.27
429.039	5516.2
429.247	5526.44
429.454	6032.29
429.662	6366.11
429.869	6036.39
430.076	6499.23
430.284	6230.94
430.491	6650.78
430.699	6857.62
430.906	6857.62
431.114	6921.11
431.321	7373.71
431.528	7398.29
431.736	7685
431.943	8387.46
432.15	7977.86
432.358	7906.18
432.565	8465.28
432.772	8319.87
432.979	9022.33
433.187	9036.66
433.394	9130.87
433.601	9655.15
433.808	9612.14
434.016	9565.04
434.223	10011.5
434.43	10568.54
434.637	10660.7
434.844	11109.21
435.052	11438.93
435.259	11418.45
435.466	11469.65
435.673	11129.69
435.88	12077.9
436.087	12450.63
436.294	12540.74
436.501	12143.43
436.708	12284.74
436.915	12895.04
437.122	13454.13
437.329	13763.37
437.537	13853.48
437.743	14064.43
437.95	14043.95
438.157	14512.93
438.364	15096.6
438.571	14920.48
438.778	14973.72
438.985	16710.4
439.192	15989.52
439.399	16548.61
439.606	16210.7
439.813	17099.52
440.02	17957.61
440.227	17875.7
440.433	17537.78
440.64	18094.83
440.847	17930.99
441.054	18522.85
441.261	19749.59
441.467	19421.91
441.674	19888.85
441.881	20495.05
442.088	20587.21
442.294	20320.97
442.501	20669.12
442.708	21111.49
442.914	22387.37
443.121	22805.16
443.328	22387.37
443.534	24228.49
443.741	23403.16
443.948	22956.71
444.154	24715.91
444.361	24599.18
444.568	24797.83
444.774	24930.95
444.981	24992.39
445.187	25485.95
445.394	26442.35
445.6	26319.47
445.807	28922.44
446.013	27519.58
446.22	27931.22
446.426	29430.33
446.633	29600.32
446.839	30343.73
447.046	29286.98
447.252	30671.4
447.459	30706.22
447.665	30687.79
447.871	32098.84
448.078	33280.52
448.284	31666.72
448.491	32473.62
448.697	33876.48
448.903	34175.48
449.11	34120.18
449.316	33368.58
449.522	34296.31
449.728	35504.61
449.935	35277.29
450.141	35533.28
450.347	36241.88
450.553	35058.15
450.76	35549.67
450.966	36717.01
451.172	36200.92
451.378	36893.13
451.584	36532.69
451.791	37278.15
451.997	37257.67
452.203	37597.63
452.409	37388.74
452.615	36983.24
452.821	35891.68
453.027	35582.43
453.233	37534.15
453.44	35508.71
453.646	36028.89
453.852	36549.07
454.058	37061.07
454.264	35404.26
454.47	36411.86
454.676	35523.04
454.882	36643.28
455.088	33759.74
455.294	33894.91
455.5	34599.41
455.705	34857.45
455.911	33628.67
456.117	32858.63
456.323	32313.87
456.529	30659.12
456.735	31685.15
456.941	30825
457.147	30736.94
457.352	29577.79
457.558	28916.29
457.764	29016.65
457.97	28539.47
458.176	28164.69
458.381	27992.66
458.587	26684.01
458.793	26550.89
458.999	25371.26
459.204	26923.62
459.41	26180.21
459.616	24742.53
459.821	24658.57
460.027	24343.18
460.233	23759.51
460.438	22682.28
460.644	23356.06
460.85	22055.6
461.055	21639.86
461.261	21586.61
461.466	20091.6
461.672	19626.71
461.878	20736.71
462.083	19452.63
462.289	19311.32
462.494	19010.27
462.7	18090.73
462.905	17738.48
463.111	18221.8
463.316	18514.66
463.522	17953.52
463.727	17873.65
463.932	17910.51
464.138	17832.69
464.343	17738.48
464.549	17158.91
464.754	17767.15
464.959	17695.47
465.165	17361.66
465.37	16704.26
465.575	16417.54
465.781	17275.64
465.986	17220.35
466.191	16753.41
466.397	16280.33
466.602	15522.58
466.807	15969.04
467.012	15903.5
467.218	15903.5
467.423	15659.79
467.628	16198.41
467.833	16370.44
468.038	15854.35
468.244	15463.19
468.449	16225.03
468.654	15663.89
468.859	15094.55
469.064	15143.7
469.269	14736.16
469.474	14883.61
469.679	15317.78
469.885	14779.17
470.09	14951.2
470.295	14619.42
470.5	14390.05
470.705	14441.25
470.91	13978.41
471.115	14187.3
471.32	14183.21
471.525	14121.77
471.73	13769.52
471.935	13730.61
472.139	13191.99
472.344	13337.4
472.549	13278.01
472.754	13159.22
472.959	12991.29
473.164	12542.78
473.369	12368.71
473.574	12938.04
473.778	12796.73
473.983	12608.32
474.188	12667.71
474.393	11993.93
474.598	12194.63
474.802	12079.94
475.007	11995.98
475.212	12018.5
475.417	11498.32
475.621	11504.46
475.826	11748.17
476.031	11234.13
476.235	11131.73
476.44	11322.2
476.645	11094.87
476.849	11199.32
477.054	10847.07
477.259	10859.35
477.463	10982.23
477.668	10460
477.872	10439.52
478.077	10398.56
478.282	10193.76
478.486	10236.77
478.691	10120.04
478.895	10126.18
479.1	10161
479.304	10093.41
479.509	9560.94
479.713	9948.01
479.918	9708.4
480.122	9481.07
480.326	9532.27
480.531	9818.99
480.735	9634.67
480.94	9644.91
481.144	9847.66
481.348	9386.86
481.553	9483.12
481.757	9218.93
481.961	9444.21
482.166	9333.62
482.37	9370.48
482.574	9151.35
482.778	9272.18
482.983	9350
483.187	9298.8
483.391	9501.55
483.595	9288.56
483.8	9339.76
484.004	9325.43
484.208	9440.11
484.412	9300.85
484.616	9304.95
484.821	9374.58
485.025	9190.26
485.229	9390.96
485.433	9208.69
485.637	9436.02
485.841	9249.65
486.045	9182.07
486.249	9399.15
486.453	9161.59
486.657	9350
486.861	9360.24
487.065	9077.62
487.269	9216.88
487.473	9034.61
487.677	9280.37
487.881	9276.27
488.085	9180.02
488.289	9454.45
488.493	9266.03
488.697	9431.92
488.901	9315.19
489.105	9323.38
489.309	9196.4
489.512	9466.74
489.716	9415.54
489.92	9235.32
490.124	9513.84
490.328	9702.25
490.531	9497.46
490.735	9712.49
490.939	9491.31
491.143	9487.22
491.346	9427.82
491.55	9554.8
491.754	9843.56
491.958	9704.3
492.161	9513.84
492.365	9833.32
492.569	9902.95
492.772	9806.7
492.976	9952.1
493.18	10029.93
493.383	10224.48
493.587	10163.04
493.79	10339.17
493.994	10148.71
494.197	10460
494.401	10535.78
494.605	10423.14
494.808	10591.07
495.012	10292.07
495.215	10611.55
495.419	10935.13
495.622	10830.68
495.825	11107.16
496.029	10892.12
496.232	11336.53
496.436	11041.62
496.639	11359.06
496.843	11076.44
497.046	11656.01
497.249	11666.25
497.453	11576.14
497.656	11821.9
497.859	11873.1
498.063	12143.43
498.266	12233.54
498.469	12168.01
498.673	12139.33
498.876	12569.41
499.079	12632.9
499.282	12636.99
499.485	13052.73
499.689	12680
499.892	13120.31
500.095	13169.46
500.298	13556.53
500.501	13474.61
500.705	13677.36
500.908	13896.49
501.111	14011.18
501.314	14228.26
501.517	14355.24
501.72	14457.64
501.923	14529.31
502.126	15000.35
502.329	15182.62
502.532	14940.96
502.735	15244.06
502.938	15405.84
503.141	15575.83
503.344	15874.83
503.547	16040.72
503.75	15807.25
503.953	16521.99
504.156	16392.97
504.359	16425.73
504.562	16509.7
504.765	16952.06
504.968	17441.53
505.17	17371.89
505.373	17476.34
505.576	17885.94
505.779	18086.64
505.982	18109.16
506.185	18316.01
506.387	18369.26
506.59	18522.85
506.793	18973.41
506.996	18875.1
507.198	19235.55
507.401	19221.21
507.604	19712.72
507.807	20040.4
508.009	20126.41
508.212	19991.25
508.415	20662.98
508.617	20773.57
508.82	20894.4
509.022	20716.23
509.225	21664.44
509.428	21621.43
509.63	21676.73
509.833	21938.87
510.035	22409.9
510.238	22362.79
510.44	22799.01
510.643	22917.79
510.845	23063.2
511.048	22946.47
511.25	23421.59
511.453	23521.95
511.655	24713.86
511.858	24038.03
512.06	24261.26
512.262	24474.25
512.465	24894.08
512.667	25244.29
512.87	25508.47
513.072	25760.37
513.274	26374.77
513.477	26321.52
513.679	26466.92
513.881	26681.96
514.084	26980.96
514.286	26952.29
514.488	27503.2
514.69	28078.68
514.893	28031.57
515.095	28238.42
515.297	28482.13
515.499	28760.65
515.701	29256.26
515.904	29237.83
516.106	29749.82
516.308	29909.56
516.51	30523.95
516.712	30401.07
516.914	30841.39
517.116	31142.44
517.318	31138.34
517.52	31158.82
517.722	31758.88
517.925	31871.51
518.127	32350.74
518.329	32731.66
518.531	32461.33
518.733	32991.75
518.935	33325.57
519.136	33559.04
519.338	34028.02
519.54	34206.2
519.742	34963.95
519.944	34978.28
520.146	35467.75
520.348	35658.21
520.55	35844.57
520.752	35871.2
520.954	36850.13
521.155	36366.81
521.357	36418
521.559	37181.9
521.761	37712.32
521.963	37626.31
522.164	37892.54
522.366	38373.81
522.568	38412.73
522.77	38726.07
522.971	38975.92
523.173	39193
523.375	39535.01
523.576	39291.3
523.778	39502.25
523.98	40227.23
524.181	40112.54
524.383	40565.14
524.584	40944.02
524.786	40911.25
524.988	40806.8
525.189	41462.15
525.391	41709.96
525.592	41785.73
525.794	42213.76
525.995	42160.51
526.197	42232.19
526.398	42314.11
526.6	43002.22
526.801	42934.64
527.003	43362.67
527.204	43571.56
527.406	43678.05
527.607	43897.19
527.808	44251.48
528.01	43733.35
528.211	44341.6
528.412	44749.14
528.614	44624.22
528.815	44583.26
529.016	45146.45
529.218	44708.18
529.419	45205.84
529.62	44980.56
529.822	45197.65
530.023	45453.64
530.224	45529.42
530.425	45132.11
530.626	45637.96
530.828	45367.63
531.029	46324.03
531.23	45871.43
531.431	45723.97
531.632	46074.18
531.833	46324.03
532.035	45773.13
532.236	46399.8
532.437	46575.93
532.638	46418.24
532.839	46494.01
533.04	47100.21
533.241	45748.55
533.442	47247.66
533.643	46575.93
533.844	46883.12
534.045	46965.04
534.246	46485.82
534.447	47202.61
534.648	46668.09
534.849	47089.97
535.05	46786.87
535.251	46707
535.451	46584.12
535.652	47022.39
535.853	46905.65
536.054	46969.14
536.255	47096.11
536.456	46463.29
536.657	47620.39
536.857	47106.35
537.058	46754.1
537.259	47550.76
537.46	47604.01
537.66	47276.33
537.861	47399.21
538.062	46932.28
538.263	47274.29
538.463	46926.13
538.664	47509.8
538.865	47429.93
539.065	47534.38
539.266	46854.45
539.466	48171.3
539.667	46657.85
539.868	47636.78
540.068	47319.34
540.269	47450.41
540.469	47507.76
540.67	47100.21
540.87	47149.36
541.071	47245.62
541.271	47266.09
541.472	46997.81
541.672	47329.58
541.873	46891.32
542.073	46510.39
542.274	47296.81
542.474	46999.86
542.675	46614.84
542.875	47030.58
543.075	46965.04
543.276	46623.03
543.476	47302.96
543.676	46807.35
543.877	47520.04
544.077	47206.7
544.277	47016.24
544.478	47280.43
544.678	47190.32
544.878	46981.43
545.078	47229.23
545.279	47008.05
545.479	46747.96
545.679	47028.53
545.879	47182.13
546.079	46971.19
546.28	46936.37
546.48	47139.12
546.68	46971.19
546.88	47085.87
547.08	47014.19
547.28	47132.98
547.48	46647.61
547.68	46666.04
547.88	46506.3
548.081	47298.86
548.281	47022.39
548.481	46573.88
548.681	47024.43
548.881	46954.8
549.081	46960.95
549.28	46815.54
549.48	47014.19
549.68	46743.86
549.88	47378.73
550.08	46475.58
550.28	46895.41
550.48	46764.34
550.68	47018.29
550.88	46637.37
551.08	46977.33
551.279	46893.36
551.479	46090.56
551.679	46698.81
551.879	46592.31
552.079	46774.58
552.278	46887.22
552.478	46782.77
552.678	46620.98
552.878	46899.51
553.077	46602.55
553.277	46444.86
553.477	46801.21
553.676	46346.56
553.876	46473.53
554.076	46158.14
554.275	46379.32
554.475	45674.82
554.674	46477.63
554.874	46381.37
555.074	46301.5
555.273	46289.21
555.473	46643.51
555.672	45875.52
555.872	46043.46
556.071	45926.72
556.271	46281.02
556.47	45826.37
556.67	45726.02
556.869	45871.43
557.068	46047.55
557.268	45531.47
557.467	46053.7
557.667	45592.9
557.866	45898.05
558.065	45683.01
558.265	45517.13
558.464	45046.1
558.663	45707.59
558.863	45093.2
559.062	45936.96
559.261	45379.92
559.461	45345.1
559.66	44577.11
559.859	45007.19
560.058	44566.87
560.258	44974.42
560.457	44409.18
560.656	44947.79
560.855	44636.5
561.054	44740.95
561.253	44577.11
561.453	44394.84
561.652	44579.16
561.851	44802.39
562.05	44378.46
562.249	43719.01
562.448	44237.15
562.647	44349.79
562.846	44196.19
563.045	43817.32
563.244	43487.59
563.443	43962.72
563.642	43071.85
563.841	43602.28
564.04	43069.81
564.239	43680.1
564.438	42887.54
564.637	43141.49
564.836	43108.72
565.035	42680.69
565.234	42727.8
565.432	42637.69
565.631	42471.8
565.83	42705.27
566.029	42379.64
566.228	42334.59
566.427	42058.11
566.625	41877.89
566.824	41333.13
567.023	42281.34
567.222	41220.49
567.42	42260.86
567.619	41675.14
567.818	41343.37
568.016	41619.84
568.215	41734.53
568.414	41441.67
568.612	41306.51
568.811	41154.96
569.01	41075.09
569.208	40325.53
569.407	40853.9
569.605	40497.56
569.804	40665.49
570.002	40374.68
570.201	40538.52
570.4	39817.63
570.598	39903.65
570.797	39641.51
570.995	39799.2
571.193	39391.65
571.392	39915.93
571.59	39530.92
571.789	39600.55
571.987	39391.65
572.186	39266.73
572.384	39061.93
572.582	39045.55
572.781	39145.9
572.979	38683.06
573.177	38812.08
573.376	38994.35
573.574	38418.87
573.772	38640.05
573.971	38506.93
574.169	38289.85
574.367	38011.32
574.565	37974.46
574.763	37929.41
574.962	37695.94
575.16	37407.17
575.358	37423.56
575.556	37030.35
575.754	37659.07
575.952	37020.11
576.151	37398.98
576.349	36676.05
576.547	36811.21
576.745	36717.01
576.943	37050.83
577.141	36983.24
577.339	36594.13
577.537	36327.89
577.735	36176.34
577.933	36182.49
578.131	36336.09
578.329	35772.89
578.527	35979.74
578.725	35987.93
578.923	35965.4
579.121	35580.39
579.319	35484.13
579.516	35826.14
579.714	35221.99
579.912	35197.41
580.11	35267.05
580.308	35250.66
580.506	34963.95
580.704	34755.05
580.901	35017.19
581.099	35267.05
581.297	34408.95
581.495	34484.72
581.692	34724.33
581.89	34392.56
582.088	34535.92
582.285	34202.1
582.483	34636.27
582.681	34187.77
582.878	33788.41
583.076	33331.72
583.274	33632.77
583.471	33010.18
583.669	33755.64
583.866	33135.11
584.064	33661.44
584.262	32946.7
584.459	33626.62
584.657	33116.68
584.854	33167.88
585.052	32485.9
585.249	32909.83
585.447	32780.81
585.644	32418.32
585.841	32215.57
586.039	32895.5
586.236	31986.2
586.434	32080.41
586.631	32285.2
586.828	31998.49
587.026	32174.61
587.223	31910.43
587.42	31504.93
587.618	31490.59
587.815	31152.68
588.012	31396.38
588.21	31451.68
588.407	31210.02
588.604	31158.82
588.801	30728.75
588.999	31019.56
589.196	30835.24
589.393	30835.24
589.59	30833.19
589.787	30517.81
589.984	30689.84
590.182	30421.55
590.379	30523.95
590.576	30171.7
590.773	30241.33
590.97	30077.49
591.167	30231.09
591.364	29952.57
591.561	29602.36
591.758	29305.41
591.955	29712.95
592.152	29571.64
592.349	29663.8
592.546	29477.44
592.743	29211.2
592.94	29051.46
593.137	29356.61
593.334	29182.53
593.531	28635.72
593.727	29149.76
593.924	28901.96
594.121	28541.52
594.318	28648.01
594.515	28140.11
594.712	28543.56
594.908	28439.12
595.105	28482.13
595.302	27847.26
595.499	28023.38
595.696	27906.65
595.892	27884.12
596.089	27701.85
596.286	28262.99
596.482	27748.95
596.679	27601.5
596.876	27390.56
597.072	27404.89
597.269	27611.74
597.466	27085.41
597.662	26987.11
597.859	27222.62
598.055	27165.28
598.252	26847.85
598.448	27021.92
598.645	26749.54
598.841	26292.85
599.038	26710.63
599.234	26495.6
599.431	26153.58
599.627	26561.13
599.824	26395.25
600.02	26192.5
600.217	26323.57
600.413	25842.29
600.609	25850.49
600.806	25946.74
601.002	25934.45
601.198	25551.48
601.395	25404.03
601.591	25475.71
601.787	25512.57
601.984	25148.03
602.18	25887.35
602.376	25291.39
602.572	25238.14
602.769	24986.24
602.965	24820.36
603.161	24928.9
603.357	24752.77
603.553	24699.53
603.75	24808.07
603.946	24201.87
604.142	24365.71
604.338	24212.11
604.534	24101.52
604.73	23999.12
604.926	24228.49
605.122	24560.27
605.318	23986.83
605.514	23648.92
605.71	23882.39
605.906	23548.57
606.102	23945.87
606.298	23923.35
606.494	23696.02
606.69	23642.78
606.886	23646.87
607.082	23296.67
607.278	23597.72
607.474	22981.28
607.67	23155.36
607.866	23040.67
608.062	23116.45
608.257	22938.27
608.453	23163.55
608.649	23134.88
608.845	22577.83
609.041	22868.64
609.236	23003.81
609.432	22799.01
609.628	22690.47
609.824	22731.43
610.019	22577.83
610.215	22436.52
610.411	22477.48
610.606	22540.97
610.802	22385.32
610.998	22098.61
611.193	22405.8
611.389	22004.4
611.584	22383.27
611.78	22108.85
611.976	22182.57
612.171	22076.08
612.367	21930.67
612.562	21877.43
612.758	21609.14
612.953	21332.67
613.149	21867.19
613.344	21551.8
613.539	21930.67
613.735	21473.98
613.93	21826.23
614.126	21285.56
614.321	21736.12
614.517	21512.89
614.712	21455.54
614.907	21226.17
615.103	21531.32
615.298	21056.19
615.493	21420.73
615.688	20765.38
615.884	21412.54
616.079	21015.23
616.274	21336.76
616.47	20964.03
616.665	21054.14
616.86	21050.05
617.055	20878.02
617.25	20564.68
617.445	20916.93
617.641	20550.34
617.836	20886.21
618.031	20454.09
618.226	20802.24
618.421	20556.49
618.616	20384.46
618.811	19960.53
619.006	20552.39
619.201	20284.11
619.396	20069.07
619.591	19956.43
619.786	20044.49
619.981	19651.28
620.176	19942.1
620.371	19520.21
620.566	19620.56
620.761	19401.43
620.956	19479.25
621.151	19196.64
621.346	19225.31
621.541	19114.72
621.735	19155.68
621.93	18858.72
622.125	18995.93
622.32	18727.65
622.515	18774.75
622.709	18698.98
622.904	18397.93
623.099	18270.95
623.294	18789.09
623.488	18203.37
623.683	18176.75
623.878	17943.28
624.072	18066.16
624.267	18025.2
624.462	17814.26
624.656	17822.45
624.851	17425.14
625.046	17404.66
625.24	17580.79
625.435	17296.12
625.629	17214.2
625.824	17009.4
626.018	17019.64
626.213	16614.15
626.407	16853.76
626.602	16532.23
626.796	16800.51
626.991	16474.88
627.185	16614.15
627.38	16311.05
627.574	16409.35
627.768	16229.13
627.963	16278.28
628.157	15909.65
628.352	16190.22
628.546	15747.86
628.74	15887.12
628.935	15758.1
629.129	15846.16
629.323	15774.48
629.517	15489.81
629.712	15373.08
629.906	15569.68
630.1	15117.08
630.294	15455
630.489	14983.96
630.683	15135.51
630.877	14775.07
631.071	14885.66
631.265	15006.49
631.459	14617.38
631.653	14492.45
631.848	14738.21
632.042	14314.28
632.236	14541.6
632.43	14209.83
632.624	14250.79
632.818	14138.15
633.012	14093.1
633.206	13941.55
633.4	14134.06
633.594	13835.05
633.788	13828.91
633.982	13871.92
634.176	13755.18
634.369	13763.37
634.563	13675.31
634.757	13290.29
634.951	13796.14
635.145	13335.35
635.339	13386.55
635.533	13105.98
635.726	13151.03
635.92	12913.47
636.114	12991.29
636.308	13216.57
636.501	13005.63
636.695	12759.87
636.889	12657.47
637.083	12647.23
637.276	12610.37
637.47	12350.28
637.664	12501.83
637.857	12739.39
638.051	12514.11
638.244	12340.04
638.438	12258.12
638.632	12030.79
638.825	11967.31
639.019	12098.38
639.212	11899.72
639.406	11799.37
639.599	11805.52
639.793	11811.66
639.986	11694.93
640.18	11750.22
640.373	11617.1
640.567	11506.51
640.76	11602.77
640.954	11545.42
641.147	11451.22
641.34	11137.88
641.534	11154.26
641.727	11109.21
641.92	11236.18
642.114	10816.35
642.307	11184.98
642.5	10754.91
642.694	10670.94
642.887	10595.17
643.08	10867.55
643.273	10539.87
643.467	10552.16
643.66	10681.18
643.853	10558.3
644.046	10382.18
644.239	10408.8
644.432	10244.96
644.626	10271.59
644.819	10324.83
645.012	10187.62
645.205	10144.61
645.398	10101.61
645.591	10042.21
645.784	10011.5
645.977	9784.17
646.17	9763.69
646.363	9636.72
646.556	9790.31
646.749	9802.6
646.942	9778.03
647.135	9608.05
647.328	9687.92
647.521	9528.17
647.714	9476.98
647.907	9306.99
648.099	9464.69
648.292	9401.2
648.485	9354.1
648.678	9083.77
648.871	9001.85
649.064	9100.15
649.256	9012.09
649.449	9083.77
649.642	8989.56
649.835	8846.2
650.027	8825.72
650.22	8657.79
650.413	8756.09
650.605	8618.88
650.798	8690.56
650.991	8500.09
651.183	8651.64
651.376	8498.05
651.568	8448.9
651.761	8479.61
651.954	8524.67
652.146	8186.76
652.339	8416.13
652.531	8196.99
652.724	8426.37
652.916	8045.45
653.109	8156.04
653.301	8000.39
653.494	8178.56
653.686	7932.81
653.879	8082.31
654.071	8237.95
654.263	8020.87
654.456	7969.67
654.648	7916.42
654.84	7736.2
655.033	7738.25
655.225	7717.77
655.417	7582.6
655.61	7705.48
655.802	7818.12
655.994	7408.53
656.186	7541.64
656.379	7574.41
656.571	7482.25
656.763	7351.18
656.955	7357.33
657.148	7351.18
657.34	7287.7
657.532	7273.36
657.724	7240.59
657.916	7220.11
658.108	7084.95
658.3	7031.7
658.492	7097.24
658.684	6972.31
658.876	6980.5
659.068	6960.02
659.26	6966.17
659.452	6744.99
659.644	6857.62
659.836	6683.55
660.028	6800.28
660.22	6413.21
660.412	6742.94
660.604	6777.75
660.796	6685.59
660.988	6591.39
661.18	6646.68
661.372	6654.87
661.563	6589.34
661.755	6353.82
661.947	6654.87
662.139	6550.43
662.331	6415.26
662.522	6425.5
662.714	6491.04
662.906	6257.57
663.097	6202.27
663.289	6204.32
663.481	5991.33
663.673	6204.32
663.864	6226.85
664.056	6040.48
664.247	5991.33
664.439	6046.63
664.631	6237.09
664.822	5954.47
665.014	5983.14
665.205	5940.13
665.397	5854.12
665.588	5948.33
665.78	5825.45
665.971	5686.19
666.163	5759.91
666.354	5815.21
666.546	5659.56
666.737	5727.14
666.929	5735.34
667.12	5839.78
667.311	5725.1
667.503	5692.33
667.694	5757.86
667.885	5630.89
668.077	5608.36
668.268	5544.88
668.459	5589.93
668.651	5452.72
668.842	5563.31
669.033	5473.2
669.224	5366.7
669.416	5569.45
669.607	5469.1
669.798	5413.81
669.989	5321.65
670.18	5286.83
670.371	5340.08
670.563	5235.63
670.754	5333.93
670.945	5168.05
671.136	5215.15
671.327	5188.53
671.518	5333.93
671.709	5333.93
671.9	5258.16
672.091	5190.58
672.282	5143.47
672.473	5024.69
672.664	5204.91
672.855	5024.69
673.046	5122.99
673.237	5172.15
673.428	5082.03
673.619	5008.31
673.809	5000.12
674	5069.75
674.191	5104.56
674.382	4768.7
674.573	5004.21
674.764	4934.58
674.954	4973.49
675.145	4963.25
675.336	4891.57
675.527	4877.24
675.717	4834.23
675.908	4895.67
676.099	4860.85
676.289	4772.79
676.48	4834.23
676.671	4627.39
676.861	4924.34
677.052	4746.17
677.243	4862.9
677.433	4834.23
677.624	4887.48
677.814	4803.51
678.005	4709.3
678.195	4690.87
678.386	4592.57
678.576	4719.54
678.767	4729.78
678.957	4780.98
679.148	4731.83
679.338	4656.06
679.529	4889.53
679.719	4692.92
679.909	4785.08
680.1	4594.62
680.29	4744.12
680.481	4754.36
680.671	4735.93
680.861	4576.19
681.052	4758.46
681.242	4549.56
681.432	4807.61
681.622	4561.85
681.813	4533.18
682.003	4606.91
682.193	4553.66
682.383	4516.8
682.573	4621.24
682.764	4559.8
682.954	4580.28
683.144	4602.81
683.334	4555.71
683.524	4701.11
683.714	4541.37
683.904	4565.95
684.094	4561.85
684.284	4557.75
684.474	4565.95
684.664	4410.3
684.854	4537.27
685.044	4488.12
685.234	4426.68
685.424	4520.89
685.614	4346.81
685.804	4418.49
685.994	4447.16
686.184	4522.94
686.374	4426.68
686.564	4359.1
686.753	4361.15
686.943	4338.62
687.133	4289.47
687.323	4322.24
687.513	4402.11
687.702	4326.33
687.892	4191.17
688.082	4289.47
688.272	4230.08
688.461	4297.66
688.651	4365.25
688.841	4283.33
689.03	4246.46
689.22	4051.91
689.41	4254.66
689.599	4113.35
689.789	4074.43
689.979	4115.39
690.168	4131.78
690.358	4125.63
690.547	3918.79
690.737	4041.67
690.926	4031.43
691.116	4127.68
691.305	4109.25
691.495	4012.99
691.684	3963.84
691.874	4094.91
692.063	3863.49
692.252	4031.43
692.442	3937.22
692.631	3851.21
692.82	3939.27
693.01	3967.94
693.199	3879.88
693.388	3828.68
693.578	3867.59
693.767	3931.08
693.956	3826.63
694.146	3738.57
694.335	3847.11
694.524	3744.71
694.713	3797.96
694.902	3695.56
695.092	3855.3
695.281	3912.64
695.47	3726.28
695.659	3716.04
695.848	3734.47
696.037	3689.42
696.226	3765.19
696.415	3804.1
696.604	3763.14
696.793	3713.99
696.982	3793.86
697.171	3699.66
697.36	3754.95
697.549	3843.01
697.738	3597.26
697.927	3675.08
698.116	3728.33
698.305	3687.37
698.494	3697.61
698.683	3773.38
698.872	3781.57
699.061	3658.7
699.25	3533.77
699.438	3638.22
699.627	3625.93
699.816	3611.59
700.005	3687.37
700.193	3552.2
700.382	3767.24
700.571	3795.91
700.76	3599.31
700.948	3632.07
701.137	3638.22
701.326	3595.21
701.514	3638.22
701.703	3603.4
701.892	3617.74
702.08	3595.21
702.269	3568.59
702.457	3548.11
702.646	3584.97
702.834	3564.49
703.023	3652.55
703.212	3642.31
703.4	3572.68
703.589	3466.19
703.777	3480.52
703.965	3654.6
704.154	3599.31
704.342	3513.29
704.531	3429.32
704.719	3611.59
704.907	3742.66
705.096	3468.24
705.284	3529.67
705.472	3648.46
705.661	3599.31
705.849	3533.77
706.037	3451.85
706.226	3580.87
706.414	3460.04
706.602	3621.83
706.79	3523.53
706.979	3544.01
707.167	3466.19
707.355	3525.58
707.543	3484.62
707.731	3501
707.919	3670.98
708.107	3517.39
708.296	3679.18
708.484	3488.71
708.672	3654.6
708.86	3615.69
709.048	3593.16
709.236	3558.35
709.424	3560.39
709.612	3603.4
709.8	3705.8
709.988	3533.77
710.176	3644.36
710.364	3472.33
710.551	3521.48
710.739	3570.63
710.927	3535.82
711.115	3496.91
711.303	3650.5
711.491	3533.77
711.679	3572.68
711.866	3566.54
712.054	3541.96
712.242	3509.19
712.43	3584.97
712.617	3632.07
712.805	3595.21
712.993	3529.67
713.181	3505.1
713.368	3625.93
713.556	3572.68
713.744	3419.08
713.931	3595.21
714.119	3494.86
714.306	3605.45
714.494	3501
714.682	3509.19
714.869	3556.3
715.057	3523.53
715.244	3453.9
715.432	3513.29
715.619	3509.19
715.807	3447.76
715.994	3593.16
716.182	3552.2
716.369	3611.59
716.556	3611.59
716.744	3462.09
716.931	3527.63
717.119	3630.02
717.306	3482.57
717.493	3496.91
717.681	3439.56
717.868	3443.66
718.055	3617.74
718.242	3548.11
718.43	3517.39
718.617	3412.94
718.804	3627.98
718.991	3570.63
719.179	3656.65
719.366	3523.53
719.553	3474.38
719.74	3476.43
719.927	3503.05
720.114	3556.3
720.301	3548.11
720.488	3414.99
720.676	3466.19
720.863	3478.47
721.05	3417.04
721.237	3529.67
721.424	3451.85
721.611	3380.17
721.798	3394.51
721.985	3480.52
722.172	3482.57
722.358	3468.24
722.545	3394.51
722.732	3394.51
722.919	3447.76
723.106	3544.01
723.293	3339.21
723.48	3437.52
723.667	3394.51
723.853	3425.23
724.04	3460.04
724.227	3322.83
724.414	3417.04
724.6	3314.64
724.787	3468.24
724.974	3384.27
725.161	3308.49
725.347	3333.07
725.534	3468.24
725.72	3460.04
725.907	3349.45
726.094	3384.27
726.28	3439.56
726.467	3357.64
726.653	3431.37
726.84	3288.01
727.027	3419.08
727.213	3279.82
727.4	3523.53
727.586	3513.29
727.773	3439.56
727.959	3398.6
728.145	3238.86
728.332	3369.93
728.518	3308.49
728.705	3410.89
728.891	3369.93
729.077	3449.8
729.264	3277.77
729.45	3439.56
729.636	3390.41
729.823	3455.95
730.009	3400.65
730.195	3376.08
730.382	3378.12
730.568	3304.4
730.754	3247.05
730.94	3376.08
731.126	3255.25
731.313	3349.45
731.499	3331.02
731.685	3361.74
731.871	3242.96
732.057	3189.71
732.243	3195.86
732.429	3322.83
732.615	3294.16
732.801	3343.31
732.987	3271.63
733.173	3285.97
733.359	3222.48
733.545	3318.73
733.731	3265.49
733.917	3210.19
734.103	3251.15
734.289	3324.88
734.475	3113.94
734.661	3304.4
734.847	3273.68
735.033	3199.95
735.219	3134.42
735.404	3247.05
735.59	3230.67
735.776	3212.24
735.962	3212.24
736.148	3083.22
736.333	3169.23
736.519	3148.75
736.705	3197.9
736.89	3212.24
737.076	3044.31
737.262	3156.94
737.447	3095.5
737.633	3134.42
737.819	3075.03
738.004	3165.14
738.19	3118.03
738.375	3091.41
738.561	3183.57
738.747	3165.14
738.932	3015.63
739.118	3126.22
739.303	3113.94
739.489	3079.12
739.674	3107.79
739.859	3085.26
740.045	2989.01
740.23	3124.18
740.416	2911.19
740.601	3050.45
740.786	2872.28
740.972	2960.34
741.157	3044.31
741.342	2925.52
741.528	2896.85
741.713	2907.09
741.898	2802.65
742.084	2962.39
742.269	3050.45
742.454	2888.66
742.639	2798.55
742.824	2890.71
743.01	2864.08
743.195	2980.82
743.38	2833.36
743.565	2837.46
743.75	2841.56
743.935	2821.08
744.12	2728.92
744.305	2780.12
744.49	2558.94
744.675	2694.1
744.86	2733.01
745.045	2671.58
745.23	2683.86
745.415	2683.86
745.6	2663.38
745.785	2558.94
745.97	2673.62
746.155	2560.98
746.34	2685.91
746.525	2612.18
746.71	2690.01
746.895	2577.37
747.079	2440.15
747.264	2661.34
747.449	2509.79
747.634	2434.01
747.819	2421.72
748.003	2569.18
748.188	2481.11
748.373	2423.77
748.557	2345.95
748.742	2362.33
748.927	2341.85
749.111	2309.08
749.296	2382.81
749.481	2304.99
749.665	2300.89
749.85	2272.22
750.034	2364.38
750.219	2337.76
750.404	2204.64
750.588	2175.97
750.773	2321.37
750.957	2186.21
751.141	2251.74
751.326	2212.83
751.51	2155.49
751.695	2227.17
751.879	2143.2
752.064	2102.24
752.248	2108.38
752.432	2051.04
752.617	2096.1
752.801	2098.14
752.985	2069.47
753.17	2001.89
753.354	2018.27
753.538	1960.93
753.722	1936.35
753.907	1987.55
754.091	1862.63
754.275	1993.7
754.459	1944.55
754.643	1997.79
754.828	1803.24
755.012	1889.25
755.196	1784.8
755.38	1829.86
755.564	1817.57
755.748	1821.67
755.932	1842.15
756.116	1903.59
756.3	1811.43
756.484	1805.28
756.668	1819.62
756.852	1747.94
757.036	1721.32
757.22	1670.12
757.404	1688.55
757.588	1663.97
757.772	1754.09
757.956	1754.09
758.14	1639.4
758.323	1625.06
758.507	1666.02
758.691	1514.47
758.875	1592.3
759.059	1678.31
759.242	1557.48
759.426	1518.57
759.61	1502.19
759.794	1569.77
759.977	1592.3
760.161	1618.92
760.345	1502.19
760.528	1469.42
760.712	1588.2
760.895	1498.09
761.079	1432.55
761.263	1457.13
761.446	1416.17
761.63	1442.79
761.813	1450.99
761.997	1510.38
762.18	1401.83
762.364	1434.6
762.547	1334.25
762.731	1321.96
762.914	1502.19
763.098	1383.4
763.281	1442.79
763.464	1428.46
763.648	1362.92
763.831	1350.64
764.015	1362.92
764.198	1395.69
764.381	1395.69
764.564	1389.55
764.748	1389.55
764.931	1352.68
765.114	1319.92
765.297	1373.16
765.481	1264.62
765.664	1317.87
765.847	1350.64
766.03	1188.85
766.213	1268.72
766.397	1305.58
766.58	1223.66
766.763	1256.43
766.946	1264.62
767.129	1278.96
767.312	1309.68
767.495	1258.48
767.678	1174.51
767.861	1256.43
768.044	1170.41
768.227	1180.65
768.41	1084.4
768.593	1215.47
768.776	1172.46
768.959	1131.5
769.142	1213.42
769.324	1158.13
769.507	1215.47
769.69	1133.55
769.873	1248.24
770.056	1170.41
770.239	1082.35
770.421	1219.57
770.604	1176.56
770.787	1117.17
770.97	1158.13
771.152	1057.78
771.335	1133.55
771.518	1100.78
771.7	1070.06
771.883	1078.26
772.066	1033.2
772.248	1014.77
772.431	1113.07
772.613	1018.86
772.796	1051.63
772.978	1096.69
773.161	1063.92
773.343	1084.4
773.526	1070.06
773.708	1108.98
773.891	1051.63
774.073	957.43
774.256	996.34
774.438	973.81
774.621	904.18
774.803	1010.67
774.985	920.56
775.168	973.81
775.35	977.91
775.532	986.1
775.715	914.42
775.897	965.62
776.079	918.51
776.261	910.32
776.444	928.75
776.626	934.9
776.808	949.23
776.99	895.99
777.173	898.03
777.355	832.5
777.537	934.9
777.719	879.6
777.901	922.61
778.083	869.36
778.265	885.75
778.447	805.88
778.629	760.82
778.811	777.2
778.993	809.97
779.175	836.6
779.357	812.02
779.539	685.05
779.721	816.12
779.903	752.63
780.085	799.73
780.267	740.34
780.449	754.68
780.631	740.34
780.812	779.25
780.994	726
781.176	705.53
781.358	734.2
781.54	736.24
781.721	744.44
781.903	748.53
782.085	701.43
782.267	715.77
782.448	625.65
782.63	664.57
782.812	738.29
782.993	676.85
783.175	672.76
783.357	639.99
783.538	721.91
783.72	609.27
783.901	674.81
784.083	689.14
784.264	639.99
784.446	582.65
784.627	611.32
784.809	605.17
784.99	513.02
785.172	685.05
785.353	627.7
785.535	560.12
785.716	535.54
785.897	545.78
786.079	519.16
786.26	599.03
786.441	527.35
786.623	480.25
786.804	543.74
786.985	527.35
787.167	551.93
787.348	551.93
787.529	541.69
787.71	482.3
787.891	486.39
788.073	510.97
788.254	545.78
788.435	500.73
788.616	535.54
788.797	504.82
788.978	441.34
789.159	416.76
789.34	508.92
789.522	461.82
789.703	465.91
789.884	467.96
790.065	492.54
790.246	519.16
790.427	424.95
790.607	488.44
790.788	558.07
790.969	535.54
791.15	455.67
791.331	510.97
791.512	465.91
791.693	510.97
791.874	357.37
792.054	476.15
792.235	392.19
792.416	394.23
792.597	474.1
792.778	435.19
792.958	330.75
793.139	371.71
793.32	470.01
793.5	424.95
793.681	510.97
793.862	412.67
794.042	490.49
794.223	355.32
794.404	388.09
794.584	379.9
794.765	351.23
794.945	322.56
795.126	363.51
795.306	394.23
795.487	314.36
795.667	345.08
795.848	478.2
796.028	375.8
796.209	375.8
796.389	392.19
796.57	377.85
796.75	363.51
796.93	328.7
797.111	359.42
797.291	332.79
797.471	392.19
797.652	334.84
797.832	322.56
798.012	429.05
798.192	322.56
798.373	365.56
798.553	388.09
798.733	269.31
798.913	252.92
799.093	304.12
799.274	281.6
799.454	330.75
799.634	347.13
799.814	406.52
799.994	263.16
800.174	291.84
800.354	343.03
800.534	207.87
800.714	275.45
800.894	326.65
801.074	306.17
801.254	281.6
801.434	369.66
801.614	320.51
801.794	314.36
801.974	865.27
802.154	287.74
802.334	297.98
802.514	254.97
802.693	236.54
802.873	283.64
803.053	293.88
803.233	304.12
803.413	271.36
803.592	289.79
803.772	228.35
803.952	328.7
804.131	214.01
804.311	230.4
804.491	330.75
804.67	289.79
804.85	275.45
805.03	308.22
805.209	275.45
805.389	248.83
805.568	240.64
805.748	232.44
805.928	254.97
806.107	293.88
806.287	257.02
806.466	291.84
806.646	261.12
806.825	285.69
807.004	242.68
807.184	310.27
807.363	195.58
807.543	271.36
807.722	177.15
807.901	300.03
808.081	252.92
808.26	232.44
808.439	232.44
808.619	265.21
808.798	254.97
808.977	316.41
809.156	343.03
809.336	273.4
809.515	275.45
809.694	224.25
809.873	283.64
810.052	142.33
810.231	273.4
810.411	246.78
810.59	230.4
810.769	195.58
810.948	177.15
811.127	187.39
811.306	238.59
811.485	214.01
811.664	263.16
811.843	222.2
812.022	189.44
812.201	150.53
812.38	287.74
812.559	205.82
812.737	211.96
812.916	132.09
813.095	175.1
813.274	193.53
813.453	197.63
813.632	173.05
813.811	216.06
813.989	166.91
814.168	218.11
814.347	123.9
814.526	171.01
814.704	195.58
814.883	230.4
815.062	211.96
815.24	150.53
815.419	154.62
815.598	211.96
815.776	191.49
815.955	148.48
816.133	193.53
816.312	224.25
816.49	197.63
816.669	214.01
816.847	191.49
817.026	119.81
817.204	232.44
817.383	152.57
817.561	187.39
817.74	146.43
817.918	189.44
818.097	148.48
818.275	226.3
818.453	226.3
818.632	220.16
818.81	148.48
818.988	191.49
819.167	142.33
819.345	134.14
819.523	248.83
819.701	171.01
819.879	148.48
820.058	150.53
820.236	160.77
820.414	140.29
820.592	117.76
820.77	160.77
820.948	142.33
821.127	76.8
821.305	175.1
821.483	156.67
821.661	199.68
821.839	166.91
822.017	99.33
822.195	134.14
822.373	146.43
822.551	140.29
822.729	207.87
822.907	78.85
823.085	142.33
823.262	177.15
823.44	93.18
823.618	146.43
823.796	179.2
823.974	78.85
824.152	160.77
824.329	134.14
824.507	160.77
824.685	117.76
824.863	115.71
825.04	128
825.218	199.68
825.396	119.81
825.574	156.67
825.751	183.29
825.929	179.2
826.107	15.36
826.284	175.1
826.462	89.09
826.639	160.77
826.817	134.14
826.994	138.24
827.172	179.2
827.349	179.2
827.527	119.81
827.704	128
827.882	150.53
828.059	171.01
828.237	138.24
828.414	228.35
828.591	29.7
828.769	162.81
828.946	68.61
829.124	82.94
829.301	125.95
829.478	93.18
829.655	113.66
829.833	76.8
830.01	70.65
830.187	101.37
830.364	142.33
830.542	109.57
830.719	175.1
830.896	130.05
831.073	103.42
831.25	152.57
831.427	158.72
831.604	60.42
831.782	52.22
831.959	128
832.136	109.57
832.313	103.42
832.49	103.42
832.667	11.26
832.844	105.47
833.021	134.14
833.198	70.65
833.374	74.75
833.551	68.61
833.728	105.47
833.905	132.09
834.082	76.8
834.259	78.85
834.436	207.87
834.612	74.75
834.789	144.38
834.966	41.98
835.143	97.28
835.319	105.47
835.496	99.33
835.673	93.18
835.85	113.66
836.026	111.61
836.203	72.7
836.38	68.61
836.556	66.56
836.733	37.89
836.909	109.57
837.086	31.74
837.262	35.84
837.439	56.32
837.616	72.7
837.792	33.79
837.968	117.76
838.145	52.22
838.321	56.32
838.498	121.85
838.674	121.85
838.851	132.09
839.027	23.55
839.203	93.18
839.38	138.24
839.556	50.18
839.732	125.95
839.909	134.14
840.085	56.32
840.261	72.7
840.437	117.76
840.614	84.99
840.79	95.23
840.966	52.22
841.142	48.13
841.318	54.27
841.494	35.84
841.671	27.65
841.847	44.03
842.023	46.08
842.199	35.84
842.375	99.33
842.551	62.46
842.727	60.42
842.903	152.57
843.079	64.51
843.255	19.46
843.431	72.7
843.607	1.02
843.783	19.46
843.959	66.56
844.134	91.13
844.31	60.42
844.486	123.9
844.662	3.07
844.838	66.56
845.013	78.85
845.189	17.41
845.365	11.26
845.541	87.04
845.716	101.37
845.892	39.94
846.068	25.6
846.244	68.61
846.419	123.9
846.595	-41.98
846.77	-9.22
846.946	93.18
847.122	78.85
847.297	29.7
847.473	136.19
847.648	46.08
847.824	72.7
847.999	7.17
848.175	19.46
848.35	156.67
848.526	101.37
848.701	19.46
848.876	115.71
849.052	54.27
849.227	121.85
849.403	35.84
849.578	58.37
849.753	3.07
849.929	68.61
850.104	19.46
850.279	72.7
850.454	89.09
850.63	-7.17
850.805	-15.36
850.98	99.33
851.155	103.42
851.33	84.99
851.505	44.03
851.681	78.85
851.856	50.18
852.031	82.94
852.206	140.29
852.381	21.5
852.556	66.56
852.731	33.79
852.906	82.94
853.081	107.52
853.256	50.18
853.431	52.22
853.606	1.02
853.781	-15.36
853.956	-15.36
854.131	128
854.305	19.46
854.48	-50.18
854.655	50.18
854.83	76.8
855.005	52.22
855.18	70.65
855.354	15.36
855.529	56.32
855.704	84.99
855.879	95.23
856.053	1.02
856.228	93.18
856.403	50.18
856.577	21.5
856.752	9.22
856.926	29.7
857.101	11.26
857.276	15.36
857.45	58.37
857.625	54.27
857.799	41.98
857.974	25.6
858.148	9.22
858.323	119.81
858.497	78.85
858.672	-44.03
858.846	68.61
859.02	72.7
859.195	-1.02
859.369	62.46
859.543	56.32
859.718	54.27
859.892	177.15
860.066	41.98
860.241	-5.12
860.415	3.07
860.589	84.99
860.763	39.94
860.938	9.22
861.112	39.94
861.286	3.07
861.46	1.02
861.634	35.84
861.808	9.22
861.982	15.36
862.157	-48.13
862.331	23.55
862.505	66.56
862.679	25.6
862.853	68.61
863.027	23.55
863.201	64.51
863.375	15.36
863.549	1.02
863.722	50.18
863.896	128
864.07	109.57
864.244	109.57
864.418	-29.7
864.592	-11.26
864.766	-13.31
864.939	46.08
865.113	-5.12
865.287	-62.46
865.461	-23.55
865.634	39.94
865.808	-44.03
865.982	1.02
866.156	-11.26
866.329	44.03
866.503	44.03
866.676	150.53
866.85	3.07
867.024	-5.12
867.197	9.22
867.371	50.18
867.544	76.8
867.718	1.02
867.891	-21.5
868.065	-29.7
868.238	-54.27
868.412	66.56
868.585	3.07
868.759	-15.36
868.932	13.31
869.105	-66.56
869.279	72.7
869.452	13.31
869.625	19.46
869.799	37.89
869.972	15.36
870.145	62.46
870.319	76.8
870.492	-23.55
870.665	-15.36
870.838	3.07
871.011	-7.17
871.185	-5.12
871.358	13.31
871.531	171.01
871.704	-9.22
871.877	29.7
872.05	48.13
872.223	31.74
872.396	56.32
872.569	-54.27
872.742	9.22
872.915	35.84
873.088	-9.22
873.261	-21.5
873.434	-15.36
873.607	56.32
873.78	-33.79
873.953	31.74
874.126	-46.08
874.299	11.26
874.471	15.36
874.644	3.07
874.817	60.42
874.99	39.94
875.163	-9.22
875.335	-35.84
875.508	50.18
875.681	19.46
875.853	-21.5
876.026	44.03
876.199	21.5
876.371	48.13
876.544	7.17
876.717	52.22
876.889	-25.6
877.062	58.37
877.234	-21.5
877.407	-9.22
877.579	-1.02
877.752	64.51
877.924	93.18
878.097	76.8
878.269	-21.5
878.442	44.03
878.614	5.12
878.786	-64.51
878.959	48.13
879.131	19.46
879.303	-25.6
879.476	-11.26
879.648	44.03
879.82	72.7
879.993	-99.33
880.165	39.94
880.337	-58.37
880.509	7.17
880.681	-21.5
880.854	19.46
881.026	52.22
881.198	23.55
881.37	-21.5
881.542	-5.12
881.714	-3.07
881.886	27.65
882.058	31.74
882.23	50.18
882.402	35.84
882.574	68.61
882.746	1.02
882.918	66.56
883.09	56.32
883.262	31.74
883.434	64.51
883.606	-66.56
883.778	3.07
883.95	21.5
884.122	-23.55
884.293	78.85
884.465	41.98
884.637	25.6
884.809	-56.32
884.98	27.65
885.152	19.46
885.324	130.05
885.496	11.26
885.667	-13.31
885.839	-5.12
886.011	46.08
886.182	-41.98
886.354	44.03
886.525	7.17
886.697	52.22
886.869	-54.27
887.04	-50.18
887.212	62.46
887.383	99.33
887.555	5.12
887.726	50.18
887.897	1.02
888.069	13.31
888.24	-7.17
888.412	60.42
888.583	37.89
888.754	-33.79
888.926	-3.07
889.097	17.41
889.268	-1.02
889.44	39.94
889.611	15.36
889.782	15.36
889.953	31.74
890.125	-25.6
890.296	-111.61
890.467	-5.12
890.638	-11.26
890.809	37.89
890.98	-19.46
891.151	64.51
891.323	-13.31
891.494	19.46
891.665	29.7
891.836	35.84
892.007	31.74
892.178	50.18
892.349	-31.74
892.52	7.17
892.691	46.08
892.862	44.03
893.032	31.74
893.203	-13.31
893.374	64.51
893.545	-5.12
893.716	68.61
893.887	19.46
894.057	25.6
894.228	29.7
894.399	-62.46
894.57	48.13
894.74	-21.5
894.911	39.94
895.082	44.03
895.253	35.84
895.423	44.03
895.594	46.08
895.764	64.51
895.935	31.74
896.106	-33.79
896.276	-78.85
896.447	3.07
896.617	-31.74
896.788	-80.89
896.958	-21.5
897.129	-56.32
897.299	-11.26
897.47	23.55
897.64	113.66
897.81	-29.7
897.981	11.26
898.151	29.7
898.322	39.94
898.492	-11.26
898.662	48.13
898.832	13.31
899.003	37.89
899.173	50.18
899.343	-29.7
899.513	11.26
