Data from USB4F104151__189__10-28-45-365.txt Node

Date: Wed Mar 12 10:28:45 EDT 2025
User: louis
Spectrometer: USB4F10415
Trigger mode: 4
Integration Time (sec): 3.000000E-2
Scans to average: 1
Electric dark correction enabled: true
Nonlinearity correction enabled: false
Boxcar width: 0
XAxis mode: Wavelengths
Number of Pixels in Spectrum: 3648
>>>>>Begin Spectral Data<<<<<
178.204	-65.71
178.424	-65.71
178.644	-65.71
178.864	-90.28
179.084	-98.47
179.304	-6.31
179.524	32.6
179.744	-16.55
179.964	-28.84
180.184	20.31
180.404	-12.46
180.624	3.93
180.844	34.64
181.064	-34.99
181.283	67.41
181.503	-77.99
181.723	18.26
181.943	-57.51
182.163	53.08
182.383	1.88
182.602	124.76
182.822	44.88
183.042	102.23
183.262	-22.7
183.482	100.18
183.701	73.56
183.921	83.8
184.141	-8.36
184.361	77.65
184.58	-20.65
184.8	3.93
185.02	16.21
185.239	51.03
185.459	34.64
185.679	77.65
185.898	-8.36
186.118	-18.6
186.338	69.46
186.557	73.56
186.777	-18.6
186.997	69.46
187.216	94.04
187.436	51.03
187.655	-8.36
187.875	30.55
188.095	-8.36
188.314	63.32
188.534	57.17
188.753	1.88
188.973	61.27
189.192	91.99
189.412	81.75
189.631	-39.08
189.851	48.98
190.07	110.42
190.29	3.93
190.509	18.26
190.729	-43.18
190.948	77.65
191.168	110.42
191.387	63.32
191.607	34.64
191.826	79.7
192.045	44.88
192.265	-6.31
192.484	73.56
192.704	48.98
192.923	16.21
193.142	110.42
193.362	32.6
193.581	106.32
193.8	8.02
194.02	67.41
194.239	-8.36
194.458	8.02
194.678	48.98
194.897	14.17
195.116	102.23
195.335	100.18
195.555	100.18
195.774	116.56
195.993	55.12
196.212	57.17
196.432	-0.17
196.651	32.6
196.87	61.27
197.089	85.84
197.308	42.84
197.528	98.13
197.747	3.93
197.966	46.93
198.185	42.84
198.404	69.46
198.623	40.79
198.842	69.46
199.062	157.52
199.281	44.88
199.5	-6.31
199.719	55.12
199.938	100.18
200.157	69.46
200.376	-14.51
200.595	91.99
200.814	-26.79
201.033	36.69
201.252	73.56
201.471	20.31
201.69	112.47
201.909	48.98
202.128	81.75
202.347	46.93
202.566	63.32
202.785	44.88
203.004	48.98
203.223	100.18
203.442	42.84
203.661	38.74
203.879	61.27
204.098	-12.46
204.317	1.88
204.536	63.32
204.755	18.26
204.974	20.31
205.193	67.41
205.411	124.76
205.63	44.88
205.849	30.55
206.068	77.65
206.287	12.12
206.505	87.89
206.724	120.66
206.943	-2.22
207.162	61.27
207.381	79.7
207.599	30.55
207.818	55.12
208.037	-2.22
208.255	120.66
208.474	104.28
208.693	94.04
208.911	67.41
209.13	24.4
209.349	34.64
209.567	53.08
209.786	55.12
210.005	32.6
210.223	30.55
210.442	100.18
210.661	53.08
210.879	59.22
211.098	77.65
211.316	40.79
211.535	36.69
211.753	36.69
211.972	34.64
212.191	-0.17
212.409	79.7
212.628	91.99
212.846	-43.18
213.065	96.08
213.283	112.47
213.502	59.22
213.72	3.93
213.938	59.22
214.157	24.4
214.375	75.6
214.594	67.41
214.812	32.6
215.031	3.93
215.249	36.69
215.467	-18.6
215.686	-6.31
215.904	96.08
216.122	42.84
216.341	44.88
216.559	30.55
216.778	51.03
216.996	122.71
217.214	126.8
217.432	28.5
217.651	81.75
217.869	51.03
218.087	36.69
218.306	18.26
218.524	51.03
218.742	85.84
218.96	149.33
219.179	44.88
219.397	71.51
219.615	53.08
219.833	73.56
220.051	-4.27
220.27	96.08
220.488	53.08
220.706	81.75
220.924	-12.46
221.142	32.6
221.36	36.69
221.578	48.98
221.796	65.36
222.015	46.93
222.233	81.75
222.451	147.28
222.669	85.84
222.887	48.98
223.105	5.97
223.323	91.99
223.541	-24.75
223.759	44.88
223.977	36.69
224.195	61.27
224.413	94.04
224.631	114.52
224.849	130.9
225.067	122.71
225.285	73.56
225.503	-32.94
225.721	1.88
225.939	-4.27
226.157	36.69
226.375	28.5
226.592	83.8
226.81	77.65
227.028	30.55
227.246	57.17
227.464	59.22
227.682	108.37
227.9	34.64
228.117	96.08
228.335	53.08
228.553	-6.31
228.771	36.69
228.989	14.17
229.206	96.08
229.424	79.7
229.642	32.6
229.86	59.22
230.077	71.51
230.295	102.23
230.513	102.23
230.731	112.47
230.948	48.98
231.166	53.08
231.384	32.6
231.601	73.56
231.819	94.04
232.037	42.84
232.254	65.36
232.472	61.27
232.689	81.75
232.907	98.13
233.125	55.12
233.342	53.08
233.56	85.84
233.777	46.93
233.995	87.89
234.213	79.7
234.43	57.17
234.648	81.75
234.865	20.31
235.083	124.76
235.3	16.21
235.518	77.65
235.735	108.37
235.953	61.27
236.17	44.88
236.388	83.8
236.605	36.69
236.822	69.46
237.04	81.75
237.257	106.32
237.475	83.8
237.692	75.6
237.909	59.22
238.127	69.46
238.344	55.12
238.562	91.99
238.779	79.7
238.996	126.8
239.214	65.36
239.431	-28.84
239.648	24.4
239.865	87.89
240.083	108.37
240.3	59.22
240.517	73.56
240.735	32.6
240.952	94.04
241.169	63.32
241.386	48.98
241.603	34.64
241.821	-12.46
242.038	94.04
242.255	63.32
242.472	30.55
242.689	28.5
242.907	42.84
243.124	24.4
243.341	77.65
243.558	22.36
243.775	26.45
243.992	40.79
244.209	73.56
244.426	110.42
244.643	20.31
244.86	-14.51
245.078	36.69
245.295	102.23
245.512	85.84
245.729	77.65
245.946	36.69
246.163	104.28
246.38	36.69
246.597	87.89
246.814	-26.79
247.031	69.46
247.248	57.17
247.464	110.42
247.681	38.74
247.898	98.13
248.115	55.12
248.332	-51.37
248.549	106.32
248.766	77.65
248.983	85.84
249.2	-6.31
249.417	122.71
249.633	44.88
249.85	139.09
250.067	61.27
250.284	20.31
250.501	61.27
250.717	81.75
250.934	79.7
251.151	40.79
251.368	38.74
251.585	51.03
251.801	67.41
252.018	12.12
252.235	18.26
252.451	96.08
252.668	3.93
252.885	51.03
253.102	100.18
253.318	69.46
253.535	61.27
253.752	75.6
253.968	24.4
254.185	53.08
254.401	110.42
254.618	59.22
254.835	96.08
255.051	69.46
255.268	73.56
255.484	40.79
255.701	32.6
255.917	89.94
256.134	77.65
256.351	73.56
256.567	14.17
256.784	75.6
257	79.7
257.217	38.74
257.433	-6.31
257.65	40.79
257.866	34.64
258.082	12.12
258.299	26.45
258.515	114.52
258.732	34.64
258.948	1.88
259.165	79.7
259.381	-6.31
259.597	124.76
259.814	79.7
260.03	65.36
260.246	120.66
260.463	55.12
260.679	79.7
260.895	16.21
261.112	51.03
261.328	59.22
261.544	16.21
261.761	77.65
261.977	65.36
262.193	16.21
262.409	59.22
262.626	75.6
262.842	85.84
263.058	53.08
263.274	108.37
263.49	-6.31
263.707	73.56
263.923	53.08
264.139	91.99
264.355	53.08
264.571	118.61
264.787	42.84
265.004	112.47
265.22	79.7
265.436	165.71
265.652	46.93
265.868	48.98
266.084	18.26
266.3	14.17
266.516	32.6
266.732	5.97
266.948	38.74
267.164	28.5
267.38	34.64
267.596	77.65
267.812	85.84
268.028	40.79
268.244	53.08
268.46	73.56
268.676	34.64
268.892	141.14
269.108	-20.65
269.324	53.08
269.54	24.4
269.756	48.98
269.972	36.69
270.188	26.45
270.403	42.84
270.619	57.17
270.835	139.09
271.051	32.6
271.267	40.79
271.483	85.84
271.698	135
271.914	81.75
272.13	102.23
272.346	122.71
272.562	-4.27
272.777	118.61
272.993	59.22
273.209	141.14
273.425	38.74
273.64	36.69
273.856	24.4
274.072	65.36
274.287	-12.46
274.503	46.93
274.719	36.69
274.934	81.75
275.15	-8.36
275.366	139.09
275.581	61.27
275.797	75.6
276.012	30.55
276.228	61.27
276.444	94.04
276.659	65.36
276.875	-16.55
277.09	42.84
277.306	104.28
277.521	32.6
277.737	-4.27
277.952	141.14
278.168	-14.51
278.383	28.5
278.599	28.5
278.814	91.99
279.03	79.7
279.245	130.9
279.461	69.46
279.676	98.13
279.892	53.08
280.107	1.88
280.322	-20.65
280.538	69.46
280.753	73.56
280.969	26.45
281.184	46.93
281.399	126.8
281.615	53.08
281.83	102.23
282.045	18.26
282.26	20.31
282.476	36.69
282.691	20.31
282.906	75.6
283.122	1.88
283.337	61.27
283.552	61.27
283.767	48.98
283.983	38.74
284.198	30.55
284.413	83.8
284.628	18.26
284.843	81.75
285.058	135
285.274	40.79
285.489	30.55
285.704	61.27
285.919	91.99
286.134	48.98
286.349	28.5
286.564	20.31
286.779	108.37
286.995	108.37
287.21	48.98
287.425	69.46
287.64	71.51
287.855	83.8
288.07	67.41
288.285	77.65
288.5	85.84
288.715	34.64
288.93	-34.99
289.145	65.36
289.36	100.18
289.575	-10.41
289.79	77.65
290.004	48.98
290.219	71.51
290.434	40.79
290.649	55.12
290.864	67.41
291.079	53.08
291.294	83.8
291.509	104.28
291.724	26.45
291.938	67.41
292.153	114.52
292.368	81.75
292.583	149.33
292.798	61.27
293.012	102.23
293.227	91.99
293.442	75.6
293.657	73.56
293.871	110.42
294.086	59.22
294.301	151.38
294.516	26.45
294.73	65.36
294.945	36.69
295.16	18.26
295.374	143.19
295.589	110.42
295.804	34.64
296.018	69.46
296.233	153.43
296.447	61.27
296.662	-32.94
296.877	96.08
297.091	79.7
297.306	38.74
297.52	-4.27
297.735	48.98
297.949	28.5
298.164	102.23
298.378	44.88
298.593	30.55
298.807	5.97
299.022	85.84
299.236	57.17
299.451	85.84
299.665	44.88
299.88	53.08
300.094	12.12
300.309	-45.23
300.523	-12.46
300.737	106.32
300.952	118.61
301.166	61.27
301.381	46.93
301.595	69.46
301.809	32.6
302.024	28.5
302.238	81.75
302.452	67.41
302.667	48.98
302.881	116.56
303.095	77.65
303.309	57.17
303.524	24.4
303.738	100.18
303.952	-22.7
304.166	114.52
304.381	44.88
304.595	85.84
304.809	-14.51
305.023	69.46
305.237	10.07
305.452	44.88
305.666	26.45
305.88	57.17
306.094	94.04
306.308	75.6
306.522	53.08
306.736	126.8
306.95	59.22
307.164	32.6
307.379	48.98
307.593	132.95
307.807	55.12
308.021	116.56
308.235	149.33
308.449	-8.36
308.663	91.99
308.877	147.28
309.091	91.99
309.305	79.7
309.519	36.69
309.733	145.24
309.947	48.98
310.161	120.66
310.374	61.27
310.588	98.13
310.802	-6.31
311.016	-8.36
311.23	65.36
311.444	14.17
311.658	175.95
311.872	73.56
312.085	75.6
312.299	110.42
312.513	69.46
312.727	40.79
312.941	-41.13
313.154	81.75
313.368	81.75
313.582	104.28
313.796	3.93
314.009	79.7
314.223	135
314.437	118.61
314.651	59.22
314.864	36.69
315.078	-26.79
315.292	106.32
315.505	69.46
315.719	89.94
315.933	61.27
316.146	102.23
316.36	116.56
316.573	102.23
316.787	-8.36
317.001	159.57
317.214	53.08
317.428	81.75
317.641	94.04
317.855	96.08
318.068	77.65
318.282	85.84
318.495	77.65
318.709	34.64
318.922	44.88
319.136	126.8
319.349	77.65
319.563	24.4
319.776	73.56
319.99	120.66
320.203	87.89
320.417	67.41
320.63	106.32
320.843	108.37
321.057	130.9
321.27	48.98
321.483	51.03
321.697	63.32
321.91	59.22
322.124	59.22
322.337	110.42
322.55	63.32
322.763	63.32
322.977	91.99
323.19	1.88
323.403	3.93
323.617	36.69
323.83	116.56
324.043	40.79
324.256	53.08
324.469	63.32
324.683	32.6
324.896	89.94
325.109	44.88
325.322	10.07
325.535	63.32
325.748	75.6
325.962	59.22
326.175	46.93
326.388	102.23
326.601	81.75
326.814	116.56
327.027	132.95
327.24	122.71
327.453	59.22
327.666	61.27
327.879	22.36
328.092	55.12
328.305	85.84
328.518	75.6
328.731	126.8
328.944	-16.55
329.157	100.18
329.37	89.94
329.583	126.8
329.796	100.18
330.009	69.46
330.222	53.08
330.435	59.22
330.648	48.98
330.861	118.61
331.073	126.8
331.286	143.19
331.499	44.88
331.712	-34.99
331.925	73.56
332.138	55.12
332.35	137.04
332.563	8.02
332.776	186.19
332.989	36.69
333.202	30.55
333.414	53.08
333.627	96.08
333.84	28.5
334.053	22.36
334.265	-12.46
334.478	81.75
334.691	8.02
334.903	77.65
335.116	57.17
335.329	77.65
335.541	118.61
335.754	184.15
335.966	161.62
336.179	116.56
336.392	16.21
336.604	26.45
336.817	87.89
337.029	63.32
337.242	116.56
337.454	102.23
337.667	34.64
337.88	165.71
338.092	83.8
338.305	118.61
338.517	26.45
338.729	81.75
338.942	110.42
339.154	34.64
339.367	12.12
339.579	51.03
339.792	120.66
340.004	51.03
340.217	57.17
340.429	26.45
340.641	61.27
340.854	28.5
341.066	-55.47
341.278	94.04
341.491	100.18
341.703	108.37
341.915	34.64
342.128	126.8
342.34	18.26
342.552	98.13
342.764	110.42
342.977	98.13
343.189	126.8
343.401	1.88
343.613	102.23
343.826	61.27
344.038	24.4
344.25	94.04
344.462	61.27
344.674	96.08
344.886	118.61
345.099	81.75
345.311	32.6
345.523	32.6
345.735	-28.84
345.947	42.84
346.159	20.31
346.371	22.36
346.583	71.51
346.795	104.28
347.007	120.66
347.219	63.32
347.431	44.88
347.643	194.39
347.855	20.31
348.067	77.65
348.279	83.8
348.491	-12.46
348.703	1.88
348.915	-20.65
349.127	26.45
349.339	32.6
349.551	102.23
349.763	100.18
349.975	73.56
350.187	65.36
350.399	139.09
350.61	157.52
350.822	10.07
351.034	73.56
351.246	51.03
351.458	122.71
351.669	61.27
351.881	8.02
352.093	61.27
352.305	106.32
352.517	36.69
352.728	132.95
352.94	102.23
353.152	57.17
353.363	38.74
353.575	87.89
353.787	44.88
353.999	102.23
354.21	106.32
354.422	12.12
354.633	55.12
354.845	75.6
355.057	53.08
355.268	53.08
355.48	100.18
355.692	36.69
355.903	57.17
356.115	87.89
356.326	81.75
356.538	71.51
356.749	71.51
356.961	149.33
357.172	32.6
357.384	26.45
357.595	53.08
357.807	67.41
358.018	118.61
358.23	100.18
358.441	96.08
358.653	139.09
358.864	61.27
359.075	55.12
359.287	112.47
359.498	89.94
359.709	137.04
359.921	63.32
360.132	85.84
360.344	87.89
360.555	12.12
360.766	30.55
360.977	59.22
361.189	130.9
361.4	130.9
361.611	124.76
361.823	130.9
362.034	151.38
362.245	51.03
362.456	135
362.667	73.56
362.879	89.94
363.09	34.64
363.301	85.84
363.512	32.6
363.723	36.69
363.935	32.6
364.146	143.19
364.357	67.41
364.568	155.47
364.779	77.65
364.99	124.76
365.201	44.88
365.412	94.04
365.623	61.27
365.834	128.85
366.045	51.03
366.256	-4.27
366.467	61.27
366.678	83.8
366.889	120.66
367.1	44.88
367.311	24.4
367.522	44.88
367.733	36.69
367.944	139.09
368.155	69.46
368.366	-4.27
368.577	85.84
368.788	59.22
368.999	69.46
369.209	53.08
369.42	157.52
369.631	110.42
369.842	141.14
370.053	61.27
370.264	48.98
370.474	22.36
370.685	100.18
370.896	69.46
371.107	81.75
371.317	87.89
371.528	34.64
371.739	77.65
371.95	53.08
372.16	28.5
372.371	51.03
372.582	42.84
372.792	85.84
373.003	171.86
373.214	53.08
373.424	10.07
373.635	104.28
373.846	178
374.056	81.75
374.267	61.27
374.477	116.56
374.688	116.56
374.898	85.84
375.109	81.75
375.319	96.08
375.53	141.14
375.74	83.8
375.951	116.56
376.161	118.61
376.372	157.52
376.582	85.84
376.793	102.23
377.003	38.74
377.214	75.6
377.424	104.28
377.635	161.62
377.845	53.08
378.055	120.66
378.266	32.6
378.476	32.6
378.686	153.43
378.897	89.94
379.107	132.95
379.317	128.85
379.528	118.61
379.738	116.56
379.948	120.66
380.158	145.24
380.369	100.18
380.579	120.66
380.789	118.61
380.999	30.55
381.21	75.6
381.42	110.42
381.63	69.46
381.84	173.91
382.05	122.71
382.261	192.34
382.471	132.95
382.681	106.32
382.891	151.38
383.101	141.14
383.311	36.69
383.521	79.7
383.731	94.04
383.941	155.47
384.151	130.9
384.361	102.23
384.571	114.52
384.781	85.84
384.991	116.56
385.201	173.91
385.411	124.76
385.621	85.84
385.831	40.79
386.041	71.51
386.251	71.51
386.461	118.61
386.671	75.6
386.881	77.65
387.091	79.7
387.301	96.08
387.511	83.8
387.72	89.94
387.93	83.8
388.14	118.61
388.35	122.71
388.56	102.23
388.769	145.24
388.979	46.93
389.189	67.41
389.399	98.13
389.609	96.08
389.818	130.9
390.028	75.6
390.238	163.67
390.447	34.64
390.657	122.71
390.867	112.47
391.076	120.66
391.286	24.4
391.496	128.85
391.705	85.84
391.915	184.15
392.125	114.52
392.334	149.33
392.544	147.28
392.753	108.37
392.963	114.52
393.172	108.37
393.382	118.61
393.591	122.71
393.801	120.66
394.01	173.91
394.22	110.42
394.429	83.8
394.639	118.61
394.848	126.8
395.058	77.65
395.267	100.18
395.477	149.33
395.686	171.86
395.895	143.19
396.105	153.43
396.314	173.91
396.524	81.75
396.733	178
396.942	231.25
397.152	122.71
397.361	198.48
397.57	196.43
397.78	180.05
397.989	126.8
398.198	190.29
398.407	171.86
398.617	128.85
398.826	106.32
399.035	165.71
399.244	126.8
399.453	165.71
399.663	96.08
399.872	118.61
400.081	143.19
400.29	163.67
400.499	132.95
400.708	229.2
400.917	184.15
401.127	210.77
401.336	196.43
401.545	221.01
401.754	180.05
401.963	126.8
402.172	239.44
402.381	163.67
402.59	229.2
402.799	157.52
403.008	147.28
403.217	155.47
403.426	124.76
403.635	218.96
403.844	135
404.053	159.57
404.262	173.91
404.471	223.06
404.68	173.91
404.888	249.68
405.097	204.63
405.306	249.68
405.515	196.43
405.724	235.35
405.933	280.4
406.142	280.4
406.35	327.5
406.559	294.74
406.768	214.87
406.977	413.52
407.185	384.85
407.394	329.55
407.603	216.91
407.812	354.13
408.02	311.12
408.229	307.02
408.438	370.51
408.646	315.22
408.855	323.41
409.064	434
409.272	421.71
409.481	411.47
409.69	507.73
409.898	345.94
410.107	499.53
410.315	397.14
410.524	405.33
410.733	440.14
410.941	536.4
411.15	546.64
411.358	589.64
411.567	589.64
411.775	532.3
411.984	565.07
412.192	614.22
412.401	595.79
412.609	747.34
412.818	794.44
413.026	724.81
413.234	634.7
413.443	722.76
413.651	737.1
413.86	773.96
414.068	769.87
414.276	896.84
414.485	884.55
414.693	933.7
414.901	978.76
415.11	948.04
415.318	954.18
415.526	1040.2
415.734	1040.2
415.943	993.09
416.151	1187.65
416.359	1191.75
416.567	1167.17
416.776	1240.9
416.984	1281.86
417.192	1322.82
417.4	1384.26
417.608	1337.15
417.817	1441.6
418.025	1568.57
418.233	1705.79
418.441	1660.73
418.649	1797.95
418.857	1795.9
419.065	1744.7
419.273	1765.18
419.481	1953.59
419.689	2002.74
419.897	2027.32
420.105	2152.24
420.313	2170.68
420.521	2342.71
420.729	2293.55
420.937	2449.2
421.145	2567.98
421.353	2690.86
421.561	2778.92
421.769	2678.57
421.977	2787.11
422.185	2866.99
422.393	3151.65
422.601	3198.76
422.809	3249.96
423.017	3252
423.224	3378.98
423.432	3508
423.64	3489.57
423.848	3735.32
424.056	3669.79
424.263	4050.71
424.471	3987.22
424.679	4140.82
424.887	4282.13
425.094	4402.96
425.302	4581.14
425.51	4620.05
425.718	4771.6
425.925	4855.56
426.133	4968.2
426.341	5199.62
426.548	5472
426.756	5496.58
426.964	5560.06
427.171	5996.28
427.379	6106.87
427.586	6219.51
427.794	6436.6
428.001	6805.23
428.209	6987.5
428.417	6799.09
428.624	7321.32
428.832	7321.32
429.039	7249.64
429.247	7194.34
429.454	7909.08
429.662	8511.19
429.869	7890.65
430.076	8472.28
430.284	8212.18
430.491	8554.19
430.699	9236.17
430.906	9064.14
431.114	9385.67
431.321	9508.55
431.528	9608.9
431.736	10225.34
431.943	10827.44
432.15	10448.57
432.358	10776.24
432.565	11062.96
432.772	11040.43
432.979	11779.75
433.187	11982.49
433.394	11914.91
433.601	12902.03
433.808	12768.91
434.016	12871.31
434.223	13350.54
434.43	14126.72
434.637	13905.54
434.844	14753.4
435.052	15081.07
435.259	14798.45
435.466	14974.58
435.673	15046.26
435.88	15781.48
436.087	16516.7
436.294	16623.19
436.501	16170.59
436.708	16778.84
436.915	17305.17
437.122	17704.52
437.329	17927.75
437.537	18394.68
437.743	18828.85
437.95	18728.5
438.157	19531.31
438.364	20100.64
438.571	20287.01
438.778	20487.71
438.985	22201.86
439.192	21313.04
439.399	22203.91
439.606	21448.21
439.813	23178.74
440.02	24241.64
440.227	23657.96
440.433	23737.84
440.64	24475.1
440.847	24124.9
441.054	24716.76
441.261	26160.58
441.467	25785.8
441.674	26367.43
441.881	27334.07
442.088	27321.78
442.294	26977.72
442.501	27991.47
442.708	28368.29
442.914	29883.79
443.121	30729.6
443.328	30084.49
443.534	31731.06
443.741	31126.91
443.948	30784.9
444.154	32798.05
444.361	32558.44
444.568	32808.29
444.774	32984.41
444.981	33254.75
445.187	34602.31
445.394	35609.91
445.6	35296.57
445.807	38573.32
446.013	37047.58
446.22	37268.76
446.426	38866.18
446.633	39232.77
446.839	40582.38
447.046	38515.98
447.252	40774.89
447.459	41137.38
447.665	40641.77
447.871	42335.44
448.078	44104.88
448.284	42300.62
448.491	43173.06
448.697	44864.68
448.903	45298.85
449.11	45624.48
449.316	45216.93
449.522	45880.47
449.728	46955.66
449.935	47023.24
450.141	47256.71
450.347	48448.63
450.553	46810.25
450.76	47447.17
450.966	48706.67
451.172	47936.63
451.378	49243.24
451.584	48403.57
451.791	49194.09
451.997	49323.11
452.203	50168.92
452.409	50347.09
452.615	50177.11
452.821	47914.11
453.027	47363.2
453.233	49831
453.44	47506.56
453.646	48548.98
453.852	48358.52
454.058	49192.04
454.264	47412.35
454.47	48901.23
454.676	47430.79
454.882	48884.84
455.088	44713.13
455.294	45530.27
455.5	45743.26
455.705	46650.51
455.911	44969.13
456.117	43785.4
456.323	43410.62
456.529	40901.86
456.735	42982.6
456.941	41407.71
457.147	40867.05
457.352	39896.31
457.558	39439.61
457.764	39255.29
457.97	38487.31
458.176	37780.76
458.381	37776.66
458.587	35996.98
458.793	35949.87
458.999	34301.26
459.204	36443.43
459.41	35867.95
459.616	33611.09
459.821	33414.49
460.027	33056.09
460.233	32404.84
460.438	30975.36
460.644	31427.96
460.85	29891.98
461.055	29633.94
461.261	29468.05
461.466	27248.05
461.672	26701.25
461.878	28290.47
462.083	26109.38
462.289	25824.72
462.494	25896.39
462.7	24704.48
462.905	24010.21
463.111	24714.72
463.316	24667.61
463.522	24376.8
463.727	24481.25
463.932	24393.19
464.138	24139.24
464.343	24036.84
464.549	23606.77
464.754	24331.75
464.959	23903.72
465.165	24120.81
465.37	22742.52
465.575	22437.37
465.781	23199.22
465.986	23338.48
466.191	22459.9
466.397	22083.08
466.602	20827.67
466.807	21718.54
467.012	21822.98
467.218	22136.32
467.423	21304.85
467.628	21528.08
467.833	22531.58
468.038	21564.94
468.244	20784.66
468.449	22148.61
468.654	21177.87
468.859	20993.56
469.064	20764.18
469.269	20074.02
469.474	20053.54
469.679	20559.39
469.885	19967.52
470.09	20479.52
470.295	20223.52
470.5	19689
470.705	19990.05
470.91	19457.58
471.115	19158.58
471.32	19686.95
471.525	19336.75
471.73	18759.22
471.935	18763.32
472.139	18075.2
472.344	18318.91
472.549	18413.12
472.754	17991.23
472.959	17905.22
473.164	17178.19
473.369	17161.81
473.574	17663.56
473.778	17634.89
473.983	17079.89
474.188	17192.53
474.393	16782.93
474.598	16811.6
474.802	16160.35
475.007	16496.22
475.212	16371.29
475.417	15765.09
475.621	15693.41
475.826	15705.7
476.031	15677.03
476.235	15064.69
476.44	15459.95
476.645	15152.75
476.849	15066.74
477.054	14894.71
477.259	14874.23
477.463	14843.51
477.668	14210.68
477.872	14397.05
478.077	14048.89
478.282	14225.02
478.486	13917.82
478.691	13825.67
478.895	13710.98
479.1	13729.41
479.304	13670.02
479.509	13358.73
479.713	13549.19
479.918	13246.09
480.122	13106.83
480.326	13260.43
480.531	13305.48
480.735	13201.04
480.94	13115.02
481.144	13192.84
481.348	12691.09
481.553	13180.56
481.757	12445.34
481.961	12986
482.166	13084.3
482.37	12897.94
482.574	12578.45
482.778	12820.11
482.983	13041.29
483.187	12996.24
483.391	12955.28
483.595	12660.37
483.8	12635.8
484.004	12942.99
484.208	13026.96
484.412	12551.83
484.616	12822.16
484.821	12596.89
485.025	12680.85
485.229	12754.58
485.433	12459.67
485.637	12799.63
485.841	12703.38
486.045	12766.87
486.249	12793.49
486.453	12596.89
486.657	12730
486.861	12725.91
487.065	12359.32
487.269	12646.04
487.473	12535.45
487.677	12885.65
487.881	12957.33
488.085	12895.89
488.289	12930.7
488.493	12664.47
488.697	12807.83
488.901	12885.65
489.105	12920.46
489.309	12809.87
489.512	12885.65
489.716	13125.26
489.92	12783.25
490.124	12818.07
490.328	13024.91
490.531	12885.65
490.735	12983.95
490.939	13059.73
491.143	13018.77
491.346	12916.37
491.55	13440.65
491.754	13262.47
491.958	13430.41
492.161	13403.78
492.365	13272.71
492.569	13530.76
492.772	13340.3
492.976	13514.38
493.18	13717.12
493.383	13694.6
493.587	13651.59
493.79	13981.31
493.994	13796.99
494.197	14036.61
494.401	14145.15
494.605	14186.11
494.808	14589.56
495.012	14210.68
495.215	14579.32
495.419	14501.5
495.622	14835.31
495.825	14792.31
496.029	15074.93
496.232	15144.56
496.436	15345.26
496.639	15537.77
496.843	15488.62
497.046	15816.29
497.249	15703.65
497.453	15767.14
497.656	16107.1
497.859	16338.52
498.063	16387.68
498.266	16557.66
498.469	16574.04
498.673	16762.45
498.876	16879.19
499.079	17452.62
499.282	17518.15
499.485	17593.93
499.689	17473.1
499.892	18234.94
500.095	17950.28
500.298	18523.71
500.501	18337.34
500.705	18767.41
500.908	19205.68
501.111	18982.45
501.314	19422.76
501.517	19625.51
501.72	19619.37
501.923	19912.23
502.126	20360.73
502.329	20553.24
502.532	20819.48
502.735	20651.55
502.938	21233.17
503.141	20995.6
503.344	21351.95
503.547	21505.55
503.75	21919.24
503.953	22294.02
504.156	22552.06
504.359	22543.87
504.562	22648.32
504.765	23318
504.968	23512.56
505.17	23494.13
505.373	23743.98
505.576	24192.48
505.779	24370.66
505.982	24706.52
506.185	24933.85
506.387	25363.92
506.59	25492.94
506.793	25912.78
506.996	25791.95
507.198	26957.24
507.401	26133.96
507.604	26721.73
507.807	27243.96
508.009	27231.67
508.212	27841.96
508.415	27911.6
508.617	28239.27
508.82	28282.28
509.022	28251.56
509.225	28951.96
509.428	29267.35
509.63	29435.28
509.833	29597.07
510.035	30442.88
510.238	30320.01
510.44	30410.12
510.643	30913.92
510.845	31069.56
511.048	31231.35
511.25	31339.9
511.453	31858.03
511.655	33111.39
511.858	32621.92
512.06	33045.85
512.262	33633.62
512.465	33596.76
512.667	33940.82
512.87	34450.76
513.072	34309.45
513.274	35032.38
513.477	35394.87
513.679	35493.18
513.881	36148.53
514.084	36257.07
514.286	36324.65
514.488	36709.67
514.69	37698.84
514.893	37680.41
515.095	37741.85
515.297	38245.65
515.499	38423.82
515.701	38925.57
515.904	39329.02
516.106	39392.51
516.308	39621.88
516.51	40203.5
516.712	39992.56
516.914	40953.06
517.116	41280.74
517.318	41643.23
517.52	41843.93
517.722	42185.94
517.925	42835.14
518.127	43080.9
518.329	43101.38
518.531	43005.13
518.733	43654.33
518.935	44311.73
519.136	44393.65
519.338	44891.3
519.54	45106.34
519.742	45223.08
519.944	45991.06
520.146	46513.3
520.348	46726.28
520.55	46838.92
520.752	47191.17
520.954	47789.18
521.155	47912.06
521.357	48553.07
521.559	48809.07
521.761	49058.92
521.963	48919.66
522.164	49331.3
522.366	50029.66
522.568	50388.05
522.77	50512.98
522.971	51309.64
523.173	50951.24
523.375	51536.96
523.576	51354.69
523.778	51844.16
523.98	52483.12
524.181	52405.3
524.383	52311.1
524.584	53539.88
524.786	53290.02
524.988	53441.57
525.189	53652.51
525.391	54225.95
525.592	54494.23
525.794	54506.52
525.995	54721.55
526.197	55147.53
526.398	55024.65
526.6	55399.43
526.801	55614.47
527.003	56126.46
527.204	56153.08
527.406	56185.85
527.607	56302.59
527.808	56876.02
528.01	55925.76
528.211	56710.13
528.412	57764.84
528.614	57476.07
528.815	57345
529.016	57611.24
529.218	57537.51
529.419	58084.32
529.62	57965.54
529.822	57762.79
530.023	58135.52
530.224	58411.99
530.425	58323.93
530.626	58250.2
530.828	57660.39
531.029	59102.16
531.23	58287.07
531.431	58807.25
531.632	58637.27
531.833	58940.37
532.035	58661.85
532.236	58926.03
532.437	59225.04
532.638	59292.62
532.839	59159.5
533.04	59784.13
533.241	58842.07
533.442	60388.28
533.643	59306.96
533.844	59642.82
534.045	60005.31
534.246	59304.91
534.447	59978.69
534.648	59712.45
534.849	59855.81
535.05	59476.94
535.251	59810.76
535.451	59841.48
535.652	59761.61
535.853	59716.55
536.054	60244.93
536.255	60191.68
536.456	59708.36
536.657	60224.45
536.857	59802.56
537.058	59771.85
537.259	59896.77
537.46	59970.5
537.66	59814.85
537.861	60476.35
538.062	60044.23
538.263	60068.8
538.463	59864
538.664	59745.22
538.865	60167.1
539.065	60879.8
539.266	59450.31
539.466	60576.7
539.667	59317.2
539.868	60601.27
540.068	59816.9
540.269	60109.76
540.469	60343.23
540.67	59694.02
540.87	59970.5
541.071	60349.37
541.271	60187.58
541.472	59841.48
541.672	59898.82
541.873	59388.88
542.073	59507.66
542.274	60240.83
542.474	59878.34
542.675	59888.58
542.875	59878.34
543.075	59741.13
543.276	58999.76
543.476	60330.94
543.676	59610.06
543.877	59997.12
544.077	60396.48
544.277	59487.18
544.478	60079.04
544.678	60101.57
544.878	59765.7
545.078	60128.19
545.279	59476.94
545.479	59646.92
545.679	59773.89
545.879	59462.6
546.079	59794.37
546.28	59335.63
546.48	59505.61
546.68	59884.48
546.88	59575.24
547.08	59917.25
547.28	59403.21
547.48	59155.41
547.68	59511.75
547.88	59696.07
548.081	59954.11
548.281	59433.93
548.481	59335.63
548.681	59671.49
548.881	59405.26
549.081	59585.48
549.28	59390.92
549.48	59792.32
549.68	59282.38
549.88	59915.2
550.08	59497.42
550.28	59673.54
550.48	59511.75
550.68	59880.39
550.88	59208.65
551.08	59411.4
551.279	59483.08
551.479	59007.95
551.679	59083.73
551.879	58907.6
552.079	59558.86
552.278	59096.02
552.478	59143.12
552.678	59593.67
552.878	59446.22
553.077	58840.02
553.277	58760.15
553.477	59565
553.676	58979.28
553.876	59268.04
554.076	58760.15
554.275	58741.72
554.475	58559.45
554.674	59010
554.874	58905.55
555.074	58553.3
555.273	58923.99
555.473	59141.07
555.672	58819.54
555.872	58923.99
556.071	58567.64
556.271	58948.56
556.47	58368.99
556.67	58340.32
556.869	58385.37
557.068	58561.5
557.268	58192.86
557.467	58205.15
557.667	58088.41
557.866	58022.88
558.065	58495.96
558.265	57877.47
558.464	57576.42
558.663	58110.94
558.863	57256.94
559.062	58350.55
559.261	57367.53
559.461	58336.22
559.66	56941.55
559.859	57201.64
560.058	56949.74
560.258	57531.37
560.457	56558.58
560.656	57418.73
560.855	57070.57
561.054	57023.47
561.253	56955.89
561.453	57086.96
561.652	57154.54
561.851	57482.22
562.05	57056.24
562.249	56581.11
562.448	56777.71
562.647	56353.79
562.846	56372.22
563.045	56716.28
563.244	55950.34
563.443	56587.25
563.642	55503.88
563.841	55829.51
564.04	55641.09
564.239	56179.71
564.438	55301.13
564.637	55456.78
564.836	55723.01
565.035	55192.59
565.234	55149.58
565.432	54756.37
565.631	54727.7
565.83	55094.28
566.029	54778.9
566.228	54600.72
566.427	54797.33
566.625	54436.89
566.824	53707.81
567.023	54436.89
567.222	53306.41
567.42	54830.1
567.619	54189.08
567.818	53507.11
568.016	53500.96
568.215	53881.89
568.414	53500.96
568.612	53842.98
568.811	53183.53
569.01	53445.67
569.208	52689.97
569.407	53271.59
569.605	52724.78
569.804	53171.24
570.002	52112.44
570.201	52409.4
570.4	52001.85
570.598	52010.04
570.797	52055.1
570.995	51930.17
571.193	51524.68
571.392	51993.66
571.59	51418.18
571.789	51442.76
571.987	51551.3
572.186	51364.93
572.384	50906.19
572.582	51524.68
572.781	50902.09
572.979	50508.88
573.177	50881.61
573.376	50609.23
573.574	50306.13
573.772	50631.76
573.971	50048.09
574.169	50359.38
574.367	49714.27
574.565	50449.49
574.763	50068.57
574.962	49599.58
575.16	48899.18
575.358	49710.17
575.556	49112.17
575.754	49665.12
575.952	48657.52
576.151	49552.48
576.349	48641.14
576.547	48778.35
576.745	48528.5
576.943	48678
577.141	48182.39
577.339	48784.49
577.537	48079.99
577.735	48026.74
577.933	47871.1
578.131	48149.62
578.329	47559.81
578.527	47330.44
578.725	47629.44
578.923	47191.17
579.121	47686.78
579.319	47318.15
579.516	47150.21
579.714	47197.32
579.912	46677.13
580.11	46699.66
580.308	47025.29
580.506	46691.47
580.704	45810.84
580.901	46429.33
581.099	46601.36
581.297	45978.78
581.495	45593.76
581.692	45843.61
581.89	45335.71
582.088	46126.23
582.285	45049
582.483	45825.18
582.681	45331.62
582.878	45311.14
583.076	44612.78
583.274	45339.81
583.471	44334.26
583.669	44825.77
583.866	44494
584.064	44520.62
584.262	44229.81
584.459	44778.67
584.657	43678.91
584.854	44532.91
585.052	43361.47
585.249	43576.51
585.447	43687.1
585.644	43685.05
585.841	43121.86
586.039	43793.59
586.236	43343.04
586.434	43037.89
586.631	42812.62
586.828	42708.17
587.026	42884.29
587.223	42699.98
587.42	42435.79
587.618	42605.77
587.815	42073.3
588.012	42169.55
588.21	41800.92
588.407	42165.46
588.604	41559.26
588.801	41592.03
588.999	41397.47
589.196	41440.48
589.393	41473.24
589.59	41508.06
589.787	41116.9
589.984	40668.39
590.182	40332.53
590.379	40893.67
590.576	40545.51
590.773	40584.43
590.97	40146.16
591.167	40424.68
591.364	40103.15
591.561	39965.94
591.758	39433.47
591.955	39644.41
592.152	40047.86
592.349	39550.2
592.546	39453.95
592.743	39251.2
592.94	38616.33
593.137	39214.33
593.334	39165.18
593.531	38647.05
593.727	38937.86
593.924	38864.13
594.121	38188.3
594.318	38696.2
594.515	37887.25
594.712	38716.68
594.908	37868.82
595.105	38096.14
595.302	38153.49
595.499	38098.19
595.696	37432.6
595.892	37340.44
596.089	37922.07
596.286	37723.41
596.482	37184.8
596.679	37268.76
596.876	37309.72
597.072	37215.52
597.269	37100.83
597.466	36441.39
597.662	36584.74
597.859	36511.02
598.055	36543.78
598.252	36418.86
598.448	36242.73
598.645	36203.82
598.841	35767.6
599.038	35702.07
599.234	36158.77
599.431	35341.63
599.627	35466.55
599.824	35611.96
600.02	35071.29
600.217	35243.32
600.413	35243.32
600.609	34798.91
600.806	35177.79
601.002	35075.39
601.198	34948.42
601.395	34524.49
601.591	34506.05
601.787	34491.72
601.984	34198.86
602.18	34237.77
602.376	34166.09
602.572	33977.68
602.769	33819.99
602.965	33674.58
603.161	34080.08
603.357	33363.29
603.553	33451.35
603.75	33467.73
603.946	33228.12
604.142	33396.06
604.338	32617.83
604.534	33029.47
604.73	32918.88
604.926	32865.63
605.122	32867.68
605.318	32480.61
605.514	32363.88
605.71	32200.04
605.906	32370.02
606.102	32587.11
606.298	32361.83
606.494	32200.04
606.69	31892.85
606.886	32142.7
607.082	31675.76
607.278	31976.81
607.474	31341.94
607.67	31659.38
607.866	31212.92
608.062	32058.73
608.257	31231.35
608.453	31126.91
608.649	31284.6
608.845	30938.49
609.041	31135.1
609.236	31278.46
609.432	30895.49
609.628	31118.71
609.824	30741.89
610.019	30821.76
610.215	30608.77
610.411	30926.21
610.606	30553.48
610.802	30688.64
610.998	30604.67
611.193	30363.01
611.389	29834.64
611.584	30236.04
611.78	30229.9
611.976	29943.18
612.171	29955.47
612.367	30027.15
612.562	29988.24
612.758	29664.66
612.953	29881.74
613.149	30029.2
613.344	29547.92
613.539	29824.4
613.735	29599.12
613.93	29691.28
614.126	29367.7
614.321	29685.14
614.517	29349.27
614.712	29416.85
614.907	29259.16
615.103	29349.27
615.298	29167
615.493	29529.49
615.688	28992.92
615.884	29406.61
616.079	28794.27
616.274	29232.54
616.47	28777.89
616.665	28562.85
616.86	28673.44
617.055	28763.55
617.25	28655.01
617.445	28677.54
617.641	27952.55
617.836	28902.81
618.031	27985.32
618.226	28360.1
618.421	28028.33
618.616	28138.92
618.811	27737.52
619.006	27964.84
619.201	27434.42
619.396	27674.03
619.591	27286.96
619.786	27786.67
619.981	26916.28
620.176	27526.58
620.371	26918.33
620.566	27069.88
620.761	27010.49
620.956	26944.95
621.151	26504.64
621.346	26691.01
621.541	25974.22
621.735	26252.74
621.93	25925.07
622.125	25918.92
622.32	25718.22
622.515	25794
622.709	25652.69
622.904	25568.72
623.099	25173.46
623.294	25499.09
623.488	25155.03
623.683	25447.89
623.878	24718.81
624.072	24708.57
624.267	24640.99
624.462	24780.25
624.656	24282.59
624.851	24434.14
625.046	23981.54
625.24	24081.89
625.435	23686.64
625.629	23795.18
625.824	23483.89
626.018	23361.01
626.213	23297.52
626.407	23549.42
626.602	22943.22
626.796	23053.81
626.991	22722.04
627.185	22812.15
627.38	22750.71
627.574	22584.83
627.768	22339.07
627.963	22341.12
628.157	22146.56
628.352	22468.09
628.546	21751.31
628.74	21876.23
628.935	21857.8
629.129	21902.86
629.323	21259.79
629.517	21530.12
629.712	21071.38
629.906	21298.7
630.1	21077.52
630.294	20966.93
630.489	20747.8
630.683	20790.81
630.877	20635.16
631.071	20553.24
631.265	20473.37
631.459	20325.92
631.653	20133.41
631.848	20039.2
632.042	19836.45
632.236	19858.98
632.43	19682.86
632.624	20026.92
632.818	19732.01
633.012	19570.22
633.206	19541.55
633.4	19420.72
633.594	18861.62
633.788	19195.44
633.982	19195.44
634.176	19297.84
634.369	18718.26
634.563	18662.97
634.757	18597.43
634.951	18798.13
635.145	18482.75
635.339	18386.49
635.533	18161.22
635.726	18173.5
635.92	17843.78
636.114	17983.04
636.308	17585.74
636.501	17956.42
636.695	17915.46
636.889	17686.09
637.083	17526.35
637.276	17233.49
637.47	17417.8
637.664	17092.18
637.857	17106.51
638.051	17167.95
638.244	17069.65
638.438	16936.53
638.632	16793.17
638.825	16698.97
639.019	16735.83
639.212	16557.66
639.406	16440.92
639.599	16555.61
639.793	16320.09
639.986	16137.82
640.18	16107.1
640.373	15885.92
640.567	15894.11
640.76	16205.41
640.954	15922.79
641.147	15697.51
641.34	15509.1
641.534	15425.13
641.727	15201.9
641.92	15181.42
642.114	15310.44
642.307	15054.45
642.5	15179.37
642.694	15015.54
642.887	14681.72
643.08	15023.73
643.273	14843.51
643.467	14861.94
643.66	14521.98
643.853	14481.02
644.046	14169.73
644.239	14358.14
644.432	14159.49
644.626	14198.4
644.819	14083.71
645.012	14003.84
645.205	14075.52
645.398	14098.05
645.591	13753.99
645.784	13680.26
645.977	13534.85
646.17	13696.64
646.363	13266.57
646.556	13512.33
646.749	13457.03
646.942	13563.53
647.135	13190.8
647.328	13250.19
647.521	13266.57
647.714	13018.77
647.907	13266.57
648.099	12701.33
648.292	12996.24
648.485	12744.34
648.678	12629.65
648.871	12643.99
649.064	12476.05
649.256	12433.05
649.449	12451.48
649.642	12336.79
649.835	12185.24
650.027	12209.82
650.22	12224.15
650.413	12019.36
650.605	12234.39
650.798	12201.63
650.991	11892.38
651.183	11943.58
651.376	11753.12
651.568	11814.56
651.761	11632.29
651.954	11937.44
652.146	11599.52
652.339	11650.72
652.531	11321
652.724	11194.03
652.916	11097.77
653.109	11308.71
653.301	11128.49
653.494	10942.13
653.686	10854.06
653.879	11007.66
654.071	10987.18
654.263	10784.43
654.456	10862.26
654.648	11007.66
654.84	10739.38
655.033	10694.32
655.225	10688.18
655.417	10438.33
655.61	10440.37
655.802	10553.01
655.994	10313.4
656.186	10397.37
656.379	10499.77
656.571	10417.85
656.763	9918.14
656.955	10057.4
657.148	10178.23
657.34	10094.27
657.532	9825.98
657.724	10063.55
657.916	9977.53
658.108	9981.63
658.3	9791.17
658.492	9881.28
658.684	9705.15
658.876	9713.35
659.068	9785.02
659.26	9563.84
659.452	9674.43
659.644	9539.27
659.836	9451.21
660.028	9586.37
660.22	9072.33
660.412	9096.91
660.604	9318.09
660.796	9088.71
660.988	9051.85
661.18	9072.33
661.372	8920.78
661.563	9023.18
661.755	8711.89
661.947	8976.08
662.139	8842.96
662.331	8912.59
662.522	8683.22
662.714	8646.35
662.906	8693.46
663.097	8629.97
663.289	8597.2
663.481	8613.59
663.673	8480.47
663.864	8623.83
664.056	8531.67
664.247	8445.65
664.439	8199.9
664.631	8384.21
664.822	8234.71
665.014	8244.95
665.205	8210.14
665.397	8247
665.588	8322.77
665.78	8068.83
665.971	7919.32
666.163	8021.72
666.354	8115.93
666.546	7933.66
666.737	7917.28
666.929	7853.79
667.12	7786.21
667.311	7898.84
667.503	7612.13
667.694	7716.58
667.885	7872.22
668.077	7653.09
668.268	7560.93
668.459	7638.75
668.651	7497.44
668.842	7446.24
669.033	7544.55
669.224	7352.04
669.416	7589.6
669.607	7446.24
669.798	7556.83
669.989	7311.08
670.18	7237.35
670.371	7145.19
670.563	7169.77
670.754	7108.33
670.945	7292.65
671.136	7204.58
671.327	7134.95
671.518	7196.39
671.709	7151.34
671.9	7065.32
672.091	7048.94
672.282	6917.87
672.473	6971.11
672.664	6962.92
672.855	6913.77
673.046	6774.51
673.237	6878.96
673.428	6702.83
673.619	6803.18
673.809	6680.3
674	6700.78
674.191	6631.15
674.382	6797.04
674.573	6776.56
674.764	6465.27
674.954	6620.91
675.145	6491.89
675.336	6569.71
675.527	6627.06
675.717	6610.67
675.908	6381.3
676.099	6487.79
676.289	6491.89
676.48	6432.5
676.671	6330.1
676.861	6426.36
677.052	6414.07
677.243	6315.76
677.433	6299.38
677.624	6340.34
677.814	6207.22
678.005	6387.44
678.195	6330.1
678.386	6092.54
678.576	6164.22
678.767	6266.61
678.957	6127.35
679.148	6076.15
679.338	6139.64
679.529	6156.02
679.719	6086.39
679.909	6264.57
680.1	6084.34
680.29	6278.9
680.481	6119.16
680.671	6072.06
680.861	5926.65
681.052	5992.19
681.242	6006.52
681.432	6086.39
681.622	5926.65
681.813	5924.6
682.003	6133.5
682.193	5912.32
682.383	6037.24
682.573	5914.36
682.764	5793.53
682.954	5918.46
683.144	6094.58
683.334	5887.74
683.524	5875.45
683.714	5773.05
683.904	5746.43
684.094	5957.37
684.284	5764.86
684.474	5881.6
684.664	5816.06
684.854	5711.61
685.044	5607.17
685.234	5605.12
685.424	5748.48
685.614	5660.41
685.804	5648.13
685.994	5695.23
686.184	5646.08
686.374	5574.4
686.564	5525.25
686.753	5617.41
686.943	5553.92
687.133	5418.75
687.323	5357.32
687.513	5472
687.702	5510.91
687.892	5418.75
688.082	5367.56
688.272	5322.5
688.461	5347.08
688.651	5392.13
688.841	5263.11
689.03	5267.2
689.22	5031.69
689.41	5259.01
689.599	5336.84
689.789	5211.91
689.979	5089.03
690.168	5189.38
690.358	5091.08
690.547	5043.98
690.737	5158.66
690.926	5025.54
691.116	4960.01
691.305	5132.04
691.495	5000.97
691.684	4990.73
691.874	4945.67
692.063	4923.15
692.252	4794.12
692.442	4882.19
692.631	5078.79
692.82	4910.86
693.01	4876.04
693.199	4777.74
693.388	4720.4
693.578	4818.7
693.767	4783.88
693.956	4798.22
694.146	4798.22
694.335	4689.68
694.524	4681.49
694.713	4747.02
694.902	4622.09
695.092	4501.26
695.281	4628.24
695.47	4738.83
695.659	4667.15
695.848	4624.14
696.037	4658.96
696.226	4599.57
696.415	4558.61
696.604	4597.52
696.793	4546.32
696.982	4501.26
697.171	4640.53
697.36	4726.54
697.549	4491.02
697.738	4538.13
697.927	4509.46
698.116	4667.15
698.305	4613.9
698.494	4413.2
698.683	4626.19
698.872	4505.36
699.061	4534.03
699.25	4310.8
699.438	4527.89
699.627	4378.39
699.816	4505.36
700.005	4351.76
700.193	4452.11
700.382	4466.45
700.571	4310.8
700.76	4392.72
700.948	4396.82
701.137	4450.07
701.326	4300.56
701.514	4478.74
701.703	4294.42
701.892	4306.71
702.08	4280.08
702.269	4464.4
702.457	4456.21
702.646	4392.72
702.834	4382.48
703.023	4189.97
703.212	4374.29
703.4	4411.15
703.589	4284.18
703.777	4382.48
703.965	4130.58
704.154	4357.91
704.342	4149.01
704.531	4298.52
704.719	4290.32
704.907	4185.88
705.096	4200.21
705.284	4169.49
705.472	4284.18
705.661	4212.5
705.849	4321.04
706.037	4304.66
706.226	4355.86
706.414	4278.04
706.602	4212.5
706.79	4286.23
706.979	4261.65
707.167	4140.82
707.355	4048.66
707.543	4280.08
707.731	4183.83
707.919	4239.12
708.107	4153.11
708.296	4206.36
708.484	4130.58
708.672	4153.11
708.86	4230.93
709.048	4136.73
709.236	4103.96
709.424	4212.5
709.612	4255.51
709.8	4247.32
709.988	4214.55
710.176	4173.59
710.364	4206.36
710.551	4099.86
710.739	4171.54
710.927	4206.36
711.115	4093.72
711.303	4169.49
711.491	4089.62
711.679	3964.7
711.866	4241.17
712.054	4157.21
712.242	4081.43
712.43	4218.64
712.617	4192.02
712.805	4093.72
712.993	4284.18
713.181	4099.86
713.368	4024.09
713.556	4120.34
713.744	4106.01
713.931	4165.4
714.119	4122.39
714.306	4116.25
714.494	4036.38
714.682	4149.01
714.869	4073.24
715.057	4239.12
715.244	3890.97
715.432	4163.35
715.619	4128.53
715.807	4050.71
715.994	4124.44
716.182	3964.7
716.369	4067.1
716.556	4200.21
716.744	3952.41
716.931	4106.01
717.119	4024.09
717.306	4040.47
717.493	4013.85
717.681	4169.49
717.868	3915.55
718.055	4189.97
718.242	4075.29
718.43	4003.61
718.617	3952.41
718.804	4085.53
718.991	3989.27
719.179	4081.43
719.366	3895.07
719.553	3964.7
719.74	3997.46
719.927	3860.25
720.114	3905.31
720.301	4042.52
720.488	3888.92
720.676	3962.65
720.863	3952.41
721.05	4003.61
721.237	3874.59
721.424	3903.26
721.611	4087.57
721.798	3952.41
721.985	3966.74
722.172	4013.85
722.358	3966.74
722.545	3952.41
722.732	3925.79
722.919	3852.06
723.106	3868.44
723.293	3825.43
723.48	3979.03
723.667	3860.25
723.853	3903.26
724.04	4005.66
724.227	4103.96
724.414	3893.02
724.6	3817.24
724.787	3864.35
724.974	3895.07
725.161	3729.18
725.347	3800.86
725.534	3872.54
725.72	3936.03
725.907	3884.83
726.094	3841.82
726.28	3878.68
726.467	3776.28
726.653	3759.9
726.84	3868.44
727.027	3933.98
727.213	3804.96
727.4	3958.55
727.586	3903.26
727.773	3839.77
727.959	3733.28
728.145	3747.61
728.332	3774.24
728.518	3884.83
728.705	3741.47
728.891	3854.11
729.077	3637.02
729.264	3774.24
729.45	3800.86
729.636	3950.36
729.823	3749.66
730.009	3798.81
730.195	3796.76
730.382	3686.17
730.568	3659.55
730.754	3823.39
730.94	3770.14
731.126	3753.76
731.313	3776.28
731.499	3733.28
731.685	3598.11
731.871	3770.14
732.057	3784.48
732.243	3667.74
732.429	3585.82
732.615	3637.02
732.801	3682.08
732.987	3596.06
733.173	3727.13
733.359	3606.3
733.545	3548.96
733.731	3530.53
733.917	3620.64
734.103	3682.08
734.289	3585.82
734.475	3512.1
734.661	3571.49
734.847	3682.08
735.033	3610.4
735.219	3723.04
735.404	3624.73
735.59	3606.3
735.776	3481.38
735.962	3475.23
736.148	3647.26
736.333	3528.48
736.519	3532.58
736.705	3567.39
736.89	3536.67
737.076	3485.47
737.262	3487.52
737.447	3508
737.633	3397.41
737.819	3520.29
738.004	3497.76
738.19	3534.62
738.375	3434.27
738.561	3448.61
738.747	3426.08
738.932	3319.59
739.118	3393.31
739.303	3421.99
739.489	3393.31
739.674	3393.31
739.859	3247.91
740.045	3221.28
740.23	3319.59
740.416	3315.49
740.601	3215.14
740.786	3231.52
740.972	3311.39
741.157	3223.33
741.342	3340.07
741.528	3206.95
741.713	3327.78
741.898	3118.89
742.084	3120.93
742.269	3338.02
742.454	3221.28
742.639	3106.6
742.824	3188.52
743.01	3223.33
743.195	3098.41
743.38	3245.86
743.565	3131.17
743.75	3088.17
743.935	3086.12
744.12	3127.08
744.305	3030.82
744.49	3125.03
744.675	3026.73
744.86	3041.06
745.045	3082.02
745.23	2950.95
745.415	3047.21
745.6	2885.42
745.785	2854.7
745.97	3034.92
746.155	2862.89
746.34	2887.47
746.525	2961.19
746.71	2944.81
746.895	2848.55
747.079	2674.48
747.264	2756.4
747.449	2791.21
747.634	2789.16
747.819	2701.1
748.003	2629.42
748.188	2731.82
748.373	2594.61
748.557	2664.24
748.742	2639.66
748.927	2555.69
749.111	2658.09
749.296	2600.75
749.481	2690.86
749.665	2477.87
749.85	2533.17
750.034	2570.03
750.219	2488.11
750.404	2555.69
750.588	2565.93
750.773	2473.78
750.957	2467.63
751.141	2391.86
751.326	2344.75
751.51	2408.24
751.695	2498.35
751.879	2406.19
752.064	2365.23
752.248	2309.94
752.432	2369.33
752.617	2371.38
752.801	2260.79
752.985	2203.44
753.17	2287.41
753.354	2191.16
753.538	2424.62
753.722	2103.09
753.907	2137.91
754.091	2197.3
754.275	2187.06
754.459	2228.02
754.643	2105.14
754.828	2230.07
755.012	2107.19
755.196	2027.32
755.38	2010.93
755.564	2058.04
755.748	2015.03
755.932	2000.69
756.116	1920.82
756.3	1986.36
756.484	1976.12
756.668	1941.3
756.852	1849.15
757.036	2004.79
757.22	1943.35
757.404	1888.06
757.588	1826.62
757.772	1918.78
757.956	1847.1
758.14	1816.38
758.323	1918.78
758.507	1851.19
758.691	1734.46
758.875	1904.44
759.059	1867.58
759.242	1664.83
759.426	1802.04
759.61	1791.8
759.794	1650.49
759.977	1724.22
760.161	1744.7
760.345	1691.45
760.528	1763.13
760.712	1703.74
760.895	1660.73
761.079	1748.79
761.263	1525.57
761.446	1658.68
761.63	1742.65
761.813	1716.03
761.997	1716.03
762.18	1595.2
762.364	1681.21
762.547	1503.04
762.731	1548.09
762.914	1537.85
763.098	1611.58
763.281	1587.01
763.464	1550.14
763.648	1535.81
763.831	1599.29
764.015	1564.48
764.198	1482.56
764.381	1500.99
764.564	1460.03
764.748	1482.56
764.931	1525.57
765.114	1513.28
765.297	1494.85
765.481	1468.22
765.664	1515.33
765.847	1427.26
766.03	1560.38
766.213	1486.65
766.397	1425.22
766.58	1484.61
766.763	1421.12
766.946	1486.65
767.129	1390.4
767.312	1378.11
767.495	1419.07
767.678	1355.58
767.861	1365.82
768.044	1337.15
768.227	1353.54
768.41	1349.44
768.593	1322.82
768.776	1331.01
768.959	1365.82
769.142	1376.06
769.324	1312.58
769.507	1339.2
769.69	1421.12
769.873	1275.71
770.056	1367.87
770.239	1271.62
770.421	1363.78
770.604	1238.85
770.787	1324.87
770.97	1273.67
771.152	1191.75
771.335	1240.9
771.518	1214.27
771.7	1275.71
771.883	1314.63
772.066	1201.99
772.248	1261.38
772.431	1230.66
772.613	1212.23
772.796	1208.13
772.978	1269.57
773.161	1175.36
773.343	1177.41
773.526	1253.19
773.708	1142.6
773.891	1171.27
774.073	978.76
774.256	1095.49
774.438	1261.38
774.621	1087.3
774.803	1113.92
774.985	1042.25
775.168	1087.3
775.35	1070.92
775.532	1118.02
775.715	1040.2
775.897	1064.77
776.079	1101.64
776.261	1050.44
776.444	1044.29
776.626	1068.87
776.808	1011.53
776.99	1083.2
777.173	1001.29
777.355	952.13
777.537	1040.2
777.719	982.85
777.901	958.28
778.083	933.7
778.265	945.99
778.447	945.99
778.629	921.42
778.811	982.85
778.993	878.41
779.175	976.71
779.357	900.94
779.539	872.26
779.721	941.89
779.903	921.42
780.085	941.89
780.267	915.27
780.449	890.7
780.631	902.98
780.812	827.21
780.994	847.69
781.176	911.18
781.358	853.83
781.54	790.35
781.721	853.83
781.903	765.77
782.085	786.25
782.267	823.11
782.448	751.43
782.63	747.34
782.812	776.01
782.993	837.45
783.175	872.26
783.357	773.96
783.538	761.67
783.72	700.23
783.901	735.05
784.083	687.95
784.264	724.81
784.446	741.19
784.627	755.53
784.809	704.33
784.99	673.61
785.172	681.8
785.353	733
785.535	741.19
785.716	679.75
785.897	587.6
786.079	759.63
786.26	614.22
786.441	747.34
786.623	618.32
786.804	698.19
786.985	669.52
787.167	696.14
787.348	540.49
787.529	628.56
787.71	696.14
787.891	671.56
788.073	614.22
788.254	610.12
788.435	583.5
788.616	538.45
788.797	606.03
788.978	540.49
789.159	569.16
789.34	563.02
789.522	616.27
789.703	569.16
789.884	610.12
790.065	577.36
790.246	634.7
790.427	526.16
790.607	575.31
790.788	616.27
790.969	477.01
791.15	603.98
791.331	517.97
791.512	522.06
791.693	446.29
791.874	522.06
792.054	608.08
792.235	579.4
792.416	472.91
792.597	517.97
792.778	517.97
792.958	495.44
793.139	507.73
793.32	536.4
793.5	456.53
793.681	563.02
793.862	460.62
794.042	565.07
794.223	472.91
794.404	460.62
794.584	397.14
794.765	417.61
794.945	581.45
795.126	466.77
795.306	460.62
795.487	491.34
795.667	444.24
795.848	468.81
796.028	470.86
796.209	464.72
796.389	509.77
796.57	407.38
796.75	393.04
796.93	450.38
797.111	481.1
797.291	419.66
797.471	501.58
797.652	442.19
797.832	368.46
798.012	474.96
798.192	339.79
798.373	331.6
798.553	405.33
798.733	386.9
798.913	440.14
799.093	477.01
799.274	401.23
799.454	390.99
799.634	380.75
799.814	368.46
799.994	319.31
800.174	390.99
800.354	380.75
800.534	399.18
800.714	429.9
800.894	368.46
801.074	345.94
801.254	393.04
801.434	393.04
801.614	446.29
801.794	341.84
801.974	884.55
802.154	413.52
802.334	374.61
802.514	290.64
802.693	350.03
802.873	331.6
803.053	436.05
803.233	352.08
803.413	399.18
803.592	296.78
803.772	298.83
803.952	331.6
804.131	319.31
804.311	280.4
804.491	382.8
804.67	296.78
804.85	345.94
805.03	429.9
805.209	388.94
805.389	321.36
805.568	329.55
805.748	304.98
805.928	309.07
806.107	307.02
806.287	327.5
806.466	296.78
806.646	339.79
806.825	296.78
807.004	259.92
807.184	444.24
807.363	243.54
807.543	337.74
807.722	278.35
807.901	317.26
808.081	296.78
808.26	298.83
808.439	274.26
808.619	296.78
808.798	304.98
808.977	280.4
809.156	266.07
809.336	325.46
809.515	311.12
809.694	200.53
809.873	253.78
810.052	253.78
810.231	257.87
810.411	304.98
810.59	390.99
810.769	237.39
810.948	237.39
811.127	223.06
811.306	284.5
811.485	298.83
811.664	264.02
811.843	274.26
812.022	214.87
812.201	206.67
812.38	307.02
812.559	245.59
812.737	210.77
812.916	251.73
813.095	214.87
813.274	278.35
813.453	241.49
813.632	245.59
813.811	274.26
813.989	229.2
814.168	229.2
814.347	153.43
814.526	266.07
814.704	270.16
814.883	261.97
815.062	245.59
815.24	266.07
815.419	151.38
815.598	284.5
815.776	190.29
815.955	212.82
816.133	143.19
816.312	200.53
816.49	198.48
816.669	194.39
816.847	235.35
817.026	239.44
817.204	274.26
817.383	212.82
817.561	173.91
817.74	218.96
817.918	118.61
818.097	186.19
818.275	182.1
818.453	272.21
818.632	206.67
818.81	243.54
818.988	249.68
819.167	151.38
819.345	208.72
819.523	208.72
819.701	159.57
819.879	233.3
820.058	243.54
820.236	227.15
820.414	245.59
820.592	233.3
820.77	153.43
820.948	200.53
821.127	186.19
821.305	241.49
821.483	214.87
821.661	194.39
821.839	266.07
822.017	157.52
822.195	149.33
822.373	235.35
822.551	167.76
822.729	233.3
822.907	204.63
823.085	241.49
823.262	169.81
823.44	167.76
823.618	196.43
823.796	198.48
823.974	190.29
824.152	151.38
824.329	206.67
824.507	255.83
824.685	167.76
824.863	132.95
825.04	225.11
825.218	130.9
825.396	173.91
825.574	223.06
825.751	165.71
825.929	126.8
826.107	143.19
826.284	153.43
826.462	135
826.639	163.67
826.817	180.05
826.994	180.05
827.172	91.99
827.349	167.76
827.527	167.76
827.704	180.05
827.882	194.39
828.059	126.8
828.237	167.76
828.414	198.48
828.591	153.43
828.769	210.77
828.946	130.9
829.124	210.77
829.301	96.08
829.478	114.52
829.655	79.7
829.833	157.52
830.01	67.41
830.187	114.52
830.364	34.64
830.542	89.94
830.719	85.84
830.896	151.38
831.073	159.57
831.25	122.71
831.427	100.18
831.604	147.28
831.782	139.09
831.959	169.81
832.136	178
832.313	171.86
832.49	167.76
832.667	118.61
832.844	85.84
833.021	175.95
833.198	79.7
833.374	135
833.551	143.19
833.728	141.14
833.905	175.95
834.082	77.65
834.259	155.47
834.436	253.78
834.612	96.08
834.789	77.65
834.966	126.8
835.143	184.15
835.319	137.04
835.496	149.33
835.673	94.04
835.85	227.15
836.026	175.95
836.203	204.63
836.38	46.93
836.556	57.17
836.733	114.52
836.909	100.18
837.086	171.86
837.262	63.32
837.439	130.9
837.616	141.14
837.792	122.71
837.968	137.04
838.145	96.08
838.321	118.61
838.498	67.41
838.674	124.76
838.851	42.84
839.027	57.17
839.203	51.03
839.38	130.9
839.556	114.52
839.732	102.23
839.909	91.99
840.085	151.38
840.261	89.94
840.437	96.08
840.614	75.6
840.79	75.6
840.966	151.38
841.142	73.56
841.318	149.33
841.494	132.95
841.671	77.65
841.847	96.08
842.023	135
842.199	132.95
842.375	198.48
842.551	128.85
842.727	12.12
842.903	98.13
843.079	106.32
843.255	151.38
843.431	61.27
843.607	61.27
843.783	87.89
843.959	85.84
844.134	55.12
844.31	165.71
844.486	77.65
844.662	63.32
844.838	40.79
845.013	98.13
845.189	124.76
845.365	135
845.541	126.8
845.716	190.29
845.892	96.08
846.068	100.18
846.244	143.19
846.419	67.41
846.595	81.75
846.77	85.84
846.946	130.9
847.122	91.99
847.297	59.22
847.473	24.4
847.648	10.07
847.824	100.18
847.999	30.55
848.175	44.88
848.35	106.32
848.526	65.36
848.701	67.41
848.876	75.6
849.052	20.31
849.227	106.32
849.403	124.76
849.578	118.61
849.753	63.32
849.929	104.28
850.104	24.4
850.279	67.41
850.454	100.18
850.63	87.89
850.805	114.52
850.98	61.27
851.155	14.17
851.33	159.57
851.505	98.13
851.681	69.46
851.856	85.84
852.031	73.56
852.206	135
852.381	94.04
852.556	116.56
852.731	61.27
852.906	-12.46
853.081	100.18
853.256	120.66
853.431	124.76
853.606	77.65
853.781	102.23
853.956	34.64
854.131	40.79
854.305	77.65
854.48	63.32
854.655	20.31
854.83	8.02
855.005	12.12
855.18	69.46
855.354	81.75
855.529	83.8
855.704	53.08
855.879	69.46
856.053	44.88
856.228	87.89
856.403	46.93
856.577	53.08
856.752	96.08
856.926	114.52
857.101	48.98
857.276	-45.23
857.45	65.36
857.625	135
857.799	77.65
857.974	69.46
858.148	44.88
858.323	75.6
858.497	-8.36
858.672	3.93
858.846	-2.22
859.02	116.56
859.195	51.03
859.369	48.98
859.543	89.94
859.718	1.88
859.892	44.88
860.066	163.67
860.241	91.99
860.415	40.79
860.589	126.8
860.763	141.14
860.938	53.08
861.112	94.04
861.286	32.6
861.46	120.66
861.634	89.94
861.808	91.99
861.982	65.36
862.157	65.36
862.331	61.27
862.505	-0.17
862.679	61.27
862.853	44.88
863.027	42.84
863.201	126.8
863.375	57.17
863.549	130.9
863.722	73.56
863.896	137.04
864.07	73.56
864.244	20.31
864.418	87.89
864.592	67.41
864.766	-28.84
864.939	94.04
865.113	91.99
865.287	98.13
865.461	51.03
865.634	81.75
865.808	8.02
865.982	98.13
866.156	126.8
866.329	40.79
866.503	104.28
866.676	120.66
866.85	85.84
867.024	73.56
867.197	8.02
867.371	38.74
867.544	-26.79
867.718	8.02
867.891	85.84
868.065	1.88
868.238	48.98
868.412	36.69
868.585	118.61
868.759	69.46
868.932	48.98
869.105	14.17
869.279	87.89
869.452	-12.46
869.625	40.79
869.799	8.02
869.972	30.55
870.145	36.69
870.319	116.56
870.492	53.08
870.665	20.31
870.838	40.79
871.011	-8.36
871.185	40.79
871.358	61.27
871.531	100.18
871.704	-0.17
871.877	75.6
872.05	14.17
872.223	-8.36
872.396	77.65
872.569	87.89
872.742	79.7
872.915	3.93
873.088	-14.51
873.261	36.69
873.434	1.88
873.607	73.56
873.78	34.64
873.953	59.22
874.126	135
874.299	1.88
874.471	20.31
874.644	40.79
874.817	94.04
874.99	81.75
875.163	20.31
875.335	87.89
875.508	57.17
875.681	73.56
875.853	36.69
876.026	57.17
876.199	42.84
876.371	51.03
876.544	46.93
876.717	-86.19
876.889	53.08
877.062	30.55
877.234	-6.31
877.407	48.98
877.579	53.08
877.752	28.5
877.924	69.46
878.097	48.98
878.269	51.03
878.442	26.45
878.614	57.17
878.786	-14.51
878.959	5.97
879.131	98.13
879.303	-20.65
879.476	94.04
879.648	1.88
879.82	59.22
879.993	75.6
880.165	69.46
880.337	-6.31
880.509	89.94
880.681	18.26
880.854	69.46
881.026	-28.84
881.198	46.93
881.37	-18.6
881.542	1.88
881.714	20.31
881.886	24.4
882.058	73.56
882.23	24.4
882.402	30.55
882.574	32.6
882.746	67.41
882.918	132.95
883.09	94.04
883.262	26.45
883.434	85.84
883.606	-12.46
883.778	22.36
883.95	12.12
884.122	8.02
884.293	67.41
884.465	-12.46
884.637	73.56
884.809	-8.36
884.98	120.66
885.152	38.74
885.324	42.84
885.496	-8.36
885.667	24.4
885.839	12.12
886.011	53.08
886.182	-12.46
886.354	59.22
886.525	-6.31
886.697	36.69
886.869	-20.65
887.04	38.74
887.212	81.75
887.383	61.27
887.555	36.69
887.726	24.4
887.897	102.23
888.069	8.02
888.24	59.22
888.412	26.45
888.583	-18.6
888.754	69.46
888.926	34.64
889.097	32.6
889.268	46.93
889.44	40.79
889.611	75.6
889.782	-2.22
889.953	14.17
890.125	104.28
890.296	32.6
890.467	-59.56
890.638	65.36
890.809	71.51
890.98	1.88
891.151	53.08
891.323	67.41
891.494	-57.51
891.665	69.46
891.836	-57.51
892.007	-12.46
892.178	1.88
892.349	-45.23
892.52	44.88
892.691	36.69
892.862	-2.22
893.032	18.26
893.203	61.27
893.374	8.02
893.545	10.07
893.716	55.12
893.887	38.74
894.057	28.5
894.228	53.08
894.399	-49.32
894.57	73.56
894.74	-45.23
894.911	89.94
895.082	-12.46
895.253	24.4
895.423	75.6
895.594	71.51
895.764	-12.46
895.935	38.74
896.106	67.41
896.276	55.12
896.447	8.02
896.617	-32.94
896.788	44.88
896.958	112.47
897.129	14.17
897.299	-41.13
897.47	5.97
897.64	36.69
897.81	-0.17
897.981	-18.6
898.151	-14.51
898.322	14.17
898.492	5.97
898.662	20.31
898.832	10.07
899.003	46.93
899.173	69.46
899.343	102.23
899.513	55.12
