Data from USB4F104151__148__10-26-38-965.txt Node

Date: Wed Mar 12 10:26:38 EDT 2025
User: louis
Spectrometer: USB4F10415
Trigger mode: 4
Integration Time (sec): 3.000000E-2
Scans to average: 1
Electric dark correction enabled: true
Nonlinearity correction enabled: false
Boxcar width: 0
XAxis mode: Wavelengths
Number of Pixels in Spectrum: 3648
>>>>>Begin Spectral Data<<<<<
178.204	-109.74
178.424	-109.74
178.644	-109.74
178.864	-95.4
179.084	-85.16
179.304	-38.06
179.524	-50.35
179.744	-5.29
179.964	4.95
180.184	-19.63
180.404	-13.48
180.624	15.19
180.844	-21.67
181.064	-9.39
181.283	58.2
181.503	15.19
181.723	64.34
181.943	-56.49
182.163	54.1
182.383	33.62
182.602	17.24
182.822	9.05
183.042	-3.24
183.262	-40.11
183.482	-33.96
183.701	35.67
183.921	15.19
184.141	-25.77
184.361	-27.82
184.58	-5.29
184.8	72.53
185.02	-5.29
185.239	-40.11
185.459	-25.77
185.679	27.48
185.898	39.76
186.118	-1.19
186.338	70.48
186.557	39.76
186.777	-42.15
186.997	19.29
187.216	33.62
187.436	43.86
187.655	-23.72
187.875	37.72
188.095	-13.48
188.314	97.11
188.534	-3.24
188.753	-54.44
188.973	31.57
189.192	35.67
189.412	-21.67
189.631	13.14
189.851	43.86
190.07	13.14
190.29	64.34
190.509	23.38
190.729	37.72
190.948	29.52
191.168	189.27
191.387	27.48
191.607	-7.34
191.826	-23.72
192.045	17.24
192.265	-13.48
192.484	56.15
192.704	50
192.923	-1.19
193.142	84.82
193.362	72.53
193.581	82.77
193.8	68.44
194.02	109.4
194.239	60.24
194.458	-36.01
194.678	-5.29
194.897	31.57
195.116	27.48
195.335	25.43
195.555	39.76
195.774	15.19
195.993	27.48
196.212	58.2
196.432	45.91
196.651	68.44
196.87	64.34
197.089	58.2
197.308	7
197.528	15.19
197.747	-29.87
197.966	13.14
198.185	2.9
198.404	15.19
198.623	60.24
198.842	7
199.062	25.43
199.281	93.01
199.5	-19.63
199.719	-7.34
199.938	50
200.157	33.62
200.376	86.87
200.595	93.01
200.814	50
201.033	50
201.252	93.01
201.471	4.95
201.69	76.63
201.909	76.63
202.128	41.81
202.347	35.67
202.566	43.86
202.785	23.38
203.004	39.76
203.223	-13.48
203.442	93.01
203.661	47.96
203.879	15.19
204.098	43.86
204.317	-52.39
204.536	43.86
204.755	56.15
204.974	123.73
205.193	37.72
205.411	21.33
205.63	35.67
205.849	58.2
206.068	-11.43
206.287	2.9
206.505	54.1
206.724	50
206.943	-13.48
207.162	35.67
207.381	43.86
207.599	23.38
207.818	35.67
208.037	60.24
208.255	-31.91
208.474	-17.58
208.693	29.52
208.911	27.48
209.13	76.63
209.349	70.48
209.567	39.76
209.786	15.19
210.005	74.58
210.223	33.62
210.442	-21.67
210.661	-7.34
210.879	56.15
211.098	-9.39
211.316	125.78
211.535	-1.19
211.753	15.19
211.972	72.53
212.191	7
212.409	25.43
212.628	31.57
212.846	-7.34
213.065	-13.48
213.283	88.92
213.502	60.24
213.72	-9.39
213.938	113.49
214.157	58.2
214.375	84.82
214.594	33.62
214.812	27.48
215.031	103.25
215.249	-21.67
215.467	25.43
215.686	19.29
215.904	11.09
216.122	66.39
216.341	117.59
216.559	23.38
216.778	21.33
216.996	41.81
217.214	31.57
217.432	60.24
217.651	47.96
217.869	52.05
218.087	23.38
218.306	23.38
218.524	25.43
218.742	68.44
218.96	76.63
219.179	31.57
219.397	25.43
219.615	74.58
219.833	-36.01
220.051	-7.34
220.27	50
220.488	58.2
220.706	66.39
220.924	7
221.142	31.57
221.36	4.95
221.578	52.05
221.796	50
222.015	-7.34
222.233	2.9
222.451	19.29
222.669	-19.63
222.887	19.29
223.105	-5.29
223.323	13.14
223.541	-29.87
223.759	43.86
223.977	66.39
224.195	148.31
224.413	60.24
224.631	15.19
224.849	-5.29
225.067	119.64
225.285	29.52
225.503	9.05
225.721	2.9
225.939	9.05
226.157	47.96
226.375	105.3
226.592	45.91
226.81	41.81
227.028	47.96
227.246	23.38
227.464	19.29
227.682	9.05
227.9	45.91
228.117	-5.29
228.335	125.78
228.553	60.24
228.771	0.85
228.989	33.62
229.206	33.62
229.424	-62.63
229.642	-3.24
229.86	52.05
230.077	84.82
230.295	9.05
230.513	90.96
230.731	17.24
230.948	88.92
231.166	45.91
231.384	74.58
231.601	13.14
231.819	107.35
232.037	-25.77
232.254	11.09
232.472	-9.39
232.689	41.81
232.907	54.1
233.125	37.72
233.342	47.96
233.56	-40.11
233.777	-15.53
233.995	131.92
234.213	43.86
234.43	82.77
234.648	29.52
234.865	39.76
235.083	60.24
235.3	52.05
235.518	45.91
235.735	80.72
235.953	39.76
236.17	35.67
236.388	113.49
236.605	-42.15
236.822	56.15
237.04	47.96
237.257	19.29
237.475	-7.34
237.692	52.05
237.909	-15.53
238.127	-17.58
238.344	125.78
238.562	7
238.779	0.85
238.996	-1.19
239.214	19.29
239.431	60.24
239.648	19.29
239.865	-5.29
240.083	50
240.3	66.39
240.517	11.09
240.735	127.83
240.952	90.96
241.169	90.96
241.386	-1.19
241.603	-7.34
241.821	-17.58
242.038	0.85
242.255	50
242.472	23.38
242.689	66.39
242.907	88.92
243.124	52.05
243.341	25.43
243.558	37.72
243.775	70.48
243.992	-50.35
244.209	86.87
244.426	129.88
244.643	90.96
244.86	-38.06
245.078	23.38
245.295	27.48
245.512	54.1
245.729	88.92
245.946	-21.67
246.163	0.85
246.38	72.53
246.597	15.19
246.814	39.76
247.031	93.01
247.248	29.52
247.464	27.48
247.681	11.09
247.898	-38.06
248.115	4.95
248.332	11.09
248.549	35.67
248.766	93.01
248.983	117.59
249.2	-11.43
249.417	76.63
249.633	-3.24
249.85	43.86
250.067	-40.11
250.284	-19.63
250.501	56.15
250.717	82.77
250.934	45.91
251.151	47.96
251.368	47.96
251.585	68.44
251.801	-9.39
252.018	21.33
252.235	15.19
252.451	4.95
252.668	105.3
252.885	2.9
253.102	70.48
253.318	31.57
253.535	62.29
253.752	2.9
253.968	-38.06
254.185	-5.29
254.401	68.44
254.618	21.33
254.835	21.33
255.051	-5.29
255.268	86.87
255.484	19.29
255.701	52.05
255.917	93.01
256.134	80.72
256.351	45.91
256.567	76.63
256.784	50
257	45.91
257.217	35.67
257.433	-42.15
257.65	76.63
257.866	88.92
258.082	39.76
258.299	-17.58
258.515	-5.29
258.732	27.48
258.948	23.38
259.165	97.11
259.381	-9.39
259.597	54.1
259.814	23.38
260.03	31.57
260.246	15.19
260.463	4.95
260.679	25.43
260.895	39.76
261.112	15.19
261.328	21.33
261.544	11.09
261.761	76.63
261.977	7
262.193	9.05
262.409	31.57
262.626	39.76
262.842	43.86
263.058	-50.35
263.274	68.44
263.49	2.9
263.707	60.24
263.923	43.86
264.139	74.58
264.355	78.68
264.571	113.49
264.787	-50.35
265.004	82.77
265.22	37.72
265.436	-19.63
265.652	-48.3
265.868	50
266.084	13.14
266.3	-1.19
266.516	-19.63
266.732	-52.39
266.948	78.68
267.164	74.58
267.38	2.9
267.596	68.44
267.812	97.11
268.028	33.62
268.244	-3.24
268.46	76.63
268.676	39.76
268.892	54.1
269.108	68.44
269.324	-19.63
269.54	-54.44
269.756	97.11
269.972	31.57
270.188	64.34
270.403	19.29
270.619	50
270.835	50
271.051	60.24
271.267	70.48
271.483	33.62
271.698	2.9
271.914	21.33
272.13	47.96
272.346	17.24
272.562	-13.48
272.777	115.54
272.993	60.24
273.209	-25.77
273.425	60.24
273.64	58.2
273.856	109.4
274.072	109.4
274.287	-15.53
274.503	43.86
274.719	17.24
274.934	13.14
275.15	21.33
275.366	-54.44
275.581	-66.73
275.797	23.38
276.012	47.96
276.228	11.09
276.444	66.39
276.659	31.57
276.875	27.48
277.09	11.09
277.306	-48.3
277.521	19.29
277.737	2.9
277.952	76.63
278.168	47.96
278.383	-11.43
278.599	62.29
278.814	39.76
279.03	19.29
279.245	105.3
279.461	-31.91
279.676	66.39
279.892	-19.63
280.107	-42.15
280.322	-46.25
280.538	76.63
280.753	29.52
280.969	80.72
281.184	-13.48
281.399	33.62
281.615	29.52
281.83	-21.67
282.045	27.48
282.26	-42.15
282.476	47.96
282.691	72.53
282.906	47.96
283.122	-25.77
283.337	4.95
283.552	105.3
283.767	43.86
283.983	90.96
284.198	33.62
284.413	66.39
284.628	-17.58
284.843	70.48
285.058	84.82
285.274	-15.53
285.489	29.52
285.704	47.96
285.919	64.34
286.134	39.76
286.349	-17.58
286.564	-21.67
286.779	58.2
286.995	82.77
287.21	19.29
287.425	33.62
287.64	74.58
287.855	29.52
288.07	31.57
288.285	52.05
288.5	99.16
288.715	64.34
288.93	-3.24
289.145	39.76
289.36	29.52
289.575	-15.53
289.79	-50.35
290.004	88.92
290.219	125.78
290.434	-17.58
290.649	0.85
290.864	4.95
291.079	-52.39
291.294	15.19
291.509	23.38
291.724	62.29
291.938	-3.24
292.153	76.63
292.368	86.87
292.583	39.76
292.798	66.39
293.012	-17.58
293.227	27.48
293.442	-46.25
293.657	74.58
293.871	62.29
294.086	56.15
294.301	82.77
294.516	99.16
294.73	50
294.945	31.57
295.16	56.15
295.374	97.11
295.589	60.24
295.804	-15.53
296.018	-46.25
296.233	54.1
296.447	82.77
296.662	45.91
296.877	66.39
297.091	99.16
297.306	121.68
297.52	35.67
297.735	78.68
297.949	33.62
298.164	37.72
298.378	78.68
298.593	4.95
298.807	0.85
299.022	29.52
299.236	72.53
299.451	-3.24
299.665	21.33
299.88	82.77
300.094	70.48
300.309	-9.39
300.523	-9.39
300.737	76.63
300.952	35.67
301.166	17.24
301.381	58.2
301.595	54.1
301.809	74.58
302.024	39.76
302.238	47.96
302.452	86.87
302.667	50
302.881	82.77
303.095	70.48
303.309	66.39
303.524	80.72
303.738	72.53
303.952	-38.06
304.166	39.76
304.381	0.85
304.595	39.76
304.809	27.48
305.023	4.95
305.237	39.76
305.452	35.67
305.666	31.57
305.88	-5.29
306.094	97.11
306.308	39.76
306.522	90.96
306.736	74.58
306.95	101.2
307.164	82.77
307.379	-9.39
307.593	84.82
307.807	41.81
308.021	84.82
308.235	121.68
308.449	17.24
308.663	43.86
308.877	119.64
309.091	90.96
309.305	66.39
309.519	64.34
309.733	29.52
309.947	-7.34
310.161	43.86
310.374	37.72
310.588	68.44
310.802	25.43
311.016	97.11
311.23	27.48
311.444	-29.87
311.658	17.24
311.872	39.76
312.085	62.29
312.299	72.53
312.513	13.14
312.727	52.05
312.941	41.81
313.154	56.15
313.368	31.57
313.582	72.53
313.796	47.96
314.009	60.24
314.223	29.52
314.437	101.2
314.651	68.44
314.864	58.2
315.078	2.9
315.292	9.05
315.505	-7.34
315.719	27.48
315.933	39.76
316.146	52.05
316.36	-56.49
316.573	9.05
316.787	27.48
317.001	90.96
317.214	-23.72
317.428	33.62
317.641	-9.39
317.855	13.14
318.068	-3.24
318.282	-25.77
318.495	80.72
318.709	23.38
318.922	23.38
319.136	31.57
319.349	45.91
319.563	52.05
319.776	82.77
319.99	-1.19
320.203	31.57
320.417	86.87
320.63	27.48
320.843	95.06
321.057	37.72
321.27	66.39
321.483	62.29
321.697	-66.73
321.91	105.3
322.124	27.48
322.337	-42.15
322.55	23.38
322.763	97.11
322.977	60.24
323.19	25.43
323.403	86.87
323.617	88.92
323.83	54.1
324.043	11.09
324.256	84.82
324.469	74.58
324.683	45.91
324.896	-17.58
325.109	47.96
325.322	54.1
325.535	70.48
325.748	31.57
325.962	50
326.175	43.86
326.388	54.1
326.601	80.72
326.814	9.05
327.027	25.43
327.24	52.05
327.453	19.29
327.666	50
327.879	86.87
328.092	101.2
328.305	56.15
328.518	-9.39
328.731	15.19
328.944	74.58
329.157	-3.24
329.37	4.95
329.583	4.95
329.796	72.53
330.009	56.15
330.222	72.53
330.435	82.77
330.648	97.11
330.861	23.38
331.073	58.2
331.286	17.24
331.499	56.15
331.712	-29.87
331.925	93.01
332.138	25.43
332.35	123.73
332.563	27.48
332.776	78.68
332.989	-46.25
333.202	115.54
333.414	70.48
333.627	68.44
333.84	43.86
334.053	45.91
334.265	4.95
334.478	50
334.691	-17.58
334.903	68.44
335.116	2.9
335.329	-5.29
335.541	60.24
335.754	58.2
335.966	15.19
336.179	80.72
336.392	4.95
336.604	2.9
336.817	115.54
337.029	86.87
337.242	43.86
337.454	86.87
337.667	39.76
337.88	93.01
338.092	35.67
338.305	82.77
338.517	35.67
338.729	97.11
338.942	131.92
339.154	43.86
339.367	-7.34
339.579	76.63
339.792	35.67
340.004	58.2
340.217	19.29
340.429	35.67
340.641	29.52
340.854	35.67
341.066	95.06
341.278	45.91
341.491	80.72
341.703	47.96
341.915	-7.34
342.128	105.3
342.34	-42.15
342.552	31.57
342.764	52.05
342.977	64.34
343.189	33.62
343.401	-1.19
343.613	-23.72
343.826	11.09
344.038	41.81
344.25	60.24
344.462	15.19
344.674	101.2
344.886	88.92
345.099	60.24
345.311	113.49
345.523	43.86
345.735	58.2
345.947	-1.19
346.159	39.76
346.371	50
346.583	25.43
346.795	72.53
347.007	105.3
347.219	90.96
347.431	31.57
347.643	119.64
347.855	19.29
348.067	23.38
348.279	-13.48
348.491	15.19
348.703	50
348.915	19.29
349.127	2.9
349.339	66.39
349.551	84.82
349.763	11.09
349.975	117.59
350.187	115.54
350.399	39.76
350.61	-25.77
350.822	31.57
351.034	43.86
351.246	105.3
351.458	-5.29
351.669	39.76
351.881	52.05
352.093	84.82
352.305	50
352.517	56.15
352.728	86.87
352.94	70.48
353.152	64.34
353.363	0.85
353.575	54.1
353.787	154.45
353.999	35.67
354.21	33.62
354.422	9.05
354.633	-17.58
354.845	56.15
355.057	93.01
355.268	90.96
355.48	33.62
355.692	9.05
355.903	-9.39
356.115	66.39
356.326	21.33
356.538	66.39
356.749	33.62
356.961	99.16
357.172	115.54
357.384	41.81
357.595	93.01
357.807	68.44
358.018	41.81
358.23	60.24
358.441	166.74
358.653	33.62
358.864	-54.44
359.075	-29.87
359.287	56.15
359.498	11.09
359.709	47.96
359.921	56.15
360.132	27.48
360.344	80.72
360.555	0.85
360.766	78.68
360.977	15.19
361.189	15.19
361.4	7
361.611	84.82
361.823	148.31
362.034	-1.19
362.245	33.62
362.456	37.72
362.667	115.54
362.879	39.76
363.09	39.76
363.301	74.58
363.512	21.33
363.723	15.19
363.935	2.9
364.146	62.29
364.357	45.91
364.568	82.77
364.779	-3.24
364.99	39.76
365.201	-5.29
365.412	15.19
365.623	66.39
365.834	11.09
366.045	29.52
366.256	25.43
366.467	47.96
366.678	97.11
366.889	101.2
367.1	52.05
367.311	60.24
367.522	101.2
367.733	31.57
367.944	80.72
368.155	68.44
368.366	64.34
368.577	66.39
368.788	62.29
368.999	58.2
369.209	88.92
369.42	131.92
369.631	68.44
369.842	29.52
370.053	23.38
370.264	66.39
370.474	2.9
370.685	35.67
370.896	109.4
371.107	142.16
371.317	99.16
371.528	50
371.739	76.63
371.95	45.91
372.16	58.2
372.371	35.67
372.582	45.91
372.792	35.67
373.003	111.44
373.214	-23.72
373.424	-7.34
373.635	35.67
373.846	125.78
374.056	47.96
374.267	47.96
374.477	68.44
374.688	101.2
374.898	33.62
375.109	66.39
375.319	-9.39
375.53	113.49
375.74	68.44
375.951	56.15
376.161	66.39
376.372	76.63
376.582	47.96
376.793	-13.48
377.003	43.86
377.214	31.57
377.424	37.72
377.635	56.15
377.845	-19.63
378.055	72.53
378.266	43.86
378.476	-5.29
378.686	50
378.897	25.43
379.107	37.72
379.317	19.29
379.528	58.2
379.738	95.06
379.948	84.82
380.158	9.05
380.369	62.29
380.579	-25.77
380.789	0.85
380.999	86.87
381.21	109.4
381.42	47.96
381.63	0.85
381.84	47.96
382.05	68.44
382.261	78.68
382.471	76.63
382.681	45.91
382.891	78.68
383.101	103.25
383.311	-11.43
383.521	-17.58
383.731	76.63
383.941	52.05
384.151	84.82
384.361	121.68
384.571	11.09
384.781	138.07
384.991	117.59
385.201	93.01
385.411	103.25
385.621	64.34
385.831	-1.19
386.041	35.67
386.251	41.81
386.461	29.52
386.671	27.48
386.881	35.67
387.091	95.06
387.301	72.53
387.511	47.96
387.72	107.35
387.93	-23.72
388.14	11.09
388.35	-1.19
388.56	97.11
388.769	45.91
388.979	72.53
389.189	52.05
389.399	90.96
389.609	76.63
389.818	140.12
390.028	152.4
390.238	45.91
390.447	17.24
390.657	90.96
390.867	47.96
391.076	86.87
391.286	105.3
391.496	39.76
391.705	35.67
391.915	111.44
392.125	93.01
392.334	64.34
392.544	70.48
392.753	133.97
392.963	97.11
393.172	84.82
393.382	86.87
393.591	156.5
393.801	107.35
394.01	142.16
394.22	140.12
394.429	93.01
394.639	105.3
394.848	39.76
395.058	76.63
395.267	66.39
395.477	138.07
395.686	107.35
395.895	80.72
396.105	105.3
396.314	72.53
396.524	121.68
396.733	56.15
396.942	144.21
397.152	140.12
397.361	95.06
397.57	117.59
397.78	90.96
397.989	115.54
398.198	150.36
398.407	58.2
398.617	66.39
398.826	84.82
399.035	56.15
399.244	129.88
399.453	125.78
399.663	148.31
399.872	133.97
400.081	105.3
400.29	119.64
400.499	148.31
400.708	107.35
400.917	121.68
401.127	90.96
401.336	158.55
401.545	148.31
401.754	88.92
401.963	138.07
402.172	181.07
402.381	170.83
402.59	133.97
402.799	125.78
403.008	136.02
403.217	82.77
403.426	82.77
403.635	148.31
403.844	107.35
404.053	127.83
404.262	191.31
404.471	281.43
404.68	115.54
404.888	138.07
405.097	215.89
405.306	140.12
405.515	207.7
405.724	213.84
405.933	252.75
406.142	273.23
406.35	226.13
406.559	199.51
406.768	179.03
406.977	306
407.185	170.83
407.394	166.74
407.603	228.18
407.812	248.66
408.02	279.38
408.229	207.7
408.438	293.71
408.646	176.98
408.855	310.1
409.064	324.43
409.272	361.3
409.481	303.95
409.69	269.14
409.898	365.39
410.107	351.06
410.315	349.01
410.524	316.24
410.733	334.67
410.941	351.06
411.15	377.68
411.358	437.07
411.567	418.64
411.775	492.37
411.984	443.21
412.192	432.97
412.401	502.61
412.609	500.56
412.818	566.09
413.026	539.47
413.234	592.72
413.443	510.8
413.651	533.33
413.86	723.79
414.068	666.44
414.276	705.35
414.485	666.44
414.693	729.93
414.901	777.03
415.11	729.93
415.318	820.04
415.526	883.53
415.734	875.34
415.943	912.2
416.151	908.1
416.359	893.77
416.567	979.78
416.776	938.82
416.984	1086.28
417.192	1051.46
417.4	1073.99
417.608	1100.61
417.817	1086.28
418.025	1241.92
418.233	1262.4
418.441	1319.75
418.649	1307.46
418.857	1268.55
419.065	1571.65
419.273	1424.19
419.481	1342.27
419.689	1549.12
419.897	1688.38
420.105	1602.36
420.313	1733.43
420.521	1764.15
420.729	1852.22
420.937	1858.36
421.145	2018.1
421.353	2048.82
421.561	2036.53
421.769	2173.75
421.977	2204.47
422.185	2149.17
422.393	2487.09
422.601	2403.12
422.809	2526
423.017	2540.33
423.224	2655.02
423.432	2769.71
423.64	2808.62
423.848	2911.02
424.056	2882.35
424.263	3136.29
424.471	3117.86
424.679	3236.64
424.887	3341.09
425.094	3504.93
425.302	3529.5
425.51	3638.05
425.718	3797.79
425.925	3826.46
426.133	3959.58
426.341	4156.18
426.548	4369.17
426.756	4289.3
426.964	4281.11
427.171	4569.87
427.379	4680.46
427.586	4764.43
427.794	4926.22
428.001	5178.12
428.209	5364.48
428.417	5458.69
428.624	5716.73
428.832	5690.11
429.039	5610.24
429.247	5620.48
429.454	6296.31
429.662	6685.42
429.869	6288.12
430.076	6636.27
430.284	6454
430.491	6732.53
430.699	7152.36
430.906	7084.78
431.114	7205.61
431.321	7383.78
431.528	7545.57
431.736	8116.95
431.943	8288.98
432.15	8202.97
432.358	8381.14
432.565	8706.77
432.772	8653.52
432.979	9128.65
433.187	9276.1
433.394	9376.45
433.601	10072.76
433.808	9980.61
434.016	9902.78
434.223	10439.35
434.43	10805.94
434.637	10701.49
434.844	11416.23
435.052	11565.73
435.259	11584.16
435.466	11741.86
435.673	11504.29
435.88	12360.34
436.087	12864.15
436.294	12925.58
436.501	12728.98
436.708	12937.87
436.915	13470.34
437.122	13980.29
437.329	14117.5
437.537	14326.39
437.743	14686.84
437.95	14377.59
438.157	15071.86
438.364	15508.07
438.571	15557.22
438.778	15833.7
438.985	17121.87
439.192	16540.25
439.399	17328.72
439.606	16876.12
439.813	17519.18
440.02	18606.65
440.227	18379.32
440.433	18401.85
440.64	18854.45
440.847	18647.61
441.054	18997.81
441.261	20363.81
441.467	20210.21
441.674	20410.91
441.881	21191.19
442.088	20871.7
442.294	21084.69
442.501	21729.8
442.708	21940.74
442.914	22913.53
443.121	23845.35
443.328	23134.71
443.534	24668.64
443.741	23929.32
443.948	23607.79
444.154	25758.16
444.361	25117.14
444.568	25582.03
444.774	25194.96
444.981	25696.72
445.187	26405.31
445.394	27439.54
445.6	26849.72
445.807	29759.89
446.013	28418.47
446.22	29118.87
446.426	30046.6
446.633	30382.47
446.839	31291.77
447.046	30144.91
447.252	31607.16
447.459	31977.84
447.665	31510.9
447.871	32661.86
448.078	34296.14
448.284	32604.52
448.491	33218.91
448.697	34799.94
448.903	35199.29
449.11	35565.88
449.316	34842.95
449.522	34971.97
449.728	36366.63
449.935	36397.35
450.141	36450.6
450.347	37429.53
450.553	35846.45
450.76	36708.65
450.966	37413.15
451.172	36935.97
451.378	37683.48
451.584	37574.94
451.791	38430.99
451.997	38310.16
452.203	38674.7
452.409	38768.9
452.615	38404.36
452.821	37376.28
453.027	36657.45
453.233	38476.04
453.44	36696.36
453.646	37337.37
453.852	37097.76
454.058	38232.33
454.264	36747.56
454.47	37806.36
454.676	36618.53
454.882	37830.93
455.088	34771.27
455.294	35178.81
455.5	35352.89
455.705	35920.18
455.911	34492.74
456.117	33741.14
456.323	33177.95
456.529	31390.07
456.735	32969.05
456.941	32121.2
457.147	31211.9
457.352	30470.53
457.558	29976.97
457.764	30185.86
457.97	29555.09
458.176	29010.33
458.381	28963.23
458.587	27546.03
458.793	27576.75
458.999	26407.36
459.204	28051.88
459.41	27156.92
459.616	25403.86
459.821	25498.06
460.027	25311.7
460.233	24707.55
460.438	23583.21
460.644	24078.82
460.85	22804.99
461.055	22405.63
461.261	22211.07
461.466	20660.76
461.672	20279.84
461.878	21821.96
462.083	20009.51
462.289	19753.51
462.494	19638.83
462.7	18983.48
462.905	18281.02
463.111	18772.53
463.316	18876.98
463.522	18604.6
463.727	18602.55
463.932	18651.7
464.138	18399.8
464.343	18534.97
464.549	17797.7
464.754	18594.36
464.959	18313.79
465.165	18379.32
465.37	17519.18
465.575	16790.1
465.781	17646.15
465.986	17541.71
466.191	17164.88
466.397	16788.05
466.602	15829.6
466.807	16632.41
467.012	16708.18
467.218	16466.52
467.423	16288.35
467.628	16646.74
467.833	17205.84
468.038	16353.88
468.244	16015.97
468.449	16460.38
468.654	16200.29
468.859	15776.36
469.064	15794.79
469.269	15553.13
469.474	15546.98
469.679	15587.94
469.885	15194.73
470.09	15399.53
470.295	15198.83
470.5	14991.98
470.705	14979.7
470.91	14486.14
471.115	14541.43
471.32	14797.43
471.525	14686.84
471.73	14269.05
471.935	14250.62
472.139	13609.61
472.344	13980.29
472.549	13533.83
472.754	13783.68
472.959	13445.77
473.164	13222.54
473.369	13013.65
473.574	13451.91
473.778	13296.27
473.983	13081.23
474.188	13259.4
474.393	12690.07
474.598	12487.32
474.802	12497.56
475.007	12294.81
475.212	12243.61
475.417	11997.85
475.621	11817.63
475.826	11905.7
476.031	11885.22
476.235	11584.16
476.44	11780.77
476.645	11500.2
476.849	11438.76
477.054	11287.21
477.259	11111.08
477.463	11336.36
477.668	10932.91
477.872	11018.93
478.077	11031.21
478.282	10531.51
478.486	10685.11
478.691	10631.86
478.895	10328.76
479.1	10504.89
479.304	10250.94
479.509	10169.02
479.713	10478.26
479.918	10046.14
480.122	10050.24
480.326	10113.72
480.531	10132.15
480.735	10003.13
480.94	10019.52
481.144	10177.21
481.348	9722.56
481.553	9734.85
481.757	9644.74
481.961	9693.89
482.166	9968.32
482.37	9779.9
482.574	9726.66
482.778	9652.93
482.983	9935.55
483.187	9622.21
483.391	9767.62
483.595	9675.46
483.8	9435.85
484.004	9753.28
484.208	9804.48
484.412	9689.79
484.616	9736.9
484.821	9689.79
485.025	9519.81
485.229	9765.57
485.433	9497.28
485.637	9706.18
485.841	9505.48
486.045	9630.4
486.249	9669.31
486.453	9700.03
486.657	9634.5
486.861	9861.82
487.065	9523.91
487.269	9714.37
487.473	9659.07
487.677	9730.75
487.881	9679.55
488.085	9530.05
488.289	9816.77
488.493	9650.88
488.697	9804.48
488.901	9624.26
489.105	9697.99
489.309	9659.07
489.512	9857.73
489.716	9734.85
489.92	9818.82
490.124	9571.01
490.328	9882.3
490.531	9800.38
490.735	10025.66
490.939	9870.01
491.143	9822.91
491.346	9999.04
491.55	9986.75
491.754	10027.71
491.958	10193.59
492.161	10189.5
492.365	10240.7
492.569	10144.44
492.772	10277.56
492.976	10304.18
493.18	10623.67
493.383	10357.43
493.587	10582.71
493.79	10566.32
493.994	10341.05
494.197	10705.59
494.401	10797.74
494.605	10857.14
494.808	10799.79
495.012	10980.01
495.215	10898.1
495.419	11260.59
495.622	11133.61
495.825	11492.01
496.029	11350.7
496.232	11659.94
496.436	11348.65
496.639	11526.82
496.843	11709.09
497.046	12094.11
497.249	12200.6
497.453	12092.06
497.656	12206.75
497.859	12198.56
498.063	12540.57
498.266	12864.15
498.469	12573.33
498.673	12794.51
498.876	12829.33
499.079	13232.78
499.282	13357.71
499.485	13560.45
499.689	13587.08
499.892	13492.87
500.095	13798.02
500.298	14180.99
500.501	13765.25
500.705	14420.6
500.908	14496.38
501.111	14664.31
501.314	14844.53
501.517	14809.72
501.72	15133.29
501.923	15065.71
502.126	15411.82
502.329	15620.71
502.532	16112.22
502.735	15811.17
502.938	16169.57
503.141	16192.09
503.344	16429.66
503.547	16591.45
503.75	16761.43
503.953	17119.82
504.156	17250.89
504.359	17281.61
504.562	17394.25
504.765	17992.26
504.968	18090.56
505.17	17982.02
505.373	18072.13
505.576	18672.18
505.779	18905.65
505.982	18928.18
506.185	19276.34
506.387	19331.63
506.59	19647.02
506.793	19886.63
506.996	19792.42
507.198	20230.69
507.401	20345.37
507.604	20482.59
507.807	21162.51
508.009	20910.61
508.212	21199.38
508.415	21387.79
508.617	21826.06
508.82	22051.33
509.022	21649.93
509.225	22514.17
509.428	22346.24
509.63	22675.96
509.833	22700.54
510.035	23249.39
510.238	23452.14
510.44	23648.75
510.643	23798.25
510.845	24138.21
511.048	23919.08
511.25	24447.46
511.453	24732.12
511.655	25420.24
511.858	25313.75
512.06	25557.46
512.262	25805.26
512.465	25645.52
512.667	26354.12
512.87	26499.52
513.072	26341.83
513.274	27105.72
513.477	27371.96
513.679	27324.85
513.881	27603.38
514.084	28361.12
514.286	27976.11
514.488	28316.07
514.69	29258.13
514.893	28914.08
515.095	29208.98
515.297	29534.61
515.499	29637.01
515.701	29966.73
515.904	30525.83
516.106	30296.46
516.308	30730.62
516.51	31144.31
516.712	31422.84
516.914	32039.28
517.116	31953.26
517.318	32342.38
517.52	32403.81
517.722	32635.24
517.925	33014.11
518.127	33718.61
518.329	33608.02
518.531	33352.02
518.733	34003.28
518.935	34617.67
519.136	34634.05
519.338	35457.34
519.54	35475.77
519.742	35729.72
519.944	35680.56
520.146	36247.85
520.348	36389.16
520.55	36497.7
520.752	36809
520.954	37544.22
521.155	37519.64
521.357	38111.5
521.559	38209.81
521.761	38588.68
521.963	38629.64
522.164	38852.87
522.366	39002.37
522.568	39395.58
522.77	39794.93
522.971	40179.95
523.173	40571.11
523.375	40751.34
523.576	40728.81
523.778	40831.21
523.98	41545.95
524.181	41169.12
524.383	41335.01
524.584	42002.64
524.786	41849.05
524.988	41791.7
525.189	42750.15
525.391	42737.87
525.592	42758.34
525.794	42739.91
525.995	42922.18
526.197	43317.44
526.398	43331.78
526.6	43684.03
526.801	44114.1
527.003	44314.8
527.204	44286.13
527.406	44505.26
527.607	44363.95
527.808	45191.33
528.01	44298.42
528.211	45002.92
528.412	45904.02
528.614	45445.28
528.815	45392.03
529.016	46151.83
529.218	45576.35
529.419	46047.38
529.62	45973.66
529.822	45928.6
530.023	46229.65
530.224	46188.69
530.425	45838.49
530.626	45777.05
530.828	45867.16
531.029	47054.98
531.23	46444.69
531.431	46532.75
531.632	46737.55
531.833	47126.66
532.035	46831.75
532.236	47515.78
532.437	47106.18
532.638	46846.09
532.839	47141
533.04	47296.64
533.241	46553.23
533.442	47739
533.643	47530.11
533.844	47222.92
534.045	47435.91
534.246	47427.71
534.447	47763.58
534.648	47724.67
534.849	47814.78
535.05	47102.09
535.251	47968.38
535.451	47659.13
535.652	47788.16
535.853	47616.13
536.054	47759.48
536.255	47839.36
536.456	47667.33
536.657	48294
536.857	47657.09
537.058	47632.51
537.259	47937.66
537.46	47911.03
537.66	47575.17
537.861	47765.63
538.062	47698.05
538.263	48101.5
538.463	47640.7
538.664	47892.6
538.865	47995
539.065	48058.49
539.266	47566.98
539.466	47997.05
539.667	47517.82
539.868	48234.61
540.068	47868.03
540.269	47544.45
540.469	47997.05
540.67	48009.34
540.87	48119.93
541.071	47573.12
541.271	48124.02
541.472	47923.32
541.672	47708.29
541.873	47487.1
542.073	47181.96
542.274	48238.71
542.474	47607.93
542.675	47519.87
542.875	47472.77
543.075	47612.03
543.276	47278.21
543.476	48035.96
543.676	47403.14
543.877	47990.91
544.077	47775.87
544.277	47681.66
544.478	47591.55
544.678	47812.73
544.878	47466.63
545.078	47665.28
545.279	47431.81
545.479	47566.98
545.679	47472.77
545.879	47265.92
546.079	47763.58
546.28	47138.95
546.48	47472.77
546.68	47925.37
546.88	47638.65
547.08	48021.62
547.28	47569.02
547.48	47089.8
547.68	47151.24
547.88	47526.02
548.081	47880.31
548.281	47050.89
548.481	47530.11
548.681	47528.06
548.881	47474.82
549.081	47253.64
549.28	47196.29
549.48	47718.53
549.68	47460.48
549.88	47870.07
550.08	47118.47
550.28	47497.34
550.48	46770.32
550.68	47620.22
550.88	47349.89
551.08	47417.47
551.279	47231.11
551.479	47009.93
551.679	47444.1
551.879	46923.91
552.079	46938.25
552.278	47091.85
552.478	47241.35
552.678	47028.36
552.878	47210.63
553.077	47200.39
553.277	46385.3
553.477	47716.48
553.676	47227.01
553.876	47136.9
554.076	46987.4
554.275	46626.96
554.475	46250.13
554.674	46903.43
554.874	46870.67
555.074	46782.6
555.273	46921.87
555.473	47020.17
555.672	46690.44
555.872	46418.07
556.071	46170.26
556.271	46768.27
556.47	46633.1
556.67	45897.88
556.869	46153.88
557.068	46717.07
557.268	46203.03
557.467	46188.69
557.667	46248.08
557.866	46522.51
558.065	46055.57
558.265	46125.21
558.464	46291.09
558.663	46764.17
558.863	45375.65
559.062	46516.37
559.261	45621.41
559.461	46039.19
559.66	44890.28
559.859	45328.55
560.058	45471.9
560.258	45529.25
560.457	45037.73
560.656	45568.16
560.855	45076.65
561.054	45760.67
561.253	44841.13
561.453	45187.24
561.652	45113.51
561.851	44929.19
562.05	44753.07
562.249	44470.45
562.448	44974.25
562.647	44705.96
562.846	44605.61
563.045	44345.52
563.244	44267.7
563.443	44462.25
563.642	43985.08
563.841	44107.96
564.04	43962.55
564.239	44550.32
564.438	43587.77
564.637	44148.92
564.836	43710.65
565.035	43415.74
565.234	43929.78
565.432	42969.29
565.631	42989.77
565.83	43557.05
566.029	42971.33
566.228	43126.98
566.427	43114.69
566.625	42727.63
566.824	42438.86
567.023	42977.48
567.222	42121.43
567.42	42651.85
567.619	42651.85
567.818	42127.57
568.016	42074.32
568.215	42328.27
568.414	42002.64
568.612	42377.42
568.811	41394.4
569.01	41861.33
569.208	41222.37
569.407	41910.49
569.605	41169.12
569.804	41619.67
570.002	40925.41
570.201	41054.43
570.4	41142.5
570.598	41259.23
570.797	40628.46
570.995	41013.48
571.193	40298.73
571.392	40634.6
571.59	40005.87
571.789	40466.67
571.987	40089.84
572.186	40419.56
572.384	39960.82
572.582	39993.59
572.781	40136.94
572.979	39563.51
573.177	39493.88
573.376	39620.86
573.574	39360.76
573.772	39778.55
573.971	39258.37
574.169	39072
574.367	38717.7
574.565	38940.93
574.763	38684.94
574.962	38902.02
575.16	38070.54
575.358	38275.34
575.556	38269.2
575.754	38736.13
575.952	37867.8
576.151	38533.39
576.349	37566.74
576.547	37828.88
576.745	38088.98
576.943	37802.26
577.141	37656.85
577.339	37847.32
577.537	37431.58
577.735	37630.23
577.933	37208.35
578.131	37589.27
578.329	36733.22
578.527	36940.07
578.725	36856.1
578.923	36690.21
579.121	36888.87
579.319	36483.37
579.516	36858.15
579.714	36573.48
579.912	36518.18
580.11	36026.67
580.308	36380.97
580.506	36231.47
580.704	35520.82
580.901	36153.65
581.099	36086.06
581.297	35668.28
581.495	35744.05
581.692	36000.05
581.89	35406.14
582.088	35819.83
582.285	35393.85
582.483	35434.81
582.681	34994.5
582.878	34969.92
583.076	34961.73
583.274	35377.47
583.471	34246.99
583.669	35236.16
583.866	34412.87
584.064	34603.33
584.262	33907.02
584.459	34402.63
584.657	34242.89
584.854	34326.86
585.052	33685.84
585.249	34242.89
585.447	33917.26
585.644	33567.06
585.841	33423.7
586.039	33861.97
586.236	33685.84
586.434	33147.23
586.631	33139.04
586.828	33270.11
587.026	33173.85
587.223	32948.57
587.42	33040.73
587.618	32813.41
587.815	32391.53
588.012	32541.03
588.21	32803.17
588.407	32891.23
588.604	32446.82
588.801	32211.31
588.999	32080.24
589.196	31979.89
589.393	31916.4
589.59	32055.66
589.787	31859.06
589.984	32014.7
590.182	31379.83
590.379	32059.76
590.576	31361.4
590.773	31809.9
590.97	30998.91
591.167	31324.54
591.364	31160.7
591.561	31246.71
591.758	30744.96
591.955	30953.85
592.152	30855.55
592.349	30493.06
592.546	30857.6
592.743	30617.99
592.94	30220.68
593.137	30570.88
593.334	30505.35
593.531	30044.55
593.727	30253.45
593.924	30413.19
594.121	29745.55
594.318	30062.99
594.515	29811.09
594.712	29933.96
594.908	29530.51
595.105	29780.37
595.302	29534.61
595.499	29706.64
595.696	29362.58
595.892	29245.85
596.089	29272.47
596.286	29706.64
596.482	29264.28
596.679	29127.06
596.876	29075.87
597.072	28678.56
597.269	28604.83
597.466	28330.41
597.662	28463.52
597.859	28561.83
598.055	28191.14
598.252	28111.27
598.448	28438.95
598.645	27974.06
598.841	27980.2
599.038	28098.98
599.234	27939.24
599.431	27474.35
599.627	27394.48
599.824	27945.39
600.02	27500.98
600.217	27464.11
600.413	27462.07
600.609	27140.54
600.806	27169.21
601.002	27351.48
601.198	26739.13
601.395	26749.37
601.591	26937.79
601.787	26628.54
601.984	26354.12
602.18	27011.51
602.376	26773.95
602.572	26530.24
602.769	26384.83
602.965	26073.54
603.161	26309.06
603.357	25856.46
603.553	26048.97
603.75	26085.83
603.946	25786.83
604.142	25901.51
604.338	25389.52
604.534	25569.74
604.73	25285.08
604.926	25532.88
605.122	25563.6
605.318	25600.46
605.514	25469.39
605.71	25154.01
605.906	25033.18
606.102	25207.25
606.298	25264.6
606.494	25256.4
606.69	24711.64
606.886	25125.33
607.082	24633.82
607.278	25223.64
607.474	24586.72
607.67	24926.68
607.866	24232.42
608.062	24748.51
608.257	24240.61
608.453	24599.01
608.649	24502.75
608.845	24138.21
609.041	24363.49
609.236	24097.25
609.432	24054.25
609.628	23941.61
609.824	23691.76
610.019	24164.84
610.215	23724.52
610.411	23904.74
610.606	23513.58
610.802	24027.62
610.998	23448.05
611.193	23980.52
611.389	23337.46
611.584	23534.06
611.78	23185.91
611.976	23474.67
612.171	23323.12
612.367	23597.55
612.562	23108.08
612.758	22583.8
612.953	22841.85
613.149	23290.35
613.344	22835.7
613.539	23347.7
613.735	22934.01
613.93	23134.71
614.126	22727.16
614.321	22821.37
614.517	22399.49
614.712	22698.49
614.907	22678.01
615.103	22764.03
615.298	22364.67
615.493	22649.34
615.688	22264.32
615.884	22680.06
616.079	22073.86
616.274	22698.49
616.47	22491.65
616.665	22237.7
616.86	22241.79
617.055	22118.92
617.25	22116.87
617.445	22319.62
617.641	21557.77
617.836	22141.44
618.031	21563.92
618.226	21707.27
618.421	21688.84
618.616	21838.34
618.811	21559.82
619.006	21715.47
619.201	21400.08
619.396	21410.32
619.591	21084.69
619.786	21461.52
619.981	20806.17
620.176	21068.31
620.371	20658.71
620.566	20662.81
620.761	20658.71
620.956	20763.16
621.151	20460.06
621.346	20589.08
621.541	20355.61
621.735	20458.01
621.93	20173.35
622.125	20167.2
622.32	19745.32
622.515	19759.66
622.709	19855.91
622.904	19706.41
623.099	19683.88
623.294	19638.83
623.488	19257.9
623.683	19282.48
623.878	19221.04
624.072	19266.1
624.267	18942.52
624.462	18805.3
624.656	18766.39
624.851	18770.49
625.046	18688.57
625.24	18481.72
625.435	18119.23
625.629	18438.72
625.824	18078.27
626.018	18233.92
626.213	17883.72
626.407	17979.97
626.602	17891.91
626.796	17959.49
626.991	17979.97
627.185	17564.23
627.38	17642.06
627.574	17209.93
627.768	17191.5
627.963	17115.73
628.157	16890.45
628.352	17261.13
628.546	16607.83
628.74	16730.71
628.935	16751.19
629.129	16648.79
629.323	16349.79
629.517	16265.82
629.712	16380.51
629.906	16464.47
630.1	15968.87
630.294	15995.49
630.489	15960.67
630.683	16069.22
630.877	16009.83
631.071	15960.67
631.265	15911.52
631.459	15700.58
631.653	15434.35
631.848	15340.14
632.042	15157.87
632.236	15493.74
632.43	14948.98
632.624	15180.4
632.818	15114.86
633.012	14897.78
633.206	14897.78
633.4	14914.16
633.594	14584.44
633.788	14631.54
633.982	14549.62
634.176	14525.05
634.369	14320.25
634.563	14561.91
634.757	14289.53
634.951	14436.99
635.145	14195.32
635.339	14201.47
635.533	13750.92
635.726	13830.79
635.92	13654.66
636.114	13945.47
636.308	13832.83
636.501	13742.72
636.695	13550.21
636.889	13460.1
637.083	13335.18
637.276	13253.26
637.47	13206.16
637.664	13116.05
637.857	13312.65
638.051	13064.85
638.244	12925.58
638.438	12948.11
638.632	12843.67
638.825	12673.68
639.019	12700.31
639.212	12608.15
639.406	12491.41
639.599	12350.1
639.793	12556.95
639.986	12225.18
640.18	12540.57
640.373	12243.61
640.567	12044.96
640.76	11975.33
640.954	11940.51
641.147	11848.35
641.34	11715.23
641.534	11709.09
641.727	11711.14
641.92	11659.94
642.114	11788.96
642.307	11549.35
642.5	11393.7
642.694	11266.73
642.887	11389.61
643.08	11520.68
643.273	11256.49
643.467	11184.81
643.66	11111.08
643.853	10883.76
644.046	11016.88
644.239	10949.29
644.432	10953.39
644.626	10670.77
644.819	10920.62
645.012	10775.22
645.205	10638
645.398	10705.59
645.591	10439.35
645.784	10396.34
645.977	10302.14
646.17	10408.63
646.363	10420.92
646.556	10115.77
646.749	10013.37
646.942	10097.34
647.135	10138.3
647.328	9953.98
647.521	9996.99
647.714	9874.11
647.907	9865.92
648.099	9886.4
648.292	9845.44
648.485	9675.46
648.678	9697.99
648.871	9556.68
649.064	9525.96
649.256	9585.35
649.449	9480.9
649.642	9421.51
649.835	9286.34
650.027	9171.66
650.22	9265.86
650.413	9263.82
650.605	9200.33
650.798	9089.74
650.991	9089.74
651.183	8973
651.376	8946.38
651.568	8911.57
651.761	8776.4
651.954	8948.43
652.146	8735.44
652.339	8745.68
652.531	8686.29
652.724	8518.36
652.916	8407.77
653.109	8549.07
653.301	8358.61
653.494	8585.94
653.686	8379.09
653.879	8444.63
654.071	8409.81
654.263	8260.31
654.456	8237.78
654.648	8032.99
654.84	7981.79
655.033	8176.34
655.225	8004.32
655.417	8141.53
655.61	7858.91
655.802	7811.81
655.994	7629.54
656.186	7936.73
656.379	7695.07
656.571	7803.61
656.763	7553.76
656.955	7676.64
657.148	7680.74
657.34	7695.07
657.532	7357.16
657.724	7451.36
657.916	7564
658.108	7639.78
658.3	7310.05
658.492	7416.55
658.684	7211.75
658.876	7246.57
659.068	7473.89
659.26	7138.02
659.452	7265
659.644	7072.49
659.836	7332.58
660.028	6998.76
660.22	7072.49
660.412	6918.89
660.604	6847.21
660.796	6869.74
660.988	6943.47
661.18	6710
661.372	6849.26
661.563	6773.49
661.755	6712.05
661.947	6720.24
662.139	6593.26
662.331	6687.47
662.522	6580.98
662.714	6652.66
662.906	6443.76
663.097	6537.97
663.289	6411
663.481	6367.99
663.673	6351.6
663.864	6118.14
664.056	6212.34
664.247	6267.64
664.439	6275.83
664.631	6277.88
664.822	6224.63
665.014	6083.32
665.205	6146.81
665.397	6118.14
665.588	6097.66
665.78	6081.27
665.971	6191.86
666.163	6130.42
666.354	6083.32
666.546	5907.2
666.737	5831.42
666.929	5671.68
667.12	5927.67
667.311	5860.09
667.503	5618.43
667.694	5708.54
667.885	5767.93
668.077	5638.91
668.268	5548.8
668.459	5620.48
668.651	5657.34
668.842	5638.91
669.033	5647.1
669.224	5393.16
669.416	5616.38
669.607	5411.59
669.798	5538.56
669.989	5614.34
670.18	5487.36
670.371	5421.83
670.563	5413.63
670.754	5325.57
670.945	5460.74
671.136	5497.6
671.327	5313.28
671.518	5311.24
671.709	5327.62
671.9	5350.15
672.091	5270.28
672.282	5131.02
672.473	5079.82
672.664	5208.84
672.855	5008.14
673.046	5153.54
673.237	5225.22
673.428	5124.87
673.619	5104.39
673.809	4940.55
674	5085.96
674.191	5081.86
674.382	5073.67
674.573	5143.3
674.764	5045
674.954	4969.23
675.145	4913.93
675.336	4977.42
675.527	5006.09
675.717	4954.89
675.908	4842.25
676.099	4905.74
676.289	4807.44
676.48	4897.55
676.671	4926.22
676.861	4821.77
677.052	4817.68
677.243	4719.37
677.433	4825.87
677.624	4801.29
677.814	4772.62
678.005	4768.52
678.195	4735.76
678.386	4840.2
678.576	4731.66
678.767	4836.11
678.957	4637.45
679.148	4844.3
679.338	4725.52
679.529	4596.5
679.719	4739.85
679.909	4741.9
680.1	4680.46
680.29	4655.89
680.481	4725.52
680.671	4737.81
680.861	4705.04
681.052	4498.19
681.242	4743.95
681.432	4789
681.622	4633.36
681.813	4584.21
682.003	4598.54
682.193	4643.6
682.383	4512.53
682.573	4633.36
682.764	4434.71
682.954	4526.86
683.144	4576.02
683.334	4428.56
683.524	4545.3
683.714	4746
683.904	4528.91
684.094	4573.97
684.284	4490
684.474	4498.19
684.664	4487.95
684.854	4434.71
685.044	4406.03
685.234	4354.83
685.424	4338.45
685.614	4586.26
685.804	4354.83
685.994	4455.19
686.184	4250.39
686.374	4383.51
686.564	4320.02
686.753	4369.17
686.943	4299.54
687.133	4207.38
687.323	4209.43
687.513	4211.48
687.702	4201.24
687.892	4131.61
688.082	4283.16
688.272	4188.95
688.461	4211.48
688.651	4211.48
688.841	4119.32
689.03	4111.13
689.22	4197.14
689.41	4215.57
689.599	4141.85
689.789	4147.99
689.979	4059.93
690.168	4043.54
690.358	3980.06
690.547	4004.63
690.737	4014.87
690.926	4006.68
691.116	3883.8
691.305	3951.39
691.495	3965.72
691.684	3937.05
691.874	3916.57
692.063	3826.46
692.252	3867.42
692.442	3824.41
692.631	3795.74
692.82	3939.1
693.01	3713.82
693.199	3787.55
693.388	3894.04
693.578	3834.65
693.767	3742.49
693.956	3785.5
694.146	3736.35
694.335	3648.29
694.524	3609.37
694.713	3681.05
694.902	3625.76
695.092	3746.59
695.281	3648.29
695.47	3588.89
695.659	3636
695.848	3636
696.037	3584.8
696.226	3742.49
696.415	3631.9
696.604	3765.02
696.793	3603.23
696.982	3717.92
697.171	3709.72
697.36	3652.38
697.549	3627.81
697.738	3562.27
697.927	3525.41
698.116	3601.18
698.305	3529.5
698.494	3629.85
698.683	3431.2
698.872	3533.6
699.061	3609.37
699.25	3582.75
699.438	3713.82
699.627	3640.09
699.816	3582.75
700.005	3529.5
700.193	3633.95
700.382	3552.03
700.571	3439.39
700.76	3416.87
700.948	3521.31
701.137	3463.97
701.326	3492.64
701.514	3435.3
701.703	3474.21
701.892	3521.31
702.08	3519.26
702.269	3492.64
702.457	3500.83
702.646	3537.7
702.834	3472.16
703.023	3488.54
703.212	3568.41
703.4	3468.06
703.589	3484.45
703.777	3537.7
703.965	3486.5
704.154	3478.3
704.342	3398.43
704.531	3574.56
704.719	3367.71
704.907	3443.49
705.096	3375.91
705.284	3476.26
705.472	3480.35
705.661	3386.15
705.849	3466.02
706.037	3521.31
706.226	3406.63
706.414	3486.5
706.602	3515.17
706.79	3449.63
706.979	3509.02
707.167	3390.24
707.355	3375.91
707.543	3498.78
707.731	3472.16
707.919	3549.98
708.107	3367.71
708.296	3447.58
708.484	3570.46
708.672	3545.89
708.86	3554.08
709.048	3478.3
709.236	3445.54
709.424	3584.8
709.612	3453.73
709.8	3470.11
709.988	3545.89
710.176	3523.36
710.364	3597.09
710.551	3459.87
710.739	3539.74
710.927	3373.86
711.115	3490.59
711.303	3486.5
711.491	3457.82
711.679	3416.87
711.866	3453.73
712.054	3670.81
712.242	3459.87
712.43	3572.51
712.617	3455.78
712.805	3480.35
712.993	3412.77
713.181	3347.23
713.368	3588.89
713.556	3410.72
713.744	3441.44
713.931	3470.11
714.119	3470.11
714.306	3298.08
714.494	3451.68
714.682	3457.82
714.869	3468.06
715.057	3566.37
715.244	3451.68
715.432	3443.49
715.619	3498.78
715.807	3492.64
715.994	3445.54
716.182	3404.58
716.369	3361.57
716.556	3492.64
716.744	3410.72
716.931	3377.95
717.119	3545.89
717.306	3349.28
717.493	3336.99
717.681	3406.63
717.868	3451.68
718.055	3341.09
718.242	3490.59
718.43	3429.15
718.617	3449.63
718.804	3478.3
718.991	3408.67
719.179	3447.58
719.366	3320.61
719.553	3418.91
719.74	3414.82
719.927	3474.21
720.114	3556.13
720.301	3445.54
720.488	3541.79
720.676	3441.44
720.863	3353.38
721.05	3631.9
721.237	3353.38
721.424	3336.99
721.611	3496.74
721.798	3468.06
721.985	3336.99
722.172	3353.38
722.358	3261.22
722.545	3332.9
722.732	3380
722.919	3443.49
723.106	3388.19
723.293	3332.9
723.48	3177.25
723.667	3427.11
723.853	3265.32
724.04	3392.29
724.227	3181.35
724.414	3351.33
724.6	3320.61
724.787	3310.37
724.974	3318.56
725.161	3322.66
725.347	3230.5
725.534	3330.85
725.72	3423.01
725.907	3293.99
726.094	3275.56
726.28	3246.88
726.467	3287.84
726.653	3255.08
726.84	3203.88
727.027	3275.56
727.213	3236.64
727.4	3291.94
727.586	3257.12
727.773	3234.6
727.959	3322.66
728.145	3390.24
728.332	3341.09
728.518	3255.08
728.705	3287.84
728.891	3339.04
729.077	3373.86
729.264	3296.04
729.45	3236.64
729.636	3261.22
729.823	3339.04
730.009	3214.12
730.195	3107.62
730.382	3298.08
730.568	3212.07
730.754	3097.38
730.94	3164.97
731.126	3189.54
731.313	3244.84
731.499	3279.65
731.685	3279.65
731.871	3156.77
732.057	3179.3
732.243	3191.59
732.429	3263.27
732.615	3173.16
732.801	3181.35
732.987	3228.45
733.173	3310.37
733.359	3169.06
733.545	3146.53
733.731	3218.21
733.917	3177.25
734.103	3234.6
734.289	3189.54
734.475	3031.85
734.661	3183.4
734.847	3183.4
735.033	3171.11
735.219	3076.9
735.404	3183.4
735.59	3085.09
735.776	2972.46
735.962	3142.44
736.148	3171.11
736.333	3087.14
736.519	3103.53
736.705	3115.81
736.89	3095.33
737.076	3162.92
737.262	2945.83
737.447	3025.7
737.633	3070.76
737.819	2988.84
738.004	3087.14
738.19	2988.84
738.375	3046.18
738.561	3085.09
738.747	3060.52
738.932	2929.45
739.118	3050.28
739.303	2917.16
739.489	2994.98
739.674	2878.25
739.859	2827.05
740.045	2870.06
740.23	3005.22
740.416	2829.1
740.601	2951.98
740.786	2886.44
740.972	2859.82
741.157	2849.58
741.342	2784.04
741.528	2792.23
741.713	2767.66
741.898	2771.76
742.084	2904.87
742.269	2738.99
742.454	2773.8
742.639	2777.9
742.824	2743.08
743.01	2812.71
743.195	2728.75
743.38	2745.13
743.565	2743.08
743.75	2706.22
743.935	2657.07
744.12	2808.62
744.305	2661.16
744.49	2657.07
744.675	2687.79
744.86	2671.4
745.045	2738.99
745.23	2536.24
745.415	2472.75
745.6	2655.02
745.785	2652.97
745.97	2609.97
746.155	2536.24
746.34	2620.21
746.525	2362.16
746.71	2501.42
746.895	2448.18
747.079	2534.19
747.264	2446.13
747.449	2448.18
747.634	2388.78
747.819	2442.03
748.003	2454.32
748.188	2335.54
748.373	2337.59
748.557	2366.26
748.742	2378.55
748.927	2310.96
749.111	2280.24
749.296	2233.14
749.481	2280.24
749.665	2220.85
749.85	2239.28
750.034	2384.69
750.219	2247.48
750.404	2222.9
750.588	2108.21
750.773	2190.13
750.957	2073.4
751.141	2151.22
751.326	2083.64
751.51	2038.58
751.695	1952.57
751.879	2009.91
752.064	2143.03
752.248	1995.57
752.432	2165.56
752.617	2024.25
752.801	2077.49
752.985	2007.86
753.17	1958.71
753.354	2014.01
753.538	1993.53
753.722	1895.22
753.907	1952.57
754.091	1856.31
754.275	1858.36
754.459	1887.03
754.643	1751.87
754.828	1772.35
755.012	1860.41
755.196	1837.88
755.38	1858.36
755.564	1860.41
755.748	1821.5
755.932	1770.3
756.116	1778.49
756.3	1641.28
756.484	1766.2
756.668	1850.17
756.852	1682.24
757.036	1633.08
757.22	1633.08
757.404	1684.28
757.588	1631.04
757.772	1696.57
757.956	1674.04
758.14	1604.41
758.323	1672
758.507	1581.89
758.691	1567.55
758.875	1573.69
759.059	1506.11
759.242	1471.29
759.426	1585.98
759.61	1563.45
759.794	1540.93
759.977	1614.65
760.161	1510.21
760.345	1598.27
760.528	1477.44
760.712	1393.47
760.895	1432.38
761.079	1487.68
761.263	1493.82
761.446	1452.86
761.63	1418.05
761.813	1411.9
761.997	1444.67
762.18	1454.91
762.364	1463.1
762.547	1440.58
762.731	1389.38
762.914	1440.58
763.098	1317.7
763.281	1315.65
763.464	1295.17
763.648	1317.7
763.831	1309.51
764.015	1309.51
764.198	1301.31
764.381	1403.71
764.564	1334.08
764.748	1375.04
764.931	1319.75
765.114	1260.35
765.297	1295.17
765.481	1223.49
765.664	1309.51
765.847	1311.55
766.03	1370.94
766.213	1272.64
766.397	1227.59
766.58	1231.68
766.763	1239.87
766.946	1248.07
767.129	1149.76
767.312	1192.77
767.495	1188.68
767.678	1157.96
767.861	1340.22
768.044	1243.97
768.227	1180.48
768.41	1131.33
768.593	1190.72
768.776	1100.61
768.959	1194.82
769.142	1186.63
769.324	1110.85
769.507	1067.85
769.69	1088.32
769.873	1198.92
770.056	1248.07
770.239	1203.01
770.421	1186.63
770.604	1086.28
770.787	1080.13
770.97	1139.52
771.152	1119.04
771.335	1155.91
771.518	1086.28
771.7	1069.89
771.883	1121.09
772.066	1104.71
772.248	987.97
772.431	1076.04
772.613	1010.5
772.796	1026.89
772.978	1047.37
773.161	1112.9
773.343	1016.65
773.526	973.64
773.708	1047.37
773.891	1026.89
774.073	1170.24
774.256	953.16
774.438	1047.37
774.621	969.54
774.803	934.73
774.985	918.34
775.168	969.54
775.35	942.92
775.532	897.86
775.715	922.44
775.897	836.42
776.079	924.49
776.261	867.14
776.444	920.39
776.626	871.24
776.808	861
776.99	848.71
777.173	895.82
777.355	893.77
777.537	723.79
777.719	828.23
777.901	928.58
778.083	830.28
778.265	764.75
778.447	822.09
778.629	803.66
778.811	791.37
778.993	801.61
779.175	813.9
779.357	797.51
779.539	785.23
779.721	756.55
779.903	785.23
780.085	746.31
780.267	711.5
780.449	648.01
780.631	770.89
780.812	645.96
780.994	805.71
781.176	711.5
781.358	705.35
781.54	746.31
781.721	760.65
781.903	711.5
782.085	729.93
782.267	727.88
782.448	586.57
782.63	697.16
782.812	668.49
782.993	686.92
783.175	688.97
783.357	592.72
783.538	680.78
783.72	605
783.901	602.96
784.083	598.86
784.264	623.44
784.446	592.72
784.627	529.23
784.809	607.05
784.99	621.39
785.172	543.57
785.353	562
785.535	609.1
785.716	592.72
785.897	584.52
786.079	504.65
786.26	582.48
786.441	658.25
786.623	469.84
786.804	596.81
786.985	566.09
787.167	568.14
787.348	498.51
787.529	512.85
787.71	621.39
787.891	582.48
788.073	543.57
788.254	473.93
788.435	574.28
788.616	553.8
788.797	490.32
788.978	549.71
789.159	508.75
789.34	455.5
789.522	400.21
789.703	453.45
789.884	506.7
790.065	422.73
790.246	504.65
790.427	490.32
790.607	506.7
790.788	496.46
790.969	465.74
791.15	506.7
791.331	475.98
791.512	471.89
791.693	457.55
791.874	402.26
792.054	437.07
792.235	478.03
792.416	451.41
792.597	355.15
792.778	410.45
792.958	508.75
793.139	437.07
793.32	486.22
793.5	375.63
793.681	355.15
793.862	375.63
794.042	367.44
794.223	367.44
794.404	432.97
794.584	387.92
794.765	426.83
794.945	361.3
795.126	377.68
795.306	396.11
795.487	392.02
795.667	326.48
795.848	398.16
796.028	299.86
796.209	392.02
796.389	412.5
796.57	338.77
796.75	367.44
796.93	322.38
797.111	365.39
797.291	318.29
797.471	303.95
797.652	326.48
797.832	297.81
798.012	379.73
798.192	314.19
798.373	306
798.553	306
798.733	330.58
798.913	310.1
799.093	344.91
799.274	351.06
799.454	361.3
799.634	353.1
799.814	318.29
799.994	342.86
800.174	344.91
800.354	338.77
800.534	371.54
800.714	271.19
800.894	299.86
801.074	328.53
801.254	283.47
801.434	277.33
801.614	324.43
801.794	258.9
801.974	781.13
802.154	252.75
802.334	346.96
802.514	306
802.693	293.71
802.873	308.05
803.053	338.77
803.233	340.82
803.413	203.6
803.592	267.09
803.772	306
803.952	244.56
804.131	215.89
804.311	273.23
804.491	338.77
804.67	256.85
804.85	215.89
805.03	320.34
805.209	287.57
805.389	269.14
805.568	285.52
805.748	236.37
805.928	244.56
806.107	353.1
806.287	269.14
806.466	291.66
806.646	293.71
806.825	283.47
807.004	271.19
807.184	277.33
807.363	301.9
807.543	258.9
807.722	250.71
807.901	232.27
808.081	248.66
808.26	142.16
808.439	299.86
808.619	219.99
808.798	238.42
808.977	217.94
809.156	301.9
809.336	279.38
809.515	248.66
809.694	195.41
809.873	215.89
810.052	275.28
810.231	138.07
810.411	232.27
810.59	215.89
810.769	172.88
810.948	203.6
811.127	183.12
811.306	211.79
811.485	256.85
811.664	303.95
811.843	207.7
812.022	240.47
812.201	193.36
812.38	219.99
812.559	215.89
812.737	199.51
812.916	230.23
813.095	260.95
813.274	174.93
813.453	228.18
813.632	131.92
813.811	228.18
813.989	152.4
814.168	209.75
814.347	146.26
814.526	199.51
814.704	281.43
814.883	306
815.062	187.22
815.24	199.51
815.419	148.31
815.598	260.95
815.776	125.78
815.955	205.65
816.133	123.73
816.312	205.65
816.49	193.36
816.669	148.31
816.847	109.4
817.026	187.22
817.204	166.74
817.383	179.03
817.561	117.59
817.74	187.22
817.918	260.95
818.097	158.55
818.275	144.21
818.453	219.99
818.632	156.5
818.81	160.59
818.988	181.07
819.167	162.64
819.345	158.55
819.523	176.98
819.701	111.44
819.879	232.27
820.058	142.16
820.236	111.44
820.414	170.83
820.592	183.12
820.77	174.93
820.948	162.64
821.127	142.16
821.305	246.61
821.483	142.16
821.661	217.94
821.839	162.64
822.017	152.4
822.195	93.01
822.373	238.42
822.551	131.92
822.729	179.03
822.907	183.12
823.085	109.4
823.262	119.64
823.44	125.78
823.618	90.96
823.796	86.87
823.974	119.64
824.152	39.76
824.329	117.59
824.507	101.2
824.685	183.12
824.863	197.46
825.04	127.83
825.218	99.16
825.396	199.51
825.574	142.16
825.751	78.68
825.929	107.35
826.107	129.88
826.284	160.59
826.462	133.97
826.639	90.96
826.817	23.38
826.994	193.36
827.172	84.82
827.349	144.21
827.527	156.5
827.704	99.16
827.882	172.88
828.059	158.55
828.237	117.59
828.414	138.07
828.591	50
828.769	109.4
828.946	109.4
829.124	80.72
829.301	95.06
829.478	56.15
829.655	101.2
829.833	123.73
830.01	0.85
830.187	109.4
830.364	152.4
830.542	107.35
830.719	174.93
830.896	140.12
831.073	103.25
831.25	109.4
831.427	131.92
831.604	146.26
831.782	150.36
831.959	150.36
832.136	58.2
832.313	125.78
832.49	88.92
832.667	158.55
832.844	88.92
833.021	146.26
833.198	80.72
833.374	138.07
833.551	60.24
833.728	95.06
833.905	86.87
834.082	50
834.259	68.44
834.436	154.45
834.612	41.81
834.789	66.39
834.966	168.79
835.143	101.2
835.319	9.05
835.496	62.29
835.673	138.07
835.85	189.27
836.026	115.54
836.203	133.97
836.38	52.05
836.556	76.63
836.733	105.3
836.909	162.64
837.086	117.59
837.262	41.81
837.439	164.69
837.616	97.11
837.792	80.72
837.968	101.2
838.145	58.2
838.321	99.16
838.498	43.86
838.674	88.92
838.851	56.15
839.027	93.01
839.203	121.68
839.38	113.49
839.556	31.57
839.732	125.78
839.909	11.09
840.085	74.58
840.261	27.48
840.437	172.88
840.614	68.44
840.79	107.35
840.966	64.34
841.142	86.87
841.318	111.44
841.494	39.76
841.671	64.34
841.847	41.81
842.023	-29.87
842.199	84.82
842.375	86.87
842.551	-21.67
842.727	43.86
842.903	156.5
843.079	-15.53
843.255	111.44
843.431	93.01
843.607	93.01
843.783	37.72
843.959	60.24
844.134	54.1
844.31	146.26
844.486	11.09
844.662	127.83
844.838	58.2
845.013	68.44
845.189	19.29
845.365	19.29
845.541	84.82
845.716	35.67
845.892	58.2
846.068	33.62
846.244	23.38
846.419	31.57
846.595	-13.48
846.77	-3.24
846.946	39.76
847.122	35.67
847.297	15.19
847.473	80.72
847.648	90.96
847.824	70.48
847.999	21.33
848.175	72.53
848.35	117.59
848.526	115.54
848.701	115.54
848.876	68.44
849.052	52.05
849.227	45.91
849.403	52.05
849.578	35.67
849.753	31.57
849.929	90.96
850.104	-5.29
850.279	66.39
850.454	43.86
850.63	127.83
850.805	74.58
850.98	23.38
851.155	117.59
851.33	105.3
851.505	97.11
851.681	56.15
851.856	64.34
852.031	97.11
852.206	86.87
852.381	19.29
852.556	47.96
852.731	-15.53
852.906	64.34
853.081	21.33
853.256	93.01
853.431	-5.29
853.606	41.81
853.781	7
853.956	-25.77
854.131	95.06
854.305	-15.53
854.48	29.52
854.655	66.39
854.83	41.81
855.005	41.81
855.18	95.06
855.354	66.39
855.529	33.62
855.704	45.91
855.879	27.48
856.053	74.58
856.228	97.11
856.403	11.09
856.577	107.35
856.752	47.96
856.926	50
857.101	56.15
857.276	19.29
857.45	78.68
857.625	4.95
857.799	13.14
857.974	-36.01
858.148	19.29
858.323	68.44
858.497	13.14
858.672	-7.34
858.846	39.76
859.02	23.38
859.195	11.09
859.369	93.01
859.543	37.72
859.718	7
859.892	76.63
860.066	-15.53
860.241	-15.53
860.415	4.95
860.589	9.05
860.763	25.43
860.938	41.81
861.112	64.34
861.286	13.14
861.46	-23.72
861.634	39.76
861.808	90.96
861.982	41.81
862.157	66.39
862.331	2.9
862.505	33.62
862.679	7
862.853	11.09
863.027	60.24
863.201	72.53
863.375	19.29
863.549	52.05
863.722	50
863.896	35.67
864.07	4.95
864.244	15.19
864.418	19.29
864.592	97.11
864.766	-19.63
864.939	23.38
865.113	-13.48
865.287	21.33
865.461	43.86
865.634	52.05
865.808	19.29
865.982	-25.77
866.156	-5.29
866.329	27.48
866.503	-9.39
866.676	-38.06
866.85	68.44
867.024	37.72
867.197	84.82
867.371	50
867.544	-36.01
867.718	15.19
867.891	-5.29
868.065	-5.29
868.238	13.14
868.412	41.81
868.585	47.96
868.759	45.91
868.932	-31.91
869.105	19.29
869.279	84.82
869.452	4.95
869.625	27.48
869.799	-50.35
869.972	-38.06
870.145	-23.72
870.319	15.19
870.492	-9.39
870.665	11.09
870.838	-21.67
871.011	-36.01
871.185	19.29
871.358	-19.63
871.531	50
871.704	-52.39
871.877	66.39
872.05	-21.67
872.223	54.1
872.396	66.39
872.569	9.05
872.742	-38.06
872.915	35.67
873.088	-56.49
873.261	31.57
873.434	15.19
873.607	-21.67
873.78	27.48
873.953	-13.48
874.126	-11.43
874.299	43.86
874.471	107.35
874.644	50
874.817	15.19
874.99	80.72
875.163	35.67
875.335	21.33
875.508	23.38
875.681	4.95
875.853	-21.67
876.026	25.43
876.199	66.39
876.371	19.29
876.544	-52.39
876.717	11.09
876.889	-25.77
877.062	-5.29
877.234	7
877.407	11.09
877.579	17.24
877.752	33.62
877.924	17.24
878.097	45.91
878.269	-31.91
878.442	7
878.614	-38.06
878.786	17.24
878.959	68.44
879.131	56.15
879.303	56.15
879.476	43.86
879.648	19.29
879.82	4.95
879.993	74.58
880.165	88.92
880.337	-29.87
880.509	-9.39
880.681	-29.87
880.854	29.52
881.026	27.48
881.198	158.55
881.37	43.86
881.542	23.38
881.714	68.44
881.886	-9.39
882.058	-62.63
882.23	66.39
882.402	-19.63
882.574	27.48
882.746	-31.91
882.918	99.16
883.09	33.62
883.262	17.24
883.434	60.24
883.606	9.05
883.778	7
883.95	39.76
884.122	-17.58
884.293	21.33
884.465	-19.63
884.637	90.96
884.809	33.62
884.98	88.92
885.152	31.57
885.324	105.3
885.496	-29.87
885.667	39.76
885.839	-15.53
886.011	111.44
886.182	27.48
886.354	-60.59
886.525	35.67
886.697	78.68
886.869	17.24
887.04	78.68
887.212	23.38
887.383	52.05
887.555	-23.72
887.726	-19.63
887.897	2.9
888.069	-46.25
888.24	105.3
888.412	-62.63
888.583	-5.29
888.754	9.05
888.926	19.29
889.097	-9.39
889.268	37.72
889.44	-5.29
889.611	-9.39
889.782	39.76
889.953	2.9
890.125	17.24
890.296	-56.49
890.467	-11.43
890.638	39.76
890.809	17.24
890.98	2.9
891.151	39.76
891.323	2.9
891.494	37.72
891.665	-25.77
891.836	15.19
892.007	-27.82
892.178	39.76
892.349	43.86
892.52	17.24
892.691	2.9
892.862	17.24
893.032	-54.44
893.203	-44.2
893.374	-62.63
893.545	9.05
893.716	-33.96
893.887	31.57
894.057	31.57
894.228	64.34
894.399	25.43
894.57	37.72
894.74	-5.29
894.911	9.05
895.082	-17.58
895.253	-1.19
895.423	-38.06
895.594	27.48
895.764	37.72
895.935	35.67
896.106	-29.87
896.276	-31.91
896.447	-1.19
896.617	21.33
896.788	-56.49
896.958	-5.29
897.129	7
897.299	72.53
897.47	64.34
897.64	60.24
897.81	0.85
897.981	-9.39
898.151	-9.39
898.322	9.05
898.492	15.19
898.662	-5.29
898.832	-38.06
899.003	50
899.173	-44.2
899.343	2.9
899.513	-38.06
