Data from USB4F104151__235__10-30-26-850.txt Node

Date: Wed Mar 12 10:30:26 EDT 2025
User: louis
Spectrometer: USB4F10415
Trigger mode: 4
Integration Time (sec): 3.000000E-2
Scans to average: 1
Electric dark correction enabled: true
Nonlinearity correction enabled: false
Boxcar width: 0
XAxis mode: Wavelengths
Number of Pixels in Spectrum: 3648
>>>>>Begin Spectral Data<<<<<
178.204	-110.25
178.424	-110.25
178.644	-110.25
178.864	-124.58
179.084	-89.77
179.304	43.35
179.524	-38.57
179.744	18.77
179.964	29.01
180.184	2.39
180.404	-30.38
180.624	-9.9
180.844	16.73
181.064	29.01
181.283	-50.86
181.503	-26.28
181.723	16.73
181.943	8.53
182.163	45.4
182.383	20.82
182.602	18.77
182.822	86.36
183.042	45.4
183.262	-46.76
183.482	-9.9
183.701	12.63
183.921	6.49
184.141	-32.43
184.361	94.55
184.58	110.93
184.8	78.16
185.02	37.2
185.239	139.6
185.459	35.16
185.679	149.84
185.898	41.3
186.118	43.35
186.338	100.69
186.557	72.02
186.777	88.4
186.997	49.49
187.216	51.54
187.436	88.4
187.655	53.59
187.875	160.08
188.095	121.17
188.314	37.2
188.534	41.3
188.753	-3.75
188.973	24.92
189.192	76.12
189.412	92.5
189.631	90.45
189.851	82.26
190.07	47.44
190.29	22.87
190.509	119.12
190.729	112.98
190.948	69.97
191.168	115.03
191.387	86.36
191.607	14.68
191.826	-24.23
192.045	69.97
192.265	94.55
192.484	18.77
192.704	-18.09
192.923	-7.85
193.142	115.03
193.362	90.45
193.581	119.12
193.8	121.17
194.02	108.88
194.239	51.54
194.458	53.59
194.678	80.21
194.897	80.21
195.116	2.39
195.335	51.54
195.555	2.39
195.774	57.68
195.993	94.55
196.212	41.3
196.432	43.35
196.651	-26.28
196.87	16.73
197.089	102.74
197.308	117.08
197.528	129.36
197.747	0.34
197.966	14.68
198.185	78.16
198.404	53.59
198.623	51.54
198.842	86.36
199.062	98.64
199.281	94.55
199.5	41.3
199.719	121.17
199.938	131.41
200.157	45.4
200.376	96.6
200.595	45.4
200.814	6.49
201.033	-1.71
201.252	67.92
201.471	82.26
201.69	82.26
201.909	24.92
202.128	108.88
202.347	90.45
202.566	47.44
202.785	57.68
203.004	94.55
203.223	90.45
203.442	39.25
203.661	49.49
203.879	98.64
204.098	57.68
204.317	14.68
204.536	69.97
204.755	4.44
204.974	84.31
205.193	18.77
205.411	133.46
205.63	-7.85
205.849	57.68
206.068	57.68
206.287	-26.28
206.505	55.64
206.724	61.78
206.943	86.36
207.162	74.07
207.381	8.53
207.599	-26.28
207.818	33.11
208.037	33.11
208.255	24.92
208.474	33.11
208.693	47.44
208.911	112.98
209.13	115.03
209.349	86.36
209.567	86.36
209.786	33.11
210.005	45.4
210.223	94.55
210.442	51.54
210.661	82.26
210.879	127.32
211.098	6.49
211.316	78.16
211.535	43.35
211.753	49.49
211.972	65.88
212.191	26.96
212.409	74.07
212.628	6.49
212.846	-34.47
213.065	41.3
213.283	61.78
213.502	-30.38
213.72	82.26
213.938	102.74
214.157	20.82
214.375	78.16
214.594	47.44
214.812	24.92
215.031	106.84
215.249	4.44
215.467	2.39
215.686	94.55
215.904	37.2
216.122	49.49
216.341	106.84
216.559	4.44
216.778	59.73
216.996	74.07
217.214	78.16
217.432	45.4
217.651	41.3
217.869	47.44
218.087	12.63
218.306	61.78
218.524	45.4
218.742	35.16
218.96	104.79
219.179	67.92
219.397	59.73
219.615	137.56
219.833	76.12
220.051	94.55
220.27	55.64
220.488	121.17
220.706	57.68
220.924	86.36
221.142	39.25
221.36	35.16
221.578	24.92
221.796	39.25
222.015	29.01
222.233	69.97
222.451	57.68
222.669	18.77
222.887	39.25
223.105	33.11
223.323	74.07
223.541	90.45
223.759	86.36
223.977	98.64
224.195	110.93
224.413	22.87
224.631	49.49
224.849	90.45
225.067	139.6
225.285	-32.43
225.503	61.78
225.721	41.3
225.939	102.74
226.157	57.68
226.375	174.42
226.592	39.25
226.81	-5.8
227.028	63.83
227.246	119.12
227.464	121.17
227.682	55.64
227.9	-28.33
228.117	92.5
228.335	35.16
228.553	61.78
228.771	100.69
228.989	29.01
229.206	41.3
229.424	100.69
229.642	96.6
229.86	72.02
230.077	39.25
230.295	98.64
230.513	88.4
230.731	141.65
230.948	125.27
231.166	18.77
231.384	69.97
231.601	119.12
231.819	8.53
232.037	49.49
232.254	0.34
232.472	127.32
232.689	26.96
232.907	90.45
233.125	24.92
233.342	119.12
233.56	51.54
233.777	65.88
233.995	45.4
234.213	80.21
234.43	65.88
234.648	90.45
234.865	8.53
235.083	45.4
235.3	80.21
235.518	53.59
235.735	33.11
235.953	151.89
236.17	123.22
236.388	72.02
236.605	35.16
236.822	84.31
237.04	69.97
237.257	45.4
237.475	55.64
237.692	59.73
237.909	98.64
238.127	45.4
238.344	80.21
238.562	31.06
238.779	82.26
238.996	-3.75
239.214	-3.75
239.431	49.49
239.648	69.97
239.865	18.77
240.083	16.73
240.3	24.92
240.517	49.49
240.735	110.93
240.952	147.8
241.169	35.16
241.386	82.26
241.603	63.83
241.821	-13.99
242.038	6.49
242.255	80.21
242.472	57.68
242.689	96.6
242.907	78.16
243.124	69.97
243.341	82.26
243.558	108.88
243.775	63.83
243.992	-36.52
244.209	88.4
244.426	94.55
244.643	166.23
244.86	55.64
245.078	90.45
245.295	24.92
245.512	39.25
245.729	59.73
245.946	-22.19
246.163	8.53
246.38	133.46
246.597	65.88
246.814	74.07
247.031	72.02
247.248	72.02
247.464	35.16
247.681	123.22
247.898	33.11
248.115	127.32
248.332	37.2
248.549	139.6
248.766	106.84
248.983	90.45
249.2	18.77
249.417	108.88
249.633	67.92
249.85	45.4
250.067	49.49
250.284	110.93
250.501	33.11
250.717	86.36
250.934	6.49
251.151	55.64
251.368	72.02
251.585	69.97
251.801	98.64
252.018	-7.85
252.235	115.03
252.451	24.92
252.668	65.88
252.885	31.06
253.102	49.49
253.318	8.53
253.535	65.88
253.752	72.02
253.968	43.35
254.185	0.34
254.401	-20.14
254.618	96.6
254.835	-5.8
255.051	104.79
255.268	63.83
255.484	123.22
255.701	24.92
255.917	108.88
256.134	65.88
256.351	69.97
256.567	-13.99
256.784	59.73
257	20.82
257.217	47.44
257.433	16.73
257.65	37.2
257.866	12.63
258.082	61.78
258.299	-3.75
258.515	12.63
258.732	8.53
258.948	55.64
259.165	37.2
259.381	22.87
259.597	106.84
259.814	84.31
260.03	24.92
260.246	115.03
260.463	49.49
260.679	47.44
260.895	162.13
261.112	90.45
261.328	8.53
261.544	69.97
261.761	88.4
261.977	108.88
262.193	18.77
262.409	47.44
262.626	74.07
262.842	110.93
263.058	4.44
263.274	135.51
263.49	78.16
263.707	55.64
263.923	12.63
264.139	45.4
264.355	22.87
264.571	147.8
264.787	16.73
265.004	41.3
265.22	123.22
265.436	98.64
265.652	8.53
265.868	-11.95
266.084	67.92
266.3	78.16
266.516	31.06
266.732	82.26
266.948	55.64
267.164	74.07
267.38	139.6
267.596	16.73
267.812	135.51
268.028	137.56
268.244	63.83
268.46	33.11
268.676	76.12
268.892	57.68
269.108	72.02
269.324	-26.28
269.54	18.77
269.756	65.88
269.972	59.73
270.188	51.54
270.403	121.17
270.619	119.12
270.835	37.2
271.051	45.4
271.267	-1.71
271.483	14.68
271.698	26.96
271.914	80.21
272.13	92.5
272.346	12.63
272.562	82.26
272.777	37.2
272.993	59.73
273.209	82.26
273.425	49.49
273.64	47.44
273.856	88.4
274.072	0.34
274.287	94.55
274.503	104.79
274.719	86.36
274.934	8.53
275.15	8.53
275.366	10.58
275.581	-9.9
275.797	57.68
276.012	78.16
276.228	49.49
276.444	43.35
276.659	127.32
276.875	78.16
277.09	45.4
277.306	47.44
277.521	155.99
277.737	16.73
277.952	78.16
278.168	78.16
278.383	65.88
278.599	51.54
278.814	160.08
279.03	31.06
279.245	110.93
279.461	22.87
279.676	43.35
279.892	-13.99
280.107	16.73
280.322	4.44
280.538	47.44
280.753	59.73
280.969	131.41
281.184	26.96
281.399	47.44
281.615	20.82
281.83	104.79
282.045	94.55
282.26	-3.75
282.476	63.83
282.691	104.79
282.906	80.21
283.122	84.31
283.337	35.16
283.552	20.82
283.767	59.73
283.983	110.93
284.198	63.83
284.413	20.82
284.628	55.64
284.843	69.97
285.058	59.73
285.274	141.65
285.489	22.87
285.704	143.7
285.919	-9.9
286.134	31.06
286.349	96.6
286.564	8.53
286.779	61.78
286.995	12.63
287.21	39.25
287.425	67.92
287.64	33.11
287.855	20.82
288.07	37.2
288.285	100.69
288.5	55.64
288.715	112.98
288.93	115.03
289.145	88.4
289.36	137.56
289.575	0.34
289.79	92.5
290.004	45.4
290.219	65.88
290.434	51.54
290.649	22.87
290.864	29.01
291.079	102.74
291.294	74.07
291.509	129.36
291.724	22.87
291.938	94.55
292.153	39.25
292.368	67.92
292.583	49.49
292.798	100.69
293.012	90.45
293.227	65.88
293.442	33.11
293.657	76.12
293.871	115.03
294.086	80.21
294.301	147.8
294.516	115.03
294.73	53.59
294.945	22.87
295.16	20.82
295.374	57.68
295.589	96.6
295.804	51.54
296.018	20.82
296.233	108.88
296.447	65.88
296.662	74.07
296.877	67.92
297.091	110.93
297.306	45.4
297.52	86.36
297.735	49.49
297.949	76.12
298.164	65.88
298.378	82.26
298.593	72.02
298.807	45.4
299.022	112.98
299.236	172.37
299.451	102.74
299.665	164.18
299.88	82.26
300.094	57.68
300.309	61.78
300.523	104.79
300.737	88.4
300.952	90.45
301.166	78.16
301.381	55.64
301.595	63.83
301.809	69.97
302.024	12.63
302.238	45.4
302.452	98.64
302.667	63.83
302.881	143.7
303.095	170.32
303.309	125.27
303.524	-1.71
303.738	86.36
303.952	49.49
304.166	104.79
304.381	59.73
304.595	78.16
304.809	94.55
305.023	-11.95
305.237	31.06
305.452	84.31
305.666	16.73
305.88	149.84
306.094	31.06
306.308	96.6
306.522	45.4
306.736	151.89
306.95	115.03
307.164	45.4
307.379	67.92
307.593	65.88
307.807	74.07
308.021	49.49
308.235	143.7
308.449	39.25
308.663	0.34
308.877	160.08
309.091	51.54
309.305	135.51
309.519	14.68
309.733	139.6
309.947	24.92
310.161	84.31
310.374	-3.75
310.588	16.73
310.802	74.07
311.016	37.2
311.23	100.69
311.444	110.93
311.658	92.5
311.872	63.83
312.085	86.36
312.299	37.2
312.513	69.97
312.727	8.53
312.941	69.97
313.154	61.78
313.368	78.16
313.582	39.25
313.796	92.5
314.009	8.53
314.223	49.49
314.437	123.22
314.651	47.44
314.864	55.64
315.078	24.92
315.292	76.12
315.505	110.93
315.719	43.35
315.933	31.06
316.146	16.73
316.36	-71.34
316.573	106.84
316.787	-7.85
317.001	39.25
317.214	20.82
317.428	49.49
317.641	78.16
317.855	12.63
318.068	110.93
318.282	14.68
318.495	160.08
318.709	-16.04
318.922	106.84
319.136	117.08
319.349	74.07
319.563	2.39
319.776	78.16
319.99	-50.86
320.203	-1.71
320.417	63.83
320.63	49.49
320.843	141.65
321.057	24.92
321.27	104.79
321.483	147.8
321.697	29.01
321.91	39.25
322.124	88.4
322.337	57.68
322.55	41.3
322.763	72.02
322.977	6.49
323.19	35.16
323.403	115.03
323.617	78.16
323.83	39.25
324.043	110.93
324.256	69.97
324.469	96.6
324.683	139.6
324.896	72.02
325.109	63.83
325.322	78.16
325.535	94.55
325.748	100.69
325.962	121.17
326.175	24.92
326.388	82.26
326.601	49.49
326.814	90.45
327.027	112.98
327.24	41.3
327.453	80.21
327.666	26.96
327.879	59.73
328.092	59.73
328.305	72.02
328.518	119.12
328.731	33.11
328.944	57.68
329.157	53.59
329.37	-32.43
329.583	115.03
329.796	92.5
330.009	-32.43
330.222	80.21
330.435	92.5
330.648	94.55
330.861	135.51
331.073	41.3
331.286	84.31
331.499	49.49
331.712	41.3
331.925	76.12
332.138	-11.95
332.35	88.4
332.563	115.03
332.776	20.82
332.989	57.68
333.202	59.73
333.414	61.78
333.627	65.88
333.84	67.92
334.053	69.97
334.265	-9.9
334.478	61.78
334.691	26.96
334.903	0.34
335.116	8.53
335.329	61.78
335.541	67.92
335.754	104.79
335.966	76.12
336.179	-5.8
336.392	49.49
336.604	49.49
336.817	20.82
337.029	78.16
337.242	82.26
337.454	80.21
337.667	57.68
337.88	102.74
338.092	-1.71
338.305	94.55
338.517	115.03
338.729	88.4
338.942	65.88
339.154	41.3
339.367	55.64
339.579	115.03
339.792	45.4
340.004	72.02
340.217	67.92
340.429	80.21
340.641	-26.28
340.854	29.01
341.066	14.68
341.278	72.02
341.491	158.03
341.703	94.55
341.915	31.06
342.128	133.46
342.34	-7.85
342.552	51.54
342.764	69.97
342.977	92.5
343.189	51.54
343.401	84.31
343.613	26.96
343.826	139.6
344.038	82.26
344.25	139.6
344.462	2.39
344.674	108.88
344.886	67.92
345.099	76.12
345.311	82.26
345.523	82.26
345.735	14.68
345.947	8.53
346.159	45.4
346.371	31.06
346.583	33.11
346.795	100.69
347.007	61.78
347.219	90.45
347.431	35.16
347.643	145.75
347.855	16.73
348.067	174.42
348.279	57.68
348.491	80.21
348.703	125.27
348.915	47.44
349.127	72.02
349.339	14.68
349.551	123.22
349.763	125.27
349.975	104.79
350.187	172.37
350.399	86.36
350.61	65.88
350.822	53.59
351.034	88.4
351.246	106.84
351.458	49.49
351.669	74.07
351.881	166.23
352.093	84.31
352.305	86.36
352.517	96.6
352.728	125.27
352.94	37.2
353.152	108.88
353.363	45.4
353.575	147.8
353.787	86.36
353.999	76.12
354.21	33.11
354.422	94.55
354.633	18.77
354.845	65.88
355.057	35.16
355.268	117.08
355.48	153.94
355.692	106.84
355.903	47.44
356.115	121.17
356.326	94.55
356.538	39.25
356.749	33.11
356.961	47.44
357.172	-1.71
357.384	22.87
357.595	211.28
357.807	16.73
358.018	80.21
358.23	37.2
358.441	82.26
358.653	127.32
358.864	57.68
359.075	16.73
359.287	61.78
359.498	72.02
359.709	55.64
359.921	115.03
360.132	78.16
360.344	22.87
360.555	90.45
360.766	80.21
360.977	88.4
361.189	98.64
361.4	137.56
361.611	104.79
361.823	123.22
362.034	55.64
362.245	24.92
362.456	90.45
362.667	67.92
362.879	51.54
363.09	121.17
363.301	53.59
363.512	98.64
363.723	88.4
363.935	20.82
364.146	137.56
364.357	63.83
364.568	31.06
364.779	37.2
364.99	100.69
365.201	49.49
365.412	160.08
365.623	4.44
365.834	131.41
366.045	86.36
366.256	127.32
366.467	90.45
366.678	26.96
366.889	49.49
367.1	86.36
367.311	88.4
367.522	72.02
367.733	131.41
367.944	98.64
368.155	33.11
368.366	149.84
368.577	151.89
368.788	123.22
368.999	16.73
369.209	41.3
369.42	135.51
369.631	217.43
369.842	92.5
370.053	29.01
370.264	88.4
370.474	24.92
370.685	65.88
370.896	74.07
371.107	59.73
371.317	151.89
371.528	47.44
371.739	31.06
371.95	86.36
372.16	121.17
372.371	45.4
372.582	72.02
372.792	51.54
373.003	49.49
373.214	49.49
373.424	67.92
373.635	74.07
373.846	82.26
374.056	108.88
374.267	115.03
374.477	51.54
374.688	84.31
374.898	63.83
375.109	61.78
375.319	104.79
375.53	108.88
375.74	137.56
375.951	78.16
376.161	106.84
376.372	90.45
376.582	127.32
376.793	61.78
377.003	61.78
377.214	139.6
377.424	121.17
377.635	74.07
377.845	112.98
378.055	176.47
378.266	49.49
378.476	33.11
378.686	47.44
378.897	108.88
379.107	65.88
379.317	164.18
379.528	57.68
379.738	104.79
379.948	59.73
380.158	129.36
380.369	63.83
380.579	141.65
380.789	22.87
380.999	213.33
381.21	69.97
381.42	168.27
381.63	86.36
381.84	16.73
382.05	121.17
382.261	61.78
382.471	94.55
382.681	6.49
382.891	125.27
383.101	135.51
383.311	94.55
383.521	65.88
383.731	110.93
383.941	104.79
384.151	96.6
384.361	49.49
384.571	8.53
384.781	67.92
384.991	106.84
385.201	94.55
385.411	55.64
385.621	145.75
385.831	110.93
386.041	117.08
386.251	139.6
386.461	139.6
386.671	24.92
386.881	137.56
387.091	98.64
387.301	129.36
387.511	84.31
387.72	76.12
387.93	78.16
388.14	129.36
388.35	123.22
388.56	61.78
388.769	61.78
388.979	100.69
389.189	67.92
389.399	104.79
389.609	168.27
389.818	131.41
390.028	119.12
390.238	135.51
390.447	24.92
390.657	80.21
390.867	115.03
391.076	86.36
391.286	65.88
391.496	37.2
391.705	112.98
391.915	84.31
392.125	129.36
392.334	153.94
392.544	153.94
392.753	131.41
392.963	45.4
393.172	139.6
393.382	129.36
393.591	174.42
393.801	121.17
394.01	176.47
394.22	209.23
394.429	65.88
394.639	80.21
394.848	155.99
395.058	129.36
395.267	141.65
395.477	139.6
395.686	86.36
395.895	155.99
396.105	125.27
396.314	145.75
396.524	131.41
396.733	147.8
396.942	194.9
397.152	115.03
397.361	131.41
397.57	106.84
397.78	112.98
397.989	82.26
398.198	151.89
398.407	127.32
398.617	127.32
398.826	96.6
399.035	72.02
399.244	215.38
399.453	137.56
399.663	160.08
399.872	211.28
400.081	168.27
400.29	188.75
400.499	127.32
400.708	186.71
400.917	160.08
401.127	92.5
401.336	102.74
401.545	237.91
401.754	160.08
401.963	217.43
402.172	172.37
402.381	149.84
402.59	151.89
402.799	153.94
403.008	196.95
403.217	219.47
403.426	180.56
403.635	104.79
403.844	176.47
404.053	201.04
404.262	192.85
404.471	194.9
404.68	188.75
404.888	137.56
405.097	180.56
405.306	149.84
405.515	164.18
405.724	262.48
405.933	211.28
406.142	229.71
406.35	211.28
406.559	268.63
406.768	321.87
406.977	233.81
407.185	215.38
407.394	233.81
407.603	213.33
407.812	248.15
408.02	242
408.229	375.12
408.438	276.82
408.646	356.69
408.855	287.06
409.064	307.54
409.272	309.58
409.481	368.98
409.69	291.15
409.898	307.54
410.107	401.74
410.315	387.41
410.524	373.07
410.733	418.13
410.941	430.41
411.15	479.57
411.358	459.09
411.567	397.65
411.775	438.61
411.984	405.84
412.192	547.15
412.401	532.81
412.609	606.54
412.818	522.57
413.026	573.77
413.234	600.4
413.443	571.72
413.651	553.29
413.86	678.22
414.068	745.8
414.276	715.08
414.485	690.51
414.693	713.03
414.901	840.01
415.11	823.62
415.318	864.58
415.526	858.44
415.734	973.13
415.943	979.27
416.151	921.93
416.359	844.1
416.567	938.31
416.776	966.98
416.984	1136.96
417.192	1188.16
417.4	1128.77
417.608	1030.47
417.817	1096
418.025	1227.07
418.233	1265.99
418.441	1337.66
418.649	1356.1
418.857	1376.58
419.065	1481.02
419.273	1397.06
419.481	1552.7
419.689	1601.85
419.897	1777.98
420.105	1671.48
420.313	1767.74
420.521	1835.32
420.729	1863.99
420.937	1913.14
421.145	2007.35
421.353	2044.21
421.561	2160.95
421.769	2163
421.977	2244.92
422.185	2285.87
422.393	2431.28
422.601	2494.77
422.809	2572.59
423.017	2521.39
423.224	2654.51
423.432	2814.25
423.64	2795.82
423.848	2935.08
424.056	2973.99
424.263	3252.52
424.471	3287.33
424.679	3209.51
424.887	3561.76
425.094	3406.11
425.302	3504.42
425.51	3596.57
425.718	3795.23
425.925	3692.83
426.133	3778.84
426.341	4270.36
426.548	4213.01
426.756	4346.13
426.964	4346.13
427.171	4600.08
427.379	4808.97
427.586	4784.4
427.794	5081.35
428.001	5282.05
428.209	5374.21
428.417	5329.16
428.624	5814.52
428.832	5669.12
429.039	5697.79
429.247	5681.41
429.454	6123.77
429.662	6594.8
429.869	6400.24
430.076	6801.65
430.284	6390
430.491	6689.01
430.699	7076.07
430.906	7125.22
431.114	7250.15
431.321	7635.17
431.528	7680.22
431.736	8290.52
431.943	8489.17
432.15	8102.11
432.358	8202.46
432.565	8827.09
432.772	8831.18
432.979	9187.53
433.187	9255.11
433.394	9537.73
433.601	10082.49
433.808	10037.44
434.016	9918.65
434.223	10279.1
434.43	11325.61
434.637	10991.79
434.844	11493.54
435.052	11643.04
435.259	11593.89
435.466	11630.76
435.673	11520.17
435.88	12243.1
436.087	12976.27
436.294	13041.81
436.501	12716.18
436.708	13033.61
436.915	13506.7
437.122	14069.89
437.329	13725.83
437.537	14516.34
437.743	14643.32
437.95	14569.59
438.157	15212.65
438.364	15724.65
438.571	15661.16
438.778	15999.07
438.985	17266.77
439.192	16615.51
439.399	17092.69
439.606	16754.77
439.813	17659.98
440.02	18692.15
440.227	18286.65
440.433	18327.61
440.64	19017.78
440.847	18524.22
441.054	19198
441.261	20492.32
441.467	20260.9
441.674	20547.61
441.881	21409.81
442.088	21286.93
442.294	20807.7
442.501	21516.3
442.708	22145.03
442.914	23070.71
443.121	23812.07
443.328	23058.42
443.534	24995.8
443.741	23877.61
443.948	23724.01
444.154	25573.33
444.361	25249.75
444.568	25671.63
444.774	25726.92
444.981	25735.12
445.187	26482.63
445.394	27633.58
445.6	27578.29
445.807	29783.95
446.013	28440.48
446.22	28880.8
446.426	30097.29
446.633	30668.67
446.839	31254.39
447.046	30232.46
447.252	31876.97
447.459	31752.05
447.665	31684.47
447.871	33208.15
448.078	34379.59
448.284	32753.51
448.491	33736.53
448.697	34914.11
448.903	35383.1
449.11	35675.96
449.316	34932.54
449.522	35493.69
449.728	36849.44
449.935	36941.6
450.141	36542.25
450.347	37369.63
450.553	36390.7
450.76	36740.9
450.966	38016.79
451.172	37533.46
451.378	38332.17
451.584	37388.06
451.791	38760.2
451.997	38496.01
452.203	39059.2
452.409	38844.16
452.615	38453
452.821	37291.8
453.027	36896.55
453.233	38846.21
453.44	37080.86
453.646	37295.9
453.852	37861.14
454.058	38188.81
454.264	37236.51
454.47	37857.04
454.676	36978.47
454.882	38248.21
455.088	34721.6
455.294	35659.57
455.5	35469.11
455.705	35989.3
455.911	35002.18
456.117	34105.16
456.323	33572.69
456.529	31623.03
456.735	33206.11
456.941	32427.88
457.147	31827.82
457.352	30482.31
457.558	30394.25
457.764	30785.41
457.97	29917.07
458.176	29450.13
458.381	29441.94
458.587	27832.24
458.793	27920.3
458.999	26382.27
459.204	28075.94
459.41	27822
459.616	25905.1
459.821	25925.58
460.027	25329.62
460.233	25235.41
460.438	23730.16
460.644	23959.53
460.85	22898.68
461.055	22632.44
461.261	22765.56
461.466	21174.29
461.672	20162.59
461.878	21858.31
462.083	20402.21
462.289	20105.25
462.494	19695.66
462.7	18688.06
462.905	18362.43
463.111	19075.12
463.316	19359.79
463.522	18794.55
463.727	19005.49
463.932	18501.69
464.138	18567.23
464.343	18475.07
464.549	18212.93
464.754	18747.45
464.959	18522.17
465.165	18346.05
465.37	17586.25
465.575	17008.72
465.781	17866.82
465.986	18020.42
466.191	17254.48
466.397	16998.48
466.602	16185.44
466.807	16631.9
467.012	16814.16
467.218	16705.62
467.423	16613.46
467.628	16707.67
467.833	17430.6
468.038	16537.69
468.244	16119.9
468.449	16922.71
468.654	16199.77
468.859	16068.7
469.064	16150.62
469.269	15347.82
469.474	15534.18
469.679	15888.48
469.885	15368.3
470.09	15612.01
470.295	15364.2
470.5	15192.17
470.705	15241.32
470.91	14921.84
471.115	14538.87
471.32	14905.46
471.525	14698.61
471.73	14473.34
471.935	14164.09
472.139	13805.7
472.344	14039.17
472.549	13959.3
472.754	13846.66
472.959	13504.65
473.164	13346.95
473.369	12951.7
473.574	13605
473.778	13779.08
473.983	13351.05
474.188	13205.64
474.393	12597.4
474.598	12847.25
474.802	12499.09
475.007	12492.95
475.212	12578.97
475.417	12181.66
475.621	12157.08
475.826	12218.52
476.031	11890.85
476.235	11741.35
476.44	11868.32
476.645	11444.39
476.849	11507.88
477.054	11690.15
477.259	11301.03
477.463	11341.99
477.668	11026.61
477.872	11139.24
478.077	11057.32
478.282	10641.59
478.486	10752.18
478.691	10617.01
478.895	10639.54
479.1	10574
479.304	10576.05
479.509	10129.59
479.713	10555.57
479.918	9967.81
480.122	9842.88
480.326	10231.99
480.531	9996.48
480.735	10051.77
480.94	9922.75
481.144	10391.73
481.348	9756.86
481.553	10129.59
481.757	9521.35
481.961	9816.26
482.166	9955.52
482.37	9803.97
482.574	9908.41
482.778	9771.2
482.983	9967.81
483.187	9703.62
483.391	9773.25
483.595	9781.44
483.8	9777.34
484.004	9664.71
484.208	9846.98
484.412	9832.64
484.616	9711.81
484.821	9838.78
485.025	9552.07
485.229	9746.62
485.433	9750.72
485.637	9818.3
485.841	9707.71
486.045	9994.43
486.249	9867.45
486.453	9623.75
486.657	9685.19
486.861	9572.55
487.065	9588.93
487.269	9603.27
487.473	9648.32
487.677	9656.51
487.881	9636.03
488.085	9676.99
488.289	9855.17
488.493	9627.84
488.697	9783.49
488.901	10076.35
489.105	9916.61
489.309	9715.91
489.512	9971.9
489.716	9887.93
489.92	9961.66
490.124	9953.47
490.328	10154.17
490.531	9926.85
490.735	9961.66
490.939	10092.73
491.143	9976
491.346	10076.35
491.55	10221.75
491.754	10113.21
491.958	10219.71
492.161	10236.09
492.365	10434.74
492.569	10174.65
492.772	10350.78
492.976	10549.43
493.18	10447.03
493.383	10526.9
493.587	10700.98
493.79	10733.75
493.994	10664.11
494.197	10721.46
494.401	10686.64
494.605	10897.58
494.808	10971.31
495.012	11075.76
495.215	11077.8
495.419	11333.8
495.622	11311.27
495.825	11305.13
496.029	11255.98
496.232	11669.67
496.436	11667.62
496.639	11853.98
496.843	11684
497.046	12183.71
497.249	11942.05
497.453	12286.11
497.656	12345.5
497.859	12460.18
498.063	12619.92
498.266	12830.87
498.469	12648.6
498.673	13033.61
498.876	13013.13
499.079	13226.12
499.282	13215.88
499.485	13637.77
499.689	13428.87
499.892	13711.49
500.095	13713.54
500.298	14102.65
500.501	13949.06
500.705	14495.86
500.908	14497.91
501.111	14839.92
501.314	14923.89
501.517	15220.85
501.72	15028.34
501.923	15126.64
502.126	15638.63
502.329	15775.84
502.532	15925.35
502.735	15894.63
502.938	16121.95
503.141	16250.97
503.344	16509.02
503.547	16738.39
503.75	16889.94
503.953	17213.52
504.156	17127.5
504.359	17606.73
504.562	17291.34
504.765	17780.81
504.968	17961.03
505.17	18139.2
505.373	18237.5
505.576	18638.9
505.779	18915.38
505.982	18704.44
506.185	19142.71
506.387	19226.67
506.59	19460.14
506.793	19920.93
506.996	19705.9
507.198	20535.32
507.401	20172.83
507.604	20500.51
507.807	21047.32
508.009	20957.21
508.212	21043.22
508.415	21487.63
508.617	21612.56
508.82	21899.27
509.022	21757.96
509.225	22528
509.428	22458.37
509.63	22640.64
509.833	22892.54
510.035	23326.71
510.238	23191.54
510.44	23750.63
510.643	23627.76
510.845	23980.01
511.048	23893.99
511.25	24473.57
511.453	24629.21
511.655	25319.38
511.858	25063.38
512.06	25561.04
512.262	25356.24
512.465	25602
512.667	26144.71
512.87	26060.74
513.072	26466.24
513.274	27013.05
513.477	27297.72
513.679	27467.7
513.881	27492.27
514.084	27977.64
514.286	28004.27
514.488	28008.36
514.69	29165.46
514.893	29364.12
515.095	28923.8
515.297	29437.84
515.499	29630.35
515.701	30128.01
515.904	30297.99
516.106	30183.3
516.308	30693.25
516.51	31170.43
516.712	30900.09
516.914	31702.9
517.116	32593.76
517.318	31704.95
517.52	32192.36
517.722	32755.55
517.925	33116
518.127	33470.29
518.329	33627.99
518.531	33695.57
518.733	34029.39
518.935	34467.66
519.136	34281.29
519.338	34795.33
519.54	35170.11
519.742	35544.89
519.944	35442.49
520.146	36095.79
520.348	36308.78
520.55	36626.21
520.752	36640.55
520.954	37089.06
521.155	37037.86
521.357	37881.62
521.559	37611.29
521.761	38518.54
521.963	38366.99
522.164	38891.27
522.366	38815.49
522.568	38999.81
522.77	39483.13
522.971	39978.74
523.173	39890.68
523.375	40333.04
523.576	40204.02
523.778	40537.83
523.98	41201.38
524.181	41232.1
524.383	41303.78
524.584	41621.21
524.786	41658.07
524.988	41696.99
525.189	42002.13
525.391	42680.01
525.592	42856.14
525.794	42901.19
525.995	43253.44
526.197	43357.89
526.398	43382.46
526.6	43398.85
526.801	43757.24
527.003	43853.5
527.204	43882.17
527.406	44488.37
527.607	44445.36
527.808	44848.81
528.01	44033.72
528.211	44730.03
528.412	45377.18
528.614	45399.71
528.815	44904.1
529.016	45534.88
529.218	45688.48
529.419	45266.59
529.62	45776.54
529.822	45717.15
530.023	45770.39
530.224	46042.77
530.425	45936.28
530.626	45878.94
530.828	45563.55
531.029	46640.78
531.23	45893.27
531.431	46300.82
531.632	46540.43
531.833	46919.31
532.035	46831.24
532.236	46700.17
532.437	47140.49
532.638	46589.58
532.839	47285.89
533.04	47011.46
533.241	46083.73
533.442	47423.11
533.643	47263.36
533.844	47105.67
534.045	47150.73
534.246	46937.74
534.447	47527.55
534.648	47179.4
534.849	47584.9
535.05	47212.16
535.251	47066.76
535.451	47427.2
535.652	47664.77
535.853	47275.65
536.054	47011.46
536.255	47412.87
536.456	47015.56
536.657	47734.4
536.857	47271.56
537.058	47195.78
537.259	47761.02
537.46	47656.57
537.66	47353.47
537.861	47437.44
538.062	47132.29
538.263	47713.92
538.463	47298.18
538.664	47535.74
538.865	47373.95
539.065	47801.98
539.266	47101.57
539.466	47703.68
539.667	47060.62
539.868	47851.13
540.068	47812.22
540.269	47488.64
540.469	47629.95
540.67	47343.23
540.87	47466.11
541.071	47531.65
541.271	47949.43
541.472	47376
541.672	47543.94
541.873	47199.88
542.073	46753.42
542.274	47785.6
542.474	47515.26
542.675	47093.38
542.875	47658.62
543.075	47072.9
543.276	46478.99
543.476	47875.71
543.676	47283.84
543.877	47720.06
544.077	47083.14
544.277	47257.22
544.478	47474.3
544.678	47480.45
544.878	47029.9
545.078	47122.05
545.279	46982.79
545.479	47171.21
545.679	47433.35
545.879	47382.15
546.079	47523.46
546.28	47466.11
546.48	47074.95
546.68	47203.97
546.88	47040.14
547.08	47025.8
547.28	47056.52
547.48	46573.2
547.68	47140.49
547.88	47042.18
548.081	47361.67
548.281	46904.97
548.481	46646.93
548.681	47072.9
548.881	47285.89
549.081	46941.83
549.28	46728.84
549.48	47197.83
549.68	46888.59
549.88	47754.88
550.08	46753.42
550.28	47052.42
550.48	46868.11
550.68	47300.23
550.88	46354.07
551.08	47109.77
551.279	46982.79
551.479	46376.59
551.679	46663.31
551.879	46417.55
552.079	47113.86
552.278	46407.31
552.478	46485.14
552.678	46780.04
552.878	46904.97
553.077	46390.93
553.277	46313.11
553.477	46925.45
553.676	46577.29
553.876	46128.79
554.076	46200.47
554.275	46628.49
554.475	45760.16
554.674	46677.65
554.874	46825.1
555.074	45813.4
555.273	46505.62
555.473	46603.92
555.672	45794.97
555.872	45913.75
556.071	46210.71
556.271	46460.56
556.47	46202.52
556.67	45854.36
556.869	46040.73
557.068	46081.69
557.268	45936.28
557.467	46227.09
557.667	45762.2
557.866	45840.03
558.065	45762.2
558.265	45739.68
558.464	45272.74
558.663	45967
558.863	45461.15
559.062	45823.64
559.261	44846.76
559.461	45711
559.66	44955.3
559.859	45029.03
560.058	44783.27
560.258	45432.48
560.457	44582.57
560.656	45350.56
560.855	44564.14
561.054	45090.47
561.253	44445.36
561.453	44713.64
561.652	44394.16
561.851	44715.69
562.05	44713.64
562.249	44158.64
562.448	44551.85
562.647	44140.21
562.846	44060.34
563.045	43796.15
563.244	43790.01
563.443	44269.23
563.642	43460.29
563.841	44013.24
564.04	43347.65
564.239	43486.91
564.438	43345.6
564.637	43228.87
564.836	43321.02
565.035	43085.51
565.234	42905.29
565.432	42866.38
565.631	42929.86
565.83	43386.56
566.029	43081.41
566.228	42559.18
566.427	42766.02
566.625	42409.68
566.824	41664.22
567.023	42237.65
567.222	41647.83
567.42	42256.08
567.619	42090.2
567.818	42153.68
568.016	41977.56
568.215	42030.8
568.414	42008.28
568.612	41758.42
568.811	41334.49
569.01	41387.74
569.208	40842.98
569.407	41494.24
569.605	40711.91
569.804	41268.96
570.002	40539.88
570.201	41146.08
570.4	40615.66
570.598	40070.9
570.797	40134.38
570.995	40570.6
571.193	39749.37
571.392	40724.2
571.59	39855.86
571.789	39993.08
571.987	40029.94
572.186	39573.24
572.384	39390.97
572.582	39458.56
572.781	39720.7
572.979	39360.25
573.177	39225.09
573.376	39155.46
573.574	39171.84
573.772	39393.02
573.971	38782.73
574.169	38889.22
574.367	38405.9
574.565	38743.81
574.763	38594.31
574.962	38360.84
575.16	38272.78
575.358	38268.69
575.556	37771.03
575.754	38645.51
575.952	37758.74
576.151	38223.63
576.349	37439.26
576.547	37734.17
576.745	37576.47
576.943	37562.14
577.141	37252.89
577.339	37685.01
577.537	37011.23
577.735	36990.75
577.933	36779.81
578.131	37097.25
578.329	36820.77
578.527	36405.03
578.725	36675.37
578.923	36228.91
579.121	36183.85
579.319	36445.99
579.516	36761.38
579.714	36190
579.912	35884.85
580.11	36108.08
580.308	35770.16
580.506	35639.09
580.704	35329.85
580.901	35553.08
581.099	35485.5
581.297	35399.48
581.495	35522.36
581.692	35286.84
581.89	35075.9
582.088	35010.37
582.285	34967.36
582.483	34965.31
582.681	35010.37
582.878	34981.7
583.076	34686.79
583.274	34854.72
583.471	34371.4
583.669	34836.29
583.866	34371.4
584.064	34324.3
584.262	33748.82
584.459	34275.15
584.657	34064.21
584.854	34103.12
585.052	33425.24
585.249	34035.53
585.447	33427.29
585.644	33029.98
585.841	33232.73
586.039	33507.16
586.236	33058.65
586.434	32937.82
586.631	33105.76
586.828	32876.38
587.026	32941.92
587.223	32827.23
587.42	32845.66
587.618	32614.24
587.815	32202.6
588.012	32350.06
588.21	31893.36
588.407	32401.25
588.604	32298.86
588.801	32077.68
588.999	31762.29
589.196	32171.88
589.393	31799.15
589.59	31510.39
589.787	31723.38
589.984	31561.59
590.182	31350.65
590.379	31356.79
590.576	31242.1
590.773	31381.37
590.97	31209.34
591.167	31491.96
591.364	30537.6
591.561	30977.92
591.758	30308.23
591.955	30234.5
592.152	30693.25
592.349	30353.29
592.546	30201.74
592.743	30283.66
592.94	29994.89
593.137	30107.53
593.334	30207.88
593.531	29663.12
593.727	29910.92
593.924	30052.23
594.121	29663.12
594.318	29611.92
594.515	29204.38
594.712	29931.4
594.908	29427.6
595.105	29618.07
595.302	29030.3
595.499	29177.75
595.696	28950.43
595.892	29083.55
596.089	28782.49
596.286	28667.81
596.482	28807.07
596.679	28589.99
596.876	28780.45
597.072	28379.04
597.269	28362.66
597.466	27424.69
597.662	27742.13
597.859	28274.6
598.055	28174.25
598.252	28268.45
598.448	27901.87
598.645	27738.03
598.841	27426.74
599.038	27330.48
599.234	27580.34
599.431	26884.03
599.627	26957.75
599.824	27307.96
600.02	27080.63
600.217	27361.2
600.413	27058.1
600.609	26757.05
600.806	26750.91
601.002	26912.7
601.198	26642.37
601.395	26574.78
601.591	26570.69
601.787	26349.51
601.984	26421.19
602.18	26533.82
602.376	26283.97
602.572	26042.31
602.769	26169.29
602.965	25950.15
603.161	26240.96
603.357	25950.15
603.553	25647.05
603.75	25878.47
603.946	25362.39
604.142	25671.63
604.338	25413.59
604.534	25870.28
604.73	24823.77
604.926	25235.41
605.122	25188.31
605.318	24958.94
605.514	25178.07
605.71	25044.95
605.906	24868.83
606.102	24936.41
606.298	24819.67
606.494	24629.21
606.69	24600.54
606.886	24678.36
607.082	24553.44
607.278	24700.89
607.474	24186.85
607.67	24342.5
607.866	23932.9
608.062	24455.14
608.257	23957.48
608.453	23998.44
608.649	24094.69
608.845	23939.05
609.041	23627.76
609.236	23906.28
609.432	23795.69
609.628	23705.58
609.824	23918.57
610.019	23408.62
610.215	23646.19
610.411	23779.31
610.606	23685.1
610.802	23578.61
610.998	23500.78
611.193	23308.27
611.389	23183.35
611.584	23091.19
611.78	23011.32
611.976	23257.07
612.171	23236.59
612.367	22874.1
612.562	23126
612.758	22519.81
612.953	22677.5
613.149	23226.35
613.344	22831.1
613.539	23121.91
613.735	22829.05
613.93	22921.21
614.126	22532.09
614.321	22994.93
614.517	22681.6
614.712	22452.22
614.907	22458.37
615.103	22605.82
615.298	22200.32
615.493	22601.72
615.688	22093.83
615.884	22382.59
616.079	21950.47
616.274	22114.31
616.47	22396.93
616.665	22372.35
616.86	22081.54
617.055	21991.43
617.25	21876.74
617.445	22007.81
617.641	21448.72
617.836	21784.58
618.031	21766.15
618.226	21673.99
618.421	21735.43
618.616	21747.72
618.811	21164.05
619.006	21565.45
619.201	21123.09
619.396	21557.26
619.591	21149.71
619.786	21086.23
619.981	20774.94
620.176	20928.53
620.371	20412.45
620.566	20828.18
620.761	20641.82
620.956	20754.46
621.151	20318.24
621.346	20500.51
621.541	19834.92
621.735	20432.93
621.93	20045.86
622.125	19863.59
622.32	19716.14
622.515	19808.3
622.709	19372.08
622.904	19648.55
623.099	19415.09
623.294	19347.5
623.488	19251.25
623.683	19142.71
623.878	19030.07
624.072	18960.44
624.267	18806.84
624.462	18733.11
624.656	18692.15
624.851	18745.4
625.046	18516.03
625.24	18217.02
625.435	18362.43
625.629	18333.76
625.824	18196.54
626.018	17944.64
626.213	17688.65
626.407	18018.37
626.602	17705.03
626.796	17565.77
626.991	17449.04
627.185	17416.27
627.38	17356.88
627.574	17061.97
627.768	17088.59
627.963	17332.3
628.157	16787.54
628.352	16898.13
628.546	16339.04
628.74	16879.7
628.935	16621.66
629.129	16826.45
629.323	16339.04
629.517	16478.3
629.712	16132.19
629.906	16148.57
630.1	15837.28
630.294	16259.17
630.489	15634.53
630.683	15810.66
630.877	15788.13
631.071	15562.86
631.265	15706.21
631.459	15581.29
631.653	15306.86
631.848	15337.58
632.042	15331.44
632.236	15147.12
632.43	15104.11
632.624	15351.92
632.818	15065.2
633.012	14776.44
633.206	14731.38
633.4	14776.44
633.594	14477.43
633.788	14526.58
633.982	14551.16
634.176	14557.3
634.369	14135.42
634.563	14196.86
634.757	14327.93
634.951	14104.7
635.145	14293.12
635.339	13924.48
635.533	13621.38
635.726	13660.29
635.92	13725.83
636.114	13531.27
636.308	13549.7
636.501	13582.47
636.695	13402.25
636.889	13392.01
637.083	13191.31
637.276	12927.12
637.47	13119.63
637.664	13105.29
637.857	13099.15
638.051	12880.02
638.244	12806.29
638.438	12941.46
638.632	12685.46
638.825	12607.64
639.019	12822.67
639.212	12486.81
639.406	12519.57
639.599	12529.81
639.793	12333.21
639.986	12269.72
640.18	12230.81
640.373	12220.57
640.567	11933.86
640.76	11952.29
640.954	11899.04
641.147	11843.74
641.34	11702.43
641.534	11782.31
641.727	11442.34
641.92	11872.42
642.114	11653.28
642.307	11792.55
642.5	11382.95
642.694	11186.35
642.887	11202.73
643.08	11362.47
643.273	11348.14
643.467	11227.31
643.66	11139.24
643.853	10977.45
644.046	10907.82
644.239	10713.27
644.432	10825.9
644.626	10670.26
644.819	10606.77
645.012	10862.77
645.205	10580.15
645.398	10469.56
645.591	10420.41
645.784	10588.34
645.977	10184.89
646.17	10391.73
646.363	10213.56
646.556	10100.92
646.749	9951.42
646.942	10158.27
647.135	9949.37
647.328	10066.11
647.521	9863.36
647.714	9885.89
647.907	9855.17
648.099	9844.93
648.292	9656.51
648.485	9674.95
648.678	9509.06
648.871	9488.58
649.064	9349.32
649.256	9560.26
649.449	9400.52
649.642	9242.82
649.835	9197.77
650.027	9357.51
650.22	9300.17
650.413	9074.89
650.605	9121.99
650.798	9083.08
650.991	8982.73
651.183	9097.42
651.376	9070.79
651.568	8769.74
651.761	8728.78
651.954	8806.61
652.146	8700.11
652.339	8607.95
652.531	8618.19
652.724	8575.19
652.916	8675.54
653.109	8622.29
653.301	8405.21
653.494	8528.08
653.686	8253.66
653.879	8493.27
654.071	8165.59
654.263	8224.98
654.456	8249.56
654.648	8200.41
654.84	8073.43
655.033	8044.76
655.225	8110.3
655.417	8204.5
655.61	7971.04
655.802	8026.33
655.994	7819.49
656.186	7889.12
656.379	7815.39
656.571	7971.04
656.763	7608.55
656.955	7633.12
657.148	7600.35
657.34	7497.95
657.532	7569.63
657.724	7479.52
657.916	7563.49
658.108	7528.67
658.3	7518.43
658.492	7237.86
658.684	7356.65
658.876	7387.36
659.068	7393.51
659.26	7344.36
659.452	7192.81
659.644	7184.62
659.836	7198.95
660.028	6957.29
660.22	6953.2
660.412	7059.69
660.604	6959.34
660.796	6977.77
660.988	6889.71
661.18	6830.32
661.372	6885.61
661.563	6791.41
661.755	6609.14
661.947	6527.22
662.139	6521.07
662.331	6734.06
662.522	6643.95
662.714	6590.7
662.906	6390
663.097	6646
663.289	6516.98
663.481	6566.13
663.673	6363.38
663.864	6476.02
664.056	6443.25
664.247	6486.26
664.439	6211.83
664.631	6363.38
664.822	6197.49
665.014	6170.87
665.205	6115.58
665.397	6115.58
665.588	6265.08
665.78	6105.34
665.971	6144.25
666.163	6160.63
666.354	6115.58
666.546	6025.47
666.737	5939.45
666.929	6056.18
667.12	5964.03
667.311	5931.26
667.503	5839.1
667.694	5710.08
667.885	5804.28
668.077	5847.29
668.268	5740.8
668.459	5757.18
668.651	5732.61
668.842	5806.33
669.033	5566.72
669.224	5525.76
669.416	5779.71
669.607	5511.43
669.798	5632.26
669.989	5726.46
670.18	5521.67
670.371	5550.34
670.563	5529.86
670.754	5540.1
670.945	5427.46
671.136	5382.4
671.327	5402.88
671.518	5562.62
671.709	5476.61
671.9	5466.37
672.091	5308.68
672.282	5480.71
672.473	5341.44
672.664	5437.7
672.855	5251.33
673.046	5224.71
673.237	5292.29
673.428	5210.37
673.619	5288.2
673.809	5230.85
674	5130.5
674.191	5116.17
674.382	5177.61
674.573	5185.8
674.764	5046.54
674.954	5232.9
675.145	5255.43
675.336	5073.16
675.527	5187.85
675.717	5118.22
675.908	5099.78
676.099	4974.86
676.289	5112.07
676.48	4915.47
676.671	4976.91
676.861	4952.33
677.052	5001.48
677.243	4878.6
677.433	5140.74
677.624	4946.19
677.814	4919.56
678.005	4964.62
678.195	5019.91
678.386	5103.88
678.576	4931.85
678.767	4827.4
678.957	4847.88
679.148	5210.37
679.338	4827.4
679.529	4989.19
679.719	4960.52
679.909	4954.38
680.1	4921.61
680.29	4897.03
680.481	4870.41
680.671	4845.84
680.861	4772.11
681.052	4950.28
681.242	4808.97
681.432	4958.47
681.622	4696.33
681.813	4931.85
682.003	4751.63
682.193	4839.69
682.383	4825.36
682.573	4757.77
682.764	4862.22
682.954	4704.53
683.144	4823.31
683.334	4909.32
683.524	4714.77
683.714	4800.78
683.904	4665.61
684.094	4757.77
684.284	4682
684.474	4974.86
684.664	4743.44
684.854	4624.65
685.044	4690.19
685.234	4780.3
685.424	4700.43
685.614	4661.52
685.804	4636.94
685.994	4528.4
686.184	4663.57
686.374	4665.61
686.564	4501.78
686.753	4630.8
686.943	4505.87
687.133	4520.21
687.323	4546.83
687.513	4495.63
687.702	4456.72
687.892	4514.06
688.082	4374.8
688.272	4378.9
688.461	4430.1
688.651	4534.54
688.841	4350.23
689.03	4417.81
689.22	4546.83
689.41	4419.86
689.599	4366.61
689.789	4374.8
689.979	4280.6
690.168	4301.08
690.358	4172.05
690.547	4190.49
690.737	4229.4
690.926	4253.97
691.116	4245.78
691.305	4315.41
691.495	4102.42
691.684	4081.94
691.874	4204.82
692.063	4145.43
692.252	4122.9
692.442	4192.53
692.631	4049.18
692.82	4081.94
693.01	4030.74
693.199	4088.09
693.388	4000.02
693.578	4036.89
693.767	4014.36
693.956	3891.48
694.146	3891.48
694.335	3875.1
694.524	3909.91
694.713	4004.12
694.902	3957.02
695.092	3842.33
695.281	3942.68
695.47	3823.9
695.659	3922.2
695.848	3881.24
696.037	3836.19
696.226	3834.14
696.415	3774.75
696.604	3856.67
696.793	3746.08
696.982	3868.95
697.171	3643.68
697.36	3817.76
697.549	3793.18
697.738	3899.67
697.927	3631.39
698.116	3821.85
698.305	3864.86
698.494	3823.9
698.683	3670.3
698.872	3658.01
699.061	3823.9
699.25	3727.64
699.438	3840.28
699.627	3703.07
699.816	3727.64
700.005	3567.9
700.193	3701.02
700.382	3834.14
700.571	3748.12
700.76	3795.23
700.948	3879.19
701.137	3692.83
701.326	3647.77
701.514	3703.07
701.703	3633.44
701.892	3641.63
702.08	3715.36
702.269	3801.37
702.457	3676.45
702.646	3594.53
702.834	3674.4
703.023	3600.67
703.212	3633.44
703.4	3733.79
703.589	3686.69
703.777	3649.82
703.965	3672.35
704.154	3754.27
704.342	3565.85
704.531	3666.21
704.719	3635.49
704.907	3567.9
705.096	3545.38
705.284	3555.62
705.472	3719.45
705.661	3619.1
705.849	3621.15
706.037	3621.15
706.226	3633.44
706.414	3703.07
706.602	3572
706.79	3645.73
706.979	3592.48
707.167	3625.25
707.355	3608.86
707.543	3674.4
707.731	3789.08
707.919	3664.16
708.107	3705.12
708.296	3588.38
708.484	3621.15
708.672	3686.69
708.86	3596.57
709.048	3551.52
709.236	3713.31
709.424	3692.83
709.612	3594.53
709.8	3567.9
709.988	3537.18
710.176	3653.92
710.364	3660.06
710.551	3580.19
710.739	3647.77
710.927	3545.38
711.115	3572
711.303	3604.77
711.491	3658.01
711.679	3594.53
711.866	3596.57
712.054	3600.67
712.242	3645.73
712.43	3633.44
712.617	3617.05
712.805	3635.49
712.993	3662.11
713.181	3629.34
713.368	3608.86
713.556	3625.25
713.744	3533.09
713.931	3688.73
714.119	3850.52
714.306	3682.59
714.494	3696.92
714.682	3531.04
714.869	3733.79
715.057	3664.16
715.244	3563.81
715.432	3574.05
715.619	3690.78
715.807	3676.45
715.994	3475.74
716.182	3580.19
716.369	3639.58
716.556	3621.15
716.744	3754.27
716.931	3567.9
717.119	3717.4
717.306	3541.28
717.493	3676.45
717.681	3602.72
717.868	3602.72
718.055	3596.57
718.242	3707.16
718.43	3647.77
718.617	3723.55
718.804	3764.51
718.991	3574.05
719.179	3600.67
719.366	3465.5
719.553	3621.15
719.74	3508.51
719.927	3612.96
720.114	3576.09
720.301	3664.16
720.488	3600.67
720.676	3500.32
720.863	3500.32
721.05	3694.88
721.237	3590.43
721.424	3574.05
721.611	3551.52
721.798	3594.53
721.985	3572
722.172	3666.21
722.358	3565.85
722.545	3563.81
722.732	3557.66
722.919	3533.09
723.106	3660.06
723.293	3658.01
723.48	3791.13
723.667	3637.53
723.853	3678.49
724.04	3569.95
724.227	3696.92
724.414	3518.75
724.6	3498.27
724.787	3559.71
724.974	3551.52
725.161	3655.97
725.347	3518.75
725.534	3586.33
725.72	3500.32
725.907	3561.76
726.094	3590.43
726.28	3543.33
726.467	3481.89
726.653	3612.96
726.84	3514.66
727.027	3516.7
727.213	3326.24
727.4	3502.37
727.586	3477.79
727.773	3442.98
727.959	3643.68
728.145	3391.78
728.332	3485.98
728.518	3404.07
728.705	3430.69
728.891	3528.99
729.077	3547.42
729.264	3547.42
729.45	3451.17
729.636	3619.1
729.823	3574.05
730.009	3551.52
730.195	3385.63
730.382	3498.27
730.568	3539.23
730.754	3432.74
730.94	3434.78
731.126	3553.57
731.313	3447.07
731.499	3512.61
731.685	3447.07
731.871	3492.13
732.057	3479.84
732.243	3461.41
732.429	3414.31
732.615	3520.8
732.801	3432.74
732.987	3485.98
733.173	3399.97
733.359	3365.15
733.545	3389.73
733.731	3354.91
733.917	3475.74
734.103	3547.42
734.289	3430.69
734.475	3326.24
734.661	3391.78
734.847	3410.21
735.033	3391.78
735.219	3332.39
735.404	3367.2
735.59	3338.53
735.776	3316
735.962	3344.67
736.148	3322.15
736.333	3242.28
736.519	3336.48
736.705	3260.71
736.89	3326.24
737.076	3416.35
737.262	3252.52
737.447	3363.11
737.633	3291.43
737.819	3334.43
738.004	3334.43
738.19	3234.08
738.375	3221.8
738.561	3281.19
738.747	3385.63
738.932	3186.98
739.118	3281.19
739.303	3178.79
739.489	3184.93
739.674	3201.32
739.859	3170.6
740.045	3170.6
740.23	3156.26
740.416	3115.3
740.601	3215.65
740.786	3096.87
740.972	3051.81
741.157	3227.94
741.342	3031.34
741.528	3221.8
741.713	3072.29
741.898	3146.02
742.084	3041.57
742.269	3096.87
742.454	3166.5
742.639	3115.3
742.824	2808.11
743.01	2965.8
743.195	3092.77
743.38	3031.34
743.565	2939.18
743.75	2894.12
743.935	2935.08
744.12	2953.51
744.305	2971.94
744.49	2922.79
744.675	2883.88
744.86	2847.02
745.045	2859.31
745.23	2949.42
745.415	2752.81
745.6	2953.51
745.785	2773.29
745.97	2840.87
746.155	2973.99
746.34	2855.21
746.525	2687.28
746.71	2912.55
746.895	2670.89
747.079	2689.32
747.264	2775.34
747.449	2605.36
747.634	2527.53
747.819	2793.77
748.003	2539.82
748.188	2674.99
748.373	2609.45
748.557	2548.01
748.742	2556.21
748.927	2562.35
749.111	2502.96
749.296	2603.31
749.481	2586.93
749.665	2552.11
749.85	2414.9
750.034	2494.77
750.219	2359.6
750.404	2281.78
750.588	2283.83
750.773	2253.11
750.957	2392.37
751.141	2427.18
751.326	2326.83
751.51	2339.12
751.695	2314.55
751.879	2193.72
752.064	2226.48
752.248	2144.56
752.432	2244.92
752.617	2236.72
752.801	2203.96
752.985	2101.56
753.17	2242.87
753.354	2175.28
753.538	2156.85
753.722	2019.64
753.907	2076.98
754.091	2048.31
754.275	2128.18
754.459	2066.74
754.643	2074.93
754.828	2003.25
755.012	2031.93
755.196	2021.69
755.38	2031.93
755.564	1857.85
755.748	1888.57
755.932	1939.77
756.116	1849.66
756.3	1829.18
756.484	1931.58
756.668	1947.96
756.852	1820.99
757.036	1786.17
757.22	1835.32
757.404	1763.64
757.588	1810.75
757.772	1777.98
757.956	1691.96
758.14	1835.32
758.323	1790.27
758.507	1751.35
758.691	1745.21
758.875	1691.96
759.059	1780.03
759.242	1726.78
759.426	1581.37
759.61	1671.48
759.794	1622.33
759.977	1757.5
760.161	1706.3
760.345	1775.93
760.528	1669.44
760.712	1653.05
760.895	1577.28
761.079	1605.95
761.263	1556.8
761.446	1550.65
761.63	1478.97
761.813	1532.22
761.997	1671.48
762.18	1603.9
762.364	1462.59
762.547	1401.15
762.731	1444.16
762.914	1587.52
763.098	1495.36
763.281	1534.27
763.464	1519.93
763.648	1550.65
763.831	1474.88
764.015	1397.06
764.198	1405.25
764.381	1519.93
764.564	1466.69
764.748	1438.02
764.931	1431.87
765.114	1345.86
765.297	1411.39
765.481	1390.91
765.664	1263.94
765.847	1403.2
766.03	1417.54
766.213	1360.19
766.397	1333.57
766.58	1435.97
766.763	1364.29
766.946	1276.23
767.129	1311.04
767.312	1311.04
767.495	1265.99
767.678	1360.19
767.861	1298.75
768.044	1249.6
768.227	1364.29
768.41	1220.93
768.593	1261.89
768.776	1280.32
768.959	1241.41
769.142	1294.66
769.324	1249.6
769.507	1288.51
769.69	1235.27
769.873	1233.22
770.056	1308.99
770.239	1278.27
770.421	1200.45
770.604	1227.07
770.787	1225.03
770.97	1202.5
771.152	1229.12
771.335	1139.01
771.518	1106.24
771.7	1210.69
771.883	1188.16
772.066	1171.78
772.248	1069.38
772.431	1169.73
772.613	1175.88
772.796	1169.73
772.978	1175.88
773.161	1235.27
773.343	1093.96
773.526	1118.53
773.708	1106.24
773.891	1075.52
774.073	1192.26
774.256	1130.82
774.438	1149.25
774.621	1126.72
774.803	1155.4
774.985	979.27
775.168	1044.81
775.35	1093.96
775.532	1050.95
775.715	1100.1
775.897	1040.71
776.079	958.79
776.261	1040.71
776.444	969.03
776.626	1014.09
776.808	934.22
776.99	948.55
777.173	983.37
777.355	913.74
777.537	950.6
777.719	987.46
777.901	952.65
778.083	926.02
778.265	915.78
778.447	919.88
778.629	846.15
778.811	897.35
778.993	901.45
779.175	975.17
779.357	827.72
779.539	854.34
779.721	923.98
779.903	987.46
780.085	794.95
780.267	938.31
780.449	760.14
780.631	788.81
780.812	907.59
780.994	749.9
781.176	833.86
781.358	762.19
781.54	835.91
781.721	733.51
781.903	784.71
782.085	729.42
782.267	817.48
782.448	700.75
782.63	733.51
782.812	751.95
782.993	756.04
783.175	651.6
783.357	713.03
783.538	743.75
783.72	735.56
783.901	743.75
784.083	792.91
784.264	731.47
784.446	643.4
784.627	651.6
784.809	729.42
784.99	620.88
785.172	659.79
785.353	667.98
785.535	684.36
785.716	647.5
785.897	586.06
786.079	678.22
786.26	672.08
786.441	606.54
786.623	498
786.804	600.4
786.985	604.49
787.167	524.62
787.348	573.77
787.529	592.2
787.71	541.01
787.891	532.81
788.073	581.96
788.254	536.91
788.435	588.11
788.616	598.35
788.797	616.78
788.978	618.83
789.159	565.58
789.34	559.44
789.522	483.66
789.703	522.57
789.884	532.81
790.065	551.24
790.246	512.33
790.427	514.38
790.607	563.53
790.788	600.4
790.969	530.77
791.15	500.05
791.331	532.81
791.512	448.85
791.693	541.01
791.874	491.85
792.054	479.57
792.235	541.01
792.416	422.22
792.597	555.34
792.778	493.9
792.958	481.61
793.139	567.63
793.32	459.09
793.5	442.7
793.681	514.38
793.862	516.43
794.042	463.18
794.223	385.36
794.404	465.23
794.584	379.22
794.765	438.61
794.945	430.41
795.126	368.98
795.306	459.09
795.487	403.79
795.667	434.51
795.848	377.17
796.028	446.8
796.209	420.17
796.389	395.6
796.57	373.07
796.75	436.56
796.93	418.13
797.111	385.36
797.291	479.57
797.471	465.23
797.652	397.65
797.832	414.03
798.012	393.55
798.192	411.98
798.373	420.17
798.553	397.65
798.733	454.99
798.913	366.93
799.093	405.84
799.274	399.7
799.454	442.7
799.634	457.04
799.814	358.74
799.994	422.22
800.174	385.36
800.354	340.3
800.534	332.11
800.714	473.42
800.894	250.19
801.074	342.35
801.254	342.35
801.434	422.22
801.614	328.02
801.794	307.54
801.974	928.07
802.154	409.94
802.334	416.08
802.514	274.77
802.693	301.39
802.873	411.98
803.053	391.5
803.233	346.45
803.413	334.16
803.592	346.45
803.772	307.54
803.952	338.26
804.131	285.01
804.311	278.87
804.491	328.02
804.67	252.24
804.85	276.82
805.03	393.55
805.209	389.46
805.389	346.45
805.568	276.82
805.748	311.63
805.928	229.71
806.107	301.39
806.287	399.7
806.466	358.74
806.646	328.02
806.825	307.54
807.004	260.43
807.184	223.57
807.363	287.06
807.543	287.06
807.722	258.39
807.901	274.77
808.081	266.58
808.26	198.99
808.439	303.44
808.619	295.25
808.798	194.9
808.977	295.25
809.156	262.48
809.336	215.38
809.515	244.05
809.694	270.67
809.873	311.63
810.052	276.82
810.231	317.78
810.411	260.43
810.59	319.82
810.769	258.39
810.948	233.81
811.127	233.81
811.306	254.29
811.485	244.05
811.664	307.54
811.843	282.96
812.022	276.82
812.201	291.15
812.38	252.24
812.559	250.19
812.737	219.47
812.916	219.47
813.095	258.39
813.274	254.29
813.453	278.87
813.632	250.19
813.811	256.34
813.989	205.14
814.168	237.91
814.347	155.99
814.526	262.48
814.704	301.39
814.883	309.58
815.062	196.95
815.24	254.29
815.419	194.9
815.598	205.14
815.776	143.7
815.955	215.38
816.133	147.8
816.312	211.28
816.49	219.47
816.669	252.24
816.847	237.91
817.026	188.75
817.204	194.9
817.383	237.91
817.561	153.94
817.74	143.7
817.918	203.09
818.097	102.74
818.275	256.34
818.453	225.62
818.632	315.73
818.81	270.67
818.988	172.37
819.167	141.65
819.345	158.03
819.523	180.56
819.701	194.9
819.879	160.08
820.058	196.95
820.236	203.09
820.414	180.56
820.592	211.28
820.77	176.47
820.948	192.85
821.127	250.19
821.305	276.82
821.483	172.37
821.661	201.04
821.839	225.62
822.017	225.62
822.195	123.22
822.373	229.71
822.551	188.75
822.729	151.89
822.907	211.28
823.085	123.22
823.262	188.75
823.44	184.66
823.618	153.94
823.796	131.41
823.974	155.99
824.152	123.22
824.329	190.8
824.507	244.05
824.685	211.28
824.863	176.47
825.04	205.14
825.218	168.27
825.396	160.08
825.574	178.51
825.751	117.08
825.929	229.71
826.107	205.14
826.284	121.17
826.462	219.47
826.639	160.08
826.817	160.08
826.994	158.03
827.172	106.84
827.349	168.27
827.527	106.84
827.704	125.27
827.882	196.95
828.059	145.75
828.237	88.4
828.414	158.03
828.591	129.36
828.769	96.6
828.946	125.27
829.124	139.6
829.301	196.95
829.478	143.7
829.655	135.51
829.833	133.46
830.01	106.84
830.187	117.08
830.364	188.75
830.542	184.66
830.719	174.42
830.896	55.64
831.073	106.84
831.25	108.88
831.427	190.8
831.604	110.93
831.782	158.03
831.959	129.36
832.136	88.4
832.313	155.99
832.49	149.84
832.667	180.56
832.844	98.64
833.021	125.27
833.198	143.7
833.374	86.36
833.551	147.8
833.728	100.69
833.905	160.08
834.082	106.84
834.259	137.56
834.436	110.93
834.612	119.12
834.789	112.98
834.966	143.7
835.143	115.03
835.319	69.97
835.496	76.12
835.673	135.51
835.85	102.74
836.026	137.56
836.203	129.36
836.38	158.03
836.556	102.74
836.733	102.74
836.909	155.99
837.086	14.68
837.262	65.88
837.439	59.73
837.616	94.55
837.792	139.6
837.968	84.31
838.145	96.6
838.321	69.97
838.498	100.69
838.674	131.41
838.851	96.6
839.027	153.94
839.203	123.22
839.38	69.97
839.556	147.8
839.732	74.07
839.909	49.49
840.085	219.47
840.261	94.55
840.437	100.69
840.614	127.32
840.79	121.17
840.966	84.31
841.142	88.4
841.318	37.2
841.494	129.36
841.671	123.22
841.847	110.93
842.023	90.45
842.199	139.6
842.375	86.36
842.551	41.3
842.727	63.83
842.903	155.99
843.079	63.83
843.255	213.33
843.431	53.59
843.607	158.03
843.783	49.49
843.959	158.03
844.134	53.59
844.31	141.65
844.486	43.35
844.662	145.75
844.838	100.69
845.013	104.79
845.189	127.32
845.365	92.5
845.541	147.8
845.716	49.49
845.892	123.22
846.068	57.68
846.244	51.54
846.419	149.84
846.595	76.12
846.77	90.45
846.946	98.64
847.122	108.88
847.297	55.64
847.473	135.51
847.648	51.54
847.824	110.93
847.999	49.49
848.175	63.83
848.35	90.45
848.526	74.07
848.701	65.88
848.876	137.56
849.052	98.64
849.227	57.68
849.403	55.64
849.578	110.93
849.753	29.01
849.929	63.83
850.104	45.4
850.279	102.74
850.454	88.4
850.63	72.02
850.805	72.02
850.98	94.55
851.155	67.92
851.33	104.79
851.505	14.68
851.681	100.69
851.856	63.83
852.031	72.02
852.206	51.54
852.381	47.44
852.556	84.31
852.731	18.77
852.906	74.07
853.081	158.03
853.256	63.83
853.431	35.16
853.606	72.02
853.781	88.4
853.956	-20.14
854.131	63.83
854.305	51.54
854.48	12.63
854.655	53.59
854.83	88.4
855.005	49.49
855.18	74.07
855.354	125.27
855.529	49.49
855.704	22.87
855.879	51.54
856.053	127.32
856.228	100.69
856.403	33.11
856.577	86.36
856.752	37.2
856.926	131.41
857.101	8.53
857.276	-5.8
857.45	74.07
857.625	26.96
857.799	76.12
857.974	55.64
858.148	24.92
858.323	80.21
858.497	53.59
858.672	33.11
858.846	41.3
859.02	164.18
859.195	-13.99
859.369	4.44
859.543	53.59
859.718	53.59
859.892	-9.9
860.066	-28.33
860.241	-9.9
860.415	45.4
860.589	55.64
860.763	125.27
860.938	53.59
861.112	96.6
861.286	2.39
861.46	74.07
861.634	88.4
861.808	78.16
861.982	6.49
862.157	16.73
862.331	76.12
862.505	88.4
862.679	57.68
862.853	57.68
863.027	39.25
863.201	90.45
863.375	57.68
863.549	74.07
863.722	24.92
863.896	63.83
864.07	-36.52
864.244	127.32
864.418	78.16
864.592	45.4
864.766	14.68
864.939	102.74
865.113	-1.71
865.287	61.78
865.461	88.4
865.634	82.26
865.808	78.16
865.982	98.64
866.156	-20.14
866.329	24.92
866.503	61.78
866.676	26.96
866.85	49.49
867.024	31.06
867.197	8.53
867.371	72.02
867.544	49.49
867.718	-36.52
867.891	29.01
868.065	10.58
868.238	41.3
868.412	43.35
868.585	37.2
868.759	78.16
868.932	31.06
869.105	12.63
869.279	26.96
869.452	37.2
869.625	104.79
869.799	24.92
869.972	45.4
870.145	-7.85
870.319	72.02
870.492	51.54
870.665	82.26
870.838	-3.75
871.011	-13.99
871.185	65.88
871.358	59.73
871.531	35.16
871.704	57.68
871.877	90.45
872.05	8.53
872.223	45.4
872.396	18.77
872.569	-34.47
872.742	31.06
872.915	47.44
873.088	-7.85
873.261	76.12
873.434	88.4
873.607	57.68
873.78	112.98
873.953	-3.75
874.126	57.68
874.299	121.17
874.471	-28.33
874.644	16.73
874.817	131.41
874.99	78.16
875.163	53.59
875.335	39.25
875.508	53.59
875.681	82.26
875.853	6.49
876.026	76.12
876.199	80.21
876.371	22.87
876.544	47.44
876.717	-36.52
876.889	102.74
877.062	61.78
877.234	39.25
877.407	57.68
877.579	72.02
877.752	153.94
877.924	94.55
878.097	20.82
878.269	33.11
878.442	76.12
878.614	33.11
878.786	80.21
878.959	-32.43
879.131	0.34
879.303	-59.05
879.476	16.73
879.648	39.25
879.82	45.4
879.993	-16.04
880.165	69.97
880.337	-16.04
880.509	57.68
880.681	14.68
880.854	-3.75
881.026	22.87
881.198	106.84
881.37	98.64
881.542	53.59
881.714	-20.14
881.886	-9.9
882.058	29.01
882.23	33.11
882.402	115.03
882.574	16.73
882.746	31.06
882.918	45.4
883.09	80.21
883.262	39.25
883.434	78.16
883.606	49.49
883.778	129.36
883.95	67.92
884.122	72.02
884.293	49.49
884.465	84.31
884.637	37.2
884.809	-28.33
884.98	61.78
885.152	-1.71
885.324	26.96
885.496	31.06
885.667	26.96
885.839	55.64
886.011	-11.95
886.182	61.78
886.354	98.64
886.525	92.5
886.697	12.63
886.869	61.78
887.04	-13.99
887.212	82.26
887.383	115.03
887.555	65.88
887.726	37.2
887.897	31.06
888.069	55.64
888.24	20.82
888.412	39.25
888.583	8.53
888.754	67.92
888.926	12.63
889.097	86.36
889.268	-42.67
889.44	39.25
889.611	106.84
889.782	39.25
889.953	41.3
890.125	39.25
890.296	0.34
890.467	-32.43
890.638	31.06
890.809	63.83
890.98	14.68
891.151	67.92
891.323	-32.43
891.494	0.34
891.665	82.26
891.836	53.59
892.007	65.88
892.178	65.88
892.349	41.3
892.52	39.25
892.691	80.21
892.862	-1.71
893.032	37.2
893.203	102.74
893.374	49.49
893.545	78.16
893.716	35.16
893.887	12.63
894.057	45.4
894.228	29.01
894.399	-40.62
894.57	18.77
894.74	-44.71
894.911	41.3
895.082	20.82
895.253	74.07
895.423	51.54
895.594	10.58
895.764	-3.75
895.935	-3.75
896.106	10.58
896.276	94.55
896.447	-81.58
896.617	-40.62
896.788	0.34
896.958	61.78
897.129	-7.85
897.299	43.35
897.47	86.36
897.64	47.44
897.81	57.68
897.981	67.92
898.151	-28.33
898.322	84.31
898.492	74.07
898.662	-11.95
898.832	2.39
899.003	65.88
899.173	-11.95
899.343	67.92
899.513	-28.33
