Data from USB4F104151__269__10-40-39-893.txt Node

Date: Wed Mar 12 10:40:39 EDT 2025
User: louis
Spectrometer: USB4F10415
Trigger mode: 4
Integration Time (sec): 3.000000E-2
Scans to average: 1
Electric dark correction enabled: true
Nonlinearity correction enabled: false
Boxcar width: 0
XAxis mode: Wavelengths
Number of Pixels in Spectrum: 3648
>>>>>Begin Spectral Data<<<<<
178.204	-55.3
178.424	-55.3
178.644	-55.3
178.864	-165.89
179.084	-159.74
179.304	-49.15
179.524	18.43
179.744	10.24
179.964	34.82
180.184	-40.96
180.404	0
180.624	-24.58
180.844	4.1
181.064	26.62
181.283	4.1
181.503	-12.29
181.723	28.67
181.943	-114.69
182.163	51.2
182.383	24.58
182.602	40.96
182.822	12.29
183.042	45.06
183.262	18.43
183.482	-2.05
183.701	-8.19
183.921	90.11
184.141	-12.29
184.361	6.14
184.58	-12.29
184.8	36.86
185.02	40.96
185.239	81.92
185.459	53.25
185.679	49.15
185.898	38.91
186.118	100.35
186.338	-14.34
186.557	108.54
186.777	59.39
186.997	24.58
187.216	-34.82
187.436	-20.48
187.655	30.72
187.875	34.82
188.095	2.05
188.314	83.97
188.534	71.68
188.753	-30.72
188.973	92.16
189.192	83.97
189.412	14.34
189.631	-8.19
189.851	36.86
190.07	57.34
190.29	-12.29
190.509	-24.58
190.729	22.53
190.948	-24.58
191.168	102.4
191.387	83.97
191.607	14.34
191.826	47.1
192.045	81.92
192.265	4.1
192.484	43.01
192.704	40.96
192.923	12.29
193.142	116.73
193.362	53.25
193.581	26.62
193.8	36.86
194.02	53.25
194.239	28.67
194.458	51.2
194.678	75.77
194.897	88.06
195.116	12.29
195.335	51.2
195.555	59.39
195.774	53.25
195.993	26.62
196.212	36.86
196.432	-4.1
196.651	-18.43
196.87	16.38
197.089	108.54
197.308	12.29
197.528	16.38
197.747	59.39
197.966	28.67
198.185	124.93
198.404	20.48
198.623	-22.53
198.842	-22.53
199.062	0
199.281	24.58
199.5	20.48
199.719	34.82
199.938	40.96
200.157	75.77
200.376	71.68
200.595	73.73
200.814	26.62
201.033	-10.24
201.252	92.16
201.471	73.73
201.69	16.38
201.909	38.91
202.128	22.53
202.347	14.34
202.566	49.15
202.785	65.54
203.004	-10.24
203.223	114.69
203.442	38.91
203.661	24.58
203.879	12.29
204.098	-45.06
204.317	-20.48
204.536	16.38
204.755	67.58
204.974	-2.05
205.193	20.48
205.411	57.34
205.63	28.67
205.849	86.01
206.068	55.3
206.287	36.86
206.505	45.06
206.724	90.11
206.943	38.91
207.162	36.86
207.381	8.19
207.599	14.34
207.818	-10.24
208.037	24.58
208.255	26.62
208.474	90.11
208.693	36.86
208.911	116.73
209.13	67.58
209.349	63.49
209.567	67.58
209.786	90.11
210.005	24.58
210.223	59.39
210.442	-4.1
210.661	20.48
210.879	77.82
211.098	-38.91
211.316	57.34
211.535	-2.05
211.753	22.53
211.972	40.96
212.191	24.58
212.409	4.1
212.628	86.01
212.846	-10.24
213.065	81.92
213.283	83.97
213.502	65.54
213.72	86.01
213.938	67.58
214.157	32.77
214.375	55.3
214.594	18.43
214.812	51.2
215.031	38.91
215.249	-30.72
215.467	-6.14
215.686	104.45
215.904	75.77
216.122	18.43
216.341	4.1
216.559	73.73
216.778	100.35
216.996	108.54
217.214	24.58
217.432	-47.1
217.651	77.82
217.869	12.29
218.087	12.29
218.306	6.14
218.524	110.59
218.742	45.06
218.96	104.45
219.179	47.1
219.397	65.54
219.615	36.86
219.833	88.06
220.051	10.24
220.27	75.77
220.488	18.43
220.706	43.01
220.924	-79.87
221.142	28.67
221.36	-49.15
221.578	10.24
221.796	32.77
222.015	-30.72
222.233	-12.29
222.451	51.2
222.669	-18.43
222.887	120.83
223.105	-8.19
223.323	45.06
223.541	8.19
223.759	51.2
223.977	18.43
224.195	67.58
224.413	118.78
224.631	59.39
224.849	40.96
225.067	51.2
225.285	36.86
225.503	34.82
225.721	30.72
225.939	53.25
226.157	4.1
226.375	71.68
226.592	83.97
226.81	43.01
227.028	100.35
227.246	90.11
227.464	-45.06
227.682	14.34
227.9	77.82
228.117	14.34
228.335	-12.29
228.553	51.2
228.771	-6.14
228.989	16.38
229.206	32.77
229.424	-4.1
229.642	0
229.86	38.91
230.077	114.69
230.295	75.77
230.513	10.24
230.731	40.96
230.948	77.82
231.166	45.06
231.384	8.19
231.601	8.19
231.819	45.06
232.037	45.06
232.254	-47.1
232.472	22.53
232.689	73.73
232.907	22.53
233.125	10.24
233.342	73.73
233.56	12.29
233.777	-47.1
233.995	104.45
234.213	2.05
234.43	30.72
234.648	86.01
234.865	-4.1
235.083	4.1
235.3	4.1
235.518	61.44
235.735	69.63
235.953	2.05
236.17	-8.19
236.388	45.06
236.605	43.01
236.822	102.4
237.04	94.21
237.257	57.34
237.475	8.19
237.692	73.73
237.909	12.29
238.127	40.96
238.344	43.01
238.562	40.96
238.779	28.67
238.996	-12.29
239.214	55.3
239.431	49.15
239.648	18.43
239.865	77.82
240.083	69.63
240.3	55.3
240.517	12.29
240.735	-2.05
240.952	63.49
241.169	4.1
241.386	63.49
241.603	24.58
241.821	-51.2
242.038	53.25
242.255	20.48
242.472	-10.24
242.689	22.53
242.907	38.91
243.124	10.24
243.341	-12.29
243.558	-14.34
243.775	61.44
243.992	-45.06
244.209	14.34
244.426	114.69
244.643	28.67
244.86	-14.34
245.078	90.11
245.295	28.67
245.512	28.67
245.729	-38.91
245.946	77.82
246.163	92.16
246.38	16.38
246.597	32.77
246.814	10.24
247.031	57.34
247.248	40.96
247.464	20.48
247.681	10.24
247.898	55.3
248.115	49.15
248.332	16.38
248.549	43.01
248.766	94.21
248.983	57.34
249.2	0
249.417	77.82
249.633	-4.1
249.85	104.45
250.067	40.96
250.284	2.05
250.501	4.1
250.717	90.11
250.934	-32.77
251.151	32.77
251.368	-28.67
251.585	110.59
251.801	30.72
252.018	59.39
252.235	92.16
252.451	16.38
252.668	-22.53
252.885	57.34
253.102	49.15
253.318	20.48
253.535	-18.43
253.752	32.77
253.968	0
254.185	47.1
254.401	45.06
254.618	-32.77
254.835	88.06
255.051	45.06
255.268	110.59
255.484	65.54
255.701	45.06
255.917	36.86
256.134	26.62
256.351	55.3
256.567	2.05
256.784	96.25
257	-12.29
257.217	61.44
257.433	47.1
257.65	77.82
257.866	57.34
258.082	30.72
258.299	4.1
258.515	71.68
258.732	36.86
258.948	0
259.165	71.68
259.381	22.53
259.597	8.19
259.814	71.68
260.03	-8.19
260.246	98.3
260.463	34.82
260.679	53.25
260.895	4.1
261.112	26.62
261.328	20.48
261.544	4.1
261.761	57.34
261.977	88.06
262.193	-16.38
262.409	88.06
262.626	28.67
262.842	69.63
263.058	26.62
263.274	118.78
263.49	53.25
263.707	28.67
263.923	77.82
264.139	-83.97
264.355	24.58
264.571	98.3
264.787	71.68
265.004	18.43
265.22	10.24
265.436	43.01
265.652	51.2
265.868	129.02
266.084	-22.53
266.3	40.96
266.516	-10.24
266.732	-22.53
266.948	36.86
267.164	53.25
267.38	-8.19
267.596	34.82
267.812	4.1
268.028	53.25
268.244	49.15
268.46	-10.24
268.676	36.86
268.892	40.96
269.108	-30.72
269.324	10.24
269.54	10.24
269.756	61.44
269.972	8.19
270.188	26.62
270.403	-28.67
270.619	81.92
270.835	24.58
271.051	2.05
271.267	26.62
271.483	47.1
271.698	77.82
271.914	53.25
272.13	104.45
272.346	14.34
272.562	81.92
272.777	81.92
272.993	24.58
273.209	43.01
273.425	71.68
273.64	4.1
273.856	36.86
274.072	69.63
274.287	24.58
274.503	106.49
274.719	90.11
274.934	-2.05
275.15	69.63
275.366	-12.29
275.581	20.48
275.797	36.86
276.012	-38.91
276.228	14.34
276.444	-12.29
276.659	81.92
276.875	67.58
277.09	14.34
277.306	-2.05
277.521	-6.14
277.737	-8.19
277.952	40.96
278.168	51.2
278.383	61.44
278.599	-14.34
278.814	-4.1
279.03	79.87
279.245	63.49
279.461	-6.14
279.676	26.62
279.892	-26.62
280.107	-45.06
280.322	14.34
280.538	38.91
280.753	10.24
280.969	79.87
281.184	38.91
281.399	118.78
281.615	61.44
281.83	28.67
282.045	28.67
282.26	49.15
282.476	92.16
282.691	98.3
282.906	20.48
283.122	83.97
283.337	14.34
283.552	83.97
283.767	-6.14
283.983	94.21
284.198	-36.86
284.413	59.39
284.628	-8.19
284.843	-8.19
285.058	-2.05
285.274	59.39
285.489	-4.1
285.704	-4.1
285.919	49.15
286.134	57.34
286.349	24.58
286.564	12.29
286.779	112.64
286.995	-20.48
287.21	-38.91
287.425	24.58
287.64	28.67
287.855	110.59
288.07	-22.53
288.285	104.45
288.5	77.82
288.715	143.36
288.93	24.58
289.145	57.34
289.36	0
289.575	40.96
289.79	49.15
290.004	8.19
290.219	4.1
290.434	2.05
290.649	-40.96
290.864	16.38
291.079	12.29
291.294	88.06
291.509	4.1
291.724	53.25
291.938	28.67
292.153	53.25
292.368	40.96
292.583	2.05
292.798	-6.14
293.012	57.34
293.227	28.67
293.442	18.43
293.657	47.1
293.871	104.45
294.086	69.63
294.301	120.83
294.516	28.67
294.73	67.58
294.945	14.34
295.16	57.34
295.374	67.58
295.589	55.3
295.804	14.34
296.018	77.82
296.233	163.84
296.447	71.68
296.662	10.24
296.877	102.4
297.091	49.15
297.306	69.63
297.52	32.77
297.735	71.68
297.949	14.34
298.164	86.01
298.378	38.91
298.593	26.62
298.807	20.48
299.022	34.82
299.236	45.06
299.451	20.48
299.665	-40.96
299.88	-28.67
300.094	-22.53
300.309	55.3
300.523	-4.1
300.737	20.48
300.952	-12.29
301.166	61.44
301.381	45.06
301.595	43.01
301.809	57.34
302.024	8.19
302.238	32.77
302.452	122.88
302.667	77.82
302.881	16.38
303.095	92.16
303.309	49.15
303.524	-79.87
303.738	26.62
303.952	32.77
304.166	40.96
304.381	20.48
304.595	45.06
304.809	-6.14
305.023	12.29
305.237	-38.91
305.452	6.14
305.666	51.2
305.88	102.4
306.094	98.3
306.308	55.3
306.522	26.62
306.736	45.06
306.95	-12.29
307.164	-8.19
307.379	0
307.593	110.59
307.807	90.11
308.021	20.48
308.235	79.87
308.449	47.1
308.663	51.2
308.877	28.67
309.091	47.1
309.305	32.77
309.519	43.01
309.733	69.63
309.947	-4.1
310.161	86.01
310.374	124.93
310.588	65.54
310.802	2.05
311.016	4.1
311.23	12.29
311.444	22.53
311.658	2.05
311.872	69.63
312.085	18.43
312.299	83.97
312.513	122.88
312.727	51.2
312.941	12.29
313.154	96.25
313.368	75.77
313.582	-14.34
313.796	-47.1
314.009	0
314.223	47.1
314.437	90.11
314.651	22.53
314.864	69.63
315.078	34.82
315.292	22.53
315.505	-10.24
315.719	36.86
315.933	86.01
316.146	32.77
316.36	26.62
316.573	86.01
316.787	18.43
317.001	71.68
317.214	26.62
317.428	18.43
317.641	102.4
317.855	-61.44
318.068	71.68
318.282	2.05
318.495	92.16
318.709	81.92
318.922	0
319.136	77.82
319.349	43.01
319.563	116.73
319.776	118.78
319.99	-4.1
320.203	79.87
320.417	14.34
320.63	36.86
320.843	79.87
321.057	34.82
321.27	49.15
321.483	104.45
321.697	2.05
321.91	-16.38
322.124	96.25
322.337	18.43
322.55	53.25
322.763	-16.38
322.977	81.92
323.19	20.48
323.403	-38.91
323.617	59.39
323.83	90.11
324.043	36.86
324.256	77.82
324.469	49.15
324.683	79.87
324.896	-2.05
325.109	49.15
325.322	-4.1
325.535	77.82
325.748	43.01
325.962	26.62
326.175	36.86
326.388	118.78
326.601	32.77
326.814	57.34
327.027	-12.29
327.24	-38.91
327.453	-18.43
327.666	65.54
327.879	77.82
328.092	30.72
328.305	12.29
328.518	90.11
328.731	-26.62
328.944	63.49
329.157	51.2
329.37	-4.1
329.583	102.4
329.796	34.82
330.009	24.58
330.222	-10.24
330.435	73.73
330.648	43.01
330.861	36.86
331.073	57.34
331.286	34.82
331.499	26.62
331.712	36.86
331.925	45.06
332.138	65.54
332.35	100.35
332.563	22.53
332.776	81.92
332.989	18.43
333.202	102.4
333.414	22.53
333.627	26.62
333.84	53.25
334.053	38.91
334.265	47.1
334.478	2.05
334.691	-8.19
334.903	8.19
335.116	10.24
335.329	24.58
335.541	12.29
335.754	77.82
335.966	40.96
336.179	98.3
336.392	28.67
336.604	0
336.817	-6.14
337.029	32.77
337.242	69.63
337.454	77.82
337.667	104.45
337.88	83.97
338.092	32.77
338.305	108.54
338.517	53.25
338.729	-45.06
338.942	4.1
339.154	30.72
339.367	57.34
339.579	61.44
339.792	4.1
340.004	49.15
340.217	12.29
340.429	81.92
340.641	32.77
340.854	67.58
341.066	26.62
341.278	126.97
341.491	45.06
341.703	45.06
341.915	-2.05
342.128	106.49
342.34	94.21
342.552	2.05
342.764	45.06
342.977	28.67
343.189	77.82
343.401	94.21
343.613	-4.1
343.826	98.3
344.038	-10.24
344.25	53.25
344.462	90.11
344.674	75.77
344.886	63.49
345.099	135.17
345.311	69.63
345.523	14.34
345.735	-30.72
345.947	36.86
346.159	108.54
346.371	112.64
346.583	-6.14
346.795	122.88
347.007	24.58
347.219	86.01
347.431	69.63
347.643	126.97
347.855	20.48
348.067	71.68
348.279	71.68
348.491	98.3
348.703	90.11
348.915	43.01
349.127	67.58
349.339	55.3
349.551	69.63
349.763	98.3
349.975	-34.82
350.187	4.1
350.399	69.63
350.61	69.63
350.822	94.21
351.034	24.58
351.246	34.82
351.458	40.96
351.669	77.82
351.881	47.1
352.093	-10.24
352.305	57.34
352.517	57.34
352.728	40.96
352.94	81.92
353.152	49.15
353.363	178.17
353.575	55.3
353.787	59.39
353.999	94.21
354.21	65.54
354.422	38.91
354.633	65.54
354.845	-20.48
355.057	10.24
355.268	61.44
355.48	53.25
355.692	28.67
355.903	73.73
356.115	63.49
356.326	-61.44
356.538	106.49
356.749	-2.05
356.961	131.07
357.172	79.87
357.384	6.14
357.595	69.63
357.807	28.67
358.018	28.67
358.23	100.35
358.441	92.16
358.653	83.97
358.864	12.29
359.075	10.24
359.287	51.2
359.498	28.67
359.709	90.11
359.921	69.63
360.132	45.06
360.344	77.82
360.555	-24.58
360.766	-2.05
360.977	63.49
361.189	86.01
361.4	-12.29
361.611	139.26
361.823	100.35
362.034	-4.1
362.245	57.34
362.456	45.06
362.667	-2.05
362.879	43.01
363.09	55.3
363.301	61.44
363.512	8.19
363.723	59.39
363.935	-16.38
364.146	36.86
364.357	86.01
364.568	90.11
364.779	-30.72
364.99	36.86
365.201	83.97
365.412	79.87
365.623	14.34
365.834	38.91
366.045	110.59
366.256	79.87
366.467	28.67
366.678	10.24
366.889	55.3
367.1	26.62
367.311	65.54
367.522	61.44
367.733	133.12
367.944	61.44
368.155	45.06
368.366	26.62
368.577	69.63
368.788	53.25
368.999	-10.24
369.209	38.91
369.42	69.63
369.631	73.73
369.842	2.05
370.053	77.82
370.264	124.93
370.474	65.54
370.685	71.68
370.896	-26.62
371.107	73.73
371.317	-28.67
371.528	18.43
371.739	124.93
371.95	122.88
372.16	51.2
372.371	36.86
372.582	88.06
372.792	81.92
373.003	22.53
373.214	4.1
373.424	38.91
373.635	-8.19
373.846	143.36
374.056	81.92
374.267	69.63
374.477	53.25
374.688	96.25
374.898	67.58
375.109	116.73
375.319	61.44
375.53	38.91
375.74	75.77
375.951	126.97
376.161	65.54
376.372	100.35
376.582	65.54
376.793	81.92
377.003	38.91
377.214	90.11
377.424	28.67
377.635	94.21
377.845	24.58
378.055	102.4
378.266	14.34
378.476	106.49
378.686	-4.1
378.897	65.54
379.107	137.21
379.317	69.63
379.528	28.67
379.738	69.63
379.948	65.54
380.158	133.12
380.369	-22.53
380.579	67.58
380.789	102.4
380.999	14.34
381.21	45.06
381.42	141.31
381.63	108.54
381.84	40.96
382.05	147.45
382.261	167.93
382.471	28.67
382.681	90.11
382.891	51.2
383.101	155.65
383.311	28.67
383.521	57.34
383.731	90.11
383.941	167.93
384.151	92.16
384.361	47.1
384.571	49.15
384.781	88.06
384.991	79.87
385.201	192.51
385.411	83.97
385.621	45.06
385.831	20.48
386.041	151.55
386.251	43.01
386.461	133.12
386.671	116.73
386.881	63.49
387.091	22.53
387.301	81.92
387.511	69.63
387.72	112.64
387.93	98.3
388.14	0
388.35	57.34
388.56	98.3
388.769	108.54
388.979	110.59
389.189	133.12
389.399	118.78
389.609	61.44
389.818	124.93
390.028	61.44
390.238	47.1
390.447	36.86
390.657	108.54
390.867	129.02
391.076	63.49
391.286	73.73
391.496	88.06
391.705	124.93
391.915	135.17
392.125	114.69
392.334	81.92
392.544	143.36
392.753	120.83
392.963	43.01
393.172	83.97
393.382	36.86
393.591	120.83
393.801	90.11
394.01	92.16
394.22	106.49
394.429	94.21
394.639	20.48
394.848	67.58
395.058	81.92
395.267	53.25
395.477	73.73
395.686	94.21
395.895	133.12
396.105	139.26
396.314	86.01
396.524	92.16
396.733	81.92
396.942	202.75
397.152	94.21
397.361	104.45
397.57	98.3
397.78	73.73
397.989	108.54
398.198	210.94
398.407	81.92
398.617	108.54
398.826	151.55
399.035	106.49
399.244	143.36
399.453	96.25
399.663	139.26
399.872	188.41
400.081	71.68
400.29	155.65
400.499	110.59
400.708	139.26
400.917	81.92
401.127	184.32
401.336	116.73
401.545	151.55
401.754	129.02
401.963	153.6
402.172	100.35
402.381	129.02
402.59	149.5
402.799	167.93
403.008	176.13
403.217	98.3
403.426	141.31
403.635	122.88
403.844	157.69
404.053	100.35
404.262	151.55
404.471	165.89
404.68	221.18
404.888	116.73
405.097	161.79
405.306	215.04
405.515	227.32
405.724	165.89
405.933	126.97
406.142	108.54
406.35	212.99
406.559	186.37
406.768	249.85
406.977	268.28
407.185	196.61
407.394	286.72
407.603	151.55
407.812	241.66
408.02	276.48
408.229	249.85
408.438	266.24
408.646	251.9
408.855	274.43
409.064	317.44
409.272	272.38
409.481	333.82
409.69	366.59
409.898	319.48
410.107	372.73
410.315	409.59
410.524	393.21
410.733	473.08
410.941	401.4
411.15	454.65
411.358	509.94
411.567	477.18
411.775	471.03
411.984	479.22
412.192	489.46
412.401	481.27
412.609	571.38
412.818	655.35
413.026	563.19
413.234	544.76
413.443	575.48
413.651	686.07
413.86	649.21
414.068	737.27
414.276	681.97
414.485	702.45
414.693	786.42
414.901	788.47
415.11	860.15
415.318	804.85
415.526	792.56
415.734	786.42
415.943	950.26
416.151	995.31
416.359	909.3
416.567	923.63
416.776	978.93
416.984	1138.67
417.192	1153.01
417.4	1079.28
417.608	1052.66
417.817	1140.72
418.025	1198.06
418.233	1376.24
418.441	1282.03
418.649	1384.43
418.857	1427.43
419.065	1583.08
419.273	1529.83
419.481	1597.42
419.689	1667.05
419.897	1777.64
420.105	1804.26
420.313	1671.14
420.521	1882.08
420.729	1972.19
420.937	2062.3
421.145	2060.26
421.353	2164.7
421.561	2283.49
421.769	2293.73
421.977	2367.45
422.185	2373.6
422.393	2539.48
422.601	2625.5
422.809	2658.26
423.017	2693.08
423.224	2805.72
423.432	3059.67
423.64	2983.89
423.848	3151.82
424.056	3074
424.263	3395.53
424.471	3297.23
424.679	3403.72
424.887	3665.86
425.094	3715.02
425.302	3764.17
425.51	3919.81
425.718	3911.62
425.925	4192.19
426.133	4237.25
426.341	4241.34
426.548	4661.18
426.756	4573.11
426.964	4603.83
427.171	4956.08
427.379	5081.01
427.586	5205.94
427.794	5371.82
428.001	5599.15
428.209	5889.96
428.417	5730.22
428.624	6186.91
428.832	6229.92
429.039	6102.95
429.247	6061.99
429.454	6680.47
429.662	7186.32
429.869	6594.46
430.076	7360.4
430.284	6852.5
430.491	7323.54
430.699	7651.21
430.906	7796.62
431.114	7851.91
431.321	8152.96
431.528	8365.95
431.736	8697.72
431.943	9144.18
432.15	8818.55
432.358	8953.72
432.565	9469.81
432.772	9650.03
432.979	9971.56
433.187	10293.09
433.394	10086.25
433.601	10903.39
433.808	10637.15
434.016	10909.53
434.223	11331.41
434.43	12121.93
434.637	11775.82
434.844	12410.69
435.052	12980.03
435.259	12617.54
435.466	12799.8
435.673	12736.32
435.88	13610.8
436.087	14255.91
436.294	14262.05
436.501	13727.53
436.708	14094.12
436.915	14675.74
437.122	15292.18
437.329	15017.75
437.537	15695.63
437.743	15904.53
437.95	16011.02
438.157	16656.13
438.364	17264.38
438.571	17288.95
438.778	17397.49
438.985	18960.09
439.192	18153.19
439.399	18908.9
439.606	18292.46
439.813	19234.52
440.02	20573.89
440.227	19959.5
440.433	20278.99
440.64	20688.58
440.847	20727.49
441.054	21165.76
441.261	22574.76
441.467	22136.49
441.674	22617.77
441.881	23600.79
442.088	23658.13
442.294	23209.63
442.501	24030.87
442.708	24225.42
442.914	25095.81
443.121	26044.02
443.328	25876.09
443.534	27616.86
443.741	26762.86
443.948	26091.12
444.154	28046.93
444.361	28044.88
444.568	28628.56
444.774	27948.63
444.981	28528.2
445.187	29488.7
445.394	30645.8
445.6	30311.99
445.807	33080.84
446.013	31661.6
446.22	32333.33
446.426	33283.59
446.633	33900.03
446.839	34340.34
447.046	33472
447.252	35245.54
447.459	35395.04
447.665	34956.78
447.871	36517.33
448.078	38110.65
448.284	36412.88
448.491	37457.35
448.697	38935.98
448.903	39085.48
449.11	39374.25
449.316	38360.5
449.522	39763.36
449.728	40568.21
449.935	41000.33
450.141	40277.4
450.347	41719.17
450.553	40056.22
450.76	40340.89
450.966	41594.25
451.172	41344.39
451.378	42294.65
451.584	41172.36
451.791	42214.78
451.997	42182.01
452.203	43146.61
452.409	42808.69
452.615	42550.65
452.821	41299.34
453.027	40412.57
453.233	42685.81
453.44	40793.49
453.646	41381.26
453.852	41409.93
454.058	42169.72
454.264	40631.7
454.47	41573.77
454.676	40234.39
454.882	41637.25
455.088	38280.63
455.294	38434.23
455.5	39019.95
455.705	39622.05
455.911	37731.78
456.117	37209.54
456.323	36818.38
456.529	34567.66
456.735	36304.34
456.941	34899.44
457.147	34338.29
457.352	33510.91
457.558	33097.22
457.764	33168.9
457.97	32450.06
458.176	31909.4
458.381	31706.65
458.587	30277.17
458.793	30170.68
458.999	28376.65
459.204	30492.21
459.41	29828.66
459.616	27784.79
459.821	27817.56
460.027	27911.77
460.233	27047.52
460.438	25478.78
460.644	26113.65
460.85	24592.01
461.055	24385.16
461.261	24217.23
461.466	22808.23
461.672	22062.77
461.878	23352.99
462.083	22015.66
462.289	21585.59
462.494	21593.78
462.7	20719.3
462.905	20012.75
463.111	20682.44
463.316	20733.64
463.522	20365
463.727	20362.95
463.932	20213.45
464.138	20133.58
464.343	20049.61
464.549	19424.98
464.754	20213.45
464.959	20143.82
465.165	20027.09
465.37	19388.12
465.575	18845.41
465.781	19429.08
465.986	19685.08
466.191	18794.21
466.397	18650.85
466.602	17422.07
466.807	18247.4
467.012	18269.93
467.218	18454.25
467.423	17676.02
467.628	17884.91
467.833	18984.67
468.038	18159.34
468.244	17534.71
468.449	18167.53
468.654	17495.8
468.859	17530.61
469.064	17493.75
469.269	16559.88
469.474	16948.99
469.679	17219.32
469.885	16514.82
470.09	17053.44
470.295	16819.97
470.5	16447.24
470.705	16586.5
470.91	15879.95
471.115	15722.26
471.32	16162.57
471.525	16168.71
471.73	15693.58
471.935	15417.11
472.139	15204.12
472.344	15181.59
472.549	15159.06
472.754	15056.67
472.959	14733.09
473.164	14352.17
473.369	14292.77
473.574	14620.45
473.778	14645.02
473.983	14157.61
474.188	14155.56
474.393	13723.44
474.598	13766.45
474.802	13702.96
475.007	13291.32
475.212	13680.43
475.417	12941.11
475.621	13063.99
475.826	13315.89
476.031	12742.46
476.235	12721.98
476.44	12865.34
476.645	12683.07
476.849	12801.85
477.054	12425.03
477.259	12422.98
477.463	12228.42
477.668	12115.78
477.872	12121.93
478.077	12050.25
478.282	11712.33
478.486	11577.17
478.691	11611.98
478.895	11450.19
479.1	11718.48
479.304	11411.28
479.509	11093.85
479.713	11497.3
479.918	11140.95
480.122	10790.75
480.326	11315.03
480.531	11255.64
480.735	11050.84
480.94	11093.85
481.144	11028.31
481.348	10590.05
481.553	10839.9
481.757	10559.33
481.961	10866.52
482.166	10813.27
482.37	10831.71
482.574	10594.14
482.778	10606.43
482.983	10975.06
483.187	10671.97
483.391	10692.44
483.595	10686.3
483.8	10389.35
484.004	10858.33
484.208	10895.19
484.412	10749.79
484.616	10979.16
484.821	10878.81
485.025	10692.44
485.229	11016.02
485.433	10598.24
485.637	10815.32
485.841	10473.31
486.045	10588
486.249	10927.96
486.453	10784.6
486.657	10907.48
486.861	10755.93
487.065	10428.26
487.269	10735.45
487.473	10643.29
487.677	10968.92
487.881	10839.9
488.085	10663.77
488.289	10975.06
488.493	10751.84
488.697	10864.47
488.901	10848.09
489.105	10927.96
489.309	11013.98
489.512	10825.56
489.716	11091.8
489.92	10805.08
490.124	11016.02
490.328	11061.08
490.531	11016.02
490.735	11214.68
490.939	11233.11
491.143	11294.55
491.346	11104.09
491.55	11380.56
491.754	11394.9
491.958	11429.71
492.161	11286.36
492.365	11331.41
492.569	11341.65
492.772	11446.1
492.976	11644.75
493.18	11628.37
493.383	11851.6
493.587	11890.51
493.79	11990.86
493.994	11706.19
494.197	12029.77
494.401	12097.35
494.605	12222.28
494.808	12414.79
495.012	12437.31
495.215	12279.62
495.419	12269.38
495.622	12435.27
495.825	12730.17
496.029	12629.82
496.232	13160.25
496.436	12797.76
496.639	13315.89
496.843	13092.66
497.046	13649.71
497.249	13518.64
497.453	13707.05
497.656	13700.91
497.859	13897.52
498.063	14192.42
498.266	14343.97
498.469	13979.43
498.673	14384.93
498.876	14821.15
499.079	14825.25
499.282	14677.79
499.485	15251.22
499.689	15179.54
499.892	15550.23
500.095	15513.36
500.298	15806.22
500.501	15752.98
500.705	16170.76
500.908	16453.38
501.111	16398.09
501.314	16772.86
501.517	16725.76
501.72	17108.73
501.923	16969.47
502.126	17567.48
502.329	17731.31
502.532	17712.88
502.735	17823.47
502.938	18159.34
503.141	18401
503.344	18548.45
503.547	18546.4
503.75	19003.1
503.953	19150.56
504.156	19236.57
504.359	19762.9
504.562	19578.58
504.765	20268.75
504.968	20479.69
505.17	20686.53
505.373	20336.33
505.576	20950.72
505.779	21223.1
505.982	21221.05
506.185	21651.13
506.387	21563.06
506.59	21956.27
506.793	22552.23
506.996	22337.2
507.198	23017.12
507.401	22761.12
507.604	23211.68
507.807	23723.67
508.009	23873.17
508.212	23680.66
508.415	24139.41
508.617	24700.55
508.82	24370.83
509.022	24487.56
509.225	25280.13
509.428	25200.26
509.63	25486.97
509.833	25603.71
510.035	26111.6
510.238	25996.92
510.44	26547.82
510.643	27057.76
510.845	26953.32
511.048	26891.88
511.25	27180.64
511.453	27448.93
511.655	28669.51
511.858	28044.88
512.06	28661.32
512.262	28728.91
512.465	28808.78
512.667	29460.03
512.87	29537.85
513.072	29888.06
513.274	30285.36
513.477	30467.63
513.679	30471.73
513.881	30907.94
514.084	31450.66
514.286	31385.12
514.488	31634.97
514.69	32364.05
514.893	32548.37
515.095	32618
515.297	32689.68
515.499	33183.24
515.701	33273.35
515.904	33654.27
516.106	34024.95
516.308	34272.76
516.51	35032.55
516.712	34997.74
516.914	35145.19
517.116	35751.39
517.318	36281.81
517.52	36210.14
517.722	36701.65
517.925	36715.98
518.127	37168.58
518.329	37426.63
518.531	37379.53
518.733	38081.98
518.935	38397.37
519.136	38145.47
519.338	38974.89
519.54	39194.03
519.742	39423.4
519.944	40033.69
520.146	40332.7
520.348	40213.91
520.55	40746.39
520.752	40621.46
520.954	41547.14
521.155	41325.96
521.357	41649.54
521.559	41862.53
521.761	42435.96
521.963	42227.07
522.164	42988.91
522.366	42964.34
522.568	43169.13
522.77	43591.01
522.971	44227.93
523.173	44060
523.375	44729.69
523.576	44338.52
523.778	44455.26
523.98	45225.29
524.181	45151.57
524.383	45452.62
524.584	45827.4
524.786	45929.8
524.988	45782.34
525.189	46519.61
525.391	46830.9
525.592	46896.44
525.794	47396.14
525.995	46986.55
526.197	47154.48
526.398	47248.69
526.6	47609.13
526.801	48100.64
527.003	48315.68
527.204	48467.23
527.406	48452.89
527.607	48551.2
527.808	48819.48
528.01	48211.23
528.211	48737.56
528.412	49511.69
528.614	49069.33
528.815	49460.49
529.016	50068.74
529.218	49083.67
529.419	49825.03
529.62	49714.44
529.822	49509.64
530.023	49954.05
530.224	50320.64
530.425	49935.62
530.626	49943.81
530.828	49814.79
531.029	50994.42
531.23	50169.09
531.431	50552.06
531.632	50738.43
531.833	50652.41
532.035	51031.29
532.236	50488.57
532.437	50806.01
532.638	50685.18
532.839	51082.48
533.04	51234.03
533.241	50742.52
533.442	51705.07
533.643	50943.22
533.844	51494.13
534.045	51401.97
534.246	50879.74
534.447	51328.24
534.648	50896.12
534.849	50975.99
535.05	51213.55
535.251	51066.1
535.451	51070.2
535.652	51371.25
535.853	51823.85
536.054	51266.8
536.255	51502.32
536.456	51047.67
536.657	52079.85
536.857	51080.44
537.058	51049.72
537.259	51416.3
537.46	51463.41
537.66	51238.13
537.861	51293.43
538.062	51248.37
538.263	51258.61
538.463	51127.54
538.664	51377.39
538.865	51666.16
539.065	51305.71
539.266	50756.86
539.466	51614.96
539.667	50910.46
539.868	51487.98
540.068	51350.77
540.269	51512.56
540.469	51438.83
540.67	50980.09
540.87	51246.32
541.071	51508.46
541.271	51223.79
541.472	51254.51
541.672	51131.64
541.873	51170.55
542.073	50173.19
542.274	51621.1
542.474	50793.72
542.675	50795.77
542.875	51053.81
543.075	51369.2
543.276	50515.2
543.476	51500.27
543.676	50615.55
543.877	51262.71
544.077	51395.82
544.277	51029.24
544.478	50877.69
544.678	51152.12
544.878	50799.86
545.078	51072.24
545.279	50461.95
545.479	51006.71
545.679	50873.59
545.879	50892.02
546.079	51008.76
546.28	50861.3
546.48	51225.84
546.68	51166.45
546.88	50756.86
547.08	50988.28
547.28	50578.68
547.48	50527.49
547.68	50701.56
547.88	50347.26
548.081	50638.08
548.281	50758.91
548.481	50464
548.681	51168.5
548.881	50363.65
549.081	50451.71
549.28	50349.31
549.48	50773.24
549.68	50468.09
549.88	51492.08
550.08	50273.54
550.28	50554.11
550.48	50187.52
550.68	50687.23
550.88	50074.88
551.08	50429.18
551.279	50386.18
551.479	49945.86
551.679	50418.94
551.879	50347.26
552.079	50451.71
552.278	50152.71
552.478	50832.63
552.678	50111.75
552.878	50527.49
553.077	50312.45
553.277	50103.56
553.477	50758.91
553.676	50183.43
553.876	50615.55
554.076	49360.14
554.275	50038.02
554.475	49446.16
554.674	50504.96
554.874	50218.24
555.074	49804.55
555.273	49560.84
555.473	50164.99
555.672	49634.57
555.872	49949.96
556.071	49808.65
556.271	49814.79
556.47	49480.97
556.67	49452.3
556.869	49284.37
557.068	49765.64
557.268	49132.82
557.467	49650.95
557.667	49057.04
557.866	49104.15
558.065	49276.18
558.265	48739.61
558.464	48874.77
558.663	49468.69
558.863	48676.12
559.062	49716.49
559.261	48448.8
559.461	49374.48
559.66	48313.63
559.859	49050.9
560.058	48559.39
560.258	48694.55
560.457	48272.67
560.656	48309.53
560.855	48182.56
561.054	48375.07
561.253	48227.62
561.453	48291.1
561.652	48151.84
561.851	48579.87
562.05	47484.2
562.249	47295.79
562.448	48276.77
562.647	47822.12
562.846	47615.27
563.045	47940.9
563.244	46978.36
563.443	47584.55
563.642	46652.73
563.841	47154.48
564.04	46888.24
564.239	47402.28
564.438	46644.54
564.637	46865.72
564.836	47275.31
565.035	46173.5
565.234	46445.88
565.432	46816.57
565.631	46343.48
565.83	46359.87
566.029	46204.22
566.228	46366.01
566.427	46404.92
566.625	45845.83
566.824	45176.14
567.023	45741.38
567.222	45032.78
567.42	45808.97
567.619	45817.16
567.818	45210.96
568.016	45380.94
568.215	46032.19
568.414	45108.56
568.612	45778.25
568.811	44979.54
569.01	44914
569.208	44133.73
569.407	45006.16
569.605	44535.13
569.804	45073.74
570.002	44064.1
570.201	44830.04
570.4	44031.33
570.598	43900.26
570.797	43773.28
570.995	44100.96
571.193	43400.55
571.392	43953.51
571.59	43437.42
571.789	43541.86
571.987	43042.16
572.186	43629.93
572.384	43042.16
572.582	43324.78
572.781	43394.41
572.979	42661.24
573.177	43079.02
573.376	42902.9
573.574	42308.99
573.772	42769.78
573.971	42610.04
574.169	42311.03
574.367	42169.72
574.565	42161.53
574.763	41858.43
574.962	41952.64
575.16	42003.84
575.358	42055.04
575.556	41414.02
575.754	41973.12
575.952	41344.39
576.151	41325.96
576.349	40883.6
576.547	41422.22
576.745	41231.75
576.943	40805.78
577.141	40998.29
577.339	41244.04
577.537	40594.84
577.735	40730
577.933	40285.59
578.131	40787.35
578.329	40056.22
578.527	40146.33
578.725	40369.56
578.923	40054.17
579.121	39931.29
579.319	40222.11
579.516	39597.48
579.714	39818.66
579.912	39706.02
580.11	39513.51
580.308	39454.12
580.506	39091.63
580.704	38917.55
580.901	39120.3
581.099	39476.65
581.297	38884.78
581.495	39062.96
581.692	39255.47
581.89	38405.56
582.088	38712.75
582.285	38524.34
582.483	38792.62
582.681	38632.88
582.878	38182.33
583.076	37647.81
583.274	38258.1
583.471	37895.61
583.669	38211
583.866	37707.2
584.064	37952.96
584.262	37240.26
584.459	37508.55
584.657	37557.7
584.854	37723.58
585.052	37082.57
585.249	37129.67
585.447	37101
585.644	36797.9
585.841	36750.8
586.039	37174.73
586.236	36531.67
586.434	36464.08
586.631	36247
586.828	36546
587.026	36115.93
587.223	36070.87
587.42	36279.77
587.618	36097.5
587.815	35550.69
588.012	35653.09
588.21	35493.35
588.407	36013.53
588.604	35429.86
588.801	35382.76
588.999	35124.71
589.196	35010.03
589.393	35163.62
589.59	34608.62
589.787	34811.37
589.984	34702.83
590.182	34401.78
590.379	34985.45
590.576	34239.99
590.773	34469.36
590.97	34225.65
591.167	34326
591.364	33869.31
591.561	34469.36
591.758	33498.62
591.955	33705.47
592.152	33586.69
592.349	33558.02
592.546	33697.28
592.743	33541.63
592.94	33043.98
593.137	33623.55
593.334	33383.94
593.531	33218.05
593.727	33119.75
593.924	32955.91
594.121	32806.41
594.318	32753.16
594.515	32634.38
594.712	32654.86
594.908	32566.8
595.105	32704.01
595.302	32097.81
595.499	32405.01
595.696	32063
595.892	31888.92
596.089	32106.01
596.286	31905.31
596.482	31725.08
596.679	31843.87
596.876	31624.73
597.072	31600.16
597.269	31331.87
597.466	31456.8
597.662	31049.25
597.859	31323.68
598.055	31153.7
598.252	31153.7
598.448	30832.17
598.645	30916.14
598.841	30273.07
599.038	30701.1
599.234	30311.99
599.431	30213.68
599.627	30094.9
599.824	30514.73
600.02	29886.01
600.217	30197.3
600.413	30234.16
600.609	30000.69
600.806	29601.34
601.002	29873.72
601.198	29685.31
601.395	29513.28
601.591	29253.19
601.787	29374.02
601.984	29447.74
602.18	29441.6
602.376	29068.87
602.572	28859.98
602.769	28855.88
602.965	28661.32
603.161	28878.41
603.357	28454.48
603.553	28700.23
603.75	28542.54
603.946	28214.87
604.142	28286.54
604.338	27952.73
604.534	28362.32
604.73	28055.12
604.926	27850.33
605.122	27956.82
605.318	27416.16
605.514	27686.49
605.71	27745.88
605.906	27637.34
606.102	27414.11
606.298	27424.35
606.494	27379.29
606.69	27416.16
606.886	27563.61
607.082	26918.5
607.278	26881.64
607.474	26967.65
607.67	27467.36
607.866	26506.86
608.062	27500.12
608.257	26891.88
608.453	26791.53
608.649	26895.97
608.845	26635.88
609.041	26207.86
609.236	26764.9
609.432	26369.65
609.628	26529.39
609.824	26257.01
610.019	26113.65
610.215	26089.07
610.411	26343.02
610.606	26293.87
610.802	26228.34
610.998	25880.18
611.193	26044.02
611.389	25691.77
611.584	25851.51
611.78	25638.52
611.976	25669.24
612.171	26013.3
612.367	25552.51
612.562	25564.79
612.758	25390.72
612.953	25339.52
613.149	25464.44
613.344	24897.16
613.539	25622.14
613.735	25222.78
613.93	25187.97
614.126	25097.86
614.321	25376.38
614.517	25013.89
614.712	25003.65
614.907	24680.07
615.103	25032.32
615.298	24837.76
615.493	25048.71
615.688	24309.39
615.884	25065.09
616.079	24350.35
616.274	24901.25
616.47	24374.92
616.665	24303.25
616.86	24272.53
617.055	24442.51
617.25	24270.48
617.445	24761.99
617.641	23907.99
617.836	24245.9
618.031	23928.47
618.226	24030.87
618.421	23983.76
618.616	23977.62
618.811	23656.09
619.006	23867.03
619.201	23479.96
619.396	23768.73
619.591	23389.85
619.786	23457.43
619.981	22988.45
620.176	23166.62
620.371	22916.77
620.566	22910.63
620.761	22834.85
620.956	22787.75
621.151	22439.59
621.346	22515.37
621.541	22101.68
621.735	22617.77
621.93	22103.73
622.125	21948.08
622.32	21825.2
622.515	22046.38
622.709	21628.6
622.904	21663.41
623.099	21675.7
623.294	21487.29
623.488	21225.15
623.683	21481.14
623.878	21163.71
624.072	21151.42
624.267	20707.01
624.462	20668.1
624.656	20125.39
624.851	20586.18
625.046	20551.37
625.24	20670.15
625.435	20061.9
625.629	20197.07
625.824	20115.15
626.018	20192.97
626.213	19298.01
626.407	19928.78
626.602	19332.82
626.796	19893.97
626.991	19637.97
627.185	19461.85
627.38	19287.77
627.574	19097.31
627.768	18984.67
627.963	18892.51
628.157	18767.59
628.352	18726.63
628.546	18530.02
628.74	18691.81
628.935	18163.43
629.129	18534.12
629.323	17985.26
629.517	18142.96
629.712	17977.07
629.906	17831.66
630.1	17657.59
630.294	17843.95
630.489	17673.97
630.683	17759.98
630.877	17145.59
631.071	17360.63
631.265	17161.98
631.459	17485.56
631.653	17276.66
631.848	16994.04
632.042	16844.54
632.236	17207.03
632.43	16666.37
632.624	16936.7
632.818	16639.75
633.012	16504.58
633.206	16418.57
633.4	16584.45
633.594	16236.3
633.788	16129.8
633.982	16174.86
634.176	16148.23
634.369	15781.65
634.563	15712.02
634.757	15550.23
634.951	15777.55
635.145	15595.28
635.339	15810.32
635.533	15521.56
635.726	15642.39
635.92	15179.54
636.114	15097.63
636.308	15136.54
636.501	14962.46
636.695	14991.13
636.889	14683.94
637.083	14700.32
637.276	14946.08
637.47	14620.45
637.664	14372.64
637.857	14518.05
638.051	14303.01
638.244	14229.29
638.438	14288.68
638.632	14169.9
638.825	14087.98
639.019	13885.23
639.212	13893.42
639.406	13965.1
639.599	13651.76
639.793	13680.43
639.986	13508.4
640.18	13557.55
640.373	13449.01
640.567	13268.79
640.76	13457.2
640.954	13098.81
641.147	13004.6
641.34	13115.19
641.534	13070.14
641.727	13160.25
641.92	12834.62
642.114	12803.9
642.307	12734.27
642.5	12427.07
642.694	12654.4
642.887	12504.9
643.08	12758.85
643.273	12312.39
643.467	12205.89
643.66	12076.87
643.853	11927.37
644.046	12142.41
644.239	12078.92
644.432	11953.99
644.626	11888.46
644.819	11831.12
645.012	11804.49
645.205	11638.61
645.398	11687.76
645.591	11499.34
645.784	11458.39
645.977	11380.56
646.17	11280.21
646.363	11466.58
646.556	11153.24
646.749	11126.61
646.942	11239.25
647.135	11206.49
647.328	11036.5
647.521	10958.68
647.714	10751.84
647.907	11040.6
648.099	10635.1
648.292	10751.84
648.485	10807.13
648.678	10434.4
648.871	10358.63
649.064	10350.43
649.256	10467.17
649.449	10375.01
649.642	10241.89
649.835	10106.73
650.027	10473.31
650.22	10395.49
650.413	10067.81
650.605	10147.69
650.798	9987.94
650.991	9897.83
651.183	9987.94
651.376	9645.93
651.568	9736.04
651.761	9781.1
651.954	9879.4
652.146	9570.16
652.339	9719.66
652.531	9619.31
652.724	9508.72
652.916	9242.48
653.109	9293.68
653.301	9269.11
653.494	9408.37
653.686	9207.67
653.879	9265.01
654.071	9363.31
654.263	8982.39
654.456	9025.4
654.648	8982.39
654.84	8822.65
655.033	8695.68
655.225	9047.93
655.417	8789.88
655.61	8841.08
655.802	8910.71
655.994	8714.11
656.186	8583.04
656.379	8413.06
656.571	8548.22
656.763	8447.87
656.955	8427.39
657.148	8349.57
657.34	8243.07
657.532	8310.66
657.724	8345.47
657.916	8175.49
658.108	8124.29
658.3	8085.38
658.492	8013.7
658.684	7946.12
658.876	7872.39
659.068	7788.43
659.26	7917.45
659.452	7858.06
659.644	7901.06
659.836	7632.78
660.028	7788.43
660.22	7585.68
660.412	7620.49
660.604	7520.14
660.796	7800.71
660.988	7587.72
661.18	7419.79
661.372	7393.17
661.563	7481.23
661.755	7276.43
661.947	7206.8
662.139	7258
662.331	7278.48
662.522	7045.01
662.714	7081.88
662.906	7053.2
663.097	7169.94
663.289	6918.04
663.481	6995.86
663.673	6975.38
663.864	7018.39
664.056	6977.43
664.247	6901.65
664.439	6735.77
664.631	6952.85
664.822	6803.35
665.014	6854.55
665.205	6694.81
665.397	6719.39
665.588	6645.66
665.78	6438.81
665.971	6565.79
666.163	6598.56
666.354	6500.25
666.546	6434.72
666.737	6416.29
666.929	6520.73
667.12	6453.15
667.311	6506.4
667.503	6330.27
667.694	6283.17
667.885	6166.43
668.077	6313.89
668.268	6119.33
668.459	6131.62
668.651	6186.91
668.842	6117.28
669.033	6057.89
669.224	6045.6
669.416	6098.85
669.607	6074.28
669.798	6035.36
669.989	6131.62
670.18	6041.51
670.371	5892.01
670.563	5920.68
670.754	5867.43
670.945	5754.79
671.136	5834.66
671.327	5705.64
671.518	5719.98
671.709	5691.31
671.9	5855.14
672.091	5668.78
672.282	5652.39
672.473	5584.81
672.664	5566.38
672.855	5537.71
673.046	5697.45
673.237	5525.42
673.428	5562.28
673.619	5562.28
673.809	5400.49
674	5554.09
674.191	5318.57
674.382	5347.25
674.573	5367.73
674.764	5320.62
674.954	5472.17
675.145	5363.63
675.336	5220.27
675.527	5228.46
675.717	5296.05
675.908	5371.82
676.099	5242.8
676.289	5226.42
676.48	5347.25
676.671	5250.99
676.861	5263.28
677.052	5072.82
677.243	4984.76
677.433	5097.39
677.624	5025.72
677.814	5111.73
678.005	5050.29
678.195	5050.29
678.386	5074.87
678.576	5091.25
678.767	5173.17
678.957	5011.38
679.148	4925.36
679.338	4954.04
679.529	5040.05
679.719	4927.41
679.909	4970.42
680.1	5013.43
680.29	5078.96
680.481	4988.85
680.671	4935.6
680.861	4894.65
681.052	5013.43
681.242	4800.44
681.432	4902.84
681.622	4763.58
681.813	4960.18
682.003	4954.04
682.193	4861.88
682.383	4908.98
682.573	4810.68
682.764	4687.8
682.954	4749.24
683.144	4730.81
683.334	4808.63
683.524	4661.18
683.714	4605.88
683.904	4519.87
684.094	4790.2
684.284	4585.4
684.474	4732.86
684.664	4523.96
684.854	4677.56
685.044	4599.74
685.234	4474.81
685.424	4607.93
685.614	4599.74
685.804	4679.61
685.994	4419.52
686.184	4556.73
686.374	4587.45
686.564	4515.77
686.753	4530.11
686.943	4444.09
687.133	4435.9
687.323	4411.32
687.513	4419.52
687.702	4317.12
687.892	4370.37
688.082	4290.49
688.272	4296.64
688.461	4315.07
688.651	4403.13
688.841	4253.63
689.03	4073.41
689.22	4300.73
689.41	4384.7
689.599	4165.57
689.789	4288.45
689.979	4147.14
690.168	4247.49
690.358	4065.22
690.547	4157.38
690.737	4011.97
690.926	4138.94
691.116	3938.24
691.305	4202.43
691.495	3901.38
691.684	4100.03
691.874	3989.44
692.063	3897.28
692.252	3950.53
692.442	3915.72
692.631	4036.55
692.82	3960.77
693.01	3885
693.199	3803.08
693.388	3768.26
693.578	3809.22
693.767	3739.59
693.956	3893.19
694.146	3778.5
694.335	3639.24
694.524	3811.27
694.713	3833.8
694.902	3936.2
695.092	3753.93
695.281	3629
695.47	3829.7
695.659	3631.05
695.848	3764.17
696.037	3682.25
696.226	3700.68
696.415	3655.62
696.604	3733.45
696.793	3772.36
696.982	3590.09
697.171	3659.72
697.36	3682.25
697.549	3629
697.738	3549.13
697.927	3530.7
698.116	3592.14
698.305	3571.66
698.494	3569.61
698.683	3502.03
698.872	3561.42
699.061	3643.34
699.25	3577.8
699.438	3547.08
699.627	3522.51
699.816	3438.54
700.005	3502.03
700.193	3510.22
700.382	3493.83
700.571	3504.07
700.76	3620.81
700.948	3569.61
701.137	3542.99
701.326	3475.4
701.514	3534.79
701.703	3497.93
701.892	3469.26
702.08	3575.75
702.269	3559.37
702.457	3426.25
702.646	3366.86
702.834	3428.3
703.023	3358.67
703.212	3506.12
703.4	3563.47
703.589	3442.64
703.777	3336.14
703.965	3342.28
704.154	3538.89
704.342	3354.57
704.531	3413.96
704.719	3387.34
704.907	3493.83
705.096	3428.3
705.284	3563.47
705.472	3522.51
705.661	3434.44
705.849	3571.66
706.037	3334.09
706.226	3391.44
706.414	3448.78
706.602	3284.94
706.79	3590.09
706.979	3512.27
707.167	3387.34
707.355	3334.09
707.543	3403.72
707.731	3389.39
707.919	3428.3
708.107	3305.42
708.296	3377.1
708.484	3418.06
708.672	3340.24
708.86	3413.96
709.048	3403.72
709.236	3403.72
709.424	3420.11
709.612	3411.92
709.8	3315.66
709.988	3258.32
710.176	3409.87
710.364	3459.02
710.551	3403.72
710.739	3463.12
710.927	3366.86
711.115	3450.83
711.303	3334.09
711.491	3499.98
711.679	3344.33
711.866	3342.28
712.054	3407.82
712.242	3278.8
712.43	3473.35
712.617	3330
712.805	3270.61
712.993	3391.44
713.181	3225.55
713.368	3321.81
713.556	3397.58
713.744	3342.28
713.931	3401.68
714.119	3381.2
714.306	3397.58
714.494	3280.85
714.682	3448.78
714.869	3313.61
715.057	3368.91
715.244	3284.94
715.432	3373
715.619	3317.71
715.807	3422.16
715.994	3346.38
716.182	3354.57
716.369	3282.89
716.556	3475.4
716.744	3252.17
716.931	3383.24
717.119	3340.24
717.306	3315.66
717.493	3293.13
717.681	3313.61
717.868	3313.61
718.055	3403.72
718.242	3416.01
718.43	3440.59
718.617	3334.09
718.804	3219.41
718.991	3340.24
719.179	3354.57
719.366	3385.29
719.553	3295.18
719.74	3280.85
719.927	3354.57
720.114	3323.85
720.301	3289.04
720.488	3338.19
720.676	3166.16
720.863	3405.77
721.05	3340.24
721.237	3358.67
721.424	3370.96
721.611	3393.48
721.798	3313.61
721.985	3327.95
722.172	3284.94
722.358	3336.14
722.545	3297.23
722.732	3352.52
722.919	3297.23
723.106	3379.15
723.293	3360.72
723.48	3293.13
723.667	3278.8
723.853	3082.19
724.04	3395.53
724.227	3186.64
724.414	3301.33
724.6	3246.03
724.787	3305.42
724.974	3313.61
725.161	3268.56
725.347	3043.28
725.534	3379.15
725.72	3274.7
725.907	3291.09
726.094	3172.3
726.28	3305.42
726.467	3239.89
726.653	3280.85
726.84	3235.79
727.027	3196.88
727.213	3248.08
727.4	3301.33
727.586	3354.57
727.773	3264.46
727.959	3295.18
728.145	3219.41
728.332	3266.51
728.518	3190.74
728.705	3217.36
728.891	3248.08
729.077	3207.12
729.264	3243.98
729.45	3231.69
729.636	3092.43
729.823	3188.69
730.009	3114.96
730.195	3153.87
730.382	3174.35
730.568	3246.03
730.754	3205.07
730.94	3250.13
731.126	3194.83
731.313	3342.28
731.499	3106.77
731.685	3125.2
731.871	3131.34
732.057	3168.21
732.243	3137.49
732.429	3151.82
732.615	3155.92
732.801	3155.92
732.987	3254.22
733.173	3108.82
733.359	3141.58
733.545	3172.3
733.731	3129.3
733.917	3209.17
734.103	3203.02
734.289	3149.78
734.475	3088.34
734.661	3117.01
734.847	2987.99
735.033	3155.92
735.219	3178.45
735.404	3092.43
735.59	2920.4
735.776	3117.01
735.962	3188.69
736.148	3033.04
736.333	3059.67
736.519	2975.7
736.705	3059.67
736.89	2998.23
737.076	3119.06
737.262	2971.6
737.447	2901.97
737.633	3043.28
737.819	3076.05
738.004	3067.86
738.19	3020.75
738.375	3035.09
738.561	2928.6
738.747	3061.71
738.932	2973.65
739.118	2969.55
739.303	2955.22
739.489	3000.27
739.674	2824.15
739.859	2963.41
740.045	2990.03
740.23	2914.26
740.416	2854.87
740.601	2840.53
740.786	2904.02
740.972	2842.58
741.157	2836.44
741.342	2699.22
741.528	2787.29
741.713	2865.11
741.898	2727.89
742.084	2865.11
742.269	2682.84
742.454	2760.66
742.639	2777.05
742.824	2729.94
743.01	2684.89
743.195	2607.06
743.38	2537.43
743.565	2766.81
743.75	2662.36
743.935	2654.17
744.12	2654.17
744.305	2527.19
744.49	2723.8
744.675	2674.65
744.86	2699.22
745.045	2664.41
745.23	2588.63
745.415	2502.62
745.6	2621.4
745.785	2486.23
745.97	2578.39
746.155	2584.54
746.34	2535.39
746.525	2428.89
746.71	2531.29
746.895	2412.51
747.079	2541.53
747.264	2404.32
747.449	2445.27
747.634	2471.9
747.819	2439.13
748.003	2371.55
748.188	2408.41
748.373	2379.74
748.557	2408.41
748.742	2322.4
748.927	2367.45
749.111	2207.71
749.296	2281.44
749.481	2187.23
749.665	2183.13
749.85	2172.89
750.034	2226.14
750.219	2176.99
750.404	2119.65
750.588	2172.89
750.773	2166.75
750.957	2093.02
751.141	2109.41
751.326	2179.04
751.51	2035.68
751.695	2097.12
751.879	2090.98
752.064	2025.44
752.248	2078.69
752.432	1951.71
752.617	2031.59
752.801	2080.74
752.985	2011.11
753.17	1968.1
753.354	1918.95
753.538	2043.87
753.722	1906.66
753.907	1918.95
754.091	1877.99
754.275	2033.63
754.459	1900.52
754.643	1769.45
754.828	1859.56
755.012	1804.26
755.196	1757.16
755.38	1738.73
755.564	1839.08
755.748	1861.6
755.932	1740.77
756.116	1787.88
756.3	1712.1
756.484	1806.31
756.668	1757.16
756.852	1632.23
757.036	1658.85
757.22	1671.14
757.404	1492.97
757.588	1597.42
757.772	1617.9
757.956	1617.9
758.14	1683.43
758.323	1617.9
758.507	1585.13
758.691	1609.7
758.875	1589.22
759.059	1607.66
759.242	1605.61
759.426	1603.56
759.61	1490.92
759.794	1544.17
759.977	1570.79
760.161	1546.22
760.345	1404.91
760.528	1544.17
760.712	1544.17
760.895	1349.61
761.079	1478.63
761.263	1415.15
761.446	1462.25
761.63	1361.9
761.813	1460.2
761.997	1355.76
762.18	1368.04
762.364	1452.01
762.547	1353.71
762.731	1347.56
762.914	1404.91
763.098	1349.61
763.281	1329.13
763.464	1267.69
763.648	1327.08
763.831	1398.76
764.015	1329.13
764.198	1269.74
764.381	1433.58
764.564	1308.65
764.748	1333.23
764.931	1316.84
765.114	1294.32
765.297	1236.97
765.481	1259.5
765.664	1263.6
765.847	1306.6
766.03	1351.66
766.213	1292.27
766.397	1298.41
766.58	1265.64
766.763	1298.41
766.946	1294.32
767.129	1220.59
767.312	1169.39
767.495	1243.12
767.678	1224.69
767.861	1183.73
768.044	1251.31
768.227	1308.65
768.41	1216.49
768.593	1239.02
768.776	1222.64
768.959	1122.29
769.142	1150.96
769.324	1148.91
769.507	1249.26
769.69	1173.49
769.873	1132.53
770.056	1163.25
770.239	1226.73
770.421	1142.77
770.604	1114.1
770.787	1011.7
770.97	1155.05
771.152	1077.23
771.335	1093.62
771.518	1003.5
771.7	1134.57
771.883	1079.28
772.066	1101.81
772.248	1122.29
772.431	1112.05
772.613	1101.81
772.796	1052.66
772.978	1093.62
773.161	1017.84
773.343	1064.94
773.526	1015.79
773.708	983.03
773.891	1038.32
774.073	991.22
774.256	1021.94
774.438	1060.85
774.621	929.78
774.803	950.26
774.985	972.79
775.168	952.31
775.35	1023.98
775.532	950.26
775.715	909.3
775.897	944.11
776.079	868.34
776.261	1114.1
776.444	983.03
776.626	923.63
776.808	888.82
776.99	940.02
777.173	890.87
777.355	821.24
777.537	886.77
777.719	909.3
777.901	862.19
778.083	851.96
778.265	829.43
778.447	933.87
778.629	763.89
778.811	876.53
778.993	845.81
779.175	806.9
779.357	858.1
779.539	782.32
779.721	839.67
779.903	841.72
780.085	751.6
780.267	778.23
780.449	686.07
780.631	831.48
780.812	724.98
780.994	712.69
781.176	669.69
781.358	643.06
781.54	684.02
781.721	745.46
781.903	698.36
782.085	706.55
782.267	860.15
782.448	622.58
782.63	731.12
782.812	686.07
782.993	706.55
783.175	704.5
783.357	690.17
783.538	688.12
783.72	628.73
783.901	667.64
784.083	571.38
784.264	647.16
784.446	587.77
784.627	626.68
784.809	528.38
784.99	647.16
785.172	530.42
785.353	657.4
785.535	583.67
785.716	546.81
785.897	542.71
786.079	432.12
786.26	569.34
786.441	649.21
786.623	542.71
786.804	487.42
786.985	561.14
787.167	606.2
787.348	483.32
787.529	536.57
787.71	581.62
787.891	442.36
788.073	526.33
788.254	440.31
788.435	561.14
788.616	514.04
788.797	509.94
788.978	493.56
789.159	485.37
789.34	532.47
789.522	499.7
789.703	542.71
789.884	473.08
790.065	432.12
790.246	534.52
790.427	511.99
790.607	481.27
790.788	511.99
790.969	458.75
791.15	438.27
791.331	417.79
791.512	454.65
791.693	452.6
791.874	423.93
792.054	448.51
792.235	462.84
792.416	436.22
792.597	356.35
792.778	389.11
792.958	540.66
793.139	456.7
793.32	380.92
793.5	346.11
793.681	448.51
793.862	356.35
794.042	425.98
794.223	405.5
794.404	403.45
794.584	458.75
794.765	303.1
794.945	348.15
795.126	323.58
795.306	450.55
795.487	294.91
795.667	456.7
795.848	385.02
796.028	397.31
796.209	335.87
796.389	325.63
796.57	370.68
796.75	401.4
796.93	339.96
797.111	299
797.291	346.11
797.471	391.16
797.652	346.11
797.832	423.93
798.012	358.39
798.192	331.77
798.373	376.83
798.553	337.91
798.733	374.78
798.913	294.91
799.093	294.91
799.274	331.77
799.454	325.63
799.634	380.92
799.814	368.63
799.994	346.11
800.174	299
800.354	325.63
800.534	247.8
800.714	311.29
800.894	301.05
801.074	262.14
801.254	299
801.434	321.53
801.614	329.72
801.794	303.1
801.974	806.9
802.154	299
802.334	262.14
802.514	327.68
802.693	335.87
802.873	350.2
803.053	395.26
803.233	264.19
803.413	296.96
803.592	307.2
803.772	264.19
803.952	333.82
804.131	239.61
804.311	366.59
804.491	294.91
804.67	307.2
804.85	251.9
805.03	231.42
805.209	376.83
805.389	262.14
805.568	241.66
805.748	266.24
805.928	290.81
806.107	339.96
806.287	303.1
806.466	229.37
806.646	266.24
806.825	206.84
807.004	192.51
807.184	227.32
807.363	286.72
807.543	229.37
807.722	200.7
807.901	350.2
808.081	237.56
808.26	192.51
808.439	282.62
808.619	337.91
808.798	249.85
808.977	198.65
809.156	221.18
809.336	208.89
809.515	276.48
809.694	231.42
809.873	231.42
810.052	294.91
810.231	210.94
810.411	192.51
810.59	305.15
810.769	221.18
810.948	309.24
811.127	184.32
811.306	204.8
811.485	167.93
811.664	327.68
811.843	219.13
812.022	278.52
812.201	245.76
812.38	161.79
812.559	200.7
812.737	251.9
812.916	114.69
813.095	210.94
813.274	180.22
813.453	210.94
813.632	208.89
813.811	260.09
813.989	143.36
814.168	167.93
814.347	229.37
814.526	190.46
814.704	159.74
814.883	266.24
815.062	182.27
815.24	161.79
815.419	133.12
815.598	165.89
815.776	159.74
815.955	235.52
816.133	143.36
816.312	184.32
816.49	190.46
816.669	290.81
816.847	182.27
817.026	184.32
817.204	172.03
817.383	182.27
817.561	167.93
817.74	268.28
817.918	186.37
818.097	98.3
818.275	126.97
818.453	145.41
818.632	155.65
818.81	112.64
818.988	200.7
819.167	110.59
819.345	215.04
819.523	192.51
819.701	120.83
819.879	186.37
820.058	153.6
820.236	165.89
820.414	149.5
820.592	188.41
820.77	239.61
820.948	167.93
821.127	81.92
821.305	141.31
821.483	184.32
821.661	264.19
821.839	145.41
822.017	143.36
822.195	133.12
822.373	122.88
822.551	110.59
822.729	96.25
822.907	194.56
823.085	192.51
823.262	133.12
823.44	159.74
823.618	151.55
823.796	106.49
823.974	167.93
824.152	24.58
824.329	159.74
824.507	147.45
824.685	126.97
824.863	165.89
825.04	96.25
825.218	204.8
825.396	106.49
825.574	149.5
825.751	92.16
825.929	116.73
826.107	57.34
826.284	104.45
826.462	141.31
826.639	106.49
826.817	124.93
826.994	75.77
827.172	104.45
827.349	131.07
827.527	108.54
827.704	147.45
827.882	124.93
828.059	24.58
828.237	135.17
828.414	120.83
828.591	88.06
828.769	155.65
828.946	88.06
829.124	92.16
829.301	118.78
829.478	143.36
829.655	114.69
829.833	163.84
830.01	79.87
830.187	159.74
830.364	114.69
830.542	106.49
830.719	116.73
830.896	221.18
831.073	157.69
831.25	116.73
831.427	104.45
831.604	114.69
831.782	149.5
831.959	159.74
832.136	98.3
832.313	57.34
832.49	143.36
832.667	40.96
832.844	57.34
833.021	137.21
833.198	135.17
833.374	55.3
833.551	100.35
833.728	114.69
833.905	32.77
834.082	174.08
834.259	114.69
834.436	38.91
834.612	57.34
834.789	98.3
834.966	45.06
835.143	122.88
835.319	45.06
835.496	143.36
835.673	212.99
835.85	139.26
836.026	143.36
836.203	28.67
836.38	63.49
836.556	28.67
836.733	122.88
836.909	114.69
837.086	55.3
837.262	40.96
837.439	30.72
837.616	83.97
837.792	57.34
837.968	86.01
838.145	88.06
838.321	118.78
838.498	120.83
838.674	100.35
838.851	126.97
839.027	40.96
839.203	73.73
839.38	73.73
839.556	34.82
839.732	133.12
839.909	83.97
840.085	71.68
840.261	73.73
840.437	90.11
840.614	86.01
840.79	67.58
840.966	77.82
841.142	108.54
841.318	14.34
841.494	63.49
841.671	153.6
841.847	86.01
842.023	53.25
842.199	145.41
842.375	67.58
842.551	26.62
842.727	83.97
842.903	81.92
843.079	28.67
843.255	90.11
843.431	69.63
843.607	112.64
843.783	83.97
843.959	92.16
844.134	61.44
844.31	77.82
844.486	18.43
844.662	40.96
844.838	106.49
845.013	-32.77
845.189	79.87
845.365	79.87
845.541	36.86
845.716	106.49
845.892	96.25
846.068	36.86
846.244	51.2
846.419	55.3
846.595	81.92
846.77	-73.73
846.946	133.12
847.122	36.86
847.297	30.72
847.473	88.06
847.648	8.19
847.824	126.97
847.999	32.77
848.175	0
848.35	59.39
848.526	32.77
848.701	151.55
848.876	63.49
849.052	94.21
849.227	34.82
849.403	0
849.578	51.2
849.753	-6.14
849.929	73.73
850.104	51.2
850.279	12.29
850.454	61.44
850.63	63.49
850.805	36.86
850.98	-8.19
851.155	-10.24
851.33	77.82
851.505	47.1
851.681	118.78
851.856	-4.1
852.031	126.97
852.206	43.01
852.381	38.91
852.556	61.44
852.731	102.4
852.906	22.53
853.081	57.34
853.256	34.82
853.431	-30.72
853.606	8.19
853.781	28.67
853.956	-14.34
854.131	28.67
854.305	43.01
854.48	40.96
854.655	-34.82
854.83	6.14
855.005	61.44
855.18	118.78
855.354	28.67
855.529	34.82
855.704	14.34
855.879	96.25
856.053	38.91
856.228	102.4
856.403	30.72
856.577	98.3
856.752	73.73
856.926	18.43
857.101	61.44
857.276	-47.1
857.45	51.2
857.625	49.15
857.799	22.53
857.974	-10.24
858.148	28.67
858.323	53.25
858.497	26.62
858.672	45.06
858.846	-34.82
859.02	104.45
859.195	30.72
859.369	32.77
859.543	40.96
859.718	12.29
859.892	-75.77
860.066	4.1
860.241	-32.77
860.415	-4.1
860.589	63.49
860.763	53.25
860.938	34.82
861.112	102.4
861.286	53.25
861.46	32.77
861.634	2.05
861.808	75.77
861.982	40.96
862.157	34.82
862.331	-14.34
862.505	-16.38
862.679	-24.58
862.853	12.29
863.027	63.49
863.201	77.82
863.375	-12.29
863.549	65.54
863.722	22.53
863.896	129.02
864.07	-71.68
864.244	32.77
864.418	79.87
864.592	53.25
864.766	0
864.939	90.11
865.113	18.43
865.287	59.39
865.461	6.14
865.634	26.62
865.808	49.15
865.982	-26.62
866.156	51.2
866.329	-8.19
866.503	53.25
866.676	45.06
866.85	8.19
867.024	-8.19
867.197	30.72
867.371	51.2
867.544	2.05
867.718	10.24
867.891	100.35
868.065	6.14
868.238	69.63
868.412	77.82
868.585	73.73
868.759	77.82
868.932	86.01
869.105	28.67
869.279	43.01
869.452	-12.29
869.625	-4.1
869.799	59.39
869.972	32.77
870.145	-16.38
870.319	-14.34
870.492	20.48
870.665	20.48
870.838	24.58
871.011	-36.86
871.185	-30.72
871.358	0
871.531	-2.05
871.704	14.34
871.877	-30.72
872.05	20.48
872.223	-88.06
872.396	24.58
872.569	36.86
872.742	-47.1
872.915	-2.05
873.088	-43.01
873.261	-59.39
873.434	67.58
873.607	75.77
873.78	73.73
873.953	28.67
874.126	18.43
874.299	18.43
874.471	-26.62
874.644	8.19
874.817	61.44
874.99	100.35
875.163	86.01
875.335	20.48
875.508	-4.1
875.681	-12.29
875.853	2.05
876.026	20.48
876.199	75.77
876.371	102.4
876.544	-53.25
876.717	-6.14
876.889	26.62
877.062	-12.29
877.234	-8.19
877.407	120.83
877.579	-24.58
877.752	10.24
877.924	100.35
878.097	22.53
878.269	10.24
878.442	67.58
878.614	-26.62
878.786	6.14
878.959	20.48
879.131	-14.34
879.303	10.24
879.476	12.29
879.648	36.86
879.82	6.14
879.993	-16.38
880.165	-49.15
880.337	-4.1
880.509	20.48
880.681	-22.53
880.854	-24.58
881.026	73.73
881.198	26.62
881.37	-22.53
881.542	6.14
881.714	-34.82
881.886	61.44
882.058	8.19
882.23	0
882.402	-71.68
882.574	34.82
882.746	-22.53
882.918	-12.29
883.09	59.39
883.262	32.77
883.434	61.44
883.606	-73.73
883.778	22.53
883.95	51.2
884.122	-20.48
884.293	16.38
884.465	40.96
884.637	28.67
884.809	67.58
884.98	73.73
885.152	-28.67
885.324	-16.38
885.496	4.1
885.667	63.49
885.839	38.91
886.011	0
886.182	34.82
886.354	22.53
886.525	-16.38
886.697	2.05
886.869	4.1
887.04	4.1
887.212	40.96
887.383	-34.82
887.555	-51.2
887.726	4.1
887.897	-14.34
888.069	-16.38
888.24	24.58
888.412	71.68
888.583	-18.43
888.754	-8.19
888.926	-16.38
889.097	-24.58
889.268	-20.48
889.44	65.54
889.611	-4.1
889.782	-2.05
889.953	45.06
890.125	32.77
890.296	-75.77
890.467	-4.1
890.638	-77.82
890.809	47.1
890.98	16.38
891.151	-6.14
891.323	81.92
891.494	2.05
891.665	12.29
891.836	38.91
892.007	14.34
892.178	73.73
892.349	-20.48
892.52	-18.43
892.691	40.96
892.862	34.82
893.032	-24.58
893.203	69.63
893.374	-6.14
893.545	98.3
893.716	26.62
893.887	43.01
894.057	6.14
894.228	75.77
894.399	-4.1
894.57	43.01
894.74	-18.43
894.911	14.34
895.082	40.96
895.253	-10.24
895.423	18.43
895.594	-38.91
895.764	65.54
895.935	-40.96
896.106	51.2
896.276	24.58
896.447	0
896.617	-10.24
896.788	-18.43
896.958	61.44
897.129	57.34
897.299	51.2
897.47	16.38
897.64	-38.91
897.81	-36.86
897.981	69.63
898.151	32.77
898.322	94.21
898.492	16.38
898.662	16.38
898.832	53.25
899.003	10.24
899.173	4.1
899.343	100.35
899.513	-32.77
