Data from USB4F104151__195__10-29-27-846.txt Node

Date: Wed Mar 12 10:29:27 EDT 2025
User: louis
Spectrometer: USB4F10415
Trigger mode: 4
Integration Time (sec): 3.000000E-2
Scans to average: 1
Electric dark correction enabled: true
Nonlinearity correction enabled: false
Boxcar width: 0
XAxis mode: Wavelengths
Number of Pixels in Spectrum: 3648
>>>>>Begin Spectral Data<<<<<
178.204	-174.59
178.424	-174.59
178.644	-174.59
178.864	-176.64
179.084	-131.58
179.304	-0.51
179.524	-39.42
179.744	5.63
179.964	-12.8
180.184	36.35
180.404	-49.66
180.624	38.4
180.844	-12.8
181.064	-37.38
181.283	-25.09
181.503	42.5
181.723	54.78
181.943	-59.9
182.163	81.41
182.383	60.93
182.602	15.87
182.822	69.12
183.042	56.83
183.262	19.97
183.482	24.06
183.701	99.84
183.921	-18.94
184.141	22.02
184.361	36.35
184.58	52.74
184.8	22.02
185.02	-27.14
185.239	99.84
185.459	1.54
185.679	-0.51
185.898	40.45
186.118	105.98
186.338	48.64
186.557	71.17
186.777	-18.94
186.997	79.36
187.216	40.45
187.436	110.08
187.655	13.82
187.875	24.06
188.095	40.45
188.314	56.83
188.534	87.55
188.753	26.11
188.973	62.98
189.192	22.02
189.412	85.5
189.631	24.06
189.851	48.64
190.07	101.89
190.29	38.4
190.509	56.83
190.729	-8.7
190.948	65.02
191.168	95.74
191.387	114.17
191.607	-2.56
191.826	77.31
192.045	-37.38
192.265	89.6
192.484	17.92
192.704	122.37
192.923	56.83
193.142	93.69
193.362	62.98
193.581	124.41
193.8	28.16
194.02	101.89
194.239	77.31
194.458	97.79
194.678	-25.09
194.897	54.78
195.116	32.26
195.335	65.02
195.555	120.32
195.774	5.63
195.993	52.74
196.212	-4.61
196.432	-20.99
196.651	1.54
196.87	32.26
197.089	56.83
197.308	73.21
197.528	-25.09
197.747	32.26
197.966	67.07
198.185	87.55
198.404	5.63
198.623	75.26
198.842	89.6
199.062	17.92
199.281	-2.56
199.5	62.98
199.719	-23.04
199.938	48.64
200.157	38.4
200.376	42.5
200.595	-25.09
200.814	-39.42
201.033	17.92
201.252	3.58
201.471	65.02
201.69	93.69
201.909	-37.38
202.128	105.98
202.347	73.21
202.566	-12.8
202.785	-0.51
203.004	-2.56
203.223	69.12
203.442	54.78
203.661	-23.04
203.879	-2.56
204.098	118.27
204.317	15.87
204.536	52.74
204.755	26.11
204.974	85.5
205.193	77.31
205.411	97.79
205.63	-0.51
205.849	44.54
206.068	-4.61
206.287	-0.51
206.505	73.21
206.724	71.17
206.943	65.02
207.162	71.17
207.381	79.36
207.599	48.64
207.818	58.88
208.037	1.54
208.255	-10.75
208.474	46.59
208.693	83.45
208.911	46.59
209.13	-4.61
209.349	69.12
209.567	-27.14
209.786	89.6
210.005	30.21
210.223	110.08
210.442	7.68
210.661	28.16
210.879	52.74
211.098	28.16
211.316	54.78
211.535	97.79
211.753	7.68
211.972	-2.56
212.191	7.68
212.409	58.88
212.628	118.27
212.846	36.35
213.065	126.46
213.283	62.98
213.502	54.78
213.72	-20.99
213.938	28.16
214.157	79.36
214.375	32.26
214.594	15.87
214.812	44.54
215.031	44.54
215.249	28.16
215.467	54.78
215.686	81.41
215.904	89.6
216.122	52.74
216.341	11.78
216.559	56.83
216.778	52.74
216.996	79.36
217.214	-2.56
217.432	22.02
217.651	11.78
217.869	-2.56
218.087	40.45
218.306	65.02
218.524	65.02
218.742	24.06
218.96	122.37
219.179	75.26
219.397	24.06
219.615	79.36
219.833	3.58
220.051	42.5
220.27	69.12
220.488	56.83
220.706	71.17
220.924	77.31
221.142	62.98
221.36	69.12
221.578	9.73
221.796	110.08
222.015	89.6
222.233	-43.52
222.451	62.98
222.669	28.16
222.887	15.87
223.105	38.4
223.323	85.5
223.541	79.36
223.759	-29.18
223.977	32.26
224.195	120.32
224.413	60.93
224.631	11.78
224.849	-35.33
225.067	105.98
225.285	28.16
225.503	105.98
225.721	15.87
225.939	77.31
226.157	50.69
226.375	89.6
226.592	77.31
226.81	15.87
227.028	58.88
227.246	22.02
227.464	-8.7
227.682	71.17
227.9	-66.05
228.117	56.83
228.335	26.11
228.553	44.54
228.771	34.3
228.989	91.65
229.206	11.78
229.424	22.02
229.642	52.74
229.86	30.21
230.077	3.58
230.295	38.4
230.513	120.32
230.731	46.59
230.948	7.68
231.166	91.65
231.384	42.5
231.601	38.4
231.819	83.45
232.037	-25.09
232.254	38.4
232.472	67.07
232.689	-20.99
232.907	128.51
233.125	65.02
233.342	-49.66
233.56	5.63
233.777	34.3
233.995	83.45
234.213	73.21
234.43	24.06
234.648	52.74
234.865	-8.7
235.083	58.88
235.3	15.87
235.518	11.78
235.735	134.65
235.953	38.4
236.17	34.3
236.388	44.54
236.605	-14.85
236.822	48.64
237.04	3.58
237.257	28.16
237.475	-37.38
237.692	73.21
237.909	46.59
238.127	48.64
238.344	-4.61
238.562	46.59
238.779	52.74
238.996	-27.14
239.214	83.45
239.431	26.11
239.648	79.36
239.865	30.21
240.083	26.11
240.3	71.17
240.517	7.68
240.735	28.16
240.952	93.69
241.169	69.12
241.386	48.64
241.603	110.08
241.821	-12.8
242.038	69.12
242.255	-12.8
242.472	36.35
242.689	32.26
242.907	69.12
243.124	38.4
243.341	-45.57
243.558	26.11
243.775	-10.75
243.992	-0.51
244.209	112.13
244.426	7.68
244.643	32.26
244.86	65.02
245.078	118.27
245.295	19.97
245.512	34.3
245.729	34.3
245.946	26.11
246.163	22.02
246.38	9.73
246.597	22.02
246.814	32.26
247.031	19.97
247.248	-4.61
247.464	69.12
247.681	24.06
247.898	32.26
248.115	50.69
248.332	7.68
248.549	73.21
248.766	32.26
248.983	26.11
249.2	50.69
249.417	44.54
249.633	-8.7
249.85	48.64
250.067	-8.7
250.284	9.73
250.501	36.35
250.717	54.78
250.934	-53.76
251.151	32.26
251.368	48.64
251.585	52.74
251.801	65.02
252.018	62.98
252.235	-14.85
252.451	5.63
252.668	42.5
252.885	112.13
253.102	38.4
253.318	93.69
253.535	30.21
253.752	54.78
253.968	87.55
254.185	-25.09
254.401	22.02
254.618	87.55
254.835	56.83
255.051	73.21
255.268	22.02
255.484	-49.66
255.701	99.84
255.917	65.02
256.134	56.83
256.351	1.54
256.567	-41.47
256.784	60.93
257	-10.75
257.217	44.54
257.433	112.13
257.65	103.93
257.866	44.54
258.082	-4.61
258.299	-16.9
258.515	17.92
258.732	34.3
258.948	-57.86
259.165	-23.04
259.381	28.16
259.597	112.13
259.814	62.98
260.03	52.74
260.246	118.27
260.463	77.31
260.679	7.68
260.895	52.74
261.112	42.5
261.328	101.89
261.544	42.5
261.761	157.18
261.977	13.82
262.193	-25.09
262.409	73.21
262.626	46.59
262.842	17.92
263.058	15.87
263.274	87.55
263.49	40.45
263.707	19.97
263.923	120.32
264.139	46.59
264.355	44.54
264.571	124.41
264.787	60.93
265.004	85.5
265.22	81.41
265.436	34.3
265.652	77.31
265.868	85.5
266.084	-4.61
266.3	73.21
266.516	13.82
266.732	142.85
266.948	-66.05
267.164	89.6
267.38	56.83
267.596	22.02
267.812	105.98
268.028	36.35
268.244	-8.7
268.46	-0.51
268.676	22.02
268.892	34.3
269.108	62.98
269.324	50.69
269.54	44.54
269.756	9.73
269.972	-27.14
270.188	26.11
270.403	34.3
270.619	-35.33
270.835	32.26
271.051	97.79
271.267	3.58
271.483	30.21
271.698	42.5
271.914	65.02
272.13	89.6
272.346	77.31
272.562	17.92
272.777	130.56
272.993	-0.51
273.209	3.58
273.425	58.88
273.64	32.26
273.856	15.87
274.072	85.5
274.287	-20.99
274.503	71.17
274.719	67.07
274.934	42.5
275.15	56.83
275.366	-14.85
275.581	-16.9
275.797	60.93
276.012	7.68
276.228	11.78
276.444	97.79
276.659	32.26
276.875	26.11
277.09	15.87
277.306	95.74
277.521	65.02
277.737	24.06
277.952	69.12
278.168	-8.7
278.383	81.41
278.599	60.93
278.814	7.68
279.03	-27.14
279.245	134.65
279.461	83.45
279.676	-16.9
279.892	32.26
280.107	-12.8
280.322	11.78
280.538	73.21
280.753	40.45
280.969	-20.99
281.184	52.74
281.399	120.32
281.615	42.5
281.83	38.4
282.045	85.5
282.26	83.45
282.476	38.4
282.691	69.12
282.906	5.63
283.122	54.78
283.337	19.97
283.552	65.02
283.767	-37.38
283.983	40.45
284.198	67.07
284.413	48.64
284.628	26.11
284.843	40.45
285.058	58.88
285.274	65.02
285.489	44.54
285.704	81.41
285.919	87.55
286.134	69.12
286.349	11.78
286.564	77.31
286.779	93.69
286.995	-8.7
287.21	-12.8
287.425	60.93
287.64	103.93
287.855	9.73
288.07	-35.33
288.285	52.74
288.5	46.59
288.715	17.92
288.93	60.93
289.145	52.74
289.36	58.88
289.575	9.73
289.79	75.26
290.004	36.35
290.219	114.17
290.434	15.87
290.649	52.74
290.864	83.45
291.079	142.85
291.294	15.87
291.509	69.12
291.724	73.21
291.938	48.64
292.153	34.3
292.368	79.36
292.583	28.16
292.798	48.64
293.012	54.78
293.227	69.12
293.442	30.21
293.657	15.87
293.871	97.79
294.086	26.11
294.301	110.08
294.516	60.93
294.73	77.31
294.945	30.21
295.16	13.82
295.374	50.69
295.589	40.45
295.804	34.3
296.018	56.83
296.233	62.98
296.447	11.78
296.662	101.89
296.877	58.88
297.091	110.08
297.306	44.54
297.52	32.26
297.735	28.16
297.949	151.04
298.164	65.02
298.378	-8.7
298.593	58.88
298.807	151.04
299.022	75.26
299.236	118.27
299.451	-0.51
299.665	40.45
299.88	73.21
300.094	36.35
300.309	118.27
300.523	58.88
300.737	32.26
300.952	17.92
301.166	97.79
301.381	-35.33
301.595	36.35
301.809	48.64
302.024	11.78
302.238	26.11
302.452	50.69
302.667	7.68
302.881	62.98
303.095	173.57
303.309	91.65
303.524	-8.7
303.738	13.82
303.952	73.21
304.166	40.45
304.381	40.45
304.595	79.36
304.809	44.54
305.023	62.98
305.237	73.21
305.452	15.87
305.666	79.36
305.88	112.13
306.094	44.54
306.308	56.83
306.522	56.83
306.736	65.02
306.95	95.74
307.164	-29.18
307.379	77.31
307.593	151.04
307.807	89.6
308.021	118.27
308.235	-10.75
308.449	11.78
308.663	7.68
308.877	140.8
309.091	15.87
309.305	67.07
309.519	-4.61
309.733	30.21
309.947	38.4
310.161	65.02
310.374	28.16
310.588	110.08
310.802	24.06
311.016	52.74
311.23	97.79
311.444	-0.51
311.658	65.02
311.872	122.37
312.085	54.78
312.299	54.78
312.513	60.93
312.727	85.5
312.941	73.21
313.154	11.78
313.368	44.54
313.582	40.45
313.796	110.08
314.009	114.17
314.223	32.26
314.437	58.88
314.651	19.97
314.864	28.16
315.078	-41.47
315.292	93.69
315.505	19.97
315.719	34.3
315.933	50.69
316.146	15.87
316.36	44.54
316.573	65.02
316.787	118.27
317.001	32.26
317.214	-27.14
317.428	60.93
317.641	114.17
317.855	36.35
318.068	17.92
318.282	28.16
318.495	67.07
318.709	75.26
318.922	91.65
319.136	58.88
319.349	118.27
319.563	77.31
319.776	89.6
319.99	56.83
320.203	124.41
320.417	38.4
320.63	32.26
320.843	114.17
321.057	11.78
321.27	101.89
321.483	71.17
321.697	159.23
321.91	-6.66
322.124	77.31
322.337	54.78
322.55	71.17
322.763	32.26
322.977	120.32
323.19	48.64
323.403	75.26
323.617	67.07
323.83	56.83
324.043	56.83
324.256	77.31
324.469	46.59
324.683	11.78
324.896	62.98
325.109	28.16
325.322	15.87
325.535	54.78
325.748	34.3
325.962	36.35
326.175	11.78
326.388	77.31
326.601	75.26
326.814	24.06
327.027	65.02
327.24	97.79
327.453	-6.66
327.666	103.93
327.879	87.55
328.092	-0.51
328.305	69.12
328.518	95.74
328.731	62.98
328.944	93.69
329.157	48.64
329.37	52.74
329.583	130.56
329.796	52.74
330.009	7.68
330.222	110.08
330.435	-6.66
330.648	75.26
330.861	73.21
331.073	28.16
331.286	124.41
331.499	-20.99
331.712	83.45
331.925	-27.14
332.138	54.78
332.35	89.6
332.563	38.4
332.776	81.41
332.989	58.88
333.202	101.89
333.414	-31.23
333.627	54.78
333.84	44.54
334.053	56.83
334.265	56.83
334.478	101.89
334.691	65.02
334.903	52.74
335.116	56.83
335.329	28.16
335.541	44.54
335.754	116.22
335.966	52.74
336.179	48.64
336.392	30.21
336.604	93.69
336.817	155.13
337.029	28.16
337.242	97.79
337.454	56.83
337.667	40.45
337.88	87.55
338.092	65.02
338.305	-12.8
338.517	60.93
338.729	71.17
338.942	128.51
339.154	81.41
339.367	79.36
339.579	99.84
339.792	58.88
340.004	105.98
340.217	17.92
340.429	69.12
340.641	54.78
340.854	24.06
341.066	58.88
341.278	54.78
341.491	89.6
341.703	81.41
341.915	-6.66
342.128	99.84
342.34	38.4
342.552	15.87
342.764	52.74
342.977	101.89
343.189	128.51
343.401	40.45
343.613	89.6
343.826	126.46
344.038	34.3
344.25	75.26
344.462	-6.66
344.674	175.61
344.886	60.93
345.099	81.41
345.311	99.84
345.523	91.65
345.735	40.45
345.947	77.31
346.159	26.11
346.371	24.06
346.583	71.17
346.795	103.93
347.007	157.18
347.219	144.89
347.431	128.51
347.643	77.31
347.855	5.63
348.067	79.36
348.279	46.59
348.491	38.4
348.703	83.45
348.915	15.87
349.127	120.32
349.339	134.65
349.551	46.59
349.763	26.11
349.975	36.35
350.187	48.64
350.399	97.79
350.61	67.07
350.822	134.65
351.034	60.93
351.246	7.68
351.458	97.79
351.669	22.02
351.881	153.09
352.093	99.84
352.305	97.79
352.517	24.06
352.728	134.65
352.94	-16.9
353.152	48.64
353.363	108.03
353.575	99.84
353.787	17.92
353.999	75.26
354.21	146.94
354.422	38.4
354.633	103.93
354.845	67.07
355.057	28.16
355.268	7.68
355.48	46.59
355.692	36.35
355.903	62.98
356.115	30.21
356.326	87.55
356.538	118.27
356.749	44.54
356.961	89.6
357.172	89.6
357.384	73.21
357.595	95.74
357.807	89.6
358.018	42.5
358.23	136.7
358.441	128.51
358.653	112.13
358.864	97.79
359.075	73.21
359.287	77.31
359.498	58.88
359.709	81.41
359.921	71.17
360.132	136.7
360.344	85.5
360.555	52.74
360.766	105.98
360.977	79.36
361.189	103.93
361.4	7.68
361.611	73.21
361.823	105.98
362.034	56.83
362.245	56.83
362.456	-8.7
362.667	54.78
362.879	75.26
363.09	105.98
363.301	26.11
363.512	44.54
363.723	24.06
363.935	-14.85
364.146	38.4
364.357	60.93
364.568	73.21
364.779	22.02
364.99	83.45
365.201	89.6
365.412	122.37
365.623	22.02
365.834	50.69
366.045	65.02
366.256	67.07
366.467	46.59
366.678	17.92
366.889	44.54
367.1	97.79
367.311	97.79
367.522	5.63
367.733	50.69
367.944	75.26
368.155	34.3
368.366	60.93
368.577	13.82
368.788	142.85
368.999	52.74
369.209	62.98
369.42	110.08
369.631	87.55
369.842	97.79
370.053	85.5
370.264	5.63
370.474	69.12
370.685	36.35
370.896	26.11
371.107	48.64
371.317	91.65
371.528	73.21
371.739	95.74
371.95	73.21
372.16	126.46
372.371	15.87
372.582	26.11
372.792	58.88
373.003	83.45
373.214	32.26
373.424	48.64
373.635	48.64
373.846	153.09
374.056	9.73
374.267	62.98
374.477	81.41
374.688	-4.61
374.898	89.6
375.109	69.12
375.319	-14.85
375.53	85.5
375.74	52.74
375.951	46.59
376.161	52.74
376.372	130.56
376.582	62.98
376.793	3.58
377.003	81.41
377.214	89.6
377.424	69.12
377.635	67.07
377.845	44.54
378.055	93.69
378.266	48.64
378.476	105.98
378.686	89.6
378.897	81.41
379.107	65.02
379.317	48.64
379.528	7.68
379.738	153.09
379.948	28.16
380.158	36.35
380.369	54.78
380.579	56.83
380.789	75.26
380.999	114.17
381.21	171.52
381.42	120.32
381.63	36.35
381.84	54.78
382.05	56.83
382.261	67.07
382.471	97.79
382.681	95.74
382.891	89.6
383.101	50.69
383.311	-0.51
383.521	85.5
383.731	52.74
383.941	116.22
384.151	126.46
384.361	89.6
384.571	40.45
384.781	28.16
384.991	130.56
385.201	116.22
385.411	151.04
385.621	60.93
385.831	79.36
386.041	130.56
386.251	60.93
386.461	28.16
386.671	7.68
386.881	56.83
387.091	120.32
387.301	95.74
387.511	120.32
387.72	136.7
387.93	103.93
388.14	11.78
388.35	60.93
388.56	89.6
388.769	120.32
388.979	58.88
389.189	40.45
389.399	114.17
389.609	97.79
389.818	91.65
390.028	171.52
390.238	85.5
390.447	56.83
390.657	101.89
390.867	54.78
391.076	13.82
391.286	138.75
391.496	87.55
391.705	118.27
391.915	79.36
392.125	79.36
392.334	75.26
392.544	134.65
392.753	128.51
392.963	85.5
393.172	128.51
393.382	83.45
393.591	155.13
393.801	71.17
394.01	175.61
394.22	81.41
394.429	56.83
394.639	112.13
394.848	226.81
395.058	71.17
395.267	103.93
395.477	118.27
395.686	132.61
395.895	153.09
396.105	126.46
396.314	151.04
396.524	103.93
396.733	116.22
396.942	105.98
397.152	112.13
397.361	95.74
397.57	161.28
397.78	161.28
397.989	126.46
398.198	237.05
398.407	93.69
398.617	134.65
398.826	108.03
399.035	153.09
399.244	196.09
399.453	138.75
399.663	151.04
399.872	140.8
400.081	153.09
400.29	185.85
400.499	146.94
400.708	136.7
400.917	200.19
401.127	155.13
401.336	165.37
401.545	208.38
401.754	118.27
401.963	153.09
402.172	134.65
402.381	185.85
402.59	130.56
402.799	235
403.008	155.13
403.217	167.42
403.426	232.96
403.635	142.85
403.844	138.75
404.053	134.65
404.262	208.38
404.471	202.24
404.68	224.76
404.888	167.42
405.097	159.23
405.306	216.57
405.515	249.34
405.724	228.86
405.933	245.24
406.142	194.05
406.35	298.49
406.559	261.63
406.768	304.64
406.977	245.24
407.185	302.59
407.394	271.87
407.603	235
407.812	325.12
408.02	302.59
408.229	343.55
408.438	294.4
408.646	325.12
408.855	282.11
409.064	286.2
409.272	349.69
409.481	404.99
409.69	413.18
409.898	388.6
410.107	431.61
410.315	472.57
410.524	386.55
410.733	458.23
410.941	480.76
411.15	443.9
411.358	491
411.567	552.44
411.775	534.01
411.984	593.4
412.192	546.3
412.401	605.69
412.609	714.23
412.818	650.74
413.026	660.98
413.234	658.93
413.443	650.74
413.651	701.94
413.86	720.37
414.068	822.77
414.276	882.16
414.485	867.83
414.693	794.1
414.901	1025.52
415.11	1007.09
415.318	871.92
415.526	1007.09
415.734	978.42
415.943	1113.58
416.151	1160.69
416.359	1080.82
416.567	1136.11
416.776	1146.35
416.984	1375.72
417.192	1314.28
417.4	1263.08
417.608	1281.52
417.817	1394.15
418.025	1457.64
418.233	1517.03
418.441	1471.98
418.649	1539.56
418.857	1715.69
419.065	1678.82
419.273	1793.51
419.481	1865.19
419.689	1895.91
419.897	2026.98
420.105	2047.46
420.313	2145.76
420.521	2207.2
420.729	2166.24
420.937	2135.52
421.145	2420.19
421.353	2475.48
421.561	2491.87
421.769	2682.33
421.977	2889.17
422.185	2680.28
422.393	2864.6
422.601	2983.38
422.809	3067.35
423.017	3063.25
423.224	3300.81
423.432	3333.58
423.64	3411.4
423.848	3659.21
424.056	3608.01
424.263	3911.11
424.471	3712.46
424.679	4005.31
424.887	4052.42
425.094	4244.93
425.302	4234.69
425.51	4244.93
425.718	4500.92
425.925	4470.2
426.133	4748.73
426.341	4928.95
426.548	5250.48
426.756	5070.26
426.964	5492.14
427.171	5635.5
427.379	5854.63
427.586	6043.04
427.794	6026.66
428.001	6282.66
428.209	6749.59
428.417	6548.89
428.624	7093.65
428.832	6784.41
429.039	6786.46
429.247	6858.14
429.454	7460.24
429.662	8150.4
429.869	7548.3
430.076	8050.05
430.284	7984.52
430.491	8207.75
430.699	8541.57
430.906	8844.67
431.114	8809.85
431.321	9158
431.528	9237.88
431.736	9950.57
431.943	10366.31
432.15	10147.17
432.358	10161.51
432.565	10968.41
432.772	10689.88
432.979	11222.36
433.187	11484.5
433.394	11482.45
433.601	12070.22
433.808	12293.44
434.016	12057.93
434.223	12561.73
434.43	13602.1
434.637	13509.94
434.844	14038.31
435.052	14355.75
435.259	14306.6
435.466	14257.45
435.673	14372.13
435.88	15058.2
436.087	16133.39
436.294	15969.55
436.501	15361.3
436.708	15887.63
436.915	16459.01
437.122	17153.27
437.329	17149.18
437.537	17583.35
437.743	17908.97
437.95	17759.47
438.157	18853.09
438.364	19231.96
438.571	19313.88
438.778	19336.41
438.985	21267.64
439.192	20327.63
439.399	21148.86
439.606	20516.04
439.813	21593.27
440.02	22805.67
440.227	22729.89
440.433	22365.35
440.64	23393.44
440.847	22848.68
441.054	23606.42
441.261	25089.15
441.467	24882.31
441.674	25105.54
441.881	26063.99
442.088	26041.46
442.294	25861.24
442.501	26383.47
442.708	27247.71
442.914	28408.91
443.121	29283.39
443.328	28247.12
443.534	30571.57
443.741	29535.29
443.948	29283.39
444.154	31341.6
444.361	31407.14
444.568	31613.98
444.774	31534.11
444.981	31771.68
445.187	32652.3
445.394	33815.55
445.6	33485.83
445.807	36764.62
446.013	35492.83
446.22	35634.14
446.426	37428.16
446.633	37415.88
446.839	38554.55
447.046	36901.84
447.252	38921.13
447.459	39259.05
447.665	38724.53
447.871	40768.4
448.078	42072.96
448.284	40518.55
448.491	41399.18
448.697	43111.28
448.903	43778.92
449.11	43770.72
449.316	42810.23
449.522	43615.08
449.728	44897.11
449.935	45376.33
450.141	45314.89
450.347	45990.72
450.553	44561.24
450.76	45175.63
450.966	46654.26
451.172	46023.49
451.378	46910.26
451.584	46099.26
451.791	47399.72
451.997	47295.28
452.203	47926.05
452.409	47885.09
452.615	47203.12
452.821	45808.45
453.027	45278.03
453.233	48038.69
453.44	45417.29
453.646	45951.81
453.852	46086.98
454.058	47059.76
454.264	45671.24
454.47	46373.69
454.676	45439.82
454.882	46736.18
455.088	42718.07
455.294	43697
455.5	44278.62
455.705	44329.82
455.911	42681.2
456.117	42060.67
456.323	41601.93
456.529	39062.44
456.735	40518.55
456.941	39445.41
457.147	38730.67
457.352	38263.74
457.558	37204.94
457.764	37534.66
457.97	36989.9
458.176	36264.92
458.381	36172.76
458.587	34452.47
458.793	34182.13
458.999	32373.78
459.204	34923.5
459.41	34067.45
459.616	31736.86
459.821	31769.63
460.027	31480.86
460.233	30989.35
460.438	28984.39
460.644	29758.52
460.85	28218.45
461.055	27978.84
461.261	27896.92
461.466	25777.27
461.672	24831.11
461.878	26862.69
462.083	25392.25
462.289	25060.48
462.494	24366.22
462.7	23372.96
462.905	22908.07
463.111	23639.19
463.316	23418.01
463.522	23381.15
463.727	23116.96
463.932	23053.47
464.138	22912.16
464.343	23190.69
464.549	22639.78
464.754	22826.15
464.959	22987.94
465.165	22742.18
465.37	21529.78
465.575	21107.9
465.781	22133.93
465.986	22256.81
466.191	21417.15
466.397	20995.26
466.602	19866.83
466.807	20880.58
467.012	20661.44
467.218	20767.94
467.423	20315.34
467.628	20546.76
467.833	21619.89
468.038	20643.01
468.244	19827.92
468.449	20610.25
468.654	20110.54
468.859	19866.83
469.064	19897.55
469.269	19358.94
469.474	19256.54
469.679	19559.64
469.885	19025.12
470.09	19035.36
470.295	19199.2
470.5	18705.63
470.705	18887.9
470.91	18586.85
471.115	17939.69
471.32	18361.58
471.525	18425.06
471.73	17880.3
471.935	18044.14
472.139	17476.85
472.344	17575.16
472.549	17413.37
472.754	17020.16
472.959	16981.24
473.164	16442.63
473.369	16110.86
473.574	16819.46
473.778	16639.23
473.983	16606.47
474.188	16297.22
474.393	15856.91
474.598	15729.94
474.802	15648.02
475.007	15584.53
475.212	15615.25
475.417	15045.91
475.621	14931.23
475.826	15179.03
476.031	14648.61
476.235	14482.72
476.44	14654.75
476.645	14466.34
476.849	14400.8
477.054	14331.17
477.259	14050.6
477.463	13964.59
477.668	13550.9
477.872	14011.69
478.077	13634.86
478.282	13378.87
478.486	13409.59
478.691	13450.55
478.895	13442.35
479.1	12922.17
479.304	13161.78
479.509	12662.08
479.713	12905.79
479.918	12776.77
480.122	12477.76
480.326	12768.57
480.531	12490.05
480.735	12432.71
480.94	12522.82
481.144	12844.35
481.348	12197.19
481.553	12582.21
481.757	11980.11
481.961	12490.05
482.166	12444.99
482.37	12266.82
482.574	12141.89
482.778	12234.05
482.983	12410.18
483.187	12141.89
483.391	12571.97
483.595	12111.18
483.8	12129.61
484.004	12447.04
484.208	12444.99
484.412	12291.4
484.616	12270.92
484.821	12422.47
485.025	12072.26
485.229	12383.56
485.433	12275.01
485.637	12234.05
485.841	12158.28
486.045	12156.23
486.249	12045.64
486.453	12033.35
486.657	12088.65
486.861	12451.14
487.065	11928.91
487.269	12275.01
487.473	12070.22
487.677	12266.82
487.881	12614.98
488.085	12229.96
488.289	12422.47
488.493	12195.14
488.697	12356.93
488.901	12627.26
489.105	12418.37
489.309	12426.56
489.512	12377.41
489.716	12543.3
489.92	12541.25
490.124	12479.81
490.328	12692.8
490.531	12404.03
490.735	12545.34
490.939	12803.39
491.143	12524.86
491.346	12578.11
491.55	13159.74
491.754	12815.68
491.958	12875.07
492.161	12832.06
492.365	12893.5
492.569	13151.54
492.772	13034.81
492.976	13061.43
493.18	13081.91
493.383	13526.32
493.587	13432.12
493.79	13583.66
493.994	13686.06
494.197	13669.68
494.401	13792.56
494.605	13810.99
494.808	14089.51
495.012	14114.09
495.215	14236.97
495.419	14128.42
495.622	14175.53
495.825	14560.55
496.029	14495.01
496.232	14595.36
496.436	14650.66
496.639	14906.65
496.843	15047.96
497.046	15086.87
497.249	15598.87
497.453	15471.89
497.656	15949.07
497.859	15666.45
498.063	15981.84
498.266	16114.95
498.469	16125.19
498.673	16389.38
498.876	16571.65
499.079	16850.17
499.282	16749.82
499.485	17157.37
499.689	17325.3
499.892	17511.67
500.095	17566.96
500.298	17937.65
500.501	17577.2
500.705	18089.2
500.908	18371.82
501.111	18824.42
501.314	18646.24
501.517	19041.5
501.72	19309.79
501.923	19033.31
502.126	19670.23
502.329	19899.6
502.532	20366.54
502.735	20110.54
502.938	20497.61
503.141	20923.58
503.344	21066.94
503.547	21101.76
503.75	21351.61
503.953	22002.86
504.156	21949.62
504.359	22154.41
504.562	21966
504.765	22490.28
504.968	22944.93
505.17	23176.35
505.373	23274.65
505.576	23692.44
505.779	23893.14
505.982	24153.23
506.185	24536.2
506.387	24425.61
506.59	24628.36
506.793	24982.66
506.996	25355.39
507.198	25492.6
507.401	25721.98
507.604	26027.12
507.807	26809.45
508.009	26621.03
508.212	26647.66
508.415	27120.74
508.617	27866.2
508.82	27604.06
509.022	27335.77
509.225	28314.7
509.428	28517.45
509.63	28650.57
509.833	28787.78
510.035	29682.75
510.238	29525.05
510.44	29830.2
510.643	30159.92
510.845	30346.29
511.048	30372.91
511.25	30835.75
511.453	31171.62
511.655	32048.15
511.858	31962.14
512.06	32136.21
512.262	32085.01
512.465	32562.19
512.667	33016.84
512.87	33598.46
513.072	33113.09
513.274	33842.17
513.477	34423.79
513.679	34456.56
513.881	35238.89
514.084	34927.6
514.286	34964.46
514.488	35783.65
514.69	36293.59
514.893	36387.8
515.095	36414.42
515.297	36740.05
515.499	37352.39
515.701	37723.07
515.904	38060.99
516.106	38349.75
516.308	38896.56
516.51	39453.61
516.712	39087.02
516.914	39312.3
517.116	39904.16
517.318	39990.17
517.52	40244.12
517.722	40498.07
517.925	41214.86
518.127	41560.97
518.329	41870.21
518.531	41925.5
518.733	42500.98
518.935	42779.51
519.136	42500.98
519.338	43656.04
519.54	43412.33
519.742	44131.17
519.944	44399.45
520.146	44768.08
520.348	45259.6
520.55	45550.41
520.752	45484.87
520.954	46551.87
521.155	45998.91
521.357	46064.45
521.559	46797.62
521.761	47506.22
521.963	47323.95
522.164	47471.4
522.366	47641.39
522.568	48231.2
522.77	48485.15
522.971	49142.55
523.173	48665.37
523.375	49074.96
523.576	49529.61
523.778	49771.27
523.98	50166.53
524.181	49926.92
524.383	50316.03
524.584	51079.92
524.786	51178.23
524.988	51190.51
525.189	50918.14
525.391	51938.02
525.592	52136.68
525.794	52320.99
525.995	52351.71
526.197	52462.3
526.398	52452.06
526.6	52761.31
526.801	53170.9
527.003	53314.26
527.204	52759.26
527.406	53803.72
527.607	53392.08
527.808	54198.98
528.01	53015.26
528.211	53975.75
528.412	54807.23
528.614	54323.91
528.815	54731.45
529.016	55448.24
529.218	54239.94
529.419	54665.92
529.62	54854.33
529.822	55294.64
530.023	54903.48
530.224	55038.65
530.425	54995.64
530.626	55055.03
530.828	54375.11
531.029	56156.84
531.23	55241.4
531.431	55585.46
531.632	55716.53
531.833	56023.72
532.035	56062.63
532.236	55599.79
532.437	55853.74
532.638	55356.08
532.839	56767.13
533.04	56259.24
533.241	55863.98
533.442	56550.05
533.643	56277.67
533.844	56339.11
534.045	56476.32
534.246	55841.45
534.447	56593.06
534.648	56097.45
534.849	56249
535.05	56378.02
535.251	56756.89
535.451	56128.17
535.652	56527.52
535.853	56337.06
536.054	56877.72
536.255	56504.99
536.456	56337.06
536.657	56976.03
536.857	56341.16
537.058	56136.36
537.259	56935.07
537.46	56494.75
537.66	56300.2
537.861	56615.58
538.062	56306.34
538.263	56195.75
538.463	56609.44
538.664	56623.78
538.865	56287.91
539.065	56814.24
539.266	56062.63
539.466	56783.52
539.667	56066.73
539.868	57293.46
540.068	56308.39
540.269	56742.56
540.469	57074.33
540.67	56550.05
540.87	56525.47
541.071	56394.4
541.271	56767.13
541.472	56504.99
541.672	56193.7
541.873	56097.45
542.073	55722.67
542.274	57221.78
542.474	56160.94
542.675	55935.66
542.875	56789.66
543.075	56132.26
543.276	55937.71
543.476	56699.55
543.676	56066.73
543.877	56599.2
544.077	55945.9
544.277	55964.33
544.478	56029.87
544.678	55894.7
544.878	55839.4
545.078	56375.97
545.279	55550.64
545.479	55921.32
545.679	56079.02
545.879	56261.29
546.079	55825.07
546.28	55986.86
546.48	55448.24
546.68	55945.9
546.88	56640.16
547.08	56482.47
547.28	55894.7
547.48	55900.84
547.68	55923.37
547.88	55650.99
548.081	56005.29
548.281	56091.3
548.481	55622.32
548.681	56060.58
548.881	55751.34
549.081	55878.32
549.28	55691.95
549.48	55890.6
549.68	55943.85
549.88	56273.57
550.08	55866.03
550.28	56130.22
550.48	55444.15
550.68	56001.19
550.88	55251.64
551.08	55587.5
551.279	55683.76
551.479	55474.87
551.679	55468.72
551.879	55722.67
552.079	56099.5
552.278	55120.57
552.478	55227.06
552.678	55661.23
552.878	56148.65
553.077	55573.17
553.277	55124.66
553.477	56111.78
553.676	55440.05
553.876	55567.02
554.076	54778.56
554.275	55538.35
554.475	54674.11
554.674	55481.01
554.874	55501.49
555.074	55222.97
555.273	54956.73
555.473	55071.42
555.672	54698.69
555.872	54999.74
556.071	54913.72
556.271	55079.61
556.47	54196.93
556.67	54387.39
556.869	54584
557.068	55018.17
557.268	54670.01
557.467	54661.82
557.667	54825.66
557.866	54444.74
558.065	54592.19
558.265	54395.59
558.464	54149.83
558.663	54649.53
558.863	53949.13
559.062	54635.2
559.261	54053.58
559.461	54880.95
559.66	53734.09
559.859	54293.19
560.058	53904.07
560.258	53889.74
560.457	53539.54
560.656	54334.15
560.855	54022.86
561.054	54033.1
561.253	53498.58
561.453	53734.09
561.652	53596.88
561.851	54029
562.05	53529.3
562.249	53084.89
562.448	53334.74
562.647	53330.64
562.846	53451.47
563.045	52970.2
563.244	52224.74
563.443	53400.27
563.642	52232.93
563.841	53152.47
564.04	52658.91
564.239	53017.3
564.438	52224.74
564.637	52433.63
564.836	52515.55
565.035	51907.3
565.234	52187.88
565.432	51688.17
565.631	52056.81
565.83	52290.27
566.029	52005.61
566.228	52048.61
566.427	51415.79
566.625	51270.39
566.824	51383.02
567.023	51356.4
567.222	50451.2
567.42	51233.52
567.619	51602.16
567.818	51213.04
568.016	51006.2
568.215	51393.26
568.414	50971.38
568.612	51520.24
568.811	50330.37
569.01	50647.8
569.208	50107.14
569.407	50938.61
569.605	49658.63
569.804	50717.43
570.002	50127.62
570.201	50404.09
570.4	49732.36
570.598	50031.36
570.797	49466.13
570.995	49509.13
571.193	48784.15
571.392	50141.95
571.59	49437.45
571.789	49367.82
571.987	49218.32
572.186	49062.68
572.384	48792.34
572.582	49025.81
572.781	49091.35
572.979	48067.36
573.177	48894.74
573.376	48896.79
573.574	48278.3
573.772	48278.3
573.971	48200.48
574.169	48091.94
574.367	47821.61
574.565	48010.02
574.763	47711.02
574.962	47907.62
575.16	47205.17
575.358	47571.75
575.556	46797.62
575.754	47604.52
575.952	46736.18
576.151	47659.82
576.349	46539.58
576.547	46756.66
576.745	46897.97
576.943	46490.43
577.141	46818.1
577.339	47026.99
577.537	45984.58
577.735	46572.35
577.933	46052.16
578.131	46637.88
578.329	46152.51
578.527	45376.33
578.725	46236.48
578.923	45980.48
579.121	45886.28
579.319	45630.28
579.516	46037.83
579.714	45402.96
579.912	45321.04
580.11	45097.81
580.308	45263.69
580.506	45347.66
580.704	44157.79
580.901	45067.09
581.099	45093.71
581.297	44442.46
581.495	44475.23
581.692	44614.49
581.89	43705.19
582.088	44475.23
582.285	44067.68
582.483	44360.54
582.681	43930.47
582.878	43875.17
583.076	43506.54
583.274	43991.9
583.471	43414.38
583.669	44032.86
583.866	43381.61
584.064	43639.65
584.262	42722.16
584.459	43215.72
584.657	42570.61
584.854	43242.35
585.052	42408.82
585.249	42783.6
585.447	42967.92
585.644	42234.75
585.841	42873.71
586.039	42865.52
586.236	42036.09
586.434	41790.34
586.631	41710.47
586.828	41970.56
587.026	42001.28
587.223	41700.23
587.42	41859.97
587.618	41501.57
587.815	41071.5
588.012	40981.39
588.21	41427.85
588.407	41431.94
588.604	40995.73
588.801	40657.81
588.999	40604.56
589.196	40618.9
589.393	40461.21
589.59	40596.37
589.787	40014.75
589.984	39914.4
590.182	39764.9
590.379	40051.61
590.576	39953.31
590.773	40100.76
590.97	39529.38
591.167	39721.89
591.364	39338.92
591.561	39687.07
591.758	39193.51
591.955	39101.36
592.152	39445.41
592.349	38988.72
592.546	38953.9
592.743	38745.01
592.94	38392.76
593.137	38593.46
593.334	38679.47
593.531	38077.37
593.727	38355.89
593.924	37979.07
594.121	37749.7
594.318	38147
594.515	37776.32
594.712	38202.3
594.908	37397.45
595.105	37825.47
595.302	37379.01
595.499	37491.65
595.696	37653.44
595.892	36987.85
596.089	37419.97
596.286	37172.17
596.482	37067.72
596.679	36525.01
596.876	36994
597.072	36467.67
597.269	36510.67
597.466	36271.06
597.662	36258.77
597.859	36099.03
598.055	36719.57
598.252	36150.23
598.448	35816.41
598.645	35759.07
598.841	35304.42
599.038	35654.62
599.234	35677.15
599.431	35183.59
599.627	35077.1
599.824	35357.67
600.02	35257.32
600.217	35271.65
600.413	34620.4
600.609	34722.8
600.806	34524.15
601.002	34735.09
601.198	34620.4
601.395	34259.96
601.591	34395.12
601.787	34540.53
601.984	34284.53
602.18	34034.68
602.376	33938.43
602.572	33825.79
602.769	33733.63
602.965	33444.87
603.161	33709.05
603.357	33403.91
603.553	33301.51
603.75	33022.98
603.946	33074.18
604.142	33154.05
604.338	32568.34
604.534	32996.36
604.73	32584.72
604.926	32656.4
605.122	32613.39
605.318	32207.89
605.514	32554
605.71	31941.66
605.906	32332.82
606.102	31704.09
606.298	32111.64
606.494	32023.58
606.69	31888.41
606.886	31757.34
607.082	31388.71
607.278	31806.49
607.474	31360.03
607.67	31714.33
607.866	31204.39
608.062	31595.55
608.257	31192.1
608.453	31228.96
608.649	31036.45
608.845	30985.26
609.041	30714.92
609.236	31179.81
609.432	30815.27
609.628	30770.22
609.824	30596.14
610.019	30643.24
610.215	30706.73
610.411	30397.49
610.606	30387.25
610.802	30549.04
610.998	30436.4
611.193	30233.65
611.389	30084.15
611.584	30135.35
611.78	30221.36
611.976	30127.16
612.171	29727.8
612.367	29832.25
612.562	29686.84
612.758	29273.15
612.953	29402.18
613.149	29717.56
613.344	29510.72
613.539	29817.91
613.735	29561.92
613.93	29690.94
614.126	29031.49
614.321	29357.12
614.517	29156.42
614.712	29486.14
614.907	28929.09
615.103	29193.28
615.298	29015.11
615.493	28869.7
615.688	28724.3
615.884	29332.54
616.079	28396.62
616.274	28759.11
616.47	28316.75
616.665	28873.8
616.86	28673.1
617.055	28621.9
617.25	28220.5
617.445	28623.95
617.641	27907.16
617.836	28345.42
618.031	27866.2
618.226	27993.17
618.421	27771.99
618.616	28437.58
618.811	27331.68
619.006	27853.91
619.201	27094.11
619.396	27741.27
619.591	27223.14
619.786	27362.4
619.981	26858.6
620.176	27214.94
620.371	26748.01
620.566	26715.24
620.761	26793.06
620.956	26547.31
621.151	26268.78
621.346	26379.37
621.541	25959.54
621.735	26152.05
621.93	25705.59
622.125	25959.54
622.32	25525.37
622.515	25662.58
622.709	25166.98
622.904	25222.27
623.099	25322.62
623.294	25371.77
623.488	24853.64
623.683	24734.85
623.878	24501.39
624.072	24583.3
624.267	24530.06
624.462	24265.87
624.656	24134.8
624.851	24020.11
625.046	23850.13
625.24	23858.32
625.435	23678.1
625.629	23774.36
625.824	23245.98
626.018	23248.03
626.213	22822.05
626.407	23112.86
626.602	22670.5
626.796	22985.89
626.991	22946.98
627.185	22750.37
627.38	22217.9
627.574	22289.58
627.768	22224.04
627.963	21914.8
628.157	21710
628.352	21966
628.546	21513.4
628.74	21517.5
628.935	21392.57
629.129	21503.16
629.323	21050.56
629.517	21191.87
629.712	20899.01
629.906	20753.6
630.1	20786.37
630.294	20882.63
630.489	20421.83
630.683	20710.6
630.877	20155.6
631.071	20073.68
631.265	20395.21
631.459	20212.94
631.653	20055.25
631.848	19526.87
632.042	19670.23
632.236	20006.09
632.43	19483.86
632.624	19791.06
632.818	19217.63
633.012	19088.6
633.206	19039.45
633.4	18840.8
633.594	18838.75
633.788	18851.04
633.982	18636
634.176	18756.83
634.369	18476.26
634.563	18324.71
634.757	18267.37
634.951	18263.27
635.145	18179.31
635.339	18150.64
635.533	18038
635.726	17939.69
635.92	17820.91
636.114	17644.79
636.308	17566.96
636.501	17798.38
636.695	17399.03
636.889	17036.54
637.083	17087.74
637.276	17204.47
637.47	17091.84
637.664	16909.57
637.857	16962.81
638.051	16815.36
638.244	16676.1
638.438	16573.7
638.632	16354.57
638.825	16241.93
639.019	16194.82
639.212	16379.14
639.406	15901.97
639.599	16319.75
639.793	16102.67
639.986	15652.11
640.18	15916.3
640.373	15615.25
640.567	15463.7
640.76	15674.64
640.954	15367.45
641.147	15461.65
641.34	15197.46
641.534	15162.65
641.727	15150.36
641.92	14920.99
642.114	14982.43
642.307	14961.95
642.5	14662.94
642.694	14523.68
642.887	14857.5
643.08	14619.94
643.273	14626.08
643.467	14388.52
643.66	14472.48
643.853	14247.21
644.046	14028.07
644.239	13862.19
644.432	14175.53
644.626	13862.19
644.819	13923.63
645.012	13737.26
645.205	13892.91
645.398	13751.6
645.591	13487.41
645.784	13425.97
645.977	13432.12
646.17	13532.47
646.363	13194.55
646.556	13092.15
646.749	13002.04
646.942	13180.21
647.135	12764.48
647.328	12776.77
647.521	12852.54
647.714	12897.6
647.907	12801.34
648.099	12664.13
648.292	12705.09
648.485	12508.48
648.678	12348.74
648.871	12221.77
649.064	12156.23
649.256	12385.6
649.449	12373.32
649.642	12205.38
649.835	11990.35
650.027	11973.96
650.22	11791.69
650.413	12014.92
650.605	11822.41
650.798	11777.36
650.991	11691.34
651.183	11724.11
651.376	11355.47
651.568	11652.43
651.761	11345.23
651.954	11492.69
652.146	11275.6
652.339	11511.12
652.531	11218.26
652.724	11062.62
652.916	10954.07
653.109	10976.6
653.301	11107.67
653.494	10968.41
653.686	10861.91
653.879	10923.35
654.071	10722.65
654.263	10687.84
654.456	10661.21
654.648	10745.18
654.84	10286.44
655.033	10403.17
655.225	10374.5
655.417	10206.56
655.61	10175.84
655.802	10290.53
655.994	10343.78
656.186	10095.97
656.379	10120.55
656.571	10208.61
656.763	9946.47
656.955	9825.64
657.148	9962.86
657.34	9794.92
657.532	9731.44
657.724	9682.28
657.916	9713
658.108	9596.27
658.3	9565.55
658.492	9567.6
658.684	9293.17
658.876	9575.79
659.068	9375.09
659.26	9346.42
659.452	9522.54
659.644	9182.58
659.836	9147.76
660.028	9201.01
660.22	8934.78
660.412	9143.67
660.604	8904.06
660.796	9051.51
660.988	9063.8
661.18	8746.36
661.372	8834.43
661.563	8848.76
661.755	8732.03
661.947	8699.26
662.139	8787.32
662.331	8523.13
662.522	8482.17
662.714	8418.69
662.906	8293.76
663.097	8564.09
663.289	8367.49
663.481	8217.99
663.673	8304
663.864	8295.81
664.056	8080.77
664.247	8240.51
664.439	8119.68
664.631	8260.99
664.822	8029.57
665.014	8009.09
665.205	8076.68
665.397	7894.41
665.588	7990.66
665.78	7701.9
665.971	7669.13
666.163	7818.63
666.354	7650.7
666.546	7669.13
666.737	7509.39
666.929	7716.23
667.12	7773.58
667.311	7665.04
667.503	7466.38
667.694	7587.21
667.885	7386.51
668.077	7488.91
668.268	7366.03
668.459	7517.58
668.651	7423.37
668.842	7277.97
669.033	7273.87
669.224	7191.95
669.416	7290.26
669.607	7185.81
669.798	7007.64
669.989	7196.05
670.18	6991.25
670.371	7024.02
670.563	6892.95
670.754	7118.23
670.945	6909.33
671.136	6907.29
671.327	6716.83
671.518	6708.63
671.709	6978.97
671.9	6778.26
672.091	6899.09
672.282	6765.98
672.473	6829.46
672.664	6731.16
672.855	6688.15
673.046	6589.85
673.237	6755.74
673.428	6686.11
673.619	6544.8
673.809	6567.32
674	6475.17
674.191	6569.37
674.382	6520.22
674.573	6522.27
674.764	6395.29
674.954	6487.45
675.145	6473.12
675.336	6317.47
675.527	6387.1
675.717	6364.57
675.908	6387.1
676.099	6446.49
676.289	6186.4
676.48	6245.79
676.671	6151.59
676.861	6253.98
677.052	6127.01
677.243	6131.11
677.433	6210.98
677.624	6223.27
677.814	6053.28
678.005	6106.53
678.195	6145.44
678.386	6012.32
678.576	6036.9
678.767	5897.64
678.957	6122.91
679.148	5909.93
679.338	5875.11
679.529	5946.79
679.719	5948.84
679.909	6036.9
680.1	6061.48
680.29	5971.36
680.481	6026.66
680.671	5977.51
680.861	5729.7
681.052	5952.93
681.242	5668.27
681.432	5938.6
681.622	5830.06
681.813	5852.58
682.003	5840.29
682.193	5723.56
682.383	5678.51
682.573	5678.51
682.764	5764.52
682.954	5668.27
683.144	5758.38
683.334	5545.39
683.524	5645.74
683.714	5741.99
683.904	5631.4
684.094	5612.97
684.284	5848.49
684.474	5686.7
684.664	5590.44
684.854	5594.54
685.044	5543.34
685.234	5469.61
685.424	5543.34
685.614	5414.32
685.804	5522.86
685.994	5232.05
686.184	5381.55
686.374	5238.19
686.564	5328.3
686.753	5494.19
686.943	5320.11
687.133	5373.36
687.323	5258.67
687.513	5336.49
687.702	5189.04
687.892	5162.42
688.082	5111.22
688.272	5219.76
688.461	5209.52
688.651	5143.99
688.841	5072.31
689.03	5195.18
689.22	5193.14
689.41	5051.83
689.599	4926.9
689.789	4875.7
689.979	5088.69
690.168	4978.1
690.358	4885.94
690.547	4924.85
690.737	4961.72
690.926	4785.59
691.116	4791.73
691.305	4840.89
691.495	4787.64
691.684	4591.03
691.874	4885.94
692.063	4918.71
692.252	4697.53
692.442	4761.02
692.631	4521.4
692.82	4603.32
693.01	4761.02
693.199	4595.13
693.388	4550.07
693.578	4492.73
693.767	4619.71
693.956	4640.19
694.146	4607.42
694.335	4341.18
694.524	4525.5
694.713	4636.09
694.902	4611.51
695.092	4416.96
695.281	4474.3
695.47	4496.83
695.659	4390.33
695.848	4406.72
696.037	4349.37
696.226	4423.1
696.415	4390.33
696.604	4449.72
696.793	4322.75
696.982	4306.37
697.171	4335.04
697.36	4410.81
697.549	4246.98
697.738	4206.02
697.927	4134.34
698.116	4373.95
698.305	4308.41
698.494	4117.95
698.683	4292.03
698.872	4421.05
699.061	4283.84
699.25	4191.68
699.438	4373.95
699.627	4187.58
699.816	4152.77
700.005	4177.34
700.193	4175.3
700.382	4195.78
700.571	4230.59
700.76	4144.58
700.948	4238.78
701.137	4343.23
701.326	4074.95
701.514	4189.63
701.703	4158.91
701.892	4046.27
702.08	4105.67
702.269	4107.71
702.457	3997.12
702.646	4146.62
702.834	3984.84
703.023	3984.84
703.212	4033.99
703.4	4216.26
703.589	4036.03
703.777	4068.8
703.965	3767.75
704.154	4015.55
704.342	3968.45
704.531	3874.24
704.719	3976.64
704.907	3943.88
705.096	3904.96
705.284	3929.54
705.472	4009.41
705.661	4046.27
705.849	3919.3
706.037	4038.08
706.226	3972.55
706.414	4021.7
706.602	3861.96
706.79	4017.6
706.979	3947.97
707.167	3915.2
707.355	3878.34
707.543	3941.83
707.731	3980.74
707.919	3861.96
708.107	3986.88
708.296	3976.64
708.484	3849.67
708.672	3917.25
708.86	4019.65
709.048	3847.62
709.236	3931.59
709.424	3868.1
709.612	3761.61
709.8	3882.44
709.988	3855.81
710.176	3821
710.364	3790.28
710.551	3880.39
710.739	3927.49
710.927	3659.21
711.115	3800.52
711.303	3919.3
711.491	3796.42
711.679	3829.19
711.866	3849.67
712.054	3966.4
712.242	3843.53
712.43	3900.87
712.617	3792.33
712.805	3718.6
712.993	3708.36
713.181	3798.47
713.368	3722.7
713.556	3855.81
713.744	3620.3
713.931	3808.71
714.119	3841.48
714.306	3808.71
714.494	3851.72
714.682	3786.18
714.869	3720.65
715.057	3839.43
715.244	3620.3
715.432	3722.7
715.619	3716.55
715.807	3706.31
715.994	3687.88
716.182	3794.37
716.369	3790.28
716.556	3777.99
716.744	3661.26
716.931	3673.54
717.119	3722.7
717.306	3665.35
717.493	3683.78
717.681	3835.33
717.868	3712.46
718.055	3786.18
718.242	3769.8
718.43	3753.41
718.617	3704.26
718.804	3618.25
718.991	3722.7
719.179	3710.41
719.366	3702.22
719.553	3792.33
719.74	3562.95
719.927	3612.1
720.114	3734.98
720.301	3696.07
720.488	3608.01
720.676	3691.98
720.863	3603.91
721.05	3726.79
721.237	3626.44
721.424	3655.11
721.611	3567.05
721.798	3636.68
721.985	3544.52
722.172	3659.21
722.358	3524.04
722.545	3667.4
722.732	3540.43
722.919	3648.97
723.106	3456.46
723.293	3575.24
723.48	3698.12
723.667	3511.75
723.853	3495.37
724.04	3622.34
724.227	3534.28
724.414	3571.15
724.6	3562.95
724.787	3521.99
724.974	3608.01
725.161	3575.24
725.347	3503.56
725.534	3511.75
725.72	3651.02
725.907	3599.82
726.094	3562.95
726.28	3466.7
726.467	3372.49
726.653	3476.94
726.84	3503.56
727.027	3534.28
727.213	3501.51
727.4	3538.38
727.586	3450.32
727.773	3454.41
727.959	3603.91
728.145	3431.88
728.332	3358.16
728.518	3515.85
728.705	3528.14
728.891	3421.64
729.077	3478.99
729.264	3474.89
729.45	3478.99
729.636	3472.84
729.823	3466.7
730.009	3343.82
730.195	3288.53
730.382	3343.82
730.568	3220.94
730.754	3304.91
730.94	3300.81
731.126	3433.93
731.313	3329.49
731.499	3411.4
731.685	3327.44
731.871	3444.17
732.057	3337.68
732.243	3411.4
732.429	3360.2
732.615	3366.35
732.801	3222.99
732.987	3329.49
733.173	3202.51
733.359	3245.52
733.545	3290.57
733.731	3122.64
733.917	3235.28
734.103	3343.82
734.289	3364.3
734.475	3384.78
734.661	3358.16
734.847	3257.81
735.033	3243.47
735.219	3186.13
735.404	3200.46
735.59	3268.05
735.776	3220.94
735.962	3136.98
736.148	3284.43
736.333	3128.78
736.519	3126.74
736.705	3290.57
736.89	3120.59
737.076	3147.22
737.262	3081.68
737.447	3208.66
737.633	3089.87
737.819	3102.16
738.004	3237.33
738.19	3159.5
738.375	3030.48
738.561	3139.02
738.747	3030.48
738.932	3024.34
739.118	3235.28
739.303	3022.29
739.489	3210.7
739.674	3001.81
739.859	3005.91
740.045	2913.75
740.23	3020.24
740.416	2942.42
740.601	2971.09
740.786	3024.34
740.972	2966.99
741.157	2942.42
741.342	2862.55
741.528	2971.09
741.713	2969.04
741.898	2948.56
742.084	2872.79
742.269	2866.64
742.454	2772.44
742.639	2885.08
742.824	2766.29
743.01	2803.16
743.195	2821.59
743.38	2772.44
743.565	2862.55
743.75	2680.28
743.935	2778.58
744.12	2887.12
744.305	2713.05
744.49	2653.66
744.675	2729.43
744.86	2772.44
745.045	2706.9
745.23	2665.94
745.415	2649.56
745.6	2651.61
745.785	2694.61
745.97	2639.32
746.155	2610.65
746.34	2637.27
746.525	2590.17
746.71	2575.83
746.895	2407.9
747.079	2455
747.264	2502.11
747.449	2559.45
747.634	2457.05
747.819	2461.15
748.003	2428.38
748.188	2495.96
748.373	2366.94
748.557	2522.59
748.742	2391.52
748.927	2289.12
749.111	2203.1
749.296	2321.88
749.481	2389.47
749.665	2317.79
749.85	2342.36
750.034	2289.12
750.219	2270.69
750.404	2311.64
750.588	2295.26
750.773	2121.18
750.957	2305.5
751.141	2180.57
751.326	2231.77
751.51	2127.33
751.695	2158.05
751.879	2063.84
752.064	2129.38
752.248	2096.61
752.432	2065.89
752.617	2006.5
752.801	2020.83
752.985	2100.7
753.17	1904.1
753.354	1998.31
753.538	2022.88
753.722	1951.2
753.907	2018.79
754.091	1822.18
754.275	1928.67
754.459	1928.67
754.643	1895.91
754.828	1844.71
755.012	1924.58
755.196	1875.43
755.38	1785.32
755.564	1836.52
755.748	1760.74
755.932	1908.19
756.116	1707.49
756.3	1859.04
756.484	1840.61
756.668	1779.17
756.852	1674.73
757.036	1711.59
757.22	1783.27
757.404	1703.4
757.588	1650.15
757.772	1697.25
757.956	1758.69
758.14	1582.57
758.323	1660.39
758.507	1709.54
758.691	1605.1
758.875	1592.81
759.059	1641.96
759.242	1500.65
759.426	1564.14
759.61	1635.82
759.794	1603.05
759.977	1596.9
760.161	1621.48
760.345	1590.76
760.528	1592.81
760.712	1588.71
760.895	1537.51
761.079	1400.3
761.263	1502.7
761.446	1392.11
761.63	1476.07
761.813	1400.3
761.997	1549.8
762.18	1576.42
762.364	1404.39
762.547	1383.91
762.731	1385.96
762.914	1478.12
763.098	1480.17
763.281	1410.54
763.464	1453.55
763.648	1369.58
763.831	1422.83
764.015	1302
764.198	1404.39
764.381	1365.48
764.564	1291.76
764.748	1322.48
764.931	1349.1
765.114	1336.81
765.297	1256.94
765.481	1316.33
765.664	1314.28
765.847	1230.32
766.03	1371.63
766.213	1293.8
766.397	1349.1
766.58	1334.76
766.763	1351.15
766.946	1242.61
767.129	1388.01
767.312	1269.23
767.495	1326.57
767.678	1244.65
767.861	1353.2
768.044	1175.02
768.227	1222.13
768.41	1232.37
768.593	1285.61
768.776	1213.93
768.959	1150.45
769.142	1170.93
769.324	1203.69
769.507	1127.92
769.69	1150.45
769.873	1150.45
770.056	1228.27
770.239	1099.25
770.421	1213.93
770.604	1136.11
770.787	1101.3
770.97	1189.36
771.152	1127.92
771.335	1144.3
771.518	1080.82
771.7	1113.58
771.883	1158.64
772.066	1179.12
772.248	1136.11
772.431	1095.15
772.613	1105.39
772.796	1089.01
772.978	1136.11
773.161	1043.95
773.343	1099.25
773.526	1064.43
773.708	974.32
773.891	1064.43
774.073	1035.76
774.256	966.13
774.438	1015.28
774.621	974.32
774.803	1062.38
774.985	935.41
775.168	1013.23
775.35	972.27
775.532	994.8
775.715	851.44
775.897	972.27
776.079	882.16
776.261	1011.18
776.444	1009.14
776.626	945.65
776.808	902.64
776.99	916.98
777.173	865.78
777.355	865.78
777.537	890.35
777.719	818.68
777.901	818.68
778.083	890.35
778.265	863.73
778.447	830.96
778.629	785.91
778.811	792.05
778.993	810.48
779.175	916.98
779.357	769.52
779.539	820.72
779.721	790
779.903	863.73
780.085	755.19
780.267	759.28
780.449	818.68
780.631	802.29
780.812	759.28
780.994	765.43
781.176	808.44
781.358	720.37
781.54	679.41
781.721	718.33
781.903	716.28
782.085	747
782.267	679.41
782.448	699.89
782.63	738.8
782.812	691.7
782.993	656.89
783.175	714.23
783.357	712.18
783.538	656.89
783.72	648.69
783.901	724.47
784.083	595.45
784.264	720.37
784.446	654.84
784.627	654.84
784.809	753.14
784.99	648.69
785.172	611.83
785.353	683.51
785.535	634.36
785.716	595.45
785.897	587.26
786.079	597.49
786.26	572.92
786.441	531.96
786.623	589.3
786.804	572.92
786.985	525.82
787.167	615.93
787.348	599.54
787.529	607.73
787.71	560.63
787.891	552.44
788.073	577.02
788.254	519.67
788.435	579.06
788.616	441.85
788.797	497.14
788.978	491
789.159	474.62
789.34	568.82
789.522	591.35
789.703	480.76
789.884	513.53
790.065	464.38
790.246	638.45
790.427	431.61
790.607	552.44
790.788	493.05
790.969	531.96
791.15	538.1
791.331	421.37
791.512	505.34
791.693	427.51
791.874	439.8
792.054	460.28
792.235	462.33
792.416	433.66
792.597	413.18
792.778	499.19
792.958	390.65
793.139	454.14
793.32	464.38
793.5	413.18
793.681	425.47
793.862	454.14
794.042	443.9
794.223	364.03
794.404	439.8
794.584	392.7
794.765	355.83
794.945	421.37
795.126	345.59
795.306	404.99
795.487	411.13
795.667	384.51
795.848	413.18
796.028	302.59
796.209	386.55
796.389	417.27
796.57	357.88
796.75	413.18
796.93	456.19
797.111	333.31
797.291	409.08
797.471	335.35
797.652	364.03
797.832	288.25
798.012	306.68
798.192	431.61
798.373	419.32
798.553	347.64
798.733	325.12
798.913	321.02
799.093	384.51
799.274	366.07
799.454	388.6
799.634	331.26
799.814	378.36
799.994	372.22
800.174	400.89
800.354	327.16
800.534	251.39
800.714	456.19
800.894	259.58
801.074	294.4
801.254	318.97
801.434	359.93
801.614	300.54
801.794	308.73
801.974	880.11
802.154	300.54
802.334	390.65
802.514	318.97
802.693	331.26
802.873	331.26
803.053	345.59
803.233	318.97
803.413	310.78
803.592	290.3
803.772	224.76
803.952	278.01
804.131	357.88
804.311	370.17
804.491	306.68
804.67	304.64
804.85	355.83
805.03	394.75
805.209	349.69
805.389	314.88
805.568	351.74
805.748	224.76
805.928	280.06
806.107	267.77
806.287	271.87
806.466	306.68
806.646	298.49
806.825	280.06
807.004	282.11
807.184	312.83
807.363	280.06
807.543	282.11
807.722	282.11
807.901	310.78
808.081	226.81
808.26	271.87
808.439	321.02
808.619	257.53
808.798	333.31
808.977	157.18
809.156	222.72
809.336	310.78
809.515	210.43
809.694	206.33
809.873	224.76
810.052	192
810.231	316.92
810.411	235
810.59	271.87
810.769	216.57
810.948	273.92
811.127	235
811.306	167.42
811.485	261.63
811.664	290.3
811.843	220.67
812.022	257.53
812.201	251.39
812.38	179.71
812.559	171.52
812.737	230.91
812.916	239.1
813.095	146.94
813.274	124.41
813.453	169.47
813.632	218.62
813.811	278.01
813.989	142.85
814.168	237.05
814.347	257.53
814.526	153.09
814.704	239.1
814.883	298.49
815.062	161.28
815.24	220.67
815.419	202.24
815.598	128.51
815.776	200.19
815.955	185.85
816.133	206.33
816.312	249.34
816.49	108.03
816.669	228.86
816.847	165.37
817.026	251.39
817.204	218.62
817.383	187.9
817.561	87.55
817.74	146.94
817.918	157.18
818.097	169.47
818.275	138.75
818.453	171.52
818.632	220.67
818.81	165.37
818.988	120.32
819.167	116.22
819.345	165.37
819.523	183.81
819.701	114.17
819.879	159.23
820.058	177.66
820.236	189.95
820.414	153.09
820.592	136.7
820.77	220.67
820.948	136.7
821.127	163.33
821.305	130.56
821.483	120.32
821.661	196.09
821.839	214.52
822.017	128.51
822.195	140.8
822.373	169.47
822.551	146.94
822.729	194.05
822.907	91.65
823.085	202.24
823.262	130.56
823.44	114.17
823.618	161.28
823.796	114.17
823.974	122.37
824.152	169.47
824.329	151.04
824.507	181.76
824.685	118.27
824.863	226.81
825.04	122.37
825.218	183.81
825.396	175.61
825.574	103.93
825.751	163.33
825.929	146.94
826.107	124.41
826.284	60.93
826.462	134.65
826.639	108.03
826.817	105.98
826.994	138.75
827.172	112.13
827.349	124.41
827.527	126.46
827.704	153.09
827.882	132.61
828.059	134.65
828.237	153.09
828.414	126.46
828.591	99.84
828.769	126.46
828.946	136.7
829.124	181.76
829.301	218.62
829.478	87.55
829.655	73.21
829.833	122.37
830.01	130.56
830.187	138.75
830.364	120.32
830.542	179.71
830.719	89.6
830.896	128.51
831.073	144.89
831.25	171.52
831.427	118.27
831.604	114.17
831.782	69.12
831.959	208.38
832.136	110.08
832.313	194.05
832.49	69.12
832.667	159.23
832.844	103.93
833.021	138.75
833.198	87.55
833.374	165.37
833.551	136.7
833.728	89.6
833.905	91.65
834.082	110.08
834.259	85.5
834.436	167.42
834.612	101.89
834.789	146.94
834.966	126.46
835.143	157.18
835.319	48.64
835.496	112.13
835.673	157.18
835.85	85.5
836.026	122.37
836.203	99.84
836.38	73.21
836.556	130.56
836.733	97.79
836.909	75.26
837.086	138.75
837.262	-4.61
837.439	75.26
837.616	97.79
837.792	46.59
837.968	130.56
838.145	71.17
838.321	7.68
838.498	126.46
838.674	134.65
838.851	110.08
839.027	67.07
839.203	144.89
839.38	97.79
839.556	105.98
839.732	97.79
839.909	38.4
840.085	118.27
840.261	52.74
840.437	69.12
840.614	101.89
840.79	114.17
840.966	97.79
841.142	62.98
841.318	73.21
841.494	138.75
841.671	112.13
841.847	42.5
842.023	54.78
842.199	73.21
842.375	69.12
842.551	-25.09
842.727	87.55
842.903	112.13
843.079	65.02
843.255	101.89
843.431	58.88
843.607	52.74
843.783	-14.85
843.959	54.78
844.134	144.89
844.31	101.89
844.486	65.02
844.662	65.02
844.838	69.12
845.013	124.41
845.189	93.69
845.365	15.87
845.541	5.63
845.716	93.69
845.892	126.46
846.068	97.79
846.244	-23.04
846.419	5.63
846.595	38.4
846.77	97.79
846.946	85.5
847.122	30.21
847.297	50.69
847.473	75.26
847.648	24.06
847.824	56.83
847.999	38.4
848.175	40.45
848.35	77.31
848.526	67.07
848.701	108.03
848.876	97.79
849.052	48.64
849.227	101.89
849.403	99.84
849.578	50.69
849.753	93.69
849.929	42.5
850.104	79.36
850.279	40.45
850.454	67.07
850.63	38.4
850.805	54.78
850.98	75.26
851.155	69.12
851.33	120.32
851.505	62.98
851.681	93.69
851.856	5.63
852.031	65.02
852.206	36.35
852.381	28.16
852.556	40.45
852.731	54.78
852.906	17.92
853.081	15.87
853.256	81.41
853.431	-39.42
853.606	56.83
853.781	9.73
853.956	62.98
854.131	95.74
854.305	38.4
854.48	50.69
854.655	24.06
854.83	83.45
855.005	3.58
855.18	48.64
855.354	42.5
855.529	83.45
855.704	-0.51
855.879	22.02
856.053	28.16
856.228	7.68
856.403	38.4
856.577	79.36
856.752	13.82
856.926	28.16
857.101	71.17
857.276	46.59
857.45	60.93
857.625	95.74
857.799	87.55
857.974	17.92
858.148	30.21
858.323	54.78
858.497	13.82
858.672	-57.86
858.846	-20.99
859.02	81.41
859.195	-27.14
859.369	7.68
859.543	38.4
859.718	9.73
859.892	81.41
860.066	38.4
860.241	73.21
860.415	54.78
860.589	38.4
860.763	95.74
860.938	105.98
861.112	42.5
861.286	-4.61
861.46	103.93
861.634	19.97
861.808	-16.9
861.982	97.79
862.157	-37.38
862.331	95.74
862.505	54.78
862.679	15.87
862.853	42.5
863.027	71.17
863.201	103.93
863.375	-70.14
863.549	93.69
863.722	11.78
863.896	60.93
864.07	79.36
864.244	36.35
864.418	38.4
864.592	114.17
864.766	73.21
864.939	112.13
865.113	26.11
865.287	40.45
865.461	-4.61
865.634	95.74
865.808	-25.09
865.982	13.82
866.156	7.68
866.329	24.06
866.503	-37.38
866.676	17.92
866.85	-14.85
867.024	7.68
867.197	19.97
867.371	108.03
867.544	15.87
867.718	77.31
867.891	67.07
868.065	-25.09
868.238	48.64
868.412	81.41
868.585	101.89
868.759	46.59
868.932	28.16
869.105	13.82
869.279	9.73
869.452	-0.51
869.625	62.98
869.799	-39.42
869.972	7.68
870.145	65.02
870.319	56.83
870.492	-2.56
870.665	-6.66
870.838	60.93
871.011	-57.86
871.185	9.73
871.358	60.93
871.531	50.69
871.704	65.02
871.877	32.26
872.05	17.92
872.223	11.78
872.396	112.13
872.569	103.93
872.742	19.97
872.915	38.4
873.088	56.83
873.261	38.4
873.434	19.97
873.607	36.35
873.78	38.4
873.953	-31.23
874.126	54.78
874.299	-14.85
874.471	-0.51
874.644	44.54
874.817	19.97
874.99	79.36
875.163	1.54
875.335	-8.7
875.508	73.21
875.681	48.64
875.853	-16.9
876.026	5.63
876.199	77.31
876.371	22.02
876.544	30.21
876.717	44.54
876.889	-0.51
877.062	-31.23
877.234	-43.52
877.407	7.68
877.579	15.87
877.752	11.78
877.924	81.41
878.097	46.59
878.269	36.35
878.442	-41.47
878.614	-8.7
878.786	30.21
878.959	15.87
879.131	103.93
879.303	13.82
879.476	24.06
879.648	112.13
879.82	32.26
879.993	67.07
880.165	75.26
880.337	-33.28
880.509	28.16
880.681	-64
880.854	24.06
881.026	81.41
881.198	56.83
881.37	-2.56
881.542	-29.18
881.714	26.11
881.886	-45.57
882.058	9.73
882.23	-6.66
882.402	-41.47
882.574	-16.9
882.746	22.02
882.918	19.97
883.09	48.64
883.262	-8.7
883.434	-31.23
883.606	-45.57
883.778	44.54
883.95	54.78
884.122	38.4
884.293	67.07
884.465	36.35
884.637	30.21
884.809	-12.8
884.98	-27.14
885.152	44.54
885.324	67.07
885.496	-23.04
885.667	-29.18
885.839	-88.57
886.011	73.21
886.182	15.87
886.354	13.82
886.525	40.45
886.697	28.16
886.869	60.93
887.04	32.26
887.212	-20.99
887.383	52.74
887.555	9.73
887.726	1.54
887.897	1.54
888.069	103.93
888.24	151.04
888.412	-25.09
888.583	9.73
888.754	-49.66
888.926	-12.8
889.097	67.07
889.268	19.97
889.44	7.68
889.611	11.78
889.782	15.87
889.953	79.36
890.125	-25.09
890.296	7.68
890.467	1.54
890.638	-16.9
890.809	-2.56
890.98	7.68
891.151	32.26
891.323	7.68
891.494	17.92
891.665	-25.09
891.836	73.21
892.007	44.54
892.178	11.78
892.349	30.21
892.52	34.3
892.691	30.21
892.862	17.92
893.032	34.3
893.203	56.83
893.374	15.87
893.545	-53.76
893.716	-8.7
893.887	38.4
894.057	-20.99
894.228	79.36
894.399	52.74
894.57	36.35
894.74	36.35
894.911	15.87
895.082	83.45
895.253	95.74
895.423	-43.52
895.594	30.21
895.764	-12.8
895.935	24.06
896.106	-4.61
896.276	7.68
896.447	-2.56
896.617	24.06
896.788	11.78
896.958	11.78
897.129	-29.18
897.299	42.5
897.47	-0.51
897.64	60.93
897.81	44.54
897.981	83.45
898.151	30.21
898.322	44.54
898.492	24.06
898.662	15.87
898.832	-27.14
899.003	11.78
899.173	87.55
899.343	22.02
899.513	15.87
