Data from USB4F104151__5__10-20-08-466.txt Node

Date: Wed Mar 12 10:20:08 EDT 2025
User: louis
Spectrometer: USB4F10415
Trigger mode: 4
Integration Time (sec): 3.000000E-2
Scans to average: 1
Electric dark correction enabled: true
Nonlinearity correction enabled: false
Boxcar width: 0
XAxis mode: Wavelengths
Number of Pixels in Spectrum: 3648
>>>>>Begin Spectral Data<<<<<
178.204	-83.8
178.424	-83.8
178.644	-83.8
178.864	-89.94
179.084	-67.41
179.304	8.36
179.524	-3.93
179.744	8.36
179.964	30.89
180.184	-20.31
180.404	-30.55
180.624	-38.74
180.844	55.47
181.064	-32.6
181.283	30.89
181.503	-40.79
181.723	32.94
181.943	-89.94
182.163	121
182.383	-44.88
182.602	-14.17
182.822	0.17
183.042	82.09
183.262	20.65
183.482	18.6
183.701	59.56
183.921	16.55
184.141	18.6
184.361	32.94
184.58	8.36
184.8	-28.5
185.02	6.31
185.239	34.99
185.459	10.41
185.679	41.13
185.898	-42.84
186.118	84.14
186.338	16.55
186.557	39.08
186.777	-26.45
186.997	-32.6
187.216	49.32
187.436	30.89
187.655	28.84
187.875	10.41
188.095	-24.4
188.314	131.24
188.534	51.37
188.753	-26.45
188.973	57.51
189.192	8.36
189.412	82.09
189.631	-57.17
189.851	-69.46
190.07	84.14
190.29	-3.93
190.509	47.27
190.729	-8.02
190.948	41.13
191.168	102.57
191.387	12.46
191.607	-71.51
191.826	-16.21
192.045	45.23
192.265	-28.5
192.484	34.99
192.704	47.27
192.923	-8.02
193.142	145.58
193.362	2.22
193.581	80.04
193.8	-16.21
194.02	67.75
194.239	-3.93
194.458	49.32
194.678	-12.12
194.897	34.99
195.116	96.43
195.335	20.65
195.555	6.31
195.774	37.03
195.993	112.81
196.212	110.76
196.432	24.75
196.651	-32.6
196.87	51.37
197.089	90.28
197.308	32.94
197.528	63.66
197.747	77.99
197.966	-28.5
198.185	18.6
198.404	32.94
198.623	8.36
198.842	16.55
199.062	32.94
199.281	96.43
199.5	41.13
199.719	-8.02
199.938	71.85
200.157	6.31
200.376	32.94
200.595	32.94
200.814	30.89
201.033	10.41
201.252	114.86
201.471	61.61
201.69	18.6
201.909	12.46
202.128	116.9
202.347	30.89
202.566	10.41
202.785	0.17
203.004	16.55
203.223	114.86
203.442	77.99
203.661	55.47
203.879	57.51
204.098	71.85
204.317	-34.64
204.536	63.66
204.755	-28.5
204.974	41.13
205.193	61.61
205.411	12.46
205.63	20.65
205.849	-32.6
206.068	32.94
206.287	86.19
206.505	102.57
206.724	-34.64
206.943	-10.07
207.162	6.31
207.381	8.36
207.599	-12.12
207.818	14.51
208.037	73.9
208.255	-24.4
208.474	6.31
208.693	4.27
208.911	47.27
209.13	41.13
209.349	12.46
209.567	-77.65
209.786	8.36
210.005	24.75
210.223	-24.4
210.442	-48.98
210.661	32.94
210.879	-12.12
211.098	73.9
211.316	30.89
211.535	41.13
211.753	10.41
211.972	-1.88
212.191	0.17
212.409	41.13
212.628	-8.02
212.846	-28.5
213.065	37.03
213.283	20.65
213.502	-30.55
213.72	-42.84
213.938	32.94
214.157	53.42
214.375	-30.55
214.594	77.99
214.812	45.23
215.031	24.75
215.249	-67.41
215.467	80.04
215.686	47.27
215.904	61.61
216.122	32.94
216.341	61.61
216.559	24.75
216.778	51.37
216.996	-3.93
217.214	71.85
217.432	-73.56
217.651	32.94
217.869	-14.17
218.087	22.7
218.306	-8.02
218.524	-10.07
218.742	69.8
218.96	53.42
219.179	16.55
219.397	65.71
219.615	43.18
219.833	55.47
220.051	2.22
220.27	10.41
220.488	73.9
220.706	-8.02
220.924	30.89
221.142	-14.17
221.36	32.94
221.578	-12.12
221.796	32.94
222.015	4.27
222.233	20.65
222.451	24.75
222.669	51.37
222.887	39.08
223.105	30.89
223.323	-5.97
223.541	59.56
223.759	61.61
223.977	-5.97
224.195	57.51
224.413	6.31
224.631	-28.5
224.849	34.99
225.067	59.56
225.285	22.7
225.503	-36.69
225.721	-65.36
225.939	-12.12
226.157	28.84
226.375	108.71
226.592	-16.21
226.81	-8.02
227.028	55.47
227.246	127.14
227.464	47.27
227.682	59.56
227.9	8.36
228.117	24.75
228.335	51.37
228.553	65.71
228.771	-40.79
228.989	20.65
229.206	86.19
229.424	82.09
229.642	41.13
229.86	-14.17
230.077	116.9
230.295	14.51
230.513	41.13
230.731	-1.88
230.948	20.65
231.166	28.84
231.384	71.85
231.601	65.71
231.819	43.18
232.037	69.8
232.254	14.51
232.472	24.75
232.689	-20.31
232.907	22.7
233.125	14.51
233.342	69.8
233.56	-65.36
233.777	-20.31
233.995	55.47
234.213	28.84
234.43	0.17
234.648	6.31
234.865	26.79
235.083	6.31
235.3	73.9
235.518	28.84
235.735	34.99
235.953	20.65
236.17	39.08
236.388	16.55
236.605	30.89
236.822	73.9
237.04	37.03
237.257	4.27
237.475	6.31
237.692	41.13
237.909	22.7
238.127	-1.88
238.344	20.65
238.562	55.47
238.779	47.27
238.996	-5.97
239.214	24.75
239.431	61.61
239.648	-46.93
239.865	24.75
240.083	34.99
240.3	47.27
240.517	0.17
240.735	-24.4
240.952	6.31
241.169	69.8
241.386	20.65
241.603	57.51
241.821	30.89
242.038	41.13
242.255	39.08
242.472	6.31
242.689	2.22
242.907	86.19
243.124	43.18
243.341	47.27
243.558	41.13
243.775	55.47
243.992	69.8
244.209	49.32
244.426	65.71
244.643	37.03
244.86	16.55
245.078	73.9
245.295	61.61
245.512	12.46
245.729	75.95
245.946	77.99
246.163	39.08
246.38	39.08
246.597	41.13
246.814	34.99
247.031	71.85
247.248	96.43
247.464	69.8
247.681	-69.46
247.898	-3.93
248.115	84.14
248.332	14.51
248.549	88.23
248.766	106.67
248.983	32.94
249.2	55.47
249.417	69.8
249.633	118.95
249.85	45.23
250.067	43.18
250.284	39.08
250.501	65.71
250.717	57.51
250.934	80.04
251.151	-24.4
251.368	-24.4
251.585	51.37
251.801	90.28
252.018	47.27
252.235	43.18
252.451	6.31
252.668	65.71
252.885	-1.88
253.102	45.23
253.318	-30.55
253.535	-1.88
253.752	20.65
253.968	86.19
254.185	4.27
254.401	71.85
254.618	59.56
254.835	-26.45
255.051	110.76
255.268	39.08
255.484	10.41
255.701	37.03
255.917	37.03
256.134	47.27
256.351	104.62
256.567	-20.31
256.784	30.89
257	30.89
257.217	20.65
257.433	82.09
257.65	55.47
257.866	67.75
258.082	-10.07
258.299	-26.45
258.515	55.47
258.732	-69.46
258.948	20.65
259.165	-38.74
259.381	-16.21
259.597	16.55
259.814	20.65
260.03	45.23
260.246	18.6
260.463	-48.98
260.679	49.32
260.895	32.94
261.112	123.05
261.328	-18.26
261.544	34.99
261.761	84.14
261.977	61.61
262.193	-87.89
262.409	22.7
262.626	0.17
262.842	69.8
263.058	8.36
263.274	55.47
263.49	61.61
263.707	30.89
263.923	51.37
264.139	-8.02
264.355	34.99
264.571	129.19
264.787	34.99
265.004	20.65
265.22	67.75
265.436	10.41
265.652	18.6
265.868	77.99
266.084	28.84
266.3	98.47
266.516	32.94
266.732	45.23
266.948	20.65
267.164	43.18
267.38	32.94
267.596	51.37
267.812	61.61
268.028	71.85
268.244	6.31
268.46	69.8
268.676	24.75
268.892	8.36
269.108	32.94
269.324	43.18
269.54	-16.21
269.756	32.94
269.972	18.6
270.188	75.95
270.403	45.23
270.619	28.84
270.835	57.51
271.051	47.27
271.267	32.94
271.483	-102.23
271.698	12.46
271.914	43.18
272.13	57.51
272.346	30.89
272.562	100.52
272.777	32.94
272.993	14.51
273.209	4.27
273.425	20.65
273.64	4.27
273.856	51.37
274.072	112.81
274.287	49.32
274.503	-16.21
274.719	-85.84
274.934	-32.6
275.15	-36.69
275.366	94.38
275.581	-24.4
275.797	4.27
276.012	45.23
276.228	55.47
276.444	49.32
276.659	12.46
276.875	-3.93
277.09	61.61
277.306	12.46
277.521	16.55
277.737	55.47
277.952	12.46
278.168	73.9
278.383	61.61
278.599	-24.4
278.814	30.89
279.03	22.7
279.245	112.81
279.461	-28.5
279.676	20.65
279.892	41.13
280.107	-12.12
280.322	-75.6
280.538	-12.12
280.753	-3.93
280.969	61.61
281.184	82.09
281.399	84.14
281.615	-65.36
281.83	102.57
282.045	-65.36
282.26	22.7
282.476	71.85
282.691	61.61
282.906	-48.98
283.122	8.36
283.337	2.22
283.552	82.09
283.767	8.36
283.983	22.7
284.198	4.27
284.413	18.6
284.628	12.46
284.843	110.76
285.058	12.46
285.274	80.04
285.489	22.7
285.704	16.55
285.919	-40.79
286.134	108.71
286.349	8.36
286.564	24.75
286.779	43.18
286.995	4.27
287.21	6.31
287.425	16.55
287.64	51.37
287.855	28.84
288.07	-8.02
288.285	73.9
288.5	51.37
288.715	77.99
288.93	-18.26
289.145	-3.93
289.36	45.23
289.575	88.23
289.79	12.46
290.004	28.84
290.219	16.55
290.434	-48.98
290.649	14.51
290.864	-3.93
291.079	73.9
291.294	30.89
291.509	-3.93
291.724	30.89
291.938	20.65
292.153	106.67
292.368	39.08
292.583	51.37
292.798	96.43
293.012	82.09
293.227	18.6
293.442	-42.84
293.657	49.32
293.871	63.66
294.086	45.23
294.301	57.51
294.516	49.32
294.73	6.31
294.945	30.89
295.16	-20.31
295.374	71.85
295.589	4.27
295.804	43.18
296.018	14.51
296.233	24.75
296.447	84.14
296.662	20.65
296.877	77.99
297.091	104.62
297.306	30.89
297.52	41.13
297.735	41.13
297.949	20.65
298.164	22.7
298.378	-20.31
298.593	57.51
298.807	-34.64
299.022	14.51
299.236	94.38
299.451	49.32
299.665	26.79
299.88	-24.4
300.094	82.09
300.309	-24.4
300.523	65.71
300.737	30.89
300.952	0.17
301.166	16.55
301.381	2.22
301.595	20.65
301.809	6.31
302.024	-30.55
302.238	8.36
302.452	47.27
302.667	28.84
302.881	49.32
303.095	24.75
303.309	45.23
303.524	67.75
303.738	-14.17
303.952	-38.74
304.166	59.56
304.381	28.84
304.595	67.75
304.809	2.22
305.023	14.51
305.237	-57.17
305.452	37.03
305.666	6.31
305.88	53.42
306.094	20.65
306.308	47.27
306.522	75.95
306.736	24.75
306.95	59.56
307.164	2.22
307.379	-24.4
307.593	73.9
307.807	14.51
308.021	18.6
308.235	32.94
308.449	-22.36
308.663	41.13
308.877	82.09
309.091	12.46
309.305	84.14
309.519	-61.27
309.733	18.6
309.947	96.43
310.161	77.99
310.374	63.66
310.588	71.85
310.802	49.32
311.016	14.51
311.23	16.55
311.444	4.27
311.658	24.75
311.872	53.42
312.085	82.09
312.299	-8.02
312.513	39.08
312.727	55.47
312.941	16.55
313.154	24.75
313.368	-18.26
313.582	-32.6
313.796	55.47
314.009	20.65
314.223	37.03
314.437	-20.31
314.651	57.51
314.864	-32.6
315.078	14.51
315.292	32.94
315.505	26.79
315.719	67.75
315.933	49.32
316.146	14.51
316.36	90.28
316.573	0.17
316.787	47.27
317.001	28.84
317.214	-14.17
317.428	6.31
317.641	8.36
317.855	-10.07
318.068	22.7
318.282	59.56
318.495	45.23
318.709	45.23
318.922	10.41
319.136	94.38
319.349	102.57
319.563	39.08
319.776	86.19
319.99	-20.31
320.203	22.7
320.417	4.27
320.63	8.36
320.843	49.32
321.057	59.56
321.27	106.67
321.483	8.36
321.697	51.37
321.91	69.8
322.124	118.95
322.337	65.71
322.55	39.08
322.763	-16.21
322.977	75.95
323.19	-12.12
323.403	55.47
323.617	51.37
323.83	45.23
324.043	53.42
324.256	6.31
324.469	4.27
324.683	127.14
324.896	82.09
325.109	-1.88
325.322	-59.22
325.535	63.66
325.748	37.03
325.962	-26.45
326.175	69.8
326.388	45.23
326.601	49.32
326.814	-1.88
327.027	45.23
327.24	104.62
327.453	10.41
327.666	75.95
327.879	24.75
328.092	77.99
328.305	-10.07
328.518	10.41
328.731	45.23
328.944	53.42
329.157	65.71
329.37	16.55
329.583	55.47
329.796	145.58
330.009	14.51
330.222	14.51
330.435	-20.31
330.648	20.65
330.861	30.89
331.073	37.03
331.286	32.94
331.499	49.32
331.712	8.36
331.925	4.27
332.138	-1.88
332.35	100.52
332.563	118.95
332.776	75.95
332.989	96.43
333.202	100.52
333.414	41.13
333.627	28.84
333.84	63.66
334.053	84.14
334.265	10.41
334.478	39.08
334.691	41.13
334.903	-30.55
335.116	67.75
335.329	20.65
335.541	8.36
335.754	34.99
335.966	-3.93
336.179	-8.02
336.392	41.13
336.604	4.27
336.817	71.85
337.029	20.65
337.242	28.84
337.454	55.47
337.667	-3.93
337.88	73.9
338.092	20.65
338.305	57.51
338.517	16.55
338.729	108.71
338.942	61.61
339.154	-28.5
339.367	-30.55
339.579	16.55
339.792	41.13
340.004	94.38
340.217	0.17
340.429	41.13
340.641	-12.12
340.854	28.84
341.066	114.86
341.278	102.57
341.491	57.51
341.703	18.6
341.915	16.55
342.128	20.65
342.34	37.03
342.552	63.66
342.764	2.22
342.977	20.65
343.189	69.8
343.401	71.85
343.613	0.17
343.826	-14.17
344.038	24.75
344.25	73.9
344.462	-20.31
344.674	80.04
344.886	84.14
345.099	16.55
345.311	57.51
345.523	8.36
345.735	-85.84
345.947	-1.88
346.159	80.04
346.371	39.08
346.583	20.65
346.795	82.09
347.007	22.7
347.219	63.66
347.431	61.61
347.643	92.33
347.855	-26.45
348.067	30.89
348.279	16.55
348.491	16.55
348.703	-69.46
348.915	-12.12
349.127	28.84
349.339	90.28
349.551	8.36
349.763	12.46
349.975	20.65
350.187	75.95
350.399	106.67
350.61	80.04
350.822	8.36
351.034	-5.97
351.246	41.13
351.458	4.27
351.669	75.95
351.881	45.23
352.093	102.57
352.305	30.89
352.517	12.46
352.728	106.67
352.94	92.33
353.152	57.51
353.363	-1.88
353.575	98.47
353.787	92.33
353.999	71.85
354.21	80.04
354.422	-3.93
354.633	12.46
354.845	65.71
355.057	71.85
355.268	49.32
355.48	98.47
355.692	41.13
355.903	-24.4
356.115	49.32
356.326	47.27
356.538	65.71
356.749	67.75
356.961	116.9
357.172	20.65
357.384	6.31
357.595	147.62
357.807	49.32
358.018	2.22
358.23	75.95
358.441	147.62
358.653	8.36
358.864	82.09
359.075	37.03
359.287	-10.07
359.498	100.52
359.709	84.14
359.921	116.9
360.132	20.65
360.344	131.24
360.555	14.51
360.766	37.03
360.977	20.65
361.189	22.7
361.4	63.66
361.611	0.17
361.823	98.47
362.034	24.75
362.245	57.51
362.456	49.32
362.667	12.46
362.879	77.99
363.09	28.84
363.301	92.33
363.512	51.37
363.723	41.13
363.935	63.66
364.146	32.94
364.357	73.9
364.568	-30.55
364.779	-65.36
364.99	143.53
365.201	49.32
365.412	49.32
365.623	24.75
365.834	28.84
366.045	28.84
366.256	86.19
366.467	106.67
366.678	57.51
366.889	24.75
367.1	71.85
367.311	123.05
367.522	-8.02
367.733	51.37
367.944	41.13
368.155	20.65
368.366	71.85
368.577	90.28
368.788	98.47
368.999	63.66
369.209	-8.02
369.42	106.67
369.631	88.23
369.842	61.61
370.053	-48.98
370.264	147.62
370.474	-3.93
370.685	6.31
370.896	47.27
371.107	67.75
371.317	73.9
371.528	10.41
371.739	86.19
371.95	108.71
372.16	137.38
372.371	84.14
372.582	4.27
372.792	18.6
373.003	114.86
373.214	73.9
373.424	49.32
373.635	-16.21
373.846	100.52
374.056	34.99
374.267	41.13
374.477	24.75
374.688	0.17
374.898	51.37
375.109	41.13
375.319	88.23
375.53	88.23
375.74	20.65
375.951	24.75
376.161	45.23
376.372	63.66
376.582	-5.97
376.793	172.2
377.003	80.04
377.214	86.19
377.424	45.23
377.635	22.7
377.845	14.51
378.055	118.95
378.266	63.66
378.476	-8.02
378.686	71.85
378.897	59.56
379.107	77.99
379.317	82.09
379.528	69.8
379.738	32.94
379.948	61.61
380.158	28.84
380.369	63.66
380.579	59.56
380.789	61.61
380.999	137.38
381.21	61.61
381.42	137.38
381.63	49.32
381.84	90.28
382.05	98.47
382.261	73.9
382.471	100.52
382.681	26.79
382.891	139.43
383.101	135.34
383.311	24.75
383.521	88.23
383.731	69.8
383.941	69.8
384.151	24.75
384.361	51.37
384.571	96.43
384.781	65.71
384.991	137.38
385.201	98.47
385.411	164.01
385.621	49.32
385.831	61.61
386.041	67.75
386.251	82.09
386.461	90.28
386.671	114.86
386.881	80.04
387.091	63.66
387.301	88.23
387.511	-8.02
387.72	45.23
387.93	6.31
388.14	71.85
388.35	41.13
388.56	137.38
388.769	51.37
388.979	88.23
389.189	88.23
389.399	127.14
389.609	104.62
389.818	28.84
390.028	34.99
390.238	88.23
390.447	10.41
390.657	133.29
390.867	49.32
391.076	-8.02
391.286	102.57
391.496	92.33
391.705	73.9
391.915	82.09
392.125	92.33
392.334	141.48
392.544	20.65
392.753	104.62
392.963	32.94
393.172	41.13
393.382	39.08
393.591	194.73
393.801	32.94
394.01	145.58
394.22	121
394.429	49.32
394.639	12.46
394.848	61.61
395.058	49.32
395.267	59.56
395.477	84.14
395.686	88.23
395.895	77.99
396.105	190.63
396.314	71.85
396.524	96.43
396.733	98.47
396.942	135.34
397.152	139.43
397.361	98.47
397.57	28.84
397.78	67.75
397.989	75.95
398.198	155.82
398.407	110.76
398.617	90.28
398.826	147.62
399.035	135.34
399.244	69.8
399.453	53.42
399.663	123.05
399.872	123.05
400.081	151.72
400.29	125.1
400.499	133.29
400.708	118.95
400.917	110.76
401.127	125.1
401.336	141.48
401.545	153.77
401.754	186.54
401.963	143.53
402.172	100.52
402.381	73.9
402.59	151.72
402.799	153.77
403.008	151.72
403.217	161.96
403.426	88.23
403.635	209.06
403.844	137.38
404.053	127.14
404.262	123.05
404.471	174.25
404.68	194.73
404.888	106.67
405.097	157.86
405.306	161.96
405.515	174.25
405.724	98.47
405.933	155.82
406.142	219.3
406.35	207.02
406.559	106.67
406.768	204.97
406.977	186.54
407.185	106.67
407.394	282.79
407.603	204.97
407.812	313.51
408.02	235.69
408.229	333.99
408.438	243.88
408.646	235.69
408.855	204.97
409.064	299.17
409.272	346.28
409.481	258.21
409.69	270.5
409.898	254.12
410.107	315.56
410.315	327.85
410.524	377
410.733	360.61
410.941	473.25
411.15	415.91
411.358	389.28
411.567	434.34
411.775	389.28
411.984	420
412.192	469.16
412.401	411.81
412.609	551.07
412.818	534.69
413.026	532.64
413.234	499.88
413.443	524.45
413.651	510.11
413.86	579.75
414.068	694.43
414.276	712.86
414.485	669.86
414.693	696.48
414.901	753.82
415.11	733.34
415.318	700.58
415.526	741.54
415.734	817.31
415.943	897.18
416.151	960.67
416.359	938.14
416.567	915.61
416.776	1001.63
416.984	962.72
417.192	1089.69
417.4	1130.65
417.608	1089.69
417.817	1122.46
418.025	1243.29
418.233	1321.11
418.441	1376.41
418.649	1329.3
418.857	1321.11
419.065	1366.17
419.273	1466.52
419.481	1560.72
419.689	1546.39
419.897	1704.08
420.105	1601.68
420.313	1712.27
420.521	1808.53
420.729	1716.37
420.937	1816.72
421.145	1966.22
421.353	1994.89
421.561	2107.53
421.769	2103.43
421.977	2259.08
422.185	2341
422.393	2408.58
422.601	2566.28
422.809	2543.75
423.017	2472.07
423.224	2660.48
423.432	2744.45
423.64	2797.7
423.848	2869.37
424.056	2936.96
424.263	3203.19
424.471	2930.81
424.679	3276.92
424.887	3299.45
425.094	3387.51
425.302	3563.64
425.51	3588.21
425.718	3627.12
425.925	3627.12
426.133	3883.12
426.341	3924.08
426.548	4286.57
426.756	4300.91
426.964	4307.05
427.171	4628.58
427.379	4778.08
427.586	4706.4
427.794	4915.3
428.001	5148.76
428.209	5304.41
428.417	5300.31
428.624	5562.45
428.832	5791.83
429.039	5648.47
429.247	5654.61
429.454	6168.65
429.662	6588.49
429.869	6029.39
430.076	6586.44
430.284	6434.89
430.491	6674.5
430.699	6993.98
430.906	7190.59
431.114	7106.62
431.321	7458.87
431.528	7530.55
431.736	7864.37
431.943	8718.37
432.15	8001.58
432.358	8333.36
432.565	8699.94
432.772	8693.8
432.979	9164.83
433.187	9300
433.394	9269.28
433.601	9746.45
433.808	9648.15
434.016	9951.25
434.223	10375.18
434.43	10842.12
434.637	10629.13
434.844	11186.18
435.052	11530.23
435.259	11290.62
435.466	11464.7
435.673	11472.89
435.88	12423.15
436.087	12763.11
436.294	13152.23
436.501	12437.48
436.708	12916.71
436.915	13314.02
437.122	13696.99
437.329	13727.71
437.537	14141.39
437.743	14489.55
437.95	14286.8
438.157	15028.17
438.364	15488.96
438.571	15845.3
438.778	15699.9
438.985	17246.12
439.192	16514.99
439.399	16813.99
439.606	16361.39
439.813	17799.07
440.02	18642.83
440.227	18343.83
440.433	18075.54
440.64	18669.45
440.847	18761.61
441.054	19281.8
441.261	20184.95
441.467	20359.03
441.674	20518.77
441.881	21122.92
442.088	20887.4
442.294	20711.28
442.501	21606.24
442.708	21923.68
442.914	22740.82
443.121	23832.38
443.328	23273.29
443.534	24799.02
443.741	23975.74
443.948	23775.04
444.154	25272.11
444.361	25159.47
444.568	25347.88
444.774	25292.58
444.981	25696.03
445.187	26224.41
445.394	27449.1
445.6	27221.77
445.807	29546.22
446.013	28223.23
446.22	29093.61
446.426	29943.52
446.633	30369.5
446.839	31026.9
447.046	30101.22
447.252	31862.47
447.459	31342.28
447.665	31377.1
447.871	33042.1
448.078	34191.01
448.284	32605.88
448.491	33441.45
448.697	34373.28
448.903	35118.74
449.11	35458.7
449.316	34780.82
449.522	35419.79
449.728	36005.51
449.935	36818.55
450.141	36220.55
450.347	37504.62
450.553	36114.05
450.76	36562.56
450.966	37377.65
451.172	37197.43
451.378	38110.82
451.584	37060.21
451.791	38336.1
451.997	37731.95
452.203	38817.37
452.409	38360.67
452.615	38583.9
452.821	36777.59
453.027	36507.26
453.233	38692.44
453.44	36845.18
453.646	37103.22
453.852	37422.7
454.058	37906.02
454.264	36357.76
454.47	37205.62
454.676	36511.36
454.882	37738.09
455.088	34674.33
455.294	34995.86
455.5	35192.47
455.705	35858.06
455.911	34014.88
456.117	33412.78
456.323	33283.76
456.529	31516.36
456.735	32794.29
456.941	31938.24
457.147	31067.86
457.352	30404.31
457.558	30144.22
457.764	29923.04
457.97	29308.65
458.176	28858.1
458.381	28735.22
458.587	27461.38
458.793	27412.23
458.999	26054.43
459.204	27633.41
459.41	26996.49
459.616	25155.37
459.821	25233.19
460.027	25321.26
460.233	24710.96
460.438	23365.45
460.644	23471.94
460.85	22458.2
461.055	22163.29
461.261	22181.72
461.466	20402.04
461.672	20176.76
461.878	21305.19
462.083	20170.61
462.289	19511.17
462.494	19378.05
462.7	18489.23
462.905	18046.87
463.111	18694.03
463.316	18599.82
463.522	18513.81
463.727	18499.47
463.932	18399.12
464.138	18227.09
464.343	18294.68
464.549	17792.92
464.754	18468.75
464.959	18241.43
465.165	18196.37
465.37	17512.35
465.575	16797.61
465.781	17592.22
465.986	17778.59
466.191	17153.96
466.397	16560.05
466.602	15978.42
466.807	16471.98
467.012	16547.76
467.218	16678.83
467.423	16248.75
467.628	16347.06
467.833	16988.07
468.038	16312.24
468.244	16109.49
468.449	16412.59
468.654	16052.15
468.859	15978.42
469.064	15765.43
469.269	15183.81
469.474	15235.01
469.679	15546.3
469.885	15050.69
470.09	15169.48
470.295	15112.13
470.5	14809.03
470.705	15050.69
470.91	14510.03
471.115	14272.46
471.32	14708.68
471.525	14469.07
471.73	14378.96
471.935	14243.79
472.139	13918.17
472.344	13752.28
472.549	13692.89
472.754	13547.48
472.959	13277.15
473.164	13109.22
473.369	12799.98
473.574	13408.22
473.778	13189.09
473.983	13154.27
474.188	12918.76
474.393	12392.43
474.598	12654.57
474.802	12445.68
475.007	12494.83
475.212	12310.51
475.417	11882.49
475.621	11767.8
475.826	11802.61
476.031	11649.02
476.235	11524.09
476.44	11644.92
476.645	11534.33
476.849	11450.36
477.054	11411.45
477.259	11061.25
477.463	11331.58
477.668	10768.39
477.872	11124.74
478.077	10661.9
478.282	10399.76
478.486	10510.35
478.691	10518.54
478.895	10453
479.1	10145.81
479.304	10323.98
479.509	10059.79
479.713	10205.2
479.918	10139.66
480.122	9803.8
480.326	10100.75
480.531	9955.35
480.735	10010.64
480.94	9760.79
481.144	10051.6
481.348	9738.26
481.553	9895.96
481.757	9654.3
481.961	9707.54
482.166	9945.11
482.37	9740.31
482.574	9574.42
482.778	9576.47
482.983	9744.41
483.187	9713.69
483.391	9621.53
483.595	9707.54
483.8	9572.38
484.004	9754.65
484.208	9732.12
484.412	9472.03
484.616	9703.45
484.821	9644.06
485.025	9461.79
485.229	9707.54
485.433	9605.14
485.637	9207.84
485.841	9560.09
486.045	9576.47
486.249	9566.23
486.453	9500.7
486.657	9578.52
486.861	9682.97
487.065	9506.84
487.269	9547.8
487.473	9519.13
487.677	9664.54
487.881	9631.77
488.085	9680.92
488.289	9787.41
488.493	9599
488.697	9705.49
488.901	9652.25
489.105	9523.23
489.309	9695.25
489.512	9740.31
489.716	9797.65
489.92	9717.78
490.124	9566.23
490.328	10045.46
490.531	9916.44
490.735	9814.04
490.939	9824.28
491.143	9840.66
491.346	10072.08
491.55	10119.18
491.754	9947.15
491.958	10067.99
492.161	10070.03
492.365	10403.85
492.569	10242.06
492.772	10067.99
492.976	10248.21
493.18	10225.68
493.383	10360.84
493.587	10524.68
493.79	10700.81
493.994	10364.94
494.197	10829.83
494.401	10776.58
494.605	10586.12
494.808	10878.98
495.012	10899.46
495.215	10764.29
495.419	11030.53
495.622	10977.28
495.825	11157.5
496.029	11397.12
496.232	11577.34
496.436	11352.06
496.639	11780.09
496.843	11589.63
497.046	11960.31
497.249	11999.22
497.453	12183.54
497.656	12148.72
497.859	12206.06
498.063	12197.87
498.266	12437.48
498.469	12709.86
498.673	12750.82
498.876	12894.18
499.079	13228
499.282	12990.44
499.485	13373.41
499.689	13498.33
499.892	13795.29
500.095	13678.55
500.298	13934.55
500.501	13821.91
500.705	14100.44
500.908	14294.99
501.111	14749.64
501.314	14585.8
501.517	14833.61
501.72	14901.19
501.923	15075.27
502.126	15374.27
502.329	15548.35
502.532	15460.29
502.735	15724.47
502.938	15925.18
503.141	16021.43
503.344	16381.87
503.547	16404.4
503.75	16519.09
503.953	16943.02
504.156	16871.34
504.359	17258.4
504.562	17414.05
504.765	17794.97
504.968	17708.96
505.17	17711
505.373	18134.93
505.576	18595.73
505.779	18630.54
505.982	18618.25
506.185	18962.31
506.387	18976.65
506.59	19328.9
506.793	19664.77
506.996	19713.92
507.198	20498.29
507.401	20047.74
507.604	20475.76
507.807	20854.64
508.009	20946.8
508.212	20985.71
508.415	21356.39
508.617	21401.44
508.82	21745.5
509.022	21671.78
509.225	21804.89
509.428	22237.02
509.63	22513.49
509.833	22548.31
510.035	23224.14
510.238	22824.78
510.44	23367.49
510.643	24031.04
510.845	24047.42
511.048	23813.95
511.25	24045.37
511.453	24514.36
511.655	25425.7
511.858	24692.53
512.06	25169.71
512.262	25618.21
512.465	25454.37
512.667	26048.29
512.87	26087.2
513.072	25968.41
513.274	26734.35
513.477	26937.1
513.679	27166.48
513.881	27555.59
514.084	27787.01
514.286	27776.77
514.488	27952.9
514.69	28690.16
514.893	28960.5
515.095	28659.45
515.297	29181.68
515.499	29591.27
515.701	29695.72
515.904	30250.72
516.106	30387.93
516.308	30621.4
516.51	30887.64
516.712	31035.09
516.914	31362.76
517.116	31985.35
517.318	32044.74
517.52	32065.22
517.722	32130.75
517.925	32769.72
518.127	33011.38
518.329	33128.11
518.531	33355.44
518.733	33466.03
518.935	33822.37
519.136	34154.15
519.338	34649.75
519.54	34592.41
519.742	35339.92
519.944	35214.99
520.146	35980.93
520.348	36062.85
520.55	36320.9
520.752	36474.49
520.954	37209.71
521.155	36415.1
521.357	37273.2
521.559	37828.2
521.761	38151.78
521.963	38258.27
522.164	38915.67
522.366	38610.53
522.568	38946.39
522.77	39226.96
522.971	39908.94
523.173	39489.1
523.375	39943.75
523.576	40216.13
523.778	40240.71
523.98	40928.83
524.181	40861.24
524.383	41180.73
524.584	41408.05
524.786	41866.8
524.988	41551.41
525.189	42133.03
525.391	42489.38
525.592	42708.51
525.794	42681.89
525.995	42993.18
526.197	43161.11
526.398	42933.79
526.6	43587.09
526.801	43709.97
527.003	44121.61
527.204	43714.06
527.406	44371.46
527.607	44148.23
527.808	44910.08
528.01	43935.24
528.211	44437
528.412	45354.49
528.614	44893.69
528.815	45278.71
529.016	45518.32
529.218	45403.64
529.419	45450.74
529.62	45573.62
529.822	45796.85
530.023	45841.9
530.224	46058.99
530.425	46063.08
530.626	46134.76
530.828	45524.47
531.029	46917.09
531.23	46118.38
531.431	45884.91
531.632	46370.28
531.833	47001.05
532.035	46665.19
532.236	47103.45
532.437	47103.45
532.638	46941.66
532.839	47281.63
533.04	47308.25
533.241	46794.21
533.442	47193.56
533.643	47191.51
533.844	47279.58
534.045	47375.83
534.246	47113.69
534.447	47637.97
534.648	47375.83
534.849	47220.19
535.05	47572.44
535.251	47484.37
535.451	47486.42
535.652	47367.64
535.853	47826.38
536.054	47818.19
536.255	47455.7
536.456	47211.99
536.657	48137.68
536.857	47568.34
537.058	47343.06
537.259	47408.6
537.46	47574.48
537.66	47752.66
537.861	47431.13
538.062	47424.98
538.263	47818.19
538.463	47412.7
538.664	47523.29
538.865	47609.3
539.065	48344.52
539.266	47431.13
539.466	47990.22
539.667	47408.6
539.868	48475.59
540.068	47941.07
540.269	47459.8
540.469	47752.66
540.67	47588.82
540.87	47648.21
541.071	47666.64
541.271	47676.88
541.472	47511
541.672	47320.54
541.873	47400.41
542.073	47115.74
542.274	47973.84
542.474	47744.47
542.675	47695.31
542.875	47740.37
543.075	47588.82
543.276	47424.98
543.476	48057.81
543.676	47488.47
543.877	47707.6
544.077	47703.51
544.277	47486.42
544.478	47443.41
544.678	47865.3
544.878	47766.99
545.078	47896.02
545.279	47592.92
545.479	47523.29
545.679	47467.99
545.879	48002.51
546.079	47310.3
546.28	47525.33
546.48	47539.67
546.68	47879.63
546.88	47732.18
547.08	47519.19
547.28	47574.48
547.48	47085.02
547.68	47572.44
547.88	47142.36
548.081	48010.7
548.281	47734.23
548.481	47082.97
548.681	47582.68
548.881	47523.29
549.081	47326.68
549.28	47224.28
549.48	47672.79
549.68	47668.69
549.88	47908.3
550.08	47255
550.28	47719.89
550.48	47517.14
550.68	47764.95
550.88	47244.76
551.08	47691.22
551.279	47535.57
551.479	47283.67
551.679	47695.31
551.879	47375.83
552.079	47490.52
552.278	47203.8
552.478	47082.97
552.678	47506.9
552.878	47396.31
553.077	47482.33
553.277	47224.28
553.477	48125.39
553.676	47408.6
553.876	47429.08
554.076	46962.14
554.275	47310.3
554.475	46855.65
554.674	47529.43
554.874	47117.79
555.074	46945.76
555.273	47224.28
555.473	47515.09
555.672	47351.26
555.872	47306.2
556.071	47721.94
556.271	47310.3
556.47	46947.81
556.67	46302.7
556.869	46435.81
557.068	46908.89
557.268	46138.86
557.467	46753.25
557.667	46622.18
557.866	46613.99
558.065	46829.02
558.265	46280.17
558.464	46276.07
558.663	46976.48
558.863	45954.54
559.062	46790.11
559.261	45878.77
559.461	46337.51
559.66	46116.33
559.859	45819.38
560.058	45706.74
560.258	46175.72
560.457	45692.4
560.656	46374.38
560.855	45784.56
561.054	45860.33
561.253	45483.51
561.453	45487.6
561.652	45635.06
561.851	45514.23
562.05	45557.24
562.249	44908.03
562.448	45663.73
562.647	45428.21
562.846	44850.69
563.045	44983.8
563.244	44592.64
563.443	45024.76
563.642	44219.91
563.841	44951.04
564.04	44291.59
564.239	44684.8
564.438	43982.35
564.637	44539.4
564.836	44172.81
565.035	43705.87
565.234	43886.09
565.432	44295.69
565.631	43755.02
565.83	44023.31
566.029	43456.02
566.228	43884.05
566.427	43496.98
566.625	43716.11
566.824	42661.41
567.023	43554.32
567.222	42616.35
567.42	43304.47
567.619	43161.11
567.818	42860.06
568.016	42853.92
568.215	42839.58
568.414	42225.19
568.612	42692.13
568.811	42206.76
569.01	42149.42
569.208	41967.15
569.407	42460.71
569.605	41805.36
569.804	42159.66
570.002	41811.5
570.201	41920.04
570.4	41406
570.598	41475.63
570.797	41418.29
570.995	41371.19
571.193	40777.28
571.392	41612.85
571.59	40744.51
571.789	41166.39
571.987	40734.27
572.186	40502.85
572.384	40371.78
572.582	40826.43
572.781	40486.46
572.979	40365.63
573.177	40537.66
573.376	40289.86
573.574	39585.36
573.772	39927.37
573.971	39691.85
574.169	39843.4
574.367	39343.7
574.565	39827.02
574.763	39310.93
574.962	39355.99
575.16	38973.02
575.358	39339.6
575.556	38635.1
575.754	39698
575.952	38862.43
576.151	39284.31
576.349	38651.48
576.547	38479.46
576.745	38590.05
576.943	38499.94
577.141	38616.67
577.339	38233.7
577.537	38008.42
577.735	38080.1
577.933	37529.2
578.131	38248.04
578.329	37684.84
578.527	37422.7
578.725	37693.04
578.923	37975.66
579.121	37516.91
579.319	37219.95
579.516	37625.45
579.714	37203.57
579.912	36935.29
580.11	36720.25
580.308	37006.97
580.506	37189.24
580.704	36179.59
580.901	36683.39
581.099	37047.93
581.297	36238.98
581.495	35954.31
581.692	36656.76
581.89	35731.08
582.088	36361.86
582.285	36112
582.483	36210.31
582.681	35833.48
582.878	35630.73
583.076	35948.17
583.274	35645.07
583.471	35135.12
583.669	35505.8
583.866	35149.46
584.064	35415.69
584.262	34915.99
584.459	35417.74
584.657	34891.41
584.854	34932.37
585.052	34412.19
585.249	34836.12
585.447	34469.53
585.644	34180.77
585.841	34223.78
586.039	34547.36
586.236	33937.06
586.434	33994.4
586.631	34012.84
586.828	34135.71
587.026	33990.31
587.223	33517.23
587.42	33515.18
587.618	33824.42
587.815	33031.86
588.012	33404.59
588.21	33203.89
588.407	33339.05
588.604	32982.71
588.801	33142.45
588.999	32786.1
589.196	32921.27
589.393	32876.21
589.59	32595.64
589.787	32745.14
589.984	32665.27
590.182	31893.19
590.379	32200.38
590.576	32093.89
590.773	31991.49
590.97	32138.94
591.167	31844.04
591.364	31528.65
591.561	31841.99
591.758	31536.84
591.955	31426.25
592.152	31571.66
592.349	31332.04
592.546	31239.89
592.743	31309.52
592.94	30709.46
593.137	31293.13
593.334	31002.32
593.531	30500.57
593.727	30815.96
593.924	30705.37
594.121	30377.69
594.318	30449.37
594.515	29984.48
594.712	30682.84
594.908	30138.08
595.105	30246.62
595.302	29656.81
595.499	29857.51
595.696	29820.64
595.892	29419.24
596.089	29681.38
596.286	29636.33
596.482	29480.68
596.679	29347.56
596.876	29462.25
597.072	29288.17
597.269	29411.05
597.466	28751.6
597.662	29036.27
597.859	28757.75
598.055	28874.48
598.252	28864.24
598.448	28944.11
598.645	28249.85
598.841	28299
599.038	28243.71
599.234	28301.05
599.431	27807.49
599.627	28047.1
599.824	28182.27
600.02	27969.28
600.217	27883.27
600.413	27639.56
600.609	27674.37
600.806	27660.04
601.002	27518.73
601.198	27375.37
601.395	27326.22
601.591	27387.66
601.787	27567.88
601.984	26971.92
602.18	27229.96
602.376	26591
602.572	26769.17
602.769	27086.61
602.965	26752.79
603.161	26650.39
603.357	26576.66
603.553	26298.14
603.75	26449.69
603.946	26062.62
604.142	26355.48
604.338	25915.17
604.534	26165.02
604.73	25732.9
604.926	25812.77
605.122	26040.09
605.318	25898.78
605.514	25661.22
605.71	25544.48
605.906	25366.31
606.102	25186.09
606.298	25308.97
606.494	25626.4
606.69	25323.3
606.886	25347.88
607.082	24991.53
607.278	25194.28
607.474	24604.47
607.67	25169.71
607.866	24737.59
608.062	24938.29
608.257	24678.19
608.453	24688.43
608.649	24700.72
608.845	24516.4
609.041	24383.29
609.236	24244.02
609.432	24336.18
609.628	24434.49
609.824	23910.21
610.019	24311.61
610.215	24160.06
610.411	24158.01
610.606	23791.42
610.802	23945.02
610.998	23961.41
611.193	23996.22
611.389	23635.78
611.584	23719.74
611.78	23398.21
611.976	23813.95
612.171	23775.04
612.367	23729.98
612.562	23334.73
612.758	23183.18
612.953	23304.01
613.149	23586.63
613.344	23050.06
613.539	23265.1
613.735	23074.63
613.93	23160.65
614.126	23183.18
614.321	23281.48
614.517	23084.87
614.712	22792.01
614.907	22476.63
615.103	23093.07
615.298	22648.66
615.493	22646.61
615.688	22409.04
615.884	22962
616.079	22320.98
616.274	22480.72
616.47	22353.75
616.665	22333.27
616.86	22351.7
617.055	22333.27
617.25	22007.64
617.445	22253.4
617.641	21942.11
617.836	22103.9
618.031	21540.71
618.226	21782.37
618.421	21743.45
618.616	22218.58
618.811	21798.75
619.006	21790.56
619.201	21321.57
619.396	21692.26
619.591	21219.17
619.786	21667.68
619.981	21106.54
620.176	21276.52
620.371	20969.32
620.566	20954.99
620.761	20842.35
620.956	20836.2
621.151	20862.83
621.346	20813.68
621.541	20281.21
621.735	20473.71
621.93	20254.58
622.125	20305.78
622.32	19693.44
622.515	20305.78
622.709	19746.69
622.904	19709.82
623.099	19857.28
623.294	19795.84
623.488	19570.56
623.683	19488.64
623.878	19371.91
624.072	19535.74
624.267	19074.95
624.462	19070.86
624.656	18685.84
624.851	18685.84
625.046	18804.62
625.24	18907.02
625.435	18468.75
625.629	18386.83
625.824	18399.12
626.018	18153.37
626.213	17885.08
626.407	18048.92
626.602	17676.19
626.796	17946.52
626.991	17915.8
627.185	17426.34
627.38	17559.45
627.574	17383.33
627.768	17317.79
627.963	17457.06
628.157	17143.72
628.352	17330.08
628.546	16836.52
628.74	16881.58
628.935	16449.46
629.129	16846.76
629.323	16428.98
629.517	16318.39
629.712	16328.63
629.906	16140.21
630.1	16197.56
630.294	16179.12
630.489	16013.24
630.683	16078.77
630.877	15742.91
631.071	15785.91
631.265	15677.37
631.459	15560.64
631.653	15452.09
631.848	15507.39
632.042	15331.26
632.236	15347.65
632.43	15161.28
632.624	15171.52
632.818	15167.43
633.012	15009.73
633.206	14911.43
633.4	15058.88
633.594	14688.2
633.788	14594
633.982	14563.28
634.176	14669.77
634.369	14428.11
634.563	14348.24
634.757	14157.78
634.951	14403.53
635.145	14079.96
635.339	14186.45
635.533	13807.58
635.726	13973.46
635.92	13709.27
636.114	13959.13
636.308	13639.64
636.501	13672.41
636.695	13459.42
636.889	13268.96
637.083	13469.66
637.276	13383.65
637.47	13402.08
637.664	13115.36
637.857	13101.03
638.051	13174.75
638.244	12906.47
638.438	12933.09
638.632	12787.69
638.825	12675.05
639.019	12619.75
639.212	12498.92
639.406	12748.78
639.599	12556.27
639.793	12468.2
639.986	12341.23
640.18	12175.34
640.373	12376.05
640.567	11980.79
640.76	12302.32
640.954	11984.88
641.147	11841.53
641.34	11923.44
641.534	11743.22
641.727	11722.74
641.92	11775.99
642.114	11474.94
642.307	11522.04
642.5	11728.89
642.694	11362.3
642.887	11429.88
643.08	11603.96
643.273	11417.6
643.467	11403.26
643.66	10952.71
643.853	11137.02
644.046	11122.69
644.239	11087.87
644.432	10813.45
644.626	10674.18
644.819	10907.65
645.012	10614.79
645.205	10819.59
645.398	10639.37
645.591	10393.61
645.784	10530.83
645.977	10303.5
646.17	10319.89
646.363	10373.13
646.556	10194.96
646.749	10262.54
646.942	10110.99
647.135	10057.75
647.328	9943.06
647.521	10197.01
647.714	9883.67
647.907	9963.54
648.099	9680.92
648.292	9783.32
648.485	9861.14
648.678	9560.09
648.871	9402.4
649.064	9580.57
649.256	9691.16
649.449	9396.25
649.642	9367.58
649.835	9211.93
650.027	9267.23
650.22	9336.86
650.413	9160.73
650.605	9039.9
650.798	9123.87
650.991	8970.27
651.183	9250.85
651.376	9017.38
651.568	8966.18
651.761	8814.63
651.954	9019.43
652.146	8648.74
652.339	8667.17
652.531	8542.25
652.724	8642.6
652.916	8509.48
653.109	8556.58
653.301	8683.56
653.494	8611.88
653.686	8378.41
653.879	8411.18
654.071	8433.71
654.263	8435.75
654.456	8396.84
654.648	8271.92
654.84	8149.04
655.033	8089.65
655.225	8036.4
655.417	7958.58
655.61	8005.68
655.802	7870.51
655.994	7983.15
656.186	7823.41
656.379	7997.49
656.571	7870.51
656.763	7526.46
656.955	7708.73
657.148	7745.59
657.34	7761.97
657.532	7606.33
657.724	7471.16
657.916	7639.09
658.108	7512.12
658.3	7454.78
658.492	7454.78
658.684	7553.08
658.876	7278.65
659.068	7229.5
659.26	7407.67
659.452	7360.57
659.644	7252.03
659.836	7131.2
660.028	7245.88
660.22	6824
660.412	7104.57
660.604	6953.02
660.796	7123.01
660.988	7018.56
661.18	6889.54
661.372	6834.24
661.563	6850.63
661.755	6776.9
661.947	6717.51
662.139	6953.02
662.331	6752.32
662.522	6586.44
662.714	6660.17
662.906	6647.88
663.097	6608.97
663.289	6545.48
663.481	6455.37
663.673	6445.13
663.864	6543.43
664.056	6436.94
664.247	6291.53
664.439	6434.89
664.631	6344.78
664.822	6340.68
665.014	6312.01
665.205	6230.09
665.397	6182.99
665.588	6189.13
665.78	6244.43
665.971	6180.94
666.163	6215.76
666.354	5881.94
666.546	5904.46
666.737	5910.61
666.929	6004.82
667.12	5972.05
667.311	6037.58
667.503	5924.94
667.694	5972.05
667.885	5922.9
668.077	5941.33
668.268	5978.19
668.459	5922.9
668.651	5687.38
668.842	5754.96
669.033	5734.48
669.224	5750.87
669.416	5787.73
669.607	5668.95
669.798	5638.23
669.989	5757.01
670.18	5564.5
670.371	5644.37
670.563	5443.67
670.754	5519.45
670.945	5496.92
671.136	5560.41
671.327	5386.33
671.518	5466.2
671.709	5607.51
671.9	5441.62
672.091	5425.24
672.282	5460.06
672.473	5320.79
672.664	5369.94
672.855	5337.18
673.046	5163.1
673.237	5564.5
673.428	5314.65
673.619	5361.75
673.809	5267.55
674	5206.11
674.191	5187.68
674.382	5234.78
674.573	5333.08
674.764	5105.76
674.954	5191.77
675.145	5140.57
675.336	5181.53
675.527	5116
675.717	5277.79
675.908	5077.09
676.099	5103.71
676.289	4995.17
676.48	5175.39
676.671	5048.41
676.861	5107.8
677.052	5038.17
677.243	4976.73
677.433	4989.02
677.624	5023.84
677.814	5001.31
678.005	4972.64
678.195	5019.74
678.386	4966.49
678.576	5001.31
678.767	4880.48
678.957	4870.24
679.148	5027.93
679.338	4816.99
679.529	4976.73
679.719	4776.03
679.909	4995.17
680.1	4941.92
680.29	4939.87
680.481	4763.75
680.671	4956.26
680.861	4929.63
681.052	4913.25
681.242	4962.4
681.432	5015.65
681.622	4866.14
681.813	4753.51
682.003	4853.86
682.193	4792.42
682.383	4997.21
682.573	4907.1
682.764	4733.03
682.954	4780.13
683.144	4862.05
683.334	4837.47
683.524	4583.52
683.714	4892.77
683.904	4624.48
684.094	4814.95
684.284	4771.94
684.474	4784.23
684.664	4755.55
684.854	4651.11
685.044	4778.08
685.234	4579.43
685.424	4716.64
685.614	4610.15
685.804	4685.92
685.994	4737.12
686.184	4571.24
686.374	4745.31
686.564	4491.37
686.753	4601.96
686.943	4491.37
687.133	4477.03
687.323	4511.85
687.513	4620.39
687.702	4472.93
687.892	4411.5
688.082	4483.17
688.272	4378.73
688.461	4382.82
688.651	4364.39
688.841	4438.12
689.03	4309.1
689.22	4247.66
689.41	4298.86
689.599	4350.06
689.789	4317.29
689.979	4343.91
690.168	4278.38
690.358	4296.81
690.547	4218.99
690.737	4178.03
690.926	4153.45
691.116	4186.22
691.305	4165.74
691.495	4087.92
691.684	4092.01
691.874	4096.11
692.063	4223.08
692.252	4124.78
692.442	3967.09
692.631	4067.44
692.82	4075.63
693.01	4141.16
693.199	4069.48
693.388	3985.52
693.578	4014.19
693.767	3893.36
693.956	4022.38
694.146	4098.16
694.335	4022.38
694.524	3934.32
694.713	3866.74
694.902	4018.29
695.092	3907.7
695.281	3872.88
695.47	3893.36
695.659	4014.19
695.848	3883.12
696.037	3899.5
696.226	3790.96
696.415	3956.85
696.604	3838.06
696.793	3786.86
696.982	3807.34
697.171	3848.3
697.36	3870.83
697.549	3674.23
697.738	3819.63
697.927	3727.47
698.116	3719.28
698.305	3784.82
698.494	3784.82
698.683	3797.1
698.872	3696.75
699.061	3711.09
699.25	3776.63
699.438	3735.67
699.627	3829.87
699.816	3627.12
700.005	3727.47
700.193	3737.71
700.382	3790.96
700.571	3747.95
700.76	3678.32
700.948	3768.43
701.137	3756.15
701.326	3848.3
701.514	3586.16
701.703	3713.14
701.892	3663.99
702.08	3668.08
702.269	3684.47
702.457	3676.27
702.646	3711.09
702.834	3663.99
703.023	3569.78
703.212	3762.29
703.4	3688.56
703.589	3702.9
703.777	3727.47
703.965	3672.18
704.154	3684.47
704.342	3575.92
704.531	3715.19
704.719	3602.55
704.907	3768.43
705.096	3623.03
705.284	3569.78
705.472	3563.64
705.661	3633.27
705.849	3713.14
706.037	3641.46
706.226	3766.39
706.414	3592.31
706.602	3610.74
706.79	3668.08
706.979	3645.56
707.167	3551.35
707.355	3745.91
707.543	3569.78
707.731	3711.09
707.919	3537.01
708.107	3668.08
708.296	3498.1
708.484	3801.2
708.672	3629.17
708.86	3698.8
709.048	3625.08
709.236	3618.93
709.424	3776.63
709.612	3608.69
709.8	3747.95
709.988	3674.23
710.176	3643.51
710.364	3766.39
710.551	3745.91
710.739	3586.16
710.927	3612.79
711.115	3571.83
711.303	3754.1
711.491	3737.71
711.679	3678.32
711.866	3567.73
712.054	3733.62
712.242	3661.94
712.43	3819.63
712.617	3672.18
712.805	3772.53
712.993	3694.71
713.181	3625.08
713.368	3700.85
713.556	3670.13
713.744	3588.21
713.931	3676.27
714.119	3612.79
714.306	3821.68
714.494	3750
714.682	3672.18
714.869	3639.41
715.057	3704.95
715.244	3582.07
715.432	3600.5
715.619	3743.86
715.807	3606.64
715.994	3686.51
716.182	3586.16
716.369	3721.33
716.556	3702.9
716.744	3631.22
716.931	3696.75
717.119	3692.66
717.306	3520.63
717.493	3633.27
717.681	3686.51
717.868	3661.94
718.055	3631.22
718.242	3674.23
718.43	3790.96
718.617	3637.36
718.804	3702.9
718.991	3569.78
719.179	3721.33
719.366	3606.64
719.553	3719.28
719.74	3637.36
719.927	3661.94
720.114	3629.17
720.301	3694.71
720.488	3590.26
720.676	3620.98
720.863	3666.03
721.05	3817.58
721.237	3590.26
721.424	3676.27
721.611	3582.07
721.798	3577.97
721.985	3635.32
722.172	3637.36
722.358	3577.97
722.545	3741.81
722.732	3494.01
722.919	3596.4
723.106	3610.74
723.293	3631.22
723.48	3537.01
723.667	3586.16
723.853	3760.24
724.04	3616.88
724.227	3629.17
724.414	3518.58
724.6	3512.44
724.787	3629.17
724.974	3602.55
725.161	3555.44
725.347	3539.06
725.534	3588.21
725.72	3690.61
725.907	3600.5
726.094	3516.53
726.28	3461.24
726.467	3412.09
726.653	3485.81
726.84	3584.12
727.027	3684.47
727.213	3506.29
727.4	3764.34
727.586	3555.44
727.773	3684.47
727.959	3733.62
728.145	3651.7
728.332	3469.43
728.518	3530.87
728.705	3549.3
728.891	3545.2
729.077	3418.23
729.264	3485.81
729.45	3526.77
729.636	3461.24
729.823	3477.62
730.009	3436.66
730.195	3547.25
730.382	3496.05
730.568	3448.95
730.754	3473.53
730.94	3391.61
731.126	3541.11
731.313	3496.05
731.499	3432.57
731.685	3485.81
731.871	3528.82
732.057	3500.15
732.243	3489.91
732.429	3428.47
732.615	3459.19
732.801	3577.97
732.987	3588.21
733.173	3448.95
733.359	3432.57
733.545	3569.78
733.731	3405.94
733.917	3432.57
734.103	3442.81
734.289	3530.87
734.475	3334.26
734.661	3530.87
734.847	3324.02
735.033	3387.51
735.219	3504.25
735.404	3344.5
735.59	3553.4
735.776	3350.65
735.962	3405.94
736.148	3504.25
736.333	3440.76
736.519	3326.07
736.705	3356.79
736.89	3315.83
737.076	3342.46
737.262	3229.82
737.447	3434.61
737.633	3369.08
737.819	3309.69
738.004	3242.11
738.19	3313.78
738.375	3281.02
738.561	3229.82
738.747	3223.67
738.932	3285.11
739.118	3244.15
739.303	3219.58
739.489	3274.87
739.674	3285.11
739.859	3104.89
740.045	3227.77
740.23	3223.67
740.416	3186.81
740.601	3156.09
740.786	3166.33
740.972	3025.02
741.157	3123.32
741.342	3078.27
741.528	3158.14
741.713	3080.32
741.898	3104.89
742.084	3178.62
742.269	3127.42
742.454	3014.78
742.639	3033.21
742.824	3022.97
743.01	3049.6
743.195	3010.68
743.38	2963.58
743.565	2990.21
743.75	3070.08
743.935	2881.66
744.12	2867.33
744.305	2891.9
744.49	2902.14
744.675	2922.62
744.86	2896
745.045	2955.39
745.23	2932.86
745.415	2840.7
745.6	2859.14
745.785	2779.26
745.97	2816.13
746.155	2797.7
746.34	2715.78
746.525	2734.21
746.71	2781.31
746.895	2828.42
747.079	2539.65
747.264	2652.29
747.449	2627.71
747.634	2721.92
747.819	2560.13
748.003	2621.57
748.188	2611.33
748.373	2607.23
748.557	2623.62
748.742	2607.23
748.927	2564.23
749.111	2474.12
749.296	2486.4
749.481	2498.69
749.665	2433.16
749.85	2451.59
750.034	2515.08
750.219	2429.06
750.404	2463.88
750.588	2308.23
750.773	2322.57
750.957	2449.54
751.141	2371.72
751.326	2418.82
751.51	2291.85
751.695	2265.22
751.879	2318.47
752.064	2347.14
752.248	2214.02
752.432	2240.65
752.617	2209.93
752.801	2257.03
752.985	2222.22
753.17	2146.44
753.354	2162.83
753.538	2185.35
753.722	2070.67
753.907	2027.66
754.091	2037.9
754.275	2056.33
754.459	2134.15
754.643	2039.95
754.828	2128.01
755.012	1968.27
755.196	1882.25
755.38	1808.53
755.564	1990.8
755.748	1988.75
755.932	1933.45
756.116	1890.45
756.3	1945.74
756.484	1841.29
756.668	1937.55
756.852	1892.49
757.036	1865.87
757.22	1896.59
757.404	1806.48
757.588	1777.81
757.772	1800.34
757.956	1867.92
758.14	1882.25
758.323	1786
758.507	1745.04
758.691	1724.56
758.875	1679.51
759.059	1710.22
759.242	1747.09
759.426	1697.94
759.61	1630.35
759.794	1669.27
759.977	1597.59
760.161	1702.03
760.345	1620.11
760.528	1570.96
760.712	1581.2
760.895	1611.92
761.079	1661.07
761.263	1581.2
761.446	1530
761.63	1603.73
761.813	1564.82
761.997	1540.24
762.18	1599.63
762.364	1517.72
762.547	1577.11
762.731	1507.48
762.914	1372.31
763.098	1464.47
763.281	1540.24
763.464	1400.98
763.648	1482.9
763.831	1501.33
764.015	1388.69
764.198	1511.57
764.381	1491.09
764.564	1456.28
764.748	1437.84
764.931	1380.5
765.114	1370.26
765.297	1437.84
765.481	1364.12
765.664	1437.84
765.847	1337.49
766.03	1343.64
766.213	1411.22
766.397	1339.54
766.58	1323.16
766.763	1302.68
766.946	1460.37
767.129	1331.35
767.312	1276.06
767.495	1388.69
767.678	1341.59
767.861	1372.31
768.044	1355.93
768.227	1325.21
768.41	1278.1
768.593	1355.93
768.776	1343.64
768.959	1159.32
769.142	1325.21
769.324	1282.2
769.507	1237.14
769.69	1292.44
769.873	1155.23
770.056	1294.49
770.239	1253.53
770.421	1261.72
770.604	1202.33
770.787	1177.75
770.97	1112.22
771.152	1241.24
771.335	1161.37
771.518	1151.13
771.7	1202.33
771.883	1120.41
772.066	1187.99
772.248	1142.94
772.431	1187.99
772.613	1177.75
772.796	1151.13
772.978	1110.17
773.161	1134.75
773.343	1065.11
773.526	1181.85
773.708	1024.16
773.891	1044.63
774.073	1093.79
774.256	1077.4
774.438	1075.35
774.621	1063.07
774.803	1038.49
774.985	1093.79
775.168	1009.82
775.35	1036.44
775.532	1030.3
775.715	1040.54
775.897	1036.44
776.079	917.66
776.261	1007.77
776.444	925.85
776.626	1030.3
776.808	940.19
776.99	966.81
777.173	942.24
777.355	970.91
777.537	911.52
777.719	938.14
777.901	891.04
778.083	886.94
778.265	800.93
778.447	807.07
778.629	917.66
778.811	792.73
778.993	880.8
779.175	848.03
779.357	825.5
779.539	757.92
779.721	774.3
779.903	872.61
780.085	929.95
780.267	784.54
780.449	788.64
780.631	815.26
780.812	768.16
780.994	782.49
781.176	770.21
781.358	766.11
781.54	743.58
781.721	790.69
781.903	839.84
782.085	694.43
782.267	721.06
782.448	714.91
782.63	723.1
782.812	729.25
782.993	665.76
783.175	762.02
783.357	684.19
783.538	659.62
783.72	684.19
783.901	745.63
784.083	712.86
784.264	676
784.446	647.33
784.627	581.79
784.809	682.14
784.99	594.08
785.172	639.14
785.353	608.42
785.535	561.31
785.716	618.66
785.897	592.03
786.079	614.56
786.26	628.9
786.441	630.95
786.623	532.64
786.804	549.03
786.985	600.23
787.167	559.27
787.348	544.93
787.529	676
787.71	589.99
787.891	549.03
788.073	583.84
788.254	602.27
788.435	571.55
788.616	559.27
788.797	557.22
788.978	503.97
789.159	549.03
789.34	653.47
789.522	471.2
789.703	463.01
789.884	559.27
790.065	389.28
790.246	571.55
790.427	471.2
790.607	424.1
790.788	471.2
790.969	442.53
791.15	434.34
791.331	458.92
791.512	475.3
791.693	442.53
791.874	497.83
792.054	487.59
792.235	450.72
792.416	471.2
792.597	409.76
792.778	475.3
792.958	450.72
793.139	405.67
793.32	391.33
793.5	413.86
793.681	456.87
793.862	440.48
794.042	438.44
794.223	346.28
794.404	479.4
794.584	417.96
794.765	360.61
794.945	374.95
795.126	405.67
795.306	454.82
795.487	395.43
795.667	372.9
795.848	372.9
796.028	366.76
796.209	383.14
796.389	356.52
796.57	399.52
796.75	393.38
796.93	422.05
797.111	395.43
797.291	409.76
797.471	483.49
797.652	393.38
797.832	391.33
798.012	389.28
798.192	239.78
798.373	329.89
798.553	315.56
798.733	368.81
798.913	323.75
799.093	368.81
799.274	235.69
799.454	295.08
799.634	391.33
799.814	372.9
799.994	364.71
800.174	377
800.354	389.28
800.534	305.32
800.714	428.2
800.894	348.33
801.074	338.09
801.254	264.36
801.434	336.04
801.614	360.61
801.794	295.08
801.974	811.17
802.154	301.22
802.334	317.61
802.514	313.51
802.693	225.45
802.873	272.55
803.053	401.57
803.233	284.84
803.413	301.22
803.592	284.84
803.772	266.41
803.952	340.13
804.131	252.07
804.311	264.36
804.491	209.06
804.67	258.21
804.85	270.5
805.03	319.65
805.209	280.74
805.389	315.56
805.568	231.59
805.748	237.74
805.928	262.31
806.107	260.26
806.287	274.6
806.466	278.69
806.646	368.81
806.825	344.23
807.004	268.45
807.184	254.12
807.363	219.3
807.543	247.97
807.722	325.8
807.901	241.83
808.081	198.82
808.26	245.93
808.439	233.64
808.619	270.5
808.798	247.97
808.977	303.27
809.156	274.6
809.336	282.79
809.515	295.08
809.694	219.3
809.873	258.21
810.052	272.55
810.231	268.45
810.411	327.85
810.59	200.87
810.769	233.64
810.948	217.26
811.127	207.02
811.306	295.08
811.485	196.78
811.664	254.12
811.843	256.17
812.022	198.82
812.201	186.54
812.38	161.96
812.559	168.1
812.737	215.21
812.916	207.02
813.095	188.58
813.274	237.74
813.453	268.45
813.632	215.21
813.811	190.63
813.989	147.62
814.168	235.69
814.347	178.34
814.526	239.78
814.704	235.69
814.883	274.6
815.062	266.41
815.24	231.59
815.419	178.34
815.598	204.97
815.776	172.2
815.955	180.39
816.133	121
816.312	155.82
816.49	194.73
816.669	137.38
816.847	151.72
817.026	176.3
817.204	198.82
817.383	137.38
817.561	116.9
817.74	123.05
817.918	121
818.097	204.97
818.275	112.81
818.453	194.73
818.632	180.39
818.81	178.34
818.988	127.14
819.167	172.2
819.345	184.49
819.523	123.05
819.701	174.25
819.879	202.92
820.058	213.16
820.236	123.05
820.414	186.54
820.592	229.54
820.77	106.67
820.948	118.95
821.127	155.82
821.305	262.31
821.483	139.43
821.661	198.82
821.839	112.81
822.017	231.59
822.195	159.91
822.373	190.63
822.551	180.39
822.729	178.34
822.907	86.19
823.085	180.39
823.262	137.38
823.44	118.95
823.618	116.9
823.796	133.29
823.974	145.58
824.152	139.43
824.329	159.91
824.507	100.52
824.685	129.19
824.863	194.73
825.04	184.49
825.218	202.92
825.396	135.34
825.574	157.86
825.751	141.48
825.929	180.39
826.107	88.23
826.284	139.43
826.462	168.1
826.639	166.06
826.817	104.62
826.994	176.3
827.172	49.32
827.349	168.1
827.527	123.05
827.704	172.2
827.882	114.86
828.059	82.09
828.237	116.9
828.414	129.19
828.591	96.43
828.769	168.1
828.946	106.67
829.124	145.58
829.301	65.71
829.478	118.95
829.655	131.24
829.833	133.29
830.01	82.09
830.187	129.19
830.364	108.71
830.542	71.85
830.719	106.67
830.896	127.14
831.073	14.51
831.25	188.58
831.427	157.86
831.604	6.31
831.782	102.57
831.959	77.99
832.136	139.43
832.313	100.52
832.49	155.82
832.667	121
832.844	37.03
833.021	155.82
833.198	92.33
833.374	153.77
833.551	145.58
833.728	110.76
833.905	77.99
834.082	77.99
834.259	147.62
834.436	104.62
834.612	30.89
834.789	73.9
834.966	141.48
835.143	108.71
835.319	80.04
835.496	80.04
835.673	90.28
835.85	104.62
836.026	94.38
836.203	80.04
836.38	39.08
836.556	98.47
836.733	55.47
836.909	139.43
837.086	45.23
837.262	94.38
837.439	80.04
837.616	88.23
837.792	55.47
837.968	57.51
838.145	20.65
838.321	86.19
838.498	112.81
838.674	45.23
838.851	57.51
839.027	90.28
839.203	188.58
839.38	106.67
839.556	151.72
839.732	172.2
839.909	131.24
840.085	73.9
840.261	94.38
840.437	125.1
840.614	57.51
840.79	108.71
840.966	114.86
841.142	96.43
841.318	-34.64
841.494	104.62
841.671	82.09
841.847	75.95
842.023	14.51
842.199	129.19
842.375	47.27
842.551	18.6
842.727	63.66
842.903	90.28
843.079	55.47
843.255	67.75
843.431	90.28
843.607	90.28
843.783	32.94
843.959	41.13
844.134	34.99
844.31	28.84
844.486	49.32
844.662	137.38
844.838	102.57
845.013	108.71
845.189	106.67
845.365	32.94
845.541	96.43
845.716	131.24
845.892	45.23
846.068	16.55
846.244	45.23
846.419	73.9
846.595	26.79
846.77	24.75
846.946	157.86
847.122	86.19
847.297	73.9
847.473	133.29
847.648	75.95
847.824	4.27
847.999	94.38
848.175	47.27
848.35	88.23
848.526	47.27
848.701	37.03
848.876	32.94
849.052	43.18
849.227	92.33
849.403	137.38
849.578	28.84
849.753	51.37
849.929	55.47
850.104	55.47
850.279	32.94
850.454	-3.93
850.63	80.04
850.805	90.28
850.98	47.27
851.155	-87.89
851.33	84.14
851.505	82.09
851.681	118.95
851.856	-48.98
852.031	88.23
852.206	57.51
852.381	75.95
852.556	-5.97
852.731	77.99
852.906	24.75
853.081	41.13
853.256	32.94
853.431	51.37
853.606	61.61
853.781	12.46
853.956	-48.98
854.131	30.89
854.305	43.18
854.48	16.55
854.655	32.94
854.83	32.94
855.005	84.14
855.18	73.9
855.354	67.75
855.529	100.52
855.704	104.62
855.879	65.71
856.053	8.36
856.228	84.14
856.403	4.27
856.577	77.99
856.752	12.46
856.926	84.14
857.101	30.89
857.276	6.31
857.45	-42.84
857.625	71.85
857.799	-24.4
857.974	-22.36
858.148	63.66
858.323	51.37
858.497	41.13
858.672	88.23
858.846	-28.5
859.02	94.38
859.195	-18.26
859.369	-12.12
859.543	84.14
859.718	30.89
859.892	41.13
860.066	100.52
860.241	20.65
860.415	-42.84
860.589	2.22
860.763	22.7
860.938	-8.02
861.112	75.95
861.286	-22.36
861.46	-8.02
861.634	86.19
861.808	69.8
861.982	-38.74
862.157	28.84
862.331	-12.12
862.505	-24.4
862.679	34.99
862.853	16.55
863.027	37.03
863.201	24.75
863.375	-18.26
863.549	80.04
863.722	2.22
863.896	86.19
864.07	20.65
864.244	-28.5
864.418	-48.98
864.592	28.84
864.766	51.37
864.939	30.89
865.113	-22.36
865.287	98.47
865.461	-20.31
865.634	57.51
865.808	8.36
865.982	-40.79
866.156	39.08
866.329	-3.93
866.503	53.42
866.676	14.51
866.85	20.65
867.024	45.23
867.197	-10.07
867.371	92.33
867.544	82.09
867.718	-16.21
867.891	32.94
868.065	4.27
868.238	65.71
868.412	102.57
868.585	-32.6
868.759	24.75
868.932	-5.97
869.105	84.14
869.279	24.75
869.452	-26.45
869.625	80.04
869.799	-26.45
869.972	-26.45
870.145	4.27
870.319	24.75
870.492	-12.12
870.665	32.94
870.838	37.03
871.011	-12.12
871.185	10.41
871.358	-10.07
871.531	16.55
871.704	8.36
871.877	4.27
872.05	-12.12
872.223	4.27
872.396	39.08
872.569	77.99
872.742	-8.02
872.915	-22.36
873.088	47.27
873.261	65.71
873.434	-26.45
873.607	14.51
873.78	43.18
873.953	16.55
874.126	14.51
874.299	28.84
874.471	108.71
874.644	26.79
874.817	-1.88
874.99	63.66
875.163	51.37
875.335	20.65
875.508	30.89
875.681	39.08
875.853	22.7
876.026	6.31
876.199	-12.12
876.371	41.13
876.544	-12.12
876.717	65.71
876.889	39.08
877.062	6.31
877.234	8.36
877.407	-46.93
877.579	-34.64
877.752	-34.64
877.924	-12.12
878.097	55.47
878.269	0.17
878.442	-20.31
878.614	73.9
878.786	28.84
878.959	53.42
879.131	75.95
879.303	-36.69
879.476	49.32
879.648	28.84
879.82	-14.17
879.993	0.17
880.165	24.75
880.337	-69.46
880.509	123.05
880.681	0.17
880.854	-3.93
881.026	-1.88
881.198	82.09
881.37	37.03
881.542	102.57
881.714	-40.79
881.886	26.79
882.058	45.23
882.23	59.56
882.402	8.36
882.574	34.99
882.746	14.51
882.918	45.23
883.09	-32.6
883.262	53.42
883.434	12.46
883.606	14.51
883.778	-14.17
883.95	41.13
884.122	24.75
884.293	8.36
884.465	22.7
884.637	2.22
884.809	14.51
884.98	67.75
885.152	24.75
885.324	24.75
885.496	12.46
885.667	-46.93
885.839	-75.6
886.011	53.42
886.182	20.65
886.354	28.84
886.525	6.31
886.697	2.22
886.869	-24.4
887.04	6.31
887.212	39.08
887.383	-12.12
887.555	41.13
887.726	129.19
887.897	8.36
888.069	20.65
888.24	24.75
888.412	55.47
888.583	6.31
888.754	22.7
888.926	-24.4
889.097	69.8
889.268	-48.98
889.44	-3.93
889.611	-61.27
889.782	-20.31
889.953	82.09
890.125	-20.31
890.296	-48.98
890.467	16.55
890.638	-3.93
890.809	63.66
890.98	0.17
891.151	-10.07
891.323	41.13
891.494	16.55
891.665	47.27
891.836	24.75
892.007	-75.6
892.178	77.99
892.349	28.84
892.52	24.75
892.691	-22.36
892.862	49.32
893.032	-14.17
893.203	-18.26
893.374	-18.26
893.545	53.42
893.716	6.31
893.887	34.99
894.057	55.47
894.228	8.36
894.399	57.51
894.57	28.84
894.74	4.27
894.911	51.37
895.082	-16.21
895.253	26.79
895.423	55.47
895.594	34.99
895.764	-16.21
895.935	32.94
896.106	-5.97
896.276	-3.93
896.447	51.37
896.617	34.99
896.788	-10.07
896.958	-16.21
897.129	-75.6
897.299	-48.98
897.47	-8.02
897.64	32.94
897.81	-20.31
897.981	108.71
898.151	10.41
898.322	94.38
898.492	65.71
898.662	24.75
898.832	-40.79
899.003	14.51
899.173	45.23
899.343	-51.03
899.513	-51.03
