Data from USB4F104151__123__10-25-16-024.txt Node

Date: Wed Mar 12 10:25:16 EDT 2025
User: louis
Spectrometer: USB4F10415
Trigger mode: 4
Integration Time (sec): 3.000000E-2
Scans to average: 1
Electric dark correction enabled: true
Nonlinearity correction enabled: false
Boxcar width: 0
XAxis mode: Wavelengths
Number of Pixels in Spectrum: 3648
>>>>>Begin Spectral Data<<<<<
178.204	-120.66
178.424	-120.66
178.644	-120.66
178.864	-102.23
179.084	-102.23
179.304	-26.45
179.524	22.7
179.744	-46.93
179.964	94.38
180.184	-30.55
180.404	39.08
180.624	6.31
180.844	-32.6
181.064	-59.22
181.283	12.46
181.503	43.18
181.723	-22.36
181.943	-12.12
182.163	22.7
182.383	18.6
182.602	53.42
182.822	39.08
183.042	-20.31
183.262	2.22
183.482	-12.12
183.701	14.51
183.921	67.75
184.141	-34.64
184.361	43.18
184.58	26.79
184.8	-32.6
185.02	20.65
185.239	75.95
185.459	-30.55
185.679	39.08
185.898	6.31
186.118	80.04
186.338	6.31
186.557	24.75
186.777	-5.97
186.997	14.51
187.216	43.18
187.436	34.99
187.655	4.27
187.875	0.17
188.095	0.17
188.314	37.03
188.534	-32.6
188.753	-14.17
188.973	77.99
189.192	51.37
189.412	2.22
189.631	98.47
189.851	73.9
190.07	96.43
190.29	-10.07
190.509	-3.93
190.729	51.37
190.948	116.9
191.168	110.76
191.387	92.33
191.607	-36.69
191.826	98.47
192.045	22.7
192.265	30.89
192.484	82.09
192.704	30.89
192.923	-28.5
193.142	90.28
193.362	39.08
193.581	104.62
193.8	-36.69
194.02	-1.88
194.239	47.27
194.458	-10.07
194.678	-26.45
194.897	41.13
195.116	34.99
195.335	26.79
195.555	53.42
195.774	-24.4
195.993	47.27
196.212	-24.4
196.432	-24.4
196.651	-10.07
196.87	-22.36
197.089	88.23
197.308	67.75
197.528	28.84
197.747	51.37
197.966	53.42
198.185	47.27
198.404	43.18
198.623	69.8
198.842	-10.07
199.062	26.79
199.281	98.47
199.5	-59.22
199.719	-5.97
199.938	18.6
200.157	-3.93
200.376	51.37
200.595	26.79
200.814	49.32
201.033	-1.88
201.252	37.03
201.471	-8.02
201.69	22.7
201.909	100.52
202.128	2.22
202.347	43.18
202.566	47.27
202.785	0.17
203.004	12.46
203.223	143.53
203.442	94.38
203.661	12.46
203.879	39.08
204.098	67.75
204.317	-14.17
204.536	34.99
204.755	16.55
204.974	100.52
205.193	55.47
205.411	30.89
205.63	73.9
205.849	10.41
206.068	57.51
206.287	69.8
206.505	51.37
206.724	75.95
206.943	22.7
207.162	30.89
207.381	-20.31
207.599	22.7
207.818	-42.84
208.037	67.75
208.255	-16.21
208.474	-20.31
208.693	-5.97
208.911	2.22
209.13	8.36
209.349	-26.45
209.567	80.04
209.786	47.27
210.005	14.51
210.223	10.41
210.442	30.89
210.661	55.47
210.879	-34.64
211.098	65.71
211.316	61.61
211.535	168.1
211.753	-38.74
211.972	49.32
212.191	63.66
212.409	4.27
212.628	-14.17
212.846	26.79
213.065	77.99
213.283	37.03
213.502	73.9
213.72	71.85
213.938	133.29
214.157	-10.07
214.375	22.7
214.594	18.6
214.812	28.84
215.031	53.42
215.249	-22.36
215.467	92.33
215.686	39.08
215.904	49.32
216.122	-14.17
216.341	96.43
216.559	14.51
216.778	94.38
216.996	55.47
217.214	18.6
217.432	-46.93
217.651	-34.64
217.869	-18.26
218.087	59.56
218.306	24.75
218.524	-5.97
218.742	55.47
218.96	45.23
219.179	-24.4
219.397	-30.55
219.615	47.27
219.833	96.43
220.051	-10.07
220.27	137.38
220.488	59.56
220.706	-3.93
220.924	20.65
221.142	10.41
221.36	45.23
221.578	-18.26
221.796	104.62
222.015	6.31
222.233	37.03
222.451	16.55
222.669	61.61
222.887	45.23
223.105	51.37
223.323	-12.12
223.541	-3.93
223.759	75.95
223.977	80.04
224.195	43.18
224.413	49.32
224.631	28.84
224.849	-36.69
225.067	45.23
225.285	32.94
225.503	86.19
225.721	8.36
225.939	71.85
226.157	12.46
226.375	125.1
226.592	86.19
226.81	-12.12
227.028	102.57
227.246	55.47
227.464	6.31
227.682	18.6
227.9	26.79
228.117	45.23
228.335	-14.17
228.553	22.7
228.771	0.17
228.989	32.94
229.206	96.43
229.424	34.99
229.642	-3.93
229.86	51.37
230.077	88.23
230.295	57.51
230.513	63.66
230.731	34.99
230.948	34.99
231.166	69.8
231.384	-1.88
231.601	61.61
231.819	112.81
232.037	59.56
232.254	6.31
232.472	-14.17
232.689	-1.88
232.907	59.56
233.125	45.23
233.342	73.9
233.56	18.6
233.777	-67.41
233.995	53.42
234.213	-1.88
234.43	45.23
234.648	2.22
234.865	-16.21
235.083	16.55
235.3	28.84
235.518	110.76
235.735	16.55
235.953	32.94
236.17	-18.26
236.388	67.75
236.605	12.46
236.822	61.61
237.04	22.7
237.257	4.27
237.475	2.22
237.692	49.32
237.909	12.46
238.127	71.85
238.344	65.71
238.562	131.24
238.779	-30.55
238.996	32.94
239.214	24.75
239.431	12.46
239.648	26.79
239.865	-32.6
240.083	110.76
240.3	26.79
240.517	-30.55
240.735	71.85
240.952	10.41
241.169	75.95
241.386	80.04
241.603	94.38
241.821	59.56
242.038	57.51
242.255	20.65
242.472	26.79
242.689	137.38
242.907	49.32
243.124	-12.12
243.341	63.66
243.558	59.56
243.775	65.71
243.992	-28.5
244.209	-44.88
244.426	61.61
244.643	-40.79
244.86	-26.45
245.078	47.27
245.295	69.8
245.512	39.08
245.729	16.55
245.946	39.08
246.163	-22.36
246.38	22.7
246.597	12.46
246.814	-16.21
247.031	37.03
247.248	18.6
247.464	39.08
247.681	88.23
247.898	71.85
248.115	20.65
248.332	-14.17
248.549	6.31
248.766	47.27
248.983	14.51
249.2	14.51
249.417	30.89
249.633	30.89
249.85	69.8
250.067	28.84
250.284	32.94
250.501	6.31
250.717	67.75
250.934	-26.45
251.151	55.47
251.368	57.51
251.585	73.9
251.801	-18.26
252.018	-3.93
252.235	92.33
252.451	22.7
252.668	32.94
252.885	-20.31
253.102	-18.26
253.318	14.51
253.535	-34.64
253.752	-5.97
253.968	55.47
254.185	-34.64
254.401	45.23
254.618	0.17
254.835	88.23
255.051	34.99
255.268	116.9
255.484	28.84
255.701	-12.12
255.917	57.51
256.134	10.41
256.351	-1.88
256.567	-10.07
256.784	63.66
257	30.89
257.217	43.18
257.433	110.76
257.65	67.75
257.866	94.38
258.082	-18.26
258.299	20.65
258.515	2.22
258.732	2.22
258.948	47.27
259.165	2.22
259.381	-1.88
259.597	-51.03
259.814	30.89
260.03	30.89
260.246	8.36
260.463	86.19
260.679	47.27
260.895	-36.69
261.112	63.66
261.328	-12.12
261.544	37.03
261.761	96.43
261.977	12.46
262.193	18.6
262.409	28.84
262.626	6.31
262.842	18.6
263.058	-57.17
263.274	18.6
263.49	71.85
263.707	84.14
263.923	20.65
264.139	-3.93
264.355	-55.12
264.571	65.71
264.787	100.52
265.004	86.19
265.22	16.55
265.436	4.27
265.652	37.03
265.868	84.14
266.084	51.37
266.3	24.75
266.516	10.41
266.732	-30.55
266.948	55.47
267.164	8.36
267.38	55.47
267.596	63.66
267.812	80.04
268.028	61.61
268.244	65.71
268.46	39.08
268.676	14.51
268.892	14.51
269.108	45.23
269.324	-3.93
269.54	-51.03
269.756	110.76
269.972	2.22
270.188	55.47
270.403	-22.36
270.619	26.79
270.835	22.7
271.051	22.7
271.267	18.6
271.483	39.08
271.698	94.38
271.914	96.43
272.13	-5.97
272.346	-30.55
272.562	41.13
272.777	39.08
272.993	10.41
273.209	12.46
273.425	10.41
273.64	69.8
273.856	28.84
274.072	22.7
274.287	59.56
274.503	10.41
274.719	18.6
274.934	0.17
275.15	53.42
275.366	10.41
275.581	6.31
275.797	28.84
276.012	2.22
276.228	55.47
276.444	88.23
276.659	16.55
276.875	4.27
277.09	63.66
277.306	47.27
277.521	-5.97
277.737	12.46
277.952	102.57
278.168	51.37
278.383	55.47
278.599	6.31
278.814	-1.88
279.03	-22.36
279.245	116.9
279.461	34.99
279.676	88.23
279.892	26.79
280.107	0.17
280.322	-3.93
280.538	53.42
280.753	-8.02
280.969	43.18
281.184	47.27
281.399	28.84
281.615	37.03
281.83	80.04
282.045	-26.45
282.26	24.75
282.476	102.57
282.691	84.14
282.906	4.27
283.122	88.23
283.337	20.65
283.552	63.66
283.767	-14.17
283.983	20.65
284.198	63.66
284.413	51.37
284.628	12.46
284.843	-10.07
285.058	65.71
285.274	-5.97
285.489	6.31
285.704	59.56
285.919	-20.31
286.134	-8.02
286.349	-10.07
286.564	84.14
286.779	80.04
286.995	41.13
287.21	22.7
287.425	18.6
287.64	-24.4
287.855	86.19
288.07	0.17
288.285	28.84
288.5	51.37
288.715	59.56
288.93	24.75
289.145	28.84
289.36	61.61
289.575	43.18
289.79	28.84
290.004	-65.36
290.219	84.14
290.434	45.23
290.649	4.27
290.864	-40.79
291.079	59.56
291.294	34.99
291.509	47.27
291.724	-22.36
291.938	32.94
292.153	65.71
292.368	12.46
292.583	71.85
292.798	118.95
293.012	22.7
293.227	73.9
293.442	65.71
293.657	51.37
293.871	67.75
294.086	-10.07
294.301	67.75
294.516	32.94
294.73	45.23
294.945	-8.02
295.16	-48.98
295.374	104.62
295.589	84.14
295.804	2.22
296.018	63.66
296.233	96.43
296.447	77.99
296.662	4.27
296.877	43.18
297.091	65.71
297.306	-32.6
297.52	69.8
297.735	49.32
297.949	32.94
298.164	61.61
298.378	57.51
298.593	8.36
298.807	20.65
299.022	-1.88
299.236	43.18
299.451	49.32
299.665	-1.88
299.88	55.47
300.094	67.75
300.309	16.55
300.523	43.18
300.737	63.66
300.952	55.47
301.166	61.61
301.381	12.46
301.595	12.46
301.809	69.8
302.024	100.52
302.238	51.37
302.452	84.14
302.667	77.99
302.881	22.7
303.095	30.89
303.309	-20.31
303.524	34.99
303.738	22.7
303.952	-3.93
304.166	96.43
304.381	-14.17
304.595	30.89
304.809	102.57
305.023	6.31
305.237	22.7
305.452	2.22
305.666	80.04
305.88	14.51
306.094	80.04
306.308	82.09
306.522	18.6
306.736	16.55
306.95	10.41
307.164	16.55
307.379	47.27
307.593	75.95
307.807	32.94
308.021	80.04
308.235	65.71
308.449	-3.93
308.663	61.61
308.877	178.34
309.091	16.55
309.305	8.36
309.519	-12.12
309.733	71.85
309.947	26.79
310.161	-18.26
310.374	32.94
310.588	96.43
310.802	10.41
311.016	20.65
311.23	53.42
311.444	0.17
311.658	63.66
311.872	102.57
312.085	39.08
312.299	53.42
312.513	137.38
312.727	69.8
312.941	73.9
313.154	4.27
313.368	69.8
313.582	37.03
313.796	102.57
314.009	86.19
314.223	53.42
314.437	4.27
314.651	86.19
314.864	157.86
315.078	-3.93
315.292	28.84
315.505	16.55
315.719	-1.88
315.933	-20.31
316.146	41.13
316.36	28.84
316.573	39.08
316.787	133.29
317.001	30.89
317.214	28.84
317.428	94.38
317.641	14.51
317.855	10.41
318.068	100.52
318.282	22.7
318.495	102.57
318.709	77.99
318.922	67.75
319.136	-14.17
319.349	-1.88
319.563	39.08
319.776	125.1
319.99	0.17
320.203	59.56
320.417	26.79
320.63	41.13
320.843	94.38
321.057	96.43
321.27	22.7
321.483	14.51
321.697	47.27
321.91	112.81
322.124	75.95
322.337	14.51
322.55	51.37
322.763	22.7
322.977	49.32
323.19	30.89
323.403	-18.26
323.617	69.8
323.83	94.38
324.043	30.89
324.256	6.31
324.469	47.27
324.683	94.38
324.896	55.47
325.109	-1.88
325.322	-16.21
325.535	112.81
325.748	0.17
325.962	-36.69
326.175	110.76
326.388	92.33
326.601	14.51
326.814	67.75
327.027	53.42
327.24	100.52
327.453	-61.27
327.666	108.71
327.879	127.14
328.092	69.8
328.305	39.08
328.518	22.7
328.731	-71.51
328.944	73.9
329.157	-18.26
329.37	77.99
329.583	30.89
329.796	28.84
330.009	2.22
330.222	47.27
330.435	-1.88
330.648	84.14
330.861	39.08
331.073	112.81
331.286	-34.64
331.499	55.47
331.712	26.79
331.925	61.61
332.138	71.85
332.35	59.56
332.563	18.6
332.776	37.03
332.989	-22.36
333.202	4.27
333.414	75.95
333.627	53.42
333.84	39.08
334.053	96.43
334.265	-18.26
334.478	-34.64
334.691	96.43
334.903	96.43
335.116	14.51
335.329	84.14
335.541	102.57
335.754	45.23
335.966	53.42
336.179	96.43
336.392	30.89
336.604	26.79
336.817	16.55
337.029	14.51
337.242	94.38
337.454	71.85
337.667	24.75
337.88	139.43
338.092	49.32
338.305	22.7
338.517	14.51
338.729	47.27
338.942	43.18
339.154	6.31
339.367	-36.69
339.579	57.51
339.792	10.41
340.004	88.23
340.217	-18.26
340.429	71.85
340.641	22.7
340.854	14.51
341.066	59.56
341.278	24.75
341.491	102.57
341.703	-1.88
341.915	0.17
342.128	63.66
342.34	-55.12
342.552	41.13
342.764	47.27
342.977	59.56
343.189	4.27
343.401	34.99
343.613	-42.84
343.826	26.79
344.038	53.42
344.25	67.75
344.462	14.51
344.674	22.7
344.886	14.51
345.099	34.99
345.311	69.8
345.523	39.08
345.735	12.46
345.947	18.6
346.159	45.23
346.371	30.89
346.583	123.05
346.795	90.28
347.007	-8.02
347.219	75.95
347.431	57.51
347.643	45.23
347.855	125.1
348.067	57.51
348.279	34.99
348.491	-20.31
348.703	10.41
348.915	67.75
349.127	10.41
349.339	88.23
349.551	-1.88
349.763	133.29
349.975	-48.98
350.187	77.99
350.399	34.99
350.61	18.6
350.822	53.42
351.034	0.17
351.246	20.65
351.458	61.61
351.669	26.79
351.881	96.43
352.093	39.08
352.305	133.29
352.517	63.66
352.728	39.08
352.94	16.55
353.152	34.99
353.363	16.55
353.575	47.27
353.787	45.23
353.999	75.95
354.21	49.32
354.422	6.31
354.633	24.75
354.845	39.08
355.057	8.36
355.268	30.89
355.48	88.23
355.692	41.13
355.903	30.89
356.115	-1.88
356.326	-18.26
356.538	104.62
356.749	47.27
356.961	69.8
357.172	-16.21
357.384	53.42
357.595	182.44
357.807	22.7
358.018	10.41
358.23	53.42
358.441	51.37
358.653	39.08
358.864	37.03
359.075	39.08
359.287	-32.6
359.498	186.54
359.709	57.51
359.921	-10.07
360.132	-38.74
360.344	0.17
360.555	-8.02
360.766	30.89
360.977	12.46
361.189	51.37
361.4	110.76
361.611	118.95
361.823	73.9
362.034	0.17
362.245	-32.6
362.456	-22.36
362.667	84.14
362.879	14.51
363.09	12.46
363.301	86.19
363.512	6.31
363.723	94.38
363.935	-32.6
364.146	14.51
364.357	45.23
364.568	43.18
364.779	-18.26
364.99	32.94
365.201	-1.88
365.412	88.23
365.623	-8.02
365.834	30.89
366.045	6.31
366.256	114.86
366.467	59.56
366.678	-22.36
366.889	41.13
367.1	123.05
367.311	26.79
367.522	61.61
367.733	47.27
367.944	6.31
368.155	106.67
368.366	30.89
368.577	43.18
368.788	77.99
368.999	102.57
369.209	57.51
369.42	174.25
369.631	96.43
369.842	59.56
370.053	110.76
370.264	100.52
370.474	30.89
370.685	51.37
370.896	133.29
371.107	108.71
371.317	104.62
371.528	-8.02
371.739	82.09
371.95	86.19
372.16	80.04
372.371	26.79
372.582	121
372.792	80.04
373.003	80.04
373.214	39.08
373.424	112.81
373.635	82.09
373.846	84.14
374.056	32.94
374.267	82.09
374.477	67.75
374.688	131.24
374.898	43.18
375.109	77.99
375.319	22.7
375.53	84.14
375.74	43.18
375.951	-10.07
376.161	71.85
376.372	131.24
376.582	22.7
376.793	94.38
377.003	55.47
377.214	-12.12
377.424	129.19
377.635	39.08
377.845	20.65
378.055	77.99
378.266	20.65
378.476	-20.31
378.686	-1.88
378.897	-1.88
379.107	96.43
379.317	55.47
379.528	32.94
379.738	114.86
379.948	6.31
380.158	75.95
380.369	82.09
380.579	53.42
380.789	55.47
380.999	49.32
381.21	114.86
381.42	174.25
381.63	80.04
381.84	39.08
382.05	43.18
382.261	18.6
382.471	51.37
382.681	71.85
382.891	84.14
383.101	112.81
383.311	90.28
383.521	67.75
383.731	106.67
383.941	129.19
384.151	-32.6
384.361	96.43
384.571	84.14
384.781	22.7
384.991	63.66
385.201	67.75
385.411	47.27
385.621	67.75
385.831	51.37
386.041	45.23
386.251	26.79
386.461	125.1
386.671	47.27
386.881	131.24
387.091	63.66
387.301	-1.88
387.511	106.67
387.72	121
387.93	96.43
388.14	63.66
388.35	92.33
388.56	82.09
388.769	94.38
388.979	8.36
389.189	34.99
389.399	77.99
389.609	102.57
389.818	121
390.028	-3.93
390.238	110.76
390.447	20.65
390.657	98.47
390.867	43.18
391.076	75.95
391.286	88.23
391.496	32.94
391.705	61.61
391.915	57.51
392.125	61.61
392.334	88.23
392.544	43.18
392.753	53.42
392.963	-5.97
393.172	86.19
393.382	34.99
393.591	131.24
393.801	22.7
394.01	178.34
394.22	65.71
394.429	61.61
394.639	166.06
394.848	92.33
395.058	71.85
395.267	59.56
395.477	145.58
395.686	65.71
395.895	108.71
396.105	143.53
396.314	114.86
396.524	-16.21
396.733	125.1
396.942	73.9
397.152	71.85
397.361	131.24
397.57	129.19
397.78	121
397.989	114.86
398.198	112.81
398.407	104.62
398.617	96.43
398.826	149.67
399.035	104.62
399.244	159.91
399.453	141.48
399.663	125.1
399.872	131.24
400.081	96.43
400.29	155.82
400.499	63.66
400.708	207.02
400.917	71.85
401.127	92.33
401.336	127.14
401.545	108.71
401.754	114.86
401.963	174.25
402.172	133.29
402.381	73.9
402.59	94.38
402.799	114.86
403.008	172.2
403.217	139.43
403.426	110.76
403.635	71.85
403.844	137.38
404.053	161.96
404.262	108.71
404.471	227.5
404.68	145.58
404.888	190.63
405.097	153.77
405.306	110.76
405.515	184.49
405.724	153.77
405.933	125.1
406.142	235.69
406.35	202.92
406.559	170.15
406.768	223.4
406.977	233.64
407.185	272.55
407.394	223.4
407.603	207.02
407.812	213.16
408.02	288.93
408.229	247.97
408.438	280.74
408.646	250.02
408.855	227.5
409.064	266.41
409.272	262.31
409.481	293.03
409.69	235.69
409.898	245.93
410.107	276.65
410.315	409.76
410.524	299.17
410.733	475.3
410.941	286.89
411.15	385.19
411.358	413.86
411.567	415.91
411.775	381.09
411.984	383.14
412.192	514.21
412.401	438.44
412.609	516.26
412.818	553.12
413.026	549.03
413.234	499.88
413.443	594.08
413.651	526.5
413.86	647.33
414.068	620.71
414.276	620.71
414.485	620.71
414.693	782.49
414.901	772.25
415.11	776.35
415.318	714.91
415.526	796.83
415.734	786.59
415.943	862.37
416.151	809.12
416.359	925.85
416.567	895.13
416.776	909.47
416.984	995.48
417.192	1083.55
417.4	1056.92
417.608	1099.93
417.817	1134.75
418.025	1108.12
418.233	1247.38
418.441	1257.62
418.649	1347.73
418.857	1394.84
419.065	1423.51
419.273	1323.16
419.481	1386.65
419.689	1513.62
419.897	1513.62
420.105	1620.11
420.313	1677.46
420.521	1706.13
420.729	1759.38
420.937	1759.38
421.145	1931.41
421.353	1964.17
421.561	2080.91
421.769	2123.91
421.977	2234.5
422.185	2177.16
422.393	2279.56
422.601	2363.53
422.809	2484.36
423.017	2281.61
423.224	2455.69
423.432	2781.31
423.64	2717.83
423.848	2963.58
424.056	2736.26
424.263	2842.75
424.471	3014.78
424.679	3020.92
424.887	3254.39
425.094	3299.45
425.302	3311.74
425.51	3473.53
425.718	3545.2
425.925	3608.69
426.133	3782.77
426.341	3905.65
426.548	4210.79
426.756	4022.38
426.964	4251.75
427.171	4409.45
427.379	4356.2
427.586	4618.34
427.794	4733.03
428.001	4892.77
428.209	5023.84
428.417	5036.13
428.624	5351.51
428.832	5584.98
429.039	5398.62
429.247	5369.94
429.454	6000.72
429.662	6088.78
429.869	5847.12
430.076	6252.62
430.284	6107.21
430.491	6527.05
430.699	6809.67
430.906	6787.14
431.114	6809.67
431.321	7114.81
431.528	7352.38
431.736	7784.5
431.943	8040.5
432.15	7764.02
432.358	7852.08
432.565	8204.33
432.772	8218.67
432.979	8720.42
433.187	8722.47
433.394	9082.91
433.601	9635.86
433.808	9558.04
434.016	9492.51
434.223	10000.4
434.43	10614.79
434.637	10549.26
434.844	11061.25
435.052	11208.7
435.259	11040.77
435.466	11292.67
435.673	11153.41
435.88	11767.8
436.087	12466.16
436.294	12425.2
436.501	12175.34
436.708	12322.8
436.915	12904.42
437.122	13258.72
437.329	13240.29
437.537	13639.64
437.743	14116.82
437.95	13739.99
438.157	14606.28
438.364	15042.5
438.571	15026.12
438.778	15026.12
438.985	16502.7
439.192	15800.25
439.399	16545.71
439.606	15851.45
439.813	16934.82
440.02	17747.87
440.227	17616.8
440.433	17295.27
440.64	18270.1
440.847	17790.88
441.054	18493.33
441.261	19576.7
441.467	19146.63
441.674	19801.98
441.881	20438.9
442.088	20332.4
442.294	20049.78
442.501	20641.65
442.708	20916.08
442.914	21815.13
443.121	23086.92
443.328	22007.64
443.534	23816
443.741	22888.27
443.948	22929.23
444.154	24362.81
444.361	24160.06
444.568	24385.33
444.774	24614.71
444.981	24672.05
445.187	25286.44
445.394	26531.61
445.6	26222.36
445.807	28602.1
446.013	27614.98
446.22	28131.07
446.426	28876.53
446.633	29474.54
446.839	29933.28
447.046	28593.91
447.252	30674.65
447.459	30779.09
447.665	30469.85
447.871	31649.48
448.078	32773.81
448.284	31248.08
448.491	32421.56
448.697	33638.06
448.903	34035.36
449.11	33664.68
449.316	33660.59
449.522	34299.55
449.728	34897.56
449.935	35464.85
450.141	35145.36
450.347	36171.39
450.553	34836.12
450.76	35178.13
450.966	36865.66
451.172	36341.38
451.378	36800.12
451.584	35968.65
451.791	36699.77
451.997	36839.03
452.203	37224.05
452.409	37301.87
452.615	36961.91
452.821	35651.21
453.027	35319.44
453.233	37402.22
453.44	35704.46
453.646	36058.76
453.852	36322.94
454.058	36628.09
454.264	35292.82
454.47	36304.51
454.676	35145.36
454.882	36527.74
455.088	33406.64
455.294	33939.11
455.5	34168.48
455.705	34578.08
455.911	33152.69
456.117	32636.6
456.323	32138.94
456.529	30582.49
456.735	31923.91
456.941	30654.17
457.147	30111.46
457.352	29609.7
457.558	29030.13
457.764	29044.46
457.97	28376.83
458.176	27916.03
458.381	28153.6
458.587	26502.93
458.793	26326.81
458.999	25196.33
459.204	26781.46
459.41	26367.77
459.616	24473.4
459.821	24729.39
460.027	24393.53
460.233	24115
460.438	22968.14
460.644	22779.73
460.85	22005.59
461.055	21757.79
461.261	21585.76
461.466	20092.79
461.672	19357.57
461.878	20721.52
462.083	19279.75
462.289	19054.47
462.494	19199.88
462.7	18163.61
462.905	17776.54
463.111	18284.44
463.316	18116.5
463.522	18096.02
463.727	17876.89
463.932	17799.07
464.138	17799.07
464.343	17969.05
464.549	17332.13
464.754	17893.27
464.959	17749.92
465.165	17641.37
465.37	16656.3
465.575	16357.3
465.781	16928.68
465.986	17108.9
466.191	16189.36
466.397	16056.25
466.602	15394.75
466.807	15972.28
467.012	15949.75
467.218	15857.59
467.423	15566.78
467.628	15722.43
467.833	16365.49
468.038	15861.69
468.244	15544.25
468.449	15980.47
468.654	15695.8
468.859	15427.52
469.064	15208.39
469.269	14725.07
469.474	14882.76
469.679	14976.97
469.885	14561.23
470.09	14651.34
470.295	14677.96
470.5	14481.36
470.705	14532.56
470.91	14194.64
471.115	13633.5
471.32	14211.03
471.525	14182.35
471.73	13703.13
471.935	13694.94
472.139	13309.92
472.344	13531.1
472.549	13254.62
472.754	13115.36
472.959	12871.65
473.164	12447.72
473.369	12330.99
473.574	12861.41
473.778	12724.2
473.983	12556.27
474.188	12615.66
474.393	12093.43
474.598	12128.24
474.802	11859.96
475.007	11761.66
475.212	11993.08
475.417	11427.84
475.621	11503.61
475.826	11642.87
476.031	11366.4
476.235	11098.11
476.44	11288.57
476.645	10885.12
476.849	11057.15
477.054	10954.76
477.259	10463.24
477.463	10649.61
477.668	10426.38
477.872	10760.2
478.077	10586.12
478.282	10166.29
478.486	10125.33
478.691	10080.27
478.895	9965.59
479.1	10039.31
479.304	10078.22
479.509	9539.61
479.713	9869.33
479.918	9611.29
480.122	9576.47
480.326	9728.02
480.531	9654.3
480.735	9353.24
480.94	9345.05
481.144	9857.04
481.348	9459.74
481.553	9519.13
481.757	9103.39
481.961	9539.61
482.166	9435.16
482.37	9476.12
482.574	9095.2
482.778	9457.69
482.983	9422.87
483.187	9437.21
483.391	9355.29
483.595	9293.85
483.8	9082.91
484.004	9078.82
484.208	9256.99
484.412	9148.45
484.616	9328.67
484.821	9359.39
485.025	9125.92
485.229	9457.69
485.433	9261.09
485.637	9091.1
485.841	9246.75
486.045	9211.93
486.249	9418.78
486.453	9285.66
486.657	9123.87
486.861	9248.8
487.065	9064.48
487.269	9289.76
487.473	8869.92
487.677	9170.97
487.881	9402.4
488.085	9127.97
488.289	9228.32
488.493	9191.45
488.697	9424.92
488.901	9195.55
489.105	9355.29
489.309	9435.16
489.512	9295.9
489.716	9345.05
489.92	9392.16
490.124	9537.56
490.328	9420.83
490.531	9441.31
490.735	9508.89
490.939	9558.04
491.143	9553.94
491.346	9615.38
491.55	9762.84
491.754	9576.47
491.958	9652.25
492.161	9857.04
492.365	9689.11
492.569	9809.94
492.772	9820.18
492.976	9895.96
493.18	9957.39
493.383	9904.15
493.587	10016.79
493.79	10256.4
493.994	10180.62
494.197	10100.75
494.401	10383.37
494.605	10231.82
494.808	10459.15
495.012	10635.27
495.215	10532.87
495.419	10758.15
495.622	10719.24
495.825	10670.09
496.029	10733.57
496.232	11229.18
496.436	11098.11
496.639	11163.65
496.843	11124.74
497.046	11388.92
497.249	11714.55
497.453	11530.23
497.656	11911.16
497.859	11956.21
498.063	11937.78
498.266	11919.35
498.469	11954.16
498.673	12236.78
498.876	12701.67
499.079	12537.84
499.282	12625.9
499.485	12945.38
499.689	12859.37
499.892	13393.89
500.095	13076.45
500.298	13555.68
500.501	13277.15
500.705	13711.32
500.908	14034.9
501.111	13877.21
501.314	14120.92
501.517	14366.67
501.72	14176.21
501.923	14428.11
502.126	14849.99
502.329	15110.08
502.532	15165.38
502.735	15060.93
502.938	15237.06
503.141	15718.33
503.344	15646.65
503.547	15863.74
503.75	15916.98
503.953	16291.76
504.156	16476.08
504.359	16865.19
504.562	16697.26
504.765	17233.83
504.968	17053.61
505.17	17457.06
505.373	17508.26
505.576	17633.18
505.779	17903.51
505.982	17915.8
506.185	18622.35
506.387	18276.24
506.59	18669.45
506.793	19105.67
506.996	19017.61
507.198	19703.68
507.401	19449.73
507.604	19621.76
507.807	20195.19
508.009	20289.4
508.212	20451.19
508.415	20715.37
508.617	21174.12
508.82	20787.05
509.022	20862.83
509.225	21526.37
509.428	21520.23
509.63	21870.43
509.833	21649.25
510.035	22447.96
510.238	22251.35
510.44	22488.92
510.643	23146.31
510.845	22918.99
511.048	22886.22
511.25	23572.29
511.453	23508.8
511.655	24575.8
511.858	23865.15
512.06	24356.66
512.262	24753.97
512.465	24862.51
512.667	25511.72
512.87	25407.27
513.072	25622.31
513.274	25853.73
513.477	26275.61
513.679	26461.97
513.881	27123.47
514.084	26941.2
514.286	27090.7
514.488	27420.42
514.69	27938.56
514.893	28311.29
515.095	28282.62
515.297	28604.15
515.499	28581.62
515.701	29183.73
515.904	29513.45
516.106	29576.94
516.308	29656.81
516.51	30533.34
516.712	30475.99
516.914	30840.53
517.116	31280.85
517.318	31272.65
517.52	31358.67
517.722	31762.12
517.925	32161.47
518.127	32577.21
518.329	32825.01
518.531	32661.18
518.733	33494.7
518.935	33359.53
519.136	33734.31
519.338	34438.81
519.54	34127.52
519.742	34764.44
519.944	34748.06
520.146	35380.88
520.348	35671.69
520.55	35669.64
520.752	35737.23
520.954	36482.69
521.155	36568.7
521.357	37052.02
521.559	37590.64
521.761	37836.39
521.963	37742.19
522.164	37885.54
522.366	37930.6
522.568	38497.89
522.77	38674.01
522.971	39632.46
523.173	39286.36
523.375	39779.92
523.576	39489.1
523.778	39792.2
523.98	40402.5
524.181	40578.62
524.383	40642.11
524.584	41565.74
524.786	41186.87
524.988	41035.32
525.189	41823.79
525.391	41881.13
525.592	42290.73
525.794	42212.9
525.995	42403.36
526.197	42755.61
526.398	42561.06
526.6	43146.78
526.801	43167.26
527.003	43496.98
527.204	43341.33
527.406	44174.86
527.607	43576.85
527.808	44236.3
528.01	43752.98
528.211	44441.09
528.412	45145.59
528.614	44936.7
528.815	44813.82
529.016	45682.16
529.218	45164.03
529.419	45190.65
529.62	45393.4
529.822	45256.18
530.023	45166.07
530.224	45714.93
530.425	45856.24
530.626	45114.87
530.828	45209.08
531.029	46423.53
531.23	45821.42
531.431	46026.22
531.632	46415.33
531.833	46370.28
532.035	46470.63
532.236	46382.57
532.437	46591.46
532.638	46820.83
532.839	47056.35
533.04	46890.46
533.241	46628.32
533.442	47375.83
533.643	47123.93
533.844	47005.15
534.045	46849.5
534.246	46702.05
534.447	47375.83
534.648	47291.87
534.849	47054.3
535.05	46583.27
535.251	47074.78
535.451	47160.8
535.652	47578.58
535.853	47355.35
536.054	47263.19
536.255	47232.47
536.456	47166.94
536.657	47836.62
536.857	47267.29
537.058	47433.17
537.259	47500.76
537.46	47744.47
537.66	47619.54
537.861	47226.33
538.062	47185.37
538.263	47490.52
538.463	47474.13
538.664	47537.62
538.865	47578.58
539.065	47840.72
539.266	46960.09
539.466	48025.04
539.667	46824.93
539.868	47764.95
540.068	47533.53
540.269	47341.02
540.469	47500.76
540.67	46726.63
540.87	47109.6
541.071	47187.42
541.271	47488.47
541.472	47334.87
541.672	47662.55
541.873	47343.06
542.073	46779.87
542.274	47300.06
542.474	47384.02
542.675	47203.8
542.875	47625.68
543.075	47273.43
543.276	46915.04
543.476	47455.7
543.676	47128.03
543.877	47125.98
544.077	47168.99
544.277	47181.27
544.478	47177.18
544.678	47168.99
544.878	47158.75
545.078	47289.82
545.279	46912.99
545.479	47019.49
545.679	47386.07
545.879	47252.95
546.079	47408.6
546.28	46923.23
546.48	46622.18
546.68	47001.05
546.88	47011.29
547.08	46999.01
547.28	47058.4
547.48	46743.01
547.68	46804.45
547.88	46808.54
548.081	46919.13
548.281	46829.02
548.481	47058.4
548.681	46968.29
548.881	47130.08
549.081	47044.06
549.28	46945.76
549.48	47416.79
549.68	46786.02
549.88	47248.86
550.08	46411.24
550.28	46736.87
550.48	46296.55
550.68	47027.68
550.88	46728.67
551.08	46552.55
551.279	47031.77
551.479	46452.2
551.679	46857.7
551.879	46587.36
552.079	47201.75
552.278	46669.28
552.478	46763.49
552.678	46294.5
552.878	46906.85
553.077	46702.05
553.277	45972.97
553.477	46792.16
553.676	46710.24
553.876	46265.83
554.076	46532.07
554.275	46052.84
554.475	45821.42
554.674	46792.16
554.874	46372.33
555.074	45860.33
555.273	46407.14
555.473	46185.96
555.672	45737.46
555.872	45987.31
556.071	45934.06
556.271	46341.61
556.47	45723.12
556.67	45684.21
556.869	45800.94
557.068	45727.22
557.268	45755.89
557.467	45800.94
557.667	45592.05
557.866	45921.77
558.065	45243.9
558.265	45157.88
558.464	44774.91
558.663	45628.91
558.863	45006.33
559.062	45735.41
559.261	45026.81
559.461	45825.52
559.66	44596.74
559.859	44686.85
560.058	44670.47
560.258	44791.3
560.457	44391.94
560.656	44707.33
560.855	44432.9
561.054	44539.4
561.253	44506.63
561.453	44121.61
561.652	44611.07
561.851	44199.43
562.05	43953.68
562.249	43953.68
562.448	44137.99
562.647	43951.63
562.846	43619.86
563.045	43744.78
563.244	43253.27
563.443	43994.64
563.642	43011.61
563.841	43251.22
564.04	42864.16
564.239	43537.94
564.438	42559.01
564.637	43019.8
564.836	42812.96
565.035	42622.5
565.234	42618.4
565.432	42485.28
565.631	42110.5
565.83	42450.47
566.029	42178.09
566.228	41702.96
566.427	41711.15
566.625	41618.99
566.824	41551.41
567.023	41817.64
567.222	41197.11
567.42	41614.9
567.619	41381.43
567.818	41256.5
568.016	40969.79
568.215	41363
568.414	41033.27
568.612	41078.33
568.811	40656.45
569.01	41002.55
569.208	40218.18
569.407	40855.1
569.605	40011.34
569.804	40584.77
570.002	39923.27
570.201	40248.9
570.4	39700.04
570.598	39618.13
570.797	39771.72
570.995	39659.09
571.193	39485.01
571.392	39638.61
571.59	38887
571.789	39298.64
571.987	39073.37
572.186	38917.72
572.384	38725.21
572.582	38856.28
572.781	38772.32
572.979	38092.39
573.177	38579.81
573.376	38299.23
573.574	38106.73
573.772	37942.89
573.971	37987.94
574.169	37803.63
574.367	37719.66
574.565	37891.69
574.763	37590.64
574.962	37617.26
575.16	36777.59
575.358	37324.4
575.556	37207.67
575.754	37281.39
575.952	36824.7
576.151	36851.32
576.349	36542.08
576.547	36451.97
576.745	36640.38
576.943	36609.66
577.141	36238.98
577.339	36404.86
577.537	35661.45
577.735	35903.11
577.933	35860.1
578.131	36220.55
578.329	35569.29
578.527	35450.51
578.725	35159.7
578.923	35548.81
579.121	35188.37
579.319	35141.27
579.516	35430.03
579.714	35049.11
579.912	34872.98
580.11	34733.72
580.308	34797.21
580.506	35022.48
580.704	34041.51
580.901	34680.47
581.099	34709.15
581.297	33816.23
581.495	34182.82
581.692	34272.93
581.89	33828.52
582.088	33871.53
582.285	33466.03
582.483	33762.98
582.681	33582.76
582.878	33500.84
583.076	33087.15
583.274	33429.16
583.471	33121.97
583.669	33222.32
583.866	32941.75
584.064	33033.91
584.262	32517.82
584.459	32980.66
584.657	32671.42
584.854	32583.35
585.052	32163.52
585.249	32356.03
585.447	32259.77
585.644	32085.7
585.841	31893.19
586.039	32235.2
586.236	31813.32
586.434	31987.39
586.631	31655.62
586.828	31545.03
587.026	31475.4
587.223	31416.01
587.42	31268.56
587.618	31391.44
587.815	31200.97
588.012	30746.33
588.21	31092.43
588.407	31014.61
588.604	30850.77
588.801	30815.96
588.999	30394.07
589.196	30281.44
589.393	30486.23
589.59	30346.97
589.787	30183.13
589.984	30273.24
590.182	29519.59
590.379	29941.47
590.576	29906.66
590.773	30054.11
590.97	29568.74
591.167	29697.77
591.364	29386.47
591.561	29757.16
591.758	29163.25
591.955	29443.82
592.152	29312.75
592.349	28808.95
592.546	28794.61
592.743	29122.29
592.94	28534.52
593.137	28737.27
593.334	28958.45
593.531	28339.96
593.727	28581.62
593.924	28337.91
594.121	28391.16
594.318	28321.53
594.515	27954.94
594.712	28264.19
594.908	28088.06
595.105	27981.57
595.302	27567.88
595.499	27694.85
595.696	27772.67
595.892	27653.89
596.089	27842.31
596.286	27660.04
596.482	27373.32
596.679	27457.29
596.876	27115.28
597.072	26834.71
597.269	26963.73
597.466	26576.66
597.662	26648.34
597.859	26846.99
598.055	26746.64
598.252	26670.87
598.448	26648.34
598.645	26179.36
598.841	26122.01
599.038	26287.9
599.234	26468.12
599.431	26017.57
599.627	25814.82
599.824	25947.93
600.02	25913.12
600.217	26056.48
600.413	25657.12
600.609	25650.98
600.806	25360.17
601.002	25356.07
601.198	25253.67
601.395	25198.38
601.591	25196.33
601.787	25425.7
601.984	25071.4
602.18	25347.88
602.376	24698.67
602.572	24940.33
602.769	24944.43
602.965	24577.84
603.161	24547.12
603.357	24657.71
603.553	24397.62
603.75	24774.45
603.946	24407.86
604.142	24327.99
604.338	24092.48
604.534	24319.8
604.73	24115
604.926	23734.08
605.122	24209.21
605.318	23899.97
605.514	23531.33
605.71	23574.34
605.906	23439.17
606.102	23547.72
606.298	23316.29
606.494	23291.72
606.69	23521.09
606.886	23480.13
607.082	22847.31
607.278	23201.61
607.474	23097.16
607.67	23091.02
607.866	22706
608.062	23109.45
608.257	23037.77
608.453	22589.27
608.649	22945.61
608.845	22615.89
609.041	22622.03
609.236	22486.87
609.432	22849.36
609.628	22601.55
609.824	22318.93
610.019	22398.8
610.215	22290.26
610.411	22411.09
610.606	22185.82
610.802	22218.58
610.998	22320.98
611.193	22103.9
611.389	21798.75
611.584	21856.09
611.78	21811.04
611.976	21923.68
612.171	22005.59
612.367	21817.18
612.562	22007.64
612.758	21280.61
612.953	21444.45
613.149	21757.79
613.344	21483.36
613.539	21679.97
613.735	21569.38
613.93	21555.04
614.126	21133.16
614.321	21628.77
614.517	21333.86
614.712	21313.38
614.907	21344.1
615.103	21278.57
615.298	21006.19
615.493	21131.11
615.688	20762.48
615.884	21251.94
616.079	20744.05
616.274	21094.25
616.47	20852.59
616.665	21061.48
616.86	20758.38
617.055	20666.22
617.25	20555.63
617.445	20916.08
617.641	20273.01
617.836	20658.03
618.031	20062.07
618.226	20442.99
618.421	20352.88
618.616	20428.66
618.811	20162.42
619.006	20422.52
619.201	20006.78
619.396	20060.02
619.591	19605.38
619.786	19756.93
619.981	19750.78
620.176	19693.44
620.371	19369.86
620.566	19769.21
620.761	19144.58
620.956	19464.07
621.151	19165.06
621.346	19363.72
621.541	18896.78
621.735	19138.44
621.93	18827.15
622.125	18808.72
622.32	18526.1
622.515	18622.35
622.709	18599.82
622.904	18675.6
623.099	18673.55
623.294	18483.09
623.488	18034.58
623.683	18380.69
623.878	17901.47
624.072	17868.7
624.267	17788.83
624.462	17731.48
624.656	17280.93
624.851	17450.91
625.046	17528.74
625.24	17371.04
625.435	17246.12
625.629	16955.3
625.824	17002.41
626.018	16981.93
626.213	16674.73
626.407	17016.74
626.602	16484.27
626.796	16584.62
626.991	16658.35
627.185	16406.45
627.38	16453.55
627.574	16474.03
627.768	16297.91
627.963	15988.66
628.157	15869.88
628.352	16142.26
628.546	15833.02
628.74	15904.7
628.935	15644.6
629.129	15460.29
629.323	15570.88
629.517	15259.59
629.712	15249.35
629.906	15169.48
630.1	15013.83
630.294	15089.6
630.489	14942.15
630.683	14976.97
630.877	14895.05
631.071	14895.05
631.265	14733.26
631.459	14647.24
631.653	14602.19
631.848	14522.32
632.042	14749.64
632.236	14405.58
632.43	14151.63
632.624	14428.11
632.818	14262.23
633.012	13946.84
633.206	13998.04
633.4	14079.96
633.594	13965.27
633.788	13998.04
633.982	13903.83
634.176	13647.83
634.369	13699.03
634.563	13461.47
634.757	13410.27
634.951	13389.79
635.145	13352.93
635.339	13195.23
635.533	12943.33
635.726	13166.56
635.92	12933.09
636.114	12820.46
636.308	12799.98
636.501	12773.35
636.695	13078.5
636.889	12558.32
637.083	12691.43
637.276	12453.87
637.47	12531.69
637.664	12523.5
637.857	12339.18
638.051	12298.22
638.244	12171.25
638.438	12015.6
638.632	12179.44
638.825	11929.59
639.019	11839.48
639.212	11737.08
639.406	11634.68
639.599	11735.03
639.793	11511.8
639.986	11470.84
640.18	11466.75
640.373	11642.87
640.567	11362.3
640.76	11268.09
640.954	11384.83
641.147	11100.16
641.34	11202.56
641.534	10958.85
641.727	11071.49
641.92	10987.52
642.114	11048.96
642.307	10809.35
642.5	10829.83
642.694	10455.05
642.887	10532.87
643.08	10729.48
643.273	10588.17
643.467	10444.81
643.66	10391.56
643.853	10248.21
644.046	10303.5
644.239	10366.99
644.432	10309.65
644.626	10145.81
644.819	10100.75
645.012	10078.22
645.205	10076.18
645.398	10051.6
645.591	9822.23
645.784	9947.15
645.977	9519.13
646.17	9654.3
646.363	9590.81
646.556	9406.49
646.749	9672.73
646.942	9523.23
647.135	9343
647.328	9381.92
647.521	9291.8
647.714	9156.64
647.907	9322.52
648.099	9132.06
648.292	9164.83
648.485	9271.33
648.678	8933.41
648.871	8896.55
649.064	9074.72
649.256	8990.75
649.449	8855.59
649.642	8790.05
649.835	8685.61
650.027	8667.17
650.22	8630.31
650.413	8595.5
650.605	8603.69
650.798	8589.35
650.991	8359.98
651.183	8429.61
651.376	8222.77
651.568	8376.36
651.761	8419.37
651.954	8405.03
652.146	8337.45
652.339	8214.57
652.531	8200.24
652.724	8112.17
652.916	7977.01
653.109	8218.67
653.301	7852.08
653.494	8116.27
653.686	7665.72
653.879	7925.81
654.071	7766.07
654.263	7796.79
654.456	7764.02
654.648	7837.75
654.84	7561.27
655.033	7485.5
655.225	7540.79
655.417	7532.6
655.61	7673.91
655.802	7499.83
655.994	7399.48
656.186	7514.17
656.379	7292.99
656.571	7325.75
656.763	7356.47
656.955	7153.73
657.148	7229.5
657.34	7305.28
657.532	7241.79
657.724	7260.22
657.916	7104.57
658.108	7143.49
658.3	7008.32
658.492	7018.56
658.684	6862.91
658.876	6987.84
659.068	6977.6
659.26	6877.25
659.452	6834.24
659.644	6969.41
659.836	6697.03
660.028	6688.84
660.22	6641.73
660.412	6635.59
660.604	6545.48
660.796	6678.6
660.988	6496.33
661.18	6357.07
661.372	6340.68
661.563	6424.65
661.755	6299.72
661.947	6318.15
662.139	6260.81
662.331	6371.4
662.522	6191.18
662.714	6334.54
662.906	6207.56
663.097	6060.11
663.289	6010.96
663.481	6133.84
663.673	6078.54
663.864	5918.8
664.056	5996.62
664.247	5892.18
664.439	5879.89
664.631	6088.78
664.822	5840.98
665.014	5857.36
665.205	5974.1
665.397	5978.19
665.588	5830.74
665.78	5740.63
665.971	5630.04
666.163	5777.49
666.354	5671
666.546	5767.25
666.737	5548.12
666.929	5718.1
667.12	5724.24
667.311	5466.2
667.503	5513.3
667.694	5627.99
667.885	5351.51
668.077	5419.1
668.268	5503.06
668.459	5380.18
668.651	5486.68
668.842	5382.23
669.033	5433.43
669.224	5363.8
669.416	5470.3
669.607	5283.93
669.798	5245.02
669.989	5343.32
670.18	5382.23
670.371	5322.84
670.563	5242.97
670.754	5150.81
670.945	5134.43
671.136	5353.56
671.327	5171.29
671.518	5189.72
671.709	5111.9
671.9	5185.63
672.091	5116
672.282	5081.18
672.473	4978.78
672.664	5140.57
672.855	5154.91
673.046	4917.34
673.237	5142.62
673.428	5017.69
673.619	4900.96
673.809	4978.78
674	4905.06
674.191	5087.33
674.382	4886.62
674.573	4868.19
674.764	4722.79
674.954	5054.56
675.145	4831.33
675.336	4839.52
675.527	4829.28
675.717	4872.29
675.908	4800.61
676.099	4808.8
676.289	4679.78
676.48	4821.09
676.671	4745.31
676.861	4829.28
677.052	4710.5
677.243	4763.75
677.433	4806.75
677.624	4903.01
677.814	4663.4
678.005	4771.94
678.195	4745.31
678.386	4741.22
678.576	4706.4
678.767	4911.2
678.957	4647.01
679.148	4636.77
679.338	4673.64
679.529	4685.92
679.719	4751.46
679.909	4737.12
680.1	4765.79
680.29	4814.95
680.481	4687.97
680.671	4575.33
680.861	4640.87
681.052	4702.31
681.242	4704.35
681.432	4864.1
681.622	4761.7
681.813	4595.81
682.003	4782.18
682.193	4446.31
682.383	4573.28
682.573	4526.18
682.764	4632.68
682.954	4671.59
683.144	4466.79
683.334	4667.49
683.524	4419.69
683.714	4472.93
683.904	4638.82
684.094	4647.01
684.284	4612.2
684.474	4657.25
684.664	4466.79
684.854	4546.66
685.044	4429.93
685.234	4362.34
685.424	4454.5
685.614	4495.46
685.804	4458.6
685.994	4384.87
686.184	4552.81
686.374	4530.28
686.564	4436.07
686.753	4380.78
686.943	4354.15
687.133	4434.02
687.323	4315.24
687.513	4436.07
687.702	4540.52
687.892	4307.05
688.082	4198.51
688.272	4348.01
688.461	4268.14
688.651	4366.44
688.841	4243.56
689.03	4333.67
689.22	4395.11
689.41	4282.47
689.599	4253.8
689.789	4147.31
689.979	4147.31
690.168	4202.6
690.358	4044.91
690.547	3989.61
690.737	4145.26
690.926	4051.05
691.116	3958.89
691.305	4036.72
691.495	4040.81
691.684	4010.09
691.874	3872.88
692.063	3932.27
692.252	4006
692.442	3985.52
692.631	3872.88
692.82	3911.79
693.01	3856.5
693.199	3905.65
693.388	3934.32
693.578	3901.55
693.767	4003.95
693.956	3874.93
694.146	3881.07
694.335	3698.8
694.524	3833.97
694.713	3840.11
694.902	3762.29
695.092	3760.24
695.281	3762.29
695.47	3790.96
695.659	3827.82
695.848	3694.71
696.037	3860.59
696.226	3848.3
696.415	3780.72
696.604	3700.85
696.793	3758.19
696.982	3747.95
697.171	3727.47
697.36	3684.47
697.549	3717.23
697.738	3643.51
697.927	3706.99
698.116	3768.43
698.305	3620.98
698.494	3651.7
698.683	3727.47
698.872	3635.32
699.061	3629.17
699.25	3678.32
699.438	3551.35
699.627	3704.95
699.816	3713.14
700.005	3577.97
700.193	3643.51
700.382	3571.83
700.571	3586.16
700.76	3647.6
700.948	3643.51
701.137	3647.6
701.326	3696.75
701.514	3584.12
701.703	3692.66
701.892	3625.08
702.08	3688.56
702.269	3610.74
702.457	3534.96
702.646	3430.52
702.834	3637.36
703.023	3537.01
703.212	3635.32
703.4	3577.97
703.589	3598.45
703.777	3582.07
703.965	3489.91
704.154	3643.51
704.342	3688.56
704.531	3668.08
704.719	3502.2
704.907	3727.47
705.096	3676.27
705.284	3618.93
705.472	3602.55
705.661	3602.55
705.849	3598.45
706.037	3565.68
706.226	3674.23
706.414	3655.79
706.602	3631.22
706.79	3594.36
706.979	3569.78
707.167	3790.96
707.355	3610.74
707.543	3586.16
707.731	3590.26
707.919	3733.62
708.107	3737.71
708.296	3623.03
708.484	3678.32
708.672	3551.35
708.86	3571.83
709.048	3655.79
709.236	3678.32
709.424	3608.69
709.612	3643.51
709.8	3547.25
709.988	3455.09
710.176	3750
710.364	3717.23
710.551	3586.16
710.739	3649.65
710.927	3518.58
711.115	3715.19
711.303	3629.17
711.491	3580.02
711.679	3539.06
711.866	3606.64
712.054	3635.32
712.242	3655.79
712.43	3797.1
712.617	3735.67
712.805	3649.65
712.993	3588.21
713.181	3762.29
713.368	3702.9
713.556	3608.69
713.744	3731.57
713.931	3706.99
714.119	3594.36
714.306	3627.12
714.494	3657.84
714.682	3688.56
714.869	3559.54
715.057	3600.5
715.244	3657.84
715.432	3670.13
715.619	3618.93
715.807	3645.56
715.994	3676.27
716.182	3547.25
716.369	3524.72
716.556	3647.6
716.744	3778.67
716.931	3686.51
717.119	3745.91
717.306	3688.56
717.493	3602.55
717.681	3645.56
717.868	3795.06
718.055	3604.6
718.242	3614.84
718.43	3655.79
718.617	3694.71
718.804	3602.55
718.991	3731.57
719.179	3676.27
719.366	3663.99
719.553	3715.19
719.74	3498.1
719.927	3666.03
720.114	3678.32
720.301	3518.58
720.488	3633.27
720.676	3721.33
720.863	3674.23
721.05	3725.43
721.237	3641.46
721.424	3606.64
721.611	3768.43
721.798	3643.51
721.985	3610.74
722.172	3575.92
722.358	3588.21
722.545	3602.55
722.732	3438.71
722.919	3782.77
723.106	3625.08
723.293	3539.06
723.48	3565.68
723.667	3543.16
723.853	3506.29
724.04	3618.93
724.227	3539.06
724.414	3543.16
724.6	3541.11
724.787	3752.05
724.974	3735.67
725.161	3551.35
725.347	3487.86
725.534	3602.55
725.72	3461.24
725.907	3461.24
726.094	3559.54
726.28	3711.09
726.467	3539.06
726.653	3592.31
726.84	3639.41
727.027	3588.21
727.213	3463.29
727.4	3553.4
727.586	3631.22
727.773	3434.61
727.959	3577.97
728.145	3618.93
728.332	3506.29
728.518	3534.96
728.705	3557.49
728.891	3498.1
729.077	3483.77
729.264	3516.53
729.45	3549.3
729.636	3506.29
729.823	3481.72
730.009	3446.9
730.195	3510.39
730.382	3561.59
730.568	3543.16
730.754	3510.39
730.94	3373.18
731.126	3635.32
731.313	3453.05
731.499	3442.81
731.685	3524.72
731.871	3285.11
732.057	3455.09
732.243	3479.67
732.429	3473.53
732.615	3487.86
732.801	3395.7
732.987	3465.33
733.173	3491.96
733.359	3498.1
733.545	3469.43
733.731	3522.68
733.917	3477.62
734.103	3414.13
734.289	3483.77
734.475	3508.34
734.661	3414.13
734.847	3399.8
735.033	3412.09
735.219	3360.89
735.404	3481.72
735.59	3352.7
735.776	3326.07
735.962	3444.85
736.148	3444.85
736.333	3342.46
736.519	3379.32
736.705	3414.13
736.89	3326.07
737.076	3455.09
737.262	3399.8
737.447	3201.15
737.633	3340.41
737.819	3225.72
738.004	3231.87
738.19	3268.73
738.375	3205.24
738.561	3235.96
738.747	3164.28
738.932	3192.95
739.118	3209.34
739.303	3235.96
739.489	3328.12
739.674	3209.34
739.859	3233.91
740.045	3256.44
740.23	3133.56
740.416	3074.17
740.601	3037.31
740.786	3147.9
740.972	3100.8
741.157	3186.81
741.342	2916.48
741.528	3164.28
741.713	3111.04
741.898	3061.88
742.084	3068.03
742.269	3164.28
742.454	2928.77
742.639	3108.99
742.824	3047.55
743.01	3176.57
743.195	3074.17
743.38	3041.4
743.565	2846.85
743.75	2898.05
743.935	2982.01
744.12	2988.16
744.305	2939.01
744.49	2809.98
744.675	2904.19
744.86	2902.14
745.045	2910.33
745.23	2973.82
745.415	2902.14
745.6	2824.32
745.785	2881.66
745.97	2961.53
746.155	2803.84
746.34	2824.32
746.525	2775.17
746.71	2824.32
746.895	2697.35
747.079	2648.19
747.264	2664.58
747.449	2709.63
747.634	2754.69
747.819	2627.71
748.003	2566.28
748.188	2652.29
748.373	2613.38
748.557	2605.19
748.742	2474.12
748.927	2480.26
749.111	2476.16
749.296	2486.4
749.481	2406.53
749.665	2498.69
749.85	2398.34
750.034	2459.78
750.219	2463.88
750.404	2392.2
750.588	2359.43
750.773	2330.76
750.957	2406.53
751.141	2363.53
751.326	2291.85
751.51	2277.51
751.695	2373.77
751.879	2234.5
752.064	2353.29
752.248	2230.41
752.432	2193.55
752.617	2238.6
752.801	2160.78
752.985	2242.7
753.17	2179.21
753.354	2171.02
753.538	2156.68
753.722	1996.94
753.907	2033.8
754.091	1976.46
754.275	2158.73
754.459	2062.48
754.643	1964.17
754.828	1902.73
755.012	2123.91
755.196	2033.8
755.38	1886.35
755.564	1955.98
755.748	1980.56
755.932	1839.25
756.116	1837.2
756.3	1919.12
756.484	1880.21
756.668	1773.71
756.852	1847.44
757.036	1812.62
757.22	1806.48
757.404	1749.14
757.588	1722.51
757.772	1851.53
757.956	1742.99
758.14	1624.21
758.323	1685.65
758.507	1833.1
758.691	1831.05
758.875	1757.33
759.059	1781.9
759.242	1564.82
759.426	1613.97
759.61	1679.51
759.794	1562.77
759.977	1636.5
760.161	1771.66
760.345	1593.49
760.528	1601.68
760.712	1550.48
760.895	1597.59
761.079	1659.03
761.263	1521.81
761.446	1546.39
761.63	1556.63
761.813	1542.29
761.997	1527.96
762.18	1530
762.364	1458.32
762.547	1478.8
762.731	1400.98
762.914	1478.8
763.098	1466.52
763.281	1421.46
763.464	1536.15
763.648	1400.98
763.831	1415.32
764.015	1353.88
764.198	1468.56
764.381	1480.85
764.564	1558.67
764.748	1499.28
764.931	1400.98
765.114	1487
765.297	1470.61
765.481	1347.73
765.664	1509.52
765.847	1278.1
766.03	1280.15
766.213	1271.96
766.397	1405.08
766.58	1292.44
766.763	1349.78
766.946	1249.43
767.129	1478.8
767.312	1398.93
767.495	1308.82
767.678	1282.2
767.861	1271.96
768.044	1253.53
768.227	1228.95
768.41	1292.44
768.593	1360.02
768.776	1304.73
768.959	1235.1
769.142	1208.47
769.324	1181.85
769.507	1226.9
769.69	1255.58
769.873	1142.94
770.056	1243.29
770.239	1284.25
770.421	1214.62
770.604	1163.42
770.787	1274.01
770.97	1161.37
771.152	1149.08
771.335	1241.24
771.518	1114.27
771.7	1087.64
771.883	1218.71
772.066	1155.23
772.248	1056.92
772.431	1151.13
772.613	1142.94
772.796	1091.74
772.978	1190.04
773.161	1132.7
773.343	1181.85
773.526	1181.85
773.708	897.18
773.891	989.34
774.073	1132.7
774.256	1007.77
774.438	1101.98
774.621	1001.63
774.803	964.76
774.985	1009.82
775.168	981.15
775.35	1013.92
775.532	938.14
775.715	886.94
775.897	977.05
776.079	1026.2
776.261	1020.06
776.444	979.1
776.626	975
776.808	874.65
776.99	866.46
777.173	948.38
777.355	940.19
777.537	878.75
777.719	805.02
777.901	915.61
778.083	778.4
778.265	839.84
778.447	925.85
778.629	829.6
778.811	899.23
778.993	862.37
779.175	747.68
779.357	915.61
779.539	856.22
779.721	813.21
779.903	802.97
780.085	811.17
780.267	837.79
780.449	839.84
780.631	821.41
780.812	811.17
780.994	794.78
781.176	751.78
781.358	702.62
781.54	762.02
781.721	768.16
781.903	753.82
782.085	721.06
782.267	790.69
782.448	661.66
782.63	608.42
782.812	663.71
782.993	639.14
783.175	759.97
783.357	690.34
783.538	680.1
783.72	673.95
783.901	657.57
784.083	669.86
784.264	661.66
784.446	510.11
784.627	641.18
784.809	616.61
784.99	544.93
785.172	723.1
785.353	577.7
785.535	608.42
785.716	639.14
785.897	571.55
786.079	630.95
786.26	569.51
786.441	622.75
786.623	565.41
786.804	602.27
786.985	620.71
787.167	524.45
787.348	589.99
787.529	532.64
787.71	682.14
787.891	575.65
788.073	501.92
788.254	639.14
788.435	481.44
788.616	510.11
788.797	499.88
788.978	540.83
789.159	514.21
789.34	448.68
789.522	538.79
789.703	506.02
789.884	469.16
790.065	493.73
790.246	532.64
790.427	518.31
790.607	460.96
790.788	512.16
790.969	350.37
791.15	493.73
791.331	526.5
791.512	458.92
791.693	485.54
791.874	503.97
792.054	487.59
792.235	434.34
792.416	407.72
792.597	413.86
792.778	536.74
792.958	420
793.139	446.63
793.32	458.92
793.5	413.86
793.681	473.25
793.862	362.66
794.042	368.81
794.223	413.86
794.404	399.52
794.584	381.09
794.765	387.24
794.945	426.15
795.126	452.77
795.306	495.78
795.487	403.62
795.667	430.24
795.848	512.16
796.028	370.85
796.209	415.91
796.389	413.86
796.57	415.91
796.75	362.66
796.93	417.96
797.111	364.71
797.291	420
797.471	356.52
797.652	362.66
797.832	315.56
798.012	387.24
798.192	329.89
798.373	276.65
798.553	321.7
798.733	368.81
798.913	372.9
799.093	377
799.274	331.94
799.454	366.76
799.634	422.05
799.814	247.97
799.994	372.9
800.174	358.57
800.354	313.51
800.534	278.69
800.714	348.33
800.894	258.21
801.074	311.46
801.254	385.19
801.434	288.93
801.614	399.52
801.794	260.26
801.974	751.78
802.154	307.37
802.334	301.22
802.514	272.55
802.693	284.84
802.873	348.33
803.053	354.47
803.233	311.46
803.413	299.17
803.592	256.17
803.772	350.37
803.952	290.98
804.131	311.46
804.311	342.18
804.491	229.54
804.67	290.98
804.85	252.07
805.03	305.32
805.209	333.99
805.389	272.55
805.568	223.4
805.748	227.5
805.928	260.26
806.107	266.41
806.287	311.46
806.466	247.97
806.646	278.69
806.825	284.84
807.004	348.33
807.184	286.89
807.363	299.17
807.543	254.12
807.722	270.5
807.901	217.26
808.081	233.64
808.26	217.26
808.439	268.45
808.619	258.21
808.798	264.36
808.977	280.74
809.156	293.03
809.336	264.36
809.515	274.6
809.694	211.11
809.873	247.97
810.052	174.25
810.231	239.78
810.411	209.06
810.59	209.06
810.769	223.4
810.948	250.02
811.127	198.82
811.306	252.07
811.485	186.54
811.664	239.78
811.843	202.92
812.022	207.02
812.201	184.49
812.38	198.82
812.559	247.97
812.737	209.06
812.916	317.61
813.095	225.45
813.274	225.45
813.453	235.69
813.632	213.16
813.811	252.07
813.989	178.34
814.168	178.34
814.347	215.21
814.526	254.12
814.704	217.26
814.883	217.26
815.062	127.14
815.24	213.16
815.419	186.54
815.598	200.87
815.776	170.15
815.955	184.49
816.133	104.62
816.312	178.34
816.49	149.67
816.669	198.82
816.847	256.17
817.026	161.96
817.204	172.2
817.383	227.5
817.561	137.38
817.74	211.11
817.918	166.06
818.097	153.77
818.275	139.43
818.453	180.39
818.632	202.92
818.81	241.83
818.988	176.3
819.167	190.63
819.345	153.77
819.523	235.69
819.701	176.3
819.879	198.82
820.058	121
820.236	121
820.414	176.3
820.592	200.87
820.77	143.53
820.948	192.68
821.127	139.43
821.305	94.38
821.483	102.57
821.661	200.87
821.839	202.92
822.017	168.1
822.195	170.15
822.373	196.78
822.551	186.54
822.729	157.86
822.907	145.58
823.085	174.25
823.262	233.64
823.44	90.28
823.618	106.67
823.796	178.34
823.974	118.95
824.152	131.24
824.329	143.53
824.507	118.95
824.685	161.96
824.863	121
825.04	106.67
825.218	102.57
825.396	135.34
825.574	127.14
825.751	143.53
825.929	178.34
826.107	118.95
826.284	123.05
826.462	155.82
826.639	96.43
826.817	118.95
826.994	98.47
827.172	145.58
827.349	133.29
827.527	88.23
827.704	100.52
827.882	129.19
828.059	125.1
828.237	149.67
828.414	184.49
828.591	121
828.769	108.71
828.946	149.67
829.124	133.29
829.301	112.81
829.478	141.48
829.655	75.95
829.833	137.38
830.01	110.76
830.187	71.85
830.364	114.86
830.542	170.15
830.719	145.58
830.896	161.96
831.073	145.58
831.25	88.23
831.427	118.95
831.604	129.19
831.782	118.95
831.959	151.72
832.136	69.8
832.313	118.95
832.49	45.23
832.667	112.81
832.844	75.95
833.021	88.23
833.198	151.72
833.374	139.43
833.551	96.43
833.728	100.52
833.905	149.67
834.082	145.58
834.259	108.71
834.436	133.29
834.612	61.61
834.789	149.67
834.966	139.43
835.143	143.53
835.319	61.61
835.496	217.26
835.673	121
835.85	112.81
836.026	53.42
836.203	147.62
836.38	88.23
836.556	121
836.733	94.38
836.909	135.34
837.086	69.8
837.262	32.94
837.439	108.71
837.616	114.86
837.792	63.66
837.968	112.81
838.145	39.08
838.321	121
838.498	118.95
838.674	219.3
838.851	12.46
839.027	166.06
839.203	141.48
839.38	125.1
839.556	84.14
839.732	59.56
839.909	90.28
840.085	75.95
840.261	73.9
840.437	39.08
840.614	4.27
840.79	30.89
840.966	59.56
841.142	39.08
841.318	88.23
841.494	47.27
841.671	112.81
841.847	49.32
842.023	69.8
842.199	157.86
842.375	57.51
842.551	6.31
842.727	112.81
842.903	157.86
843.079	28.84
843.255	96.43
843.431	12.46
843.607	69.8
843.783	39.08
843.959	82.09
844.134	53.42
844.31	98.47
844.486	90.28
844.662	73.9
844.838	80.04
845.013	102.57
845.189	47.27
845.365	57.51
845.541	71.85
845.716	16.55
845.892	71.85
846.068	59.56
846.244	59.56
846.419	80.04
846.595	-32.6
846.77	69.8
846.946	137.38
847.122	12.46
847.297	77.99
847.473	133.29
847.648	77.99
847.824	65.71
847.999	28.84
848.175	61.61
848.35	59.56
848.526	59.56
848.701	51.37
848.876	96.43
849.052	45.23
849.227	43.18
849.403	14.51
849.578	84.14
849.753	-18.26
849.929	30.89
850.104	-28.5
850.279	26.79
850.454	96.43
850.63	67.75
850.805	30.89
850.98	2.22
851.155	47.27
851.33	-3.93
851.505	71.85
851.681	69.8
851.856	32.94
852.031	39.08
852.206	82.09
852.381	59.56
852.556	92.33
852.731	55.47
852.906	63.66
853.081	24.75
853.256	102.57
853.431	59.56
853.606	-18.26
853.781	8.36
853.956	45.23
854.131	26.79
854.305	45.23
854.48	-1.88
854.655	30.89
854.83	-5.97
855.005	6.31
855.18	116.9
855.354	77.99
855.529	39.08
855.704	61.61
855.879	10.41
856.053	69.8
856.228	8.36
856.403	2.22
856.577	80.04
856.752	67.75
856.926	53.42
857.101	71.85
857.276	45.23
857.45	26.79
857.625	55.47
857.799	88.23
857.974	49.32
858.148	12.46
858.323	34.99
858.497	75.95
858.672	32.94
858.846	26.79
859.02	51.37
859.195	49.32
859.369	116.9
859.543	-10.07
859.718	20.65
859.892	41.13
860.066	8.36
860.241	22.7
860.415	51.37
860.589	18.6
860.763	0.17
860.938	-8.02
861.112	26.79
861.286	10.41
861.46	-5.97
861.634	-44.88
861.808	34.99
861.982	16.55
862.157	20.65
862.331	47.27
862.505	-42.84
862.679	57.51
862.853	26.79
863.027	-1.88
863.201	129.19
863.375	41.13
863.549	34.99
863.722	137.38
863.896	37.03
864.07	69.8
864.244	2.22
864.418	-18.26
864.592	20.65
864.766	71.85
864.939	10.41
865.113	-28.5
865.287	41.13
865.461	-20.31
865.634	-30.55
865.808	2.22
865.982	4.27
866.156	10.41
866.329	-26.45
866.503	-57.17
866.676	14.51
866.85	22.7
867.024	4.27
867.197	63.66
867.371	26.79
867.544	34.99
867.718	2.22
867.891	26.79
868.065	75.95
868.238	26.79
868.412	47.27
868.585	26.79
868.759	47.27
868.932	26.79
869.105	-12.12
869.279	41.13
869.452	-36.69
869.625	55.47
869.799	59.56
869.972	-10.07
870.145	-34.64
870.319	71.85
870.492	37.03
870.665	-24.4
870.838	55.47
871.011	-63.32
871.185	80.04
871.358	-8.02
871.531	2.22
871.704	10.41
871.877	34.99
872.05	39.08
872.223	12.46
872.396	61.61
872.569	71.85
872.742	-22.36
872.915	53.42
873.088	14.51
873.261	-42.84
873.434	-5.97
873.607	2.22
873.78	86.19
873.953	6.31
874.126	6.31
874.299	67.75
874.471	-26.45
874.644	34.99
874.817	-3.93
874.99	88.23
875.163	-81.75
875.335	20.65
875.508	96.43
875.681	-28.5
875.853	-3.93
876.026	-5.97
876.199	49.32
876.371	18.6
876.544	41.13
876.717	4.27
876.889	28.84
877.062	39.08
877.234	-12.12
877.407	69.8
877.579	20.65
877.752	-61.27
877.924	-3.93
878.097	69.8
878.269	-10.07
878.442	63.66
878.614	55.47
878.786	-53.08
878.959	34.99
879.131	53.42
879.303	-14.17
879.476	8.36
879.648	2.22
879.82	49.32
879.993	-48.98
880.165	4.27
880.337	45.23
880.509	2.22
880.681	-5.97
880.854	20.65
881.026	-48.98
881.198	94.38
881.37	14.51
881.542	2.22
881.714	-65.36
881.886	0.17
882.058	20.65
882.23	-32.6
882.402	22.7
882.574	12.46
882.746	14.51
882.918	131.24
883.09	10.41
883.262	16.55
883.434	39.08
883.606	-51.03
883.778	34.99
883.95	71.85
884.122	30.89
884.293	12.46
884.465	-20.31
884.637	67.75
884.809	18.6
884.98	88.23
885.152	-5.97
885.324	49.32
885.496	-1.88
885.667	-75.6
885.839	-59.22
886.011	26.79
886.182	30.89
886.354	14.51
886.525	-16.21
886.697	55.47
886.869	80.04
887.04	43.18
887.212	61.61
887.383	73.9
887.555	-5.97
887.726	12.46
887.897	-22.36
888.069	-16.21
888.24	59.56
888.412	22.7
888.583	-38.74
888.754	12.46
888.926	-3.93
889.097	51.37
889.268	-14.17
889.44	43.18
889.611	-79.7
889.782	-12.12
889.953	-5.97
890.125	-16.21
890.296	-12.12
890.467	-26.45
890.638	-32.6
890.809	16.55
890.98	-14.17
891.151	-3.93
891.323	10.41
891.494	57.51
891.665	-34.64
891.836	59.56
892.007	-61.27
892.178	-38.74
892.349	18.6
892.52	37.03
892.691	30.89
892.862	10.41
893.032	47.27
893.203	18.6
893.374	-18.26
893.545	41.13
893.716	37.03
893.887	12.46
894.057	6.31
894.228	26.79
894.399	-48.98
894.57	26.79
894.74	-1.88
894.911	-5.97
895.082	26.79
895.253	61.61
895.423	2.22
895.594	-5.97
895.764	-24.4
895.935	-42.84
896.106	-30.55
896.276	-18.26
896.447	22.7
896.617	39.08
896.788	-28.5
896.958	2.22
897.129	-38.74
897.299	24.75
897.47	67.75
897.64	30.89
897.81	-34.64
897.981	26.79
898.151	43.18
898.322	6.31
898.492	-28.5
898.662	-89.94
898.832	-79.7
899.003	53.42
899.173	43.18
899.343	-57.17
899.513	-22.36
