Data from USB4F104151__220__10-30-09-602.txt Node

Date: Wed Mar 12 10:30:09 EDT 2025
User: louis
Spectrometer: USB4F10415
Trigger mode: 4
Integration Time (sec): 3.000000E-2
Scans to average: 1
Electric dark correction enabled: true
Nonlinearity correction enabled: false
Boxcar width: 0
XAxis mode: Wavelengths
Number of Pixels in Spectrum: 3648
>>>>>Begin Spectral Data<<<<<
178.204	-113.49
178.424	-113.49
178.644	-113.49
178.864	-117.59
179.084	-150.36
179.304	54.44
179.524	11.43
179.744	-52.05
179.964	-19.29
180.184	-64.34
180.404	17.58
180.624	-19.29
180.844	76.97
181.064	-50
181.283	19.63
181.503	-7
181.723	31.91
181.943	21.67
182.163	56.49
182.383	-25.43
182.602	79.02
182.822	-7
183.042	60.59
183.262	-21.33
183.482	62.63
183.701	-45.91
183.921	36.01
184.141	31.91
184.361	66.73
184.58	85.16
184.8	62.63
185.02	17.58
185.239	42.15
185.459	-15.19
185.679	44.2
185.898	-35.67
186.118	9.39
186.338	-78.68
186.557	44.2
186.777	38.06
186.997	154.79
187.216	1.19
187.436	38.06
187.655	95.4
187.875	76.97
188.095	-21.33
188.314	38.06
188.534	31.91
188.753	54.44
188.973	3.24
189.192	76.97
189.412	9.39
189.631	97.45
189.851	1.19
190.07	42.15
190.29	36.01
190.509	-43.86
190.729	11.43
190.948	25.77
191.168	72.87
191.387	42.15
191.607	9.39
191.826	-11.09
192.045	97.45
192.265	23.72
192.484	44.2
192.704	-2.9
192.923	-33.62
193.142	58.54
193.362	33.96
193.581	-15.19
193.8	42.15
194.02	-13.14
194.239	-0.85
194.458	56.49
194.678	-45.91
194.897	83.11
195.116	48.3
195.335	9.39
195.555	52.39
195.774	72.87
195.993	-13.14
196.212	19.63
196.432	9.39
196.651	29.87
196.87	40.11
197.089	79.02
197.308	124.07
197.528	103.59
197.747	5.29
197.966	29.87
198.185	130.22
198.404	76.97
198.623	46.25
198.842	7.34
199.062	25.77
199.281	68.78
199.5	5.29
199.719	25.77
199.938	62.63
200.157	9.39
200.376	11.43
200.595	46.25
200.814	44.2
201.033	13.48
201.252	99.5
201.471	-2.9
201.69	111.78
201.909	13.48
202.128	-35.67
202.347	58.54
202.566	3.24
202.785	-17.24
203.004	-21.33
203.223	42.15
203.442	19.63
203.661	99.5
203.879	93.35
204.098	40.11
204.317	-62.29
204.536	36.01
204.755	50.35
204.974	27.82
205.193	-7
205.411	115.88
205.63	29.87
205.849	11.43
206.068	-13.14
206.287	-21.33
206.505	95.4
206.724	52.39
206.943	1.19
207.162	44.2
207.381	27.82
207.599	1.19
207.818	66.73
208.037	9.39
208.255	3.24
208.474	50.35
208.693	-9.05
208.911	68.78
209.13	54.44
209.349	13.48
209.567	66.73
209.786	-41.81
210.005	-29.52
210.223	38.06
210.442	13.48
210.661	-19.29
210.879	70.83
211.098	79.02
211.316	-11.09
211.535	83.11
211.753	54.44
211.972	-7
212.191	-19.29
212.409	79.02
212.628	81.07
212.846	-47.96
213.065	-4.95
213.283	17.58
213.502	23.72
213.72	50.35
213.938	-2.9
214.157	54.44
214.375	21.67
214.594	-45.91
214.812	25.77
215.031	-11.09
215.249	-11.09
215.467	25.77
215.686	79.02
215.904	60.59
216.122	21.67
216.341	62.63
216.559	23.72
216.778	83.11
216.996	76.97
217.214	-9.05
217.432	-7
217.651	-50
217.869	-27.48
218.087	58.54
218.306	79.02
218.524	29.87
218.742	23.72
218.96	17.58
219.179	44.2
219.397	60.59
219.615	93.35
219.833	38.06
220.051	58.54
220.27	105.64
220.488	-27.48
220.706	-50
220.924	3.24
221.142	58.54
221.36	19.63
221.578	36.01
221.796	-27.48
222.015	19.63
222.233	89.26
222.451	134.31
222.669	17.58
222.887	79.02
223.105	-27.48
223.323	79.02
223.541	21.67
223.759	93.35
223.977	29.87
224.195	70.83
224.413	29.87
224.631	25.77
224.849	21.67
225.067	42.15
225.285	-64.34
225.503	52.39
225.721	-29.52
225.939	27.82
226.157	-11.09
226.375	66.73
226.592	89.26
226.81	-4.95
227.028	19.63
227.246	89.26
227.464	38.06
227.682	70.83
227.9	3.24
228.117	25.77
228.335	-29.52
228.553	-9.05
228.771	-4.95
228.989	21.67
229.206	48.3
229.424	31.91
229.642	31.91
229.86	-19.29
230.077	60.59
230.295	17.58
230.513	-35.67
230.731	113.83
230.948	72.87
231.166	136.36
231.384	13.48
231.601	-37.72
231.819	81.07
232.037	-47.96
232.254	-41.81
232.472	25.77
232.689	46.25
232.907	76.97
233.125	68.78
233.342	19.63
233.56	29.87
233.777	91.31
233.995	27.82
234.213	148.65
234.43	46.25
234.648	25.77
234.865	-17.24
235.083	-4.95
235.3	-2.9
235.518	60.59
235.735	29.87
235.953	48.3
236.17	-29.52
236.388	-2.9
236.605	17.58
236.822	52.39
237.04	5.29
237.257	7.34
237.475	-52.05
237.692	7.34
237.909	-29.52
238.127	-11.09
238.344	93.35
238.562	5.29
238.779	19.63
238.996	-29.52
239.214	74.92
239.431	38.06
239.648	40.11
239.865	83.11
240.083	21.67
240.3	-0.85
240.517	95.4
240.735	87.21
240.952	5.29
241.169	3.24
241.386	46.25
241.603	-29.52
241.821	-23.38
242.038	27.82
242.255	11.43
242.472	13.48
242.689	60.59
242.907	17.58
243.124	25.77
243.341	31.91
243.558	58.54
243.775	44.2
243.992	68.78
244.209	36.01
244.426	83.11
244.643	21.67
244.86	50.35
245.078	44.2
245.295	-17.24
245.512	29.87
245.729	70.83
245.946	87.21
246.163	44.2
246.38	15.53
246.597	17.58
246.814	13.48
247.031	5.29
247.248	66.73
247.464	87.21
247.681	-11.09
247.898	1.19
248.115	62.63
248.332	-21.33
248.549	66.73
248.766	13.48
248.983	72.87
249.2	25.77
249.417	48.3
249.633	13.48
249.85	52.39
250.067	11.43
250.284	17.58
250.501	38.06
250.717	103.59
250.934	-70.48
251.151	-2.9
251.368	17.58
251.585	13.48
251.801	64.68
252.018	40.11
252.235	54.44
252.451	13.48
252.668	5.29
252.885	-27.48
253.102	-2.9
253.318	-21.33
253.535	-9.05
253.752	38.06
253.968	-11.09
254.185	11.43
254.401	62.63
254.618	60.59
254.835	-9.05
255.051	113.83
255.268	70.83
255.484	56.49
255.701	-13.14
255.917	54.44
256.134	-11.09
256.351	-2.9
256.567	-13.14
256.784	-52.05
257	25.77
257.217	56.49
257.433	-23.38
257.65	83.11
257.866	-56.15
258.082	42.15
258.299	-2.9
258.515	46.25
258.732	46.25
258.948	60.59
259.165	-9.05
259.381	15.53
259.597	70.83
259.814	-15.19
260.03	31.91
260.246	19.63
260.463	60.59
260.679	40.11
260.895	3.24
261.112	1.19
261.328	-29.52
261.544	27.82
261.761	122.02
261.977	70.83
262.193	-52.05
262.409	54.44
262.626	38.06
262.842	54.44
263.058	60.59
263.274	27.82
263.49	36.01
263.707	-21.33
263.923	60.59
264.139	-27.48
264.355	83.11
264.571	-13.14
264.787	38.06
265.004	7.34
265.22	38.06
265.436	1.19
265.652	-43.86
265.868	83.11
266.084	70.83
266.3	9.39
266.516	-25.43
266.732	19.63
266.948	72.87
267.164	27.82
267.38	9.39
267.596	-11.09
267.812	38.06
268.028	38.06
268.244	-27.48
268.46	11.43
268.676	33.96
268.892	113.83
269.108	31.91
269.324	54.44
269.54	-4.95
269.756	9.39
269.972	33.96
270.188	83.11
270.403	36.01
270.619	-0.85
270.835	-35.67
271.051	-0.85
271.267	-7
271.483	17.58
271.698	40.11
271.914	76.97
272.13	-23.38
272.346	83.11
272.562	19.63
272.777	105.64
272.993	-0.85
273.209	42.15
273.425	9.39
273.64	-37.72
273.856	46.25
274.072	40.11
274.287	50.35
274.503	52.39
274.719	23.72
274.934	42.15
275.15	29.87
275.366	17.58
275.581	62.63
275.797	-2.9
276.012	42.15
276.228	54.44
276.444	119.98
276.659	60.59
276.875	21.67
277.09	27.82
277.306	60.59
277.521	44.2
277.737	-0.85
277.952	42.15
278.168	-66.39
278.383	9.39
278.599	-31.57
278.814	17.58
279.03	87.21
279.245	62.63
279.461	33.96
279.676	79.02
279.892	-33.62
280.107	-54.1
280.322	9.39
280.538	25.77
280.753	-2.9
280.969	119.98
281.184	148.65
281.399	25.77
281.615	-9.05
281.83	31.91
282.045	46.25
282.26	38.06
282.476	17.58
282.691	76.97
282.906	-35.67
283.122	5.29
283.337	3.24
283.552	44.2
283.767	13.48
283.983	15.53
284.198	-7
284.413	70.83
284.628	-0.85
284.843	23.72
285.058	-11.09
285.274	64.68
285.489	-19.29
285.704	105.64
285.919	36.01
286.134	21.67
286.349	50.35
286.564	56.49
286.779	3.24
286.995	1.19
287.21	74.92
287.425	40.11
287.64	-43.86
287.855	66.73
288.07	-15.19
288.285	-11.09
288.5	21.67
288.715	9.39
288.93	27.82
289.145	15.53
289.36	17.58
289.575	64.68
289.79	25.77
290.004	23.72
290.219	66.73
290.434	9.39
290.649	-21.33
290.864	31.91
291.079	-43.86
291.294	97.45
291.509	-0.85
291.724	25.77
291.938	42.15
292.153	38.06
292.368	15.53
292.583	83.11
292.798	56.49
293.012	46.25
293.227	-17.24
293.442	29.87
293.657	38.06
293.871	54.44
294.086	-27.48
294.301	101.55
294.516	76.97
294.73	44.2
294.945	36.01
295.16	9.39
295.374	74.92
295.589	42.15
295.804	9.39
296.018	29.87
296.233	72.87
296.447	31.91
296.662	46.25
296.877	5.29
297.091	11.43
297.306	17.58
297.52	-25.43
297.735	103.59
297.949	60.59
298.164	7.34
298.378	27.82
298.593	1.19
298.807	-19.29
299.022	-39.76
299.236	97.45
299.451	-11.09
299.665	3.24
299.88	36.01
300.094	50.35
300.309	54.44
300.523	62.63
300.737	48.3
300.952	25.77
301.166	-7
301.381	-17.24
301.595	3.24
301.809	29.87
302.024	33.96
302.238	21.67
302.452	52.39
302.667	68.78
302.881	54.44
303.095	64.68
303.309	85.16
303.524	54.44
303.738	-4.95
303.952	-15.19
304.166	23.72
304.381	-2.9
304.595	44.2
304.809	-45.91
305.023	128.17
305.237	3.24
305.452	21.67
305.666	17.58
305.88	29.87
306.094	-0.85
306.308	95.4
306.522	31.91
306.736	-43.86
306.95	109.74
307.164	46.25
307.379	21.67
307.593	74.92
307.807	36.01
308.021	38.06
308.235	107.69
308.449	50.35
308.663	31.91
308.877	160.94
309.091	58.54
309.305	60.59
309.519	-27.48
309.733	85.16
309.947	17.58
310.161	99.5
310.374	66.73
310.588	87.21
310.802	21.67
311.016	109.74
311.23	99.5
311.444	25.77
311.658	-37.72
311.872	95.4
312.085	36.01
312.299	1.19
312.513	105.64
312.727	-7
312.941	5.29
313.154	74.92
313.368	62.63
313.582	52.39
313.796	38.06
314.009	-50
314.223	5.29
314.437	54.44
314.651	3.24
314.864	-27.48
315.078	-0.85
315.292	76.97
315.505	-21.33
315.719	31.91
315.933	66.73
316.146	-7
316.36	-4.95
316.573	38.06
316.787	38.06
317.001	29.87
317.214	-23.38
317.428	-23.38
317.641	23.72
317.855	58.54
318.068	66.73
318.282	46.25
318.495	68.78
318.709	62.63
318.922	83.11
319.136	99.5
319.349	111.78
319.563	44.2
319.776	25.77
319.99	-15.19
320.203	36.01
320.417	33.96
320.63	87.21
320.843	48.3
321.057	-4.95
321.27	54.44
321.483	46.25
321.697	-7
321.91	44.2
322.124	-37.72
322.337	74.92
322.55	58.54
322.763	46.25
322.977	-15.19
323.19	70.83
323.403	27.82
323.617	38.06
323.83	64.68
324.043	15.53
324.256	42.15
324.469	1.19
324.683	29.87
324.896	17.58
325.109	17.58
325.322	60.59
325.535	38.06
325.748	126.12
325.962	9.39
326.175	-2.9
326.388	58.54
326.601	36.01
326.814	142.5
327.027	27.82
327.24	79.02
327.453	-45.91
327.666	87.21
327.879	-4.95
328.092	70.83
328.305	48.3
328.518	60.59
328.731	-17.24
328.944	25.77
329.157	-4.95
329.37	46.25
329.583	95.4
329.796	81.07
330.009	-35.67
330.222	87.21
330.435	33.96
330.648	70.83
330.861	-37.72
331.073	21.67
331.286	19.63
331.499	-9.05
331.712	85.16
331.925	11.43
332.138	1.19
332.35	109.74
332.563	3.24
332.776	83.11
332.989	36.01
333.202	76.97
333.414	13.48
333.627	44.2
333.84	91.31
334.053	124.07
334.265	29.87
334.478	60.59
334.691	5.29
334.903	48.3
335.116	-11.09
335.329	38.06
335.541	72.87
335.754	152.74
335.966	-15.19
336.179	38.06
336.392	64.68
336.604	29.87
336.817	46.25
337.029	119.98
337.242	128.17
337.454	31.91
337.667	23.72
337.88	60.59
338.092	95.4
338.305	29.87
338.517	103.59
338.729	68.78
338.942	46.25
339.154	64.68
339.367	-4.95
339.579	-2.9
339.792	42.15
340.004	56.49
340.217	36.01
340.429	52.39
340.641	5.29
340.854	13.48
341.066	-43.86
341.278	42.15
341.491	60.59
341.703	46.25
341.915	72.87
342.128	33.96
342.34	-0.85
342.552	62.63
342.764	23.72
342.977	27.82
343.189	95.4
343.401	87.21
343.613	42.15
343.826	52.39
344.038	31.91
344.25	101.55
344.462	48.3
344.674	23.72
344.886	17.58
345.099	66.73
345.311	107.69
345.523	33.96
345.735	-41.81
345.947	56.49
346.159	33.96
346.371	68.78
346.583	72.87
346.795	95.4
347.007	79.02
347.219	54.44
347.431	50.35
347.643	13.48
347.855	17.58
348.067	72.87
348.279	-29.52
348.491	76.97
348.703	87.21
348.915	23.72
349.127	-21.33
349.339	36.01
349.551	-0.85
349.763	119.98
349.975	87.21
350.187	58.54
350.399	33.96
350.61	25.77
350.822	3.24
351.034	68.78
351.246	23.72
351.458	5.29
351.669	58.54
351.881	83.11
352.093	44.2
352.305	117.93
352.517	64.68
352.728	119.98
352.94	103.59
353.152	76.97
353.363	27.82
353.575	23.72
353.787	70.83
353.999	107.69
354.21	27.82
354.422	17.58
354.633	52.39
354.845	42.15
355.057	25.77
355.268	62.63
355.48	36.01
355.692	21.67
355.903	79.02
356.115	25.77
356.326	-43.86
356.538	54.44
356.749	66.73
356.961	97.45
357.172	-2.9
357.384	11.43
357.595	52.39
357.807	-2.9
358.018	101.55
358.23	79.02
358.441	56.49
358.653	105.64
358.864	-37.72
359.075	95.4
359.287	-2.9
359.498	62.63
359.709	56.49
359.921	52.39
360.132	46.25
360.344	25.77
360.555	42.15
360.766	50.35
360.977	46.25
361.189	115.88
361.4	29.87
361.611	115.88
361.823	19.63
362.034	111.78
362.245	-27.48
362.456	-4.95
362.667	-17.24
362.879	68.78
363.09	-4.95
363.301	31.91
363.512	-2.9
363.723	-19.29
363.935	-7
364.146	52.39
364.357	-35.67
364.568	72.87
364.779	29.87
364.99	17.58
365.201	5.29
365.412	74.92
365.623	-13.14
365.834	52.39
366.045	70.83
366.256	109.74
366.467	56.49
366.678	83.11
366.889	144.55
367.1	33.96
367.311	79.02
367.522	1.19
367.733	105.64
367.944	83.11
368.155	-4.95
368.366	99.5
368.577	109.74
368.788	58.54
368.999	-7
369.209	-80.72
369.42	81.07
369.631	66.73
369.842	46.25
370.053	29.87
370.264	52.39
370.474	68.78
370.685	64.68
370.896	44.2
371.107	117.93
371.317	74.92
371.528	64.68
371.739	105.64
371.95	95.4
372.16	29.87
372.371	46.25
372.582	29.87
372.792	72.87
373.003	79.02
373.214	-15.19
373.424	85.16
373.635	15.53
373.846	36.01
374.056	-11.09
374.267	50.35
374.477	93.35
374.688	48.3
374.898	19.63
375.109	64.68
375.319	50.35
375.53	-47.96
375.74	21.67
375.951	33.96
376.161	-7
376.372	83.11
376.582	-7
376.793	11.43
377.003	27.82
377.214	105.64
377.424	111.78
377.635	148.65
377.845	87.21
378.055	99.5
378.266	5.29
378.476	-11.09
378.686	74.92
378.897	21.67
379.107	91.31
379.317	119.98
379.528	68.78
379.738	119.98
379.948	-35.67
380.158	66.73
380.369	58.54
380.579	56.49
380.789	83.11
380.999	83.11
381.21	-21.33
381.42	140.46
381.63	-9.05
381.84	56.49
382.05	87.21
382.261	40.11
382.471	107.69
382.681	-15.19
382.891	119.98
383.101	66.73
383.311	-19.29
383.521	-15.19
383.731	66.73
383.941	128.17
384.151	29.87
384.361	-2.9
384.571	79.02
384.781	3.24
384.991	76.97
385.201	33.96
385.411	13.48
385.621	-21.33
385.831	91.31
386.041	70.83
386.251	42.15
386.461	93.35
386.671	79.02
386.881	52.39
387.091	72.87
387.301	103.59
387.511	79.02
387.72	58.54
387.93	101.55
388.14	64.68
388.35	68.78
388.56	81.07
388.769	42.15
388.979	38.06
389.189	52.39
389.399	48.3
389.609	-9.05
389.818	144.55
390.028	74.92
390.238	58.54
390.447	95.4
390.657	25.77
390.867	97.45
391.076	-13.14
391.286	89.26
391.496	15.53
391.705	56.49
391.915	130.22
392.125	103.59
392.334	85.16
392.544	29.87
392.753	1.19
392.963	50.35
393.172	128.17
393.382	91.31
393.591	109.74
393.801	-11.09
394.01	111.78
394.22	148.65
394.429	91.31
394.639	72.87
394.848	76.97
395.058	103.59
395.267	42.15
395.477	111.78
395.686	17.58
395.895	66.73
396.105	203.94
396.314	66.73
396.524	89.26
396.733	95.4
396.942	107.69
397.152	85.16
397.361	107.69
397.57	62.63
397.78	101.55
397.989	111.78
398.198	148.65
398.407	95.4
398.617	205.99
398.826	64.68
399.035	87.21
399.244	177.32
399.453	128.17
399.663	117.93
399.872	132.26
400.081	101.55
400.29	210.09
400.499	152.74
400.708	152.74
400.917	109.74
401.127	119.98
401.336	169.13
401.545	218.28
401.754	224.42
401.963	183.46
402.172	103.59
402.381	160.94
402.59	107.69
402.799	140.46
403.008	150.7
403.217	181.42
403.426	122.02
403.635	109.74
403.844	167.08
404.053	144.55
404.262	103.59
404.471	228.52
404.68	226.47
404.888	158.89
405.097	93.35
405.306	251.05
405.515	218.28
405.724	183.46
405.933	111.78
406.142	193.7
406.35	177.32
406.559	199.85
406.768	167.08
406.977	218.28
407.185	279.72
407.394	191.66
407.603	238.76
407.812	240.81
408.02	212.14
408.229	275.62
408.438	257.19
408.646	249
408.855	242.85
409.064	294.05
409.272	300.2
409.481	228.52
409.69	287.91
409.898	271.53
410.107	347.3
410.315	400.55
410.524	300.2
410.733	445.6
410.941	339.11
411.15	437.41
411.358	382.12
411.567	425.12
411.775	359.59
411.984	459.94
412.192	464.04
412.401	386.21
412.609	504.99
412.818	498.85
413.026	545.95
413.234	431.27
413.443	509.09
413.651	570.53
413.86	625.83
414.068	648.35
414.276	625.83
414.485	636.06
414.693	638.11
414.901	742.56
415.11	818.33
415.318	826.53
415.526	824.48
415.734	879.77
415.943	857.25
416.151	851.1
416.359	849.05
416.567	930.97
416.776	900.25
416.984	1066.14
417.192	1023.13
417.4	1012.89
417.608	1012.89
417.817	1041.56
418.025	1082.52
418.233	1266.84
418.441	1225.88
418.649	1232.02
418.857	1344.66
419.065	1375.38
419.273	1389.72
419.481	1389.72
419.689	1471.64
419.897	1701.01
420.105	1545.36
420.313	1647.76
420.521	1614.99
420.729	1791.12
420.937	1825.93
421.145	1940.62
421.353	1948.81
421.561	2026.64
421.769	2032.78
421.977	2174.09
422.185	2110.6
422.393	2274.44
422.601	2477.19
422.809	2407.56
423.017	2303.11
423.224	2544.77
423.432	2669.7
423.64	2577.54
423.848	2849.92
424.056	2794.62
424.263	3058.81
424.471	3026.04
424.679	3071.1
424.887	3320.95
425.094	3275.9
425.302	3341.43
425.51	3417.21
425.718	3597.43
425.925	3685.49
426.133	3728.5
426.341	3902.58
426.548	4013.17
426.756	4183.15
426.964	4211.82
427.171	4441.19
427.379	4496.49
427.586	4754.53
427.794	4883.55
428.001	5031.01
428.209	5467.22
428.417	5065.82
428.624	5448.79
428.832	5440.6
429.039	5426.26
429.247	5510.23
429.454	6009.93
429.662	6478.92
429.869	6048.85
430.076	6397
430.284	6032.46
430.491	6413.38
430.699	6782.02
430.906	6908.99
431.114	6863.94
431.321	7224.38
431.528	7263.29
431.736	7615.54
431.943	8102.96
432.15	7771.19
432.358	8041.52
432.565	8283.18
432.772	8365.1
432.979	8983.59
433.187	9040.93
433.394	9110.56
433.601	9526.3
433.808	9815.06
434.016	9552.92
434.223	9872.4
434.43	10703.88
434.637	10382.35
434.844	11076.61
435.052	11230.21
435.259	11195.39
435.466	11068.42
435.673	11162.62
435.88	11740.15
436.087	12504.04
436.294	12594.15
436.501	12311.53
436.708	12645.35
436.915	12796.9
437.122	13216.74
437.329	13462.49
437.537	13786.07
437.743	14162.9
437.95	14091.22
438.157	14769.1
438.364	15199.17
438.571	15135.68
438.778	15111.11
438.985	16516.01
439.192	16036.79
439.399	16487.34
439.606	16198.58
439.813	17068.97
440.02	18066.33
440.227	17847.19
440.433	17478.56
440.64	17949.59
440.847	17951.64
441.054	18394
441.261	19999.61
441.467	19688.32
441.674	19596.16
441.881	20280.18
442.088	20308.85
442.294	20208.5
442.501	20953.96
442.708	20902.76
442.914	22203.22
443.121	22856.53
443.328	22246.23
443.534	23681.86
443.741	23503.68
443.948	22770.51
444.154	24593.2
444.361	24525.62
444.568	24673.07
444.774	24501.04
444.981	24785.71
445.187	25355.05
445.394	26129.18
445.6	25934.62
445.807	28601.08
446.013	27439.88
446.22	28062.46
446.426	29094.64
446.633	29440.75
446.839	30728.92
447.046	28932.85
447.252	30454.49
447.459	30833.36
447.665	30483.16
447.871	31738.57
448.078	33047.22
448.284	31562.44
448.491	32641.72
448.697	33522.35
448.903	34122.4
449.11	33956.52
449.316	33378.99
449.522	34183.84
449.728	35068.56
449.935	35269.26
450.141	35553.93
450.347	36407.94
450.553	35087
450.76	35404.43
450.966	36563.58
451.172	36051.59
451.378	36776.57
451.584	36508.29
451.791	37067.38
451.997	37124.72
452.203	37735.02
452.409	37438.06
452.615	37180.02
452.821	35951.24
453.027	35510.92
453.233	37231.22
453.44	35551.88
453.646	36160.13
453.852	36612.73
454.058	36950.65
454.264	35496.59
454.47	36504.19
454.676	35191.44
454.882	36522.62
455.088	33442.48
455.294	34036.39
455.5	34568.86
455.705	35209.87
455.911	33993.38
456.117	32709.3
456.323	32449.21
456.529	30376.67
456.735	31879.88
456.941	31118.03
457.147	30644.95
457.352	29657.83
457.558	29367.02
457.764	29367.02
457.97	28861.17
458.176	28414.71
458.381	28506.87
458.587	26825.49
458.793	26788.63
458.999	25422.63
459.204	27071.25
459.41	26637.08
459.616	24877.87
459.821	24922.93
460.027	24460.09
460.233	24226.62
460.438	22799.18
460.644	23327.56
460.85	21949.28
461.055	21807.97
461.261	21953.37
461.466	20222.84
461.672	19635.07
461.878	20865.9
462.083	19622.78
462.289	19125.13
462.494	19071.88
462.7	18207.64
462.905	17791.9
463.111	18305.94
463.316	18285.46
463.522	18066.33
463.727	18013.08
463.932	18203.54
464.138	17724.32
464.343	17816.47
464.549	17400.74
464.754	17855.39
464.959	17615.77
465.165	17464.22
465.37	16898.98
465.575	16493.49
465.781	17187.75
465.986	17013.67
466.191	16491.44
466.397	16425.9
466.602	15475.65
466.807	16192.44
467.012	16126.9
467.218	16180.15
467.423	15739.83
467.628	15889.34
467.833	16708.52
468.038	15754.17
468.244	15358.91
468.449	16102.32
468.654	15686.59
468.859	15399.87
469.064	15426.5
469.269	14648.27
469.474	14466
469.679	15104.96
469.885	14820.3
470.09	15156.16
470.295	14865.35
470.5	14455.76
470.705	14615.5
470.91	14298.06
471.115	13992.92
471.32	14406.61
471.525	14230.48
471.73	14017.49
471.935	13988.82
472.139	13427.68
472.344	13472.73
472.549	13499.36
472.754	13202.4
472.959	12882.92
473.164	12733.42
473.369	12669.93
473.574	12987.36
473.778	12909.54
473.983	12743.66
474.188	12846.05
474.393	12024.82
474.598	12159.99
474.802	11975.67
475.007	12020.72
475.212	12043.25
475.417	11478.01
475.621	11439.1
475.826	11713.53
476.031	11435
476.235	11334.65
476.44	11408.38
476.645	11154.43
476.849	11168.77
477.054	10951.68
477.259	10755.08
477.463	10855.43
477.668	10771.46
477.872	10671.11
478.077	10349.58
478.282	10288.14
478.486	10451.98
478.691	10177.55
478.895	10163.22
479.1	10056.72
479.304	10296.33
479.509	9796.63
479.713	9909.27
479.918	9884.69
480.122	9700.37
480.326	9653.27
480.531	9622.55
480.735	9597.98
480.94	9454.62
481.144	9907.22
481.348	9360.41
481.553	9614.36
481.757	9364.51
481.961	9557.02
482.166	9389.08
482.37	9425.95
482.574	9319.45
482.778	9272.35
482.983	9567.26
483.187	9264.16
483.391	9630.74
483.595	9479.19
483.8	9223.2
484.004	9493.53
484.208	9557.02
484.412	9182.24
484.616	9481.24
484.821	9380.89
485.025	9272.35
485.229	9391.13
485.433	9319.45
485.637	9212.96
485.841	9184.29
486.045	9315.36
486.249	9225.25
486.453	9391.13
486.657	9341.98
486.861	9362.46
487.065	9163.81
487.269	9221.15
487.473	9255.97
487.677	9438.23
487.881	9479.19
488.085	9268.25
488.289	9382.94
488.493	9440.28
488.697	9393.18
488.901	9352.22
489.105	9430.04
489.309	9384.99
489.512	9309.21
489.716	9438.23
489.92	9499.67
490.124	9458.71
490.328	9640.98
490.531	9538.59
490.735	9567.26
490.939	9733.14
491.143	9532.44
491.346	9636.89
491.55	9827.35
491.754	9759.77
491.958	9686.04
492.161	9675.8
492.365	9763.86
492.569	9628.7
492.772	9845.78
492.976	10124.3
493.18	10148.88
493.383	10114.06
493.587	10284.05
493.79	10390.54
493.994	10179.6
494.197	10263.57
494.401	10595.34
494.605	10406.92
494.808	10691.59
495.012	10642.44
495.215	10648.58
495.419	10822.66
495.622	10617.86
495.825	10988.55
496.029	10775.56
496.232	11133.95
496.436	10980.36
496.639	11310.08
496.843	11371.52
497.046	11705.34
497.249	11764.73
497.453	11719.67
497.656	11834.36
497.859	12121.07
498.063	11899.89
498.266	12346.35
498.469	12116.98
498.673	12526.57
498.876	12338.16
499.079	12518.38
499.282	12704.74
499.485	13079.52
499.689	13048.8
499.892	13499.36
500.095	13251.55
500.298	13630.43
500.501	13460.45
500.705	13775.83
500.908	13806.55
501.111	14470.09
501.314	14119.89
501.517	14320.59
501.72	14691.27
501.923	14398.41
502.126	14828.49
502.329	15064
502.532	15145.92
502.735	15236.03
502.938	15541.18
503.141	15672.25
503.344	15692.73
503.547	16047.03
503.75	16329.65
503.953	16401.33
504.156	16513.97
504.359	16776.11
504.562	16659.37
504.765	17241
504.968	17206.18
505.17	17613.73
505.373	17640.35
505.576	17681.31
505.779	17826.71
505.982	18260.88
506.185	18645.9
506.387	18461.58
506.59	18822.03
506.793	19049.35
506.996	19080.07
507.198	19682.17
507.401	19592.06
507.604	19741.57
507.807	20081.53
508.009	20198.26
508.212	20544.37
508.415	20650.86
508.617	21101.42
508.82	21185.38
509.022	20951.91
509.225	21629.79
509.428	21703.52
509.63	22121.31
509.833	22041.43
510.035	22739.79
510.238	22463.32
510.44	22666.06
510.643	23075.66
510.845	23264.07
511.048	23466.82
511.25	23487.3
511.453	23812.93
511.655	24910.64
511.858	24193.85
512.06	24453.94
512.262	25097
512.465	24965.93
512.667	25342.76
512.87	25676.58
513.072	25324.33
513.274	26227.48
513.477	26358.55
513.679	26710.8
513.881	26950.42
514.084	27104.01
514.286	27147.02
514.488	27339.53
514.69	28076.8
514.893	28414.71
515.095	28439.29
515.297	28959.47
515.499	28588.79
515.701	29338.35
515.904	29680.36
516.106	29784.8
516.308	29731.56
516.51	30470.87
516.712	30413.53
516.914	30411.48
517.116	31283.92
517.318	31230.67
517.52	31713.99
517.722	31746.76
517.925	32037.57
518.127	32514.75
518.329	32531.13
518.531	32752.31
518.733	33127.09
518.935	33602.22
519.136	33692.33
519.338	34284.19
519.54	34501.28
519.742	34871.96
519.944	34874.01
520.146	35173.01
520.348	35330.7
520.55	35703.43
520.752	35822.22
520.954	36532.86
521.155	36301.44
521.357	36864.63
521.559	36936.31
521.761	37782.12
521.963	37698.16
522.164	38011.49
522.366	37970.54
522.568	38834.78
522.77	38529.63
522.971	39328.34
523.173	38957.66
523.375	39271
523.576	39795.28
523.778	39746.12
523.98	40538.69
524.181	40356.42
524.383	40532.54
524.584	40819.26
524.786	41089.59
524.988	41108.02
525.189	41613.87
525.391	42211.88
525.592	41867.82
525.794	41914.92
525.995	42002.99
526.197	42486.31
526.398	42732.06
526.6	42781.21
526.801	43399.7
527.003	43375.12
527.204	42998.3
527.406	43903.5
527.607	43553.3
527.808	43973.13
528.01	43170.33
528.211	43754
528.412	44483.08
528.614	44435.97
528.815	44659.2
529.016	45056.51
529.218	44773.89
529.419	44874.24
529.62	44995.07
529.822	45306.36
530.023	45136.38
530.224	45513.2
530.425	45158.91
530.626	45339.13
530.828	44780.03
531.029	46158.31
531.23	45324.79
531.431	45728.24
531.632	45748.72
531.833	46287.34
532.035	46283.24
532.236	45828.59
532.437	46475.75
532.638	45896.17
532.839	46645.73
533.04	46496.23
533.241	46041.58
533.442	46422.5
533.643	46520.8
533.844	46531.04
534.045	46563.81
534.246	46498.28
534.447	46719.46
534.648	46807.52
534.849	46778.85
535.05	46608.87
535.251	46911.97
535.451	46725.6
535.652	47354.33
535.853	46721.51
536.054	47010.27
536.255	46768.61
536.456	46682.59
536.657	47184.35
536.857	46813.66
537.058	46787.04
537.259	47389.14
537.46	46887.39
537.66	47061.47
537.861	47016.41
538.062	46803.42
538.263	47573.46
538.463	47077.85
538.664	47147.48
538.865	47000.03
539.065	47098.33
539.266	46778.85
539.466	47270.36
539.667	46414.31
539.868	47491.54
540.068	46662.11
540.269	47073.76
540.469	46868.96
540.67	46868.96
540.87	47204.83
541.071	47004.13
541.271	46664.16
541.472	46602.72
541.672	46809.57
541.873	47020.51
542.073	45787.63
542.274	47299.03
542.474	47020.51
542.675	46545.38
542.875	47327.7
543.075	46692.83
543.276	46318.06
543.476	47460.82
543.676	46322.15
543.877	46864.86
544.077	46784.99
544.277	46647.78
544.478	46715.36
544.678	47116.76
544.878	46455.27
545.078	46930.4
545.279	46569.96
545.479	46442.98
545.679	46563.81
545.879	46569.96
546.079	46873.06
546.28	46404.07
546.48	46291.43
546.68	46645.73
546.88	46744.03
547.08	46782.94
547.28	46594.53
547.48	46391.78
547.68	46395.88
547.88	46203.37
548.081	46678.5
548.281	46473.7
548.481	46537.19
548.681	46774.75
548.881	46447.08
549.081	46445.03
549.28	46103.02
549.48	47020.51
549.68	46473.7
549.88	47294.94
550.08	46617.06
550.28	46402.02
550.48	46203.37
550.68	46598.63
550.88	46373.35
551.08	46279.14
551.279	46615.01
551.479	46127.59
551.679	46565.86
551.879	46195.18
552.079	46703.07
552.278	46201.32
552.478	45988.33
552.678	46385.64
552.878	46041.58
553.077	45824.5
553.277	45449.72
553.477	46479.85
553.676	45920.75
553.876	45965.81
554.076	45859.31
554.275	46135.79
554.475	45545.97
554.674	45752.82
554.874	45863.41
555.074	45517.3
555.273	46006.76
555.473	45650.42
555.672	45414.9
555.872	45887.98
556.071	45433.33
556.271	45718
556.47	45072.89
556.67	44624.39
556.869	45081.08
557.068	45554.16
557.268	44884.48
557.467	45208.06
557.667	45124.09
557.866	45068.79
558.065	45165.05
558.265	44941.82
558.464	44263.94
558.663	45038.08
558.863	44513.8
559.062	45300.22
559.261	44780.03
559.461	44937.72
559.66	44222.98
559.859	44468.74
560.058	44317.19
560.258	44708.35
560.457	43903.5
560.656	44239.37
560.855	44055.05
561.054	43942.41
561.253	43811.34
561.453	43715.09
561.652	44046.86
561.851	44263.94
562.05	43803.15
562.249	43432.47
562.448	43960.84
562.647	43330.07
562.846	43305.49
563.045	42936.86
563.244	42965.53
563.443	43444.76
563.642	43133.46
563.841	43100.7
564.04	42768.93
564.239	43088.41
564.438	42445.35
564.637	42789.41
564.836	42844.7
565.035	42191.4
565.234	42351.14
565.432	41968.17
565.631	41876.01
565.83	42166.82
566.029	41687.6
566.228	41759.28
566.427	41087.54
566.625	41568.82
566.824	41253.43
567.023	41501.23
567.222	40972.86
567.42	41278
567.619	40974.91
567.818	41126.46
568.016	40776.25
568.215	41159.22
568.414	40796.73
568.612	41036.34
568.811	40319.56
569.01	40487.49
569.208	39666.25
569.407	40364.61
569.605	39889.48
569.804	40303.17
570.002	39983.69
570.201	40026.7
570.4	39840.33
570.598	39320.15
570.797	39271
570.995	39881.29
571.193	38789.72
571.392	39305.81
571.59	38732.38
571.789	38742.62
571.987	38992.47
572.186	39002.71
572.384	38378.08
572.582	38582.88
572.781	39031.38
572.979	38169.19
573.177	38062.69
573.376	37933.67
573.574	37546.61
573.772	37952.1
573.971	37870.18
574.169	37630.57
574.367	37266.03
574.565	37603.95
574.763	37436.02
574.962	37374.58
575.16	36840.06
575.358	37290.61
575.556	36659.84
575.754	37247.6
575.952	36809.34
576.151	36682.36
576.349	36412.03
576.547	36414.08
576.745	36305.54
576.943	36387.46
577.141	36258.43
577.339	36194.95
577.537	36110.98
577.735	35932.81
577.933	36006.53
578.131	35975.81
578.329	35527.31
578.527	35474.06
578.725	35205.78
578.923	35498.64
579.121	35318.42
579.319	34996.88
579.516	35308.18
579.714	35160.72
579.912	34767.51
580.11	34896.53
580.308	34611.87
580.506	35109.52
580.704	34079.39
580.901	34257.57
581.099	34828.95
581.297	34257.57
581.495	33974.95
581.692	34339.49
581.89	34038.44
582.088	34220.7
582.285	33723.05
582.483	33944.23
582.681	33671.85
582.878	33688.23
583.076	33051.31
583.274	33645.23
583.471	33004.21
583.669	33090.23
583.866	32826.04
584.064	33262.26
584.262	32709.3
584.459	33012.4
584.657	32721.59
584.854	32539.32
585.052	32504.51
585.249	32547.51
585.447	32312
585.644	31828.68
585.841	32312
586.039	32299.71
586.236	31744.71
586.434	31800.01
586.631	31914.69
586.828	31578.82
587.026	31539.91
587.223	31371.98
587.42	31554.25
587.618	31541.96
587.815	31187.66
588.012	30927.57
588.21	30788.31
588.407	31238.86
588.604	30859.99
588.801	30778.07
588.999	30563.03
589.196	30374.62
589.393	30517.98
589.59	30081.76
589.787	30489.31
589.984	30278.36
590.182	30026.46
590.379	30429.91
590.576	30085.86
590.773	30141.15
590.97	29729.51
591.167	29989.6
591.364	29358.83
591.561	29706.98
591.758	29389.55
591.955	29334.25
592.152	29352.68
592.349	29260.52
592.546	29426.41
592.743	29061.87
592.94	28826.35
593.137	28969.71
593.334	28693.24
593.531	28545.78
593.727	28695.28
593.924	28463.86
594.121	28443.38
594.318	28689.14
594.515	27644.68
594.712	28377.85
594.908	27929.34
595.105	28117.76
595.302	27613.96
595.499	28035.84
595.696	27677.44
595.892	27278.09
596.089	27624.2
596.286	27665.16
596.482	27347.72
596.679	27462.41
596.876	27659.01
597.072	26671.89
597.269	26991.37
597.466	27296.52
597.662	26716.95
597.859	27081.49
598.055	26512.15
598.252	26637.08
598.448	26757.91
598.645	26575.64
598.841	26456.85
599.038	26139.42
599.234	26524.44
599.431	26018.59
599.627	26207
599.824	26303.26
600.02	26139.42
600.217	26125.08
600.413	25719.59
600.609	25735.97
600.806	25649.96
601.002	26020.64
601.198	25654.05
601.395	25353
601.591	25031.47
601.787	25211.69
601.984	24937.26
602.18	25195.31
602.376	24918.83
602.572	24980.27
602.769	24568.63
602.965	24511.28
603.161	25002.8
603.357	24699.7
603.553	24277.82
603.75	24578.87
603.946	24505.14
604.142	24320.82
604.338	24019.77
604.534	24511.28
604.73	24052.54
604.926	23993.15
605.122	24263.48
605.318	23821.12
605.514	23755.58
605.71	23749.44
605.906	23530.31
606.102	23696.19
606.298	23542.6
606.494	23520.07
606.69	23847.74
606.886	23792.45
607.082	23024.46
607.278	23069.51
607.474	23024.46
607.67	23374.66
607.866	22985.55
608.062	23176.01
608.257	23020.36
608.453	22649.68
608.649	23186.25
608.845	22639.44
609.041	22481.75
609.236	22790.99
609.432	22891.34
609.628	22633.3
609.824	22629.2
610.019	22643.54
610.215	22225.75
610.411	22354.77
610.606	22551.38
610.802	22190.94
610.998	22242.14
611.193	22164.31
611.389	22039.39
611.584	22078.3
611.78	22217.56
611.976	21783.39
612.171	22008.67
612.367	21748.57
612.562	21646.18
612.758	21519.2
612.953	21437.28
613.149	22078.3
613.344	21609.31
613.539	22047.58
613.735	21494.63
613.93	21531.49
614.126	21480.29
614.321	21668.7
614.517	21418.85
614.712	21500.77
614.907	21388.13
615.103	21390.18
615.298	21300.07
615.493	21318.5
615.688	20896.62
615.884	21715.81
616.079	20716.4
616.274	21003.11
616.47	21109.61
616.665	21158.76
616.86	20761.45
617.055	20882.28
617.25	20718.45
617.445	20595.57
617.641	20372.34
617.836	20648.82
618.031	20409.2
618.226	20685.68
618.421	20378.48
618.616	20628.34
618.811	20102.01
619.006	20468.59
619.201	20120.44
619.396	20175.73
619.591	19733.37
619.786	19764.09
619.981	19491.71
620.176	19716.99
620.371	19590.02
620.566	19442.56
620.761	19172.23
620.956	19526.53
621.151	19172.23
621.346	19219.33
621.541	18875.27
621.735	19221.38
621.93	18807.69
622.125	19196.81
622.32	18819.98
622.515	18832.27
622.709	18654.09
622.904	18408.34
623.099	18328.47
623.294	18269.08
623.488	18262.93
623.683	18144.15
623.878	17845.15
624.072	18209.68
624.267	17787.8
624.462	17822.62
624.656	17621.92
624.851	17689.5
625.046	17413.02
625.24	17554.33
625.435	17316.77
625.629	17535.9
625.824	17116.07
626.018	16862.12
626.213	16843.69
626.407	17075.11
626.602	16835.5
626.796	16755.63
626.991	16708.52
627.185	16704.43
627.38	16559.02
627.574	16389.04
627.768	16192.44
627.963	16106.42
628.157	16098.23
628.352	16143.28
628.546	15623.1
628.74	16071.61
628.935	15750.07
629.129	15766.46
629.323	15213.51
629.517	15406.02
629.712	15326.14
629.906	15473.6
630.1	15137.73
630.294	15274.95
630.489	15088.58
630.683	15274.95
630.877	14595.02
631.071	14857.16
631.265	15016.9
631.459	14795.72
631.653	14529.48
631.848	14461.9
632.042	14457.81
632.236	14697.42
632.43	14433.23
632.624	14402.51
632.818	14244.82
633.012	13962.2
633.206	14040.02
633.4	14296.02
633.594	13900.76
633.788	14023.64
633.982	13841.37
634.176	14005.2
634.369	13667.29
634.563	13480.92
634.757	13337.57
634.951	13513.69
635.145	13278.18
635.339	13482.97
635.533	13124.58
635.726	13466.59
635.92	12901.35
636.114	12956.64
636.308	12860.39
636.501	12827.62
636.695	13028.32
636.889	12743.66
637.083	12727.27
637.276	12700.65
637.47	12545
637.664	12526.57
637.857	12440.56
638.051	12461.04
638.244	12297.2
638.438	12135.41
638.632	12329.97
638.825	12159.99
639.019	12043.25
639.212	11701.24
639.406	11852.79
639.599	11947
639.793	11736.06
639.986	11686.9
640.18	11611.13
640.373	11758.58
640.567	11514.87
640.76	11543.55
640.954	11437.05
641.147	11269.12
641.34	11234.3
641.534	11076.61
641.727	11013.12
641.92	11070.47
642.114	10927.11
642.307	10834.95
642.5	10953.73
642.694	10802.18
642.887	10753.03
643.08	10976.26
643.273	10703.88
643.467	10624.01
643.66	10413.07
643.853	10308.62
644.046	10304.53
644.239	10525.71
644.432	10286.09
644.626	10079.25
644.819	10095.63
645.012	10202.13
645.205	10195.98
645.398	10112.02
645.591	10026
645.784	10005.52
645.977	9964.56
646.17	9925.65
646.363	9788.44
646.556	9808.92
646.749	9569.3
646.942	9786.39
647.135	9475.1
647.328	9384.99
647.521	9380.89
647.714	9376.8
647.907	9407.52
648.099	9417.75
648.292	9358.36
648.485	9253.92
648.678	9165.85
648.871	9096.22
649.064	9184.29
649.256	9178.14
649.449	9024.54
649.642	9010.21
649.835	9049.12
650.027	8795.17
650.22	8780.84
650.413	8821.8
650.605	8709.16
650.798	8651.81
650.991	8733.73
651.183	8723.49
651.376	8641.57
651.568	8670.25
651.761	8356.91
651.954	8481.83
652.146	8385.58
652.339	8588.33
652.531	8205.36
652.724	8197.17
652.916	8256.56
653.109	8113.2
653.301	8330.28
653.494	8225.84
653.686	7887.92
653.879	8012.85
654.071	7978.03
654.263	7867.44
654.456	8002.61
654.648	7912.5
654.84	7599.16
655.033	7730.23
655.225	7586.87
655.417	7697.46
655.61	7582.77
655.802	7773.24
655.994	7584.82
656.186	7683.13
656.379	7556.15
656.571	7453.75
656.763	7261.24
656.955	7304.25
657.148	7222.33
657.34	7337.02
657.532	7285.82
657.724	7300.16
657.916	7273.53
658.108	7158.85
658.3	7048.26
658.492	7115.84
658.684	7124.03
658.876	7060.54
659.068	6896.71
659.26	6888.51
659.452	7021.63
659.644	6919.23
659.836	6755.4
660.028	7064.64
660.22	6583.37
660.412	6777.92
660.604	6589.51
660.796	6796.35
660.988	6763.59
661.18	6573.13
661.372	6462.54
661.563	6495.3
661.755	6452.3
661.947	6542.41
662.139	6378.57
662.331	6313.03
662.522	6306.89
662.714	6349.9
662.906	6214.73
663.097	6229.07
663.289	6009.93
663.481	6132.81
663.673	6190.16
663.864	6091.85
664.056	6188.11
664.247	6163.53
664.439	5901.39
664.631	6128.72
664.822	5948.5
665.014	6032.46
665.205	5868.63
665.397	5973.07
665.588	5870.67
665.78	5854.29
665.971	5944.4
666.163	5774.42
666.354	5868.63
666.546	5755.99
666.737	5864.53
666.929	5921.87
667.12	5637.2
667.311	5788.75
667.503	5592.15
667.694	5639.25
667.885	5629.01
668.077	5667.92
668.268	5401.69
668.459	5411.93
668.651	5416.02
668.842	5508.18
669.033	5446.74
669.224	5260.38
669.416	5358.68
669.607	5366.87
669.798	5530.71
669.989	5473.37
670.18	5246.04
670.371	5076.06
670.563	5166.17
670.754	5348.44
670.945	5311.58
671.136	5354.58
671.327	5164.12
671.518	5327.96
671.709	5084.25
671.9	5190.75
672.091	5076.06
672.282	5223.51
672.473	5200.99
672.664	5098.59
672.855	5026.91
673.046	4944.99
673.237	5090.4
673.428	5225.56
673.619	5082.21
673.809	5090.4
674	5125.21
674.191	5067.87
674.382	4944.99
674.573	5035.1
674.764	4873.31
674.954	5039.2
675.145	4899.94
675.336	4965.47
675.527	4883.55
675.717	4912.22
675.908	5088.35
676.099	4787.3
676.289	4914.27
676.48	5020.77
676.671	4918.37
676.861	4815.97
677.052	4838.5
677.243	4723.81
677.433	4928.61
677.624	4871.26
677.814	4828.26
678.005	4791.39
678.195	4723.81
678.386	4899.94
678.576	4842.59
678.767	4842.59
678.957	4779.11
679.148	4879.46
679.338	4596.84
679.529	4637.8
679.719	4627.56
679.909	4873.31
680.1	4668.52
680.29	4772.96
680.481	4660.32
680.671	4660.32
680.861	4740.19
681.052	4729.95
681.242	4783.2
681.432	4609.12
681.622	4596.84
681.813	4574.31
682.003	4717.67
682.193	4633.7
682.383	4633.7
682.573	4539.49
682.764	4736.1
682.954	4639.84
683.144	4523.11
683.334	4658.28
683.524	4566.12
683.714	4736.1
683.904	4482.15
684.094	4559.97
684.284	4527.21
684.474	4740.19
684.664	4527.21
684.854	4535.4
685.044	4570.21
685.234	4453.48
685.424	4455.53
685.614	4535.4
685.804	4351.08
685.994	4361.32
686.184	4410.47
686.374	4531.3
686.564	4486.25
686.753	4484.2
686.943	4357.22
687.133	4269.16
687.323	4418.66
687.513	4613.22
687.702	4523.11
687.892	4310.12
688.082	4283.5
688.272	4306.02
688.461	4285.55
688.651	4424.81
688.841	4265.07
689.03	4265.07
689.22	4187.24
689.41	4373.61
689.599	4193.39
689.789	4107.37
689.979	4250.73
690.168	4129.9
690.358	4054.12
690.547	4201.58
690.737	4056.17
690.926	4060.27
691.116	3966.06
691.305	4025.45
691.495	3976.3
691.684	3976.3
691.874	3921.01
692.063	4021.36
692.252	3904.62
692.442	3857.52
692.631	3884.14
692.82	4011.12
693.01	3943.53
693.199	3828.85
693.388	3904.62
693.578	3841.14
693.767	3839.09
693.956	3869.81
694.146	3890.29
694.335	3699.83
694.524	3716.21
694.713	3679.35
694.902	3863.66
695.092	3665.01
695.281	3744.88
695.47	3843.18
695.659	3656.82
695.848	3828.85
696.037	3671.15
696.226	3665.01
696.415	3757.17
696.604	3730.55
696.793	3576.95
696.982	3699.83
697.171	3710.07
697.36	3738.74
697.549	3695.73
697.738	3742.83
697.927	3646.58
698.116	3667.06
698.305	3701.87
698.494	3581.04
698.683	3615.86
698.872	3640.44
699.061	3646.58
699.25	3765.36
699.438	3593.33
699.627	3540.08
699.816	3662.96
700.005	3714.16
700.193	3710.07
700.382	3544.18
700.571	3734.64
700.76	3748.98
700.948	3691.63
701.137	3552.37
701.326	3613.81
701.514	3638.39
701.703	3517.56
701.892	3503.22
702.08	3662.96
702.269	3632.24
702.457	3544.18
702.646	3564.66
702.834	3462.26
703.023	3366.01
703.212	3609.72
703.4	3515.51
703.589	3513.46
703.777	3554.42
703.965	3376.25
704.154	3484.79
704.342	3533.94
704.531	3484.79
704.719	3406.97
704.907	3519.6
705.096	3417.21
705.284	3513.46
705.472	3546.23
705.661	3581.04
705.849	3685.49
706.037	3501.17
706.226	3538.04
706.414	3640.44
706.602	3511.41
706.79	3613.81
706.979	3441.78
707.167	3359.86
707.355	3433.59
707.543	3527.8
707.731	3601.52
707.919	3572.85
708.107	3529.84
708.296	3474.55
708.484	3531.89
708.672	3540.08
708.86	3544.18
709.048	3593.33
709.236	3409.01
709.424	3583.09
709.612	3507.32
709.8	3525.75
709.988	3501.17
710.176	3609.72
710.364	3595.38
710.551	3638.39
710.739	3646.58
710.927	3622
711.115	3642.48
711.303	3492.98
711.491	3501.17
711.679	3468.41
711.866	3460.21
712.054	3617.91
712.242	3527.8
712.43	3638.39
712.617	3562.61
712.805	3449.97
712.993	3480.69
713.181	3427.45
713.368	3507.32
713.556	3562.61
713.744	3472.5
713.931	3509.37
714.119	3595.38
714.306	3609.72
714.494	3351.67
714.682	3589.24
714.869	3630.2
715.057	3527.8
715.244	3562.61
715.432	3562.61
715.619	3624.05
715.807	3554.42
715.994	3423.35
716.182	3570.8
716.369	3646.58
716.556	3658.87
716.744	3347.58
716.931	3531.89
717.119	3560.56
717.306	3499.13
717.493	3445.88
717.681	3617.91
717.868	3433.59
718.055	3609.72
718.242	3535.99
718.43	3513.46
718.617	3435.64
718.804	3576.95
718.991	3484.79
719.179	3605.62
719.366	3433.59
719.553	3464.31
719.74	3503.22
719.927	3497.08
720.114	3478.65
720.301	3583.09
720.488	3470.45
720.676	3490.93
720.863	3568.76
721.05	3470.45
721.237	3576.95
721.424	3472.5
721.611	3560.56
721.798	3531.89
721.985	3480.69
722.172	3611.76
722.358	3425.4
722.545	3548.28
722.732	3564.66
722.919	3380.34
723.106	3515.51
723.293	3507.32
723.48	3587.19
723.667	3486.84
723.853	3476.6
724.04	3535.99
724.227	3490.93
724.414	3421.3
724.6	3519.6
724.787	3437.69
724.974	3419.25
725.161	3357.82
725.347	3388.53
725.534	3402.87
725.72	3429.49
725.907	3478.65
726.094	3462.26
726.28	3449.97
726.467	3366.01
726.653	3386.49
726.84	3396.73
727.027	3513.46
727.213	3347.58
727.4	3445.88
727.586	3409.01
727.773	3470.45
727.959	3413.11
728.145	3382.39
728.332	3355.77
728.518	3439.73
728.705	3437.69
728.891	3417.21
729.077	3394.68
729.264	3361.91
729.45	3560.56
729.636	3535.99
729.823	3419.25
730.009	3419.25
730.195	3466.36
730.382	3409.01
730.568	3306.62
730.754	3439.73
730.94	3419.25
731.126	3439.73
731.313	3400.82
731.499	3214.46
731.685	3435.64
731.871	3425.4
732.057	3427.45
732.243	3329.14
732.429	3394.68
732.615	3355.77
732.801	3361.91
732.987	3318.9
733.173	3298.42
733.359	3380.34
733.545	3214.46
733.731	3304.57
733.917	3286.14
734.103	3337.34
734.289	3325.05
734.475	3265.66
734.661	3347.58
734.847	3257.46
735.033	3290.23
735.219	3349.62
735.404	3357.82
735.59	3212.41
735.776	3298.42
735.962	3206.27
736.148	3241.08
736.333	3146.87
736.519	3333.24
736.705	3267.7
736.89	3216.51
737.076	3241.08
737.262	3058.81
737.447	3161.21
737.633	3075.2
737.819	3273.85
738.004	3175.55
738.19	3134.59
738.375	3087.48
738.561	3206.27
738.747	3073.15
738.932	3093.63
739.118	3185.79
739.303	3214.46
739.489	3230.84
739.674	3146.87
739.859	3060.86
740.045	3116.16
740.23	3034.24
740.416	3024
740.601	3128.44
740.786	3042.43
740.972	3105.92
741.157	3021.95
741.342	2901.12
741.528	3042.43
741.713	3021.95
741.898	2946.17
742.084	2985.09
742.269	3015.8
742.454	2954.37
742.639	2935.93
742.824	2966.65
743.01	2950.27
743.195	2876.54
743.38	2940.03
743.565	2972.8
743.75	2888.83
743.935	2831.49
744.12	2927.74
744.305	2739.33
744.49	2774.14
744.675	2907.26
744.86	2835.58
745.045	2782.34
745.23	2743.42
745.415	2841.73
745.6	2718.85
745.785	2700.42
745.97	2700.42
746.155	2677.89
746.34	2753.66
746.525	2724.99
746.71	2606.21
746.895	2628.74
747.079	2520.2
747.264	2634.88
747.449	2516.1
747.634	2595.97
747.819	2667.65
748.003	2452.61
748.188	2469
748.373	2534.53
748.557	2495.62
748.742	2475.14
748.927	2497.67
749.111	2473.09
749.296	2413.7
749.481	2389.13
749.665	2469
749.85	2337.93
750.034	2274.44
750.219	2319.5
750.404	2290.82
750.588	2233.48
750.773	2245.77
750.957	2188.43
751.141	2210.95
751.326	2245.77
751.51	2178.19
751.695	2149.51
751.879	2278.54
752.064	2225.29
752.248	2196.62
752.432	2165.9
752.617	2180.23
752.801	2184.33
752.985	2012.3
753.17	2110.6
753.354	2118.79
753.538	2133.13
753.722	2086.03
753.907	2028.68
754.091	2034.83
754.275	1948.81
754.459	1979.53
754.643	2094.22
754.828	2086.03
755.012	1791.12
755.196	2053.26
755.38	1957
755.564	1903.76
755.748	1918.09
755.932	1842.32
756.116	1838.22
756.3	1711.25
756.484	1823.89
756.668	1748.11
756.852	1698.96
757.036	1746.06
757.22	1709.2
757.404	1705.1
757.588	1721.49
757.772	1725.58
757.956	1787.02
758.14	1680.53
758.323	1797.26
758.507	1596.56
758.691	1651.86
758.875	1692.82
759.059	1655.95
759.242	1717.39
759.426	1701.01
759.61	1614.99
759.794	1690.77
759.977	1526.93
760.161	1610.9
760.345	1563.79
760.528	1522.84
760.712	1498.26
760.895	1479.83
761.079	1506.45
761.263	1475.73
761.446	1438.87
761.63	1553.55
761.813	1584.27
761.997	1391.77
762.18	1412.25
762.364	1420.44
762.547	1420.44
762.731	1473.68
762.914	1463.44
763.098	1420.44
763.281	1336.47
763.464	1311.89
763.648	1459.35
763.831	1303.7
764.015	1260.7
764.198	1467.54
764.381	1414.29
764.564	1361.05
764.748	1344.66
764.931	1338.52
765.114	1420.44
765.297	1377.43
765.481	1342.61
765.664	1242.26
765.847	1266.84
766.03	1291.41
766.213	1369.24
766.397	1326.23
766.58	1246.36
766.763	1377.43
766.946	1344.66
767.129	1287.32
767.312	1315.99
767.495	1307.8
767.678	1232.02
767.861	1223.83
768.044	1275.03
768.227	1254.55
768.41	1272.98
768.593	1223.83
768.776	1248.41
768.959	1293.46
769.142	1221.78
769.324	1219.74
769.507	1213.59
769.69	1133.72
769.873	1324.18
770.056	1225.88
770.239	1176.73
770.421	1193.11
770.604	1123.48
770.787	1078.43
770.97	1129.63
771.152	1035.42
771.335	1201.3
771.518	1082.52
771.7	1158.3
771.883	1115.29
772.066	1125.53
772.248	1150.11
772.431	1143.96
772.613	1082.52
772.796	1047.71
772.978	1092.76
773.161	1111.19
773.343	1057.95
773.526	1035.42
773.708	1012.89
773.891	988.32
774.073	1043.61
774.256	1051.8
774.438	965.79
774.621	994.46
774.803	1049.75
774.985	890.01
775.168	971.93
775.35	1012.89
775.532	1010.84
775.715	941.21
775.897	957.6
776.079	971.93
776.261	930.97
776.444	924.83
776.626	912.54
776.808	918.68
776.99	853.15
777.173	875.68
777.355	863.39
777.537	840.86
777.719	920.73
777.901	804
778.083	885.92
778.265	861.34
778.447	849.05
778.629	783.52
778.811	801.95
778.993	779.42
779.175	814.24
779.357	836.77
779.539	781.47
779.721	773.28
779.903	758.94
780.085	797.85
780.267	705.7
780.449	728.22
780.631	781.47
780.812	801.95
780.994	717.98
781.176	742.56
781.358	734.37
781.54	699.55
781.721	763.04
781.903	816.29
782.085	619.68
782.267	748.7
782.448	789.66
782.63	652.45
782.812	621.73
782.993	611.49
783.175	703.65
783.357	627.87
783.538	683.17
783.72	654.5
783.901	672.93
784.083	717.98
784.264	664.74
784.446	586.91
784.627	656.54
784.809	621.73
784.99	591.01
785.172	621.73
785.353	586.91
785.535	617.63
785.716	591.01
785.897	580.77
786.079	621.73
786.26	617.63
786.441	627.87
786.623	464.04
786.804	529.57
786.985	615.59
787.167	564.39
787.348	488.61
787.529	584.87
787.71	625.83
787.891	595.11
788.073	457.89
788.254	414.88
788.435	552.1
788.616	607.39
788.797	492.71
788.978	556.19
789.159	533.67
789.34	552.1
789.522	591.01
789.703	521.38
789.884	509.09
790.065	502.95
790.246	488.61
790.427	502.95
790.607	513.19
790.788	531.62
790.969	425.12
791.15	461.99
791.331	435.36
791.512	425.12
791.693	357.54
791.874	476.32
792.054	437.41
792.235	494.76
792.416	496.8
792.597	431.27
792.778	431.27
792.958	427.17
793.139	380.07
793.32	435.36
793.5	384.16
793.681	427.17
793.862	437.41
794.042	427.17
794.223	365.73
794.404	416.93
794.584	355.49
794.765	349.35
794.945	365.73
795.126	412.84
795.306	406.69
795.487	404.64
795.667	414.88
795.848	359.59
796.028	416.93
796.209	402.6
796.389	388.26
796.57	283.81
796.75	406.69
796.93	330.92
797.111	367.78
797.291	382.12
797.471	314.53
797.652	375.97
797.832	398.5
798.012	341.16
798.192	300.2
798.373	251.05
798.553	382.12
798.733	386.21
798.913	341.16
799.093	328.87
799.274	316.58
799.454	410.79
799.634	341.16
799.814	320.68
799.994	324.77
800.174	326.82
800.354	306.34
800.534	312.49
800.714	332.97
800.894	312.49
801.074	283.81
801.254	298.15
801.434	361.64
801.614	318.63
801.794	275.62
801.974	836.77
802.154	306.34
802.334	339.11
802.514	267.43
802.693	289.96
802.873	265.38
803.053	369.83
803.233	294.05
803.413	343.21
803.592	314.53
803.772	345.25
803.952	285.86
804.131	273.57
804.311	267.43
804.491	292.01
804.67	226.47
804.85	310.44
805.03	263.33
805.209	296.1
805.389	251.05
805.568	224.42
805.748	240.81
805.928	244.9
806.107	283.81
806.287	281.77
806.466	279.72
806.646	208.04
806.825	275.62
807.004	273.57
807.184	208.04
807.363	279.72
807.543	275.62
807.722	300.2
807.901	267.43
808.081	279.72
808.26	193.7
808.439	220.33
808.619	300.2
808.798	181.42
808.977	287.91
809.156	238.76
809.336	300.2
809.515	255.14
809.694	181.42
809.873	169.13
810.052	171.18
810.231	246.95
810.411	208.04
810.59	234.66
810.769	160.94
810.948	312.49
811.127	244.9
811.306	216.23
811.485	234.66
811.664	242.85
811.843	246.95
812.022	304.29
812.201	175.27
812.38	234.66
812.559	240.81
812.737	253.09
812.916	81.07
813.095	285.86
813.274	165.03
813.453	181.42
813.632	261.29
813.811	197.8
813.989	214.18
814.168	167.08
814.347	156.84
814.526	158.89
814.704	275.62
814.883	242.85
815.062	162.98
815.24	173.22
815.419	169.13
815.598	240.81
815.776	144.55
815.955	210.09
816.133	189.61
816.312	169.13
816.49	171.18
816.669	156.84
816.847	216.23
817.026	165.03
817.204	185.51
817.383	126.12
817.561	193.7
817.74	185.51
817.918	119.98
818.097	197.8
818.275	167.08
818.453	230.57
818.632	140.46
818.81	89.26
818.988	134.31
819.167	160.94
819.345	136.36
819.523	148.65
819.701	136.36
819.879	238.76
820.058	177.32
820.236	171.18
820.414	122.02
820.592	226.47
820.77	242.85
820.948	185.51
821.127	76.97
821.305	197.8
821.483	162.98
821.661	234.66
821.839	132.26
822.017	107.69
822.195	144.55
822.373	162.98
822.551	140.46
822.729	105.64
822.907	105.64
823.085	122.02
823.262	169.13
823.44	154.79
823.618	158.89
823.796	126.12
823.974	103.59
824.152	165.03
824.329	101.55
824.507	99.5
824.685	115.88
824.863	70.83
825.04	130.22
825.218	132.26
825.396	160.94
825.574	95.4
825.751	48.3
825.929	165.03
826.107	117.93
826.284	111.78
826.462	152.74
826.639	136.36
826.817	89.26
826.994	169.13
827.172	140.46
827.349	138.41
827.527	99.5
827.704	70.83
827.882	162.98
828.059	208.04
828.237	99.5
828.414	132.26
828.591	58.54
828.769	128.17
828.946	132.26
829.124	199.85
829.301	122.02
829.478	124.07
829.655	95.4
829.833	101.55
830.01	48.3
830.187	97.45
830.364	134.31
830.542	76.97
830.719	197.8
830.896	169.13
831.073	97.45
831.25	132.26
831.427	79.02
831.604	29.87
831.782	76.97
831.959	212.14
832.136	101.55
832.313	171.18
832.49	29.87
832.667	117.93
832.844	117.93
833.021	185.51
833.198	144.55
833.374	130.22
833.551	165.03
833.728	83.11
833.905	101.55
834.082	89.26
834.259	60.59
834.436	81.07
834.612	148.65
834.789	66.73
834.966	115.88
835.143	136.36
835.319	64.68
835.496	62.63
835.673	56.49
835.85	107.69
836.026	91.31
836.203	54.44
836.38	85.16
836.556	97.45
836.733	52.39
836.909	74.92
837.086	105.64
837.262	11.43
837.439	25.77
837.616	58.54
837.792	115.88
837.968	109.74
838.145	66.73
838.321	99.5
838.498	113.83
838.674	97.45
838.851	87.21
839.027	119.98
839.203	95.4
839.38	72.87
839.556	54.44
839.732	140.46
839.909	91.31
840.085	46.25
840.261	95.4
840.437	171.18
840.614	36.01
840.79	58.54
840.966	122.02
841.142	79.02
841.318	50.35
841.494	52.39
841.671	136.36
841.847	79.02
842.023	72.87
842.199	91.31
842.375	146.6
842.551	25.77
842.727	23.72
842.903	173.22
843.079	81.07
843.255	103.59
843.431	50.35
843.607	50.35
843.783	-13.14
843.959	76.97
844.134	109.74
844.31	134.31
844.486	50.35
844.662	70.83
844.838	15.53
845.013	93.35
845.189	13.48
845.365	64.68
845.541	83.11
845.716	54.44
845.892	134.31
846.068	52.39
846.244	50.35
846.419	33.96
846.595	56.49
846.77	128.17
846.946	60.59
847.122	17.58
847.297	74.92
847.473	19.63
847.648	54.44
847.824	38.06
847.999	5.29
848.175	-7
848.35	33.96
848.526	85.16
848.701	46.25
848.876	107.69
849.052	50.35
849.227	56.49
849.403	36.01
849.578	76.97
849.753	109.74
849.929	54.44
850.104	42.15
850.279	29.87
850.454	33.96
850.63	48.3
850.805	70.83
850.98	72.87
851.155	76.97
851.33	83.11
851.505	19.63
851.681	66.73
851.856	9.39
852.031	74.92
852.206	46.25
852.381	62.63
852.556	111.78
852.731	68.78
852.906	107.69
853.081	107.69
853.256	44.2
853.431	93.35
853.606	62.63
853.781	17.58
853.956	44.2
854.131	93.35
854.305	9.39
854.48	33.96
854.655	68.78
854.83	29.87
855.005	42.15
855.18	31.91
855.354	36.01
855.529	38.06
855.704	46.25
855.879	62.63
856.053	-29.52
856.228	62.63
856.403	33.96
856.577	17.58
856.752	-37.72
856.926	66.73
857.101	-17.24
857.276	25.77
857.45	48.3
857.625	62.63
857.799	-2.9
857.974	29.87
858.148	42.15
858.323	17.58
858.497	-2.9
858.672	-15.19
858.846	-11.09
859.02	29.87
859.195	36.01
859.369	83.11
859.543	64.68
859.718	50.35
859.892	-29.52
860.066	44.2
860.241	11.43
860.415	3.24
860.589	-7
860.763	87.21
860.938	9.39
861.112	56.49
861.286	19.63
861.46	40.11
861.634	-11.09
861.808	21.67
861.982	-37.72
862.157	-11.09
862.331	66.73
862.505	-31.57
862.679	-41.81
862.853	15.53
863.027	60.59
863.201	23.72
863.375	36.01
863.549	48.3
863.722	74.92
863.896	21.67
864.07	11.43
864.244	46.25
864.418	50.35
864.592	-52.05
864.766	15.53
864.939	64.68
865.113	-29.52
865.287	107.69
865.461	-31.57
865.634	52.39
865.808	31.91
865.982	-17.24
866.156	23.72
866.329	29.87
866.503	36.01
866.676	-11.09
866.85	81.07
867.024	9.39
867.197	15.53
867.371	-45.91
867.544	-41.81
867.718	-25.43
867.891	-45.91
868.065	29.87
868.238	-27.48
868.412	46.25
868.585	-68.44
868.759	17.58
868.932	9.39
869.105	-29.52
869.279	50.35
869.452	7.34
869.625	-29.52
869.799	7.34
869.972	38.06
870.145	3.24
870.319	1.19
870.492	33.96
870.665	-2.9
870.838	56.49
871.011	62.63
871.185	66.73
871.358	3.24
871.531	-21.33
871.704	33.96
871.877	21.67
872.05	-13.14
872.223	3.24
872.396	44.2
872.569	25.77
872.742	-76.63
872.915	91.31
873.088	46.25
873.261	-9.05
873.434	36.01
873.607	21.67
873.78	66.73
873.953	-4.95
874.126	13.48
874.299	21.67
874.471	29.87
874.644	-41.81
874.817	66.73
874.99	25.77
875.163	50.35
875.335	13.48
875.508	15.53
875.681	44.2
875.853	-23.38
876.026	5.29
876.199	89.26
876.371	21.67
876.544	7.34
876.717	-23.38
876.889	-39.76
877.062	27.82
877.234	-107.35
877.407	-13.14
877.579	42.15
877.752	-9.05
877.924	-21.33
878.097	1.19
878.269	48.3
878.442	21.67
878.614	44.2
878.786	46.25
878.959	-35.67
879.131	85.16
879.303	-19.29
879.476	-15.19
879.648	-2.9
879.82	-27.48
879.993	40.11
880.165	27.82
880.337	62.63
880.509	-15.19
880.681	40.11
880.854	-64.34
881.026	33.96
881.198	17.58
881.37	11.43
881.542	-17.24
881.714	7.34
881.886	-7
882.058	-29.52
882.23	46.25
882.402	54.44
882.574	64.68
882.746	11.43
882.918	-19.29
883.09	13.48
883.262	36.01
883.434	-43.86
883.606	27.82
883.778	13.48
883.95	79.02
884.122	68.78
884.293	79.02
884.465	-13.14
884.637	-17.24
884.809	-13.14
884.98	74.92
885.152	31.91
885.324	25.77
885.496	-60.24
885.667	7.34
885.839	21.67
886.011	54.44
886.182	27.82
886.354	76.97
886.525	46.25
886.697	33.96
886.869	-37.72
887.04	-11.09
887.212	62.63
887.383	-0.85
887.555	-7
887.726	25.77
887.897	-23.38
888.069	-7
888.24	79.02
888.412	-19.29
888.583	-9.05
888.754	-15.19
888.926	-27.48
889.097	11.43
889.268	-4.95
889.44	23.72
889.611	-39.76
889.782	-2.9
889.953	-90.96
890.125	31.91
890.296	-4.95
890.467	-31.57
890.638	33.96
890.809	5.29
890.98	11.43
891.151	42.15
891.323	38.06
891.494	50.35
891.665	-19.29
891.836	-27.48
892.007	-2.9
892.178	52.39
892.349	1.19
892.52	-7
892.691	-15.19
892.862	21.67
893.032	-60.24
893.203	-23.38
893.374	-7
893.545	21.67
893.716	-31.57
893.887	-25.43
894.057	25.77
894.228	-47.96
894.399	50.35
894.57	46.25
894.74	21.67
894.911	9.39
895.082	-23.38
895.253	52.39
895.423	64.68
895.594	-21.33
895.764	17.58
895.935	-50
896.106	13.48
896.276	36.01
896.447	-33.62
896.617	11.43
896.788	9.39
896.958	-52.05
897.129	62.63
897.299	-52.05
897.47	-7
897.64	-37.72
897.81	46.25
897.981	54.44
898.151	-58.2
898.322	95.4
898.492	5.29
898.662	46.25
898.832	-9.05
899.003	-60.24
899.173	62.63
899.343	11.43
899.513	-31.57
