Data from USB4F104151__294__10-42-29-531.txt Node

Date: Wed Mar 12 10:42:29 EDT 2025
User: louis
Spectrometer: USB4F10415
Trigger mode: 4
Integration Time (sec): 3.000000E-2
Scans to average: 1
Electric dark correction enabled: true
Nonlinearity correction enabled: false
Boxcar width: 0
XAxis mode: Wavelengths
Number of Pixels in Spectrum: 3648
>>>>>Begin Spectral Data<<<<<
178.204	-78.16
178.424	-78.16
178.644	-78.16
178.864	-194.9
179.084	-74.07
179.304	-8.53
179.524	26.28
179.744	-8.53
179.964	7.85
180.184	-41.3
180.404	-4.44
180.624	-55.64
180.844	-8.53
181.064	-8.53
181.283	67.24
181.503	30.38
181.723	3.75
181.943	-47.44
182.163	100.01
182.383	52.91
182.602	69.29
182.822	81.58
183.042	40.62
183.262	40.62
183.482	20.14
183.701	-2.39
183.921	9.9
184.141	11.95
184.361	97.96
184.58	-20.82
184.8	-53.59
185.02	-0.34
185.239	83.63
185.459	32.43
185.679	73.39
185.898	1.71
186.118	71.34
186.338	1.71
186.557	83.63
186.777	20.14
186.997	3.75
187.216	61.1
187.436	126.63
187.655	5.8
187.875	48.81
188.095	5.8
188.314	32.43
188.534	42.67
188.753	-22.87
188.973	85.67
189.192	108.2
189.412	48.81
189.631	20.14
189.851	5.8
190.07	61.1
190.29	28.33
190.509	63.15
190.729	5.8
190.948	87.72
191.168	190.12
191.387	57
191.607	85.67
191.826	16.04
192.045	46.76
192.265	97.96
192.484	32.43
192.704	24.23
192.923	-20.82
193.142	71.34
193.362	71.34
193.581	59.05
193.8	13.99
194.02	54.95
194.239	24.23
194.458	110.25
194.678	20.14
194.897	46.76
195.116	57
195.335	30.38
195.555	106.15
195.774	-49.49
195.993	34.47
196.212	40.62
196.432	30.38
196.651	52.91
196.87	81.58
197.089	104.11
197.308	54.95
197.528	63.15
197.747	9.9
197.966	65.19
198.185	59.05
198.404	71.34
198.623	42.67
198.842	13.99
199.062	61.1
199.281	54.95
199.5	63.15
199.719	124.58
199.938	-0.34
200.157	-0.34
200.376	34.47
200.595	126.63
200.814	36.52
201.033	22.19
201.252	95.91
201.471	63.15
201.69	97.96
201.909	28.33
202.128	40.62
202.347	36.52
202.566	48.81
202.785	7.85
203.004	63.15
203.223	130.73
203.442	40.62
203.661	-12.63
203.879	63.15
204.098	36.52
204.317	48.81
204.536	140.97
204.755	57
204.974	11.95
205.193	95.91
205.411	42.67
205.63	36.52
205.849	5.8
206.068	3.75
206.287	-6.49
206.505	44.71
206.724	61.1
206.943	24.23
207.162	-53.59
207.381	32.43
207.599	-16.73
207.818	54.95
208.037	40.62
208.255	18.09
208.474	7.85
208.693	118.44
208.911	-14.68
209.13	38.57
209.349	57
209.567	52.91
209.786	77.48
210.005	114.34
210.223	40.62
210.442	11.95
210.661	-29.01
210.879	-24.92
211.098	-14.68
211.316	9.9
211.535	106.15
211.753	87.72
211.972	28.33
212.191	-10.58
212.409	61.1
212.628	28.33
212.846	16.04
213.065	73.39
213.283	20.14
213.502	-18.77
213.72	42.67
213.938	30.38
214.157	-6.49
214.375	40.62
214.594	7.85
214.812	57
215.031	52.91
215.249	-2.39
215.467	54.95
215.686	48.81
215.904	102.06
216.122	73.39
216.341	52.91
216.559	81.58
216.778	118.44
216.996	73.39
217.214	63.15
217.432	104.11
217.651	-41.3
217.869	91.82
218.087	44.71
218.306	-0.34
218.524	9.9
218.742	48.81
218.96	93.87
219.179	75.43
219.397	114.34
219.615	59.05
219.833	89.77
220.051	52.91
220.27	69.29
220.488	89.77
220.706	28.33
220.924	36.52
221.142	20.14
221.36	54.95
221.578	-18.77
221.796	26.28
222.015	34.47
222.233	63.15
222.451	124.58
222.669	28.33
222.887	44.71
223.105	81.58
223.323	40.62
223.541	-18.77
223.759	32.43
223.977	11.95
224.195	34.47
224.413	112.3
224.631	32.43
224.849	85.67
225.067	85.67
225.285	42.67
225.503	-14.68
225.721	40.62
225.939	93.87
226.157	24.23
226.375	118.44
226.592	77.48
226.81	42.67
227.028	59.05
227.246	89.77
227.464	32.43
227.682	30.38
227.9	40.62
228.117	65.19
228.335	114.34
228.553	38.57
228.771	7.85
228.989	46.76
229.206	87.72
229.424	18.09
229.642	59.05
229.86	5.8
230.077	81.58
230.295	77.48
230.513	-4.44
230.731	9.9
230.948	3.75
231.166	112.3
231.384	57
231.601	95.91
231.819	71.34
232.037	77.48
232.254	102.06
232.472	22.19
232.689	44.71
232.907	71.34
233.125	-0.34
233.342	34.47
233.56	75.43
233.777	16.04
233.995	48.81
234.213	42.67
234.43	30.38
234.648	44.71
234.865	-10.58
235.083	34.47
235.3	36.52
235.518	57
235.735	93.87
235.953	106.15
236.17	95.91
236.388	75.43
236.605	30.38
236.822	77.48
237.04	69.29
237.257	75.43
237.475	18.09
237.692	93.87
237.909	-39.25
238.127	-67.92
238.344	85.67
238.562	42.67
238.779	-53.59
238.996	34.47
239.214	22.19
239.431	83.63
239.648	46.76
239.865	95.91
240.083	104.11
240.3	20.14
240.517	5.8
240.735	110.25
240.952	38.57
241.169	97.96
241.386	69.29
241.603	61.1
241.821	9.9
242.038	71.34
242.255	87.72
242.472	-0.34
242.689	54.95
242.907	20.14
243.124	75.43
243.341	151.21
243.558	28.33
243.775	1.71
243.992	24.23
244.209	126.63
244.426	40.62
244.643	52.91
244.86	-31.06
245.078	36.52
245.295	83.63
245.512	42.67
245.729	-14.68
245.946	44.71
246.163	54.95
246.38	126.63
246.597	65.19
246.814	54.95
247.031	114.34
247.248	71.34
247.464	18.09
247.681	32.43
247.898	65.19
248.115	97.96
248.332	-41.3
248.549	89.77
248.766	108.2
248.983	97.96
249.2	61.1
249.417	114.34
249.633	24.23
249.85	59.05
250.067	69.29
250.284	22.19
250.501	61.1
250.717	30.38
250.934	65.19
251.151	69.29
251.368	52.91
251.585	44.71
251.801	24.23
252.018	67.24
252.235	87.72
252.451	57
252.668	-26.96
252.885	67.24
253.102	73.39
253.318	93.87
253.535	1.71
253.752	-8.53
253.968	46.76
254.185	9.9
254.401	54.95
254.618	128.68
254.835	-8.53
255.051	112.3
255.268	91.82
255.484	79.53
255.701	81.58
255.917	112.3
256.134	-55.64
256.351	40.62
256.567	7.85
256.784	57
257	-33.11
257.217	122.54
257.433	38.57
257.65	93.87
257.866	32.43
258.082	-6.49
258.299	-31.06
258.515	48.81
258.732	52.91
258.948	57
259.165	100.01
259.381	-18.77
259.597	3.75
259.814	46.76
260.03	36.52
260.246	26.28
260.463	11.95
260.679	-16.73
260.895	30.38
261.112	71.34
261.328	-31.06
261.544	44.71
261.761	50.86
261.977	89.77
262.193	16.04
262.409	95.91
262.626	48.81
262.842	40.62
263.058	77.48
263.274	48.81
263.49	69.29
263.707	81.58
263.923	30.38
264.139	-10.58
264.355	1.71
264.571	116.39
264.787	83.63
265.004	54.95
265.22	5.8
265.436	44.71
265.652	3.75
265.868	-2.39
266.084	24.23
266.3	106.15
266.516	3.75
266.732	69.29
266.948	54.95
267.164	3.75
267.38	69.29
267.596	89.77
267.812	106.15
268.028	38.57
268.244	69.29
268.46	54.95
268.676	-0.34
268.892	81.58
269.108	13.99
269.324	-29.01
269.54	32.43
269.756	16.04
269.972	36.52
270.188	48.81
270.403	-37.2
270.619	116.39
270.835	30.38
271.051	38.57
271.267	11.95
271.483	40.62
271.698	65.19
271.914	73.39
272.13	77.48
272.346	36.52
272.562	93.87
272.777	118.44
272.993	24.23
273.209	50.86
273.425	106.15
273.64	-4.44
273.856	85.67
274.072	102.06
274.287	18.09
274.503	18.09
274.719	73.39
274.934	42.67
275.15	-16.73
275.366	-0.34
275.581	-29.01
275.797	34.47
276.012	118.44
276.228	-8.53
276.444	73.39
276.659	69.29
276.875	69.29
277.09	52.91
277.306	-2.39
277.521	87.72
277.737	-14.68
277.952	112.3
278.168	-14.68
278.383	18.09
278.599	30.38
278.814	95.91
279.03	20.14
279.245	59.05
279.461	44.71
279.676	57
279.892	-8.53
280.107	-8.53
280.322	-16.73
280.538	40.62
280.753	65.19
280.969	130.73
281.184	52.91
281.399	102.06
281.615	81.58
281.83	18.09
282.045	11.95
282.26	34.47
282.476	22.19
282.691	124.58
282.906	40.62
283.122	65.19
283.337	69.29
283.552	69.29
283.767	52.91
283.983	112.3
284.198	30.38
284.413	126.63
284.628	61.1
284.843	46.76
285.058	28.33
285.274	57
285.489	-10.58
285.704	67.24
285.919	-4.44
286.134	5.8
286.349	50.86
286.564	20.14
286.779	95.91
286.995	77.48
287.21	11.95
287.425	67.24
287.64	61.1
287.855	118.44
288.07	42.67
288.285	-20.82
288.5	48.81
288.715	100.01
288.93	69.29
289.145	81.58
289.36	73.39
289.575	22.19
289.79	32.43
290.004	16.04
290.219	40.62
290.434	95.91
290.649	13.99
290.864	-24.92
291.079	69.29
291.294	77.48
291.509	38.57
291.724	18.09
291.938	30.38
292.153	32.43
292.368	59.05
292.583	63.15
292.798	79.53
293.012	22.19
293.227	81.58
293.442	34.47
293.657	118.44
293.871	69.29
294.086	34.47
294.301	50.86
294.516	75.43
294.73	54.95
294.945	54.95
295.16	73.39
295.374	46.76
295.589	89.77
295.804	81.58
296.018	36.52
296.233	106.15
296.447	83.63
296.662	59.05
296.877	5.8
297.091	75.43
297.306	20.14
297.52	1.71
297.735	36.52
297.949	5.8
298.164	81.58
298.378	-35.16
298.593	57
298.807	26.28
299.022	36.52
299.236	26.28
299.451	67.24
299.665	67.24
299.88	130.73
300.094	85.67
300.309	134.82
300.523	93.87
300.737	52.91
300.952	28.33
301.166	20.14
301.381	52.91
301.595	63.15
301.809	48.81
302.024	24.23
302.238	-0.34
302.452	93.87
302.667	48.81
302.881	81.58
303.095	65.19
303.309	77.48
303.524	24.23
303.738	69.29
303.952	13.99
304.166	69.29
304.381	-4.44
304.595	106.15
304.809	26.28
305.023	120.49
305.237	-18.77
305.452	-16.73
305.666	52.91
305.88	54.95
306.094	85.67
306.308	28.33
306.522	77.48
306.736	73.39
306.95	65.19
307.164	30.38
307.379	36.52
307.593	83.63
307.807	81.58
308.021	57
308.235	57
308.449	11.95
308.663	1.71
308.877	67.24
309.091	106.15
309.305	114.34
309.519	-33.11
309.733	65.19
309.947	34.47
310.161	87.72
310.374	-55.64
310.588	81.58
310.802	65.19
311.016	95.91
311.23	138.92
311.444	16.04
311.658	46.76
311.872	83.63
312.085	110.25
312.299	44.71
312.513	7.85
312.727	67.24
312.941	-45.4
313.154	97.96
313.368	-0.34
313.582	48.81
313.796	28.33
314.009	46.76
314.223	81.58
314.437	3.75
314.651	11.95
314.864	71.34
315.078	61.1
315.292	32.43
315.505	3.75
315.719	67.24
315.933	63.15
316.146	26.28
316.36	18.09
316.573	75.43
316.787	46.76
317.001	81.58
317.214	7.85
317.428	20.14
317.641	-24.92
317.855	95.91
318.068	-4.44
318.282	95.91
318.495	81.58
318.709	100.01
318.922	-20.82
319.136	67.24
319.349	114.34
319.563	26.28
319.776	126.63
319.99	-24.92
320.203	59.05
320.417	1.71
320.63	73.39
320.843	83.63
321.057	75.43
321.27	75.43
321.483	52.91
321.697	57
321.91	106.15
322.124	108.2
322.337	61.1
322.55	59.05
322.763	-2.39
322.977	112.3
323.19	16.04
323.403	79.53
323.617	26.28
323.83	32.43
324.043	87.72
324.256	20.14
324.469	-2.39
324.683	89.77
324.896	114.34
325.109	28.33
325.322	22.19
325.535	110.25
325.748	48.81
325.962	52.91
326.175	93.87
326.388	63.15
326.601	75.43
326.814	65.19
327.027	65.19
327.24	130.73
327.453	36.52
327.666	32.43
327.879	65.19
328.092	5.8
328.305	46.76
328.518	50.86
328.731	-26.96
328.944	59.05
329.157	116.39
329.37	63.15
329.583	145.06
329.796	124.58
330.009	-26.96
330.222	40.62
330.435	120.49
330.648	59.05
330.861	95.91
331.073	1.71
331.286	75.43
331.499	7.85
331.712	24.23
331.925	63.15
332.138	79.53
332.35	50.86
332.563	97.96
332.776	114.34
332.989	20.14
333.202	95.91
333.414	97.96
333.627	44.71
333.84	63.15
334.053	30.38
334.265	48.81
334.478	-12.63
334.691	-0.34
334.903	65.19
335.116	20.14
335.329	75.43
335.541	57
335.754	102.06
335.966	18.09
336.179	106.15
336.392	36.52
336.604	122.54
336.817	52.91
337.029	118.44
337.242	104.11
337.454	75.43
337.667	52.91
337.88	59.05
338.092	52.91
338.305	85.67
338.517	65.19
338.729	89.77
338.942	110.25
339.154	26.28
339.367	-29.01
339.579	89.77
339.792	38.57
340.004	73.39
340.217	28.33
340.429	42.67
340.641	32.43
340.854	-12.63
341.066	20.14
341.278	89.77
341.491	42.67
341.703	42.67
341.915	128.68
342.128	36.52
342.34	97.96
342.552	97.96
342.764	28.33
342.977	106.15
343.189	163.5
343.401	114.34
343.613	16.04
343.826	40.62
344.038	36.52
344.25	65.19
344.462	-10.58
344.674	95.91
344.886	79.53
345.099	48.81
345.311	89.77
345.523	65.19
345.735	20.14
345.947	122.54
346.159	114.34
346.371	57
346.583	71.34
346.795	69.29
347.007	32.43
347.219	138.92
347.431	120.49
347.643	36.52
347.855	-49.49
348.067	93.87
348.279	46.76
348.491	42.67
348.703	104.11
348.915	97.96
349.127	75.43
349.339	30.38
349.551	-22.87
349.763	128.68
349.975	89.77
350.187	163.5
350.399	85.67
350.61	7.85
350.822	81.58
351.034	110.25
351.246	75.43
351.458	122.54
351.669	38.57
351.881	69.29
352.093	73.39
352.305	122.54
352.517	112.3
352.728	22.19
352.94	63.15
353.152	48.81
353.363	-2.39
353.575	126.63
353.787	30.38
353.999	112.3
354.21	73.39
354.422	28.33
354.633	30.38
354.845	102.06
355.057	122.54
355.268	138.92
355.48	77.48
355.692	-59.73
355.903	89.77
356.115	100.01
356.326	-6.49
356.538	110.25
356.749	36.52
356.961	22.19
357.172	30.38
357.384	44.71
357.595	112.3
357.807	44.71
358.018	-16.73
358.23	30.38
358.441	110.25
358.653	61.1
358.864	44.71
359.075	114.34
359.287	-14.68
359.498	75.43
359.709	145.06
359.921	32.43
360.132	97.96
360.344	30.38
360.555	48.81
360.766	108.2
360.977	59.05
361.189	73.39
361.4	7.85
361.611	20.14
361.823	46.76
362.034	118.44
362.245	22.19
362.456	32.43
362.667	79.53
362.879	13.99
363.09	50.86
363.301	13.99
363.512	32.43
363.723	65.19
363.935	65.19
364.146	73.39
364.357	71.34
364.568	69.29
364.779	11.95
364.99	116.39
365.201	57
365.412	183.98
365.623	-12.63
365.834	52.91
366.045	44.71
366.256	65.19
366.467	95.91
366.678	3.75
366.889	75.43
367.1	87.72
367.311	155.3
367.522	93.87
367.733	108.2
367.944	73.39
368.155	114.34
368.366	-8.53
368.577	52.91
368.788	104.11
368.999	24.23
369.209	9.9
369.42	124.58
369.631	106.15
369.842	75.43
370.053	65.19
370.264	69.29
370.474	97.96
370.685	73.39
370.896	63.15
371.107	89.77
371.317	102.06
371.528	65.19
371.739	69.29
371.95	81.58
372.16	32.43
372.371	22.19
372.582	48.81
372.792	54.95
373.003	36.52
373.214	89.77
373.424	149.16
373.635	71.34
373.846	59.05
374.056	18.09
374.267	108.2
374.477	79.53
374.688	134.82
374.898	46.76
375.109	108.2
375.319	44.71
375.53	63.15
375.74	54.95
375.951	89.77
376.161	-8.53
376.372	124.58
376.582	57
376.793	42.67
377.003	30.38
377.214	26.28
377.424	73.39
377.635	54.95
377.845	40.62
378.055	95.91
378.266	16.04
378.476	75.43
378.686	97.96
378.897	75.43
379.107	48.81
379.317	143.02
379.528	24.23
379.738	59.05
379.948	-8.53
380.158	75.43
380.369	85.67
380.579	102.06
380.789	20.14
380.999	190.12
381.21	1.71
381.42	194.22
381.63	30.38
381.84	143.02
382.05	118.44
382.261	122.54
382.471	24.23
382.681	106.15
382.891	143.02
383.101	89.77
383.311	79.53
383.521	9.9
383.731	110.25
383.941	50.86
384.151	116.39
384.361	69.29
384.571	77.48
384.781	71.34
384.991	79.53
385.201	165.54
385.411	192.17
385.621	102.06
385.831	71.34
386.041	126.63
386.251	153.26
386.461	93.87
386.671	143.02
386.881	30.38
387.091	16.04
387.301	57
387.511	110.25
387.72	46.76
387.93	138.92
388.14	7.85
388.35	67.24
388.56	110.25
388.769	112.3
388.979	91.82
389.189	11.95
389.399	153.26
389.609	32.43
389.818	73.39
390.028	120.49
390.238	81.58
390.447	81.58
390.657	83.63
390.867	100.01
391.076	-4.44
391.286	38.57
391.496	116.39
391.705	122.54
391.915	83.63
392.125	122.54
392.334	153.26
392.544	167.59
392.753	71.34
392.963	40.62
393.172	112.3
393.382	114.34
393.591	122.54
393.801	93.87
394.01	140.97
394.22	145.06
394.429	118.44
394.639	124.58
394.848	134.82
395.058	34.47
395.267	159.4
395.477	120.49
395.686	179.88
395.895	106.15
396.105	173.74
396.314	128.68
396.524	153.26
396.733	73.39
396.942	161.45
397.152	120.49
397.361	194.22
397.57	71.34
397.78	229.03
397.989	85.67
398.198	196.26
398.407	63.15
398.617	71.34
398.826	85.67
399.035	91.82
399.244	73.39
399.453	192.17
399.663	122.54
399.872	73.39
400.081	159.4
400.29	102.06
400.499	126.63
400.708	190.12
400.917	85.67
401.127	186.02
401.336	85.67
401.545	171.69
401.754	183.98
401.963	169.64
402.172	181.93
402.381	91.82
402.59	126.63
402.799	134.82
403.008	126.63
403.217	175.78
403.426	163.5
403.635	134.82
403.844	247.46
404.053	181.93
404.262	161.45
404.471	249.51
404.68	171.69
404.888	200.36
405.097	143.02
405.306	183.98
405.515	163.5
405.724	249.51
405.933	274.09
406.142	229.03
406.35	216.74
406.559	175.78
406.768	200.36
406.977	208.55
407.185	237.22
407.394	247.46
407.603	272.04
407.812	198.31
408.02	274.09
408.229	356.01
408.438	231.08
408.646	288.42
408.855	317.09
409.064	368.29
409.272	247.46
409.481	366.25
409.69	405.16
409.898	286.37
410.107	323.24
410.315	435.88
410.524	421.54
410.733	364.2
410.941	337.57
411.15	433.83
411.358	425.64
411.567	425.64
411.775	452.26
411.984	558.75
412.192	503.46
412.401	495.27
412.609	532.13
412.818	548.51
413.026	515.75
413.234	593.57
413.443	597.67
413.651	609.95
413.86	689.82
414.068	636.58
414.276	753.31
414.485	708.26
414.693	710.3
414.901	786.08
415.11	810.65
415.318	755.36
415.526	812.7
415.734	968.35
415.943	994.97
416.151	954.01
416.359	937.63
416.567	1054.36
416.776	1025.69
416.984	1044.12
417.192	1146.52
417.4	1148.57
417.608	1107.61
417.817	1150.62
418.025	1302.17
418.233	1363.61
418.441	1343.13
418.649	1316.5
418.857	1367.7
419.065	1556.11
419.273	1402.52
419.481	1478.29
419.689	1580.69
419.897	1674.9
420.105	1769.1
420.313	1752.72
420.521	1838.73
420.729	1877.65
420.937	1943.18
421.145	1988.24
421.353	2154.12
421.561	2186.89
421.769	2168.46
421.977	2330.25
422.185	2305.67
422.393	2471.56
422.601	2549.38
422.809	2567.81
423.017	2612.87
423.224	2737.79
423.432	2780.8
423.64	2961.02
423.848	3081.85
424.056	3116.67
424.263	3171.96
424.471	3110.52
424.679	3276.41
424.887	3468.92
425.094	3653.23
425.302	3788.4
425.51	3767.92
425.718	3974.77
425.925	3964.53
426.133	4132.46
426.341	4322.92
426.548	4525.67
426.756	4605.54
426.964	4560.49
427.171	4902.5
427.379	4902.5
427.586	5011.04
427.794	5244.51
428.001	5404.25
428.209	5617.24
428.417	5428.82
428.624	5973.58
428.832	5944.91
429.039	5985.87
429.247	5903.95
429.454	6567.49
429.662	6899.27
429.869	6389.32
430.076	6919.75
430.284	6970.94
430.491	7038.53
430.699	7411.26
430.906	7456.31
431.114	7417.4
431.321	7706.17
431.528	7779.89
431.736	8476.2
431.943	9029.15
432.15	8537.64
432.358	8689.19
432.565	9047.58
432.772	9135.65
432.979	9393.69
433.187	9551.38
433.394	9829.91
433.601	10550.79
433.808	10302.99
434.016	10526.22
434.223	10937.86
434.43	11398.65
434.637	11310.59
434.844	12074.48
435.052	12316.14
435.259	12070.39
435.466	12283.38
435.673	12039.67
435.88	13260.26
436.087	13716.95
436.294	13708.76
436.501	13526.49
436.708	13667.8
436.915	14224.85
437.122	14577.1
437.329	14601.68
437.537	14998.98
437.743	15297.99
437.95	15222.21
438.157	16065.97
438.364	16399.79
438.571	16424.37
438.778	16606.64
438.985	18408.85
439.192	17513.89
439.399	18054.55
439.606	17630.62
439.813	18601.36
440.02	19852.67
440.227	19205.51
440.433	19148.17
440.64	19711.36
440.847	19498.37
441.054	20219.25
441.261	21366.12
441.467	21075.31
441.674	21867.87
441.881	22463.83
442.088	22316.37
442.294	22207.83
442.501	22930.76
442.708	23221.58
442.914	24063.29
443.121	25310.5
443.328	24440.12
443.534	26498.33
443.741	25541.92
443.948	24886.57
444.154	27006.22
444.361	26801.43
444.568	27059.47
444.774	27043.09
444.981	27278.6
445.187	28028.16
445.394	29465.83
445.6	28941.55
445.807	31659.21
446.013	30076.13
446.22	30860.5
446.426	31790.28
446.633	32466.11
446.839	33043.63
447.046	32081.09
447.252	33830.05
447.459	33838.25
447.665	33359.02
447.871	35189.91
448.078	36842.62
448.284	34849.94
448.491	35591.31
448.697	37301.36
448.903	37770.35
449.11	37717.1
449.316	36979.83
449.522	37710.96
449.728	38665.31
449.935	38849.63
450.141	38958.17
450.347	39763.02
450.553	38630.49
450.76	39003.22
450.966	39810.12
451.172	39570.51
451.378	40694.85
451.584	40070.22
451.791	40733.76
451.997	40653.89
452.203	41536.56
452.409	41100.34
452.615	40764.48
452.821	39476.3
453.027	39242.84
453.233	41098.3
453.44	39535.7
453.646	40043.59
453.852	40160.33
454.058	40813.63
454.264	39132.25
454.47	39994.44
454.676	39013.46
454.882	40205.38
455.088	36902.01
455.294	37416.05
455.5	37907.56
455.705	38421.6
455.911	37033.08
456.117	35865.74
456.323	35529.87
456.529	33819.81
456.735	34974.87
456.941	33989.8
457.147	33541.29
457.352	32439.48
457.558	32167.1
457.764	32058.56
457.97	31634.63
458.176	31007.95
458.381	31022.29
458.587	29553.9
458.793	29080.81
458.999	27579.65
459.204	29893.86
459.41	29136.11
459.616	27045.13
459.821	26963.22
460.027	26787.09
460.233	26494.23
460.438	25085.23
460.644	25652.52
460.85	24167.74
461.055	24083.77
461.261	23833.92
461.466	22234.46
461.672	21613.92
461.878	22809.93
462.083	21482.85
462.289	21169.51
462.494	20878.7
462.7	19809.66
462.905	19363.2
463.111	20331.89
463.316	20409.72
463.522	19574.14
463.727	19936.63
463.932	19797.37
464.138	19561.86
464.343	19694.97
464.549	18955.66
464.754	19842.43
464.959	19455.36
465.165	19514.75
465.37	18582.93
465.575	18142.61
465.781	18847.12
465.986	18675.09
466.191	18326.93
466.397	18048.41
466.602	17204.64
466.807	17728.92
467.012	17667.49
467.218	17571.23
467.423	17180.07
467.628	17528.22
467.833	18367.89
468.038	17624.48
468.244	17184.16
468.449	17989.02
468.654	17378.72
468.859	17120.68
469.064	16922.02
469.269	16440.75
469.474	16170.42
469.679	16537.01
469.885	16129.46
470.09	16418.22
470.295	16338.35
470.5	16162.23
470.705	15877.56
470.91	15621.56
471.115	15322.56
471.32	15541.69
471.525	15635.9
471.73	15246.79
471.935	14886.34
472.139	14656.97
472.344	14824.9
472.549	14722.51
472.754	14575.05
472.959	14206.42
473.164	13997.53
473.369	13704.67
473.574	14175.7
473.778	13884.89
473.983	13921.75
474.188	13866.46
474.393	13245.92
474.598	13235.68
474.802	13125.09
475.007	12963.3
475.212	12946.92
475.417	12475.88
475.621	12441.07
475.826	12695.02
476.031	12383.73
476.235	12119.54
476.44	12445.16
476.645	12178.93
476.849	12105.2
477.054	12004.85
477.259	11902.45
477.463	11798.01
477.668	11509.24
477.872	11640.31
478.077	11390.46
478.282	11124.22
478.486	11300.35
478.691	11099.65
478.895	11027.97
479.1	10999.3
479.304	11009.54
479.509	10610.18
479.713	10860.04
479.918	10696.2
480.122	10407.44
480.326	10866.18
480.531	10886.66
480.735	10440.2
480.94	10505.74
481.144	10696.2
481.348	10249.74
481.553	10298.89
481.757	10165.78
481.961	10393.1
482.166	10444.3
482.37	10253.84
482.574	10253.84
482.778	10405.39
482.983	10411.53
483.187	10268.17
483.391	10438.16
483.595	10147.34
483.8	10163.73
484.004	10169.87
484.208	10266.13
484.412	10206.73
484.616	10276.37
484.821	10200.59
485.025	10114.58
485.229	10296.85
485.433	10081.81
485.637	10030.61
485.841	10167.82
486.045	10147.34
486.249	10212.88
486.453	10184.21
486.657	10143.25
486.861	10280.46
487.065	9829.91
487.269	10145.3
487.473	10012.18
487.677	10337.8
487.881	10337.8
488.085	10022.42
488.289	10255.89
488.493	10214.93
488.697	10182.16
488.901	10286.61
489.105	10305.04
489.309	10337.8
489.512	10313.23
489.716	10173.97
489.92	10182.16
490.124	10231.31
490.328	10241.55
490.531	10411.53
490.735	10212.88
490.939	10503.69
491.143	10464.78
491.346	10595.85
491.55	10800.65
491.754	10520.07
491.958	10806.79
492.161	10573.32
492.365	10747.4
492.569	10505.74
492.772	10800.65
492.976	10741.25
493.18	11003.39
493.383	11060.74
493.587	10862.08
493.79	11208.19
493.994	11036.16
494.197	11261.44
494.401	11519.48
494.605	11140.61
494.808	11435.52
495.012	11576.83
495.215	11505.15
495.419	11664.89
495.622	11707.9
495.825	11523.58
496.029	11718.14
496.232	11990.52
496.436	12000.76
496.639	12402.16
496.843	12172.78
497.046	12383.73
497.249	12713.45
497.453	12844.52
497.656	12979.68
497.859	12908.01
498.063	12908.01
498.266	13368.8
498.469	13063.65
498.673	13465.05
498.876	13524.44
499.079	13706.71
499.282	13424.09
499.485	14101.97
499.689	13989.33
499.892	14239.19
500.095	14519.76
500.298	14622.16
500.501	14355.92
500.705	15007.17
500.908	15162.82
501.111	15123.91
501.314	15236.55
501.517	15660.48
501.72	15662.52
501.923	15640
502.126	16303.54
502.329	16457.14
502.532	16264.63
502.735	16303.54
502.938	16768.43
503.141	16827.82
503.344	17255.84
503.547	17182.12
503.75	17376.67
503.953	17796.51
504.156	17718.68
504.359	17911.19
504.562	17946.01
504.765	18388.37
504.968	18625.93
505.17	18757
505.373	19121.54
505.576	19443.07
505.779	19330.44
505.982	19752.32
506.185	19885.44
506.387	19707.26
506.59	20041.08
506.793	20479.35
506.996	20458.87
507.198	20944.24
507.401	20794.73
507.604	21298.53
507.807	21620.06
508.009	21908.83
508.212	21605.73
508.415	22127.96
508.617	22369.62
508.82	22441.3
509.022	22578.51
509.225	23233.86
509.428	23258.44
509.63	23655.75
509.833	23741.76
510.035	24061.24
510.238	24102.2
510.44	24356.15
510.643	24798.51
510.845	25064.75
511.048	24816.94
511.25	25548.07
511.453	25347.37
511.655	26205.47
511.858	25994.53
512.06	26199.32
512.262	26643.73
512.465	26604.82
512.667	26948.88
512.87	27327.75
513.072	27329.8
513.274	27962.62
513.477	28099.84
513.679	28327.16
513.881	28749.04
514.084	29076.72
514.286	28599.54
514.488	29355.24
514.69	30014.69
514.893	29914.34
515.095	30045.41
515.297	30481.63
515.499	30735.57
515.701	30854.36
515.904	31517.9
516.106	31884.48
516.308	31929.54
516.51	32146.62
516.712	32181.44
516.914	32494.78
517.116	33350.83
517.318	33565.87
517.52	33334.45
517.722	33557.67
517.925	34378.91
518.127	34532.51
518.329	34960.53
518.531	34729.11
518.733	35187.86
518.935	35263.63
519.136	35472.53
519.338	36084.87
519.54	36349.06
519.742	36754.55
519.944	36797.56
520.146	37051.51
520.348	37631.08
520.55	37536.88
520.752	38173.8
520.954	38655.07
521.155	38179.94
521.357	38843.48
521.559	39009.37
521.761	39685.2
521.963	39779.4
522.164	39887.95
522.366	39994.44
522.568	40330.31
522.77	40522.82
522.971	41200.69
523.173	40528.96
523.375	41645.1
523.576	41692.21
523.778	41348.15
523.98	42533.92
524.181	42026.03
524.383	42394.66
524.584	42849.31
524.786	42808.35
524.988	43088.92
525.189	43512.85
525.391	43518.99
525.592	43602.96
525.794	43867.15
525.995	44063.75
526.197	44321.8
526.398	44147.72
526.6	45001.72
526.801	45132.79
527.003	45384.69
527.204	45173.75
527.406	45528.05
527.607	45642.74
527.808	45743.09
528.01	45022.2
528.211	45587.44
528.412	46435.3
528.614	46420.97
528.815	46175.21
529.016	46664.67
529.218	46160.87
529.419	46654.43
529.62	46394.34
529.822	46574.56
530.023	46541.8
530.224	46926.81
530.425	46805.98
530.626	46593
530.828	46511.08
531.029	47936.46
531.23	46873.57
531.431	47252.44
531.632	47840.21
531.833	47436.76
532.035	47426.52
532.236	47549.4
532.437	47932.37
532.638	47709.14
532.839	47643.6
533.04	48131.02
533.241	47420.38
533.442	48665.54
533.643	47975.37
533.844	48161.74
534.045	48180.17
534.246	47672.28
534.447	48501.7
534.648	48071.63
534.849	48380.87
535.05	47838.16
535.251	47924.18
535.451	48153.55
535.652	48358.34
535.853	48161.74
536.054	48243.66
536.255	48622.53
536.456	47723.47
536.657	49191.87
536.857	48114.64
537.058	48180.17
537.259	48563.14
537.46	48208.84
537.66	48255.95
537.861	48018.38
538.062	48122.83
538.263	48694.21
538.463	48126.92
538.664	48251.85
538.865	48280.52
539.065	48841.67
539.266	48034.77
539.466	48559.05
539.667	47696.85
539.868	48477.13
540.068	48552.9
540.269	48292.81
540.469	48427.98
540.67	48255.95
540.87	48458.7
541.071	47776.72
541.271	48589.77
541.472	47924.18
541.672	48067.53
541.873	48188.36
542.073	47887.31
542.274	48729.03
542.474	48061.39
542.675	47733.71
542.875	48284.62
543.075	48055.25
543.276	47754.19
543.476	48544.71
543.676	47999.95
543.877	48288.71
544.077	48036.81
544.277	48106.44
544.478	47674.32
544.678	48442.31
544.878	48008.14
545.078	48346.06
545.279	47825.87
545.479	47782.87
545.679	47969.23
545.879	47895.5
546.079	48243.66
546.28	47571.92
546.48	47424.47
546.68	48042.96
546.88	47870.93
547.08	48171.98
547.28	47434.71
547.48	47608.79
547.68	47522.77
547.88	47539.16
548.081	47641.56
548.281	47571.92
548.481	47647.7
548.681	47993.81
548.881	48153.55
549.081	47967.18
549.28	47596.5
549.48	48083.92
549.68	47891.41
549.88	48067.53
550.08	47246.3
550.28	47442.9
550.48	47338.46
550.68	48075.73
550.88	47428.57
551.08	47578.07
551.279	47543.25
551.479	47043.55
551.679	47553.49
551.879	47588.31
552.079	47786.96
552.278	47338.46
552.478	47170.52
552.678	47547.35
552.878	47547.35
553.077	47410.14
553.277	46570.47
553.477	47627.22
553.676	47326.17
553.876	47037.4
554.076	46863.33
554.275	46971.87
554.475	46549.99
554.674	46713.83
554.874	46867.42
555.074	46894.05
555.273	46957.53
555.473	47186.91
555.672	46851.04
555.872	46543.84
556.071	46969.82
556.271	47154.14
556.47	46498.79
556.67	46068.72
556.869	46687.2
557.068	46470.12
557.268	46433.25
557.467	46580.71
557.667	45982.7
557.866	46253.03
558.065	46240.75
558.265	45835.25
558.464	46197.74
558.663	46476.26
558.863	45579.25
559.062	46558.18
559.261	45573.11
559.461	46142.44
559.66	45229.05
559.859	45720.56
560.058	45548.53
560.258	45577.2
560.457	45237.24
560.656	45788.14
560.855	45335.54
561.054	45548.53
561.253	45143.03
561.453	45044.73
561.652	45208.57
561.851	45087.74
562.05	44696.58
562.249	44502.02
562.448	45188.09
562.647	44686.34
562.846	44741.63
563.045	44657.67
563.244	44127.24
563.443	44635.14
563.642	43770.89
563.841	44037.13
564.04	43979.79
564.239	43879.44
564.438	43607.06
564.637	43912.2
564.836	44266.5
565.035	43861.01
565.234	43942.92
565.432	43711.5
565.631	43195.42
565.83	43330.58
566.029	43199.51
566.228	43330.58
566.427	43217.94
566.625	42914.84
566.824	42751.01
567.023	42822.69
567.222	42019.88
567.42	42566.69
567.619	42312.74
567.818	42593.31
568.016	42267.69
568.215	42333.22
568.414	42112.04
568.612	42343.46
568.811	41483.31
569.01	42038.31
569.208	41514.03
569.407	42005.55
569.605	40987.71
569.804	41651.25
570.002	40717.37
570.201	41466.93
570.4	41008.18
570.598	40606.78
570.797	40518.72
570.995	40965.18
571.193	40324.16
571.392	41014.33
571.59	40145.99
571.789	40154.18
571.987	39760.97
572.186	40295.49
572.384	39777.36
572.582	40260.68
572.781	39955.53
572.979	39246.93
573.177	39732.3
573.376	39701.58
573.574	39545.94
573.772	39758.92
573.971	39148.63
574.169	38808.67
574.367	38808.67
574.565	39148.63
574.763	38765.66
574.962	38671.45
575.16	38399.07
575.358	38677.6
575.556	38212.71
575.754	38642.78
575.952	38116.45
576.151	38081.64
576.349	37721.2
576.547	37954.66
576.745	37401.71
576.943	37774.44
577.141	37874.79
577.339	37196.92
577.537	37420.14
577.735	37170.29
577.933	37117.04
578.131	37231.73
578.329	37000.31
578.527	36783.23
578.725	36815.99
578.923	36822.14
579.121	36713.59
579.319	36291.71
579.516	36529.28
579.714	36045.96
579.912	36007.05
580.11	36050.05
580.308	36187.27
580.506	36066.44
580.704	35452.05
580.901	35714.19
581.099	36037.76
581.297	35581.07
581.495	35228.82
581.692	35765.38
581.89	35198.1
582.088	35562.64
582.285	34811.03
582.483	35138.71
582.681	34796.7
582.878	34831.51
583.076	34305.18
583.274	34847.89
583.471	34149.54
583.669	34055.33
583.866	34321.57
584.064	34260.13
584.262	33940.64
584.459	34331.81
584.657	33834.15
584.854	34167.97
585.052	33365.17
585.249	33852.58
585.447	33569.96
585.644	33139.89
585.841	33424.56
586.039	33371.31
586.236	32851.13
586.434	32951.48
586.631	32867.51
586.828	32914.61
587.026	32969.91
587.223	32767.16
587.42	32343.23
587.618	32650.42
587.815	32361.66
588.012	32189.63
588.21	32296.13
588.407	32199.87
588.604	32212.16
588.801	31679.69
588.999	31911.11
589.196	31573.19
589.393	31372.49
589.59	31630.54
589.787	31134.93
589.984	31290.57
590.182	30977.23
590.379	31155.41
590.576	30944.47
590.773	30848.21
590.97	30840.02
591.167	30610.65
591.364	30487.77
591.561	30551.26
591.758	29885.67
591.955	30293.21
592.152	30031.07
592.349	29697.25
592.546	30125.28
592.743	30221.53
592.94	29525.22
593.137	29660.39
593.334	29996.26
593.531	29193.45
593.727	29588.71
593.924	29596.9
594.121	29170.93
594.318	29160.69
594.515	28802.29
594.712	29322.48
594.908	28851.44
595.105	28939.51
595.302	28491
595.499	28630.26
595.696	28607.73
595.892	28644.6
596.089	28583.16
596.286	28247.29
596.482	28177.66
596.679	28302.59
596.876	28069.12
597.072	27817.22
597.269	27868.42
597.466	27483.4
597.662	27329.8
597.859	27608.33
598.055	27473.16
598.252	27442.44
598.448	27430.15
598.645	27106.57
598.841	27061.52
599.038	27047.18
599.234	27014.41
599.431	26846.48
599.627	26527
599.824	26811.67
600.02	26711.32
600.217	26445.08
600.413	26449.18
600.609	26217.75
600.806	26266.91
601.002	26252.57
601.198	25986.33
601.395	25976.09
601.591	26021.15
601.787	25908.51
601.984	25656.61
602.18	26127.64
602.376	25564.45
602.572	25629.99
602.769	25824.54
602.965	25371.94
603.161	25234.73
603.357	25232.68
603.553	25085.23
603.75	25087.28
603.946	24798.51
604.142	25124.14
604.338	24749.36
604.534	24737.07
604.73	24503.6
604.926	24388.92
605.122	24393.01
605.318	24180.03
605.514	24192.31
605.71	24257.85
605.906	24036.67
606.102	23940.41
606.298	24372.53
606.494	23901.5
606.69	23946.56
606.886	23928.13
607.082	23450.95
607.278	23817.54
607.474	23639.36
607.67	23733.57
607.866	23123.27
608.062	23936.32
608.257	23405.89
608.453	23240.01
608.649	23481.67
608.845	23201.1
609.041	23346.5
609.236	23297.35
609.432	22701.39
609.628	23182.66
609.824	22811.98
610.019	22730.06
610.215	22658.38
610.411	23027.02
610.606	22697.3
610.802	22621.52
610.998	22637.91
611.193	22844.75
611.389	22244.7
611.584	22603.09
611.78	22373.72
611.976	22334.81
612.171	22211.93
612.367	22291.8
612.562	22224.22
612.758	22029.66
612.953	22023.51
613.149	22070.62
613.344	21681.5
613.539	22087
613.735	21863.77
613.93	22058.33
614.126	21767.52
614.321	21978.46
614.517	21642.59
614.712	21798.24
614.907	21241.19
615.103	21798.24
615.298	21482.85
615.493	21843.29
615.688	21103.98
615.884	21804.38
616.079	21192.04
616.274	21439.84
616.47	21411.17
616.665	21276.01
616.86	20921.71
617.055	21132.65
617.25	21075.31
617.445	21321.06
617.641	20962.67
617.836	21071.21
618.031	20456.82
618.226	20850.03
618.421	20598.13
618.616	20827.5
618.811	20174.2
619.006	20827.5
619.201	20309.36
619.396	20258.17
619.591	20235.64
619.786	20096.38
619.981	19916.15
620.176	20233.59
620.371	19565.95
620.566	19649.92
620.761	19826.04
620.956	19887.48
621.151	19699.07
621.346	19471.75
621.541	19266.95
621.735	19727.74
621.93	19074.44
622.125	19326.34
622.32	18941.32
622.515	18800.01
622.709	18668.94
622.904	18949.51
623.099	18748.81
623.294	18544.02
623.488	18507.15
623.683	18505.1
623.878	18115.99
624.072	18468.24
624.267	18214.29
624.462	17862.04
624.656	17511.84
624.851	17780.12
625.046	17591.71
625.24	17597.85
625.435	17413.54
625.629	17671.58
625.824	17311.14
626.018	17264.04
626.213	16819.63
626.407	16879.02
626.602	16645.55
626.796	17096.1
626.991	16868.78
627.185	16803.24
627.38	16719.28
627.574	16391.6
627.768	16399.79
627.963	16426.42
628.157	16020.92
628.352	16029.11
628.546	15805.88
628.74	16014.77
628.935	15824.31
629.129	15949.24
629.323	15680.96
629.517	15683
629.712	15480.25
629.906	15623.61
630.1	15236.55
630.294	15398.34
630.489	15445.44
630.683	15193.54
630.877	15142.34
631.071	15019.46
631.265	15033.8
631.459	14998.98
631.653	14704.07
631.848	14616.01
632.042	14511.57
632.236	14661.07
632.43	14325.2
632.624	14740.94
632.818	14157.27
633.012	14192.08
633.206	14165.46
633.4	14214.61
633.594	13792.73
633.788	13850.07
633.982	14020.05
634.176	13940.18
634.369	13530.59
634.563	13544.92
634.757	13405.66
634.951	13594.08
635.145	13491.68
635.339	13520.35
635.533	13362.65
635.726	13223.39
635.92	13037.03
636.114	13225.44
636.308	13151.71
636.501	13219.3
636.695	12862.95
636.889	12840.42
637.083	12824.04
637.276	12697.06
637.47	12652.01
637.664	12545.52
637.857	12494.32
638.051	12463.6
638.244	12412.4
638.438	12389.87
638.632	12185.07
638.825	12299.76
639.019	12039.67
639.212	12049.91
639.406	11996.66
639.599	11886.07
639.793	11851.25
639.986	11490.81
640.18	11677.18
640.373	11662.84
640.567	11351.55
640.76	11724.28
640.954	11286.01
641.147	11580.92
641.34	11236.86
641.534	11292.16
641.727	11097.6
641.92	11222.53
642.114	11169.28
642.307	10941.96
642.5	11046.4
642.694	10642.95
642.887	10728.97
643.08	10792.45
643.273	10759.69
643.467	10739.21
643.66	10544.65
643.853	10450.44
644.046	10556.94
644.239	10438.16
644.432	10137.1
644.626	10395.15
644.819	10071.57
645.012	10294.8
645.205	10075.66
645.398	10055.19
645.591	10079.76
645.784	10073.62
645.977	9950.74
646.17	9856.53
646.363	9825.81
646.556	9719.32
646.749	9797.14
646.942	9688.6
647.135	9627.16
647.328	9707.03
647.521	9590.3
647.714	9192.99
647.907	9588.25
648.099	9578.01
648.292	9317.92
648.485	9209.37
648.678	9184.8
648.871	9176.61
649.064	9031.2
649.256	9168.41
649.449	8977.95
649.642	9070.11
649.835	8883.75
650.027	8932.9
650.22	8865.32
650.413	8818.21
650.605	8875.56
650.798	8879.65
650.991	8564.26
651.183	8568.36
651.376	8590.89
651.568	8695.33
651.761	8418.86
651.954	8427.05
652.146	8293.93
652.339	8355.37
652.531	8345.13
652.724	8257.07
652.916	7956.02
653.109	7964.21
653.301	8134.19
653.494	8255.02
653.686	7964.21
653.879	8173.1
654.071	7933.49
654.263	7947.83
654.456	7945.78
654.648	7949.87
654.84	7913.01
655.033	7702.07
655.225	7806.52
655.417	7673.4
655.61	7583.29
655.802	7724.6
655.994	7716.4
656.186	7532.09
656.379	7505.46
656.571	7355.96
656.763	7419.45
656.955	7466.55
657.148	7302.72
657.34	7231.04
657.532	7265.85
657.724	7220.8
657.916	7241.28
658.108	7296.57
658.3	7192.12
658.492	7081.53
658.684	7046.72
658.876	7059.01
659.068	6923.84
659.26	6805.06
659.452	6704.71
659.644	6878.79
659.836	6774.34
660.028	6942.27
660.22	6725.19
660.412	6708.8
660.604	6518.34
660.796	6717
660.988	6579.78
661.18	6649.41
661.372	6483.53
661.563	6671.94
661.755	6526.54
661.947	6569.54
662.139	6526.54
662.331	6420.04
662.522	6207.05
662.714	6196.81
662.906	6317.64
663.097	6284.87
663.289	6245.96
663.481	6190.67
663.673	6143.56
663.864	6172.24
664.056	6200.91
664.247	6071.89
664.439	6012.49
664.631	6010.45
664.822	5946.96
665.014	5869.14
665.205	6006.35
665.397	5928.53
665.588	5811.79
665.78	5801.55
665.971	5674.58
666.163	5832.27
666.354	5652.05
666.546	5824.08
666.737	5744.21
666.929	5613.14
667.12	5697.11
667.311	5623.38
667.503	5516.89
667.694	5496.41
667.885	5576.28
668.077	5652.05
668.268	5512.79
668.459	5453.4
668.651	5420.63
668.842	5473.88
669.033	5428.82
669.224	5336.67
669.416	5512.79
669.607	5336.67
669.798	5195.36
669.989	5314.14
670.18	5307.99
670.371	5187.16
670.563	5351
670.754	5385.82
670.945	5168.73
671.136	5267.03
671.327	5213.79
671.518	5209.69
671.709	5135.96
671.9	5103.2
672.091	5105.24
672.282	4982.37
672.473	4914.78
672.664	5117.53
672.855	5080.67
673.046	5039.71
673.237	5219.93
673.428	5066.33
673.619	5074.53
673.809	4861.54
674	4839.01
674.191	4957.79
674.382	4961.89
674.573	4857.44
674.764	4904.54
674.954	4947.55
675.145	4750.95
675.336	4906.59
675.527	4892.26
675.717	4824.67
675.908	4781.67
676.099	4851.3
676.289	4693.6
676.48	4763.23
676.671	4542.05
676.861	4660.84
677.052	4679.27
677.243	4683.36
677.433	4767.33
677.624	4617.83
677.814	4673.12
678.005	4718.18
678.195	4740.71
678.386	4628.07
678.576	4615.78
678.767	4574.82
678.957	4601.44
679.148	4748.9
679.338	4580.96
679.529	4513.38
679.719	4501.09
679.909	4552.29
680.1	4423.27
680.29	4558.44
680.481	4619.88
680.671	4486.76
680.861	4484.71
681.052	4646.5
681.242	4542.05
681.432	4718.18
681.622	4494.95
681.813	4370.02
682.003	4392.55
682.193	4447.85
682.383	4533.86
682.573	4499.05
682.764	4415.08
682.954	4355.69
683.144	4488.81
683.334	4466.28
683.524	4429.42
683.714	4388.46
683.904	4333.16
684.094	4306.54
684.284	4320.87
684.474	4353.64
684.664	4306.54
684.854	4353.64
685.044	4341.35
685.234	4165.23
685.424	4140.65
685.614	4241
685.804	4238.95
685.994	4208.23
686.184	4130.41
686.374	4220.52
686.564	4185.71
686.753	4132.46
686.943	4216.43
687.133	4103.79
687.323	4081.26
687.513	4019.82
687.702	4206.19
687.892	3933.81
688.082	3982.96
688.272	4044.4
688.461	4071.02
688.651	4132.46
688.841	3972.72
689.03	4101.74
689.22	3890.8
689.41	4028.01
689.599	3894.9
689.789	4126.32
689.979	3911.28
690.168	3855.98
690.358	3950.19
690.547	3866.22
690.737	3837.55
690.926	3835.5
691.116	3696.24
691.305	3901.04
691.495	3782.26
691.684	3640.95
691.874	3829.36
692.063	3688.05
692.252	3759.73
692.442	3761.78
692.631	3681.91
692.82	3726.96
693.01	3724.91
693.199	3731.06
693.388	3624.56
693.578	3583.6
693.767	3540.6
693.956	3620.47
694.146	3516.02
694.335	3597.94
694.524	3513.97
694.713	3487.35
694.902	3552.88
695.092	3526.26
695.281	3456.63
695.47	3546.74
695.659	3440.25
695.848	3468.92
696.037	3470.97
696.226	3579.51
696.415	3530.36
696.604	3458.68
696.793	3397.24
696.982	3438.2
697.171	3468.92
697.36	3397.24
697.549	3391.09
697.738	3395.19
697.927	3378.81
698.116	3370.62
698.305	3327.61
698.494	3407.48
698.683	3454.58
698.872	3378.81
699.061	3405.43
699.25	3397.24
699.438	3362.42
699.627	3337.85
699.816	3290.74
700.005	3399.29
700.193	3405.43
700.382	3264.12
700.571	3333.75
700.76	3282.55
700.948	3454.58
701.137	3221.11
701.326	3380.86
701.514	3309.18
701.703	3270.26
701.892	3364.47
702.08	3458.68
702.269	3298.94
702.457	3235.45
702.646	3325.56
702.834	3135.1
703.023	3268.22
703.212	3407.48
703.4	3208.83
703.589	3346.04
703.777	3210.87
703.965	3294.84
704.154	3247.74
704.342	3161.72
704.531	3239.55
704.719	3161.72
704.907	3276.41
705.096	3227.26
705.284	3276.41
705.472	3028.6
705.661	3202.68
705.849	3133.05
706.037	3090.04
706.226	3141.24
706.414	3292.79
706.602	3126.91
706.79	3352.18
706.979	3204.73
707.167	3194.49
707.355	3159.67
707.543	3237.5
707.731	3251.83
707.919	3167.87
708.107	3133.05
708.296	3149.43
708.484	3196.54
708.672	3397.24
708.86	3141.24
709.048	3198.59
709.236	3147.39
709.424	3354.23
709.612	3204.73
709.8	3159.67
709.988	3102.33
710.176	3214.97
710.364	3106.43
710.551	3114.62
710.739	3126.91
710.927	3180.15
711.115	3110.52
711.303	3231.35
711.491	3204.73
711.679	3241.59
711.866	3149.43
712.054	3157.63
712.242	3180.15
712.43	3239.55
712.617	3323.51
712.805	3155.58
712.993	3038.84
713.181	3176.06
713.368	3051.13
713.556	3106.43
713.744	3186.3
713.931	3260.02
714.119	3251.83
714.306	3151.48
714.494	3149.43
714.682	3214.97
714.869	3165.82
715.057	3227.26
715.244	3047.04
715.432	3174.01
715.619	3176.06
715.807	3092.09
715.994	3071.61
716.182	3112.57
716.369	3202.68
716.556	3157.63
716.744	3257.98
716.931	3135.1
717.119	3188.35
717.306	3143.29
717.493	3165.82
717.681	3141.24
717.868	3194.49
718.055	3225.21
718.242	3116.67
718.43	3137.15
718.617	3165.82
718.804	3200.63
718.991	3055.23
719.179	3133.05
719.366	3141.24
719.553	3137.15
719.74	3120.76
719.927	3096.19
720.114	3094.14
720.301	3106.43
720.488	3026.56
720.676	3092.09
720.863	3137.15
721.05	3133.05
721.237	3145.34
721.424	3278.46
721.611	3047.04
721.798	3118.72
721.985	3112.57
722.172	3042.94
722.358	2981.5
722.545	3081.85
722.732	3092.09
722.919	3131
723.106	3063.42
723.293	3094.14
723.48	3094.14
723.667	3153.53
723.853	3010.17
724.04	3167.87
724.227	3157.63
724.414	3047.04
724.6	3004.03
724.787	3159.67
724.974	3102.33
725.161	3063.42
725.347	3042.94
725.534	3141.24
725.72	3006.08
725.907	3053.18
726.094	3083.9
726.28	3092.09
726.467	3079.8
726.653	3151.48
726.84	3036.8
727.027	3116.67
727.213	2913.92
727.4	3075.71
727.586	2995.84
727.773	2975.36
727.959	3020.41
728.145	3061.37
728.332	3159.67
728.518	3104.38
728.705	3051.13
728.891	3157.63
729.077	3014.27
729.264	2973.31
729.45	3077.76
729.636	3159.67
729.823	3032.7
730.009	2985.6
730.195	2989.69
730.382	2993.79
730.568	2932.35
730.754	2969.21
730.94	2948.73
731.126	3063.42
731.313	3063.42
731.499	3069.56
731.685	2879.1
731.871	3061.37
732.057	2985.6
732.243	3016.32
732.429	3001.98
732.615	3006.08
732.801	2899.58
732.987	2920.06
733.173	2973.31
733.359	3004.03
733.545	2883.2
733.731	2956.93
733.917	2965.12
734.103	2926.21
734.289	3042.94
734.475	2924.16
734.661	3038.84
734.847	2913.92
735.033	2995.84
735.219	2915.97
735.404	2954.88
735.59	2887.29
735.776	2961.02
735.962	2926.21
736.148	3020.41
736.333	2895.49
736.519	2850.43
736.705	2907.77
736.89	2797.18
737.076	2788.99
737.262	2842.24
737.447	2823.81
737.633	2875.01
737.819	2842.24
738.004	2877.05
738.19	2772.61
738.375	2764.42
738.561	2864.77
738.747	2803.33
738.932	2649.73
739.118	2791.04
739.303	2713.22
739.489	2788.99
739.674	2733.7
739.859	2741.89
740.045	2832
740.23	2770.56
740.416	2737.79
740.601	2721.41
740.786	2569.86
740.972	2678.4
741.157	2633.35
741.342	2672.26
741.528	2653.83
741.713	2682.5
741.898	2662.02
742.084	2702.98
742.269	2586.24
742.454	2692.74
742.639	2659.97
742.824	2565.76
743.01	2588.29
743.195	2621.06
743.38	2684.55
743.565	2502.28
743.75	2506.37
743.935	2510.47
744.12	2643.59
744.305	2350.73
744.49	2473.6
744.675	2666.11
744.86	2457.22
745.045	2371.21
745.23	2514.56
745.415	2367.11
745.6	2426.5
745.785	2412.17
745.97	2403.97
746.155	2449.03
746.34	2395.78
746.525	2422.41
746.71	2424.45
746.895	2291.34
747.079	2365.06
747.264	2317.96
747.449	2264.71
747.634	2270.86
747.819	2285.19
748.003	2240.14
748.188	2186.89
748.373	2152.07
748.557	2184.84
748.742	2115.21
748.927	2227.85
749.111	2072.2
749.296	2102.92
749.481	2158.22
749.665	2139.79
749.85	1990.28
750.034	2082.44
750.219	2100.87
750.404	2051.72
750.588	2010.76
750.773	1998.48
750.957	2039.44
751.141	1986.19
751.326	1926.8
751.51	1912.46
751.695	1900.17
751.879	2006.67
752.064	2078.35
752.248	1869.45
752.432	1971.85
752.617	1967.76
752.801	1920.65
752.985	1826.45
753.17	1943.18
753.354	1861.26
753.538	1937.04
753.722	1840.78
753.907	1754.77
754.091	1681.04
754.275	1732.24
754.459	1658.51
754.643	1787.54
754.828	1746.58
755.012	1719.95
755.196	1740.43
755.38	1576.59
755.564	1711.76
755.748	1644.18
755.932	1687.18
756.116	1664.66
756.3	1568.4
756.484	1709.71
756.668	1695.38
756.852	1480.34
757.036	1666.71
757.22	1482.39
757.404	1494.68
757.588	1627.79
757.772	1627.79
757.956	1568.4
758.14	1607.31
758.323	1396.37
758.507	1466
758.691	1509.01
758.875	1543.83
759.059	1492.63
759.242	1470.1
759.426	1455.76
759.61	1433.24
759.794	1490.58
759.977	1433.24
760.161	1468.05
760.345	1408.66
760.528	1443.48
760.712	1326.74
760.895	1361.56
761.079	1435.28
761.263	1330.84
761.446	1300.12
761.63	1431.19
761.813	1404.57
761.997	1379.99
762.18	1359.51
762.364	1400.47
762.547	1236.63
762.731	1210.01
762.914	1298.07
763.098	1318.55
763.281	1244.82
763.464	1283.74
763.648	1269.4
763.831	1238.68
764.015	1162.9
764.198	1197.72
764.381	1285.78
764.564	1183.38
764.748	1210.01
764.931	1195.67
765.114	1214.1
765.297	1322.65
765.481	1185.43
765.664	1148.57
765.847	1095.32
766.03	1234.58
766.213	1160.86
766.397	1162.9
766.58	1150.62
766.763	1222.3
766.946	1130.14
767.129	1144.47
767.312	1214.1
767.495	1234.58
767.678	1054.36
767.861	1093.27
768.044	1187.48
768.227	1097.37
768.41	1117.85
768.593	1089.18
768.776	1189.53
768.959	1113.75
769.142	1115.8
769.324	1083.03
769.507	1091.23
769.69	1052.31
769.873	1134.23
770.056	1097.37
770.239	1052.31
770.421	1101.47
770.604	902.81
770.787	1023.64
770.97	1048.22
771.152	1013.4
771.335	1019.55
771.518	1021.6
771.7	1066.65
771.883	1085.08
772.066	1054.36
772.248	1070.75
772.431	913.05
772.613	966.3
772.796	992.92
772.978	1095.32
773.161	1007.26
773.343	962.2
773.526	900.76
773.708	1019.55
773.891	954.01
774.073	927.39
774.256	978.59
774.438	1040.03
774.621	876.19
774.803	894.62
774.985	921.24
775.168	927.39
775.35	847.52
775.532	947.87
775.715	827.04
775.897	937.63
776.079	806.56
776.261	831.13
776.444	925.34
776.626	931.48
776.808	876.19
776.99	736.93
777.173	753.31
777.355	847.52
777.537	816.8
777.719	812.7
777.901	734.88
778.083	786.08
778.265	743.07
778.447	767.65
778.629	822.94
778.811	677.54
778.993	753.31
779.175	734.88
779.357	779.93
779.539	781.98
779.721	642.72
779.903	665.25
780.085	743.07
780.267	644.77
780.449	724.64
780.631	792.22
780.812	749.22
780.994	693.92
781.176	749.22
781.358	677.54
781.54	714.4
781.721	681.63
781.903	667.3
782.085	659.1
782.267	675.49
782.448	628.39
782.63	636.58
782.812	612
782.993	603.81
783.175	624.29
783.357	591.52
783.538	671.39
783.72	564.9
783.901	614.05
784.083	626.34
784.264	622.24
784.446	652.96
784.627	517.79
784.809	609.95
784.99	652.96
785.172	562.85
785.353	593.57
785.535	554.66
785.716	550.56
785.897	511.65
786.079	579.23
786.26	583.33
786.441	577.19
786.623	546.47
786.804	474.79
786.985	525.99
787.167	509.6
787.348	497.32
787.529	482.98
787.71	554.66
787.891	523.94
788.073	435.88
788.254	425.64
788.435	542.37
788.616	517.79
788.797	427.68
788.978	519.84
789.159	458.4
789.34	464.55
789.522	515.75
789.703	458.4
789.884	419.49
790.065	419.49
790.246	525.99
790.427	521.89
790.607	431.78
790.788	423.59
790.969	384.68
791.15	384.68
791.331	319.14
791.512	489.12
791.693	425.64
791.874	444.07
792.054	593.57
792.235	456.36
792.416	450.21
792.597	296.61
792.778	396.96
792.958	419.49
793.139	384.68
793.32	388.77
793.5	288.42
793.681	396.96
793.862	431.78
794.042	394.92
794.223	396.96
794.404	327.33
794.584	335.53
794.765	435.88
794.945	372.39
795.126	356.01
795.306	284.33
795.487	337.57
795.667	382.63
795.848	360.1
796.028	372.39
796.209	343.72
796.389	341.67
796.57	401.06
796.75	401.06
796.93	356.01
797.111	405.16
797.291	356.01
797.471	396.96
797.652	335.53
797.832	302.76
798.012	310.95
798.192	284.33
798.373	321.19
798.553	284.33
798.733	341.67
798.913	304.81
799.093	310.95
799.274	304.81
799.454	341.67
799.634	325.29
799.814	368.29
799.994	315.05
800.174	380.58
800.354	315.05
800.534	306.85
800.714	323.24
800.894	294.57
801.074	261.8
801.254	331.43
801.434	345.77
801.614	306.85
801.794	229.03
801.974	908.96
802.154	267.94
802.334	298.66
802.514	302.76
802.693	325.29
802.873	290.47
803.053	343.72
803.233	218.79
803.413	284.33
803.592	292.52
803.772	267.94
803.952	290.47
804.131	290.47
804.311	241.32
804.491	321.19
804.67	249.51
804.85	155.3
805.03	308.9
805.209	341.67
805.389	192.17
805.568	310.95
805.748	179.88
805.928	249.51
806.107	278.18
806.287	276.13
806.466	233.13
806.646	249.51
806.825	202.41
807.004	253.61
807.184	245.41
807.363	255.65
807.543	194.22
807.722	229.03
807.901	247.46
808.081	269.99
808.26	204.46
808.439	263.85
808.619	245.41
808.798	239.27
808.977	188.07
809.156	247.46
809.336	233.13
809.515	310.95
809.694	267.94
809.873	241.32
810.052	298.66
810.231	93.87
810.411	196.26
810.59	282.28
810.769	202.41
810.948	263.85
811.127	188.07
811.306	188.07
811.485	171.69
811.664	229.03
811.843	138.92
812.022	204.46
812.201	167.59
812.38	183.98
812.559	177.83
812.737	192.17
812.916	237.22
813.095	194.22
813.274	179.88
813.453	226.98
813.632	229.03
813.811	212.65
813.989	173.74
814.168	200.36
814.347	255.65
814.526	169.64
814.704	251.56
814.883	235.18
815.062	163.5
815.24	233.13
815.419	208.55
815.598	151.21
815.776	161.45
815.955	165.54
816.133	83.63
816.312	231.08
816.49	143.02
816.669	186.02
816.847	140.97
817.026	212.65
817.204	177.83
817.383	149.16
817.561	186.02
817.74	204.46
817.918	136.87
818.097	149.16
818.275	202.41
818.453	210.6
818.632	177.83
818.81	206.5
818.988	169.64
819.167	175.78
819.345	136.87
819.523	138.92
819.701	179.88
819.879	155.3
820.058	169.64
820.236	222.89
820.414	171.69
820.592	134.82
820.77	226.98
820.948	126.63
821.127	63.15
821.305	138.92
821.483	93.87
821.661	177.83
821.839	192.17
822.017	200.36
822.195	179.88
822.373	265.89
822.551	110.25
822.729	186.02
822.907	118.44
823.085	204.46
823.262	163.5
823.44	181.93
823.618	108.2
823.796	77.48
823.974	122.54
824.152	102.06
824.329	114.34
824.507	196.26
824.685	87.72
824.863	179.88
825.04	161.45
825.218	138.92
825.396	155.3
825.574	188.07
825.751	134.82
825.929	126.63
826.107	138.92
826.284	130.73
826.462	179.88
826.639	165.54
826.817	52.91
826.994	89.77
827.172	79.53
827.349	143.02
827.527	126.63
827.704	77.48
827.882	169.64
828.059	147.11
828.237	46.76
828.414	196.26
828.591	120.49
828.769	81.58
828.946	190.12
829.124	110.25
829.301	169.64
829.478	134.82
829.655	171.69
829.833	106.15
830.01	73.39
830.187	118.44
830.364	100.01
830.542	136.87
830.719	36.52
830.896	143.02
831.073	120.49
831.25	110.25
831.427	159.4
831.604	147.11
831.782	126.63
831.959	202.41
832.136	122.54
832.313	104.11
832.49	120.49
832.667	102.06
832.844	93.87
833.021	134.82
833.198	95.91
833.374	118.44
833.551	100.01
833.728	104.11
833.905	151.21
834.082	65.19
834.259	69.29
834.436	138.92
834.612	151.21
834.789	63.15
834.966	61.1
835.143	46.76
835.319	11.95
835.496	85.67
835.673	67.24
835.85	122.54
836.026	73.39
836.203	34.47
836.38	93.87
836.556	77.48
836.733	42.67
836.909	175.78
837.086	85.67
837.262	134.82
837.439	75.43
837.616	65.19
837.792	173.74
837.968	95.91
838.145	40.62
838.321	136.87
838.498	124.58
838.674	57
838.851	183.98
839.027	71.34
839.203	79.53
839.38	83.63
839.556	32.43
839.732	171.69
839.909	52.91
840.085	26.28
840.261	81.58
840.437	79.53
840.614	104.11
840.79	126.63
840.966	67.24
841.142	112.3
841.318	79.53
841.494	134.82
841.671	124.58
841.847	81.58
842.023	65.19
842.199	128.68
842.375	95.91
842.551	85.67
842.727	32.43
842.903	85.67
843.079	65.19
843.255	114.34
843.431	40.62
843.607	48.81
843.783	57
843.959	95.91
844.134	102.06
844.31	102.06
844.486	104.11
844.662	36.52
844.838	42.67
845.013	34.47
845.189	122.54
845.365	73.39
845.541	134.82
845.716	100.01
845.892	40.62
846.068	44.71
846.244	22.19
846.419	138.92
846.595	-2.39
846.77	89.77
846.946	73.39
847.122	69.29
847.297	138.92
847.473	204.46
847.648	-45.4
847.824	30.38
847.999	26.28
848.175	67.24
848.35	71.34
848.526	34.47
848.701	81.58
848.876	57
849.052	81.58
849.227	79.53
849.403	46.76
849.578	81.58
849.753	61.1
849.929	91.82
850.104	24.23
850.279	110.25
850.454	32.43
850.63	65.19
850.805	-0.34
850.98	-29.01
851.155	179.88
851.33	48.81
851.505	46.76
851.681	147.11
851.856	63.15
852.031	28.33
852.206	85.67
852.381	13.99
852.556	65.19
852.731	57
852.906	48.81
853.081	46.76
853.256	116.39
853.431	54.95
853.606	114.34
853.781	87.72
853.956	-14.68
854.131	102.06
854.305	40.62
854.48	7.85
854.655	116.39
854.83	3.75
855.005	54.95
855.18	61.1
855.354	79.53
855.529	69.29
855.704	-26.96
855.879	83.63
856.053	-4.44
856.228	20.14
856.403	57
856.577	-4.44
856.752	40.62
856.926	65.19
857.101	75.43
857.276	16.04
857.45	57
857.625	44.71
857.799	44.71
857.974	102.06
858.148	-8.53
858.323	85.67
858.497	26.28
858.672	44.71
858.846	5.8
859.02	-8.53
859.195	44.71
859.369	65.19
859.543	97.96
859.718	13.99
859.892	-2.39
860.066	73.39
860.241	69.29
860.415	71.34
860.589	61.1
860.763	-12.63
860.938	3.75
861.112	48.81
861.286	28.33
861.46	40.62
861.634	46.76
861.808	-0.34
861.982	50.86
862.157	7.85
862.331	75.43
862.505	63.15
862.679	-6.49
862.853	28.33
863.027	34.47
863.201	134.82
863.375	16.04
863.549	-8.53
863.722	-2.39
863.896	91.82
864.07	-29.01
864.244	93.87
864.418	63.15
864.592	75.43
864.766	69.29
864.939	65.19
865.113	69.29
865.287	83.63
865.461	16.04
865.634	71.34
865.808	69.29
865.982	85.67
866.156	13.99
866.329	67.24
866.503	18.09
866.676	81.58
866.85	18.09
867.024	-2.39
867.197	46.76
867.371	85.67
867.544	63.15
867.718	-0.34
867.891	3.75
868.065	61.1
868.238	48.81
868.412	67.24
868.585	69.29
868.759	48.81
868.932	9.9
869.105	18.09
869.279	-10.58
869.452	38.57
869.625	77.48
869.799	16.04
869.972	-47.44
870.145	24.23
870.319	34.47
870.492	44.71
870.665	-2.39
870.838	40.62
871.011	-12.63
871.185	11.95
871.358	65.19
871.531	20.14
871.704	81.58
871.877	65.19
872.05	-8.53
872.223	-41.3
872.396	97.96
872.569	83.63
872.742	46.76
872.915	118.44
873.088	24.23
873.261	3.75
873.434	40.62
873.607	16.04
873.78	32.43
873.953	-16.73
874.126	-18.77
874.299	20.14
874.471	83.63
874.644	57
874.817	-2.39
874.99	89.77
875.163	30.38
875.335	52.91
875.508	59.05
875.681	36.52
875.853	-0.34
876.026	5.8
876.199	71.34
876.371	83.63
876.544	20.14
876.717	36.52
876.889	22.19
877.062	79.53
877.234	20.14
877.407	20.14
877.579	36.52
877.752	3.75
877.924	3.75
878.097	9.9
878.269	18.09
878.442	52.91
878.614	34.47
878.786	13.99
878.959	40.62
879.131	46.76
879.303	-59.73
879.476	-41.3
879.648	52.91
879.82	34.47
879.993	40.62
880.165	-2.39
880.337	-0.34
880.509	30.38
880.681	38.57
880.854	-10.58
881.026	79.53
881.198	89.77
881.37	1.71
881.542	34.47
881.714	32.43
881.886	89.77
882.058	34.47
882.23	18.09
882.402	30.38
882.574	1.71
882.746	28.33
882.918	97.96
883.09	11.95
883.262	57
883.434	-2.39
883.606	9.9
883.778	-4.44
883.95	1.71
884.122	65.19
884.293	-45.4
884.465	54.95
884.637	38.57
884.809	-57.68
884.98	46.76
885.152	52.91
885.324	54.95
885.496	5.8
885.667	-0.34
885.839	18.09
886.011	79.53
886.182	69.29
886.354	50.86
886.525	22.19
886.697	-49.49
886.869	16.04
887.04	-2.39
887.212	65.19
887.383	83.63
887.555	24.23
887.726	38.57
887.897	-57.68
888.069	48.81
888.24	79.53
888.412	-45.4
888.583	22.19
888.754	-29.01
888.926	-4.44
889.097	-35.16
889.268	9.9
889.44	87.72
889.611	-51.54
889.782	-4.44
889.953	-57.68
890.125	112.3
890.296	-78.16
890.467	-0.34
890.638	11.95
890.809	67.24
890.98	11.95
891.151	69.29
891.323	73.39
891.494	3.75
891.665	16.04
891.836	13.99
892.007	40.62
892.178	65.19
892.349	11.95
892.52	7.85
892.691	32.43
892.862	1.71
893.032	32.43
893.203	13.99
893.374	30.38
893.545	42.67
893.716	-61.78
893.887	57
894.057	65.19
894.228	42.67
894.399	-16.73
894.57	73.39
894.74	-8.53
894.911	-24.92
895.082	20.14
895.253	11.95
895.423	-41.3
895.594	-14.68
895.764	-14.68
895.935	-22.87
896.106	18.09
896.276	-6.49
896.447	30.38
896.617	59.05
896.788	-2.39
896.958	63.15
897.129	-4.44
897.299	-18.77
897.47	38.57
897.64	-8.53
897.81	-29.01
897.981	30.38
898.151	34.47
898.322	20.14
898.492	-37.2
898.662	38.57
898.832	67.24
899.003	16.04
899.173	87.72
899.343	26.28
899.513	20.14
