Data from USB4F104151__281__10-42-09-043.txt Node

Date: Wed Mar 12 10:42:09 EDT 2025
User: louis
Spectrometer: USB4F10415
Trigger mode: 4
Integration Time (sec): 3.000000E-2
Scans to average: 1
Electric dark correction enabled: true
Nonlinearity correction enabled: false
Boxcar width: 0
XAxis mode: Wavelengths
Number of Pixels in Spectrum: 3648
>>>>>Begin Spectral Data<<<<<
178.204	-148.99
178.424	-148.99
178.644	-148.99
178.864	-85.5
179.084	-110.08
179.304	16.9
179.524	14.85
179.744	-24.06
179.964	-1.54
180.184	18.94
180.404	-3.58
180.624	-42.5
180.844	45.57
181.064	-17.92
181.283	37.38
181.503	6.66
181.723	-50.69
181.943	-34.3
182.163	111.1
182.383	2.56
182.602	20.99
182.822	64
183.042	27.14
183.262	-42.5
183.482	-79.36
183.701	-3.58
183.921	-13.82
184.141	45.57
184.361	2.56
184.58	-15.87
184.8	-5.63
185.02	-73.21
185.239	51.71
185.459	53.76
185.679	59.9
185.898	25.09
186.118	29.18
186.338	39.42
186.557	88.57
186.777	-36.35
186.997	18.94
187.216	-22.02
187.436	8.7
187.655	2.56
187.875	31.23
188.095	-71.17
188.314	39.42
188.534	25.09
188.753	-30.21
188.973	-60.93
189.192	27.14
189.412	14.85
189.631	37.38
189.851	14.85
190.07	4.61
190.29	-38.4
190.509	10.75
190.729	-32.26
190.948	123.39
191.168	98.81
191.387	35.33
191.607	-5.63
191.826	111.1
192.045	-17.92
192.265	6.66
192.484	43.52
192.704	61.95
192.923	-34.3
193.142	96.77
193.362	8.7
193.581	72.19
193.8	72.19
194.02	39.42
194.239	-15.87
194.458	68.09
194.678	-22.02
194.897	61.95
195.116	45.57
195.335	4.61
195.555	66.05
195.774	0.51
195.993	4.61
196.212	29.18
196.432	29.18
196.651	45.57
196.87	6.66
197.089	82.43
197.308	92.67
197.528	31.23
197.747	-9.73
197.966	-15.87
198.185	41.47
198.404	35.33
198.623	98.81
198.842	-5.63
199.062	45.57
199.281	90.62
199.5	94.72
199.719	29.18
199.938	45.57
200.157	-5.63
200.376	25.09
200.595	96.77
200.814	14.85
201.033	-26.11
201.252	82.43
201.471	27.14
201.69	16.9
201.909	61.95
202.128	39.42
202.347	6.66
202.566	78.33
202.785	2.56
203.004	41.47
203.223	98.81
203.442	23.04
203.661	20.99
203.879	29.18
204.098	8.7
204.317	4.61
204.536	-17.92
204.755	14.85
204.974	51.71
205.193	53.76
205.411	98.81
205.63	35.33
205.849	37.38
206.068	-7.68
206.287	4.61
206.505	27.14
206.724	39.42
206.943	55.81
207.162	2.56
207.381	10.75
207.599	-1.54
207.818	6.66
208.037	10.75
208.255	18.94
208.474	20.99
208.693	-32.26
208.911	-7.68
209.13	47.62
209.349	43.52
209.567	55.81
209.786	117.25
210.005	35.33
210.223	78.33
210.442	-19.97
210.661	-42.5
210.879	0.51
211.098	33.28
211.316	47.62
211.535	92.67
211.753	31.23
211.972	59.9
212.191	39.42
212.409	53.76
212.628	37.38
212.846	84.48
213.065	39.42
213.283	-1.54
213.502	2.56
213.72	10.75
213.938	-26.11
214.157	-26.11
214.375	72.19
214.594	-38.4
214.812	-34.3
215.031	74.24
215.249	-9.73
215.467	61.95
215.686	0.51
215.904	51.71
216.122	-26.11
216.341	57.86
216.559	14.85
216.778	72.19
216.996	82.43
217.214	141.82
217.432	90.62
217.651	10.75
217.869	-9.73
218.087	2.56
218.306	-52.74
218.524	88.57
218.742	18.94
218.96	27.14
219.179	20.99
219.397	43.52
219.615	53.76
219.833	-17.92
220.051	-1.54
220.27	33.28
220.488	10.75
220.706	-34.3
220.924	14.85
221.142	-30.21
221.36	137.73
221.578	20.99
221.796	23.04
222.015	2.56
222.233	111.1
222.451	31.23
222.669	88.57
222.887	-17.92
223.105	18.94
223.323	47.62
223.541	72.19
223.759	47.62
223.977	-54.78
224.195	18.94
224.413	94.72
224.631	117.25
224.849	64
225.067	88.57
225.285	23.04
225.503	31.23
225.721	-67.07
225.939	-5.63
226.157	37.38
226.375	113.15
226.592	-62.98
226.81	29.18
227.028	27.14
227.246	74.24
227.464	2.56
227.682	123.39
227.9	68.09
228.117	84.48
228.335	20.99
228.553	57.86
228.771	-5.63
228.989	14.85
229.206	47.62
229.424	23.04
229.642	33.28
229.86	35.33
230.077	55.81
230.295	45.57
230.513	10.75
230.731	45.57
230.948	43.52
231.166	66.05
231.384	41.47
231.601	27.14
231.819	96.77
232.037	-5.63
232.254	64
232.472	55.81
232.689	96.77
232.907	18.94
233.125	80.38
233.342	47.62
233.56	55.81
233.777	-17.92
233.995	55.81
234.213	102.91
234.43	29.18
234.648	-11.78
234.865	100.86
235.083	45.57
235.3	-24.06
235.518	53.76
235.735	49.66
235.953	57.86
236.17	-54.78
236.388	14.85
236.605	43.52
236.822	78.33
237.04	127.49
237.257	-75.26
237.475	-5.63
237.692	-17.92
237.909	25.09
238.127	20.99
238.344	23.04
238.562	51.71
238.779	-1.54
238.996	39.42
239.214	-52.74
239.431	96.77
239.648	64
239.865	107.01
240.083	70.14
240.3	2.56
240.517	31.23
240.735	35.33
240.952	49.66
241.169	88.57
241.386	61.95
241.603	-17.92
241.821	2.56
242.038	-52.74
242.255	2.56
242.472	25.09
242.689	68.09
242.907	27.14
243.124	39.42
243.341	-50.69
243.558	43.52
243.775	45.57
243.992	2.56
244.209	43.52
244.426	10.75
244.643	37.38
244.86	-24.06
245.078	74.24
245.295	27.14
245.512	64
245.729	43.52
245.946	31.23
246.163	12.8
246.38	29.18
246.597	-11.78
246.814	0.51
247.031	23.04
247.248	18.94
247.464	6.66
247.681	102.91
247.898	27.14
248.115	-13.82
248.332	-13.82
248.549	88.57
248.766	102.91
248.983	8.7
249.2	55.81
249.417	70.14
249.633	-15.87
249.85	-9.73
250.067	72.19
250.284	61.95
250.501	-22.02
250.717	78.33
250.934	39.42
251.151	20.99
251.368	53.76
251.585	-42.5
251.801	53.76
252.018	47.62
252.235	117.25
252.451	14.85
252.668	20.99
252.885	96.77
253.102	35.33
253.318	8.7
253.535	37.38
253.752	35.33
253.968	51.71
254.185	20.99
254.401	51.71
254.618	-5.63
254.835	25.09
255.051	80.38
255.268	100.86
255.484	55.81
255.701	80.38
255.917	-3.58
256.134	-36.35
256.351	-3.58
256.567	-11.78
256.784	43.52
257	-3.58
257.217	20.99
257.433	39.42
257.65	16.9
257.866	98.81
258.082	-13.82
258.299	41.47
258.515	35.33
258.732	-7.68
258.948	14.85
259.165	14.85
259.381	-17.92
259.597	47.62
259.814	12.8
260.03	53.76
260.246	88.57
260.463	39.42
260.679	80.38
260.895	12.8
261.112	82.43
261.328	14.85
261.544	45.57
261.761	74.24
261.977	-5.63
262.193	2.56
262.409	59.9
262.626	37.38
262.842	104.96
263.058	-7.68
263.274	80.38
263.49	-3.58
263.707	80.38
263.923	51.71
264.139	-17.92
264.355	10.75
264.571	92.67
264.787	66.05
265.004	88.57
265.22	55.81
265.436	25.09
265.652	47.62
265.868	27.14
266.084	8.7
266.3	41.47
266.516	4.61
266.732	18.94
266.948	57.86
267.164	31.23
267.38	90.62
267.596	70.14
267.812	66.05
268.028	20.99
268.244	23.04
268.46	80.38
268.676	-11.78
268.892	82.43
269.108	-79.36
269.324	14.85
269.54	72.19
269.756	47.62
269.972	-30.21
270.188	74.24
270.403	-22.02
270.619	29.18
270.835	27.14
271.051	-11.78
271.267	-13.82
271.483	49.66
271.698	59.9
271.914	4.61
272.13	43.52
272.346	-44.54
272.562	12.8
272.777	90.62
272.993	39.42
273.209	51.71
273.425	-5.63
273.64	-67.07
273.856	23.04
274.072	-11.78
274.287	37.38
274.503	61.95
274.719	51.71
274.934	80.38
275.15	-19.97
275.366	-58.88
275.581	18.94
275.797	20.99
276.012	61.95
276.228	-1.54
276.444	4.61
276.659	98.81
276.875	-46.59
277.09	51.71
277.306	4.61
277.521	31.23
277.737	23.04
277.952	27.14
278.168	-9.73
278.383	-38.4
278.599	-1.54
278.814	76.29
279.03	55.81
279.245	16.9
279.461	104.96
279.676	39.42
279.892	-22.02
280.107	-30.21
280.322	6.66
280.538	23.04
280.753	-3.58
280.969	31.23
281.184	-9.73
281.399	29.18
281.615	90.62
281.83	29.18
282.045	16.9
282.26	-62.98
282.476	49.66
282.691	80.38
282.906	68.09
283.122	20.99
283.337	12.8
283.552	80.38
283.767	27.14
283.983	35.33
284.198	59.9
284.413	51.71
284.628	-34.3
284.843	27.14
285.058	47.62
285.274	51.71
285.489	113.15
285.704	68.09
285.919	-3.58
286.134	-26.11
286.349	72.19
286.564	45.57
286.779	111.1
286.995	74.24
287.21	-36.35
287.425	59.9
287.64	61.95
287.855	92.67
288.07	23.04
288.285	57.86
288.5	47.62
288.715	68.09
288.93	2.56
289.145	-9.73
289.36	25.09
289.575	59.9
289.79	92.67
290.004	41.47
290.219	31.23
290.434	20.99
290.649	-7.68
290.864	45.57
291.079	10.75
291.294	74.24
291.509	47.62
291.724	-5.63
291.938	47.62
292.153	143.87
292.368	10.75
292.583	6.66
292.798	14.85
293.012	2.56
293.227	78.33
293.442	64
293.657	92.67
293.871	84.48
294.086	20.99
294.301	82.43
294.516	29.18
294.73	68.09
294.945	23.04
295.16	43.52
295.374	78.33
295.589	68.09
295.804	23.04
296.018	107.01
296.233	76.29
296.447	10.75
296.662	72.19
296.877	80.38
297.091	-11.78
297.306	64
297.52	49.66
297.735	98.81
297.949	-13.82
298.164	86.53
298.378	-11.78
298.593	45.57
298.807	-28.16
299.022	92.67
299.236	6.66
299.451	-17.92
299.665	18.94
299.88	55.81
300.094	31.23
300.309	35.33
300.523	-38.4
300.737	88.57
300.952	12.8
301.166	6.66
301.381	55.81
301.595	61.95
301.809	102.91
302.024	16.9
302.238	-30.21
302.452	31.23
302.667	-5.63
302.881	104.96
303.095	49.66
303.309	51.71
303.524	-11.78
303.738	80.38
303.952	82.43
304.166	64
304.381	18.94
304.595	78.33
304.809	37.38
305.023	55.81
305.237	86.53
305.452	29.18
305.666	80.38
305.88	92.67
306.094	12.8
306.308	109.05
306.522	78.33
306.736	39.42
306.95	47.62
307.164	18.94
307.379	57.86
307.593	127.49
307.807	29.18
308.021	82.43
308.235	104.96
308.449	-28.16
308.663	18.94
308.877	156.16
309.091	14.85
309.305	18.94
309.519	18.94
309.733	115.2
309.947	37.38
310.161	25.09
310.374	78.33
310.588	113.15
310.802	14.85
311.016	23.04
311.23	143.87
311.444	-30.21
311.658	94.72
311.872	61.95
312.085	64
312.299	61.95
312.513	43.52
312.727	39.42
312.941	35.33
313.154	68.09
313.368	6.66
313.582	45.57
313.796	-17.92
314.009	-50.69
314.223	59.9
314.437	78.33
314.651	107.01
314.864	4.61
315.078	68.09
315.292	27.14
315.505	-62.98
315.719	70.14
315.933	25.09
316.146	72.19
316.36	45.57
316.573	35.33
316.787	-9.73
317.001	59.9
317.214	39.42
317.428	74.24
317.641	-3.58
317.855	23.04
318.068	82.43
318.282	-28.16
318.495	70.14
318.709	10.75
318.922	-34.3
319.136	37.38
319.349	25.09
319.563	41.47
319.776	-3.58
319.99	31.23
320.203	59.9
320.417	14.85
320.63	125.44
320.843	109.05
321.057	-1.54
321.27	57.86
321.483	2.56
321.697	72.19
321.91	64
322.124	2.56
322.337	80.38
322.55	20.99
322.763	12.8
322.977	33.28
323.19	-3.58
323.403	-15.87
323.617	64
323.83	59.9
324.043	29.18
324.256	66.05
324.469	23.04
324.683	86.53
324.896	14.85
325.109	47.62
325.322	43.52
325.535	98.81
325.748	29.18
325.962	25.09
326.175	53.76
326.388	92.67
326.601	57.86
326.814	76.29
327.027	66.05
327.24	10.75
327.453	-50.69
327.666	61.95
327.879	45.57
328.092	70.14
328.305	20.99
328.518	113.15
328.731	-17.92
328.944	37.38
329.157	2.56
329.37	61.95
329.583	49.66
329.796	78.33
330.009	8.7
330.222	14.85
330.435	-5.63
330.648	59.9
330.861	47.62
331.073	61.95
331.286	57.86
331.499	115.2
331.712	70.14
331.925	70.14
332.138	92.67
332.35	64
332.563	27.14
332.776	109.05
332.989	35.33
333.202	43.52
333.414	55.81
333.627	27.14
333.84	45.57
334.053	94.72
334.265	-50.69
334.478	43.52
334.691	43.52
334.903	-9.73
335.116	-81.41
335.329	76.29
335.541	113.15
335.754	51.71
335.966	4.61
336.179	23.04
336.392	20.99
336.604	66.05
336.817	-30.21
337.029	14.85
337.242	4.61
337.454	135.68
337.667	70.14
337.88	90.62
338.092	45.57
338.305	66.05
338.517	-28.16
338.729	72.19
338.942	88.57
339.154	35.33
339.367	-3.58
339.579	55.81
339.792	41.47
340.004	14.85
340.217	64
340.429	43.52
340.641	33.28
340.854	78.33
341.066	53.76
341.278	8.7
341.491	33.28
341.703	41.47
341.915	-89.6
342.128	158.21
342.34	61.95
342.552	-17.92
342.764	37.38
342.977	16.9
343.189	53.76
343.401	2.56
343.613	-46.59
343.826	39.42
344.038	51.71
344.25	25.09
344.462	51.71
344.674	90.62
344.886	4.61
345.099	57.86
345.311	102.91
345.523	-17.92
345.735	-7.68
345.947	31.23
346.159	53.76
346.371	2.56
346.583	14.85
346.795	47.62
347.007	78.33
347.219	111.1
347.431	78.33
347.643	43.52
347.855	68.09
348.067	92.67
348.279	31.23
348.491	49.66
348.703	-7.68
348.915	23.04
349.127	74.24
349.339	61.95
349.551	43.52
349.763	29.18
349.975	4.61
350.187	137.73
350.399	66.05
350.61	143.87
350.822	2.56
351.034	31.23
351.246	43.52
351.458	23.04
351.669	68.09
351.881	102.91
352.093	94.72
352.305	51.71
352.517	8.7
352.728	76.29
352.94	82.43
353.152	14.85
353.363	70.14
353.575	66.05
353.787	51.71
353.999	53.76
354.21	-1.54
354.422	29.18
354.633	47.62
354.845	92.67
355.057	47.62
355.268	14.85
355.48	-3.58
355.692	-40.45
355.903	70.14
356.115	33.28
356.326	27.14
356.538	86.53
356.749	90.62
356.961	115.2
357.172	68.09
357.384	47.62
357.595	-30.21
357.807	64
358.018	-19.97
358.23	53.76
358.441	4.61
358.653	29.18
358.864	96.77
359.075	31.23
359.287	98.81
359.498	98.81
359.709	59.9
359.921	88.57
360.132	80.38
360.344	49.66
360.555	31.23
360.766	55.81
360.977	12.8
361.189	12.8
361.4	2.56
361.611	-7.68
361.823	59.9
362.034	74.24
362.245	64
362.456	107.01
362.667	39.42
362.879	41.47
363.09	66.05
363.301	-5.63
363.512	47.62
363.723	29.18
363.935	49.66
364.146	84.48
364.357	47.62
364.568	100.86
364.779	8.7
364.99	131.58
365.201	-34.3
365.412	18.94
365.623	-17.92
365.834	68.09
366.045	53.76
366.256	37.38
366.467	66.05
366.678	119.29
366.889	74.24
367.1	31.23
367.311	94.72
367.522	31.23
367.733	59.9
367.944	92.67
368.155	-19.97
368.366	90.62
368.577	100.86
368.788	57.86
368.999	-1.54
369.209	109.05
369.42	53.76
369.631	141.82
369.842	59.9
370.053	80.38
370.264	72.19
370.474	43.52
370.685	94.72
370.896	55.81
371.107	39.42
371.317	25.09
371.528	64
371.739	20.99
371.95	51.71
372.16	121.34
372.371	64
372.582	68.09
372.792	31.23
373.003	78.33
373.214	64
373.424	14.85
373.635	90.62
373.846	104.96
374.056	53.76
374.267	80.38
374.477	92.67
374.688	14.85
374.898	37.38
375.109	51.71
375.319	92.67
375.53	61.95
375.74	47.62
375.951	-13.82
376.161	88.57
376.372	27.14
376.582	-9.73
376.793	137.73
377.003	64
377.214	20.99
377.424	31.23
377.635	37.38
377.845	72.19
378.055	102.91
378.266	29.18
378.476	53.76
378.686	-19.97
378.897	59.9
379.107	55.81
379.317	39.42
379.528	29.18
379.738	27.14
379.948	39.42
380.158	109.05
380.369	74.24
380.579	55.81
380.789	47.62
380.999	53.76
381.21	88.57
381.42	98.81
381.63	139.77
381.84	47.62
382.05	86.53
382.261	113.15
382.471	31.23
382.681	111.1
382.891	84.48
383.101	100.86
383.311	2.56
383.521	94.72
383.731	59.9
383.941	43.52
384.151	66.05
384.361	78.33
384.571	25.09
384.781	68.09
384.991	80.38
385.201	145.92
385.411	6.66
385.621	51.71
385.831	84.48
386.041	47.62
386.251	86.53
386.461	94.72
386.671	-5.63
386.881	64
387.091	-17.92
387.301	139.77
387.511	61.95
387.72	145.92
387.93	70.14
388.14	64
388.35	68.09
388.56	158.21
388.769	156.16
388.979	88.57
389.189	43.52
389.399	74.24
389.609	94.72
389.818	92.67
390.028	57.86
390.238	100.86
390.447	104.96
390.657	96.77
390.867	84.48
391.076	57.86
391.286	109.05
391.496	129.53
391.705	76.29
391.915	129.53
392.125	37.38
392.334	125.44
392.544	107.01
392.753	45.57
392.963	78.33
393.172	39.42
393.382	109.05
393.591	80.38
393.801	66.05
394.01	115.2
394.22	127.49
394.429	102.91
394.639	78.33
394.848	100.86
395.058	145.92
395.267	92.67
395.477	123.39
395.686	51.71
395.895	143.87
396.105	182.78
396.314	82.43
396.524	104.96
396.733	111.1
396.942	104.96
397.152	180.73
397.361	121.34
397.57	92.67
397.78	119.29
397.989	125.44
398.198	168.45
398.407	172.54
398.617	55.81
398.826	84.48
399.035	147.97
399.244	109.05
399.453	90.62
399.663	86.53
399.872	137.73
400.081	156.16
400.29	133.63
400.499	80.38
400.708	158.21
400.917	162.3
401.127	141.82
401.336	100.86
401.545	186.88
401.754	102.91
401.963	111.1
402.172	201.21
402.381	141.82
402.59	96.77
402.799	78.33
403.008	143.87
403.217	86.53
403.426	184.83
403.635	156.16
403.844	166.4
404.053	199.16
404.262	100.86
404.471	205.31
404.68	168.45
404.888	199.16
405.097	92.67
405.306	209.4
405.515	193.02
405.724	186.88
405.933	211.45
406.142	217.6
406.35	186.88
406.559	209.4
406.768	244.22
406.977	246.27
407.185	184.83
407.394	238.08
407.603	225.79
407.812	307.71
408.02	258.56
408.229	352.76
408.438	264.7
408.646	276.99
408.855	328.19
409.064	326.14
409.272	254.46
409.481	393.72
409.69	272.89
409.898	311.8
410.107	365.05
410.315	322.04
410.524	373.24
410.733	403.96
410.941	451.07
411.15	453.11
411.358	412.15
411.567	471.54
411.775	385.53
411.984	393.72
412.192	565.75
412.401	455.16
412.609	539.13
412.818	674.29
413.026	596.47
413.234	565.75
413.443	561.66
413.651	729.59
413.86	700.92
414.068	852.47
414.276	711.16
414.485	664.05
414.693	784.88
414.901	842.23
415.11	825.84
415.318	799.22
415.526	877.04
415.734	811.51
415.943	954.87
416.151	948.72
416.359	1014.26
416.567	1034.74
416.776	1094.13
416.984	1159.66
417.192	1100.27
417.4	1083.89
417.608	1180.14
417.817	1247.72
418.025	1296.88
418.233	1257.96
418.441	1382.89
418.649	1413.61
418.857	1466.86
419.065	1626.6
419.273	1503.72
419.481	1606.12
419.689	1708.52
419.897	1765.86
420.105	1843.68
420.313	1858.02
420.521	1823.2
420.729	2003.43
420.937	1978.85
421.145	2111.97
421.353	2157.02
421.561	2277.85
421.769	2261.47
421.977	2380.25
422.185	2417.12
422.393	2464.22
422.601	2705.88
422.809	2767.32
423.017	2791.89
423.224	2925.01
423.432	3113.42
423.64	2918.87
423.848	3262.93
424.056	3142.1
424.263	3492.3
424.471	3525.07
424.679	3449.29
424.887	3709.38
425.094	3899.84
425.302	3809.73
425.51	3828.17
425.718	4016.58
425.925	4086.21
426.133	4460.99
426.341	4442.56
426.548	4878.77
426.756	4815.29
426.964	4848.05
427.171	5177.78
427.379	5353.9
427.586	5403.05
427.794	5419.44
428.001	5749.16
428.209	6089.12
428.417	6009.25
428.624	6298.02
428.832	6259.1
429.039	6181.28
429.247	6265.25
429.454	6795.67
429.662	7215.51
429.869	6666.65
430.076	7346.58
430.284	7186.83
430.491	7496.08
430.699	7971.21
430.906	7778.7
431.114	8065.41
431.321	8259.97
431.528	8470.91
431.736	8855.93
431.943	9451.89
432.15	9136.5
432.358	9245.04
432.565	9593.2
432.772	9767.27
432.979	10309.99
433.187	10244.45
433.394	10539.36
433.601	11090.26
433.808	10869.08
434.016	11094.36
434.223	11716.94
434.43	12509.51
434.637	12071.24
434.844	12591.42
435.052	13277.49
435.259	12824.89
435.466	13271.35
435.673	12876.09
435.88	13764.91
436.087	14514.47
436.294	14358.82
436.501	14102.82
436.708	14676.26
436.915	14799.13
437.122	15849.74
437.329	15614.23
437.537	15941.9
437.743	16261.38
437.95	16050.44
438.157	16965.89
438.364	17475.83
438.571	17432.82
438.778	17682.67
438.985	19386.58
439.192	18585.83
439.399	19149.02
439.606	19030.24
439.813	20033.74
440.02	21096.64
440.227	20732.1
440.433	20453.58
440.64	21391.55
440.847	21070.01
441.054	21377.21
441.261	22741.16
441.467	22544.55
441.674	23218.33
441.881	23998.61
442.088	23920.79
442.294	23621.78
442.501	24395.92
442.708	25067.65
442.914	25968.76
443.121	26820.71
443.328	26210.42
443.534	27830.36
443.741	27175.01
443.948	26806.37
444.154	29053
444.361	28643.4
444.568	28856.39
444.774	29032.52
444.981	29055.04
445.187	30072.89
445.394	31332.39
445.6	30650.41
445.807	33837.05
446.013	32532.5
446.22	32790.54
446.426	34052.09
446.633	34091
446.839	35938.27
447.046	34045.94
447.252	36138.97
447.459	36042.71
447.665	35940.32
447.871	37040.07
448.078	38748.08
448.284	36997.07
448.491	37810.11
448.697	39407.53
448.903	39827.36
449.11	40265.63
449.316	39546.79
449.522	39964.57
449.728	41025.42
449.935	41592.71
450.141	41295.75
450.347	42397.56
450.553	40845.2
450.76	41275.27
450.966	42585.97
451.172	42106.75
451.378	42934.13
451.584	42133.37
451.791	43229.04
451.997	42864.5
452.203	44003.17
452.409	43503.46
452.615	43200.36
452.821	41748.35
453.027	41224.07
453.233	43388.78
453.44	41385.86
453.646	41975.68
453.852	42551.16
454.058	42704.76
454.264	41471.88
454.47	42076.03
454.676	41291.66
454.882	42581.88
455.088	39221.16
455.294	39399.33
455.5	39548.84
455.705	40458.13
455.911	38731.7
456.117	37924.8
456.323	37646.27
456.529	35295.21
456.735	36976.59
456.941	35336.16
457.147	35129.32
457.352	33742.85
457.558	33548.29
457.764	34062.33
457.97	32847.88
458.176	32272.4
458.381	32239.64
458.587	30973.99
458.793	30707.76
458.999	29073.48
459.204	31121.45
459.41	30455.86
459.616	28446.8
459.821	28299.34
460.027	28510.28
460.233	27768.92
460.438	26329.2
460.644	26497.13
460.85	25626.74
461.055	25489.53
461.261	24768.65
461.466	23365.79
461.672	22349.99
461.878	24219.79
462.083	22745.25
462.289	22079.66
462.494	21971.12
462.7	21086.4
462.905	20390.09
463.111	21059.77
463.316	21522.62
463.522	20928.7
463.727	21022.91
463.932	20586.69
464.138	20676.8
464.343	20697.28
464.549	19970.26
464.754	20883.65
464.959	20560.07
465.165	20809.92
465.37	19542.23
465.575	18952.41
465.781	19953.87
465.986	19935.44
466.191	19370.2
466.397	18839.78
466.602	18536.68
466.807	18835.68
467.012	18790.63
467.218	18847.97
467.423	18421.99
467.628	18522.34
467.833	19208.41
468.038	18815.2
468.244	18317.54
468.449	18786.53
468.654	18215.15
468.859	18137.32
469.064	17953.01
469.269	17553.65
469.474	17336.57
469.679	17748.21
469.885	17172.73
470.09	17418.49
470.295	17361.14
470.5	17031.42
470.705	17242.36
470.91	16662.79
471.115	16505.09
471.32	16800
471.525	16523.52
471.73	16201.99
471.935	16204.04
472.139	15796.49
472.344	15591.7
472.549	15800.59
472.754	15595.79
472.959	15264.02
473.164	14965.02
473.369	14729.5
473.574	15259.93
473.778	15167.77
473.983	14858.53
474.188	14739.74
474.393	14377.25
474.598	14287.14
474.802	14078.25
475.007	13971.75
475.212	14061.87
475.417	13451.57
475.621	13558.07
475.826	13613.36
476.031	13398.32
476.235	13101.37
476.44	13564.21
476.645	12929.34
476.849	13265.21
477.054	13027.64
477.259	12607.81
477.463	12796.22
477.668	12417.35
477.872	12538.18
478.077	12429.63
478.282	12185.93
478.486	12257.6
478.691	12091.72
478.895	11962.7
479.1	11927.88
479.304	12067.14
479.509	11475.28
479.713	11919.69
479.918	11690.32
480.122	11295.06
480.326	11581.78
480.531	11549.01
480.735	11196.76
480.94	11372.88
481.144	11413.84
481.348	11241.81
481.553	11176.28
481.757	11290.96
481.961	11295.06
482.166	11268.44
482.37	11010.39
482.574	11082.07
482.778	11245.91
482.983	11467.09
483.187	11440.47
483.391	11301.2
483.595	11254.1
483.8	10944.86
484.004	11041.11
484.208	11290.96
484.412	11084.12
484.616	11223.38
484.821	11217.24
485.025	11116.89
485.229	11237.72
485.433	11110.74
485.637	11102.55
485.841	11075.93
486.045	11200.85
486.249	11254.1
486.453	10817.88
486.657	11354.45
486.861	11037.02
487.065	10840.41
487.269	11059.54
487.473	10926.43
487.677	11235.67
487.881	11207
488.085	11082.07
488.289	11258.2
488.493	10848.6
488.697	11202.9
488.901	11080.02
489.105	11233.62
489.309	11422.03
489.512	11190.61
489.716	11385.17
489.92	11456.85
490.124	11397.46
490.328	11729.23
490.531	11426.13
490.735	11589.97
490.939	11536.72
491.143	11665.74
491.346	11372.88
491.55	11585.87
491.754	11667.79
491.958	11831.63
492.161	11759.95
492.365	11979.08
492.569	11974.99
492.772	12048.71
492.976	11972.94
493.18	12130.63
493.383	12181.83
493.587	12214.6
493.79	12446.02
493.994	12173.64
494.197	12542.27
494.401	12433.73
494.605	12433.73
494.808	12718.4
495.012	13076.79
495.215	12992.83
495.419	13224.25
495.622	12876.09
495.825	13297.97
496.029	13119.8
496.232	13766.96
496.436	13187.38
496.639	13756.72
496.843	13568.3
497.046	13977.9
497.249	14205.22
497.453	14129.45
497.656	14405.92
497.859	14233.89
498.063	14500.13
498.266	14922.01
498.469	14725.41
498.673	14946.59
498.876	15284.5
499.079	15483.16
499.282	15227.16
499.485	15583.51
499.689	15937.8
499.892	16066.83
500.095	16087.31
500.298	16380.17
500.501	16224.52
500.705	16937.21
500.908	16980.22
501.111	17197.31
501.314	17359.1
501.517	17621.24
501.72	17699.06
501.923	17627.38
502.126	17985.77
502.329	18116.84
502.532	18290.92
502.735	18727.14
502.938	18899.17
503.141	19011.81
503.344	19284.19
503.547	19124.44
503.75	19265.75
503.953	19878.1
504.156	20031.69
504.359	20154.57
504.562	20326.6
504.765	20822.21
504.968	20697.28
505.17	21246.14
505.373	21014.72
505.576	21536.95
505.779	21526.71
505.982	21670.07
506.185	22378.67
506.387	22419.63
506.59	22657.19
506.793	23019.68
506.996	22925.47
507.198	23546.01
507.401	23316.64
507.604	23785.62
507.807	24164.5
508.009	24414.35
508.212	24293.52
508.415	24895.62
508.617	25137.28
508.82	25094.27
509.022	25135.23
509.225	25880.69
509.428	26179.7
509.63	26214.51
509.833	26249.33
510.035	26808.42
510.238	26734.7
510.44	27209.82
510.643	27424.86
510.845	28014.68
511.048	27551.84
511.25	28278.86
511.453	28360.78
511.655	29081.67
511.858	28717.13
512.06	29083.72
512.262	29530.17
512.465	29790.27
512.667	30283.83
512.87	30038.07
513.072	30363.7
513.274	30892.07
513.477	31141.92
513.679	31666.2
513.881	31502.37
514.084	32231.44
514.286	31942.68
514.488	32317.46
514.69	32929.8
514.893	32948.23
515.095	33073.16
515.297	33863.68
515.499	33939.45
515.701	34402.29
515.904	34652.14
516.106	34772.97
516.308	35186.66
516.51	35635.17
516.712	35581.92
516.914	36200.41
517.116	36497.36
517.318	36534.23
517.52	36753.36
517.722	36650.96
517.925	37519.3
518.127	37756.86
518.329	37691.33
518.531	37558.21
518.733	38592.44
518.935	38875.05
519.136	38807.47
519.338	39628.71
519.54	39618.47
519.742	40198.04
519.944	39708.58
520.146	41023.37
520.348	40904.59
520.55	40722.32
520.752	41392.01
520.954	42190.72
521.155	41938.82
521.357	42112.89
521.559	42332.03
521.761	43124.59
521.963	43196.27
522.164	43034.48
522.366	43394.92
522.568	43972.45
522.77	44052.32
522.971	44848.98
523.173	44560.22
523.375	44701.53
523.576	44511.06
523.778	44547.93
523.98	45453.13
524.181	45729.61
524.383	45567.82
524.584	46227.26
524.786	46450.49
524.988	45875.01
525.189	46622.52
525.391	46667.58
525.592	47187.76
525.794	46970.68
525.995	46964.53
526.197	47238.96
526.398	47650.6
526.6	47920.93
526.801	47804.2
527.003	48185.12
527.204	47877.93
527.406	48449.31
527.607	48496.41
527.808	49153.81
528.01	48181.02
528.211	48402.21
528.412	49565.45
528.614	49833.74
528.815	49454.86
529.016	49647.37
529.218	49180.43
529.419	49307.41
529.62	49608.46
529.822	49397.52
530.023	49485.58
530.224	50001.67
530.425	49465.1
530.626	49708.81
530.828	49610.51
531.029	50757.37
531.23	49760.01
531.431	50226.95
531.632	50061.06
531.833	50648.83
532.035	50106.12
532.236	49725.19
532.437	50564.86
532.638	50061.06
532.839	50560.76
533.04	50935.54
533.241	50001.67
533.442	51199.73
533.643	50280.19
533.844	50718.46
534.045	50925.3
534.246	50437.89
534.447	50681.59
534.648	50790.14
534.849	50605.82
535.05	49950.47
535.251	50822.9
535.451	50685.69
535.652	50667.26
535.853	50597.63
536.054	51054.32
536.255	50941.69
536.456	50605.82
536.657	51375.86
536.857	50552.57
537.058	50712.31
537.259	50908.92
537.46	51228.4
537.66	51050.23
537.861	50487.04
538.062	50687.74
538.263	50732.79
538.463	50695.93
538.664	50495.23
538.865	50409.21
539.065	51089.14
539.266	50491.13
539.466	50972.41
539.667	50212.61
539.868	51099.38
540.068	50777.85
540.269	50349.82
540.469	51078.9
540.67	50284.29
540.87	50851.58
541.071	50454.27
541.271	50904.82
541.472	50683.64
541.672	50732.79
541.873	51019.51
542.073	50136.83
542.274	50994.93
542.474	50521.85
542.675	49852.17
542.875	51226.35
543.075	50568.96
543.276	49479.44
543.476	50982.65
543.676	50175.75
543.877	50192.13
544.077	50495.23
544.277	50616.06
544.478	50407.17
544.678	50534.14
544.878	50280.19
545.078	50499.33
545.279	50339.58
545.479	50140.93
545.679	50290.43
545.879	50851.58
546.079	50220.8
546.28	50568.96
546.48	49946.37
546.68	50525.95
546.88	51068.66
547.08	50913.02
547.28	50061.06
547.48	49678.09
547.68	50128.64
547.88	50075.4
548.081	50362.11
548.281	50738.94
548.481	50253.57
548.681	50454.27
548.881	50366.21
549.081	50202.37
549.28	50007.81
549.48	50837.24
549.68	50288.38
549.88	50687.74
550.08	50122.5
550.28	50093.83
550.48	49745.67
550.68	49923.85
550.88	49581.84
551.08	49800.97
551.279	50075.4
551.479	49653.51
551.679	49956.61
551.879	49946.37
552.079	50384.64
552.278	49338.13
552.478	49905.41
552.678	49977.09
552.878	50126.6
553.077	49778.44
553.277	49641.23
553.477	50388.74
553.676	49479.44
553.876	49604.36
554.076	49657.61
554.275	49600.27
554.475	49059.6
554.674	49782.54
554.874	49669.9
555.074	49626.89
555.273	49981.19
555.473	49934.09
555.672	49065.75
555.872	49516.3
556.071	49344.27
556.271	49573.64
556.47	49137.43
556.67	49071.89
556.869	48885.53
557.068	49348.37
557.268	49094.42
557.467	49213.2
557.667	49418
557.866	49028.88
558.065	48656.15
558.265	48973.59
558.464	48455.45
558.663	49286.93
558.863	48633.63
559.062	49495.82
559.261	48680.73
559.461	48805.66
559.66	48154.4
559.859	48940.82
560.058	48357.15
560.258	48742.17
560.457	48262.94
560.656	48391.97
560.855	48117.54
561.054	48508.7
561.253	47861.54
561.453	48135.97
561.652	48312.09
561.851	48455.45
562.05	47955.75
562.249	47742.76
562.448	47929.12
562.647	48021.28
562.846	47908.64
563.045	47697.7
563.244	47513.39
563.443	48154.4
563.642	47597.35
563.841	47361.84
564.04	47286.06
564.239	47959.84
564.438	47105.84
564.637	47228.72
564.836	47331.12
565.035	46864.18
565.234	47001.39
565.432	46921.52
565.631	47083.31
565.83	46847.8
566.029	46346.04
566.228	46835.51
566.427	46212.93
566.625	46370.62
566.824	45985.6
567.023	46460.73
567.222	45875.01
567.42	46350.14
567.619	45891.4
567.818	46122.82
568.016	45741.89
568.215	46094.14
568.414	45588.3
568.612	46382.91
568.811	45647.69
569.01	45756.23
569.208	45164.37
569.407	45905.73
569.605	45221.71
569.804	45313.87
570.002	44984.15
570.201	45160.27
570.4	44676.95
570.598	44969.81
570.797	44836.69
570.995	44769.11
571.193	44402.52
571.392	45033.3
571.59	44201.82
571.789	44224.35
571.987	44287.84
572.186	44349.28
572.384	43892.58
572.582	44234.59
572.781	44121.95
572.979	43652.97
573.177	43839.33
573.376	44040.03
573.574	43220.84
573.772	43771.75
573.971	43499.37
574.169	43292.52
574.367	42884.98
574.565	43769.7
574.763	43169.65
574.962	43147.12
575.16	42504.06
575.358	43386.73
575.556	42239.87
575.754	43243.37
575.952	42639.22
576.151	42608.5
576.349	42043.26
576.547	42391.42
576.745	42682.23
576.943	42299.26
577.141	41928.58
577.339	42246.01
577.537	42254.2
577.735	41938.82
577.933	41461.64
578.131	41693.06
578.329	41484.17
578.527	41248.65
578.725	41119.63
578.923	41240.46
579.121	41385.86
579.319	41435.02
579.516	41426.82
579.714	41213.84
579.912	40771.47
580.11	40867.73
580.308	40699.79
580.506	40572.82
580.704	39876.51
580.901	40822.67
581.099	40390.55
581.297	39870.37
581.495	39772.07
581.692	40347.54
581.89	39643.04
582.088	39878.56
582.285	39737.25
582.483	39815.07
582.681	39411.62
582.878	39776.16
583.076	39298.98
583.274	39460.77
583.471	38911.92
583.669	39006.12
583.866	39008.17
584.064	39129
584.262	38809.52
584.459	39346.09
584.657	38678.45
584.854	39139.24
585.052	38182.84
585.249	38696.88
585.447	38287.29
585.644	37984.19
585.841	38068.16
586.039	38512.56
586.236	37926.85
586.434	37808.06
586.631	37347.27
586.828	37801.92
587.026	37920.7
587.223	37322.69
587.42	37615.55
587.618	37566.4
587.815	36646.86
588.012	36945.87
588.21	36769.74
588.407	37132.23
588.604	36456.4
588.801	36675.54
588.999	36655.06
589.196	36638.67
589.393	36171.74
589.59	36538.32
589.787	36007.9
589.984	36261.85
590.182	35497.95
590.379	36149.21
590.576	35631.07
590.773	35835.87
590.97	35403.75
591.167	35510.24
591.364	35102.7
591.561	35708.9
591.758	35172.33
591.955	34750.45
592.152	35235.81
592.349	34664.43
592.546	34781.17
592.743	34836.46
592.94	33880.06
593.137	34734.06
593.334	34717.68
593.531	33843.2
593.727	34295.8
593.924	34308.08
594.121	33994.75
594.318	34242.55
594.515	33474.56
594.712	34310.13
594.908	33421.31
595.105	33585.15
595.302	33548.29
595.499	33589.25
595.696	33306.63
595.892	33269.76
596.089	33142.79
596.286	33193.99
596.482	32849.93
596.679	33105.93
596.876	32722.96
597.072	32471.06
597.269	32391.19
597.466	32016.41
597.662	32401.43
597.859	32428.05
598.055	32100.37
598.252	32202.77
598.448	32106.52
598.645	31924.25
598.841	31293.47
599.038	31731.74
599.234	31578.14
599.431	31537.18
599.627	31281.19
599.824	31588.38
600.02	31129.64
600.217	31385.63
600.413	30511.15
600.609	30683.18
600.806	30793.77
601.002	31279.14
601.198	30527.53
601.395	30574.64
601.591	30609.45
601.787	30158.9
601.984	30027.83
602.18	30738.47
602.376	30142.52
602.572	29798.46
602.769	29904.95
602.965	29521.98
603.161	29630.52
603.357	29511.74
603.553	29464.64
603.75	29612.09
603.946	29192.26
604.142	29184.07
604.338	28758.09
604.534	29286.47
604.73	28510.28
604.926	28874.82
605.122	28579.92
605.318	28618.83
605.514	28422.22
605.71	28645.45
605.906	28526.67
606.102	28385.36
606.298	28481.61
606.494	28356.69
606.69	28057.68
606.886	28198.99
607.082	27689.05
607.278	27936.85
607.474	27566.17
607.67	27922.52
607.866	27211.87
608.062	28117.07
608.257	27650.14
608.453	27660.38
608.649	27459.68
608.845	27461.72
609.041	27615.32
609.236	27336.8
609.432	27525.21
609.628	27318.37
609.824	27007.08
610.019	27091.04
610.215	27132
610.411	27140.19
610.606	26816.61
610.802	27109.47
610.998	26546.28
611.193	26679.4
611.389	26663.02
611.584	26884.2
611.78	26753.13
611.976	26486.89
612.171	26536.04
612.367	26396.78
612.562	26376.3
612.758	26284.14
612.953	25944.18
613.149	26562.67
613.344	25884.79
613.539	26583.15
613.735	26013.81
613.93	26196.08
614.126	25933.94
614.321	26136.69
614.517	25802.87
614.712	25772.15
614.907	25573.5
615.103	25706.62
615.298	25790.58
615.493	25624.7
615.688	25163.9
615.884	26101.87
616.079	25331.84
616.274	25333.89
616.47	25198.72
616.665	25268.35
616.86	25016.45
617.055	25182.34
617.25	25102.46
617.445	25348.22
617.641	24653.96
617.836	24971.39
618.031	24721.54
618.226	24862.85
618.421	24574.09
618.616	24959.11
618.811	24428.68
619.006	24897.67
619.201	24094.86
619.396	24154.26
619.591	23871.64
619.786	24131.73
619.981	23756.95
620.176	24012.95
620.371	23658.65
620.566	23568.54
620.761	23517.34
620.956	23617.69
621.151	23238.81
621.346	23343.26
621.541	22929.57
621.735	22915.23
621.93	22909.09
622.125	22847.65
622.32	22362.28
622.515	22655.14
622.709	22376.62
622.904	22325.42
623.099	22204.59
623.294	22294.7
623.488	21790.9
623.683	21870.77
623.878	21524.66
624.072	21704.88
624.267	21520.57
624.462	21686.45
624.656	21344.44
624.851	21371.07
625.046	21129.41
625.24	20963.52
625.435	21074.11
625.629	20818.11
625.824	20594.89
626.018	20299.98
626.213	20168.91
626.407	20478.15
626.602	20228.3
626.796	20392.14
626.991	19906.77
627.185	19939.54
627.38	19845.33
627.574	19515.61
627.768	19380.44
627.963	19353.82
628.157	19263.71
628.352	19206.36
628.546	19017.95
628.74	19232.99
628.935	18905.31
629.129	18782.43
629.323	18626.79
629.517	18567.4
629.712	18407.66
629.906	18446.57
630.1	18108.65
630.294	18241.77
630.489	18059.5
630.683	18024.68
630.877	17981.68
631.071	17725.68
631.265	17727.73
631.459	17697.01
631.653	17488.12
631.848	17676.53
632.042	17424.63
632.236	17148.15
632.43	17246.46
632.624	17193.21
632.818	17074.43
633.012	17154.3
633.206	16875.77
633.4	16728.32
633.594	16482.56
633.788	16464.13
633.982	16734.46
634.176	16578.82
634.369	16298.25
634.563	16197.9
634.757	16032.01
634.951	16285.96
635.145	16001.29
635.339	16263.43
635.533	15808.78
635.726	15683.86
635.92	15681.81
636.114	15806.73
636.308	15515.92
636.501	15612.18
636.695	15399.19
636.889	15255.83
637.083	15081.75
637.276	15016.22
637.47	14747.93
637.664	15008.03
637.857	14752.03
638.051	14870.81
638.244	14696.74
638.438	14690.59
638.632	14649.63
638.825	14407.97
639.019	14192.94
639.212	14117.16
639.406	14125.35
639.599	13936.94
639.793	14229.8
639.986	13992.23
640.18	13988.14
640.373	13885.74
640.567	13728.05
640.76	13766.96
640.954	13599.02
641.147	13596.98
641.34	13562.16
641.534	13418.8
641.727	13285.69
641.92	13113.66
642.114	13394.23
642.307	13269.3
642.5	13297.97
642.694	12906.81
642.887	12661.05
643.08	12851.52
643.273	12896.57
643.467	12697.92
643.66	12534.08
643.853	12489.03
644.046	12374.34
644.239	12659.01
644.432	12374.34
644.626	12292.42
644.819	12151.11
645.012	12245.32
645.205	12196.17
645.398	11964.75
645.591	11966.79
645.784	11995.46
645.977	11680.08
646.17	11845.96
646.363	11589.97
646.556	11602.25
646.749	11645.26
646.942	11762
647.135	11639.12
647.328	11307.35
647.521	11493.71
647.714	11088.21
647.907	11424.08
648.099	11409.75
648.292	11102.55
648.485	11264.34
648.678	10828.12
648.871	11039.06
649.064	10658.14
649.256	10932.57
649.449	10778.97
649.642	10672.48
649.835	10594.65
650.027	10520.93
650.22	10662.24
650.413	10463.58
650.605	10561.89
650.798	10449.25
650.991	10269.03
651.183	10213.73
651.376	10078.57
651.568	10424.67
651.761	10228.07
651.954	10074.47
652.146	9914.73
652.339	9910.63
652.531	9992.55
652.724	9908.58
652.916	9738.6
653.109	9884.01
653.301	9763.18
653.494	9816.43
653.686	9501.04
653.879	9511.28
654.071	9398.64
654.263	9519.47
654.456	9412.98
654.648	9439.6
654.84	9242.99
655.033	9128.31
655.225	9214.32
655.417	9189.75
655.61	9156.98
655.802	9105.78
655.994	9044.34
656.186	9034.1
656.379	8964.47
656.571	8780.15
656.763	8765.82
656.955	8823.16
657.148	8782.2
657.34	8884.6
657.532	8694.14
657.724	8612.22
657.916	8536.45
658.108	8556.93
658.3	8706.43
658.492	8423.81
658.684	8460.67
658.876	8446.34
659.068	8333.7
659.26	8513.92
659.452	8178.05
659.644	8266.11
659.836	8223.11
660.028	8049.03
660.22	8077.7
660.412	8128.9
660.604	7772.55
660.796	8120.71
660.988	7991.69
661.18	7747.98
661.372	7803.27
661.563	7979.4
661.755	7805.32
661.947	7653.77
662.139	7678.35
662.331	7596.43
662.522	7602.57
662.714	7436.69
662.906	7580.04
663.097	7629.2
663.289	7428.49
663.481	7235.99
663.673	7260.56
663.864	7219.6
664.056	7223.7
664.247	7211.41
664.439	7123.35
664.631	7174.55
664.822	7266.71
665.014	7125.4
665.205	7117.2
665.397	7082.39
665.588	6977.94
665.78	7094.68
665.971	7016.85
666.163	6918.55
666.354	6984.09
666.546	6902.17
666.737	6902.17
666.929	6826.39
667.12	6693.27
667.311	6658.46
667.503	6562.2
667.694	6730.14
667.885	6756.76
668.077	6592.92
668.268	6584.73
668.459	6562.2
668.651	6543.77
668.842	6347.17
669.033	6431.13
669.224	6314.4
669.416	6375.84
669.607	6347.17
669.798	6431.13
669.989	6476.19
670.18	6338.98
670.371	6185.38
670.563	6320.54
670.754	6205.86
670.945	6164.9
671.136	6173.09
671.327	6072.74
671.518	6074.79
671.709	6050.21
671.9	6023.59
672.091	6031.78
672.282	5941.67
672.473	5833.13
672.664	6070.69
672.855	5859.75
673.046	5947.81
673.237	5882.28
673.428	5833.13
673.619	5812.65
673.809	5783.98
674	5861.8
674.191	5732.78
674.382	5697.96
674.573	5732.78
674.764	5570.99
674.954	5806.5
675.145	5710.25
675.336	5788.07
675.527	5507.5
675.717	5695.91
675.908	5484.97
676.099	5706.15
676.289	5620.14
676.48	5439.92
676.671	5413.29
676.861	5427.63
677.052	5345.71
677.243	5558.7
677.433	5435.82
677.624	5489.07
677.814	5370.29
678.005	5452.2
678.195	5380.53
678.386	5407.15
678.576	5216.69
678.767	5167.54
678.957	5247.41
679.148	5271.98
679.338	5384.62
679.529	5245.36
679.719	5224.88
679.909	5259.7
680.1	5343.66
680.29	5269.94
680.481	5214.64
680.671	5198.26
680.861	5075.38
681.052	5081.52
681.242	5163.44
681.432	5224.88
681.622	4989.36
681.813	4968.88
682.003	5091.76
682.193	5028.28
682.383	5110.19
682.573	5028.28
682.764	4993.46
682.954	5081.52
683.144	5050.8
683.334	4876.73
683.524	4952.5
683.714	5083.57
683.904	4874.68
684.094	4858.29
684.284	4872.63
684.474	4999.6
684.664	4803
684.854	4893.11
685.044	4872.63
685.234	4819.38
685.424	4868.53
685.614	4917.68
685.804	4776.38
685.994	4696.5
686.184	4878.77
686.374	4719.03
686.564	4673.98
686.753	4663.74
686.943	4684.22
687.133	4688.31
687.323	4454.84
687.513	4559.29
687.702	4530.62
687.892	4549.05
688.082	4612.54
688.272	4530.62
688.461	4446.65
688.651	4475.32
688.841	4311.49
689.03	4401.6
689.22	4368.83
689.41	4364.73
689.599	4370.88
689.789	4411.84
689.979	4278.72
690.168	4413.88
690.358	4217.28
690.547	4204.99
690.737	4161.98
690.926	4227.52
691.116	4241.86
691.305	4323.77
691.495	4352.45
691.684	4209.09
691.874	4084.16
692.063	4143.55
692.252	3973.57
692.442	4043.2
692.631	4096.45
692.82	3961.28
693.01	3965.38
693.199	4008.39
693.388	3973.57
693.578	3998.15
693.767	4020.67
693.956	3959.24
694.146	3856.84
694.335	3971.52
694.524	3740.1
694.713	3901.89
694.902	3914.18
695.092	3852.74
695.281	3717.58
695.47	3787.21
695.659	3842.5
695.848	3697.1
696.037	3609.03
696.226	3740.1
696.415	3844.55
696.604	3729.86
696.793	3645.9
696.982	3586.51
697.171	3729.86
697.36	3819.97
697.549	3539.4
697.738	3625.42
697.927	3568.07
698.116	3512.78
698.305	3627.46
698.494	3678.66
698.683	3584.46
698.872	3738.05
699.061	3576.27
699.25	3611.08
699.438	3606.98
699.627	3523.02
699.816	3557.83
700.005	3568.07
700.193	3535.31
700.382	3475.91
700.571	3475.91
700.76	3574.22
700.948	3537.35
701.137	3484.11
701.326	3510.73
701.514	3451.34
701.703	3422.67
701.892	3543.5
702.08	3490.25
702.269	3449.29
702.457	3264.97
702.646	3387.85
702.834	3412.43
703.023	3318.22
703.212	3432.91
703.4	3277.26
703.589	3365.32
703.777	3318.22
703.965	3283.41
704.154	3328.46
704.342	3389.9
704.531	3469.77
704.719	3346.89
704.907	3350.99
705.096	3267.02
705.284	3234.25
705.472	3346.89
705.661	3338.7
705.849	3252.69
706.037	3330.51
706.226	3369.42
706.414	3201.49
706.602	3258.83
706.79	3316.17
706.979	3267.02
707.167	3203.54
707.355	3207.63
707.543	3209.68
707.731	3254.73
707.919	3262.93
708.107	3025.36
708.296	3271.12
708.484	3310.03
708.672	3170.77
708.86	3176.91
709.048	3252.69
709.236	3060.18
709.424	3256.78
709.612	3207.63
709.8	3060.18
709.988	3189.2
710.176	3226.06
710.364	3183.06
710.551	3076.56
710.739	3242.45
710.927	3103.18
711.115	3176.91
711.303	3211.73
711.491	3121.62
711.679	2996.69
711.866	3078.61
712.054	3185.1
712.242	3090.9
712.43	3326.41
712.617	3008.98
712.805	3070.42
712.993	3166.67
713.181	3099.09
713.368	3146.19
713.556	3232.21
713.744	2992.59
713.931	3166.67
714.119	3011.03
714.306	3000.79
714.494	3115.47
714.682	3111.38
714.869	3039.7
715.057	3088.85
715.244	3090.9
715.432	3172.82
715.619	3148.24
715.807	3148.24
715.994	3125.71
716.182	3078.61
716.369	3103.18
716.556	3025.36
716.744	3076.56
716.931	3181.01
717.119	3185.1
717.306	3111.38
717.493	3068.37
717.681	3105.23
717.868	3017.17
718.055	3011.03
718.242	2982.35
718.43	3062.23
718.617	3039.7
718.804	2955.73
718.991	3017.17
719.179	3027.41
719.366	3037.65
719.553	3047.89
719.74	2957.78
719.927	2980.31
720.114	3099.09
720.301	2982.35
720.488	2925.01
720.676	3013.07
720.863	2836.95
721.05	3099.09
721.237	2953.68
721.424	3121.62
721.611	3115.47
721.798	3006.93
721.985	2953.68
722.172	2873.81
722.358	2925.01
722.545	3021.27
722.732	2931.16
722.919	3013.07
723.106	3051.99
723.293	2845.14
723.48	2935.25
723.667	2818.52
723.853	2902.48
724.04	2884.05
724.227	2906.58
724.414	2996.69
724.6	2798.04
724.787	2871.76
724.974	2875.86
725.161	2845.14
725.347	2779.61
725.534	2939.35
725.72	2886.1
725.907	2802.13
726.094	3054.03
726.28	2900.44
726.467	2847.19
726.653	2793.94
726.84	2853.33
727.027	2914.77
727.213	2761.17
727.4	2869.72
727.586	2906.58
727.773	2904.53
727.959	2767.32
728.145	2998.74
728.332	2834.9
728.518	2808.28
728.705	2853.33
728.891	2832.85
729.077	2810.33
729.264	2804.18
729.45	2752.98
729.636	2793.94
729.823	2752.98
730.009	2812.37
730.195	2787.8
730.382	2816.47
730.568	2865.62
730.754	2884.05
730.94	2677.21
731.126	2648.54
731.313	2771.41
731.499	2879.96
731.685	2824.66
731.871	2740.69
732.057	2847.19
732.243	2673.11
732.429	2759.13
732.615	2869.72
732.801	2740.69
732.987	2718.17
733.173	2785.75
733.359	2695.64
733.545	2830.8
733.731	2736.6
733.917	2728.41
734.103	2771.41
734.289	2810.33
734.475	2578.9
734.661	2736.6
734.847	2712.02
735.033	2546.14
735.219	2601.43
735.404	2640.34
735.59	2558.42
735.776	2634.2
735.962	2626.01
736.148	2615.77
736.333	2533.85
736.519	2638.3
736.705	2691.54
736.89	2634.2
737.076	2660.82
737.262	2486.75
737.447	2669.02
737.633	2585.05
737.819	2568.66
738.004	2576.86
738.19	2544.09
738.375	2632.15
738.561	2560.47
738.747	2531.8
738.932	2447.83
739.118	2556.38
739.303	2421.21
739.489	2626.01
739.674	2408.92
739.859	2408.92
740.045	2484.7
740.23	2300.38
740.416	2339.29
740.601	2499.03
740.786	2337.24
740.972	2396.64
741.157	2533.85
741.342	2415.07
741.528	2286.05
741.713	2464.22
741.898	2480.6
742.084	2394.59
742.269	2347.48
742.454	2435.55
742.639	2443.74
742.824	2220.51
743.01	2296.28
743.195	2410.97
743.38	2357.72
743.565	2247.13
743.75	2279.9
743.935	2279.9
744.12	2259.42
744.305	2234.85
744.49	2240.99
744.675	2267.61
744.86	2236.89
745.045	2251.23
745.23	2193.89
745.415	2128.35
745.6	2243.04
745.785	2159.07
745.97	2261.47
746.155	2124.26
746.34	2132.45
746.525	2087.39
746.71	2161.12
746.895	2048.48
747.079	2058.72
747.264	2017.76
747.449	2009.57
747.634	2058.72
747.819	2103.78
748.003	2146.78
748.188	1970.66
748.373	2005.47
748.557	1874.4
748.742	1987.04
748.927	1972.71
749.111	1956.32
749.296	2046.43
749.481	2011.62
749.665	1886.69
749.85	1931.75
750.034	1950.18
750.219	1937.89
750.404	1909.22
750.588	1827.3
750.773	1784.29
750.957	1931.75
751.141	1823.2
751.326	1782.24
751.51	1704.42
751.695	1720.81
751.879	1763.81
752.064	1755.62
752.248	1776.1
752.432	1755.62
752.617	1665.51
752.801	1776.1
752.985	1763.81
753.17	1718.76
753.354	1735.14
753.538	1694.18
753.722	1604.07
753.907	1653.22
754.091	1561.06
754.275	1599.98
754.459	1606.12
754.643	1524.2
754.828	1681.89
755.012	1483.24
755.196	1470.95
755.38	1567.21
755.564	1493.48
755.748	1495.53
755.932	1497.58
756.116	1497.58
756.3	1470.95
756.484	1438.19
756.668	1458.67
756.852	1438.19
757.036	1497.58
757.22	1368.56
757.404	1370.6
757.588	1516.01
757.772	1376.75
757.956	1366.51
758.14	1497.58
758.323	1327.6
758.507	1274.35
758.691	1341.93
758.875	1397.23
759.059	1323.5
759.242	1339.88
759.426	1292.78
759.61	1350.12
759.794	1268.2
759.977	1249.77
760.161	1393.13
760.345	1315.31
760.528	1268.2
760.712	1239.53
760.895	1186.29
761.079	1284.59
761.263	1227.25
761.446	1327.6
761.63	1126.89
761.813	1264.11
761.997	1243.63
762.18	1194.48
762.364	1153.52
762.547	1174
762.731	1153.52
762.914	1208.81
763.098	1157.61
763.281	1178.09
763.464	1200.62
763.648	1178.09
763.831	1118.7
764.015	1079.79
764.198	1155.57
764.381	1133.04
764.564	1139.18
764.748	1159.66
764.931	1067.5
765.114	1110.51
765.297	1202.67
765.481	1079.79
765.664	1106.42
765.847	1151.47
766.03	1087.98
766.213	1020.4
766.397	1083.89
766.58	1100.27
766.763	1057.26
766.946	1051.12
767.129	1051.12
767.312	997.87
767.495	1063.41
767.678	989.68
767.861	1079.79
768.044	1036.78
768.227	983.54
768.41	1001.97
768.593	1044.98
768.776	1044.98
768.959	1004.02
769.142	1018.35
769.324	1008.11
769.507	1040.88
769.69	1028.59
769.873	954.87
770.056	924.15
770.239	940.53
770.421	979.44
770.604	948.72
770.787	1018.35
770.97	897.52
771.152	905.71
771.335	1004.02
771.518	862.71
771.7	983.54
771.883	981.49
772.066	840.18
772.248	909.81
772.431	899.57
772.613	981.49
772.796	809.46
772.978	940.53
773.161	860.66
773.343	872.95
773.526	877.04
773.708	829.94
773.891	850.42
774.073	981.49
774.256	805.36
774.438	940.53
774.621	809.46
774.803	848.37
774.985	766.45
775.168	817.65
775.35	885.23
775.532	756.21
775.715	731.64
775.897	815.6
776.079	791.03
776.261	834.04
776.444	866.8
776.626	854.51
776.808	745.97
776.99	719.35
777.173	739.83
777.355	662.01
777.537	776.69
777.719	698.87
777.901	698.87
778.083	717.3
778.265	653.81
778.447	719.35
778.629	690.68
778.811	733.68
778.993	727.54
779.175	674.29
779.357	672.25
779.539	674.29
779.721	664.05
779.903	674.29
780.085	723.44
780.267	637.43
780.449	664.05
780.631	680.44
780.812	610.81
780.994	647.67
781.176	608.76
781.358	596.47
781.54	602.61
781.721	702.97
781.903	557.56
782.085	524.79
782.267	647.67
782.448	553.46
782.63	594.42
782.812	571.9
782.993	594.42
783.175	520.7
783.357	621.05
783.538	530.94
783.72	606.71
783.901	565.75
784.083	590.33
784.264	526.84
784.446	506.36
784.627	457.21
784.809	508.41
784.99	494.07
785.172	479.74
785.353	504.31
785.535	563.7
785.716	440.83
785.897	420.35
786.079	438.78
786.26	502.26
786.441	471.54
786.623	465.4
786.804	461.3
786.985	459.26
787.167	500.22
787.348	526.84
787.529	526.84
787.71	481.78
787.891	442.87
788.073	410.11
788.254	451.07
788.435	459.26
788.616	479.74
788.797	479.74
788.978	473.59
789.159	430.59
789.34	438.78
789.522	393.72
789.703	348.67
789.884	365.05
790.065	498.17
790.246	461.3
790.427	418.3
790.607	481.78
790.788	473.59
790.969	356.86
791.15	371.19
791.331	373.24
791.512	369.15
791.693	399.87
791.874	336.38
792.054	395.77
792.235	369.15
792.416	408.06
792.597	395.77
792.778	397.82
792.958	363
793.139	326.14
793.32	330.23
793.5	332.28
793.681	371.19
793.862	360.95
794.042	350.71
794.223	276.99
794.404	371.19
794.584	346.62
794.765	248.32
794.945	342.52
795.126	348.67
795.306	371.19
795.487	324.09
795.667	283.13
795.848	373.24
796.028	279.04
796.209	336.38
796.389	299.52
796.57	338.43
796.75	270.84
796.93	385.53
797.111	356.86
797.291	258.56
797.471	301.56
797.652	293.37
797.832	268.8
798.012	338.43
798.192	383.48
798.373	252.41
798.553	289.28
798.733	313.85
798.913	276.99
799.093	377.34
799.274	215.55
799.454	248.32
799.634	299.52
799.814	389.63
799.994	334.33
800.174	264.7
800.354	328.19
800.534	293.37
800.714	307.71
800.894	266.75
801.074	250.36
801.254	207.36
801.434	274.94
801.614	231.93
801.794	180.73
801.974	817.65
802.154	252.41
802.334	276.99
802.514	242.17
802.693	289.28
802.873	180.73
803.053	363
803.233	297.47
803.413	305.66
803.592	256.51
803.772	203.26
803.952	219.64
804.131	193.02
804.311	322.04
804.491	223.74
804.67	246.27
804.85	268.8
805.03	283.13
805.209	262.65
805.389	266.75
805.568	276.99
805.748	197.12
805.928	178.69
806.107	168.45
806.287	199.16
806.466	266.75
806.646	211.45
806.825	195.07
807.004	201.21
807.184	160.25
807.363	221.69
807.543	221.69
807.722	199.16
807.901	260.6
808.081	223.74
808.26	242.17
808.439	190.97
808.619	240.12
808.798	197.12
808.977	270.84
809.156	203.26
809.336	227.84
809.515	236.03
809.694	137.73
809.873	201.21
810.052	201.21
810.231	250.36
810.411	170.49
810.59	287.23
810.769	172.54
810.948	291.32
811.127	154.11
811.306	180.73
811.485	64
811.664	199.16
811.843	188.93
812.022	184.83
812.201	100.86
812.38	164.35
812.559	190.97
812.737	238.08
812.916	102.91
813.095	133.63
813.274	158.21
813.453	242.17
813.632	211.45
813.811	156.16
813.989	193.02
814.168	170.49
814.347	150.01
814.526	156.16
814.704	233.98
814.883	145.92
815.062	104.96
815.24	150.01
815.419	121.34
815.598	104.96
815.776	150.01
815.955	133.63
816.133	217.6
816.312	188.93
816.49	211.45
816.669	152.06
816.847	156.16
817.026	129.53
817.204	98.81
817.383	64
817.561	145.92
817.74	166.4
817.918	80.38
818.097	164.35
818.275	111.1
818.453	166.4
818.632	152.06
818.81	182.78
818.988	68.09
819.167	135.68
819.345	190.97
819.523	168.45
819.701	88.57
819.879	125.44
820.058	107.01
820.236	164.35
820.414	107.01
820.592	156.16
820.77	129.53
820.948	162.3
821.127	72.19
821.305	164.35
821.483	98.81
821.661	143.87
821.839	96.77
822.017	190.97
822.195	129.53
822.373	152.06
822.551	172.54
822.729	209.4
822.907	154.11
823.085	90.62
823.262	117.25
823.44	119.29
823.618	78.33
823.796	109.05
823.974	86.53
824.152	82.43
824.329	119.29
824.507	55.81
824.685	80.38
824.863	137.73
825.04	55.81
825.218	88.57
825.396	172.54
825.574	211.45
825.751	135.68
825.929	188.93
826.107	27.14
826.284	98.81
826.462	166.4
826.639	127.49
826.817	66.05
826.994	92.67
827.172	162.3
827.349	156.16
827.527	94.72
827.704	76.29
827.882	94.72
828.059	92.67
828.237	104.96
828.414	147.97
828.591	31.23
828.769	64
828.946	111.1
829.124	64
829.301	117.25
829.478	104.96
829.655	74.24
829.833	64
830.01	59.9
830.187	143.87
830.364	117.25
830.542	47.62
830.719	113.15
830.896	94.72
831.073	174.59
831.25	133.63
831.427	190.97
831.604	156.16
831.782	55.81
831.959	86.53
832.136	154.11
832.313	109.05
832.49	47.62
832.667	117.25
832.844	51.71
833.021	94.72
833.198	37.38
833.374	125.44
833.551	76.29
833.728	43.52
833.905	150.01
834.082	18.94
834.259	55.81
834.436	119.29
834.612	102.91
834.789	94.72
834.966	23.04
835.143	78.33
835.319	2.56
835.496	59.9
835.673	90.62
835.85	53.76
836.026	70.14
836.203	121.34
836.38	76.29
836.556	98.81
836.733	150.01
836.909	152.06
837.086	68.09
837.262	61.95
837.439	20.99
837.616	51.71
837.792	27.14
837.968	78.33
838.145	-28.16
838.321	84.48
838.498	66.05
838.674	88.57
838.851	92.67
839.027	29.18
839.203	14.85
839.38	119.29
839.556	160.25
839.732	104.96
839.909	37.38
840.085	107.01
840.261	55.81
840.437	29.18
840.614	10.75
840.79	98.81
840.966	78.33
841.142	55.81
841.318	12.8
841.494	113.15
841.671	80.38
841.847	35.33
842.023	41.47
842.199	51.71
842.375	90.62
842.551	47.62
842.727	4.61
842.903	31.23
843.079	12.8
843.255	147.97
843.431	70.14
843.607	113.15
843.783	29.18
843.959	86.53
844.134	72.19
844.31	55.81
844.486	55.81
844.662	61.95
844.838	37.38
845.013	53.76
845.189	111.1
845.365	66.05
845.541	55.81
845.716	94.72
845.892	47.62
846.068	16.9
846.244	8.7
846.419	51.71
846.595	35.33
846.77	-17.92
846.946	104.96
847.122	39.42
847.297	29.18
847.473	80.38
847.648	47.62
847.824	14.85
847.999	12.8
848.175	49.66
848.35	-38.4
848.526	84.48
848.701	47.62
848.876	18.94
849.052	-5.63
849.227	45.57
849.403	23.04
849.578	127.49
849.753	37.38
849.929	72.19
850.104	18.94
850.279	20.99
850.454	16.9
850.63	72.19
850.805	4.61
850.98	37.38
851.155	29.18
851.33	57.86
851.505	35.33
851.681	43.52
851.856	47.62
852.031	59.9
852.206	57.86
852.381	6.66
852.556	-1.54
852.731	23.04
852.906	47.62
853.081	-17.92
853.256	49.66
853.431	45.57
853.606	6.66
853.781	90.62
853.956	-26.11
854.131	18.94
854.305	35.33
854.48	33.28
854.655	-13.82
854.83	-17.92
855.005	57.86
855.18	55.81
855.354	76.29
855.529	-5.63
855.704	27.14
855.879	82.43
856.053	2.56
856.228	-5.63
856.403	4.61
856.577	45.57
856.752	-26.11
856.926	43.52
857.101	10.75
857.276	25.09
857.45	-50.69
857.625	90.62
857.799	-9.73
857.974	33.28
858.148	18.94
858.323	12.8
858.497	23.04
858.672	-15.87
858.846	-15.87
859.02	20.99
859.195	-5.63
859.369	39.42
859.543	23.04
859.718	61.95
859.892	51.71
860.066	-13.82
860.241	-24.06
860.415	6.66
860.589	-36.35
860.763	57.86
860.938	-1.54
861.112	72.19
861.286	23.04
861.46	4.61
861.634	25.09
861.808	25.09
861.982	47.62
862.157	-24.06
862.331	51.71
862.505	-85.5
862.679	31.23
862.853	74.24
863.027	-60.93
863.201	59.9
863.375	23.04
863.549	14.85
863.722	43.52
863.896	96.77
864.07	53.76
864.244	43.52
864.418	-26.11
864.592	25.09
864.766	41.47
864.939	14.85
865.113	-30.21
865.287	117.25
865.461	-91.65
865.634	68.09
865.808	14.85
865.982	-42.5
866.156	-69.12
866.329	43.52
866.503	-17.92
866.676	29.18
866.85	80.38
867.024	61.95
867.197	41.47
867.371	43.52
867.544	33.28
867.718	86.53
867.891	57.86
868.065	49.66
868.238	31.23
868.412	10.75
868.585	59.9
868.759	-7.68
868.932	80.38
869.105	35.33
869.279	-7.68
869.452	-26.11
869.625	82.43
869.799	27.14
869.972	41.47
870.145	41.47
870.319	-54.78
870.492	-40.45
870.665	-5.63
870.838	-15.87
871.011	12.8
871.185	-13.82
871.358	111.1
871.531	41.47
871.704	23.04
871.877	12.8
872.05	23.04
872.223	-28.16
872.396	55.81
872.569	23.04
872.742	-15.87
872.915	-1.54
873.088	51.71
873.261	-60.93
873.434	68.09
873.607	-40.45
873.78	0.51
873.953	25.09
874.126	49.66
874.299	8.7
874.471	53.76
874.644	-67.07
874.817	-13.82
874.99	-28.16
875.163	-17.92
875.335	16.9
875.508	-17.92
875.681	37.38
875.853	-13.82
876.026	-3.58
876.199	55.81
876.371	-22.02
876.544	41.47
876.717	-11.78
876.889	43.52
877.062	33.28
877.234	6.66
877.407	-58.88
877.579	-15.87
877.752	82.43
877.924	53.76
878.097	14.85
878.269	51.71
878.442	-19.97
878.614	31.23
878.786	-22.02
878.959	39.42
879.131	-19.97
879.303	-19.97
879.476	18.94
879.648	37.38
879.82	-5.63
879.993	-40.45
880.165	-46.59
880.337	-1.54
880.509	31.23
880.681	-52.74
880.854	-73.21
881.026	20.99
881.198	86.53
881.37	8.7
881.542	41.47
881.714	-1.54
881.886	-11.78
882.058	-44.54
882.23	18.94
882.402	31.23
882.574	-28.16
882.746	39.42
882.918	23.04
883.09	-67.07
883.262	39.42
883.434	14.85
883.606	10.75
883.778	-24.06
883.95	68.09
884.122	-83.45
884.293	55.81
884.465	53.76
884.637	51.71
884.809	-42.5
884.98	35.33
885.152	43.52
885.324	-9.73
885.496	-15.87
885.667	-17.92
885.839	6.66
886.011	64
886.182	39.42
886.354	2.56
886.525	37.38
886.697	4.61
886.869	-9.73
887.04	-5.63
887.212	66.05
887.383	12.8
887.555	-19.97
887.726	-22.02
887.897	12.8
888.069	-7.68
888.24	-7.68
888.412	6.66
888.583	-11.78
888.754	-13.82
888.926	45.57
889.097	-67.07
889.268	-30.21
889.44	47.62
889.611	-34.3
889.782	74.24
889.953	-7.68
890.125	45.57
890.296	16.9
890.467	8.7
890.638	-62.98
890.809	59.9
890.98	35.33
891.151	31.23
891.323	-19.97
891.494	-9.73
891.665	-24.06
891.836	25.09
892.007	-24.06
892.178	14.85
892.349	27.14
892.52	14.85
892.691	-34.3
892.862	-24.06
893.032	-13.82
893.203	20.99
893.374	-22.02
893.545	14.85
893.716	-32.26
893.887	18.94
894.057	-3.58
894.228	107.01
894.399	-62.98
894.57	12.8
894.74	-15.87
894.911	78.33
895.082	-50.69
895.253	6.66
895.423	-30.21
895.594	47.62
895.764	12.8
895.935	-24.06
896.106	-7.68
896.276	6.66
896.447	31.23
896.617	20.99
896.788	-13.82
896.958	55.81
897.129	41.47
897.299	29.18
897.47	6.66
897.64	-7.68
897.81	-9.73
897.981	-30.21
898.151	-30.21
898.322	-17.92
898.492	27.14
898.662	35.33
898.832	64
899.003	-62.98
899.173	-48.64
899.343	-3.58
899.513	-42.5
