Data from USB4F104151__7__10-20-09-848.txt Node

Date: Wed Mar 12 10:20:09 EDT 2025
User: louis
Spectrometer: USB4F10415
Trigger mode: 4
Integration Time (sec): 3.000000E-2
Scans to average: 1
Electric dark correction enabled: true
Nonlinearity correction enabled: false
Boxcar width: 0
XAxis mode: Wavelengths
Number of Pixels in Spectrum: 3648
>>>>>Begin Spectral Data<<<<<
178.204	-145.41
178.424	-145.41
178.644	-145.41
178.864	-167.93
179.084	-122.88
179.304	10.24
179.524	-38.91
179.744	-2.05
179.964	12.29
180.184	-4.1
180.404	47.1
180.624	-6.14
180.844	4.1
181.064	-43.01
181.283	34.82
181.503	-49.15
181.723	34.82
181.943	-100.35
182.163	-4.1
182.383	-47.1
182.602	8.19
182.822	-40.96
183.042	40.96
183.262	-43.01
183.482	55.3
183.701	10.24
183.921	32.77
184.141	-59.39
184.361	-10.24
184.58	16.38
184.8	-10.24
185.02	55.3
185.239	-4.1
185.459	8.19
185.679	-36.86
185.898	-28.67
186.118	-45.06
186.338	-47.1
186.557	10.24
186.777	-36.86
186.997	30.72
187.216	16.38
187.436	-10.24
187.655	-55.3
187.875	-34.82
188.095	-8.19
188.314	36.86
188.534	-4.1
188.753	-47.1
188.973	24.58
189.192	8.19
189.412	14.34
189.631	114.69
189.851	-16.38
190.07	53.25
190.29	-12.29
190.509	-30.72
190.729	-75.77
190.948	24.58
191.168	120.83
191.387	73.73
191.607	-2.05
191.826	-55.3
192.045	79.87
192.265	-30.72
192.484	-2.05
192.704	-16.38
192.923	-28.67
193.142	34.82
193.362	16.38
193.581	14.34
193.8	51.2
194.02	16.38
194.239	-26.62
194.458	6.14
194.678	83.97
194.897	-38.91
195.116	8.19
195.335	-36.86
195.555	12.29
195.774	-34.82
195.993	2.05
196.212	40.96
196.432	-14.34
196.651	-45.06
196.87	-14.34
197.089	73.73
197.308	-53.25
197.528	-8.19
197.747	-71.68
197.966	-40.96
198.185	14.34
198.404	-51.2
198.623	2.05
198.842	6.14
199.062	0
199.281	96.25
199.5	0
199.719	22.53
199.938	-20.48
200.157	49.15
200.376	-12.29
200.595	30.72
200.814	2.05
201.033	-2.05
201.252	2.05
201.471	0
201.69	-30.72
201.909	43.01
202.128	-16.38
202.347	10.24
202.566	16.38
202.785	14.34
203.004	-47.1
203.223	32.77
203.442	-8.19
203.661	-22.53
203.879	-45.06
204.098	4.1
204.317	-49.15
204.536	34.82
204.755	26.62
204.974	61.44
205.193	18.43
205.411	36.86
205.63	-10.24
205.849	4.1
206.068	26.62
206.287	-49.15
206.505	-59.39
206.724	-16.38
206.943	-65.54
207.162	28.67
207.381	-12.29
207.599	-63.49
207.818	-59.39
208.037	104.45
208.255	6.14
208.474	6.14
208.693	43.01
208.911	-10.24
209.13	-26.62
209.349	6.14
209.567	26.62
209.786	34.82
210.005	26.62
210.223	0
210.442	-83.97
210.661	20.48
210.879	-8.19
211.098	-34.82
211.316	53.25
211.535	8.19
211.753	-34.82
211.972	-22.53
212.191	-45.06
212.409	-14.34
212.628	18.43
212.846	4.1
213.065	102.4
213.283	75.77
213.502	8.19
213.72	-16.38
213.938	55.3
214.157	-18.43
214.375	-24.58
214.594	2.05
214.812	16.38
215.031	-22.53
215.249	-10.24
215.467	59.39
215.686	-47.1
215.904	61.44
216.122	30.72
216.341	-2.05
216.559	-55.3
216.778	-6.14
216.996	38.91
217.214	12.29
217.432	8.19
217.651	-43.01
217.869	-30.72
218.087	-38.91
218.306	-6.14
218.524	32.77
218.742	-16.38
218.96	14.34
219.179	10.24
219.397	-49.15
219.615	32.77
219.833	-30.72
220.051	-26.62
220.27	24.58
220.488	-34.82
220.706	32.77
220.924	10.24
221.142	32.77
221.36	-14.34
221.578	8.19
221.796	26.62
222.015	0
222.233	-14.34
222.451	59.39
222.669	-34.82
222.887	-2.05
223.105	-16.38
223.323	45.06
223.541	26.62
223.759	-34.82
223.977	61.44
224.195	14.34
224.413	67.58
224.631	10.24
224.849	86.01
225.067	38.91
225.285	-40.96
225.503	-26.62
225.721	-24.58
225.939	-10.24
226.157	-8.19
226.375	-8.19
226.592	16.38
226.81	8.19
227.028	-22.53
227.246	26.62
227.464	18.43
227.682	-20.48
227.9	51.2
228.117	8.19
228.335	20.48
228.553	55.3
228.771	49.15
228.989	18.43
229.206	-73.73
229.424	-6.14
229.642	-49.15
229.86	-8.19
230.077	-10.24
230.295	28.67
230.513	-12.29
230.731	94.21
230.948	77.82
231.166	18.43
231.384	-14.34
231.601	16.38
231.819	51.2
232.037	22.53
232.254	-14.34
232.472	-18.43
232.689	-4.1
232.907	-53.25
233.125	-26.62
233.342	26.62
233.56	-24.58
233.777	-26.62
233.995	16.38
234.213	-6.14
234.43	-36.86
234.648	8.19
234.865	-2.05
235.083	0
235.3	-26.62
235.518	2.05
235.735	30.72
235.953	40.96
236.17	2.05
236.388	-12.29
236.605	8.19
236.822	20.48
237.04	43.01
237.257	-28.67
237.475	-18.43
237.692	22.53
237.909	0
238.127	26.62
238.344	43.01
238.562	14.34
238.779	-90.11
238.996	-43.01
239.214	-30.72
239.431	63.49
239.648	18.43
239.865	49.15
240.083	-71.68
240.3	24.58
240.517	6.14
240.735	-40.96
240.952	-10.24
241.169	40.96
241.386	67.58
241.603	10.24
241.821	16.38
242.038	14.34
242.255	57.34
242.472	-40.96
242.689	-59.39
242.907	18.43
243.124	14.34
243.341	36.86
243.558	-65.54
243.775	34.82
243.992	-12.29
244.209	-83.97
244.426	8.19
244.643	57.34
244.86	-43.01
245.078	51.2
245.295	47.1
245.512	47.1
245.729	8.19
245.946	8.19
246.163	-16.38
246.38	53.25
246.597	-65.54
246.814	-36.86
247.031	10.24
247.248	20.48
247.464	-12.29
247.681	36.86
247.898	-28.67
248.115	30.72
248.332	-22.53
248.549	2.05
248.766	81.92
248.983	77.82
249.2	51.2
249.417	-30.72
249.633	-14.34
249.85	67.58
250.067	20.48
250.284	59.39
250.501	34.82
250.717	14.34
250.934	-32.77
251.151	30.72
251.368	-59.39
251.585	6.14
251.801	0
252.018	4.1
252.235	2.05
252.451	-88.06
252.668	-28.67
252.885	-14.34
253.102	2.05
253.318	22.53
253.535	-14.34
253.752	32.77
253.968	-51.2
254.185	-18.43
254.401	18.43
254.618	36.86
254.835	-26.62
255.051	6.14
255.268	-57.34
255.484	-26.62
255.701	-45.06
255.917	55.3
256.134	-47.1
256.351	24.58
256.567	18.43
256.784	-14.34
257	-83.97
257.217	-18.43
257.433	49.15
257.65	45.06
257.866	63.49
258.082	20.48
258.299	-20.48
258.515	20.48
258.732	-57.34
258.948	-26.62
259.165	-16.38
259.381	-16.38
259.597	-34.82
259.814	-6.14
260.03	-43.01
260.246	-36.86
260.463	12.29
260.679	55.3
260.895	-36.86
261.112	-24.58
261.328	-51.2
261.544	-45.06
261.761	49.15
261.977	71.68
262.193	-18.43
262.409	20.48
262.626	-22.53
262.842	16.38
263.058	-26.62
263.274	26.62
263.49	-30.72
263.707	-26.62
263.923	-24.58
264.139	-32.77
264.355	2.05
264.571	24.58
264.787	34.82
265.004	75.77
265.22	16.38
265.436	22.53
265.652	-30.72
265.868	2.05
266.084	-69.63
266.3	38.91
266.516	-12.29
266.732	-2.05
266.948	53.25
267.164	26.62
267.38	-61.44
267.596	40.96
267.812	38.91
268.028	34.82
268.244	-6.14
268.46	59.39
268.676	-2.05
268.892	-10.24
269.108	-6.14
269.324	-55.3
269.54	-2.05
269.756	59.39
269.972	16.38
270.188	14.34
270.403	-55.3
270.619	-6.14
270.835	0
271.051	43.01
271.267	30.72
271.483	-2.05
271.698	57.34
271.914	100.35
272.13	-22.53
272.346	-63.49
272.562	8.19
272.777	0
272.993	-8.19
273.209	-4.1
273.425	6.14
273.64	-55.3
273.856	22.53
274.072	65.54
274.287	-26.62
274.503	26.62
274.719	26.62
274.934	-22.53
275.15	-94.21
275.366	4.1
275.581	30.72
275.797	-79.87
276.012	-26.62
276.228	-36.86
276.444	-14.34
276.659	-22.53
276.875	-8.19
277.09	-14.34
277.306	-8.19
277.521	2.05
277.737	8.19
277.952	24.58
278.168	-20.48
278.383	-14.34
278.599	0
278.814	79.87
279.03	30.72
279.245	43.01
279.461	-14.34
279.676	26.62
279.892	-73.73
280.107	-14.34
280.322	24.58
280.538	-6.14
280.753	2.05
280.969	24.58
281.184	104.45
281.399	-26.62
281.615	-51.2
281.83	-10.24
282.045	-38.91
282.26	63.49
282.476	20.48
282.691	30.72
282.906	6.14
283.122	53.25
283.337	-57.34
283.552	-26.62
283.767	71.68
283.983	34.82
284.198	-22.53
284.413	12.29
284.628	-49.15
284.843	4.1
285.058	81.92
285.274	-24.58
285.489	53.25
285.704	36.86
285.919	-14.34
286.134	18.43
286.349	34.82
286.564	81.92
286.779	18.43
286.995	24.58
287.21	-47.1
287.425	-59.39
287.64	-4.1
287.855	32.77
288.07	28.67
288.285	8.19
288.5	61.44
288.715	12.29
288.93	14.34
289.145	-47.1
289.36	43.01
289.575	-40.96
289.79	45.06
290.004	-14.34
290.219	16.38
290.434	-53.25
290.649	-26.62
290.864	-32.77
291.079	45.06
291.294	32.77
291.509	14.34
291.724	16.38
291.938	-2.05
292.153	67.58
292.368	16.38
292.583	2.05
292.798	26.62
293.012	43.01
293.227	32.77
293.442	-6.14
293.657	26.62
293.871	-67.58
294.086	-26.62
294.301	45.06
294.516	-26.62
294.73	-4.1
294.945	-34.82
295.16	-6.14
295.374	67.58
295.589	59.39
295.804	2.05
296.018	0
296.233	18.43
296.447	-30.72
296.662	-34.82
296.877	-6.14
297.091	8.19
297.306	22.53
297.52	-53.25
297.735	-32.77
297.949	-14.34
298.164	40.96
298.378	57.34
298.593	-40.96
298.807	12.29
299.022	18.43
299.236	26.62
299.451	-26.62
299.665	0
299.88	65.54
300.094	-8.19
300.309	40.96
300.523	8.19
300.737	-8.19
300.952	0
301.166	63.49
301.381	0
301.595	-10.24
301.809	-38.91
302.024	-14.34
302.238	-38.91
302.452	59.39
302.667	-38.91
302.881	69.63
303.095	38.91
303.309	30.72
303.524	47.1
303.738	-34.82
303.952	-16.38
304.166	30.72
304.381	-30.72
304.595	55.3
304.809	-4.1
305.023	40.96
305.237	0
305.452	-47.1
305.666	81.92
305.88	61.44
306.094	28.67
306.308	-40.96
306.522	51.2
306.736	20.48
306.95	14.34
307.164	16.38
307.379	57.34
307.593	88.06
307.807	51.2
308.021	71.68
308.235	-71.68
308.449	-18.43
308.663	-34.82
308.877	73.73
309.091	0
309.305	30.72
309.519	-30.72
309.733	-47.1
309.947	-49.15
310.161	-10.24
310.374	-10.24
310.588	47.1
310.802	-22.53
311.016	14.34
311.23	28.67
311.444	-2.05
311.658	-6.14
311.872	65.54
312.085	47.1
312.299	51.2
312.513	67.58
312.727	69.63
312.941	-49.15
313.154	-8.19
313.368	69.63
313.582	43.01
313.796	-16.38
314.009	61.44
314.223	14.34
314.437	14.34
314.651	18.43
314.864	-75.77
315.078	-32.77
315.292	-40.96
315.505	-49.15
315.719	-30.72
315.933	-63.49
316.146	24.58
316.36	-10.24
316.573	14.34
316.787	49.15
317.001	92.16
317.214	-40.96
317.428	-43.01
317.641	-57.34
317.855	24.58
318.068	6.14
318.282	-26.62
318.495	40.96
318.709	36.86
318.922	8.19
319.136	63.49
319.349	14.34
319.563	32.77
319.776	30.72
319.99	-12.29
320.203	65.54
320.417	-4.1
320.63	16.38
320.843	96.25
321.057	2.05
321.27	22.53
321.483	-36.86
321.697	18.43
321.91	-2.05
322.124	-32.77
322.337	8.19
322.55	-77.82
322.763	-63.49
322.977	49.15
323.19	-14.34
323.403	16.38
323.617	110.59
323.83	40.96
324.043	-22.53
324.256	36.86
324.469	38.91
324.683	16.38
324.896	73.73
325.109	-38.91
325.322	-26.62
325.535	10.24
325.748	10.24
325.962	18.43
326.175	61.44
326.388	34.82
326.601	-32.77
326.814	2.05
327.027	6.14
327.24	30.72
327.453	-96.25
327.666	16.38
327.879	51.2
328.092	-4.1
328.305	69.63
328.518	28.67
328.731	79.87
328.944	12.29
329.157	-10.24
329.37	0
329.583	153.6
329.796	65.54
330.009	-88.06
330.222	61.44
330.435	-34.82
330.648	-2.05
330.861	75.77
331.073	47.1
331.286	8.19
331.499	4.1
331.712	47.1
331.925	18.43
332.138	-2.05
332.35	0
332.563	26.62
332.776	-38.91
332.989	26.62
333.202	36.86
333.414	40.96
333.627	28.67
333.84	-2.05
334.053	18.43
334.265	8.19
334.478	8.19
334.691	67.58
334.903	55.3
335.116	30.72
335.329	38.91
335.541	38.91
335.754	-8.19
335.966	26.62
336.179	-34.82
336.392	-40.96
336.604	-51.2
336.817	61.44
337.029	-2.05
337.242	-8.19
337.454	34.82
337.667	69.63
337.88	20.48
338.092	10.24
338.305	40.96
338.517	10.24
338.729	55.3
338.942	26.62
339.154	67.58
339.367	-14.34
339.579	18.43
339.792	71.68
340.004	-47.1
340.217	6.14
340.429	104.45
340.641	34.82
340.854	-22.53
341.066	10.24
341.278	24.58
341.491	38.91
341.703	40.96
341.915	28.67
342.128	135.17
342.34	51.2
342.552	34.82
342.764	10.24
342.977	55.3
343.189	83.97
343.401	51.2
343.613	-63.49
343.826	30.72
344.038	-45.06
344.25	22.53
344.462	-4.1
344.674	32.77
344.886	2.05
345.099	-32.77
345.311	61.44
345.523	-8.19
345.735	-4.1
345.947	57.34
346.159	12.29
346.371	-2.05
346.583	-30.72
346.795	116.73
347.007	65.54
347.219	26.62
347.431	22.53
347.643	40.96
347.855	38.91
348.067	51.2
348.279	38.91
348.491	28.67
348.703	30.72
348.915	24.58
349.127	34.82
349.339	-49.15
349.551	6.14
349.763	14.34
349.975	-45.06
350.187	18.43
350.399	-16.38
350.61	14.34
350.822	-16.38
351.034	18.43
351.246	2.05
351.458	28.67
351.669	69.63
351.881	-2.05
352.093	8.19
352.305	88.06
352.517	-4.1
352.728	38.91
352.94	67.58
353.152	16.38
353.363	40.96
353.575	90.11
353.787	81.92
353.999	10.24
354.21	51.2
354.422	-34.82
354.633	18.43
354.845	-32.77
355.057	6.14
355.268	0
355.48	61.44
355.692	57.34
355.903	22.53
356.115	10.24
356.326	-28.67
356.538	-43.01
356.749	34.82
356.961	16.38
357.172	-26.62
357.384	-26.62
357.595	104.45
357.807	18.43
358.018	18.43
358.23	18.43
358.441	92.16
358.653	26.62
358.864	73.73
359.075	-6.14
359.287	6.14
359.498	26.62
359.709	104.45
359.921	-20.48
360.132	59.39
360.344	47.1
360.555	18.43
360.766	-34.82
360.977	-2.05
361.189	22.53
361.4	0
361.611	26.62
361.823	26.62
362.034	34.82
362.245	-10.24
362.456	12.29
362.667	38.91
362.879	69.63
363.09	61.44
363.301	90.11
363.512	73.73
363.723	26.62
363.935	14.34
364.146	94.21
364.357	2.05
364.568	38.91
364.779	-26.62
364.99	47.1
365.201	-43.01
365.412	47.1
365.623	-86.01
365.834	-22.53
366.045	86.01
366.256	102.4
366.467	40.96
366.678	67.58
366.889	51.2
367.1	-22.53
367.311	0
367.522	30.72
367.733	-16.38
367.944	38.91
368.155	28.67
368.366	22.53
368.577	88.06
368.788	81.92
368.999	45.06
369.209	36.86
369.42	77.82
369.631	4.1
369.842	71.68
370.053	-34.82
370.264	-30.72
370.474	71.68
370.685	-6.14
370.896	-8.19
371.107	18.43
371.317	10.24
371.528	-28.67
371.739	149.5
371.95	92.16
372.16	40.96
372.371	-24.58
372.582	49.15
372.792	79.87
373.003	43.01
373.214	-18.43
373.424	-47.1
373.635	18.43
373.846	59.39
374.056	51.2
374.267	49.15
374.477	20.48
374.688	34.82
374.898	30.72
375.109	86.01
375.319	28.67
375.53	34.82
375.74	71.68
375.951	-38.91
376.161	26.62
376.372	47.1
376.582	30.72
376.793	57.34
377.003	71.68
377.214	34.82
377.424	-10.24
377.635	116.73
377.845	24.58
378.055	51.2
378.266	-12.29
378.476	18.43
378.686	69.63
378.897	73.73
379.107	43.01
379.317	28.67
379.528	59.39
379.738	59.39
379.948	-34.82
380.158	8.19
380.369	18.43
380.579	38.91
380.789	63.49
380.999	26.62
381.21	88.06
381.42	49.15
381.63	81.92
381.84	0
382.05	110.59
382.261	71.68
382.471	75.77
382.681	-47.1
382.891	57.34
383.101	24.58
383.311	67.58
383.521	32.77
383.731	-6.14
383.941	47.1
384.151	-30.72
384.361	57.34
384.571	59.39
384.781	79.87
384.991	129.02
385.201	43.01
385.411	-6.14
385.621	59.39
385.831	6.14
386.041	0
386.251	20.48
386.461	51.2
386.671	-14.34
386.881	88.06
387.091	14.34
387.301	100.35
387.511	71.68
387.72	59.39
387.93	-14.34
388.14	32.77
388.35	61.44
388.56	90.11
388.769	47.1
388.979	63.49
389.189	55.3
389.399	55.3
389.609	22.53
389.818	83.97
390.028	26.62
390.238	92.16
390.447	34.82
390.657	45.06
390.867	40.96
391.076	-18.43
391.286	-18.43
391.496	83.97
391.705	34.82
391.915	14.34
392.125	67.58
392.334	32.77
392.544	65.54
392.753	73.73
392.963	43.01
393.172	43.01
393.382	24.58
393.591	139.26
393.801	6.14
394.01	59.39
394.22	108.54
394.429	104.45
394.639	67.58
394.848	86.01
395.058	120.83
395.267	-8.19
395.477	75.77
395.686	73.73
395.895	57.34
396.105	61.44
396.314	43.01
396.524	-4.1
396.733	55.3
396.942	16.38
397.152	16.38
397.361	57.34
397.57	77.82
397.78	139.26
397.989	104.45
398.198	131.07
398.407	53.25
398.617	96.25
398.826	94.21
399.035	67.58
399.244	102.4
399.453	47.1
399.663	30.72
399.872	151.55
400.081	71.68
400.29	126.97
400.499	79.87
400.708	137.21
400.917	118.78
401.127	55.3
401.336	-4.1
401.545	55.3
401.754	139.26
401.963	135.17
402.172	137.21
402.381	79.87
402.59	75.77
402.799	79.87
403.008	90.11
403.217	114.69
403.426	114.69
403.635	114.69
403.844	145.41
404.053	200.7
404.262	131.07
404.471	243.71
404.68	151.55
404.888	116.73
405.097	141.31
405.306	83.97
405.515	108.54
405.724	135.17
405.933	137.21
406.142	120.83
406.35	174.08
406.559	174.08
406.768	131.07
406.977	282.62
407.185	217.08
407.394	206.84
407.603	223.23
407.812	219.13
408.02	270.33
408.229	227.32
408.438	239.61
408.646	227.32
408.855	260.09
409.064	243.71
409.272	219.13
409.481	313.34
409.69	270.33
409.898	231.42
410.107	348.15
410.315	395.26
410.524	309.24
410.733	372.73
410.941	344.06
411.15	339.96
411.358	468.98
411.567	421.88
411.775	399.35
411.984	368.63
412.192	428.03
412.401	505.85
412.609	471.03
412.818	501.75
413.026	616.44
413.234	481.27
413.443	522.23
413.651	546.81
413.86	583.67
414.068	579.58
414.276	679.93
414.485	585.72
414.693	671.73
414.901	806.9
415.11	688.12
415.318	681.97
415.526	813.04
415.734	800.76
415.943	759.8
416.151	882.67
416.359	788.47
416.567	821.24
416.776	929.78
416.984	1046.51
417.192	1048.56
417.4	1026.03
417.608	1069.04
417.817	1124.33
418.025	1114.09
418.233	1271.79
418.441	1239.02
418.649	1239.02
418.857	1316.84
419.065	1357.8
419.273	1370.09
419.481	1376.24
419.689	1544.17
419.897	1624.04
420.105	1660.9
420.313	1640.42
420.521	1705.96
420.729	1689.57
420.937	1746.92
421.145	1923.04
421.353	1970.15
421.561	2127.84
421.769	2156.51
421.977	2334.68
422.185	2275.29
422.393	2324.44
422.601	2392.03
422.809	2422.75
423.017	2469.85
423.224	2533.34
423.432	2717.65
423.64	2803.67
423.848	2998.23
424.056	2979.79
424.263	3071.95
424.471	3078.1
424.679	3110.86
424.887	3311.57
425.094	3551.18
425.302	3385.29
425.51	3553.23
425.718	3629
425.925	3700.68
426.133	3837.89
426.341	4052.93
426.548	4247.49
426.756	4278.21
426.964	4267.97
427.171	4544.44
427.379	4769.72
427.586	4700.09
427.794	4962.23
428.001	5255.09
428.209	5273.52
428.417	5302.19
428.624	5502.89
428.832	5566.38
429.039	5738.41
429.247	5576.62
429.454	5986.21
429.662	6590.36
429.869	6227.87
430.076	6477.73
430.284	6219.68
430.491	6643.61
430.699	6967.19
430.906	6827.93
431.114	7088.02
431.321	7604.11
431.528	7597.96
431.736	7985.03
431.943	8480.64
432.15	7987.08
432.358	8234.88
432.565	8675.2
432.772	8738.68
432.979	9117.56
433.187	9205.62
433.394	9215.86
433.601	9820.01
433.808	10002.28
434.016	9856.87
434.223	10221.41
434.43	10913.63
434.637	10551.14
434.844	11493.2
435.052	11616.08
435.259	11384.66
435.466	11962.19
435.673	11470.67
435.88	12140.36
436.087	12838.72
436.294	12803.9
436.501	12539.71
436.708	12685.12
436.915	13442.87
437.122	13856.56
437.329	13993.77
437.537	14253.86
437.743	14675.74
437.95	14294.82
438.157	15142.68
438.364	15691.54
438.571	15521.56
438.778	15734.54
438.985	17231.61
439.192	16457.48
439.399	17022.72
439.606	16568.07
439.813	17587.96
440.02	18589.41
440.227	18538.21
440.433	18028.27
440.64	18640.61
440.847	18425.57
441.054	19082.97
441.261	20121.29
441.467	19828.43
441.674	20459.21
441.881	21223.1
442.088	21143.23
442.294	20655.81
442.501	21456.57
442.708	21601.97
442.914	22920.87
443.121	23682.71
443.328	22859.43
443.534	24671.88
443.741	23828.12
443.948	23486.11
444.154	25632.38
444.361	24983.17
444.568	25290.37
444.774	25570.94
444.981	25689.72
445.187	26050.16
445.394	27891.29
445.6	26879.59
445.807	29726.27
446.013	28776.01
446.22	28790.34
446.426	29853.24
446.633	30230.07
446.839	31055.4
447.046	30068.28
447.252	31356.45
447.459	31450.66
447.665	31313.44
447.871	32828.94
448.078	34389.49
448.284	32585.23
448.491	33310.21
448.697	34786.8
448.903	35044.84
449.11	35343.84
449.316	34502.13
449.522	35429.86
449.728	36400.6
449.935	36736.46
450.141	36685.26
450.347	37279.18
450.553	35812.83
450.76	36371.92
450.966	37285.32
451.172	36851.15
451.378	37881.28
451.584	37211.59
451.791	37879.23
451.997	37574.08
452.203	38368.69
452.409	38774.19
452.615	38176.19
452.821	36974.03
453.027	36427.22
453.233	38282.68
453.44	36554.19
453.646	37039.56
453.852	37326.28
454.058	38016.44
454.264	36736.46
454.47	37150.15
454.676	36056.54
454.882	37940.67
455.088	34498.03
455.294	34944.49
455.5	35337.7
455.705	35923.42
455.911	34006.52
456.117	33334.79
456.323	32806.41
456.529	31202.85
456.735	32605.71
456.941	31788.57
457.147	31258.15
457.352	30127.67
457.558	30031.41
457.764	29906.49
457.97	29951.54
458.176	28649.03
458.381	28833.35
458.587	27604.57
458.793	27432.54
458.999	25841.27
459.204	27405.92
459.41	27096.67
459.616	25081.47
459.821	25253.5
460.027	25024.13
460.233	24290.96
460.438	23428.76
460.644	23473.82
460.85	22625.96
461.055	22384.3
461.261	22064.82
461.466	20549.32
461.672	19994.32
461.878	21032.64
462.083	19957.46
462.289	19652.31
462.494	19318.49
462.7	18491.11
462.905	18204.39
463.111	18949.85
463.316	19011.29
463.522	18165.48
463.727	18620.13
463.932	18456.29
464.138	18245.35
464.343	18157.29
464.549	17633.01
464.754	18185.96
464.959	18208.49
465.165	18196.2
465.37	17317.62
465.575	17227.51
465.781	17456.89
465.986	17671.92
466.191	17008.38
466.397	16574.21
466.602	15820.56
466.807	16588.55
467.012	16672.51
467.218	16523.01
467.423	16402.18
467.628	16359.17
467.833	16910.08
468.038	16137.99
468.244	15793.93
468.449	16660.23
468.654	15916.81
468.859	15892.24
469.064	15666.96
469.269	15312.66
469.474	15271.7
469.679	15347.48
469.885	15136.54
470.09	15298.33
470.295	15230.74
470.5	14704.42
470.705	14925.6
470.91	14581.54
471.115	14307.11
471.32	14571.3
471.525	14423.84
471.73	14333.73
471.935	14038.83
472.139	13750.06
472.344	13618.99
472.549	13668.14
472.754	13487.92
472.959	13444.91
473.164	12873.53
473.369	12869.44
473.574	13307.7
473.778	13168.44
473.983	13063.99
474.188	12724.03
474.393	12568.38
474.598	12562.24
474.802	12283.72
475.007	12179.27
475.212	12232.52
475.417	11927.37
475.621	11665.23
475.826	11827.02
476.031	11796.3
476.235	11593.55
476.44	11730.76
476.645	11274.07
476.849	11368.27
477.054	11208.53
477.259	11116.37
477.463	11409.23
477.668	10805.08
477.872	10878.81
478.077	10755.93
478.282	10616.67
478.486	10559.33
478.691	10393.44
478.895	10301.28
479.1	10528.61
479.304	10424.16
479.509	10030.95
479.713	10073.96
479.918	10084.2
480.122	9938.79
480.326	10168.16
480.531	10035.05
480.735	9680.75
480.94	9809.77
481.144	10123.11
481.348	9619.31
481.553	9725.8
481.757	9629.55
481.961	9699.18
482.166	9828.2
482.37	9697.13
482.574	9711.47
482.778	9451.38
482.983	9912.17
483.187	9682.8
483.391	9963.37
483.595	9666.41
483.8	9351.03
484.004	9572.21
484.208	9666.41
484.412	9478
484.616	9598.83
484.821	9674.6
485.025	9406.32
485.229	9740.14
485.433	9541.49
485.637	9547.63
485.841	9439.09
486.045	9652.08
486.249	9539.44
486.453	9447.28
486.657	9623.41
486.861	9762.67
487.065	9430.9
487.269	9512.81
487.473	9412.46
487.677	9795.43
487.881	9729.9
488.085	9647.98
488.289	9541.49
488.493	9514.86
488.697	9449.33
488.901	9666.41
489.105	9705.32
489.309	9645.93
489.512	9813.87
489.716	9672.56
489.92	9731.95
490.124	9717.61
490.328	9918.31
490.531	9711.47
490.735	9957.22
490.939	10119.01
491.143	9815.91
491.346	9912.17
491.55	10086.25
491.754	10043.24
491.958	10098.53
492.161	10076.01
492.365	10033
492.569	10192.74
492.772	10211.17
492.976	10190.69
493.18	10434.4
493.383	10497.89
493.587	10428.26
493.79	10463.07
493.994	10452.83
494.197	10643.29
494.401	10897.24
494.605	10563.42
494.808	10899.29
495.012	11001.69
495.215	10872.67
495.419	11106.13
495.622	11108.18
495.825	11243.35
496.029	11132.76
496.232	11317.08
496.436	11278.16
496.639	11646.8
496.843	11669.33
497.046	11802.44
497.249	12033.86
497.453	12017.48
497.656	12291.91
497.859	12173.13
498.063	12451.65
498.266	12658.49
498.469	12486.47
498.673	12603.2
498.876	12687.17
499.079	13016.89
499.282	12994.36
499.485	13416.24
499.689	13588.27
499.892	13733.68
500.095	13606.7
500.298	14049.07
500.501	13881.13
500.705	14124.84
500.908	14542.63
501.111	14343.97
501.314	14913.31
501.517	14616.35
501.72	15027.99
501.923	15075.1
502.126	15335.19
502.329	15519.51
502.532	15759.12
502.735	15587.09
502.938	16076.55
503.141	16422.66
503.344	16262.92
503.547	16434.95
503.75	16695.04
503.953	16813.82
504.156	17161.98
504.359	17045.24
504.562	17276.66
504.765	17825.52
504.968	17729.27
505.17	18173.67
505.373	17874.67
505.576	18495.21
505.779	18542.31
505.982	18831.07
506.185	19001.05
506.387	19123.93
506.59	19064.54
506.793	19437.27
506.996	20004.56
507.198	20295.37
507.401	20268.75
507.604	20461.26
507.807	20733.64
508.009	21024.45
508.212	20854.47
508.415	21315.26
508.617	21497.53
508.82	21415.61
509.022	21550.78
509.225	22060.72
509.428	22349.48
509.63	22353.58
509.833	22490.79
510.035	22847.14
510.238	22939.3
510.44	23164.57
510.643	23477.91
510.845	23928.47
511.048	23520.92
511.25	24260.24
511.453	24170.13
511.655	25208.45
511.858	24833.67
512.06	25173.63
512.262	25673.34
512.465	25499.26
512.667	25726.58
512.87	26316.4
513.072	26269.3
513.274	26771.05
513.477	27016.8
513.679	27061.86
513.881	27526.75
514.084	27637.34
514.286	27879
514.488	27903.57
514.69	28724.81
514.893	28821.06
515.095	28915.27
515.297	29236.8
515.499	29283.91
515.701	29976.12
515.904	29691.45
516.106	30354.99
516.308	30692.91
516.51	31006.25
516.712	30912.04
516.914	31608.35
517.116	32050.71
517.318	32161.3
517.52	31929.88
517.722	32140.82
517.925	32880.14
518.127	32892.43
518.329	33189.38
518.531	33254.92
518.733	34072.06
518.935	34045.43
519.136	33932.79
519.338	34962.92
519.54	34889.2
519.742	35237.35
519.944	35114.47
520.146	35962.33
520.348	35950.04
520.55	36496.85
520.752	36535.76
520.954	37045.71
521.155	36943.31
521.357	38053.31
521.559	37686.72
521.761	38161.85
521.963	38008.25
522.164	38270.39
522.366	38673.84
522.568	38903.21
522.77	39009.71
522.971	39767.46
523.173	40048.03
523.375	40027.55
523.576	40365.46
523.778	40017.31
523.98	40893.84
524.181	40758.67
524.383	40912.27
524.584	41332.11
524.786	41532.81
524.988	41502.09
525.189	42061.18
525.391	42229.12
525.592	42751.35
525.794	42726.77
525.995	42700.15
526.197	42870.13
526.398	43228.52
526.6	43285.87
526.801	43709.8
527.003	44004.7
527.204	44129.63
527.406	44399.96
527.607	44377.43
527.808	44967.25
528.01	43847.01
528.211	44578.14
528.412	45745.48
528.614	45020.5
528.815	45526.35
529.016	45612.36
529.218	44928.34
529.419	45499.72
529.62	45268.3
529.822	45507.91
530.023	46015.81
530.224	46277.95
530.425	45870.4
530.626	45679.94
530.828	46042.43
531.029	46579
531.23	45604.17
531.431	46255.42
531.632	46740.79
531.833	46552.38
532.035	46701.88
532.236	46544.19
532.437	46581.05
532.638	46636.34
532.839	47078.71
533.04	46996.79
533.241	46519.61
533.442	47306.03
533.643	47007.03
533.844	47293.74
534.045	47303.98
534.246	46681.4
534.447	47590.7
534.648	46849.33
534.849	47402.28
535.05	46984.5
535.251	47672.62
535.451	47322.41
535.652	47527.21
535.853	47383.85
536.054	47420.72
536.255	47680.81
536.456	47140.14
536.657	48059.68
536.857	47512.87
537.058	47308.08
537.259	47914.28
537.46	47461.68
537.66	47656.23
537.861	47598.89
538.062	47439.15
538.263	47766.82
538.463	47981.86
538.664	47590.7
538.865	47627.56
539.065	47988
539.266	46984.5
539.466	48315.68
539.667	47267.12
539.868	48016.68
540.068	47922.47
540.269	47621.42
540.469	48119.07
540.67	47654.18
540.87	47408.43
541.071	47869.22
541.271	47623.47
541.472	47983.91
541.672	47273.26
541.873	47553.83
542.073	47226.16
542.274	48600.35
542.474	47725.86
542.675	47627.56
542.875	48155.94
543.075	47557.93
543.276	47252.78
543.476	47973.67
543.676	47162.67
543.877	48196.9
544.077	47361.33
544.277	47789.35
544.478	47267.12
544.678	47893.8
544.878	47559.98
545.078	47691.05
545.279	47508.78
545.479	47277.36
545.679	47224.11
545.879	47717.67
546.079	47469.87
546.28	47574.31
546.48	47476.01
546.68	48035.11
546.88	47670.57
547.08	47426.86
547.28	47533.35
547.48	47326.51
547.68	47856.93
547.88	47324.46
548.081	47631.66
548.281	47306.03
548.481	47578.41
548.681	47734.06
548.881	47410.48
549.081	47490.35
549.28	47058.23
549.48	48131.36
549.68	47205.68
549.88	48041.25
550.08	47213.87
550.28	47553.83
550.48	47172.91
550.68	47742.25
550.88	46884.15
551.08	47598.89
551.279	47697.19
551.479	47109.43
551.679	47322.41
551.879	47037.75
552.079	47226.16
552.278	47207.73
552.478	47390
552.678	47623.47
552.878	47476.01
553.077	47459.63
553.277	47271.21
553.477	47635.75
553.676	47439.15
553.876	47295.79
554.076	47308.08
554.275	47068.47
554.475	46382.4
554.674	47154.48
554.874	46925.11
555.074	47209.78
555.273	47197.49
555.473	47222.06
555.672	46730.55
555.872	46775.61
556.071	46445.88
556.271	47158.58
556.47	46673.21
556.67	46540.09
556.869	46843.19
557.068	47138.1
557.268	46323.01
557.467	46454.08
557.667	46839.09
557.866	46738.74
558.065	46542.14
558.265	46243.13
558.464	46427.45
558.663	46742.84
558.863	45884.74
559.062	46472.51
559.261	45919.56
559.461	46445.88
559.66	45532.49
559.859	46271.81
560.058	45847.88
560.258	46255.42
560.457	45219.15
560.656	45612.36
560.855	45417.8
561.054	46062.91
561.253	45462.86
561.453	45397.32
561.652	45249.87
561.851	45452.62
562.05	44938.58
562.249	45198.67
562.448	45632.84
562.647	45129.04
562.846	45188.43
563.045	44676.44
563.244	44649.81
563.443	44920.15
563.642	43855.2
563.841	44645.72
564.04	44043.62
564.239	44766.55
564.438	44275.04
564.637	44555.61
564.836	44195.17
565.035	44035.42
565.234	44418.39
565.432	43763.04
565.631	43775.33
565.83	43730.28
566.029	43535.72
566.228	43603.3
566.427	43638.12
566.625	43505
566.824	42732.92
567.023	43519.34
567.222	42339.71
567.42	42724.72
567.619	42726.77
567.818	42952.05
568.016	42745.2
568.215	43064.69
568.414	42405.24
568.612	42954.1
568.811	42247.55
569.01	42564.98
569.208	41559.43
569.407	42323.32
569.605	41989.5
569.804	41858.43
570.002	41586.05
570.201	42284.41
570.4	41889.15
570.598	41819.52
570.797	41162.12
570.995	41332.11
571.193	40807.83
571.392	41213.32
571.59	40832.4
571.789	40904.08
571.987	40799.63
572.186	40637.84
572.384	40777.11
572.582	40562.07
572.781	40629.65
572.979	40289.69
573.177	40156.57
573.376	40222.11
573.574	39724.45
573.772	39724.45
573.971	39521.7
574.169	39507.37
574.367	39665.06
574.565	39734.69
574.763	39536.04
574.962	39599.52
575.16	39003.56
575.358	39597.48
575.556	38727.09
575.754	39130.54
575.952	38747.57
576.151	39312.81
576.349	38587.83
576.547	38165.95
576.745	38684.08
576.943	38409.65
577.141	37985.72
577.339	38630.83
577.537	38346.17
577.735	38010.3
577.933	37789.12
578.131	37879.23
578.329	37629.38
578.527	37686.72
578.725	37539.27
578.923	37584.32
579.121	37438.92
579.319	37088.71
579.516	37270.98
579.714	37354.95
579.912	36990.41
580.11	36828.62
580.308	37129.67
580.506	36642.26
580.704	36181.46
580.901	36648.4
581.099	36802
581.297	36087.26
581.495	35894.75
581.692	36658.64
581.89	36025.82
582.088	36414.93
582.285	35880.41
582.483	36101.59
582.681	35782.11
582.878	35739.1
583.076	35474.91
583.274	35904.99
583.471	35085.8
583.669	34913.77
583.866	35175.91
584.064	35212.77
584.262	34665.97
584.459	35274.21
584.657	34909.68
584.854	35128.81
585.052	34530.8
585.249	34694.64
585.447	34534.9
585.644	34078.2
585.841	34436.59
586.039	34412.02
586.236	33746.43
586.434	33736.19
586.631	33586.69
586.828	33748.48
587.026	33955.32
587.223	33771
587.42	33717.76
587.618	33320.45
587.815	32966.15
588.012	33250.82
588.21	32796.17
588.407	33476.1
588.604	33009.16
588.801	32775.69
588.999	32894.47
589.196	32650.77
589.393	32495.12
589.59	32634.38
589.787	32464.4
589.984	31917.59
590.182	31817.24
590.379	32235.03
590.576	32261.65
590.773	32239.12
590.97	31981.08
591.167	31571.49
591.364	31229.48
591.561	31790.62
591.758	31350.31
591.955	31292.96
592.152	31438.37
592.349	30996.01
592.546	31200.8
592.743	31000.1
592.94	30557.74
593.137	30854.7
593.334	30895.66
593.531	30477.87
593.727	30774.83
593.924	30309.94
594.121	30217.78
594.318	30705.2
594.515	30185.01
594.712	30537.26
594.908	30060.09
595.105	30316.08
595.302	29957.69
595.499	29736.51
595.696	29709.88
595.892	29453.89
596.089	30041.65
596.286	29398.59
596.482	29255.23
596.679	29472.32
596.876	29240.9
597.072	29197.89
597.269	29130.31
597.466	28835.4
597.662	29058.63
597.859	28798.54
598.055	28642.89
598.252	28542.54
598.448	28407.37
598.645	28442.19
598.841	28137.04
599.038	28550.73
599.234	28413.52
599.431	28362.32
599.627	27948.63
599.824	28014.16
600.02	27790.94
600.217	28102.23
600.413	27442.78
600.609	27577.95
600.806	27457.12
601.002	27866.71
601.198	27389.53
601.395	27080.29
601.591	26820.2
601.787	27504.22
601.984	27156.07
602.18	27217.5
602.376	26705.51
602.572	26539.63
602.769	26738.28
602.965	26459.76
603.161	26584.68
603.357	25988.72
603.553	26527.34
603.75	26578.54
603.946	26285.68
604.142	26513
604.338	26064.5
604.534	26197.62
604.73	25509.5
604.926	25753.21
605.122	25861.75
605.318	25601.66
605.514	25558.65
605.71	25532.03
605.906	25550.46
606.102	25400.96
606.298	25618.04
606.494	25069.19
606.69	25288.32
606.886	25214.59
607.082	24850.05
607.278	25104
607.474	24481.42
607.67	24917.64
607.866	24739.46
608.062	24936.07
608.257	24727.17
608.453	24346.25
608.649	24518.28
608.845	24311.44
609.041	24462.99
609.236	24223.37
609.432	24239.76
609.628	24116.88
609.824	24213.13
610.019	24254.09
610.215	24100.5
610.411	24100.5
610.606	23797.4
610.802	24192.65
610.998	23916.18
611.193	23912.08
611.389	23758.49
611.584	23744.15
611.78	23660.18
611.976	23641.75
612.171	23527.07
612.367	23443.1
612.562	23312.03
612.758	23158.43
612.953	23148.19
613.149	23410.33
613.344	23070.37
613.539	23525.02
613.735	23408.28
613.93	23328.41
614.126	23119.52
614.321	23002.78
614.517	22884
614.712	22843.04
614.907	22804.13
615.103	22845.09
615.298	22376.11
615.493	22478.5
615.688	22181.55
615.884	22791.84
616.079	22417.07
616.274	22593.19
616.47	22498.98
616.665	22472.36
616.86	22191.79
617.055	22144.69
617.25	21780.15
617.445	22290.09
617.641	21941.94
617.836	22204.08
618.031	21640.89
618.226	22232.75
618.421	21819.06
618.616	21948.08
618.811	21456.57
619.006	21806.77
619.201	21221.05
619.396	21454.52
619.591	21122.75
619.786	21661.37
619.981	21171.9
620.176	21552.82
620.371	21255.87
620.566	20678.34
620.761	20688.58
620.956	20549.32
621.151	20360.91
621.346	20682.44
621.541	20125.39
621.735	20532.93
621.93	20252.36
622.125	20270.79
622.32	20125.39
622.515	19936.98
622.709	19730.13
622.904	19795.67
623.099	19742.42
623.294	19678.93
623.488	19547.86
623.683	19160.8
623.878	19072.73
624.072	19269.34
624.267	19074.78
624.462	19007.2
624.656	19109.6
624.851	18980.57
625.046	18568.93
625.24	18724.58
625.435	18579.17
625.629	18265.83
625.824	18208.49
626.018	18333.42
626.213	17497.85
626.407	18056.94
626.602	17860.34
626.796	18106.09
626.991	17684.21
627.185	17639.15
627.38	17522.42
627.574	17159.93
627.768	17090.3
627.963	17188.6
628.157	17020.67
628.352	17000.19
628.546	16961.28
628.74	17102.59
628.935	16692.99
629.129	16692.99
629.323	16496.39
629.517	16570.12
629.712	16230.15
629.906	16135.95
630.1	15978.25
630.294	15941.39
630.489	16027.4
630.683	16185.1
630.877	15726.35
631.071	15787.79
631.265	15908.62
631.459	15468.31
631.653	15406.87
631.848	15283.99
632.042	15081.24
632.236	15494.93
632.43	15111.96
632.624	15238.94
632.818	14835.49
633.012	14784.29
633.206	14743.33
633.4	14739.23
633.594	14497.57
633.788	14753.57
633.982	14518.05
634.176	14483.23
634.369	14227.24
634.563	14321.45
634.757	14298.92
634.951	14374.69
635.145	14108.46
635.339	14167.85
635.533	13772.59
635.726	14081.83
635.92	13782.83
636.114	13819.69
636.308	13598.51
636.501	13594.42
636.695	13539.12
636.889	13561.65
637.083	13342.52
637.276	13317.94
637.47	13088.57
637.664	13145.91
637.857	13076.28
638.051	13002.55
638.244	12701.5
638.438	12701.5
638.632	12863.29
638.825	12685.12
639.019	12742.46
639.212	12603.2
639.406	12427.07
639.599	12613.44
639.793	12506.95
639.986	12347.2
640.18	12300.1
640.373	12298.05
640.567	12064.58
640.76	12050.25
640.954	11945.8
641.147	11892.55
641.34	11859.79
641.534	11886.41
641.727	11732.81
641.92	11822.92
642.114	11652.94
642.307	11546.45
642.5	11310.93
642.694	11355.99
642.887	11329.36
643.08	11317.08
643.273	11163.48
643.467	11116.37
643.66	11020.12
643.853	11145.05
644.046	10927.96
644.239	11046.74
644.432	10688.35
644.626	10659.68
644.819	10757.98
645.012	10751.84
645.205	10557.28
645.398	10688.35
645.591	10418.02
645.784	10405.73
645.977	10465.12
646.17	10479.46
646.363	10332
646.556	10110.82
646.749	10241.89
646.942	10372.96
647.135	9942.89
647.328	9963.37
647.521	9879.4
647.714	9576.3
647.907	9727.85
648.099	9930.6
648.292	9772.91
648.485	9660.27
648.678	9723.76
648.871	9566.06
649.064	9353.07
649.256	9582.45
649.449	9422.7
649.642	9273.2
649.835	9334.64
650.027	9181.04
650.22	9281.39
650.413	9228.15
650.605	9189.24
650.798	9107.32
650.991	9000.82
651.183	9013.11
651.376	8853.37
651.568	9049.97
651.761	8802.17
651.954	8773.5
652.146	8781.69
652.339	8648.57
652.531	8779.64
652.724	8570.75
652.916	8396.67
653.109	8425.34
653.301	8322.94
653.494	8503.17
653.686	8230.79
653.879	8513.41
654.071	8398.72
654.263	8148.87
654.456	8312.71
654.648	8400.77
654.84	8081.28
655.033	8040.33
655.225	8169.35
655.417	7939.97
655.61	7968.65
655.802	7999.37
655.994	7829.38
656.186	7913.35
656.379	7976.84
656.571	7647.12
656.763	7573.39
656.955	7663.5
657.148	7731.08
657.34	7587.72
657.532	7516.05
657.724	7550.86
657.916	7473.04
658.108	7458.7
658.3	7493.52
658.492	7176.08
658.684	7362.45
658.876	7333.78
659.068	7380.88
659.26	7346.06
659.452	7255.95
659.644	7075.73
659.836	7251.86
660.028	7004.05
660.22	6883.22
660.412	7075.73
660.604	6813.59
660.796	6930.33
660.988	6694.81
661.18	6766.49
661.372	6805.4
661.563	6776.73
661.755	6594.46
661.947	6776.73
662.139	6703
662.331	6692.76
662.522	6528.92
662.714	6633.37
662.906	6600.6
663.097	6551.45
663.289	6475.68
663.481	6498.2
663.673	6569.88
663.864	6399.9
664.056	6479.77
664.247	6440.86
664.439	6277.02
664.631	6346.66
664.822	6395.81
665.014	6383.52
665.205	6268.83
665.397	6164.39
665.588	6211.49
665.78	6010.79
665.971	6092.71
666.163	6225.82
666.354	5973.92
666.546	6191.01
666.737	5998.5
666.929	5984.16
667.12	5928.87
667.311	6027.17
667.503	5736.36
667.694	5808.04
667.885	5859.24
668.077	5810.09
668.268	5816.23
668.459	5779.37
668.651	5683.11
668.842	5769.13
669.033	5695.4
669.224	5607.34
669.416	5750.7
669.607	5795.75
669.798	5572.52
669.989	5603.24
670.18	5638.06
670.371	5554.09
670.563	5582.76
670.754	5472.17
670.945	5593
671.136	5560.24
671.327	5396.4
671.518	5537.71
671.709	5459.88
671.9	5486.51
672.091	5414.83
672.282	5359.53
672.473	5291.95
672.664	5482.41
672.855	5492.65
673.046	5377.97
673.237	5253.04
673.428	5160.88
673.619	5328.81
673.809	5138.35
674	5300.14
674.191	5228.46
674.382	5089.2
674.573	5144.5
674.764	5101.49
674.954	5210.03
675.145	5201.84
675.336	5150.64
675.527	5259.18
675.717	5226.42
675.908	5121.97
676.099	5021.62
676.289	5054.39
676.48	5019.57
676.671	5066.67
676.861	4947.89
677.052	4988.85
677.243	4908.98
677.433	4995
677.624	5011.38
677.814	4931.51
678.005	5072.82
678.195	4874.17
678.386	5035.96
678.576	4763.58
678.767	4816.82
678.957	4800.44
679.148	5015.48
679.338	4949.94
679.529	4806.58
679.719	4814.77
679.909	4859.83
680.1	4878.26
680.29	4857.78
680.481	4798.39
680.671	4908.98
680.861	4814.77
681.052	4859.83
681.242	4741.05
681.432	4790.2
681.622	4556.73
681.813	4667.32
682.003	4749.24
682.193	4743.1
682.383	4712.38
682.573	4843.45
682.764	4779.96
682.954	4722.62
683.144	4646.84
683.334	4704.18
683.524	4720.57
683.714	4792.25
683.904	4657.08
684.094	4603.83
684.284	4622.27
684.474	4667.32
684.664	4691.9
684.854	4638.65
685.044	4640.7
685.234	4380.61
685.424	4607.93
685.614	4489.15
685.804	4483
685.994	4624.31
686.184	4679.61
686.374	4712.38
686.564	4636.6
686.753	4544.44
686.943	4442.04
687.133	4429.76
687.323	4380.61
687.513	4419.52
687.702	4472.76
687.892	4388.8
688.082	4179.9
688.272	4440
688.461	4321.21
688.651	4308.93
688.841	4249.54
689.03	4331.45
689.22	4290.49
689.41	4306.88
689.599	4095.94
689.789	4224.96
689.979	4184
690.168	4163.52
690.358	4134.85
690.547	4081.6
690.737	4140.99
690.926	4093.89
691.116	4065.22
691.305	4108.23
691.495	4040.64
691.684	4073.41
691.874	4028.35
692.063	4009.92
692.252	4009.92
692.442	4040.64
692.631	3977.16
692.82	3872.71
693.01	3944.39
693.199	3907.52
693.388	3997.64
693.578	3942.34
693.767	3835.85
693.956	3776.45
694.146	3934.15
694.335	3889.09
694.524	3821.51
694.713	3905.48
694.902	3762.12
695.092	3923.91
695.281	3696.58
695.47	3864.52
695.659	3760.07
695.848	3821.51
696.037	3758.02
696.226	3833.8
696.415	3692.49
696.604	3848.13
696.793	3669.96
696.982	3833.8
697.171	3717.06
697.36	3708.87
697.549	3733.45
697.738	3749.83
697.927	3581.9
698.116	3774.41
698.305	3719.11
698.494	3629
698.683	3706.82
698.872	3794.89
699.061	3776.45
699.25	3577.8
699.438	3825.61
699.627	3737.54
699.816	3770.31
700.005	3635.14
700.193	3518.41
700.382	3692.49
700.571	3598.28
700.76	3633.1
700.948	3653.58
701.137	3602.38
701.326	3721.16
701.514	3598.28
701.703	3698.63
701.892	3506.12
702.08	3755.97
702.269	3561.42
702.457	3608.52
702.646	3749.83
702.834	3606.47
703.023	3581.9
703.212	3588.04
703.4	3622.86
703.589	3657.67
703.777	3585.99
703.965	3655.62
704.154	3639.24
704.342	3502.03
704.531	3489.74
704.719	3610.57
704.907	3686.34
705.096	3454.92
705.284	3532.75
705.472	3665.86
705.661	3483.59
705.849	3581.9
706.037	3637.19
706.226	3600.33
706.414	3581.9
706.602	3651.53
706.79	3592.14
706.979	3565.51
707.167	3600.33
707.355	3538.89
707.543	3655.62
707.731	3583.95
707.919	3583.95
708.107	3530.7
708.296	3440.59
708.484	3575.75
708.672	3653.58
708.86	3520.46
709.048	3626.95
709.236	3467.21
709.424	3581.9
709.612	3672.01
709.8	3540.94
709.988	3663.82
710.176	3590.09
710.364	3579.85
710.551	3659.72
710.739	3622.86
710.927	3594.19
711.115	3518.41
711.303	3657.67
711.491	3708.87
711.679	3516.36
711.866	3522.51
712.054	3530.7
712.242	3559.37
712.43	3520.46
712.617	3641.29
712.805	3438.54
712.993	3573.71
713.181	3616.71
713.368	3565.51
713.556	3661.77
713.744	3477.45
713.931	3616.71
714.119	3594.19
714.306	3680.2
714.494	3622.86
714.682	3653.58
714.869	3530.7
715.057	3555.27
715.244	3526.6
715.432	3747.78
715.619	3643.34
715.807	3626.95
715.994	3600.33
716.182	3506.12
716.369	3622.86
716.556	3717.06
716.744	3577.8
716.931	3436.49
717.119	3684.3
717.306	3647.43
717.493	3575.75
717.681	3624.9
717.868	3545.03
718.055	3643.34
718.242	3637.19
718.43	3616.71
718.617	3471.31
718.804	3559.37
718.991	3403.72
719.179	3700.68
719.366	3577.8
719.553	3534.79
719.74	3577.8
719.927	3620.81
720.114	3561.42
720.301	3561.42
720.488	3631.05
720.676	3418.06
720.863	3540.94
721.05	3663.82
721.237	3520.46
721.424	3409.87
721.611	3555.27
721.798	3528.65
721.985	3542.99
722.172	3391.44
722.358	3569.61
722.545	3540.94
722.732	3495.88
722.919	3667.91
723.106	3522.51
723.293	3575.75
723.48	3495.88
723.667	3422.16
723.853	3512.27
724.04	3540.94
724.227	3540.94
724.414	3416.01
724.6	3370.96
724.787	3483.59
724.974	3467.21
725.161	3424.2
725.347	3405.77
725.534	3557.32
725.72	3549.13
725.907	3413.96
726.094	3459.02
726.28	3420.11
726.467	3450.83
726.653	3485.64
726.84	3481.55
727.027	3530.7
727.213	3370.96
727.4	3604.43
727.586	3356.62
727.773	3532.75
727.959	3454.92
728.145	3391.44
728.332	3432.4
728.518	3532.75
728.705	3428.3
728.891	3456.97
729.077	3452.88
729.264	3266.51
729.45	3381.2
729.636	3313.61
729.823	3438.54
730.009	3399.63
730.195	3377.1
730.382	3454.92
730.568	3405.77
730.754	3389.39
730.94	3284.94
731.126	3358.67
731.313	3459.02
731.499	3405.77
731.685	3391.44
731.871	3377.1
732.057	3477.45
732.243	3428.3
732.429	3461.07
732.615	3330
732.801	3385.29
732.987	3160.02
733.173	3383.24
733.359	3399.63
733.545	3327.95
733.731	3176.4
733.917	3307.47
734.103	3274.7
734.289	3413.96
734.475	3243.98
734.661	3340.24
734.847	3352.52
735.033	3456.97
735.219	3317.71
735.404	3254.22
735.59	3338.19
735.776	3311.57
735.962	3184.59
736.148	3389.39
736.333	3391.44
736.519	3258.32
736.705	3299.28
736.89	3282.89
737.076	3217.36
737.262	3035.09
737.447	3319.76
737.633	3182.54
737.819	3243.98
738.004	3207.12
738.19	3311.57
738.375	3270.61
738.561	3293.13
738.747	3221.45
738.932	3123.15
739.118	3180.5
739.303	3129.3
739.489	3018.71
739.674	2975.7
739.859	2963.41
740.045	3022.8
740.23	3172.3
740.416	2957.27
740.601	3078.1
740.786	3018.71
740.972	3055.57
741.157	3033.04
741.342	2959.31
741.528	3129.3
741.713	3041.23
741.898	2996.18
742.084	2955.22
742.269	3039.19
742.454	3010.51
742.639	3076.05
742.824	2957.27
743.01	3022.8
743.195	2922.45
743.38	3022.8
743.565	2852.82
743.75	2901.97
743.935	2799.57
744.12	2891.73
744.305	2680.79
744.49	2824.15
744.675	2789.33
744.86	2779.09
745.045	2670.55
745.23	2834.39
745.415	2760.66
745.6	2744.28
745.785	2764.76
745.97	2715.61
746.155	2752.47
746.34	2605.02
746.525	2570.2
746.71	2629.59
746.895	2660.31
747.079	2668.5
747.264	2592.73
747.449	2533.34
747.634	2488.28
747.819	2377.69
748.003	2519
748.188	2600.92
748.373	2492.38
748.557	2496.47
748.742	2559.96
748.927	2473.95
749.111	2287.58
749.296	2484.19
749.481	2344.92
749.665	2400.22
749.85	2418.65
750.034	2351.07
750.219	2312.16
750.404	2220
750.588	2226.14
750.773	2260.96
750.957	2185.18
751.141	2365.4
751.326	2226.14
751.51	2174.94
751.695	2228.19
751.879	2213.85
752.064	2191.33
752.248	2211.81
752.432	2189.28
752.617	2115.55
752.801	2164.7
752.985	2119.65
753.17	2041.82
753.354	2082.78
753.538	1990.63
753.722	2023.39
753.907	1984.48
754.091	1961.95
754.275	1984.48
754.459	1927.14
754.643	1939.43
754.828	1945.57
755.012	1992.67
755.196	1910.75
755.38	1824.74
755.564	1943.52
755.748	1828.84
755.932	1896.42
756.116	1873.89
756.3	1882.08
756.484	1816.55
756.668	1808.36
756.852	1777.64
757.036	1796.07
757.22	1808.36
757.404	1716.2
757.588	1665
757.772	1710.05
757.956	1781.73
758.14	1671.14
758.323	1656.81
758.507	1634.28
758.691	1619.94
758.875	1679.33
759.059	1591.27
759.242	1710.05
759.426	1581.03
759.61	1591.27
759.794	1546.22
759.977	1548.26
760.161	1613.8
760.345	1654.76
760.528	1591.27
760.712	1550.31
760.895	1472.49
761.079	1521.64
761.263	1523.69
761.446	1460.2
761.63	1542.12
761.813	1513.45
761.997	1474.54
762.18	1427.43
762.364	1406.95
762.547	1327.08
762.731	1425.39
762.914	1466.35
763.098	1345.52
763.281	1443.82
763.464	1435.63
763.648	1374.19
763.831	1413.1
764.015	1425.39
764.198	1363.95
764.381	1366
764.564	1298.41
764.748	1378.28
764.931	1394.67
765.114	1351.66
765.297	1347.56
765.481	1345.52
765.664	1339.37
765.847	1294.32
766.03	1333.23
766.213	1388.52
766.397	1388.52
766.58	1361.9
766.763	1337.32
766.946	1306.6
767.129	1333.23
767.312	1337.32
767.495	1279.98
767.678	1189.87
767.861	1370.09
768.044	1206.25
768.227	1202.16
768.41	1230.83
768.593	1247.21
768.776	1134.57
768.959	1210.35
769.142	1310.7
769.324	1224.69
769.507	1275.88
769.69	1204.21
769.873	1134.57
770.056	1212.4
770.239	1124.33
770.421	1200.11
770.604	1179.63
770.787	1187.82
770.97	1122.29
771.152	1105.9
771.335	1181.68
771.518	1110
771.7	1120.24
771.883	1073.14
772.066	1073.14
772.248	1026.03
772.431	1089.52
772.613	1120.24
772.796	1054.7
772.978	1087.47
773.161	1007.6
773.343	1034.22
773.526	1013.74
773.708	1011.7
773.891	1026.03
774.073	940.02
774.256	1013.74
774.438	954.35
774.621	997.36
774.803	976.88
774.985	937.97
775.168	1060.85
775.35	1026.03
775.532	985.07
775.715	911.35
775.897	985.07
776.079	880.63
776.261	837.62
776.444	907.25
776.626	997.36
776.808	858.1
776.99	958.45
777.173	897.01
777.355	802.8
777.537	749.56
777.719	899.06
777.901	880.63
778.083	899.06
778.265	925.68
778.447	864.24
778.629	806.9
778.811	825.33
778.993	854
779.175	778.23
779.357	821.24
779.539	833.52
779.721	745.46
779.903	790.52
780.085	780.28
780.267	714.74
780.449	741.36
780.631	792.56
780.812	761.84
780.994	833.52
781.176	749.56
781.358	718.84
781.54	722.93
781.721	698.36
781.903	675.83
782.085	630.77
782.267	702.45
782.448	704.5
782.63	710.65
782.812	667.64
782.993	659.45
783.175	706.55
783.357	718.84
783.538	729.08
783.72	727.03
783.901	657.4
784.083	634.87
784.264	694.26
784.446	591.86
784.627	653.3
784.809	604.15
784.99	647.16
785.172	565.24
785.353	618.49
785.535	649.21
785.716	561.14
785.897	641.01
786.079	526.33
786.26	598.01
786.441	630.77
786.623	487.42
786.804	632.82
786.985	550.9
787.167	565.24
787.348	503.8
787.529	505.85
787.71	569.34
787.891	565.24
788.073	479.22
788.254	579.58
788.435	608.25
788.616	567.29
788.797	563.19
788.978	423.93
789.159	481.27
789.34	460.79
789.522	477.18
789.703	460.79
789.884	559.1
790.065	477.18
790.246	497.66
790.427	495.61
790.607	620.53
790.788	497.66
790.969	354.3
791.15	489.46
791.331	489.46
791.512	401.4
791.693	497.66
791.874	448.51
792.054	495.61
792.235	557.05
792.416	413.69
792.597	421.88
792.778	419.83
792.958	446.46
793.139	360.44
793.32	378.87
793.5	436.22
793.681	438.27
793.862	432.12
794.042	378.87
794.223	337.91
794.404	399.35
794.584	296.96
794.765	374.78
794.945	342.01
795.126	395.26
795.306	411.64
795.487	329.72
795.667	376.83
795.848	391.16
796.028	335.87
796.209	376.83
796.389	417.79
796.57	317.44
796.75	415.74
796.93	397.31
797.111	274.43
797.291	385.02
797.471	378.87
797.652	325.63
797.832	346.11
798.012	333.82
798.192	307.2
798.373	280.57
798.553	296.96
798.733	276.48
798.913	311.29
799.093	296.96
799.274	329.72
799.454	333.82
799.634	335.87
799.814	319.48
799.994	317.44
800.174	337.91
800.354	391.16
800.534	325.63
800.714	344.06
800.894	210.94
801.074	284.67
801.254	315.39
801.434	290.81
801.614	303.1
801.794	305.15
801.974	790.52
802.154	253.95
802.334	319.48
802.514	258.04
802.693	245.76
802.873	243.71
803.053	301.05
803.233	268.28
803.413	278.52
803.592	245.76
803.772	264.19
803.952	253.95
804.131	270.33
804.311	354.3
804.491	239.61
804.67	196.61
804.85	284.67
805.03	301.05
805.209	249.85
805.389	317.44
805.568	110.59
805.748	262.14
805.928	229.37
806.107	253.95
806.287	229.37
806.466	282.62
806.646	151.55
806.825	231.42
807.004	219.13
807.184	245.76
807.363	272.38
807.543	227.32
807.722	241.66
807.901	180.22
808.081	272.38
808.26	165.89
808.439	243.71
808.619	180.22
808.798	276.48
808.977	260.09
809.156	313.34
809.336	206.84
809.515	198.65
809.694	212.99
809.873	174.08
810.052	172.03
810.231	204.8
810.411	147.45
810.59	198.65
810.769	145.41
810.948	221.18
811.127	188.41
811.306	161.79
811.485	169.98
811.664	178.17
811.843	272.38
812.022	182.27
812.201	227.32
812.38	194.56
812.559	169.98
812.737	186.37
812.916	116.73
813.095	276.48
813.274	145.41
813.453	169.98
813.632	210.94
813.811	118.78
813.989	126.97
814.168	276.48
814.347	172.03
814.526	124.93
814.704	116.73
814.883	149.5
815.062	129.02
815.24	112.64
815.419	180.22
815.598	292.86
815.776	235.52
815.955	112.64
816.133	133.12
816.312	145.41
816.49	34.82
816.669	131.07
816.847	163.84
817.026	153.6
817.204	126.97
817.383	200.7
817.561	104.45
817.74	159.74
817.918	108.54
818.097	161.79
818.275	167.93
818.453	108.54
818.632	159.74
818.81	149.5
818.988	137.21
819.167	131.07
819.345	75.77
819.523	143.36
819.701	114.69
819.879	94.21
820.058	133.12
820.236	204.8
820.414	149.5
820.592	114.69
820.77	114.69
820.948	137.21
821.127	114.69
821.305	102.4
821.483	190.46
821.661	96.25
821.839	186.37
822.017	110.59
822.195	51.2
822.373	122.88
822.551	71.68
822.729	172.03
822.907	129.02
823.085	169.98
823.262	129.02
823.44	71.68
823.618	139.26
823.796	116.73
823.974	126.97
824.152	122.88
824.329	129.02
824.507	169.98
824.685	182.27
824.863	114.69
825.04	100.35
825.218	172.03
825.396	137.21
825.574	90.11
825.751	104.45
825.929	102.4
826.107	65.54
826.284	133.12
826.462	137.21
826.639	83.97
826.817	75.77
826.994	165.89
827.172	30.72
827.349	176.13
827.527	182.27
827.704	83.97
827.882	102.4
828.059	129.02
828.237	100.35
828.414	83.97
828.591	59.39
828.769	210.94
828.946	16.38
829.124	79.87
829.301	180.22
829.478	190.46
829.655	40.96
829.833	71.68
830.01	45.06
830.187	47.1
830.364	69.63
830.542	108.54
830.719	88.06
830.896	151.55
831.073	61.44
831.25	108.54
831.427	167.93
831.604	77.82
831.782	65.54
831.959	98.3
832.136	57.34
832.313	153.6
832.49	-24.58
832.667	55.3
832.844	30.72
833.021	34.82
833.198	6.14
833.374	92.16
833.551	43.01
833.728	47.1
833.905	69.63
834.082	172.03
834.259	116.73
834.436	98.3
834.612	34.82
834.789	108.54
834.966	73.73
835.143	45.06
835.319	96.25
835.496	79.87
835.673	49.15
835.85	36.86
836.026	28.67
836.203	104.45
836.38	81.92
836.556	49.15
836.733	51.2
836.909	135.17
837.086	32.77
837.262	28.67
837.439	169.98
837.616	32.77
837.792	53.25
837.968	90.11
838.145	6.14
838.321	112.64
838.498	55.3
838.674	139.26
838.851	59.39
839.027	6.14
839.203	40.96
839.38	45.06
839.556	126.97
839.732	137.21
839.909	51.2
840.085	59.39
840.261	34.82
840.437	-8.19
840.614	34.82
840.79	43.01
840.966	-22.53
841.142	6.14
841.318	2.05
841.494	90.11
841.671	88.06
841.847	26.62
842.023	-4.1
842.199	2.05
842.375	114.69
842.551	30.72
842.727	-20.48
842.903	26.62
843.079	-2.05
843.255	10.24
843.431	6.14
843.607	94.21
843.783	-10.24
843.959	24.58
844.134	55.3
844.31	145.41
844.486	-45.06
844.662	24.58
844.838	-2.05
845.013	73.73
845.189	40.96
845.365	71.68
845.541	43.01
845.716	-22.53
845.892	36.86
846.068	90.11
846.244	20.48
846.419	65.54
846.595	16.38
846.77	45.06
846.946	77.82
847.122	124.93
847.297	79.87
847.473	106.49
847.648	-34.82
847.824	-16.38
847.999	-61.44
848.175	8.19
848.35	18.43
848.526	45.06
848.701	55.3
848.876	-53.25
849.052	8.19
849.227	73.73
849.403	18.43
849.578	67.58
849.753	-34.82
849.929	2.05
850.104	40.96
850.279	-22.53
850.454	2.05
850.63	88.06
850.805	-4.1
850.98	28.67
851.155	59.39
851.33	75.77
851.505	-6.14
851.681	16.38
851.856	55.3
852.031	51.2
852.206	-24.58
852.381	-18.43
852.556	4.1
852.731	-6.14
852.906	98.3
853.081	-2.05
853.256	124.93
853.431	-20.48
853.606	-10.24
853.781	2.05
853.956	55.3
854.131	6.14
854.305	6.14
854.48	71.68
854.655	18.43
854.83	24.58
855.005	55.3
855.18	22.53
855.354	-26.62
855.529	45.06
855.704	36.86
855.879	6.14
856.053	59.39
856.228	38.91
856.403	22.53
856.577	34.82
856.752	-20.48
856.926	-26.62
857.101	86.01
857.276	59.39
857.45	-2.05
857.625	47.1
857.799	-63.49
857.974	-61.44
858.148	0
858.323	10.24
858.497	-8.19
858.672	55.3
858.846	-79.87
859.02	-6.14
859.195	24.58
859.369	12.29
859.543	18.43
859.718	28.67
859.892	-26.62
860.066	4.1
860.241	6.14
860.415	-14.34
860.589	-12.29
860.763	112.64
860.938	40.96
861.112	-6.14
861.286	-34.82
861.46	8.19
861.634	18.43
861.808	94.21
861.982	0
862.157	-47.1
862.331	26.62
862.505	-26.62
862.679	20.48
862.853	12.29
863.027	51.2
863.201	34.82
863.375	-57.34
863.549	-45.06
863.722	-8.19
863.896	-14.34
864.07	18.43
864.244	94.21
864.418	38.91
864.592	-12.29
864.766	16.38
864.939	6.14
865.113	55.3
865.287	75.77
865.461	-36.86
865.634	12.29
865.808	26.62
865.982	14.34
866.156	-90.11
866.329	16.38
866.503	-26.62
866.676	-28.67
866.85	0
867.024	47.1
867.197	69.63
867.371	-47.1
867.544	47.1
867.718	-43.01
867.891	0
868.065	-34.82
868.238	-73.73
868.412	8.19
868.585	-6.14
868.759	4.1
868.932	-38.91
869.105	18.43
869.279	26.62
869.452	-43.01
869.625	-20.48
869.799	43.01
869.972	-65.54
870.145	0
870.319	-47.1
870.492	16.38
870.665	26.62
870.838	28.67
871.011	-51.2
871.185	-32.77
871.358	-47.1
871.531	-14.34
871.704	-30.72
871.877	18.43
872.05	-36.86
872.223	-26.62
872.396	14.34
872.569	36.86
872.742	-34.82
872.915	79.87
873.088	-32.77
873.261	-43.01
873.434	-32.77
873.607	51.2
873.78	40.96
873.953	34.82
874.126	-59.39
874.299	6.14
874.471	45.06
874.644	2.05
874.817	-26.62
874.99	26.62
875.163	-57.34
875.335	8.19
875.508	4.1
875.681	-30.72
875.853	10.24
876.026	-8.19
876.199	-43.01
876.371	-55.3
876.544	63.49
876.717	-16.38
876.889	45.06
877.062	0
877.234	0
877.407	14.34
877.579	-55.3
877.752	2.05
877.924	73.73
878.097	-36.86
878.269	-10.24
878.442	-67.58
878.614	65.54
878.786	43.01
878.959	0
879.131	14.34
879.303	-2.05
879.476	2.05
879.648	-83.97
879.82	-18.43
879.993	8.19
880.165	59.39
880.337	34.82
880.509	-16.38
880.681	-120.83
880.854	-38.91
881.026	-57.34
881.198	53.25
881.37	28.67
881.542	10.24
881.714	-4.1
881.886	6.14
882.058	-69.63
882.23	6.14
882.402	43.01
882.574	32.77
882.746	53.25
882.918	-22.53
883.09	2.05
883.262	14.34
883.434	-22.53
883.606	-4.1
883.778	100.35
883.95	59.39
884.122	0
884.293	-47.1
884.465	-55.3
884.637	8.19
884.809	-83.97
884.98	-36.86
885.152	26.62
885.324	14.34
885.496	40.96
885.667	-18.43
885.839	-55.3
886.011	-12.29
886.182	22.53
886.354	-14.34
886.525	-22.53
886.697	24.58
886.869	-77.82
887.04	10.24
887.212	-59.39
887.383	73.73
887.555	-32.77
887.726	24.58
887.897	34.82
888.069	12.29
888.24	-32.77
888.412	-14.34
888.583	0
888.754	-6.14
888.926	32.77
889.097	-22.53
889.268	-6.14
889.44	-88.06
889.611	-45.06
889.782	-26.62
889.953	40.96
890.125	73.73
890.296	45.06
890.467	-32.77
890.638	0
890.809	-12.29
890.98	-2.05
891.151	2.05
891.323	40.96
891.494	-36.86
891.665	0
891.836	-18.43
892.007	40.96
892.178	34.82
892.349	0
892.52	-10.24
892.691	-34.82
892.862	-26.62
893.032	-61.44
893.203	-57.34
893.374	-55.3
893.545	-36.86
893.716	12.29
893.887	63.49
894.057	-47.1
894.228	65.54
894.399	14.34
894.57	-24.58
894.74	-55.3
894.911	-73.73
895.082	-32.77
895.253	26.62
895.423	8.19
895.594	10.24
895.764	-10.24
895.935	18.43
896.106	2.05
896.276	16.38
896.447	14.34
896.617	-63.49
896.788	-14.34
896.958	-32.77
897.129	-8.19
897.299	-10.24
897.47	18.43
897.64	4.1
897.81	-38.91
897.981	14.34
898.151	12.29
898.322	18.43
898.492	47.1
898.662	94.21
898.832	-16.38
899.003	-43.01
899.173	20.48
899.343	-14.34
899.513	-61.44
