Data from USB4F104151__145__10-26-28-766.txt Node

Date: Wed Mar 12 10:26:28 EDT 2025
User: louis
Spectrometer: USB4F10415
Trigger mode: 4
Integration Time (sec): 3.000000E-2
Scans to average: 1
Electric dark correction enabled: true
Nonlinearity correction enabled: false
Boxcar width: 0
XAxis mode: Wavelengths
Number of Pixels in Spectrum: 3648
>>>>>Begin Spectral Data<<<<<
178.204	-95.06
178.424	-95.06
178.644	-95.06
178.864	-90.96
179.084	-99.16
179.304	7.34
179.524	13.48
179.744	1.19
179.964	5.29
180.184	-9.05
180.404	-4.95
180.624	-2.9
180.844	-7
181.064	-11.09
181.283	-23.38
181.503	3.24
181.723	27.82
181.943	-121.68
182.163	48.3
182.383	29.87
182.602	91.31
182.822	68.78
183.042	44.2
183.262	42.15
183.482	70.83
183.701	64.68
183.921	9.39
184.141	31.91
184.361	19.63
184.58	5.29
184.8	-27.48
185.02	7.34
185.239	7.34
185.459	33.96
185.679	31.91
185.898	-0.85
186.118	-0.85
186.338	-17.24
186.557	15.53
186.777	7.34
186.997	-4.95
187.216	-13.14
187.436	134.31
187.655	52.39
187.875	27.82
188.095	9.39
188.314	42.15
188.534	40.11
188.753	-50
188.973	44.2
189.192	-19.29
189.412	-33.62
189.631	44.2
189.851	-35.67
190.07	97.45
190.29	23.72
190.509	-35.67
190.729	-7
190.948	27.82
191.168	136.36
191.387	72.87
191.607	-25.43
191.826	7.34
192.045	21.67
192.265	13.48
192.484	56.49
192.704	11.43
192.923	7.34
193.142	107.69
193.362	68.78
193.581	50.35
193.8	23.72
194.02	38.06
194.239	33.96
194.458	66.73
194.678	-0.85
194.897	46.25
195.116	87.21
195.335	56.49
195.555	19.63
195.774	-2.9
195.993	9.39
196.212	-13.14
196.432	-0.85
196.651	-33.62
196.87	11.43
197.089	56.49
197.308	48.3
197.528	-21.33
197.747	-58.2
197.966	3.24
198.185	107.69
198.404	-68.44
198.623	-0.85
198.842	-2.9
199.062	-43.86
199.281	25.77
199.5	54.44
199.719	-13.14
199.938	95.4
200.157	7.34
200.376	-19.29
200.595	107.69
200.814	23.72
201.033	-9.05
201.252	1.19
201.471	109.74
201.69	48.3
201.909	-9.05
202.128	25.77
202.347	87.21
202.566	19.63
202.785	21.67
203.004	-21.33
203.223	107.69
203.442	29.87
203.661	60.59
203.879	-9.05
204.098	93.35
204.317	-17.24
204.536	146.6
204.755	56.49
204.974	52.39
205.193	5.29
205.411	87.21
205.63	36.01
205.849	13.48
206.068	9.39
206.287	-64.34
206.505	42.15
206.724	89.26
206.943	-13.14
207.162	-25.43
207.381	-4.95
207.599	-2.9
207.818	-0.85
208.037	44.2
208.255	1.19
208.474	23.72
208.693	3.24
208.911	-23.38
209.13	1.19
209.349	42.15
209.567	46.25
209.786	13.48
210.005	5.29
210.223	48.3
210.442	31.91
210.661	40.11
210.879	54.44
211.098	-4.95
211.316	31.91
211.535	27.82
211.753	-13.14
211.972	19.63
212.191	40.11
212.409	-50
212.628	36.01
212.846	-9.05
213.065	7.34
213.283	62.63
213.502	60.59
213.72	-2.9
213.938	25.77
214.157	44.2
214.375	23.72
214.594	66.73
214.812	54.44
215.031	27.82
215.249	68.78
215.467	50.35
215.686	52.39
215.904	70.83
216.122	-0.85
216.341	81.07
216.559	89.26
216.778	81.07
216.996	70.83
217.214	-31.57
217.432	-43.86
217.651	27.82
217.869	19.63
218.087	19.63
218.306	21.67
218.524	5.29
218.742	1.19
218.96	81.07
219.179	-7
219.397	23.72
219.615	40.11
219.833	31.91
220.051	-29.52
220.27	81.07
220.488	70.83
220.706	15.53
220.924	13.48
221.142	7.34
221.36	40.11
221.578	113.83
221.796	-19.29
222.015	-39.76
222.233	38.06
222.451	85.16
222.669	-45.91
222.887	1.19
223.105	-66.39
223.323	31.91
223.541	-9.05
223.759	-9.05
223.977	-7
224.195	29.87
224.413	33.96
224.631	33.96
224.849	38.06
225.067	44.2
225.285	15.53
225.503	40.11
225.721	-41.81
225.939	66.73
226.157	79.02
226.375	156.84
226.592	-25.43
226.81	-4.95
227.028	1.19
227.246	50.35
227.464	-31.57
227.682	115.88
227.9	62.63
228.117	-21.33
228.335	56.49
228.553	74.92
228.771	-29.52
228.989	-11.09
229.206	17.58
229.424	40.11
229.642	70.83
229.86	13.48
230.077	89.26
230.295	15.53
230.513	38.06
230.731	99.5
230.948	122.02
231.166	85.16
231.384	-17.24
231.601	40.11
231.819	126.12
232.037	-37.72
232.254	-33.62
232.472	-9.05
232.689	27.82
232.907	111.78
233.125	74.92
233.342	-23.38
233.56	42.15
233.777	1.19
233.995	29.87
234.213	56.49
234.43	132.26
234.648	68.78
234.865	87.21
235.083	13.48
235.3	13.48
235.518	93.35
235.735	97.45
235.953	52.39
236.17	72.87
236.388	-35.67
236.605	7.34
236.822	58.54
237.04	13.48
237.257	76.97
237.475	7.34
237.692	83.11
237.909	48.3
238.127	103.59
238.344	29.87
238.562	-2.9
238.779	-27.48
238.996	-19.29
239.214	15.53
239.431	-9.05
239.648	17.58
239.865	25.77
240.083	3.24
240.3	15.53
240.517	19.63
240.735	-23.38
240.952	126.12
241.169	29.87
241.386	64.68
241.603	68.78
241.821	103.59
242.038	93.35
242.255	62.63
242.472	-15.19
242.689	64.68
242.907	48.3
243.124	-13.14
243.341	23.72
243.558	7.34
243.775	-31.57
243.992	-66.39
244.209	29.87
244.426	15.53
244.643	-29.52
244.86	15.53
245.078	19.63
245.295	-4.95
245.512	27.82
245.729	33.96
245.946	31.91
246.163	29.87
246.38	56.49
246.597	40.11
246.814	27.82
247.031	40.11
247.248	21.67
247.464	105.64
247.681	-19.29
247.898	79.02
248.115	52.39
248.332	-56.15
248.549	91.31
248.766	105.64
248.983	33.96
249.2	54.44
249.417	89.26
249.633	52.39
249.85	17.58
250.067	21.67
250.284	23.72
250.501	93.35
250.717	62.63
250.934	11.43
251.151	-0.85
251.368	33.96
251.585	76.97
251.801	5.29
252.018	-9.05
252.235	27.82
252.451	48.3
252.668	48.3
252.885	101.55
253.102	9.39
253.318	-19.29
253.535	68.78
253.752	93.35
253.968	48.3
254.185	74.92
254.401	27.82
254.618	48.3
254.835	7.34
255.051	76.97
255.268	44.2
255.484	38.06
255.701	46.25
255.917	-2.9
256.134	40.11
256.351	52.39
256.567	9.39
256.784	19.63
257	-7
257.217	54.44
257.433	-13.14
257.65	-23.38
257.866	15.53
258.082	-7
258.299	-17.24
258.515	52.39
258.732	31.91
258.948	52.39
259.165	74.92
259.381	54.44
259.597	-0.85
259.814	-27.48
260.03	1.19
260.246	64.68
260.463	46.25
260.679	48.3
260.895	-29.52
261.112	58.54
261.328	23.72
261.544	19.63
261.761	46.25
261.977	-35.67
262.193	21.67
262.409	130.22
262.626	81.07
262.842	-7
263.058	3.24
263.274	72.87
263.49	36.01
263.707	58.54
263.923	46.25
264.139	5.29
264.355	-13.14
264.571	62.63
264.787	-35.67
265.004	54.44
265.22	56.49
265.436	-9.05
265.652	64.68
265.868	81.07
266.084	-0.85
266.3	21.67
266.516	60.59
266.732	11.43
266.948	42.15
267.164	33.96
267.38	-11.09
267.596	-54.1
267.812	119.98
268.028	-0.85
268.244	3.24
268.46	-19.29
268.676	-4.95
268.892	62.63
269.108	-25.43
269.324	-0.85
269.54	-0.85
269.756	68.78
269.972	19.63
270.188	60.59
270.403	-43.86
270.619	-4.95
270.835	40.11
271.051	21.67
271.267	29.87
271.483	52.39
271.698	126.12
271.914	3.24
272.13	-13.14
272.346	-41.81
272.562	44.2
272.777	42.15
272.993	85.16
273.209	-25.43
273.425	11.43
273.64	-15.19
273.856	33.96
274.072	3.24
274.287	54.44
274.503	38.06
274.719	62.63
274.934	66.73
275.15	-0.85
275.366	81.07
275.581	-15.19
275.797	60.59
276.012	17.58
276.228	52.39
276.444	52.39
276.659	56.49
276.875	-50
277.09	-27.48
277.306	44.2
277.521	52.39
277.737	-15.19
277.952	52.39
278.168	-17.24
278.383	60.59
278.599	-0.85
278.814	33.96
279.03	-39.76
279.245	74.92
279.461	54.44
279.676	25.77
279.892	3.24
280.107	-25.43
280.322	-33.62
280.538	33.96
280.753	13.48
280.969	58.54
281.184	46.25
281.399	40.11
281.615	9.39
281.83	111.78
282.045	-58.2
282.26	19.63
282.476	-39.76
282.691	66.73
282.906	44.2
283.122	56.49
283.337	-68.44
283.552	70.83
283.767	31.91
283.983	17.58
284.198	89.26
284.413	13.48
284.628	15.53
284.843	29.87
285.058	81.07
285.274	27.82
285.489	-11.09
285.704	11.43
285.919	29.87
286.134	-7
286.349	44.2
286.564	7.34
286.779	56.49
286.995	25.77
287.21	-13.14
287.425	56.49
287.64	13.48
287.855	64.68
288.07	38.06
288.285	7.34
288.5	89.26
288.715	93.35
288.93	31.91
289.145	38.06
289.36	-2.9
289.575	64.68
289.79	33.96
290.004	72.87
290.219	31.91
290.434	33.96
290.649	42.15
290.864	19.63
291.079	33.96
291.294	128.17
291.509	48.3
291.724	23.72
291.938	-9.05
292.153	40.11
292.368	89.26
292.583	36.01
292.798	107.69
293.012	52.39
293.227	40.11
293.442	40.11
293.657	56.49
293.871	87.21
294.086	79.02
294.301	52.39
294.516	152.74
294.73	-27.48
294.945	-4.95
295.16	36.01
295.374	-4.95
295.589	36.01
295.804	13.48
296.018	72.87
296.233	79.02
296.447	33.96
296.662	36.01
296.877	9.39
297.091	-35.67
297.306	91.31
297.52	46.25
297.735	-27.48
297.949	-7
298.164	36.01
298.378	46.25
298.593	40.11
298.807	-21.33
299.022	19.63
299.236	13.48
299.451	68.78
299.665	1.19
299.88	-43.86
300.094	31.91
300.309	19.63
300.523	93.35
300.737	15.53
300.952	68.78
301.166	15.53
301.381	97.45
301.595	46.25
301.809	5.29
302.024	-58.2
302.238	72.87
302.452	31.91
302.667	-17.24
302.881	40.11
303.095	7.34
303.309	93.35
303.524	-90.96
303.738	95.4
303.952	40.11
304.166	23.72
304.381	40.11
304.595	44.2
304.809	40.11
305.023	-2.9
305.237	29.87
305.452	40.11
305.666	44.2
305.88	87.21
306.094	48.3
306.308	36.01
306.522	58.54
306.736	87.21
306.95	44.2
307.164	-7
307.379	29.87
307.593	44.2
307.807	52.39
308.021	23.72
308.235	-11.09
308.449	31.91
308.663	-35.67
308.877	25.77
309.091	1.19
309.305	64.68
309.519	-33.62
309.733	-19.29
309.947	27.82
310.161	87.21
310.374	23.72
310.588	66.73
310.802	31.91
311.016	66.73
311.23	64.68
311.444	70.83
311.658	44.2
311.872	150.7
312.085	33.96
312.299	87.21
312.513	25.77
312.727	97.45
312.941	25.77
313.154	60.59
313.368	-0.85
313.582	58.54
313.796	52.39
314.009	-62.29
314.223	97.45
314.437	-45.91
314.651	11.43
314.864	72.87
315.078	40.11
315.292	-9.05
315.505	-2.9
315.719	44.2
315.933	76.97
316.146	13.48
316.36	-43.86
316.573	31.91
316.787	62.63
317.001	56.49
317.214	-17.24
317.428	38.06
317.641	31.91
317.855	-0.85
318.068	81.07
318.282	79.02
318.495	132.26
318.709	27.82
318.922	56.49
319.136	50.35
319.349	81.07
319.563	60.59
319.776	3.24
319.99	81.07
320.203	56.49
320.417	60.59
320.63	7.34
320.843	115.88
321.057	81.07
321.27	9.39
321.483	64.68
321.697	72.87
321.91	27.82
322.124	23.72
322.337	68.78
322.55	17.58
322.763	23.72
322.977	40.11
323.19	11.43
323.403	11.43
323.617	52.39
323.83	-13.14
324.043	-0.85
324.256	60.59
324.469	-43.86
324.683	9.39
324.896	-60.24
325.109	50.35
325.322	38.06
325.535	103.59
325.748	-58.2
325.962	-4.95
326.175	36.01
326.388	85.16
326.601	83.11
326.814	13.48
327.027	29.87
327.24	23.72
327.453	21.67
327.666	50.35
327.879	81.07
328.092	79.02
328.305	56.49
328.518	83.11
328.731	40.11
328.944	105.64
329.157	52.39
329.37	1.19
329.583	83.11
329.796	72.87
330.009	-4.95
330.222	3.24
330.435	52.39
330.648	29.87
330.861	7.34
331.073	44.2
331.286	52.39
331.499	74.92
331.712	36.01
331.925	36.01
332.138	19.63
332.35	62.63
332.563	-90.96
332.776	50.35
332.989	-17.24
333.202	3.24
333.414	25.77
333.627	52.39
333.84	-54.1
334.053	58.54
334.265	50.35
334.478	29.87
334.691	42.15
334.903	74.92
335.116	19.63
335.329	79.02
335.541	87.21
335.754	185.51
335.966	3.24
336.179	7.34
336.392	58.54
336.604	23.72
336.817	62.63
337.029	-2.9
337.242	40.11
337.454	105.64
337.667	7.34
337.88	5.29
338.092	9.39
338.305	52.39
338.517	44.2
338.729	72.87
338.942	23.72
339.154	5.29
339.367	36.01
339.579	15.53
339.792	31.91
340.004	-45.91
340.217	31.91
340.429	54.44
340.641	40.11
340.854	56.49
341.066	36.01
341.278	66.73
341.491	70.83
341.703	64.68
341.915	7.34
342.128	60.59
342.34	72.87
342.552	40.11
342.764	74.92
342.977	11.43
343.189	48.3
343.401	40.11
343.613	9.39
343.826	40.11
344.038	58.54
344.25	50.35
344.462	-11.09
344.674	46.25
344.886	33.96
345.099	13.48
345.311	68.78
345.523	105.64
345.735	-41.81
345.947	27.82
346.159	27.82
346.371	27.82
346.583	68.78
346.795	52.39
347.007	11.43
347.219	27.82
347.431	87.21
347.643	-27.48
347.855	68.78
348.067	115.88
348.279	-2.9
348.491	-13.14
348.703	68.78
348.915	74.92
349.127	27.82
349.339	27.82
349.551	58.54
349.763	117.93
349.975	23.72
350.187	93.35
350.399	42.15
350.61	60.59
350.822	17.58
351.034	46.25
351.246	79.02
351.458	29.87
351.669	11.43
351.881	60.59
352.093	117.93
352.305	31.91
352.517	-4.95
352.728	7.34
352.94	21.67
353.152	-0.85
353.363	-4.95
353.575	60.59
353.787	140.46
353.999	1.19
354.21	25.77
354.422	58.54
354.633	72.87
354.845	19.63
355.057	72.87
355.268	11.43
355.48	36.01
355.692	68.78
355.903	-13.14
356.115	38.06
356.326	15.53
356.538	79.02
356.749	9.39
356.961	38.06
357.172	7.34
357.384	21.67
357.595	54.44
357.807	25.77
358.018	54.44
358.23	31.91
358.441	60.59
358.653	117.93
358.864	31.91
359.075	-17.24
359.287	74.92
359.498	81.07
359.709	50.35
359.921	38.06
360.132	-9.05
360.344	72.87
360.555	-33.62
360.766	44.2
360.977	-4.95
361.189	54.44
361.4	-35.67
361.611	99.5
361.823	19.63
362.034	-47.96
362.245	29.87
362.456	87.21
362.667	119.98
362.879	15.53
363.09	76.97
363.301	-9.05
363.512	89.26
363.723	-0.85
363.935	48.3
364.146	72.87
364.357	-2.9
364.568	58.54
364.779	15.53
364.99	97.45
365.201	38.06
365.412	5.29
365.623	89.26
365.834	115.88
366.045	15.53
366.256	-13.14
366.467	97.45
366.678	79.02
366.889	54.44
367.1	60.59
367.311	72.87
367.522	29.87
367.733	44.2
367.944	66.73
368.155	72.87
368.366	19.63
368.577	11.43
368.788	87.21
368.999	97.45
369.209	5.29
369.42	52.39
369.631	44.2
369.842	66.73
370.053	33.96
370.264	89.26
370.474	72.87
370.685	-2.9
370.896	13.48
371.107	74.92
371.317	68.78
371.528	-39.76
371.739	93.35
371.95	85.16
372.16	56.49
372.371	91.31
372.582	44.2
372.792	70.83
373.003	117.93
373.214	-64.34
373.424	33.96
373.635	48.3
373.846	70.83
374.056	33.96
374.267	56.49
374.477	52.39
374.688	68.78
374.898	54.44
375.109	85.16
375.319	83.11
375.53	136.36
375.74	46.25
375.951	-9.05
376.161	93.35
376.372	111.78
376.582	21.67
376.793	52.39
377.003	-0.85
377.214	56.49
377.424	72.87
377.635	62.63
377.845	23.72
378.055	93.35
378.266	15.53
378.476	64.68
378.686	44.2
378.897	60.59
379.107	101.55
379.317	42.15
379.528	64.68
379.738	101.55
379.948	3.24
380.158	101.55
380.369	50.35
380.579	99.5
380.789	54.44
380.999	-56.15
381.21	56.49
381.42	95.4
381.63	31.91
381.84	83.11
382.05	56.49
382.261	62.63
382.471	130.22
382.681	-13.14
382.891	21.67
383.101	64.68
383.311	23.72
383.521	89.26
383.731	21.67
383.941	36.01
384.151	99.5
384.361	29.87
384.571	62.63
384.781	79.02
384.991	74.92
385.201	173.22
385.411	68.78
385.621	83.11
385.831	11.43
386.041	-29.52
386.251	70.83
386.461	74.92
386.671	81.07
386.881	154.79
387.091	44.2
387.301	158.89
387.511	113.83
387.72	97.45
387.93	42.15
388.14	76.97
388.35	3.24
388.56	11.43
388.769	101.55
388.979	68.78
389.189	56.49
389.399	93.35
389.609	-9.05
389.818	134.31
390.028	54.44
390.238	66.73
390.447	97.45
390.657	68.78
390.867	109.74
391.076	23.72
391.286	42.15
391.496	124.07
391.705	93.35
391.915	105.64
392.125	97.45
392.334	105.64
392.544	66.73
392.753	113.83
392.963	79.02
393.172	42.15
393.382	95.4
393.591	132.26
393.801	50.35
394.01	95.4
394.22	132.26
394.429	40.11
394.639	113.83
394.848	89.26
395.058	5.29
395.267	25.77
395.477	97.45
395.686	103.59
395.895	158.89
396.105	113.83
396.314	183.46
396.524	40.11
396.733	95.4
396.942	160.94
397.152	70.83
397.361	109.74
397.57	64.68
397.78	109.74
397.989	89.26
398.198	154.79
398.407	109.74
398.617	126.12
398.826	101.55
399.035	165.03
399.244	132.26
399.453	128.17
399.663	113.83
399.872	152.74
400.081	29.87
400.29	130.22
400.499	64.68
400.708	126.12
400.917	142.5
401.127	76.97
401.336	81.07
401.545	103.59
401.754	105.64
401.963	167.08
402.172	31.91
402.381	113.83
402.59	126.12
402.799	64.68
403.008	126.12
403.217	119.98
403.426	99.5
403.635	154.79
403.844	152.74
404.053	212.14
404.262	113.83
404.471	134.31
404.68	236.71
404.888	128.17
405.097	183.46
405.306	138.41
405.515	150.7
405.724	85.16
405.933	226.47
406.142	158.89
406.35	130.22
406.559	150.7
406.768	201.9
406.977	216.23
407.185	226.47
407.394	150.7
407.603	165.03
407.812	197.8
408.02	273.57
408.229	224.42
408.438	263.33
408.646	234.66
408.855	208.04
409.064	357.54
409.272	363.69
409.481	339.11
409.69	228.52
409.898	298.15
410.107	294.05
410.315	367.78
410.524	302.25
410.733	418.98
410.941	353.45
411.15	330.92
411.358	359.59
411.567	408.74
411.775	382.12
411.984	451.75
412.192	435.36
412.401	437.41
412.609	400.55
412.818	474.28
413.026	517.28
413.234	548
413.443	498.85
413.651	556.19
413.86	576.67
414.068	527.52
414.276	722.08
414.485	535.71
414.693	638.11
414.901	746.66
415.11	738.46
415.318	691.36
415.526	769.18
415.734	750.75
415.943	799.9
416.151	928.92
416.359	806.05
416.567	847.01
416.776	904.35
416.984	832.67
417.192	1064.09
417.4	1019.04
417.608	947.36
417.817	1088.67
418.025	1041.56
418.233	1193.11
418.441	1148.06
418.649	1131.67
418.857	1315.99
419.065	1227.93
419.273	1326.23
419.481	1330.33
419.689	1430.68
419.897	1514.64
420.105	1490.07
420.313	1645.71
420.521	1662.1
420.729	1692.82
420.937	1756.3
421.145	1750.16
421.353	1727.63
421.561	1914
421.769	1901.71
421.977	2083.98
422.185	2032.78
422.393	2102.41
422.601	2311.3
422.809	2253.96
423.017	2391.17
423.224	2428.04
423.432	2491.52
423.64	2532.48
423.848	2831.49
424.056	2714.75
424.263	2907.26
424.471	2778.24
424.679	3009.66
424.887	3175.55
425.094	3316.86
425.302	3157.11
425.51	3413.11
425.718	3396.73
425.925	3433.59
426.133	3683.44
426.341	3771.51
426.548	4095.08
426.756	4004.97
426.964	4037.74
427.171	4209.77
427.379	4287.59
427.586	4373.61
427.794	4607.08
428.001	4682.85
428.209	5108.83
428.417	5014.62
428.624	5233.75
428.832	5221.47
429.039	5262.43
429.247	5405.78
429.454	5866.58
429.662	6181.96
429.869	5803.09
430.076	6255.69
430.284	6044.75
430.491	6059.09
430.699	6698.05
430.906	6634.57
431.114	6599.75
431.321	7015.49
431.528	7003.2
431.736	7523.38
431.943	7859.25
432.15	7500.86
432.358	7693.37
432.565	8191.02
432.772	8057.9
432.979	8629.29
433.187	8694.82
433.394	8653.86
433.601	9356.32
433.808	9337.88
434.016	9118.75
434.223	9608.22
434.43	10224.65
434.637	10042.39
434.844	10540.04
435.052	10875.91
435.259	10849.29
435.466	10822.66
435.673	10660.87
435.88	11480.06
436.087	12137.46
436.294	12166.13
436.501	11662.33
436.708	11932.66
436.915	12454.89
437.122	12893.16
437.329	12821.48
437.537	13292.51
437.743	13530.08
437.95	13585.37
438.157	14144.47
438.364	14560.2
438.571	14408.65
438.778	14613.45
438.985	16120.76
439.192	15582.14
439.399	15899.58
439.606	15563.71
439.813	16405.42
440.02	17335.2
440.227	17023.91
440.433	16772.01
440.64	17482.66
440.847	17247.14
441.054	17757.08
441.261	19010.44
441.467	19000.2
441.674	19334.02
441.881	19841.92
442.088	19968.89
442.294	19442.56
442.501	20167.54
442.708	20530.03
442.914	21295.97
443.121	22074.2
443.328	21662.56
443.534	23106.38
443.741	22283.09
443.948	21922.65
444.154	23870.27
444.361	23421.77
444.568	23825.22
444.774	23915.33
444.981	24140.6
445.187	24607.54
445.394	25641.76
445.6	25434.92
445.807	28072.7
446.013	26452.76
446.22	27054.86
446.426	28214.01
446.633	28181.24
446.839	29260.52
447.046	28156.67
447.252	29702.89
447.459	29727.46
447.665	29637.35
447.871	30778.07
448.078	32049.86
448.284	30513.88
448.491	31378.12
448.697	32514.75
448.903	33133.23
449.11	33092.27
449.316	32463.55
449.522	33321.65
449.728	34140.83
449.935	34208.42
450.141	34226.85
450.347	35242.64
450.553	33690.28
450.76	34462.36
450.966	35355.28
451.172	34826.9
451.378	35498.64
451.584	34859.67
451.791	35799.69
451.997	35721.87
452.203	36383.36
452.409	36557.44
452.615	35865.22
452.821	34566.81
453.027	34259.62
453.233	36373.12
453.44	34554.52
453.646	35072.66
453.852	35256.98
454.058	36016.77
454.264	34394.78
454.47	35365.52
454.676	34282.14
454.882	35361.42
455.088	32408.25
455.294	32547.51
455.5	33348.27
455.705	33784.49
455.911	32613.05
456.117	31851.2
456.323	31234.77
456.529	29387.5
456.735	30614.23
456.941	30081.76
457.147	29489.9
457.352	28318.46
457.558	28410.62
457.764	28717.81
457.97	27650.82
458.176	27114.25
458.381	26944.27
458.587	25756.45
458.793	25762.59
458.999	24400.69
459.204	26123.04
459.41	25477.93
459.616	23747.39
459.821	24144.7
460.027	23882.56
460.233	23608.13
460.438	21916.51
460.644	22412.12
460.85	21332.84
461.055	21218.15
461.261	21121.9
461.466	19217.29
461.672	18942.86
461.878	20452.21
462.083	18748.3
462.289	18668.43
462.494	18545.55
462.7	17523.62
462.905	17269.67
463.111	17808.28
463.316	17927.07
463.522	17316.77
463.727	17554.33
463.932	17226.66
464.138	17357.73
464.343	17333.15
464.549	16868.27
464.754	17378.21
464.959	17234.85
465.165	17077.16
465.37	16260.02
465.575	15946.68
465.781	16362.42
465.986	16784.3
466.191	16126.9
466.397	15795.13
466.602	14982.09
466.807	15610.81
467.012	15616.96
467.218	15813.56
467.423	15363.01
467.628	15385.54
467.833	15905.72
468.038	15514.56
468.244	15043.53
468.449	15655.87
468.654	15059.91
468.859	15117.25
469.064	14789.58
469.269	14390.22
469.474	14578.64
469.679	14724.04
469.885	14386.13
470.09	14412.75
470.295	14339.02
470.5	14011.35
470.705	14289.87
470.91	13861.85
471.115	13566.94
471.32	13999.06
471.525	13882.33
471.73	13259.74
471.935	13382.62
472.139	12934.12
472.344	13050.85
472.549	13089.76
472.754	12891.11
472.959	12502
473.164	12219.38
473.369	12323.82
473.574	12823.53
473.778	12344.3
473.983	12325.87
474.188	12268.53
474.393	11809.78
474.598	11836.41
474.802	11779.06
475.007	11717.62
475.212	11627.51
475.417	11392
475.621	11322.37
475.826	11271.17
476.031	11185.15
476.235	10775.56
476.44	11113.47
476.645	10966.02
476.849	10814.47
477.054	10796.04
477.259	10497.03
477.463	10615.82
477.668	10167.31
477.872	10181.65
478.077	10224.65
478.282	9966.61
478.486	10079.25
478.691	9890.84
478.895	9901.08
479.1	9878.55
479.304	9962.51
479.509	9452.57
479.713	9741.33
479.918	9720.85
480.122	9450.52
480.326	9321.5
480.531	9520.15
480.735	9675.8
480.94	9366.56
481.144	9753.62
481.348	9172
481.553	9264.16
481.757	9264.16
481.961	9231.39
482.166	9217.05
482.37	9210.91
482.574	8942.63
482.778	9237.53
482.983	9557.02
483.187	9217.05
483.391	9260.06
483.595	9040.93
483.8	8995.87
484.004	9184.29
484.208	9276.45
484.412	9223.2
484.616	9247.77
484.821	9296.92
485.025	9006.11
485.229	9194.53
485.433	9157.66
485.637	9215.01
485.841	9012.26
486.045	9069.6
486.249	9190.43
486.453	9055.26
486.657	9038.88
486.861	9360.41
487.065	8916
487.269	9311.26
487.473	9053.22
487.677	9133.09
487.881	9411.61
488.085	9163.81
488.289	9137.18
488.493	9053.22
488.697	9217.05
488.901	9131.04
489.105	9198.62
489.309	9147.42
489.512	9301.02
489.716	9401.37
489.92	9075.74
490.124	9223.2
490.328	9522.2
490.531	9458.71
490.735	9493.53
490.939	9645.08
491.143	9397.28
491.346	9544.73
491.55	9624.6
491.754	9589.78
491.958	9870.36
492.161	9643.03
492.365	9722.9
492.569	9839.64
492.772	9780.25
492.976	9835.54
493.18	9962.51
493.383	9960.47
493.587	10214.41
493.79	10224.65
493.994	10005.52
494.197	10273.81
494.401	10165.26
494.605	10263.57
494.808	10408.97
495.012	10535.95
495.215	10701.83
495.419	10576.91
495.622	10525.71
495.825	10916.87
496.029	10773.51
496.232	11062.27
496.436	11183.1
496.639	11246.59
496.843	11152.38
497.046	11633.66
497.249	11506.68
497.453	11445.24
497.656	11662.33
497.859	11578.36
498.063	11895.8
498.266	12225.52
498.469	12004.34
498.673	12051.44
498.876	12434.41
499.079	12471.28
499.282	12321.77
499.485	12833.77
499.689	12907.49
499.892	13294.56
500.095	13001.7
500.298	13517.79
500.501	13308.9
500.705	13900.76
500.908	13954.01
501.111	13982.68
501.314	14195.67
501.517	14322.64
501.72	14298.06
501.923	14468.05
502.126	14932.93
502.329	15137.73
502.532	14902.22
502.735	15178.69
502.938	15266.75
503.141	15410.11
503.344	15811.51
503.547	15766.46
503.75	15897.53
503.953	16350.13
504.156	16251.83
504.359	16610.22
504.562	16538.54
504.765	17073.06
504.968	16970.66
505.17	17267.62
505.373	17255.33
505.576	17806.23
505.779	17800.09
505.982	18195.35
506.185	18398.1
506.387	18676.62
506.59	18516.88
506.793	18922.38
506.996	18834.32
507.198	19329.92
507.401	19094.41
507.604	19518.34
507.807	19884.92
508.009	20065.14
508.212	20300.66
508.415	20589.42
508.617	20857.71
508.82	20730.73
509.022	20927.34
509.225	21461.86
509.428	21554.02
509.63	21934.94
509.833	21697.38
510.035	22250.33
510.238	21988.19
510.44	22655.82
510.643	22967.12
510.845	23053.13
511.048	22999.88
511.25	23489.35
511.453	23587.65
511.655	24460.09
511.858	24027.96
512.06	24195.9
512.262	24656.69
512.465	24554.29
512.667	25047.85
512.87	25340.71
513.072	25412.39
513.274	25873.18
513.477	25912.1
513.679	26544.92
513.881	26651.41
514.084	26587.92
514.286	26882.83
514.488	27194.12
514.69	27736.84
514.893	27863.81
515.095	28013.31
515.297	28689.14
515.499	28658.42
515.701	28664.57
515.904	29061.87
516.106	29154.03
516.308	29575.91
516.51	30100.19
516.712	30096.1
516.914	29954.79
517.116	30681.81
517.318	30517.98
517.52	31245.01
517.722	31353.55
517.925	31441.61
518.127	31892.16
518.329	32381.63
518.531	31787.72
518.733	32932.53
518.935	32987.83
519.136	33014.45
519.338	33176.24
519.54	33825.45
519.742	33792.68
519.944	34636.44
520.146	34937.49
520.348	34517.66
520.55	35082.9
520.752	34998.93
520.954	35947.14
521.155	35586.7
521.357	35961.48
521.559	36452.99
521.761	36876.92
521.963	36792.95
522.164	36950.65
522.366	37436.02
522.568	37532.27
522.77	37802.6
522.971	38304.35
523.173	37747.31
523.375	38548.06
523.576	38394.46
523.778	38507.1
523.98	39080.53
524.181	39182.93
524.383	39387.73
524.584	40243.78
524.786	40043.08
524.988	39875.15
525.189	40325.7
525.391	40600.13
525.592	40571.46
525.794	40868.41
525.995	41214.52
526.197	40784.44
526.398	41591.34
526.6	41257.53
526.801	41794.09
527.003	42469.92
527.204	41900.59
527.406	42375.72
527.607	41964.07
527.808	42459.68
528.01	42052.14
528.211	42629.66
528.412	43082.27
528.614	43160.09
528.815	42936.86
529.016	43674.13
529.218	42846.75
529.419	43387.41
529.62	43389.46
529.822	43342.36
530.023	43598.35
530.224	43950.6
530.425	43647.5
530.626	43506.19
530.828	43508.24
531.029	43942.41
531.23	43985.42
531.431	44253.7
531.632	43842.06
531.833	44542.47
532.035	44165.64
532.236	44143.11
532.437	44478.98
532.638	44085.77
532.839	44659.2
533.04	44734.98
533.241	44294.66
533.442	45025.79
533.643	44382.73
533.844	44913.15
534.045	45244.92
534.246	44339.72
534.447	44835.33
534.648	44681.73
534.849	44921.34
535.05	44378.63
535.251	44651.01
535.451	45201.91
535.652	44851.71
535.853	44917.25
536.054	44599.81
536.255	45187.58
536.456	44610.05
536.657	45427.19
536.857	44659.2
537.058	45287.93
537.259	45367.8
537.46	44825.09
537.66	44614.15
537.861	44728.83
538.062	44724.74
538.263	44954.11
538.463	44757.5
538.664	44941.82
538.865	45357.56
539.065	45416.95
539.266	44857.85
539.466	45382.13
539.667	44153.35
539.868	45394.42
540.068	45156.86
540.269	44886.53
540.469	44962.3
540.67	44569.09
540.87	44825.09
541.071	45046.27
541.271	45335.03
541.472	45029.88
541.672	44651.01
541.873	45128.19
542.073	44681.73
542.274	45359.61
542.474	44982.78
542.675	44354.05
542.875	44968.44
543.075	44495.36
543.276	44397.06
543.476	45122.04
543.676	44759.55
543.877	45216.25
544.077	44827.13
544.277	44665.35
544.478	44501.51
544.678	45060.6
544.878	44677.63
545.078	44958.2
545.279	44624.39
545.479	44757.5
545.679	44843.52
545.879	44528.13
546.079	44941.82
546.28	44630.53
546.48	44229.13
546.68	45156.86
546.88	45122.04
547.08	44739.07
547.28	44804.61
547.48	44227.08
547.68	44679.68
547.88	44417.54
548.081	44974.59
548.281	44741.12
548.481	44386.82
548.681	44847.61
548.881	44825.09
549.081	44802.56
549.28	44646.91
549.48	44755.46
549.68	44679.68
549.88	44986.88
550.08	44358.15
550.28	44759.55
550.48	44681.73
550.68	44839.42
550.88	44530.18
551.08	44872.19
551.279	44653.06
551.479	44401.16
551.679	44487.17
551.879	44059.15
552.079	44675.58
552.278	44175.88
552.478	44550.66
552.678	44548.61
552.878	44296.71
553.077	44304.9
553.277	43921.93
553.477	44763.65
553.676	44470.79
553.876	43995.66
554.076	44081.67
554.275	44085.77
554.475	43807.25
554.674	44616.19
554.874	44483.08
555.074	44155.4
555.273	43917.84
555.473	44046.86
555.672	43766.29
555.872	43790.86
556.071	44114.44
556.271	44208.65
556.47	43581.97
556.67	43682.32
556.869	43819.53
557.068	44022.28
557.268	43436.56
557.467	43618.83
557.667	43360.79
557.866	43457.04
558.065	43739.66
558.265	43479.57
558.464	42943
558.663	43827.73
558.863	42840.6
559.062	43651.6
559.261	43094.55
559.461	43844.11
559.66	43188.76
559.859	43323.93
560.058	42873.37
560.258	43016.73
560.457	42635.81
560.656	43008.54
560.855	42770.97
561.054	42865.18
561.253	42504.74
561.453	42484.26
561.652	42281.51
561.851	43024.92
562.05	42523.17
562.249	42164.78
562.448	42615.33
562.647	42537.51
562.846	41949.74
563.045	42488.35
563.244	41886.25
563.443	42347.04
563.642	41706.03
563.841	42089
564.04	42033.71
564.239	41910.83
564.438	41241.14
564.637	41863.72
564.836	41914.92
565.035	41335.35
565.234	41546.29
565.432	41120.31
565.631	41372.21
565.83	41622.06
566.029	41282.1
566.228	40841.79
566.427	40454.72
566.625	40823.36
566.824	40274.5
567.023	40856.12
567.222	39948.87
567.42	40852.03
567.619	40706.62
567.818	40346.18
568.016	40604.22
568.215	40362.56
568.414	40421.95
568.612	40669.76
568.811	39881.29
569.01	40079.94
569.208	39281.24
569.407	40174.15
569.605	39252.56
569.804	39985.74
570.002	39680.59
570.201	39543.38
570.4	39445.07
570.598	39045.72
570.797	39141.97
570.995	39125.59
571.193	38722.14
571.392	39227.99
571.59	38773.34
571.789	38838.87
571.987	38617.69
572.186	38822.49
572.384	38183.52
572.582	38842.97
572.781	38888.03
572.979	37948.01
573.177	38326.88
573.376	38687.32
573.574	37827.18
573.772	38228.58
573.971	37894.76
574.169	37767.79
574.367	37386.86
574.565	37802.6
574.763	36995.7
574.962	37589.61
575.16	36954.74
575.358	37513.84
575.556	36731.51
575.754	37390.96
575.952	36618.88
576.151	36983.41
576.349	36641.4
576.547	36754.04
576.745	36729.47
576.943	36782.71
577.141	36414.08
577.339	36471.42
577.537	36168.32
577.735	36283.01
577.933	35619.47
578.131	36442.75
578.329	35945.09
578.527	35869.32
578.725	35662.47
578.923	35934.85
579.121	36016.77
579.319	35666.57
579.516	35555.98
579.714	35687.05
579.912	35162.77
580.11	35039.89
580.308	35158.67
580.506	35046.04
580.704	34628.25
580.901	34935.45
581.099	34892.44
581.297	34781.85
581.495	34390.69
581.692	34906.77
581.89	34292.38
582.088	34681.5
582.285	34304.67
582.483	34402.97
582.681	34372.25
582.878	33944.23
583.076	33407.66
583.274	33804.97
583.471	33643.18
583.669	33847.97
583.866	33333.93
584.064	33702.57
584.262	33198.77
584.459	33632.94
584.657	33008.31
584.854	33229.49
585.052	32672.44
585.249	33166
585.447	33172.14
585.644	32785.08
585.841	32457.4
586.039	33075.89
586.236	32465.6
586.434	32670.39
586.631	32238.27
586.828	32154.3
587.026	32041.67
587.223	32277.18
587.42	31693.51
587.618	32289.47
587.815	31857.35
588.012	31744.71
588.21	31802.05
588.407	31926.98
588.604	31443.66
588.801	31474.38
588.999	31400.65
589.196	31371.98
589.393	31189.71
589.59	31288.01
589.787	30735.06
589.984	30802.64
590.182	30862.04
590.379	30935.76
590.576	30444.25
590.773	30581.46
590.97	30366.43
591.167	30569.18
591.364	30036.7
591.561	30196.45
591.758	29864.67
591.955	29823.72
592.152	29942.5
592.349	29797.09
592.546	29962.98
592.743	29725.41
592.94	29422.31
593.137	29647.59
593.334	29723.37
593.531	29125.36
593.727	29481.7
593.924	29510.38
594.121	29151.98
594.318	29111.02
594.515	28642.04
594.712	29061.87
594.908	28455.67
595.105	28836.59
595.302	28422.9
595.499	28867.31
595.696	28236.54
595.892	28390.14
596.089	28529.4
596.286	28576.5
596.482	28013.31
596.679	28254.97
596.876	28216.06
597.072	27808.51
597.269	28132.09
597.466	27849.47
597.662	27761.41
597.859	27419.4
598.055	27740.93
598.252	27540.23
598.448	27355.91
598.645	27527.94
598.841	27200.27
599.038	27392.78
599.234	27063.05
599.431	26809.11
599.627	26913.55
599.824	27079.44
600.02	26729.23
600.217	26749.71
600.413	26993.42
600.609	26555.16
600.806	26454.81
601.002	26438.42
601.198	26473.24
601.395	26229.53
601.591	25969.44
601.787	26290.97
601.984	25738.02
602.18	26063.64
602.376	25903.9
602.572	26024.73
602.769	25887.52
602.965	25541.41
603.161	25627.43
603.357	25549.6
603.553	25609
603.75	25330.47
603.946	25037.61
604.142	25391.91
604.338	24826.67
604.534	24933.17
604.73	24922.93
604.926	25187.11
605.122	25066.28
605.318	24550.2
605.514	24599.35
605.71	24345.4
605.906	24206.14
606.102	24587.06
606.298	24390.45
606.494	24466.23
606.69	24273.72
606.886	24374.07
607.082	24105.79
607.278	24124.22
607.474	23835.45
607.67	24163.13
607.866	23798.59
608.062	24046.4
608.257	23601.99
608.453	23927.61
608.649	23956.29
608.845	23579.46
609.041	23667.52
609.236	23741.25
609.432	23343.94
609.628	23671.62
609.824	23438.15
610.019	23255.88
610.215	23104.33
610.411	23446.34
610.606	23112.52
610.802	23399.24
610.998	23135.05
611.193	23204.68
611.389	22901.58
611.584	22983.5
611.78	22811.47
611.976	22973.26
612.171	22948.68
612.367	22709.07
612.562	22664.02
612.758	22410.07
612.953	22530.9
613.149	22868.81
613.344	22704.98
613.539	22811.47
613.735	22399.83
613.93	22424.4
614.126	22231.9
614.321	22412.12
614.517	22477.65
614.712	22197.08
614.907	22262.61
615.103	22342.49
615.298	22258.52
615.493	22516.56
615.688	21758.81
615.884	22235.99
616.079	21834.59
616.274	22156.12
616.47	21646.18
616.665	22086.49
616.86	21961.56
617.055	21662.56
617.25	21474.15
617.445	21721.95
617.641	21750.62
617.836	21752.67
618.031	21381.99
618.226	21336.93
618.421	21347.17
618.616	21433.19
618.811	20990.83
619.006	21461.86
619.201	21154.66
619.396	21189.48
619.591	20769.65
619.786	21109.61
619.981	20374.39
620.176	21011.31
620.371	20523.89
620.566	20597.62
620.761	20595.57
620.956	20499.31
621.151	20159.35
621.346	20233.08
621.541	20104.06
621.735	20200.31
621.93	19676.03
622.125	19727.23
622.32	19841.92
622.515	19854.2
622.709	19544.96
622.904	19508.1
623.099	19471.23
623.294	19467.14
623.488	19295.11
623.683	19327.88
623.878	18881.42
624.072	19039.11
624.267	18801.55
624.462	18928.52
624.656	18539.41
624.851	18643.85
625.046	18586.51
625.24	18701.2
625.435	18107.29
625.629	18023.32
625.824	17910.68
626.018	17947.54
626.213	17759.13
626.407	17892.25
626.602	17570.72
626.796	17632.16
626.991	17642.4
627.185	17410.98
627.38	17329.06
627.574	17087.4
627.768	16874.41
627.963	17148.84
628.157	16968.62
628.352	17050.53
628.546	16503.73
628.74	16853.93
628.935	16624.56
629.129	16587.69
629.323	16391.09
629.517	16477.1
629.712	16200.63
629.906	16118.71
630.1	16200.63
630.294	16008.12
630.489	16001.97
630.683	15958.97
630.877	15580.09
631.071	15645.63
631.265	15659.96
631.459	15760.31
631.653	15311.81
631.848	15209.41
632.042	15113.16
632.236	15297.47
632.43	14955.46
632.624	15029.19
632.818	15074.24
633.012	14945.22
633.206	14822.34
633.4	15053.76
633.594	14552.01
633.788	14726.09
633.982	14379.98
634.176	14447.57
634.369	14619.6
634.563	14476.24
634.757	14345.17
634.951	14373.84
635.145	14457.81
635.339	14171.09
635.533	14111.7
635.726	13992.92
635.92	13839.32
636.114	13511.64
636.308	13695.96
636.501	13581.28
636.695	13847.51
636.889	13667.29
637.083	13190.11
637.276	13327.33
637.47	13188.07
637.664	13380.57
637.857	13087.71
638.051	13317.09
638.244	12870.63
638.438	13067.24
638.632	12856.29
638.825	12823.53
639.019	12841.96
639.212	12620.78
639.406	12596.2
639.599	12329.97
639.793	12620.78
639.986	12329.97
640.18	12405.74
640.373	12366.83
640.567	12307.44
640.76	12180.46
640.954	11983.86
641.147	12198.9
641.34	11858.93
641.534	11803.64
641.727	11787.25
641.92	11856.89
642.114	11684.86
642.307	11631.61
642.5	11543.55
642.694	11328.51
642.887	11185.15
643.08	11539.45
643.273	11301.89
643.467	11136
643.66	11224.06
643.853	11052.03
644.046	10947.59
644.239	11088.9
644.432	11006.98
644.626	10873.86
644.819	10984.45
645.012	10771.46
645.205	10830.85
645.398	10599.43
645.591	10445.84
645.784	10726.41
645.977	10599.43
646.17	10609.67
646.363	10249.23
646.556	10259.47
646.749	10372.11
646.942	10359.82
647.135	10232.85
647.328	10216.46
647.521	9991.19
647.714	10032.15
647.907	9976.85
648.099	10030.1
648.292	9890.84
648.485	9788.44
648.678	9600.02
648.871	9755.67
649.064	9782.29
649.256	9739.29
649.449	9573.4
649.642	9505.82
649.835	9536.54
650.027	9432.09
650.22	9475.1
650.413	9223.2
650.605	9313.31
650.798	9204.77
650.991	9204.77
651.183	9143.33
651.376	9040.93
651.568	9077.79
651.761	8985.63
651.954	8883.24
652.146	8959.01
652.339	8991.78
652.531	8778.79
652.724	8764.45
652.916	8524.84
653.109	8639.53
653.301	8635.43
653.494	8750.12
653.686	8608.81
653.879	8660.01
654.071	8588.33
654.263	8596.52
654.456	8340.52
654.648	8377.39
654.84	8328.24
655.033	8270.89
655.225	8188.97
655.417	8270.89
655.61	8186.93
655.802	8117.29
655.994	8102.96
656.186	7973.94
656.379	7955.51
656.571	8025.14
656.763	7709.75
656.955	7715.89
657.148	7908.4
657.34	7828.53
657.532	7724.08
657.724	7601.21
657.916	7656.5
658.108	7646.26
658.3	7400.51
658.492	7504.95
658.684	7443.51
658.876	7388.22
659.068	7384.12
659.26	7398.46
659.452	7441.47
659.644	7345.21
659.836	7220.28
660.028	7541.82
660.22	7058.49
660.412	6980.67
660.604	7105.6
660.796	7128.13
660.988	7013.44
661.18	7023.68
661.372	6851.65
661.563	6915.14
661.755	6687.81
661.947	6917.19
662.139	6822.98
662.331	6605.89
662.522	6712.39
662.714	6771.78
662.906	6628.42
663.097	6732.87
663.289	6495.3
663.481	6491.21
663.673	6556.74
663.864	6460.49
664.056	6548.55
664.247	6575.17
664.439	6278.22
664.631	6360.14
664.822	6417.48
665.014	6448.2
665.205	6351.95
665.397	6126.67
665.588	6126.67
665.78	6222.92
665.971	6319.18
666.163	6317.13
666.354	6116.43
666.546	5995.6
666.737	6091.85
666.929	6014.03
667.12	6118.48
667.311	6061.13
667.503	5831.76
667.694	5923.92
667.885	5747.79
668.077	6011.98
668.268	5751.89
668.459	5846.1
668.651	5532.76
668.842	5803.09
669.033	5696.6
669.224	5653.59
669.416	5815.38
669.607	5559.38
669.798	5551.19
669.989	5649.49
670.18	5526.61
670.371	5610.58
670.563	5508.18
670.754	5594.2
670.945	5489.75
671.136	5528.66
671.327	5274.71
671.518	5434.46
671.709	5557.33
671.9	5430.36
672.091	5381.21
672.282	5299.29
672.473	5157.98
672.664	5258.33
672.855	5188.7
673.046	5213.28
673.237	5366.87
673.428	5145.69
673.619	5117.02
673.809	4992.09
674	5096.54
674.191	5192.8
674.382	5033.05
674.573	5196.89
674.764	5131.36
674.954	5063.77
675.145	5100.64
675.336	5004.38
675.527	5074.01
675.717	5076.06
675.908	4996.19
676.099	4947.04
676.289	4971.61
676.48	4953.18
676.671	4779.11
676.861	5006.43
677.052	4920.42
677.243	4897.89
677.433	4758.63
677.624	4916.32
677.814	4777.06
678.005	4779.11
678.195	4930.66
678.386	4805.73
678.576	4930.66
678.767	4674.66
678.957	4744.29
679.148	4828.26
679.338	4764.77
679.529	4668.52
679.719	4709.47
679.909	4811.87
680.1	4719.71
680.29	4586.6
680.481	4691.04
680.671	4523.11
680.861	4559.97
681.052	4631.65
681.242	4652.13
681.432	4570.21
681.622	4551.78
681.813	4559.97
682.003	4525.16
682.193	4527.21
682.383	4559.97
682.573	4562.02
682.764	4439.14
682.954	4410.47
683.144	4435.05
683.334	4537.45
683.524	4508.77
683.714	4502.63
683.904	4553.83
684.094	4441.19
684.284	4342.89
684.474	4650.08
684.664	4453.48
684.854	4379.75
685.044	4322.41
685.234	4357.22
685.424	4291.69
685.614	4428.9
685.804	4170.86
685.994	4303.98
686.184	4267.11
686.374	4205.67
686.564	4115.56
686.753	4260.97
686.943	4240.49
687.133	4162.67
687.323	4217.96
687.513	4220.01
687.702	4093.04
687.892	4000.88
688.082	3994.73
688.272	4027.5
688.461	3988.59
688.651	4002.93
688.841	4017.26
689.03	4101.23
689.22	4043.88
689.41	4019.31
689.599	4031.6
689.789	3990.64
689.979	3931.25
690.168	4054.12
690.358	3931.25
690.547	3851.38
690.737	4035.69
690.926	3933.29
691.116	3732.59
691.305	3757.17
691.495	3781.74
691.684	3622
691.874	3839.09
692.063	3652.72
692.252	3746.93
692.442	3763.31
692.631	3648.63
692.82	3685.49
693.01	3624.05
693.199	3644.53
693.388	3642.48
693.578	3652.72
693.767	3634.29
693.956	3560.56
694.146	3658.87
694.335	3552.37
694.524	3531.89
694.713	3615.86
694.902	3470.45
695.092	3597.43
695.281	3492.98
695.47	3478.65
695.659	3566.71
695.848	3585.14
696.037	3550.32
696.226	3443.83
696.415	3411.06
696.604	3406.97
696.793	3591.28
696.982	3447.93
697.171	3499.13
697.36	3357.82
697.549	3445.88
697.738	3433.59
697.927	3320.95
698.116	3337.34
698.305	3251.32
698.494	3378.3
698.683	3351.67
698.872	3394.68
699.061	3386.49
699.25	3382.39
699.438	3380.34
699.627	3284.09
699.816	3347.58
700.005	3404.92
700.193	3105.92
700.382	3378.3
700.571	3243.13
700.76	3374.2
700.948	3275.9
701.137	3284.09
701.326	3232.89
701.514	3132.54
701.703	3294.33
701.892	3130.49
702.08	3251.32
702.269	3224.7
702.457	3030.14
702.646	3267.7
702.834	3351.67
703.023	3179.64
703.212	3173.5
703.4	3216.51
703.589	3124.35
703.777	3134.59
703.965	3003.52
704.154	3163.26
704.342	3005.56
704.531	3255.42
704.719	3161.21
704.907	3157.11
705.096	3122.3
705.284	3171.45
705.472	3085.44
705.661	3161.21
705.849	3067
706.037	3116.16
706.226	3015.8
706.414	2958.46
706.602	3062.91
706.79	3050.62
706.979	3075.2
707.167	3060.86
707.355	2950.27
707.543	3153.02
707.731	3017.85
707.919	2937.98
708.107	2968.7
708.296	3120.25
708.484	2915.45
708.672	2997.37
708.86	3101.82
709.048	2968.7
709.236	3095.68
709.424	3062.91
709.612	2806.91
709.8	3112.06
709.988	2995.32
710.176	3019.9
710.364	3091.58
710.551	2991.23
710.739	2940.03
710.927	3017.85
711.115	3013.76
711.303	2933.89
711.491	2776.19
711.679	2950.27
711.866	2780.29
712.054	2882.69
712.242	2942.08
712.43	3013.76
712.617	2884.73
712.805	2827.39
712.993	2911.36
713.181	2800.77
713.368	2901.12
713.556	2948.22
713.744	2702.47
713.931	2862.21
714.119	2825.34
714.306	2890.88
714.494	2862.21
714.682	2829.44
714.869	2825.34
715.057	2761.86
715.244	2804.86
715.432	2800.77
715.619	2784.38
715.807	2841.73
715.994	2759.81
716.182	2747.52
716.369	2792.58
716.556	2860.16
716.744	2804.86
716.931	2786.43
717.119	2821.25
717.306	2686.08
717.493	2761.86
717.681	2757.76
717.868	2772.1
718.055	2808.96
718.242	2739.33
718.43	2700.42
718.617	2647.17
718.804	2735.23
718.991	2669.7
719.179	2671.75
719.366	2636.93
719.553	2759.81
719.74	2708.61
719.927	2655.36
720.114	2483.33
720.301	2604.16
720.488	2602.11
720.676	2579.59
720.863	2614.4
721.05	2653.31
721.237	2692.23
721.424	2669.7
721.611	2649.22
721.798	2618.5
721.985	2663.55
722.172	2608.26
722.358	2643.07
722.545	2489.48
722.732	2589.83
722.919	2581.64
723.106	2665.6
723.293	2608.26
723.48	2522.24
723.667	2532.48
723.853	2526.34
724.04	2616.45
724.227	2477.19
724.414	2501.76
724.6	2503.81
724.787	2391.17
724.974	2536.58
725.161	2536.58
725.347	2411.65
725.534	2522.24
725.72	2497.67
725.907	2479.24
726.094	2491.52
726.28	2417.8
726.467	2417.8
726.653	2415.75
726.84	2518.15
727.027	2425.99
727.213	2413.7
727.4	2446.47
727.586	2411.65
727.773	2458.76
727.959	2421.89
728.145	2430.09
728.332	2563.2
728.518	2438.28
728.705	2489.48
728.891	2419.85
729.077	2337.93
729.264	2415.75
729.45	2323.59
729.636	2339.97
729.823	2376.84
730.009	2389.13
730.195	2319.5
730.382	2505.86
730.568	2241.67
730.754	2337.93
730.94	2405.51
731.126	2415.75
731.313	2393.22
731.499	2364.55
731.685	2352.26
731.871	2411.65
732.057	2284.68
732.243	2368.65
732.429	2382.98
732.615	2286.73
732.801	2339.97
732.987	2323.59
733.173	2305.16
733.359	2196.62
733.545	2235.53
733.731	2378.89
733.917	2223.24
734.103	2309.26
734.289	2223.24
734.475	2284.68
734.661	2292.87
734.847	2245.77
735.033	2290.82
735.219	2194.57
735.404	2217.1
735.59	2256.01
735.776	2083.98
735.962	2215.05
736.148	2272.39
736.333	2161.8
736.519	2169.99
736.705	2249.86
736.89	2120.84
737.076	2210.95
737.262	2063.5
737.447	2161.8
737.633	2116.75
737.819	2114.7
738.004	2079.88
738.19	2139.27
738.375	2149.51
738.561	2184.33
738.747	2147.47
738.932	1957
739.118	2049.16
739.303	1981.58
739.489	2143.37
739.674	2141.32
739.859	2026.64
740.045	2157.71
740.23	2045.07
740.416	1979.53
740.601	1932.43
740.786	2059.4
740.972	2071.69
741.157	1995.92
741.342	2018.44
741.528	2004.11
741.713	1909.9
741.898	1961.1
742.084	2004.11
742.269	1989.77
742.454	1995.92
742.639	2020.49
742.824	1932.43
743.01	1963.15
743.195	1936.53
743.38	1889.42
743.565	1936.53
743.75	1801.36
743.935	1895.57
744.12	1967.24
744.305	1805.46
744.49	1907.85
744.675	1854.61
744.86	1858.7
745.045	1748.11
745.23	1866.89
745.415	1653.91
745.6	1793.17
745.785	1696.91
745.97	1754.26
746.155	1662.1
746.34	1711.25
746.525	1733.78
746.71	1641.62
746.895	1692.82
747.079	1633.43
747.264	1686.67
747.449	1674.39
747.634	1647.76
747.819	1660.05
748.003	1631.38
748.188	1686.67
748.373	1731.73
748.557	1561.75
748.742	1584.27
748.927	1588.37
749.111	1588.37
749.296	1502.36
749.481	1617.04
749.665	1533.08
749.85	1514.64
750.034	1602.71
750.219	1635.47
750.404	1578.13
750.588	1514.64
750.773	1537.17
750.957	1555.6
751.141	1508.5
751.326	1539.22
751.51	1457.3
751.695	1475.73
751.879	1428.63
752.064	1352.85
752.248	1492.12
752.432	1406.1
752.617	1356.95
752.801	1416.34
752.985	1373.33
753.17	1416.34
753.354	1315.99
753.538	1297.56
753.722	1318.04
753.907	1315.99
754.091	1379.48
754.275	1346.71
754.459	1309.85
754.643	1270.94
754.828	1270.94
755.012	1184.92
755.196	1203.35
755.38	1229.98
755.564	1203.35
755.748	1270.94
755.932	1182.87
756.116	1195.16
756.3	1191.06
756.484	1174.68
756.668	1121.43
756.852	1123.48
757.036	1146.01
757.22	1098.91
757.404	1146.01
757.588	1117.34
757.772	1195.16
757.956	1156.25
758.14	1229.98
758.323	1066.14
758.507	963.74
758.691	1088.67
758.875	990.36
759.059	992.41
759.242	1154.2
759.426	1096.86
759.61	1072.28
759.794	1072.28
759.977	1084.57
760.161	1150.11
760.345	1014.94
760.528	992.41
760.712	973.98
760.895	1012.89
761.079	1037.47
761.263	930.97
761.446	1031.32
761.63	961.69
761.813	984.22
761.997	1012.89
762.18	1031.32
762.364	1010.84
762.547	865.44
762.731	930.97
762.914	963.74
763.098	949.4
763.281	961.69
763.464	969.88
763.648	978.08
763.831	1045.66
764.015	928.92
764.198	879.77
764.381	861.34
764.564	865.44
764.748	855.2
764.931	933.02
765.114	830.62
765.297	885.92
765.481	818.33
765.664	871.58
765.847	832.67
766.03	986.27
766.213	822.43
766.397	982.17
766.58	830.62
766.763	908.44
766.946	818.33
767.129	820.38
767.312	789.66
767.495	808.09
767.678	910.49
767.861	928.92
768.044	826.53
768.227	824.48
768.41	826.53
768.593	863.39
768.776	933.02
768.959	781.47
769.142	830.62
769.324	826.53
769.507	797.85
769.69	789.66
769.873	775.33
770.056	836.77
770.239	791.71
770.421	769.18
770.604	808.09
770.787	775.33
770.97	728.22
771.152	687.26
771.335	773.28
771.518	681.12
771.7	779.42
771.883	734.37
772.066	711.84
772.248	752.8
772.431	820.38
772.613	695.46
772.796	752.8
772.978	777.37
773.161	732.32
773.343	707.74
773.526	767.13
773.708	654.5
773.891	668.83
774.073	662.69
774.256	687.26
774.438	697.5
774.621	621.73
774.803	679.07
774.985	730.27
775.168	752.8
775.35	697.5
775.532	640.16
775.715	705.7
775.897	658.59
776.079	605.35
776.261	674.98
776.444	660.64
776.626	658.59
776.808	695.46
776.99	638.11
777.173	621.73
777.355	670.88
777.537	629.92
777.719	554.15
777.901	662.69
778.083	560.29
778.265	548
778.447	640.16
778.629	535.71
778.811	519.33
778.993	609.44
779.175	580.77
779.357	527.52
779.539	562.34
779.721	621.73
779.903	539.81
780.085	591.01
780.267	588.96
780.449	509.09
780.631	550.05
780.812	537.76
780.994	447.65
781.176	494.76
781.358	488.61
781.54	474.28
781.721	488.61
781.903	531.62
782.085	564.39
782.267	490.66
782.448	537.76
782.63	539.81
782.812	523.43
782.993	513.19
783.175	474.28
783.357	408.74
783.538	578.72
783.72	375.97
783.901	443.56
784.083	525.47
784.264	496.8
784.446	447.65
784.627	433.32
784.809	507.04
784.99	408.74
785.172	359.59
785.353	423.08
785.535	461.99
785.716	459.94
785.897	392.36
786.079	408.74
786.26	361.64
786.441	459.94
786.623	404.64
786.804	406.69
786.985	382.12
787.167	384.16
787.348	347.3
787.529	398.5
787.71	406.69
787.891	406.69
788.073	382.12
788.254	300.2
788.435	369.83
788.616	431.27
788.797	302.25
788.978	322.73
789.159	359.59
789.34	300.2
789.522	273.57
789.703	328.87
789.884	371.88
790.065	289.96
790.246	347.3
790.427	289.96
790.607	392.36
790.788	404.64
790.969	314.53
791.15	310.44
791.331	289.96
791.512	375.97
791.693	363.69
791.874	269.48
792.054	382.12
792.235	349.35
792.416	261.29
792.597	261.29
792.778	320.68
792.958	289.96
793.139	345.25
793.32	318.63
793.5	242.85
793.681	335.01
793.862	273.57
794.042	310.44
794.223	259.24
794.404	310.44
794.584	230.57
794.765	310.44
794.945	304.29
795.126	216.23
795.306	273.57
795.487	306.34
795.667	240.81
795.848	251.05
796.028	257.19
796.209	367.78
796.389	320.68
796.57	242.85
796.75	179.37
796.93	253.09
797.111	210.09
797.291	265.38
797.471	236.71
797.652	216.23
797.832	253.09
798.012	240.81
798.192	257.19
798.373	191.66
798.553	205.99
798.733	240.81
798.913	234.66
799.093	251.05
799.274	216.23
799.454	273.57
799.634	277.67
799.814	226.47
799.994	218.28
800.174	205.99
800.354	228.52
800.534	222.38
800.714	210.09
800.894	177.32
801.074	179.37
801.254	249
801.434	220.33
801.614	242.85
801.794	203.94
801.974	685.22
802.154	259.24
802.334	265.38
802.514	238.76
802.693	171.18
802.873	238.76
803.053	177.32
803.233	214.18
803.413	271.53
803.592	208.04
803.772	191.66
803.952	208.04
804.131	160.94
804.311	140.46
804.491	226.47
804.67	177.32
804.85	160.94
805.03	230.57
805.209	126.12
805.389	208.04
805.568	134.31
805.748	171.18
805.928	126.12
806.107	189.61
806.287	220.33
806.466	111.78
806.646	216.23
806.825	146.6
807.004	177.32
807.184	160.94
807.363	222.38
807.543	228.52
807.722	158.89
807.901	175.27
808.081	171.18
808.26	124.07
808.439	212.14
808.619	205.99
808.798	70.83
808.977	136.36
809.156	203.94
809.336	191.66
809.515	158.89
809.694	154.79
809.873	109.74
810.052	158.89
810.231	257.19
810.411	214.18
810.59	171.18
810.769	142.5
810.948	128.17
811.127	60.59
811.306	189.61
811.485	109.74
811.664	107.69
811.843	138.41
812.022	136.36
812.201	130.22
812.38	173.22
812.559	146.6
812.737	117.93
812.916	101.55
813.095	156.84
813.274	117.93
813.453	177.32
813.632	93.35
813.811	156.84
813.989	105.64
814.168	158.89
814.347	138.41
814.526	113.83
814.704	148.65
814.883	128.17
815.062	181.42
815.24	142.5
815.419	87.21
815.598	181.42
815.776	99.5
815.955	140.46
816.133	101.55
816.312	140.46
816.49	107.69
816.669	185.51
816.847	134.31
817.026	50.35
817.204	113.83
817.383	142.5
817.561	156.84
817.74	128.17
817.918	119.98
818.097	136.36
818.275	95.4
818.453	199.85
818.632	81.07
818.81	31.91
818.988	38.06
819.167	193.7
819.345	109.74
819.523	152.74
819.701	117.93
819.879	89.26
820.058	76.97
820.236	111.78
820.414	162.98
820.592	175.27
820.77	52.39
820.948	72.87
821.127	107.69
821.305	160.94
821.483	93.35
821.661	58.54
821.839	130.22
822.017	95.4
822.195	81.07
822.373	50.35
822.551	144.55
822.729	134.31
822.907	97.45
823.085	95.4
823.262	68.78
823.44	148.65
823.618	68.78
823.796	138.41
823.974	115.88
824.152	107.69
824.329	146.6
824.507	91.31
824.685	113.83
824.863	76.97
825.04	40.11
825.218	83.11
825.396	54.44
825.574	122.02
825.751	40.11
825.929	56.49
826.107	95.4
826.284	11.43
826.462	70.83
826.639	126.12
826.817	68.78
826.994	150.7
827.172	23.72
827.349	146.6
827.527	87.21
827.704	111.78
827.882	142.5
828.059	81.07
828.237	40.11
828.414	93.35
828.591	68.78
828.769	40.11
828.946	83.11
829.124	48.3
829.301	107.69
829.478	122.02
829.655	81.07
829.833	146.6
830.01	60.59
830.187	81.07
830.364	81.07
830.542	107.69
830.719	146.6
830.896	79.02
831.073	29.87
831.25	85.16
831.427	62.63
831.604	113.83
831.782	36.01
831.959	81.07
832.136	62.63
832.313	48.3
832.49	89.26
832.667	87.21
832.844	64.68
833.021	101.55
833.198	160.94
833.374	113.83
833.551	101.55
833.728	66.73
833.905	89.26
834.082	62.63
834.259	138.41
834.436	60.59
834.612	119.98
834.789	9.39
834.966	23.72
835.143	-13.14
835.319	42.15
835.496	132.26
835.673	44.2
835.85	119.98
836.026	101.55
836.203	76.97
836.38	54.44
836.556	81.07
836.733	40.11
836.909	79.02
837.086	7.34
837.262	29.87
837.439	83.11
837.616	38.06
837.792	42.15
837.968	15.53
838.145	87.21
838.321	109.74
838.498	76.97
838.674	95.4
838.851	-33.62
839.027	128.17
839.203	38.06
839.38	76.97
839.556	40.11
839.732	74.92
839.909	31.91
840.085	50.35
840.261	29.87
840.437	124.07
840.614	81.07
840.79	152.74
840.966	36.01
841.142	40.11
841.318	36.01
841.494	113.83
841.671	31.91
841.847	21.67
842.023	11.43
842.199	68.78
842.375	27.82
842.551	-43.86
842.727	-2.9
842.903	91.31
843.079	58.54
843.255	48.3
843.431	13.48
843.607	105.64
843.783	-35.67
843.959	113.83
844.134	36.01
844.31	70.83
844.486	15.53
844.662	74.92
844.838	95.4
845.013	25.77
845.189	11.43
845.365	52.39
845.541	1.19
845.716	33.96
845.892	19.63
846.068	113.83
846.244	23.72
846.419	58.54
846.595	-39.76
846.77	50.35
846.946	29.87
847.122	25.77
847.297	36.01
847.473	5.29
847.648	-54.1
847.824	38.06
847.999	-31.57
848.175	7.34
848.35	15.53
848.526	122.02
848.701	74.92
848.876	89.26
849.052	-0.85
849.227	44.2
849.403	40.11
849.578	-9.05
849.753	70.83
849.929	87.21
850.104	19.63
850.279	111.78
850.454	105.64
850.63	101.55
850.805	46.25
850.98	87.21
851.155	-2.9
851.33	40.11
851.505	7.34
851.681	66.73
851.856	25.77
852.031	21.67
852.206	50.35
852.381	17.58
852.556	31.91
852.731	-7
852.906	-50
853.081	89.26
853.256	81.07
853.431	83.11
853.606	19.63
853.781	76.97
853.956	-19.29
854.131	5.29
854.305	-7
854.48	54.44
854.655	-58.2
854.83	48.3
855.005	40.11
855.18	52.39
855.354	31.91
855.529	54.44
855.704	62.63
855.879	36.01
856.053	-4.95
856.228	29.87
856.403	46.25
856.577	68.78
856.752	-13.14
856.926	42.15
857.101	68.78
857.276	-31.57
857.45	3.24
857.625	44.2
857.799	23.72
857.974	107.69
858.148	5.29
858.323	23.72
858.497	-0.85
858.672	44.2
858.846	42.15
859.02	56.49
859.195	-2.9
859.369	-23.38
859.543	-21.33
859.718	-4.95
859.892	-4.95
860.066	7.34
860.241	-25.43
860.415	25.77
860.589	-2.9
860.763	9.39
860.938	-31.57
861.112	66.73
861.286	15.53
861.46	64.68
861.634	-27.48
861.808	89.26
861.982	-2.9
862.157	-47.96
862.331	-7
862.505	33.96
862.679	-64.34
862.853	44.2
863.027	-4.95
863.201	101.55
863.375	33.96
863.549	31.91
863.722	54.44
863.896	36.01
864.07	7.34
864.244	40.11
864.418	62.63
864.592	-4.95
864.766	-54.1
864.939	11.43
865.113	-9.05
865.287	101.55
865.461	5.29
865.634	9.39
865.808	-41.81
865.982	19.63
866.156	29.87
866.329	-17.24
866.503	-27.48
866.676	3.24
866.85	1.19
867.024	5.29
867.197	15.53
867.371	19.63
867.544	11.43
867.718	-15.19
867.891	42.15
868.065	-64.34
868.238	-41.81
868.412	-29.52
868.585	-25.43
868.759	31.91
868.932	-11.09
869.105	23.72
869.279	31.91
869.452	-33.62
869.625	56.49
869.799	-27.48
869.972	-82.77
870.145	7.34
870.319	74.92
870.492	-4.95
870.665	64.68
870.838	-33.62
871.011	-33.62
871.185	58.54
871.358	-39.76
871.531	33.96
871.704	3.24
871.877	5.29
872.05	44.2
872.223	38.06
872.396	70.83
872.569	50.35
872.742	-25.43
872.915	-45.91
873.088	1.19
873.261	-7
873.434	13.48
873.607	56.49
873.78	-0.85
873.953	-17.24
874.126	83.11
874.299	11.43
874.471	-31.57
874.644	-4.95
874.817	-19.29
874.99	99.5
875.163	50.35
875.335	27.82
875.508	17.58
875.681	-17.24
875.853	40.11
876.026	15.53
876.199	-2.9
876.371	-29.52
876.544	-35.67
876.717	-29.52
876.889	-23.38
877.062	-43.86
877.234	-82.77
877.407	1.19
877.579	-27.48
877.752	-9.05
877.924	-31.57
878.097	-7
878.269	81.07
878.442	33.96
878.614	-64.34
878.786	48.3
878.959	76.97
879.131	-25.43
879.303	15.53
879.476	27.82
879.648	58.54
879.82	-0.85
879.993	-29.52
880.165	-35.67
880.337	29.87
880.509	-25.43
880.681	29.87
880.854	-25.43
881.026	-2.9
881.198	101.55
881.37	-37.72
881.542	-9.05
881.714	36.01
881.886	-37.72
882.058	-23.38
882.23	-0.85
882.402	15.53
882.574	11.43
882.746	3.24
882.918	89.26
883.09	68.78
883.262	-37.72
883.434	-41.81
883.606	-4.95
883.778	29.87
883.95	38.06
884.122	9.39
884.293	-33.62
884.465	5.29
884.637	-27.48
884.809	-21.33
884.98	70.83
885.152	54.44
885.324	-54.1
885.496	-33.62
885.667	21.67
885.839	27.82
886.011	-25.43
886.182	38.06
886.354	62.63
886.525	-0.85
886.697	9.39
886.869	7.34
887.04	-17.24
887.212	48.3
887.383	38.06
887.555	-29.52
887.726	-9.05
887.897	23.72
888.069	-21.33
888.24	-0.85
888.412	15.53
888.583	11.43
888.754	-17.24
888.926	-15.19
889.097	-21.33
889.268	-19.29
889.44	-31.57
889.611	-11.09
889.782	11.43
889.953	23.72
890.125	1.19
890.296	-2.9
890.467	-2.9
890.638	-35.67
890.809	38.06
890.98	-2.9
891.151	64.68
891.323	48.3
891.494	3.24
891.665	3.24
891.836	-0.85
892.007	-11.09
892.178	40.11
892.349	-25.43
892.52	-95.06
892.691	1.19
892.862	40.11
893.032	-29.52
893.203	-4.95
893.374	-17.24
893.545	-19.29
893.716	-78.68
893.887	81.07
894.057	-54.1
894.228	97.45
894.399	-82.77
894.57	36.01
894.74	-66.39
894.911	36.01
895.082	-0.85
895.253	15.53
895.423	17.58
895.594	15.53
895.764	21.67
895.935	-50
896.106	-25.43
896.276	31.91
896.447	-21.33
896.617	3.24
896.788	-27.48
896.958	-9.05
897.129	-27.48
897.299	-29.52
897.47	31.91
897.64	48.3
897.81	27.82
897.981	15.53
898.151	13.48
898.322	-2.9
898.492	83.11
898.662	-50
898.832	-17.24
899.003	50.35
899.173	-60.24
899.343	-29.52
899.513	5.29
