Data from USB4F104151__153__10-26-59-962.txt Node

Date: Wed Mar 12 10:26:59 EDT 2025
User: louis
Spectrometer: USB4F10415
Trigger mode: 4
Integration Time (sec): 3.000000E-2
Scans to average: 1
Electric dark correction enabled: true
Nonlinearity correction enabled: false
Boxcar width: 0
XAxis mode: Wavelengths
Number of Pixels in Spectrum: 3648
>>>>>Begin Spectral Data<<<<<
178.204	-72.19
178.424	-72.19
178.644	-72.19
178.864	-168.45
179.084	-121.34
179.304	-14.85
179.524	13.82
179.744	-4.61
179.964	9.73
180.184	-2.56
180.404	-23.04
180.624	-18.94
180.844	19.97
181.064	-0.51
181.283	62.98
181.503	-31.23
181.723	-10.75
181.943	-107.01
182.163	50.69
182.383	-14.85
182.602	34.3
182.822	67.07
183.042	17.92
183.262	71.17
183.482	15.87
183.701	44.54
183.921	-2.56
184.141	62.98
184.361	52.74
184.58	69.12
184.8	105.98
185.02	-12.8
185.239	5.63
185.459	71.17
185.679	38.4
185.898	-23.04
186.118	9.73
186.338	22.02
186.557	38.4
186.777	13.82
186.997	13.82
187.216	-4.61
187.436	103.93
187.655	-2.56
187.875	85.5
188.095	26.11
188.314	36.35
188.534	83.45
188.753	-35.33
188.973	-10.75
189.192	77.31
189.412	50.69
189.631	17.92
189.851	46.59
190.07	9.73
190.29	-45.57
190.509	1.54
190.729	19.97
190.948	136.7
191.168	159.23
191.387	71.17
191.607	36.35
191.826	40.45
192.045	-12.8
192.265	-2.56
192.484	81.41
192.704	9.73
192.923	5.63
193.142	62.98
193.362	30.21
193.581	62.98
193.8	-27.14
194.02	1.54
194.239	54.78
194.458	30.21
194.678	-2.56
194.897	36.35
195.116	58.88
195.335	69.12
195.555	93.69
195.774	69.12
195.993	26.11
196.212	-14.85
196.432	-66.05
196.651	-2.56
196.87	67.07
197.089	87.55
197.308	112.13
197.528	32.26
197.747	-35.33
197.966	28.16
198.185	1.54
198.404	32.26
198.623	-20.99
198.842	-2.56
199.062	52.74
199.281	28.16
199.5	9.73
199.719	148.99
199.938	17.92
200.157	52.74
200.376	17.92
200.595	54.78
200.814	60.93
201.033	17.92
201.252	95.74
201.471	-23.04
201.69	116.22
201.909	32.26
202.128	-0.51
202.347	9.73
202.566	77.31
202.785	34.3
203.004	19.97
203.223	89.6
203.442	5.63
203.661	62.98
203.879	34.3
204.098	19.97
204.317	22.02
204.536	60.93
204.755	30.21
204.974	58.88
205.193	48.64
205.411	48.64
205.63	22.02
205.849	24.06
206.068	93.69
206.287	19.97
206.505	44.54
206.724	-2.56
206.943	-27.14
207.162	34.3
207.381	120.32
207.599	62.98
207.818	-39.42
208.037	77.31
208.255	44.54
208.474	5.63
208.693	62.98
208.911	-10.75
209.13	60.93
209.349	58.88
209.567	-27.14
209.786	69.12
210.005	28.16
210.223	13.82
210.442	38.4
210.661	56.83
210.879	-20.99
211.098	11.78
211.316	19.97
211.535	-4.61
211.753	54.78
211.972	85.5
212.191	-31.23
212.409	77.31
212.628	32.26
212.846	34.3
213.065	-2.56
213.283	26.11
213.502	40.45
213.72	46.59
213.938	9.73
214.157	132.61
214.375	-10.75
214.594	9.73
214.812	54.78
215.031	73.21
215.249	5.63
215.467	34.3
215.686	101.89
215.904	22.02
216.122	9.73
216.341	46.59
216.559	-2.56
216.778	46.59
216.996	28.16
217.214	54.78
217.432	65.02
217.651	-33.28
217.869	79.36
218.087	75.26
218.306	22.02
218.524	67.07
218.742	-25.09
218.96	-8.7
219.179	11.78
219.397	48.64
219.615	83.45
219.833	24.06
220.051	7.68
220.27	11.78
220.488	38.4
220.706	105.98
220.924	7.68
221.142	54.78
221.36	52.74
221.578	11.78
221.796	9.73
222.015	-18.94
222.233	-27.14
222.451	85.5
222.669	9.73
222.887	36.35
223.105	42.5
223.323	19.97
223.541	62.98
223.759	-2.56
223.977	67.07
224.195	-12.8
224.413	89.6
224.631	3.58
224.849	101.89
225.067	60.93
225.285	-53.76
225.503	71.17
225.721	38.4
225.939	-16.9
226.157	22.02
226.375	91.65
226.592	7.68
226.81	1.54
227.028	17.92
227.246	114.17
227.464	36.35
227.682	99.84
227.9	54.78
228.117	-18.94
228.335	-27.14
228.553	34.3
228.771	58.88
228.989	54.78
229.206	103.93
229.424	3.58
229.642	-31.23
229.86	11.78
230.077	67.07
230.295	93.69
230.513	13.82
230.731	15.87
230.948	38.4
231.166	56.83
231.384	48.64
231.601	-12.8
231.819	5.63
232.037	77.31
232.254	-35.33
232.472	3.58
232.689	30.21
232.907	60.93
233.125	46.59
233.342	91.65
233.56	65.02
233.777	44.54
233.995	85.5
234.213	54.78
234.43	48.64
234.648	32.26
234.865	38.4
235.083	79.36
235.3	48.64
235.518	69.12
235.735	19.97
235.953	32.26
236.17	-35.33
236.388	17.92
236.605	-2.56
236.822	-4.61
237.04	32.26
237.257	42.5
237.475	36.35
237.692	19.97
237.909	19.97
238.127	-16.9
238.344	24.06
238.562	-4.61
238.779	50.69
238.996	-66.05
239.214	40.45
239.431	103.93
239.648	-0.51
239.865	91.65
240.083	97.79
240.3	75.26
240.517	22.02
240.735	-8.7
240.952	38.4
241.169	89.6
241.386	97.79
241.603	1.54
241.821	36.35
242.038	56.83
242.255	-20.99
242.472	-51.71
242.689	83.45
242.907	-0.51
243.124	-18.94
243.341	52.74
243.558	40.45
243.775	-12.8
243.992	3.58
244.209	54.78
244.426	103.93
244.643	-18.94
244.86	17.92
245.078	-2.56
245.295	79.36
245.512	5.63
245.729	46.59
245.946	13.82
246.163	-6.66
246.38	-12.8
246.597	-4.61
246.814	69.12
247.031	34.3
247.248	28.16
247.464	46.59
247.681	46.59
247.898	85.5
248.115	9.73
248.332	1.54
248.549	62.98
248.766	67.07
248.983	110.08
249.2	17.92
249.417	-16.9
249.633	42.5
249.85	5.63
250.067	-2.56
250.284	11.78
250.501	75.26
250.717	-10.75
250.934	50.69
251.151	-4.61
251.368	52.74
251.585	65.02
251.801	36.35
252.018	46.59
252.235	-39.42
252.451	40.45
252.668	56.83
252.885	-16.9
253.102	69.12
253.318	26.11
253.535	22.02
253.752	-20.99
253.968	36.35
254.185	69.12
254.401	48.64
254.618	71.17
254.835	30.21
255.051	54.78
255.268	58.88
255.484	1.54
255.701	48.64
255.917	75.26
256.134	32.26
256.351	34.3
256.567	15.87
256.784	13.82
257	17.92
257.217	15.87
257.433	73.21
257.65	-2.56
257.866	77.31
258.082	132.61
258.299	60.93
258.515	73.21
258.732	105.98
258.948	103.93
259.165	13.82
259.381	15.87
259.597	58.88
259.814	17.92
260.03	-31.23
260.246	38.4
260.463	40.45
260.679	5.63
260.895	15.87
261.112	91.65
261.328	69.12
261.544	81.41
261.761	69.12
261.977	11.78
262.193	13.82
262.409	93.69
262.626	42.5
262.842	69.12
263.058	3.58
263.274	58.88
263.49	54.78
263.707	32.26
263.923	136.7
264.139	3.58
264.355	93.69
264.571	67.07
264.787	9.73
265.004	67.07
265.22	-20.99
265.436	93.69
265.652	15.87
265.868	60.93
266.084	1.54
266.3	50.69
266.516	7.68
266.732	93.69
266.948	62.98
267.164	42.5
267.38	-18.94
267.596	7.68
267.812	93.69
268.028	50.69
268.244	50.69
268.46	26.11
268.676	26.11
268.892	32.26
269.108	83.45
269.324	7.68
269.54	1.54
269.756	79.36
269.972	11.78
270.188	44.54
270.403	-6.66
270.619	50.69
270.835	73.21
271.051	87.55
271.267	-4.61
271.483	9.73
271.698	32.26
271.914	26.11
272.13	32.26
272.346	26.11
272.562	-10.75
272.777	79.36
272.993	15.87
273.209	15.87
273.425	7.68
273.64	34.3
273.856	75.26
274.072	24.06
274.287	40.45
274.503	87.55
274.719	71.17
274.934	71.17
275.15	91.65
275.366	-35.33
275.581	97.79
275.797	15.87
276.012	-10.75
276.228	17.92
276.444	5.63
276.659	46.59
276.875	-18.94
277.09	71.17
277.306	17.92
277.521	79.36
277.737	79.36
277.952	22.02
278.168	9.73
278.383	99.84
278.599	34.3
278.814	26.11
279.03	108.03
279.245	101.89
279.461	7.68
279.676	52.74
279.892	-6.66
280.107	-6.66
280.322	-0.51
280.538	128.51
280.753	-59.9
280.969	99.84
281.184	48.64
281.399	65.02
281.615	-27.14
281.83	26.11
282.045	1.54
282.26	-10.75
282.476	65.02
282.691	11.78
282.906	75.26
283.122	85.5
283.337	40.45
283.552	46.59
283.767	34.3
283.983	89.6
284.198	75.26
284.413	34.3
284.628	28.16
284.843	48.64
285.058	73.21
285.274	5.63
285.489	1.54
285.704	87.55
285.919	17.92
286.134	40.45
286.349	-4.61
286.564	38.4
286.779	93.69
286.995	32.26
287.21	56.83
287.425	69.12
287.64	65.02
287.855	26.11
288.07	32.26
288.285	56.83
288.5	83.45
288.715	36.35
288.93	30.21
289.145	36.35
289.36	79.36
289.575	-45.57
289.79	26.11
290.004	-4.61
290.219	71.17
290.434	7.68
290.649	5.63
290.864	52.74
291.079	19.97
291.294	81.41
291.509	79.36
291.724	-16.9
291.938	13.82
292.153	87.55
292.368	87.55
292.583	87.55
292.798	17.92
293.012	81.41
293.227	32.26
293.442	60.93
293.657	1.54
293.871	54.78
294.086	91.65
294.301	99.84
294.516	69.12
294.73	52.74
294.945	-16.9
295.16	15.87
295.374	95.74
295.589	-12.8
295.804	13.82
296.018	118.27
296.233	71.17
296.447	105.98
296.662	30.21
296.877	65.02
297.091	3.58
297.306	-37.38
297.52	5.63
297.735	46.59
297.949	34.3
298.164	58.88
298.378	58.88
298.593	1.54
298.807	52.74
299.022	-4.61
299.236	11.78
299.451	44.54
299.665	1.54
299.88	97.79
300.094	-20.99
300.309	30.21
300.523	58.88
300.737	5.63
300.952	60.93
301.166	101.89
301.381	112.13
301.595	30.21
301.809	32.26
302.024	1.54
302.238	54.78
302.452	77.31
302.667	-25.09
302.881	118.27
303.095	67.07
303.309	-0.51
303.524	7.68
303.738	5.63
303.952	38.4
304.166	54.78
304.381	54.78
304.595	62.98
304.809	22.02
305.023	36.35
305.237	58.88
305.452	28.16
305.666	28.16
305.88	9.73
306.094	79.36
306.308	54.78
306.522	-2.56
306.736	120.32
306.95	36.35
307.164	15.87
307.379	-10.75
307.593	73.21
307.807	54.78
308.021	22.02
308.235	89.6
308.449	-0.51
308.663	28.16
308.877	118.27
309.091	-43.52
309.305	120.32
309.519	11.78
309.733	67.07
309.947	28.16
310.161	13.82
310.374	46.59
310.588	75.26
310.802	52.74
311.016	50.69
311.23	26.11
311.444	46.59
311.658	28.16
311.872	132.61
312.085	46.59
312.299	120.32
312.513	60.93
312.727	118.27
312.941	-6.66
313.154	83.45
313.368	71.17
313.582	-6.66
313.796	34.3
314.009	50.69
314.223	15.87
314.437	-39.42
314.651	36.35
314.864	44.54
315.078	87.55
315.292	3.58
315.505	-14.85
315.719	-4.61
315.933	54.78
316.146	77.31
316.36	34.3
316.573	99.84
316.787	38.4
317.001	60.93
317.214	22.02
317.428	36.35
317.641	50.69
317.855	-2.56
318.068	52.74
318.282	95.74
318.495	75.26
318.709	42.5
318.922	52.74
319.136	26.11
319.349	50.69
319.563	-12.8
319.776	112.13
319.99	-10.75
320.203	148.99
320.417	28.16
320.63	-10.75
320.843	69.12
321.057	1.54
321.27	112.13
321.483	89.6
321.697	-18.94
321.91	85.5
322.124	99.84
322.337	-51.71
322.55	-2.56
322.763	1.54
322.977	-27.14
323.19	32.26
323.403	83.45
323.617	89.6
323.83	62.98
324.043	19.97
324.256	69.12
324.469	30.21
324.683	11.78
324.896	75.26
325.109	-10.75
325.322	38.4
325.535	44.54
325.748	132.61
325.962	42.5
326.175	77.31
326.388	108.03
326.601	52.74
326.814	24.06
327.027	58.88
327.24	79.36
327.453	-29.18
327.666	93.69
327.879	69.12
328.092	56.83
328.305	44.54
328.518	7.68
328.731	65.02
328.944	52.74
329.157	67.07
329.37	3.58
329.583	157.18
329.796	101.89
330.009	71.17
330.222	60.93
330.435	30.21
330.648	44.54
330.861	67.07
331.073	24.06
331.286	81.41
331.499	26.11
331.712	32.26
331.925	89.6
332.138	58.88
332.35	54.78
332.563	5.63
332.776	24.06
332.989	44.54
333.202	32.26
333.414	69.12
333.627	34.3
333.84	34.3
334.053	118.27
334.265	87.55
334.478	-27.14
334.691	-10.75
334.903	34.3
335.116	79.36
335.329	77.31
335.541	83.45
335.754	85.5
335.966	30.21
336.179	52.74
336.392	83.45
336.604	99.84
336.817	73.21
337.029	73.21
337.242	54.78
337.454	62.98
337.667	-33.28
337.88	46.59
338.092	120.32
338.305	105.98
338.517	-4.61
338.729	93.69
338.942	48.64
339.154	65.02
339.367	-16.9
339.579	56.83
339.792	28.16
340.004	50.69
340.217	103.93
340.429	60.93
340.641	36.35
340.854	13.82
341.066	-0.51
341.278	56.83
341.491	52.74
341.703	38.4
341.915	-8.7
342.128	116.22
342.34	81.41
342.552	48.64
342.764	13.82
342.977	-18.94
343.189	30.21
343.401	50.69
343.613	-12.8
343.826	73.21
344.038	22.02
344.25	132.61
344.462	42.5
344.674	95.74
344.886	-10.75
345.099	108.03
345.311	26.11
345.523	52.74
345.735	-6.66
345.947	71.17
346.159	32.26
346.371	93.69
346.583	40.45
346.795	99.84
347.007	44.54
347.219	-14.85
347.431	30.21
347.643	101.89
347.855	50.69
348.067	110.08
348.279	65.02
348.491	54.78
348.703	28.16
348.915	3.58
349.127	9.73
349.339	58.88
349.551	50.69
349.763	108.03
349.975	19.97
350.187	97.79
350.399	54.78
350.61	56.83
350.822	42.5
351.034	65.02
351.246	77.31
351.458	79.36
351.669	81.41
351.881	9.73
352.093	-35.33
352.305	19.97
352.517	62.98
352.728	81.41
352.94	95.74
353.152	62.98
353.363	116.22
353.575	-2.56
353.787	101.89
353.999	38.4
354.21	85.5
354.422	30.21
354.633	54.78
354.845	56.83
355.057	-37.38
355.268	79.36
355.48	54.78
355.692	40.45
355.903	124.41
356.115	38.4
356.326	-57.86
356.538	128.51
356.749	30.21
356.961	93.69
357.172	48.64
357.384	13.82
357.595	144.89
357.807	52.74
358.018	24.06
358.23	1.54
358.441	101.89
358.653	22.02
358.864	48.64
359.075	30.21
359.287	87.55
359.498	34.3
359.709	9.73
359.921	99.84
360.132	54.78
360.344	54.78
360.555	58.88
360.766	99.84
360.977	161.28
361.189	122.37
361.4	5.63
361.611	101.89
361.823	58.88
362.034	93.69
362.245	-14.85
362.456	122.37
362.667	67.07
362.879	65.02
363.09	-23.04
363.301	-35.33
363.512	30.21
363.723	42.5
363.935	79.36
364.146	120.32
364.357	3.58
364.568	85.5
364.779	15.87
364.99	75.26
365.201	40.45
365.412	30.21
365.623	38.4
365.834	7.68
366.045	-4.61
366.256	128.51
366.467	153.09
366.678	-37.38
366.889	15.87
367.1	83.45
367.311	44.54
367.522	62.98
367.733	91.65
367.944	58.88
368.155	-2.56
368.366	48.64
368.577	26.11
368.788	95.74
368.999	42.5
369.209	71.17
369.42	161.28
369.631	32.26
369.842	83.45
370.053	22.02
370.264	58.88
370.474	15.87
370.685	1.54
370.896	5.63
371.107	103.93
371.317	124.41
371.528	83.45
371.739	22.02
371.95	-10.75
372.16	103.93
372.371	91.65
372.582	17.92
372.792	54.78
373.003	89.6
373.214	7.68
373.424	5.63
373.635	38.4
373.846	132.61
374.056	-18.94
374.267	13.82
374.477	24.06
374.688	60.93
374.898	124.41
375.109	67.07
375.319	24.06
375.53	52.74
375.74	73.21
375.951	19.97
376.161	75.26
376.372	112.13
376.582	13.82
376.793	73.21
377.003	73.21
377.214	-4.61
377.424	54.78
377.635	5.63
377.845	-27.14
378.055	151.04
378.266	-23.04
378.476	46.59
378.686	7.68
378.897	-10.75
379.107	89.6
379.317	24.06
379.528	46.59
379.738	69.12
379.948	-2.56
380.158	91.65
380.369	91.65
380.579	67.07
380.789	13.82
380.999	103.93
381.21	75.26
381.42	69.12
381.63	26.11
381.84	95.74
382.05	101.89
382.261	114.17
382.471	38.4
382.681	17.92
382.891	75.26
383.101	56.83
383.311	56.83
383.521	71.17
383.731	128.51
383.941	95.74
384.151	142.85
384.361	42.5
384.571	85.5
384.781	83.45
384.991	126.46
385.201	99.84
385.411	138.75
385.621	62.98
385.831	122.37
386.041	56.83
386.251	-39.42
386.461	87.55
386.671	36.35
386.881	32.26
387.091	5.63
387.301	175.61
387.511	71.17
387.72	22.02
387.93	116.22
388.14	99.84
388.35	58.88
388.56	122.37
388.769	30.21
388.979	17.92
389.189	42.5
389.399	28.16
389.609	95.74
389.818	101.89
390.028	-12.8
390.238	44.54
390.447	101.89
390.657	19.97
390.867	126.46
391.076	38.4
391.286	36.35
391.496	65.02
391.705	9.73
391.915	114.17
392.125	67.07
392.334	42.5
392.544	118.27
392.753	54.78
392.963	79.36
393.172	73.21
393.382	83.45
393.591	81.41
393.801	134.65
394.01	97.79
394.22	101.89
394.429	48.64
394.639	75.26
394.848	-2.56
395.058	65.02
395.267	120.32
395.477	210.43
395.686	99.84
395.895	181.76
396.105	171.52
396.314	112.13
396.524	103.93
396.733	65.02
396.942	101.89
397.152	140.8
397.361	200.19
397.57	134.65
397.78	73.21
397.989	108.03
398.198	87.55
398.407	165.37
398.617	93.69
398.826	91.65
399.035	17.92
399.244	122.37
399.453	222.72
399.663	138.75
399.872	163.33
400.081	148.99
400.29	165.37
400.499	153.09
400.708	153.09
400.917	120.32
401.127	89.6
401.336	122.37
401.545	196.09
401.754	116.22
401.963	134.65
402.172	140.8
402.381	120.32
402.59	93.69
402.799	144.89
403.008	67.07
403.217	144.89
403.426	22.02
403.635	140.8
403.844	144.89
404.053	138.75
404.262	183.81
404.471	187.9
404.68	173.57
404.888	146.94
405.097	173.57
405.306	151.04
405.515	230.91
405.724	142.85
405.933	183.81
406.142	177.66
406.35	275.96
406.559	232.96
406.768	235
406.977	292.35
407.185	222.72
407.394	269.82
407.603	163.33
407.812	230.91
408.02	171.52
408.229	259.58
408.438	228.86
408.646	255.48
408.855	294.4
409.064	239.1
409.272	247.29
409.481	243.2
409.69	321.02
409.898	255.48
410.107	374.27
410.315	329.21
410.524	335.35
410.733	380.41
410.941	280.06
411.15	435.71
411.358	470.52
411.567	409.08
411.775	476.66
411.984	423.42
412.192	486.9
412.401	470.52
412.609	542.2
412.818	572.92
413.026	548.34
413.234	542.2
413.443	517.62
413.651	579.06
413.86	587.26
414.068	687.61
414.276	675.32
414.485	689.65
414.693	579.06
414.901	665.08
415.11	757.24
415.318	857.59
415.526	734.71
415.734	792.05
415.943	800.24
416.151	933.36
416.359	898.55
416.567	871.92
416.776	1023.47
416.984	1046
417.192	1068.53
417.4	1037.81
417.608	1117.68
417.817	1074.67
418.025	1226.22
418.233	1279.47
418.441	1244.65
418.649	1248.75
418.857	1367.53
419.065	1377.77
419.273	1347.05
419.481	1396.2
419.689	1514.98
419.897	1609.19
420.105	1641.96
420.313	1625.58
420.521	1682.92
420.729	1680.87
420.937	1758.69
421.145	1801.7
421.353	1844.71
421.561	1990.11
421.769	2084.32
421.977	2192.86
422.185	2088.42
422.393	2252.25
422.601	2424.28
422.809	2323.93
423.017	2524.63
423.224	2508.25
423.432	2649.56
423.64	2512.35
423.848	2909.65
424.056	2831.83
424.263	3151.31
424.471	3134.93
424.679	3128.78
424.887	3243.47
425.094	3362.25
425.302	3388.88
425.51	3573.19
425.718	3579.34
425.925	3595.72
426.133	3808.71
426.341	3857.86
426.548	4124.1
426.756	4105.67
426.964	4142.53
427.171	4453.82
427.379	4519.36
427.586	4740.54
427.794	4705.72
428.001	5014.96
428.209	5199.28
428.417	5090.74
428.624	5555.63
428.832	5354.93
429.039	5436.85
429.247	5508.52
429.454	5969.32
429.662	6552.99
429.869	5799.34
430.076	6376.86
430.284	6102.43
430.491	6434.21
430.699	6661.53
430.906	6835.61
431.114	6837.66
431.321	7185.81
431.528	7353.74
431.736	7697.8
431.943	8111.49
432.15	7783.82
432.358	8062.34
432.565	8371.58
432.772	8584.57
432.979	8684.92
433.187	8996.21
433.394	8770.94
433.601	9391.47
433.808	9643.37
434.016	9532.78
434.223	9985.38
434.43	10544.48
434.637	10280.29
434.844	11066.71
435.052	11232.6
435.259	10937.69
435.466	11165.01
435.673	11101.53
435.88	11855.18
436.087	12225.86
436.294	12549.44
436.501	12215.62
436.708	12612.93
436.915	12784.96
437.122	13579.57
437.329	13434.16
437.537	13849.9
437.743	14118.18
437.95	13784.37
438.157	14710.05
438.364	15158.55
438.571	14957.85
438.778	15127.83
438.985	16786.69
439.192	15686.93
439.399	16452.87
439.606	16184.59
439.813	16932.09
440.02	18121.96
440.227	17554.68
440.433	17122.55
440.64	18113.77
440.847	17814.77
441.054	18199.79
441.261	19707.09
441.467	19369.18
441.674	19674.32
441.881	20356.3
442.088	20167.88
442.294	20200.65
442.501	20884.67
442.708	21146.81
442.914	22062.26
443.121	22865.06
443.328	22201.52
443.534	23966.87
443.741	23411.87
443.948	22989.99
444.154	24388.75
444.361	24319.12
444.568	24712.33
444.774	24573.07
444.981	24626.31
445.187	25332.86
445.394	26240.11
445.6	26180.72
445.807	28539.98
446.013	27485.28
446.22	27868.25
446.426	28922.95
446.633	29135.94
446.839	30041.14
447.046	29121.6
447.252	30542.89
447.459	30708.78
447.665	30327.86
447.871	31583.26
448.078	32908.3
448.284	31573.02
448.491	32494.61
448.697	33352.71
448.903	33950.71
449.11	34343.92
449.316	33608.7
449.522	33893.37
449.728	34933.74
449.935	35240.93
450.141	35191.78
450.347	35863.52
450.553	34804.72
450.76	35101.67
450.966	36211.67
451.172	35986.39
451.378	36506.58
451.584	36160.47
451.791	36549.59
451.997	36754.38
452.203	37049.29
452.409	37258.18
452.615	37059.53
452.821	35621.86
453.027	34886.64
453.233	36944.84
453.44	35324.9
453.646	35771.36
453.852	36062.17
454.058	36275.16
454.264	35281.89
454.47	36600.79
454.676	35038.19
454.882	36570.07
455.088	33160.2
455.294	33588.22
455.5	34227.19
455.705	34601.97
455.911	33147.91
456.117	32523.28
456.323	32232.47
456.529	30223.41
456.735	31620.13
456.941	30831.66
457.147	30604.33
457.352	29387.84
457.558	28707.91
457.764	29019.21
457.97	28382.29
458.176	27995.22
458.381	27874.39
458.587	26209.39
458.793	26426.48
458.999	24976.51
459.204	26905.7
459.41	26102.9
459.616	24548.49
459.821	24482.95
460.027	24355.98
460.233	23833.75
460.438	22840.48
460.644	22736.04
460.85	21650.61
461.055	21568.69
461.261	21529.78
461.466	19834.07
461.672	19440.86
461.878	20665.54
462.083	19299.55
462.289	18963.68
462.494	18842.85
462.7	17818.86
462.905	17464.57
463.111	18236.65
463.316	17994.99
463.522	17714.42
463.727	17919.21
463.932	17566.96
464.138	17577.2
464.343	17714.42
464.549	17294.58
464.754	17941.74
464.959	17646.83
465.165	17483
465.37	16663.81
465.575	16409.86
465.781	16839.94
465.986	16958.72
466.191	16495.88
466.397	16221.45
466.602	15406.36
466.807	15832.33
467.012	15815.95
467.218	15652.11
467.423	15676.69
467.628	15525.14
467.833	16405.77
468.038	15658.26
468.244	15559.95
468.449	15789.33
468.654	15473.94
468.859	14964
469.064	15088.92
469.269	14890.27
469.474	14710.05
469.679	14941.47
469.885	14535.97
470.09	14677.28
470.295	14632.22
470.5	14511.39
470.705	14378.28
470.91	13989.16
471.115	13878.57
471.32	14316.84
471.525	13985.07
471.73	13792.56
471.935	13700.4
472.139	13366.58
472.344	13649.2
472.549	13163.83
472.754	13120.82
472.959	12832.06
473.164	12598.59
473.369	12387.65
473.574	12789.05
473.778	12686.65
473.983	12391.75
474.188	12510.53
474.393	12178.76
474.598	12158.28
474.802	11949.39
475.007	11842.89
475.212	11896.14
475.417	11343.19
475.621	11398.48
475.826	11455.83
476.031	11246.93
476.235	11150.68
476.44	11332.95
476.645	11042.14
476.849	11056.47
477.054	10900.83
477.259	10759.52
477.463	10714.46
477.668	10556.77
477.872	10681.69
478.077	10526.05
478.282	10263.91
478.486	10177.89
478.691	10145.13
478.895	9721.2
479.1	10026.34
479.304	9944.42
479.509	9848.17
479.713	9913.7
479.918	9694.57
480.122	9598.32
480.326	9786.73
480.531	9794.92
480.735	9516.4
480.94	9577.84
481.144	9698.67
481.348	9282.93
481.553	9700.72
481.757	9309.55
481.961	9323.89
482.166	9629.04
482.37	9414
482.574	9225.59
482.778	9360.75
482.983	9446.77
483.187	9295.22
483.391	9317.75
483.595	9203.06
483.8	9231.73
484.004	9194.87
484.208	9270.64
484.412	9364.85
484.616	9282.93
484.821	9344.37
485.025	9225.59
485.229	9289.07
485.433	9282.93
485.637	9368.95
485.841	9291.12
486.045	9282.93
486.249	9500.02
486.453	9303.41
486.657	9379.18
486.861	9262.45
487.065	9106.81
487.269	9336.18
487.473	9198.96
487.677	9323.89
487.881	9244.02
488.085	9221.49
488.289	9295.22
488.493	9338.23
488.697	9463.15
488.901	9381.23
489.105	9540.97
489.309	9508.21
489.512	9545.07
489.716	9381.23
489.92	9416.05
490.124	9506.16
490.328	9581.93
490.531	9551.21
490.735	9508.21
490.939	9651.56
491.143	9721.2
491.346	9518.45
491.55	9907.56
491.754	9844.07
491.958	9862.51
492.161	9835.88
492.365	9811.31
492.569	9708.91
492.772	9899.37
492.976	10040.68
493.18	9932.14
493.383	10261.86
493.587	10417.51
493.79	10327.39
493.994	10128.74
494.197	10274.15
494.401	10581.34
494.605	10302.82
494.808	10384.74
495.012	10679.65
495.215	10794.33
495.419	10657.12
495.622	10757.47
495.825	10861.91
496.029	10773.85
496.232	11314.52
496.436	11044.18
496.639	11474.26
496.843	11089.24
497.046	11545.94
497.249	11699.53
497.453	11586.9
497.656	11638.09
497.859	12033.35
498.063	12088.65
498.266	12350.79
498.469	12508.48
498.673	12410.18
498.876	12502.34
499.079	12842.3
499.282	12586.3
499.485	13088.06
499.689	13032.76
499.892	13272.37
500.095	13425.97
500.298	13579.57
500.501	13483.31
500.705	14030.12
500.908	13974.83
501.111	14245.16
501.314	14210.34
501.517	14705.95
501.72	14642.46
501.923	14396.71
502.126	14982.43
502.329	15068.44
502.532	15310.1
502.735	15379.73
502.938	15727.89
503.141	15807.76
503.344	15930.64
503.547	15942.92
503.75	16170.25
503.953	16262.41
504.156	16620.8
504.359	16708.87
504.562	16606.47
504.765	17171.71
504.968	17284.34
505.17	17736.95
505.373	17362.17
505.576	17974.51
505.779	18224.36
505.982	18124.01
506.185	18597.09
506.387	18564.32
506.59	18697.44
506.793	19205.34
506.996	18857.18
507.198	19754.19
507.401	19463.38
507.604	19866.83
507.807	20077.77
508.009	20421.83
508.212	20235.47
508.415	20567.24
508.617	20882.63
508.82	21155.01
509.022	21150.91
509.225	21748.92
509.428	21623.99
509.63	22222
509.833	21728.44
510.035	22434.99
510.238	22359.21
510.44	22676.65
510.643	23200.93
510.845	23108.77
511.048	22881.44
511.25	23430.3
511.453	23731.35
511.655	24568.97
511.858	24456.33
512.06	24540.3
512.262	24792.2
512.465	24816.77
512.667	25459.84
512.87	25437.31
513.072	25396.35
513.274	25973.88
513.477	26305.65
513.679	26348.65
513.881	26496.11
514.084	26631.27
514.286	27036.77
514.488	27167.84
514.69	27892.82
514.893	28095.57
515.095	28175.44
515.297	28406.86
515.499	28519.5
515.701	29080.64
515.904	29355.07
516.106	29258.82
516.308	29801.53
516.51	29752.38
516.712	30063.67
516.914	30618.67
517.116	30858.28
517.318	31101.99
517.52	31288.35
517.722	31155.24
517.925	31685.66
518.127	31831.07
518.329	32128.02
518.531	32193.56
518.733	32777.23
518.935	33324.04
519.136	33324.04
519.338	33651.71
519.54	34071.54
519.742	34124.79
519.944	34180.09
520.146	34784.24
520.348	34880.49
520.55	35009.51
520.752	34745.33
520.954	36203.48
521.155	35822.56
521.357	36336.6
521.559	36547.54
521.761	37020.62
521.963	36824.01
522.164	37071.82
522.366	37221.32
522.568	37399.49
522.77	37665.73
522.971	38400.95
523.173	38249.4
523.375	38661.04
523.576	38945.71
523.778	39009.2
523.98	39369.64
524.181	39320.49
524.383	39672.74
524.584	39779.23
524.786	40096.67
524.988	39865.25
525.189	40377.24
525.391	40721.3
525.592	40774.55
525.794	40909.71
525.995	41337.74
526.197	41122.7
526.398	41384.84
526.6	41855.87
526.801	42034.05
527.003	42122.11
527.204	41778.05
527.406	42679.16
527.607	42425.21
527.808	42777.46
528.01	42285.95
528.211	42548.09
528.412	43426.67
528.614	43055.98
528.815	43197.29
529.016	43916.13
529.218	43318.12
529.419	43524.97
529.62	43699.05
529.822	43629.41
530.023	43604.84
530.224	43821.92
530.425	43649.89
530.626	43606.89
530.828	43670.37
531.029	45013.84
531.23	43731.81
531.431	43967.33
531.632	44348.25
531.833	44718.93
532.035	44639.06
532.236	44522.33
532.437	44997.46
532.638	44340.06
532.839	44448.6
533.04	45218.64
533.241	44610.39
533.442	45652.81
533.643	44655.45
533.844	44800.85
534.045	44985.17
534.246	44559.19
534.447	45034.32
534.648	44899.15
534.849	45374.28
535.05	44714.84
535.251	44964.69
535.451	44907.35
535.652	45011.79
535.853	45022.03
536.054	45177.68
536.255	45448.01
536.456	44921.68
536.657	45409.1
536.857	45009.75
537.058	45173.58
537.259	45685.57
537.46	45454.15
537.66	45302.6
537.861	44901.2
538.062	45269.84
538.263	45232.97
538.463	44903.25
538.664	44944.21
538.865	45259.6
539.065	45744.97
539.266	44972.88
539.466	45335.37
539.667	44819.28
539.868	45380.43
540.068	45202.25
540.269	45316.94
540.469	45615.94
540.67	44909.39
540.87	45294.41
541.071	45218.64
541.271	45169.49
541.472	45189.97
541.672	44901.2
541.873	44686.17
542.073	44616.54
542.274	45611.85
542.474	45265.74
542.675	44686.17
542.875	45726.53
543.075	45384.52
543.276	44739.41
543.476	45339.47
543.676	44755.8
543.877	45302.6
544.077	45271.89
544.277	44786.52
544.478	45187.92
544.678	45151.06
544.878	45128.53
545.078	45357.9
545.279	44854.1
545.479	44622.68
545.679	45169.49
545.879	44991.31
546.079	44858.2
546.28	44841.81
546.48	44604.25
546.68	45263.69
546.88	44929.87
547.08	44968.79
547.28	44712.79
547.48	44444.51
547.68	44610.39
547.88	44430.17
548.081	44938.07
548.281	44788.56
548.481	44489.56
548.681	45085.52
548.881	44698.45
549.081	44645.21
549.28	44692.31
549.48	45218.64
549.68	44864.34
549.88	45218.64
550.08	44319.58
550.28	44923.73
550.48	44473.18
550.68	44931.92
550.88	44309.34
551.08	44741.46
551.279	44610.39
551.479	44256.09
551.679	44579.67
551.879	44768.08
552.079	44620.63
552.278	44718.93
552.478	44768.08
552.678	44354.4
552.878	44776.28
553.077	44440.41
553.277	44186.46
553.477	44921.68
553.676	44792.66
553.876	44333.92
554.076	44073.82
554.275	43721.57
554.475	43801.44
554.674	44325.72
554.874	44034.91
555.074	43907.94
555.273	44397.4
555.473	44133.21
555.672	43785.06
555.872	44161.89
556.071	43991.9
556.271	44211.04
556.47	43768.68
556.67	43506.54
556.869	43199.34
557.068	44088.16
557.268	43465.58
557.467	43948.9
557.667	43746.15
557.866	43561.83
558.065	43266.92
558.265	43613.03
558.464	42804.08
558.663	44004.19
558.863	43000.69
559.062	43983.71
559.261	42847.09
559.461	43885.41
559.66	42720.12
559.859	43117.42
560.058	43027.31
560.258	42777.46
560.457	42664.82
560.656	43019.12
560.855	42417.02
561.054	42857.33
561.253	42320.76
561.453	42500.98
561.652	42707.83
561.851	42888.05
562.05	42154.88
562.249	42349.43
562.448	42515.32
562.647	42388.35
562.846	42197.88
563.045	41978.75
563.244	41943.94
563.443	42154.88
563.642	41227.15
563.841	41843.59
564.04	41552.77
564.239	42011.52
564.438	41155.47
564.637	41210.76
564.836	41495.43
565.035	40778.64
565.234	41085.84
565.432	40995.73
565.631	40774.55
565.83	41173.9
566.029	40725.39
566.228	40592.28
566.427	40442.77
566.625	40190.87
566.824	39740.32
567.023	40371.1
567.222	39699.36
567.42	40418.2
567.619	40043.42
567.818	40061.85
568.016	40033.18
568.215	40172.44
568.414	39621.54
568.612	39889.82
568.811	39633.83
569.01	39625.64
569.208	39013.29
569.407	39371.69
569.605	39029.68
569.804	39461.8
570.002	38861.74
570.201	39099.31
570.4	38706.1
570.598	38785.97
570.797	38665.14
570.995	38980.53
571.193	38054.84
571.392	38460.34
571.59	38169.53
571.789	38296.5
571.987	38114.23
572.186	38079.42
572.384	37796.8
572.582	38163.39
572.781	37739.46
572.979	37022.67
573.177	37587.91
573.376	37512.13
573.574	37331.91
573.772	37227.46
573.971	36987.85
574.169	37202.89
574.367	36950.99
574.565	36817.87
574.763	36502.48
574.962	36664.27
575.16	36623.31
575.358	36701.14
575.556	36047.83
575.754	36400.08
575.952	35726.3
576.151	36656.08
576.349	36256.73
576.547	36205.53
576.745	35855.32
576.943	36178.9
577.141	35730.4
577.339	35611.62
577.537	35728.35
577.735	35804.13
577.933	35335.14
578.131	35904.48
578.329	35148.78
578.527	35230.69
578.725	35040.23
578.923	35283.94
579.121	34974.7
579.319	34765.81
579.516	34401.27
579.714	34716.65
579.912	34704.37
580.11	34241.53
580.308	34638.83
580.506	34636.78
580.704	33766.4
580.901	34321.4
581.099	34591.73
581.297	34028.54
581.495	34245.62
581.692	33637.37
581.89	33416.19
582.088	33848.32
582.285	33680.38
582.483	33491.97
582.681	33518.59
582.878	33219.59
583.076	33190.92
583.274	33487.87
583.471	32760.84
583.669	32816.14
583.866	33156.1
584.064	32889.87
584.262	32597.01
584.459	32766.99
584.657	32050.2
584.854	32746.51
585.052	32214.04
585.249	32742.41
585.447	32318.48
585.644	31685.66
585.841	31634.46
586.039	32404.5
586.236	31798.3
586.434	31368.23
586.631	31712.28
586.828	31509.54
587.026	31689.76
587.223	31755.29
587.42	31282.21
587.618	31548.45
587.815	31044.65
588.012	30936.1
588.21	31149.09
588.407	31317.03
588.604	30835.75
588.801	30587.95
588.999	30555.18
589.196	30491.69
589.393	30944.3
589.59	30733.36
589.787	30145.59
589.984	30299.19
590.182	29815.87
590.379	30317.62
590.576	29731.9
590.773	30022.71
590.97	29824.06
591.167	29893.69
591.364	29381.7
591.561	29510.72
591.758	29682.75
591.955	29398.08
592.152	29637.69
592.349	29342.78
592.546	29344.83
592.743	29316.16
592.94	28746.83
593.137	28951.62
593.334	28634.19
593.531	28632.14
593.727	29027.4
593.924	28953.67
594.121	28326.99
594.318	28572.75
594.515	28390.48
594.712	28699.72
594.908	28310.61
595.105	28400.72
595.302	28165.2
595.499	27958.36
595.696	27778.14
595.892	27972.69
596.089	28034.13
596.286	28032.08
596.482	27509.85
596.679	27849.82
596.876	27798.62
597.072	27407.45
597.269	27450.46
597.466	27188.32
597.662	27200.61
597.859	26967.14
598.055	27143.27
598.252	27059.3
598.448	27008.1
598.645	26762.34
598.841	26584.17
599.038	26745.96
599.234	26741.86
599.431	26535.02
599.627	26229.87
599.824	26379.37
600.02	25928.82
600.217	26309.74
600.413	26104.95
600.609	26117.23
600.806	25578.62
601.002	25683.06
601.198	25787.51
601.395	25619.58
601.591	25394.3
601.787	25693.3
601.984	25289.85
602.18	25513.08
602.376	25074.82
602.572	25285.76
602.769	25302.14
602.965	25132.16
603.161	24978.56
603.357	24976.51
603.553	24835.21
603.75	25011.33
603.946	24714.37
604.142	24867.97
604.338	24353.93
604.534	24745.09
604.73	24321.16
604.926	24644.74
605.122	24253.58
605.318	24155.28
605.514	24355.98
605.71	24333.45
605.906	23852.18
606.102	24458.38
606.298	24073.36
606.494	23981.2
606.69	23655.58
606.886	23774.36
607.082	23393.44
607.278	23536.79
607.474	23202.97
607.67	23747.73
607.866	23321.76
608.062	23444.63
608.257	23338.14
608.453	23264.41
608.649	23358.62
608.845	22660.26
609.041	23104.67
609.236	23297.18
609.432	23121.06
609.628	22860.96
609.824	22662.31
610.019	22760.61
610.215	23008.42
610.411	22703.27
610.606	22619.3
610.802	22742.18
610.998	22824.1
611.193	22549.67
611.389	22529.19
611.584	22578.34
611.78	22088.88
611.976	22451.37
612.171	22273.2
612.367	22211.76
612.562	22236.33
612.758	22205.61
612.953	22131.89
613.149	22248.62
613.344	21951.67
613.539	22258.86
613.735	22031.54
613.93	22000.82
614.126	21755.06
614.321	21892.27
614.517	21570.74
614.712	21689.53
614.907	21699.76
615.103	21890.23
615.298	21558.46
615.493	21871.79
615.688	21537.98
615.884	21777.59
616.079	21185.72
616.274	21437.62
616.47	20995.26
616.665	21497.02
616.86	21288.12
617.055	21155.01
617.25	21116.09
617.445	21255.36
617.641	20843.71
617.836	20964.54
618.031	20923.58
618.226	20790.47
618.421	20573.38
618.616	21298.36
618.811	20350.15
619.006	20583.62
619.201	20227.28
619.396	20346.06
619.591	20296.91
619.786	20341.96
619.981	20210.89
620.176	20557
620.371	19750.1
620.566	19920.08
620.761	19893.46
620.956	19715.28
621.151	19473.62
621.346	19524.82
621.541	19234.01
621.735	19604.69
621.93	19135.71
622.125	19389.66
622.32	18969.82
622.515	18953.44
622.709	18920.67
622.904	18945.25
623.099	18789.6
623.294	18975.97
623.488	18361.58
623.683	18412.78
623.878	18257.13
624.072	18437.35
624.267	18296.04
624.462	18048.24
624.656	17919.21
624.851	17777.9
625.046	17775.86
625.24	17593.59
625.435	17421.56
625.629	17738.99
625.824	17321.21
626.018	17204.47
626.213	16977.15
626.407	17132.79
626.602	16954.62
626.796	17097.98
626.991	17073.4
627.185	16780.54
627.38	16588.03
627.574	16624.9
627.768	16436.49
627.963	16463.11
628.157	16125.19
628.352	16475.4
628.546	16022.8
628.74	16243.98
628.935	16106.76
629.129	15936.78
629.323	15729.94
629.517	15772.94
629.712	15574.29
629.906	15512.85
630.1	15371.54
630.294	15389.97
630.489	15303.96
630.683	15369.49
630.877	15099.16
631.071	14898.46
631.265	15029.53
631.459	14816.54
631.653	14685.47
631.848	14689.57
632.042	14587.17
632.236	14519.59
632.43	14681.38
632.624	14464.29
632.818	14452
633.012	14331.17
633.206	14288.17
633.4	14316.84
633.594	14001.45
633.788	14177.58
633.982	14071.08
634.176	14138.66
634.369	13890.86
634.563	13638.96
634.757	13636.91
634.951	13749.55
635.145	13563.19
635.339	13665.58
635.533	13352.24
635.726	13520.18
635.92	13227.32
636.114	13198.65
636.308	13118.78
636.501	13155.64
636.695	13008.19
636.889	12881.21
637.083	12836.16
637.276	12873.02
637.47	12623.17
637.664	12504.39
637.857	12342.6
638.051	12422.47
638.244	12330.31
638.438	12219.72
638.632	12318.02
638.825	12223.81
639.019	12162.37
639.212	11935.05
639.406	12035.4
639.599	11842.89
639.793	12053.83
639.986	11791.69
640.18	11445.59
640.373	11552.08
640.567	11566.42
640.76	11771.21
640.954	11578.7
641.147	11494.74
641.34	11298.13
641.534	11369.81
641.727	11234.64
641.92	11128.15
642.114	11066.71
642.307	11044.18
642.5	11111.77
642.694	10775.9
642.887	10952.02
643.08	10798.43
643.273	10888.54
643.467	10796.38
643.66	10335.59
643.853	10458.46
644.046	10405.22
644.239	10421.6
644.432	10257.76
644.626	10274.15
644.819	10134.89
645.012	10225
645.205	10210.66
645.398	10044.77
645.591	9839.98
645.784	9958.76
645.977	9794.92
646.17	9915.75
646.363	9897.32
646.556	9635.18
646.749	9631.09
646.942	9729.39
647.135	9723.24
647.328	9512.3
647.521	9489.78
647.714	9143.67
647.907	9448.82
648.099	9303.41
648.292	9319.79
648.485	9401.71
648.678	9127.28
648.871	9153.91
649.064	8902.01
649.256	9137.52
649.449	8971.64
649.642	9082.23
649.835	8924.54
650.027	9037.17
650.22	8844.67
650.413	8859
650.605	8646.01
650.798	8654.2
650.991	8441.22
651.183	8756.6
651.376	8455.55
651.568	8576.38
651.761	8467.84
651.954	8320.39
652.146	8170.88
652.339	8115.59
652.531	8211.84
652.724	8129.92
652.916	8091.01
653.109	7951.75
653.301	8002.95
653.494	8068.48
653.686	8062.34
653.879	8045.96
654.071	7779.72
654.263	7878.02
654.456	7851.4
654.648	7818.63
654.84	7597.45
655.033	7716.23
655.225	7583.12
655.417	7486.86
655.61	7808.39
655.802	7441.81
655.994	7400.85
656.186	7452.05
656.379	7450
656.571	7394.7
656.763	7124.37
656.955	7185.81
657.148	7329.17
657.34	7212.43
657.532	7105.94
657.724	7177.62
657.916	7095.7
658.108	7214.48
658.3	6845.85
658.492	7050.64
658.684	6813.08
658.876	6886.81
659.068	6763.93
659.26	6657.43
659.452	6747.55
659.644	6741.4
659.836	6690.2
660.028	6747.55
660.22	6569.37
660.412	6503.84
660.604	6518.17
660.796	6671.77
660.988	6426.01
661.18	6489.5
661.372	6321.57
661.563	6284.7
661.755	6253.98
661.947	6337.95
662.139	6223.27
662.331	6292.9
662.522	6141.35
662.714	6350.24
662.906	6059.43
663.097	6118.82
663.289	6112.67
663.481	5911.97
663.673	6063.52
663.864	5903.78
664.056	5911.97
664.247	6041
664.439	5819.82
664.631	5952.93
664.822	5844.39
665.014	5772.71
665.205	5809.58
665.397	5754.28
665.588	5600.68
665.78	5651.88
665.971	5602.73
666.163	5715.37
666.354	5471.66
666.546	5479.85
666.737	5596.59
666.929	5561.77
667.12	5422.51
667.311	5637.55
667.503	5326.25
667.694	5399.98
667.885	5279.15
668.077	5295.54
668.268	5320.11
668.459	5146.03
668.651	5148.08
668.842	5244.34
669.033	5143.99
669.224	5045.68
669.416	5111.22
669.607	5137.84
669.798	5172.66
669.989	5076.4
670.18	5023.16
670.371	4974
670.563	4928.95
670.754	4953.52
670.945	4822.45
671.136	4918.71
671.327	4890.04
671.518	4783.54
671.709	4857.27
671.9	4791.73
672.091	4804.02
672.282	4795.83
672.473	4779.45
672.664	4672.95
672.855	4558.27
673.046	4793.78
673.237	4695.48
673.428	4634.04
673.619	4629.95
673.809	4523.45
674	4683.19
674.191	4611.51
674.382	4507.07
674.573	4410.81
674.764	4576.7
674.954	4470.2
675.145	4406.72
675.336	4484.54
675.527	4416.96
675.717	4502.97
675.908	4425.15
676.099	4357.57
676.289	4419
676.48	4382.14
676.671	4183.49
676.861	4226.5
677.052	4314.56
677.243	4214.21
677.433	4175.3
677.624	4277.69
677.814	4052.42
678.005	4179.39
678.195	4148.67
678.386	4156.86
678.576	4187.58
678.767	4140.48
678.957	4099.52
679.148	4093.38
679.338	4115.91
679.529	4109.76
679.719	4054.47
679.909	4216.26
680.1	4105.67
680.29	4011.46
680.481	4066.75
680.671	3982.79
680.861	4214.21
681.052	3995.08
681.242	3984.84
681.432	3939.78
681.622	3962.31
681.813	3976.64
682.003	3792.33
682.193	3978.69
682.383	4015.55
682.573	3896.77
682.764	3724.74
682.954	3909.06
683.144	3876.29
683.334	3913.16
683.524	3730.89
683.714	3804.61
683.904	3585.48
684.094	3818.95
684.284	3737.03
684.474	3911.11
684.664	3782.09
684.854	3677.64
685.044	3788.23
685.234	3597.77
685.424	3569.1
685.614	3552.71
685.804	3757.51
685.994	3642.82
686.184	3702.22
686.374	3716.55
686.564	3659.21
686.753	3642.82
686.943	3534.28
687.133	3464.65
687.323	3591.63
687.513	3483.08
687.702	3464.65
687.892	3450.32
688.082	3407.31
688.272	3556.81
688.461	3384.78
688.651	3485.13
688.841	3450.32
689.03	3429.84
689.22	3362.25
689.41	3315.15
689.599	3362.25
689.789	3294.67
689.979	3266
690.168	3309.01
690.358	3329.49
690.547	3284.43
690.737	3442.12
690.926	3298.77
691.116	3241.42
691.305	3245.52
691.495	3184.08
691.684	3167.7
691.874	3093.97
692.063	3272.14
692.252	3124.69
692.442	3208.66
692.631	3122.64
692.82	3128.78
693.01	3214.8
693.199	3126.74
693.388	2942.42
693.578	3124.69
693.767	3159.5
693.956	3179.98
694.146	3216.85
694.335	3050.96
694.524	3081.68
694.713	3139.02
694.902	2917.84
695.092	3141.07
695.281	3024.34
695.47	3007.95
695.659	2979.28
695.848	2985.43
696.037	3032.53
696.226	3038.67
696.415	3001.81
696.604	3057.11
696.793	2997.71
696.982	3050.96
697.171	2971.09
697.36	3091.92
697.549	3016.15
697.738	3040.72
697.927	2991.57
698.116	2979.28
698.305	2846.16
698.494	3012.05
698.683	2936.28
698.872	2991.57
699.061	2975.19
699.25	3063.25
699.438	3042.77
699.627	2981.33
699.816	3007.95
700.005	2973.14
700.193	2889.17
700.382	2997.71
700.571	2915.8
700.76	2903.51
700.948	2858.45
701.137	2917.84
701.326	2854.36
701.514	2903.51
701.703	2909.65
701.892	3061.2
702.08	3055.06
702.269	2993.62
702.457	3010
702.646	2901.46
702.834	2885.08
703.023	2887.12
703.212	2977.23
703.4	2979.28
703.589	2956.75
703.777	2960.85
703.965	2747.86
704.154	2895.32
704.342	2756.05
704.531	2794.97
704.719	2842.07
704.907	2862.55
705.096	2901.46
705.284	2901.46
705.472	2985.43
705.661	2911.7
705.849	2983.38
706.037	2946.52
706.226	2856.4
706.414	3007.95
706.602	2897.36
706.79	2848.21
706.979	2950.61
707.167	3022.29
707.355	2862.55
707.543	2880.98
707.731	3007.95
707.919	2854.36
708.107	2928.08
708.296	2760.15
708.484	2919.89
708.672	2958.8
708.86	2889.17
709.048	2889.17
709.236	2880.98
709.424	2815.45
709.612	2923.99
709.8	2840.02
709.988	2960.85
710.176	2829.78
710.364	2840.02
710.551	2866.64
710.739	2917.84
710.927	2790.87
711.115	2893.27
711.303	3010
711.491	2856.4
711.679	2827.73
711.866	2956.75
712.054	2852.31
712.242	2756.05
712.43	2842.07
712.617	2852.31
712.805	2854.36
712.993	2797.01
713.181	2815.45
713.368	2864.6
713.556	2805.21
713.744	2754.01
713.931	2987.47
714.119	2756.05
714.306	2872.79
714.494	2780.63
714.682	2856.4
714.869	2887.12
715.057	2903.51
715.244	2874.84
715.432	2915.8
715.619	2708.95
715.807	2885.08
715.994	2913.75
716.182	2774.49
716.369	2860.5
716.556	2786.77
716.744	2676.18
716.931	2692.57
717.119	2754.01
717.306	2684.38
717.493	2915.8
717.681	2813.4
717.868	2848.21
718.055	2846.16
718.242	2747.86
718.43	2801.11
718.617	2823.64
718.804	2772.44
718.991	2782.68
719.179	2786.77
719.366	2905.56
719.553	2688.47
719.74	2745.81
719.927	2676.18
720.114	2825.68
720.301	2715.09
720.488	2805.21
720.676	2698.71
720.863	2672.09
721.05	2807.25
721.237	2622.94
721.424	2762.2
721.611	2764.25
721.798	2674.14
721.985	2692.57
722.172	2758.1
722.358	2672.09
722.545	2772.44
722.732	2604.5
722.919	2780.63
723.106	2778.58
723.293	2694.61
723.48	2745.81
723.667	2756.05
723.853	2586.07
724.04	2749.91
724.227	2735.57
724.414	2643.42
724.6	2743.77
724.787	2702.81
724.974	2549.21
725.161	2678.23
725.347	2743.77
725.534	2639.32
725.72	2604.5
725.907	2686.42
726.094	2618.84
726.28	2635.22
726.467	2702.81
726.653	2618.84
726.84	2641.37
727.027	2659.8
727.213	2696.66
727.4	2596.31
727.586	2581.98
727.773	2498.01
727.959	2541.02
728.145	2635.22
728.332	2534.87
728.518	2608.6
728.705	2579.93
728.891	2604.5
729.077	2536.92
729.264	2522.59
729.45	2614.74
729.636	2592.22
729.823	2461.15
730.009	2575.83
730.195	2543.07
730.382	2536.92
730.568	2457.05
730.754	2594.26
730.94	2577.88
731.126	2459.1
731.313	2440.67
731.499	2518.49
731.685	2545.11
731.871	2532.83
732.057	2432.47
732.243	2506.2
732.429	2430.43
732.615	2485.72
732.801	2463.19
732.987	2344.41
733.173	2432.47
733.359	2340.32
733.545	2450.91
733.731	2440.67
733.917	2489.82
734.103	2481.63
734.289	2549.21
734.475	2356.7
734.661	2387.42
734.847	2397.66
735.033	2504.15
735.219	2430.43
735.404	2432.47
735.59	2285.02
735.776	2436.57
735.962	2332.12
736.148	2303.45
736.333	2360.8
736.519	2297.31
736.705	2459.1
736.89	2332.12
737.076	2289.12
737.262	2387.42
737.447	2338.27
737.633	2323.93
737.819	2274.78
738.004	2268.64
738.19	2168.29
738.375	2233.82
738.561	2250.21
738.747	2276.83
738.932	2231.77
739.118	2295.26
739.303	2342.36
739.489	2227.68
739.674	2227.68
739.859	2133.47
740.045	2250.21
740.23	2219.49
740.416	2176.48
740.601	2057.7
740.786	2180.57
740.972	2082.27
741.157	2129.38
741.342	2090.46
741.528	2035.17
741.713	2160.1
741.898	2090.46
742.084	2045.41
742.269	2086.37
742.454	2164.19
742.639	2129.38
742.824	2069.98
743.01	2133.47
743.195	2067.94
743.38	2061.79
743.565	1967.59
743.75	1943.01
743.935	1955.3
744.12	2082.27
744.305	1994.21
744.49	2035.17
744.675	1936.87
744.86	1990.11
745.045	1828.32
745.23	1990.11
745.415	1822.18
745.6	1850.85
745.785	1910.24
745.97	1906.15
746.155	1781.22
746.34	1838.56
746.525	1920.48
746.71	1816.04
746.895	1897.96
747.079	1828.32
747.264	1938.91
747.449	1889.76
747.634	1783.27
747.819	1854.95
748.003	1758.69
748.188	1758.69
748.373	1750.5
748.557	1742.31
748.742	1707.49
748.927	1742.31
749.111	1820.13
749.296	1656.29
749.481	1676.77
749.665	1764.84
749.85	1746.41
750.034	1650.15
750.219	1613.29
750.404	1603.05
750.588	1594.86
750.773	1590.76
750.957	1623.53
751.141	1637.86
751.326	1564.14
751.51	1560.04
751.695	1625.58
751.879	1537.51
752.064	1594.86
752.248	1541.61
752.432	1551.85
752.617	1486.31
752.801	1543.66
752.985	1486.31
753.17	1414.63
753.354	1455.59
753.538	1445.35
753.722	1373.68
753.907	1359.34
754.091	1431.02
754.275	1406.44
754.459	1377.77
754.643	1402.35
754.828	1256.94
755.012	1383.91
755.196	1420.78
755.38	1347.05
755.564	1279.47
755.748	1273.32
755.932	1379.82
756.116	1248.75
756.3	1345
756.484	1271.28
756.668	1371.63
756.852	1160.69
757.036	1291.76
757.22	1328.62
757.404	1318.38
757.588	1154.54
757.772	1289.71
757.956	1287.66
758.14	1320.43
758.323	1261.04
758.507	1258.99
758.691	1152.49
758.875	1172.97
759.059	1160.69
759.242	1101.3
759.426	1242.61
759.61	1193.45
759.794	1175.02
759.977	1158.64
760.161	1193.45
760.345	1199.6
760.528	1127.92
760.712	1218.03
760.895	1150.45
761.079	1109.49
761.263	1111.54
761.446	1017.33
761.63	1050.1
761.813	1111.54
761.997	1168.88
762.18	994.8
762.364	1117.68
762.547	1052.14
762.731	1093.1
762.914	1080.82
763.098	1091.06
763.281	1033.71
763.464	1021.42
763.648	1013.23
763.831	1007.09
764.015	1039.86
764.198	1043.95
764.381	992.75
764.564	1002.99
764.748	939.51
764.931	1066.48
765.114	984.56
765.297	1035.76
765.481	968.18
765.664	1002.99
765.847	974.32
766.03	869.87
766.213	984.56
766.397	994.8
766.58	974.32
766.763	988.66
766.946	941.55
767.129	1035.76
767.312	906.74
767.495	982.51
767.678	923.12
767.861	951.79
768.044	945.65
768.227	910.83
768.41	912.88
768.593	900.59
768.776	968.18
768.959	968.18
769.142	921.07
769.324	976.37
769.507	912.88
769.69	826.87
769.873	826.87
770.056	884.21
770.239	968.18
770.421	912.88
770.604	835.06
770.787	857.59
770.97	910.83
771.152	927.22
771.335	816.63
771.518	812.53
771.7	986.61
771.883	929.27
772.066	884.21
772.248	863.73
772.431	855.54
772.613	781.81
772.796	873.97
772.978	820.72
773.161	863.73
773.343	849.4
773.526	837.11
773.708	753.14
773.891	699.89
774.073	761.33
774.256	802.29
774.438	824.82
774.621	708.09
774.803	822.77
774.985	792.05
775.168	792.05
775.35	800.24
775.532	773.62
775.715	753.14
775.897	822.77
776.079	771.57
776.261	824.82
776.444	757.24
776.626	665.08
776.808	785.91
776.99	734.71
777.173	685.56
777.355	708.09
777.537	759.28
777.719	732.66
777.901	650.74
778.083	665.08
778.265	683.51
778.447	679.41
778.629	695.8
778.811	671.22
778.993	538.1
779.175	593.4
779.357	628.21
779.539	693.75
779.721	599.54
779.903	624.12
780.085	628.21
780.267	560.63
780.449	673.27
780.631	648.69
780.812	593.4
780.994	585.21
781.176	560.63
781.358	589.3
781.54	529.91
781.721	534.01
781.903	591.35
782.085	497.14
782.267	583.16
782.448	570.87
782.63	460.28
782.812	607.73
782.993	587.26
783.175	591.35
783.357	511.48
783.538	497.14
783.72	497.14
783.901	497.14
784.083	531.96
784.264	622.07
784.446	488.95
784.627	452.09
784.809	552.44
784.99	447.99
785.172	536.06
785.353	503.29
785.535	523.77
785.716	540.15
785.897	396.79
786.079	566.78
786.26	480.76
786.441	445.95
786.623	447.99
786.804	392.7
786.985	441.85
787.167	450.04
787.348	443.9
787.529	411.13
787.71	435.71
787.891	407.03
788.073	382.46
788.254	396.79
788.435	456.19
788.616	425.47
788.797	423.42
788.978	441.85
789.159	497.14
789.34	337.4
789.522	429.56
789.703	327.16
789.884	357.88
790.065	349.69
790.246	398.84
790.427	421.37
790.607	427.51
790.788	447.99
790.969	386.55
791.15	423.42
791.331	298.49
791.512	386.55
791.693	366.07
791.874	337.4
792.054	404.99
792.235	374.27
792.416	329.21
792.597	316.92
792.778	374.27
792.958	382.46
793.139	333.31
793.32	355.83
793.5	345.59
793.681	447.99
793.862	325.12
794.042	327.16
794.223	349.69
794.404	407.03
794.584	267.77
794.765	310.78
794.945	329.21
795.126	384.51
795.306	267.77
795.487	282.11
795.667	321.02
795.848	357.88
796.028	306.68
796.209	310.78
796.389	249.34
796.57	335.35
796.75	325.12
796.93	316.92
797.111	210.43
797.291	339.45
797.471	378.36
797.652	312.83
797.832	255.48
798.012	290.3
798.192	298.49
798.373	288.25
798.553	232.96
798.733	280.06
798.913	208.38
799.093	255.48
799.274	349.69
799.454	470.52
799.634	241.15
799.814	273.92
799.994	247.29
800.174	304.64
800.354	230.91
800.534	273.92
800.714	273.92
800.894	200.19
801.074	241.15
801.254	278.01
801.434	261.63
801.614	300.54
801.794	282.11
801.974	808.44
802.154	304.64
802.334	239.1
802.514	194.05
802.693	243.2
802.873	241.15
803.053	280.06
803.233	153.09
803.413	167.42
803.592	269.82
803.772	257.53
803.952	200.19
804.131	249.34
804.311	181.76
804.491	286.2
804.67	189.95
804.85	192
805.03	282.11
805.209	230.91
805.389	200.19
805.568	255.48
805.748	183.81
805.928	241.15
806.107	239.1
806.287	179.71
806.466	196.09
806.646	245.24
806.825	169.47
807.004	247.29
807.184	226.81
807.363	278.01
807.543	247.29
807.722	161.28
807.901	257.53
808.081	237.05
808.26	181.76
808.439	171.52
808.619	167.42
808.798	175.61
808.977	255.48
809.156	177.66
809.336	173.57
809.515	198.14
809.694	214.52
809.873	173.57
810.052	218.62
810.231	222.72
810.411	153.09
810.59	214.52
810.769	165.37
810.948	263.68
811.127	91.65
811.306	177.66
811.485	183.81
811.664	282.11
811.843	151.04
812.022	138.75
812.201	151.04
812.38	161.28
812.559	173.57
812.737	243.2
812.916	206.33
813.095	220.67
813.274	120.32
813.453	134.65
813.632	130.56
813.811	161.28
813.989	200.19
814.168	142.85
814.347	157.18
814.526	134.65
814.704	249.34
814.883	179.71
815.062	144.89
815.24	136.7
815.419	167.42
815.598	183.81
815.776	187.9
815.955	179.71
816.133	38.4
816.312	116.22
816.49	93.69
816.669	83.45
816.847	183.81
817.026	138.75
817.204	212.48
817.383	171.52
817.561	142.85
817.74	187.9
817.918	157.18
818.097	204.28
818.275	255.48
818.453	138.75
818.632	212.48
818.81	138.75
818.988	101.89
819.167	89.6
819.345	228.86
819.523	140.8
819.701	146.94
819.879	226.81
820.058	101.89
820.236	210.43
820.414	173.57
820.592	148.99
820.77	101.89
820.948	124.41
821.127	177.66
821.305	159.23
821.483	118.27
821.661	134.65
821.839	151.04
822.017	95.74
822.195	112.13
822.373	161.28
822.551	167.42
822.729	79.36
822.907	155.13
823.085	112.13
823.262	138.75
823.44	175.61
823.618	132.61
823.796	177.66
823.974	120.32
824.152	58.88
824.329	56.83
824.507	124.41
824.685	126.46
824.863	60.93
825.04	30.21
825.218	148.99
825.396	105.98
825.574	132.61
825.751	140.8
825.929	161.28
826.107	30.21
826.284	89.6
826.462	89.6
826.639	173.57
826.817	52.74
826.994	124.41
827.172	101.89
827.349	228.86
827.527	110.08
827.704	138.75
827.882	87.55
828.059	171.52
828.237	108.03
828.414	26.11
828.591	32.26
828.769	132.61
828.946	56.83
829.124	118.27
829.301	144.89
829.478	44.54
829.655	151.04
829.833	128.51
830.01	62.98
830.187	93.69
830.364	91.65
830.542	83.45
830.719	128.51
830.896	75.26
831.073	81.41
831.25	175.61
831.427	97.79
831.604	85.5
831.782	97.79
831.959	91.65
832.136	75.26
832.313	157.18
832.49	44.54
832.667	30.21
832.844	19.97
833.021	77.31
833.198	83.45
833.374	79.36
833.551	87.55
833.728	62.98
833.905	79.36
834.082	58.88
834.259	69.12
834.436	157.18
834.612	75.26
834.789	85.5
834.966	97.79
835.143	83.45
835.319	93.69
835.496	65.02
835.673	38.4
835.85	108.03
836.026	1.54
836.203	38.4
836.38	81.41
836.556	124.41
836.733	52.74
836.909	163.33
837.086	69.12
837.262	54.78
837.439	116.22
837.616	-4.61
837.792	79.36
837.968	85.5
838.145	62.98
838.321	58.88
838.498	101.89
838.674	62.98
838.851	71.17
839.027	32.26
839.203	60.93
839.38	73.21
839.556	52.74
839.732	22.02
839.909	103.93
840.085	95.74
840.261	34.3
840.437	46.59
840.614	9.73
840.79	58.88
840.966	-18.94
841.142	34.3
841.318	83.45
841.494	50.69
841.671	44.54
841.847	54.78
842.023	17.92
842.199	58.88
842.375	110.08
842.551	15.87
842.727	103.93
842.903	128.51
843.079	44.54
843.255	105.98
843.431	122.37
843.607	54.78
843.783	11.78
843.959	36.35
844.134	97.79
844.31	42.5
844.486	79.36
844.662	9.73
844.838	65.02
845.013	56.83
845.189	97.79
845.365	67.07
845.541	75.26
845.716	71.17
845.892	28.16
846.068	60.93
846.244	54.78
846.419	46.59
846.595	54.78
846.77	5.63
846.946	19.97
847.122	26.11
847.297	50.69
847.473	65.02
847.648	79.36
847.824	40.45
847.999	62.98
848.175	44.54
848.35	13.82
848.526	13.82
848.701	112.13
848.876	67.07
849.052	58.88
849.227	30.21
849.403	5.63
849.578	-18.94
849.753	36.35
849.929	26.11
850.104	30.21
850.279	54.78
850.454	71.17
850.63	60.93
850.805	1.54
850.98	13.82
851.155	-10.75
851.33	110.08
851.505	93.69
851.681	110.08
851.856	118.27
852.031	67.07
852.206	56.83
852.381	-29.18
852.556	3.58
852.731	40.45
852.906	62.98
853.081	46.59
853.256	69.12
853.431	81.41
853.606	5.63
853.781	9.73
853.956	85.5
854.131	46.59
854.305	89.6
854.48	95.74
854.655	3.58
854.83	-35.33
855.005	26.11
855.18	24.06
855.354	46.59
855.529	75.26
855.704	34.3
855.879	58.88
856.053	22.02
856.228	89.6
856.403	11.78
856.577	75.26
856.752	99.84
856.926	28.16
857.101	15.87
857.276	67.07
857.45	52.74
857.625	54.78
857.799	38.4
857.974	103.93
858.148	99.84
858.323	-27.14
858.497	71.17
858.672	17.92
858.846	-2.56
859.02	95.74
859.195	-6.66
859.369	-20.99
859.543	9.73
859.718	58.88
859.892	32.26
860.066	30.21
860.241	17.92
860.415	-6.66
860.589	-10.75
860.763	40.45
860.938	58.88
861.112	50.69
861.286	1.54
861.46	95.74
861.634	32.26
861.808	34.3
861.982	-33.28
862.157	26.11
862.331	11.78
862.505	-49.66
862.679	17.92
862.853	-16.9
863.027	-43.52
863.201	87.55
863.375	58.88
863.549	58.88
863.722	22.02
863.896	99.84
864.07	3.58
864.244	-23.04
864.418	-27.14
864.592	3.58
864.766	69.12
864.939	28.16
865.113	-35.33
865.287	34.3
865.461	11.78
865.634	83.45
865.808	-31.23
865.982	-2.56
866.156	93.69
866.329	36.35
866.503	34.3
866.676	67.07
866.85	85.5
867.024	-18.94
867.197	54.78
867.371	65.02
867.544	77.31
867.718	1.54
867.891	101.89
868.065	54.78
868.238	44.54
868.412	7.68
868.585	42.5
868.759	-33.28
868.932	-18.94
869.105	-53.76
869.279	-27.14
869.452	52.74
869.625	48.64
869.799	13.82
869.972	-0.51
870.145	77.31
870.319	-2.56
870.492	60.93
870.665	17.92
870.838	11.78
871.011	-84.48
871.185	-6.66
871.358	28.16
871.531	11.78
871.704	-10.75
871.877	54.78
872.05	-25.09
872.223	3.58
872.396	44.54
872.569	13.82
872.742	71.17
872.915	7.68
873.088	65.02
873.261	-43.52
873.434	7.68
873.607	15.87
873.78	1.54
873.953	28.16
874.126	62.98
874.299	46.59
874.471	1.54
874.644	-20.99
874.817	19.97
874.99	87.55
875.163	-45.57
875.335	161.28
875.508	22.02
875.681	-20.99
875.853	-27.14
876.026	1.54
876.199	-8.7
876.371	50.69
876.544	26.11
876.717	5.63
876.889	36.35
877.062	-20.99
877.234	-55.81
877.407	26.11
877.579	42.5
877.752	1.54
877.924	-35.33
878.097	9.73
878.269	32.26
878.442	1.54
878.614	19.97
878.786	19.97
878.959	5.63
879.131	46.59
879.303	13.82
879.476	83.45
879.648	17.92
879.82	-18.94
879.993	-4.61
880.165	13.82
880.337	1.54
880.509	-16.9
880.681	24.06
880.854	22.02
881.026	19.97
881.198	42.5
881.37	-6.66
881.542	71.17
881.714	71.17
881.886	40.45
882.058	22.02
882.23	67.07
882.402	-2.56
882.574	7.68
882.746	22.02
882.918	-0.51
883.09	46.59
883.262	-10.75
883.434	26.11
883.606	-18.94
883.778	-51.71
883.95	56.83
884.122	-10.75
884.293	13.82
884.465	34.3
884.637	42.5
884.809	30.21
884.98	50.69
885.152	81.41
885.324	44.54
885.496	9.73
885.667	48.64
885.839	38.4
886.011	71.17
886.182	-33.28
886.354	38.4
886.525	-51.71
886.697	-10.75
886.869	-45.57
887.04	26.11
887.212	44.54
887.383	95.74
887.555	26.11
887.726	-10.75
887.897	-20.99
888.069	65.02
888.24	19.97
888.412	3.58
888.583	79.36
888.754	3.58
888.926	-29.18
889.097	60.93
889.268	46.59
889.44	85.5
889.611	-61.95
889.782	-100.86
889.953	3.58
890.125	65.02
890.296	-47.62
890.467	-23.04
890.638	24.06
890.809	17.92
890.98	3.58
891.151	1.54
891.323	24.06
891.494	-8.7
891.665	-10.75
891.836	-2.56
892.007	-2.56
892.178	1.54
892.349	69.12
892.52	44.54
892.691	-61.95
892.862	-53.76
893.032	36.35
893.203	9.73
893.374	62.98
893.545	-6.66
893.716	-68.09
893.887	75.26
894.057	11.78
894.228	22.02
894.399	9.73
894.57	89.6
894.74	9.73
894.911	65.02
895.082	11.78
895.253	5.63
895.423	-0.51
895.594	34.3
895.764	58.88
895.935	-35.33
896.106	99.84
896.276	58.88
896.447	24.06
896.617	-2.56
896.788	30.21
896.958	34.3
897.129	38.4
897.299	-41.47
897.47	19.97
897.64	19.97
897.81	-29.18
897.981	26.11
898.151	9.73
898.322	36.35
898.492	-39.42
898.662	34.3
898.832	22.02
899.003	54.78
899.173	-41.47
899.343	-25.09
899.513	24.06
