Data from USB4F104151__191__10-28-46-724.txt Node

Date: Wed Mar 12 10:28:46 EDT 2025
User: louis
Spectrometer: USB4F10415
Trigger mode: 4
Integration Time (sec): 3.000000E-2
Scans to average: 1
Electric dark correction enabled: true
Nonlinearity correction enabled: false
Boxcar width: 0
XAxis mode: Wavelengths
Number of Pixels in Spectrum: 3648
>>>>>Begin Spectral Data<<<<<
178.204	-21.16
178.424	-21.16
178.644	-21.16
178.864	-131.75
179.084	-82.6
179.304	-4.78
179.524	-29.35
179.744	-15.02
179.964	-29.35
180.184	42.32
180.404	17.75
180.624	27.99
180.844	11.61
181.064	-17.07
181.283	27.99
181.503	-25.26
181.723	-6.83
181.943	-80.55
182.163	85.33
182.383	-35.5
182.602	71
182.822	30.04
183.042	32.08
183.262	-21.16
183.482	56.66
183.701	-25.26
183.921	-12.97
184.141	3.41
184.361	54.61
184.58	19.8
184.8	36.18
185.02	-27.31
185.239	83.28
185.459	60.76
185.679	105.81
185.898	-47.79
186.118	-25.26
186.338	60.76
186.557	-8.87
186.777	-17.07
186.997	44.37
187.216	-0.68
187.436	101.72
187.655	40.28
187.875	-4.78
188.095	-12.97
188.314	56.66
188.534	73.04
188.753	-17.07
188.973	-51.88
189.192	116.05
189.412	17.75
189.631	19.8
189.851	25.94
190.07	52.56
190.29	30.04
190.509	36.18
190.729	134.48
190.948	64.85
191.168	66.9
191.387	44.37
191.607	40.28
191.826	32.08
192.045	-8.87
192.265	23.89
192.484	15.7
192.704	3.41
192.923	-27.31
193.142	154.96
193.362	-4.78
193.581	40.28
193.8	-21.16
194.02	56.66
194.239	23.89
194.458	13.65
194.678	1.37
194.897	64.85
195.116	21.85
195.335	34.13
195.555	46.42
195.774	54.61
195.993	46.42
196.212	44.37
196.432	42.32
196.651	116.05
196.87	46.42
197.089	54.61
197.308	62.8
197.528	11.61
197.747	44.37
197.966	17.75
198.185	109.91
198.404	9.56
198.623	30.04
198.842	42.32
199.062	120.15
199.281	27.99
199.5	36.18
199.719	101.72
199.938	68.95
200.157	30.04
200.376	-37.55
200.595	13.65
200.814	15.7
201.033	77.14
201.252	38.23
201.471	-21.16
201.69	54.61
201.909	75.09
202.128	36.18
202.347	97.62
202.566	40.28
202.785	-37.55
203.004	13.65
203.223	111.96
203.442	3.41
203.661	21.85
203.879	58.71
204.098	42.32
204.317	89.43
204.536	75.09
204.755	-25.26
204.974	75.09
205.193	-10.92
205.411	148.82
205.63	44.37
205.849	99.67
206.068	19.8
206.287	-2.73
206.505	71
206.724	-76.46
206.943	-8.87
207.162	19.8
207.381	-15.02
207.599	-8.87
207.818	58.71
208.037	30.04
208.255	9.56
208.474	3.41
208.693	-2.73
208.911	7.51
209.13	9.56
209.349	9.56
209.567	-12.97
209.786	68.95
210.005	19.8
210.223	77.14
210.442	-6.83
210.661	3.41
210.879	5.46
211.098	30.04
211.316	9.56
211.535	83.28
211.753	11.61
211.972	17.75
212.191	11.61
212.409	23.89
212.628	-8.87
212.846	3.41
213.065	-15.02
213.283	-4.78
213.502	9.56
213.72	-41.64
213.938	62.8
214.157	-0.68
214.375	56.66
214.594	126.29
214.812	83.28
215.031	7.51
215.249	36.18
215.467	15.7
215.686	-33.45
215.904	66.9
216.122	-6.83
216.341	56.66
216.559	66.9
216.778	103.76
216.996	105.81
217.214	11.61
217.432	7.51
217.651	19.8
217.869	5.46
218.087	7.51
218.306	-25.26
218.524	-21.16
218.742	-53.93
218.96	19.8
219.179	11.61
219.397	42.32
219.615	36.18
219.833	44.37
220.051	97.62
220.27	27.99
220.488	19.8
220.706	52.56
220.924	-15.02
221.142	42.32
221.36	101.72
221.578	85.33
221.796	7.51
222.015	-15.02
222.233	21.85
222.451	89.43
222.669	81.24
222.887	15.7
223.105	48.47
223.323	75.09
223.541	-43.69
223.759	52.56
223.977	77.14
224.195	23.89
224.413	34.13
224.631	73.04
224.849	97.62
225.067	107.86
225.285	1.37
225.503	32.08
225.721	-17.07
225.939	-6.83
226.157	27.99
226.375	54.61
226.592	-23.21
226.81	-4.78
227.028	50.52
227.246	73.04
227.464	-25.26
227.682	116.05
227.9	19.8
228.117	107.86
228.335	52.56
228.553	66.9
228.771	1.37
228.989	50.52
229.206	1.37
229.424	36.18
229.642	44.37
229.86	77.14
230.077	7.51
230.295	9.56
230.513	3.41
230.731	52.56
230.948	73.04
231.166	85.33
231.384	25.94
231.601	15.7
231.819	-8.87
232.037	13.65
232.254	-29.35
232.472	62.8
232.689	1.37
232.907	81.24
233.125	-45.74
233.342	83.28
233.56	32.08
233.777	130.39
233.995	58.71
234.213	46.42
234.43	32.08
234.648	93.52
234.865	75.09
235.083	27.99
235.3	23.89
235.518	126.29
235.735	66.9
235.953	19.8
236.17	-25.26
236.388	11.61
236.605	54.61
236.822	107.86
237.04	85.33
237.257	-15.02
237.475	1.37
237.692	83.28
237.909	27.99
238.127	5.46
238.344	77.14
238.562	73.04
238.779	30.04
238.996	19.8
239.214	-4.78
239.431	66.9
239.648	-10.92
239.865	73.04
240.083	60.76
240.3	75.09
240.517	3.41
240.735	79.19
240.952	83.28
241.169	77.14
241.386	-6.83
241.603	50.52
241.821	32.08
242.038	21.85
242.255	73.04
242.472	9.56
242.689	97.62
242.907	27.99
243.124	-62.12
243.341	42.32
243.558	-58.03
243.775	38.23
243.992	-0.68
244.209	7.51
244.426	40.28
244.643	56.66
244.86	-64.17
245.078	56.66
245.295	23.89
245.512	79.19
245.729	34.13
245.946	-0.68
246.163	103.76
246.38	-10.92
246.597	36.18
246.814	-31.4
247.031	23.89
247.248	114
247.464	7.51
247.681	52.56
247.898	13.65
248.115	17.75
248.332	-0.68
248.549	62.8
248.766	89.43
248.983	109.91
249.2	-31.4
249.417	19.8
249.633	13.65
249.85	42.32
250.067	-12.97
250.284	79.19
250.501	66.9
250.717	56.66
250.934	-41.64
251.151	56.66
251.368	85.33
251.585	71
251.801	27.99
252.018	5.46
252.235	118.1
252.451	-0.68
252.668	40.28
252.885	66.9
253.102	27.99
253.318	-15.02
253.535	34.13
253.752	-2.73
253.968	7.51
254.185	-2.73
254.401	66.9
254.618	71
254.835	64.85
255.051	101.72
255.268	48.47
255.484	93.52
255.701	44.37
255.917	36.18
256.134	1.37
256.351	1.37
256.567	21.85
256.784	44.37
257	-31.4
257.217	116.05
257.433	99.67
257.65	13.65
257.866	27.99
258.082	19.8
258.299	68.95
258.515	64.85
258.732	79.19
258.948	27.99
259.165	48.47
259.381	101.72
259.597	25.94
259.814	58.71
260.03	32.08
260.246	-29.35
260.463	34.13
260.679	91.48
260.895	64.85
261.112	3.41
261.328	79.19
261.544	-0.68
261.761	122.2
261.977	9.56
262.193	38.23
262.409	68.95
262.626	60.76
262.842	36.18
263.058	3.41
263.274	40.28
263.49	85.33
263.707	91.48
263.923	34.13
264.139	-2.73
264.355	19.8
264.571	167.25
264.787	64.85
265.004	105.81
265.22	48.47
265.436	-31.4
265.652	-8.87
265.868	105.81
266.084	-17.07
266.3	91.48
266.516	101.72
266.732	101.72
266.948	68.95
267.164	40.28
267.38	32.08
267.596	52.56
267.812	-8.87
268.028	81.24
268.244	44.37
268.46	89.43
268.676	30.04
268.892	68.95
269.108	-29.35
269.324	56.66
269.54	7.51
269.756	77.14
269.972	50.52
270.188	23.89
270.403	5.46
270.619	111.96
270.835	48.47
271.051	79.19
271.267	17.75
271.483	32.08
271.698	44.37
271.914	64.85
272.13	15.7
272.346	44.37
272.562	-23.21
272.777	58.71
272.993	21.85
273.209	11.61
273.425	19.8
273.64	-33.45
273.856	97.62
274.072	38.23
274.287	58.71
274.503	66.9
274.719	118.1
274.934	17.75
275.15	73.04
275.366	42.32
275.581	85.33
275.797	87.38
276.012	17.75
276.228	30.04
276.444	-103.08
276.659	85.33
276.875	87.38
277.09	142.68
277.306	60.76
277.521	71
277.737	30.04
277.952	58.71
278.168	73.04
278.383	21.85
278.599	44.37
278.814	21.85
279.03	36.18
279.245	64.85
279.461	-62.12
279.676	73.04
279.892	-0.68
280.107	48.47
280.322	75.09
280.538	87.38
280.753	17.75
280.969	-12.97
281.184	23.89
281.399	19.8
281.615	32.08
281.83	95.57
282.045	-64.17
282.26	3.41
282.476	3.41
282.691	114
282.906	58.71
283.122	36.18
283.337	19.8
283.552	60.76
283.767	81.24
283.983	99.67
284.198	23.89
284.413	42.32
284.628	-12.97
284.843	58.71
285.058	60.76
285.274	54.61
285.489	52.56
285.704	11.61
285.919	91.48
286.134	81.24
286.349	-0.68
286.564	34.13
286.779	71
286.995	79.19
287.21	97.62
287.425	-12.97
287.64	-4.78
287.855	68.95
288.07	25.94
288.285	44.37
288.5	81.24
288.715	64.85
288.93	56.66
289.145	-35.5
289.36	52.56
289.575	11.61
289.79	44.37
290.004	36.18
290.219	56.66
290.434	66.9
290.649	52.56
290.864	48.47
291.079	50.52
291.294	103.76
291.509	97.62
291.724	-2.73
291.938	44.37
292.153	38.23
292.368	68.95
292.583	42.32
292.798	48.47
293.012	95.57
293.227	122.2
293.442	1.37
293.657	93.52
293.871	130.39
294.086	68.95
294.301	73.04
294.516	60.76
294.73	46.42
294.945	-35.5
295.16	36.18
295.374	1.37
295.589	48.47
295.804	1.37
296.018	52.56
296.233	89.43
296.447	56.66
296.662	19.8
296.877	124.24
297.091	36.18
297.306	11.61
297.52	7.51
297.735	58.71
297.949	9.56
298.164	91.48
298.378	27.99
298.593	56.66
298.807	32.08
299.022	40.28
299.236	81.24
299.451	44.37
299.665	66.9
299.88	124.24
300.094	30.04
300.309	85.33
300.523	13.65
300.737	25.94
300.952	56.66
301.166	36.18
301.381	11.61
301.595	40.28
301.809	77.14
302.024	-25.26
302.238	-49.83
302.452	109.91
302.667	56.66
302.881	42.32
303.095	44.37
303.309	54.61
303.524	11.61
303.738	17.75
303.952	44.37
304.166	56.66
304.381	-4.78
304.595	42.32
304.809	36.18
305.023	34.13
305.237	7.51
305.452	50.52
305.666	15.7
305.88	27.99
306.094	5.46
306.308	71
306.522	128.34
306.736	30.04
306.95	62.8
307.164	58.71
307.379	11.61
307.593	15.7
307.807	107.86
308.021	36.18
308.235	73.04
308.449	30.04
308.663	11.61
308.877	77.14
309.091	101.72
309.305	-12.97
309.519	48.47
309.733	40.28
309.947	-21.16
310.161	107.86
310.374	11.61
310.588	1.37
310.802	46.42
311.016	77.14
311.23	77.14
311.444	46.42
311.658	58.71
311.872	103.76
312.085	62.8
312.299	64.85
312.513	64.85
312.727	101.72
312.941	25.94
313.154	9.56
313.368	27.99
313.582	54.61
313.796	71
314.009	44.37
314.223	95.57
314.437	36.18
314.651	44.37
314.864	3.41
315.078	46.42
315.292	-0.68
315.505	1.37
315.719	50.52
315.933	85.33
316.146	9.56
316.36	-12.97
316.573	79.19
316.787	23.89
317.001	23.89
317.214	5.46
317.428	42.32
317.641	11.61
317.855	5.46
318.068	64.85
318.282	-23.21
318.495	46.42
318.709	21.85
318.922	54.61
319.136	75.09
319.349	34.13
319.563	42.32
319.776	81.24
319.99	36.18
320.203	99.67
320.417	73.04
320.63	30.04
320.843	81.24
321.057	68.95
321.27	73.04
321.483	64.85
321.697	114
321.91	5.46
322.124	130.39
322.337	75.09
322.55	-49.83
322.763	36.18
322.977	128.34
323.19	52.56
323.403	34.13
323.617	91.48
323.83	89.43
324.043	93.52
324.256	99.67
324.469	25.94
324.683	30.04
324.896	93.52
325.109	77.14
325.322	-8.87
325.535	101.72
325.748	99.67
325.962	34.13
326.175	64.85
326.388	107.86
326.601	46.42
326.814	89.43
327.027	60.76
327.24	99.67
327.453	32.08
327.666	68.95
327.879	126.29
328.092	-23.21
328.305	91.48
328.518	107.86
328.731	107.86
328.944	93.52
329.157	30.04
329.37	-12.97
329.583	136.53
329.796	44.37
330.009	11.61
330.222	50.52
330.435	60.76
330.648	42.32
330.861	99.67
331.073	52.56
331.286	9.56
331.499	-6.83
331.712	-41.64
331.925	32.08
332.138	46.42
332.35	40.28
332.563	36.18
332.776	87.38
332.989	19.8
333.202	19.8
333.414	32.08
333.627	23.89
333.84	9.56
334.053	21.85
334.265	68.95
334.478	32.08
334.691	118.1
334.903	62.8
335.116	66.9
335.329	40.28
335.541	48.47
335.754	56.66
335.966	52.56
336.179	85.33
336.392	23.89
336.604	52.56
336.817	93.52
337.029	52.56
337.242	75.09
337.454	71
337.667	11.61
337.88	126.29
338.092	99.67
338.305	36.18
338.517	32.08
338.729	128.34
338.942	109.91
339.154	60.76
339.367	23.89
339.579	68.95
339.792	116.05
340.004	93.52
340.217	54.61
340.429	75.09
340.641	21.85
340.854	-21.16
341.066	142.68
341.278	150.87
341.491	109.91
341.703	56.66
341.915	118.1
342.128	32.08
342.34	7.51
342.552	15.7
342.764	81.24
342.977	30.04
343.189	103.76
343.401	89.43
343.613	58.71
343.826	11.61
344.038	17.75
344.25	87.38
344.462	3.41
344.674	87.38
344.886	36.18
345.099	15.7
345.311	64.85
345.523	52.56
345.735	-29.35
345.947	109.91
346.159	34.13
346.371	27.99
346.583	32.08
346.795	159.06
347.007	-21.16
347.219	-12.97
347.431	93.52
347.643	77.14
347.855	40.28
348.067	150.87
348.279	75.09
348.491	56.66
348.703	81.24
348.915	60.76
349.127	60.76
349.339	85.33
349.551	99.67
349.763	130.39
349.975	27.99
350.187	77.14
350.399	7.51
350.61	42.32
350.822	17.75
351.034	54.61
351.246	77.14
351.458	130.39
351.669	109.91
351.881	62.8
352.093	81.24
352.305	73.04
352.517	81.24
352.728	23.89
352.94	93.52
353.152	128.34
353.363	105.81
353.575	68.95
353.787	66.9
353.999	66.9
354.21	60.76
354.422	40.28
354.633	40.28
354.845	15.7
355.057	101.72
355.268	60.76
355.48	60.76
355.692	46.42
355.903	75.09
356.115	85.33
356.326	40.28
356.538	68.95
356.749	11.61
356.961	161.11
357.172	23.89
357.384	40.28
357.595	77.14
357.807	46.42
358.018	56.66
358.23	68.95
358.441	77.14
358.653	42.32
358.864	34.13
359.075	89.43
359.287	27.99
359.498	66.9
359.709	103.76
359.921	103.76
360.132	17.75
360.344	97.62
360.555	-8.87
360.766	48.47
360.977	-19.11
361.189	91.48
361.4	40.28
361.611	75.09
361.823	93.52
362.034	5.46
362.245	-12.97
362.456	71
362.667	56.66
362.879	60.76
363.09	27.99
363.301	38.23
363.512	44.37
363.723	101.72
363.935	75.09
364.146	93.52
364.357	89.43
364.568	46.42
364.779	81.24
364.99	60.76
365.201	25.94
365.412	103.76
365.623	66.9
365.834	48.47
366.045	1.37
366.256	132.44
366.467	154.96
366.678	62.8
366.889	87.38
367.1	101.72
367.311	79.19
367.522	58.71
367.733	85.33
367.944	118.1
368.155	99.67
368.366	32.08
368.577	64.85
368.788	46.42
368.999	142.68
369.209	64.85
369.42	99.67
369.631	134.48
369.842	-4.78
370.053	101.72
370.264	71
370.474	44.37
370.685	91.48
370.896	77.14
371.107	138.58
371.317	-12.97
371.528	58.71
371.739	68.95
371.95	93.52
372.16	85.33
372.371	91.48
372.582	34.13
372.792	87.38
373.003	71
373.214	91.48
373.424	118.1
373.635	107.86
373.846	114
374.056	34.13
374.267	99.67
374.477	66.9
374.688	15.7
374.898	9.56
375.109	89.43
375.319	120.15
375.53	9.56
375.74	138.58
375.951	30.04
376.161	21.85
376.372	105.81
376.582	15.7
376.793	130.39
377.003	71
377.214	146.77
377.424	44.37
377.635	77.14
377.845	46.42
378.055	99.67
378.266	64.85
378.476	15.7
378.686	146.77
378.897	89.43
379.107	85.33
379.317	138.58
379.528	89.43
379.738	54.61
379.948	101.72
380.158	95.57
380.369	56.66
380.579	48.47
380.789	23.89
380.999	105.81
381.21	42.32
381.42	144.72
381.63	27.99
381.84	116.05
382.05	91.48
382.261	159.06
382.471	101.72
382.681	111.96
382.891	136.53
383.101	62.8
383.311	19.8
383.521	120.15
383.731	126.29
383.941	118.1
384.151	93.52
384.361	48.47
384.571	36.18
384.781	124.24
384.991	202.07
385.201	107.86
385.411	83.28
385.621	66.9
385.831	132.44
386.041	95.57
386.251	52.56
386.461	122.2
386.671	105.81
386.881	89.43
387.091	87.38
387.301	124.24
387.511	62.8
387.72	50.52
387.93	79.19
388.14	89.43
388.35	64.85
388.56	44.37
388.769	75.09
388.979	77.14
389.189	60.76
389.399	126.29
389.609	93.52
389.818	97.62
390.028	56.66
390.238	89.43
390.447	154.96
390.657	157.01
390.867	42.32
391.076	46.42
391.286	-2.73
391.496	103.76
391.705	114
391.915	103.76
392.125	163.15
392.334	83.28
392.544	34.13
392.753	165.2
392.963	62.8
393.172	87.38
393.382	60.76
393.591	228.69
393.801	87.38
394.01	148.82
394.22	97.62
394.429	167.25
394.639	103.76
394.848	81.24
395.058	146.77
395.267	144.72
395.477	77.14
395.686	150.87
395.895	114
396.105	195.92
396.314	89.43
396.524	183.63
396.733	167.25
396.942	179.54
397.152	195.92
397.361	185.68
397.57	105.81
397.78	200.02
397.989	183.63
398.198	144.72
398.407	161.11
398.617	161.11
398.826	195.92
399.035	202.07
399.244	77.14
399.453	144.72
399.663	126.29
399.872	163.15
400.081	200.02
400.29	208.21
400.499	75.09
400.708	187.73
400.917	212.31
401.127	130.39
401.336	214.35
401.545	204.11
401.754	175.44
401.963	214.35
402.172	191.83
402.381	144.72
402.59	97.62
402.799	214.35
403.008	175.44
403.217	220.5
403.426	191.83
403.635	157.01
403.844	171.35
404.053	175.44
404.262	279.89
404.471	347.47
404.68	277.84
404.888	232.79
405.097	181.59
405.306	197.97
405.515	222.55
405.724	228.69
405.933	197.97
406.142	243.03
406.35	281.94
406.559	255.31
406.768	326.99
406.977	259.41
407.185	322.9
407.394	286.03
407.603	249.17
407.812	300.37
408.02	320.85
408.229	281.94
408.438	320.85
408.646	355.66
408.855	286.03
409.064	408.91
409.272	386.38
409.481	396.62
409.69	394.58
409.898	361.81
410.107	542.03
410.315	437.58
410.524	490.83
410.733	560.46
410.941	456.01
411.15	648.52
411.358	560.46
411.567	685.39
411.775	658.76
411.984	640.33
412.192	679.24
412.401	654.67
412.609	714.06
412.818	707.91
413.026	773.45
413.234	775.5
413.443	795.98
413.651	785.74
413.86	804.17
414.068	974.15
414.276	935.24
414.485	1082.69
414.693	1013.06
414.901	1082.69
415.11	1107.27
415.318	1023.3
415.526	1146.18
415.734	1109.32
415.943	1219.91
416.151	1277.25
416.359	1322.31
416.567	1383.74
416.776	1396.03
416.984	1506.62
417.192	1498.43
417.4	1518.91
417.608	1498.43
417.817	1604.92
418.025	1703.23
418.233	1789.24
418.441	1828.15
418.649	1891.64
418.857	1979.7
419.065	2084.15
419.273	1926.46
419.481	2137.4
419.689	2137.4
419.897	2364.72
420.105	2342.19
420.313	2503.98
420.521	2458.93
420.729	2551.09
420.937	2706.73
421.145	2696.49
421.353	2819.37
421.561	3065.13
421.769	3042.6
421.977	3190.05
422.185	3087.65
422.393	3349.79
422.601	3534.11
422.809	3566.88
423.017	3630.37
423.224	3656.99
423.432	3984.66
423.64	3915.03
423.848	4224.28
424.056	4136.21
424.263	4543.76
424.471	4455.7
424.679	4431.12
424.887	4805.9
425.094	4893.96
425.302	4984.07
425.51	5055.75
425.718	5377.28
425.925	5334.28
426.133	5567.74
426.341	5924.09
426.548	5987.58
426.756	6124.79
426.964	6272.25
427.171	6481.14
427.379	6679.79
427.586	6741.23
427.794	7079.15
428.001	7304.42
428.209	7787.74
428.417	7572.71
428.624	8115.42
428.832	8203.48
429.039	8148.19
429.247	8185.05
429.454	8860.88
429.662	9448.65
429.869	8600.79
430.076	9692.35
430.284	9127.11
430.491	9571.52
430.699	10001.6
430.906	9958.59
431.114	10345.66
431.321	10673.33
431.528	10704.05
431.736	11525.29
431.943	12004.51
432.15	11605.16
432.358	11685.03
432.565	12539.03
432.772	12440.73
432.979	13063.31
433.187	13444.23
433.394	13200.52
433.601	14417.02
433.808	14341.24
434.016	14138.49
434.223	14597.24
434.43	15559.78
434.637	15463.53
434.844	16114.78
435.052	16753.75
435.259	16495.71
435.466	16489.56
435.673	16555.1
435.88	17558.6
436.087	18521.15
436.294	18484.28
436.501	18261.05
436.708	18682.94
436.915	19143.73
437.122	20298.78
437.329	19964.96
437.537	20376.61
437.743	20943.89
437.95	20577.31
438.157	21597.2
438.364	22529.02
438.571	22461.44
438.778	22449.15
438.985	24480.74
439.192	23577.58
439.399	24665.05
439.606	23950.31
439.813	25310.16
440.02	26923.96
440.227	26246.08
440.433	26221.51
440.64	27050.94
440.847	26833.85
441.054	27638.7
441.261	29277.08
441.467	28869.53
441.674	29619.09
441.881	30583.68
442.088	30215.05
442.294	30151.56
442.501	31017.85
442.708	31460.21
442.914	32863.07
443.121	33962.83
443.328	33293.15
443.534	35826.48
443.741	34577.22
443.948	34052.94
444.154	36131.63
444.361	36340.52
444.568	36604.71
444.774	36758.31
444.981	36606.76
445.187	37917.46
445.394	39727.86
445.6	38982.4
445.807	42857.16
446.013	40936.16
446.22	41890.52
446.426	43031.24
446.633	43391.68
446.839	45109.92
447.046	43231.94
447.252	45658.78
447.459	45519.52
447.665	45308.58
447.871	47116.93
448.078	48802.41
448.284	46799.5
448.491	47870.59
448.697	49771.1
448.903	50516.56
449.11	50600.53
449.316	49758.81
449.522	50600.53
449.728	52179.51
449.935	52372.02
450.141	52359.73
450.347	53070.38
450.553	51841.6
450.76	52253.24
450.966	53912.09
451.172	53353
451.378	54616.6
451.584	53697.06
451.791	54567.44
451.997	54450.71
452.203	55300.62
452.409	55431.69
452.615	55161.36
452.821	53054
453.027	52238.9
453.233	55165.45
453.44	52818.48
453.646	53895.71
453.852	53479.97
454.058	54620.69
454.264	52931.12
454.47	53754.4
454.676	52754.99
454.882	54288.92
455.088	49822.3
455.294	50514.51
455.5	51489.35
455.705	51427.91
455.911	49279.59
456.117	49082.98
456.323	48403.06
456.529	45765.27
456.735	47590.02
456.941	46095
457.147	45537.95
457.352	44167.86
457.558	43565.76
457.764	43729.59
457.97	43074.24
458.176	42019.54
458.381	41851.61
458.587	40047.35
458.793	39914.23
458.999	37866.26
459.204	40682.22
459.41	40151.79
459.616	36746.02
459.821	36789.03
460.027	36891.43
460.233	36209.45
460.438	34687.81
460.644	34988.86
460.85	33295.19
461.055	32781.15
461.261	32478.05
461.466	30253.96
461.672	29414.29
461.878	31206.27
462.083	29361.05
462.289	28869.53
462.494	28709.79
462.7	27329.46
462.905	26999.74
463.111	27718.57
463.316	27620.27
463.522	26983.35
463.727	27161.53
463.932	27190.2
464.138	26653.63
464.343	27120.57
464.549	26348.48
464.754	27194.29
464.959	26950.59
465.165	26768.32
465.37	25537.49
465.575	24818.65
465.781	25940.94
465.986	25979.85
466.191	25187.28
466.397	24482.78
466.602	23051.25
466.807	24437.73
467.012	23886.82
467.218	24312.8
467.423	24089.57
467.628	24120.29
467.833	25093.08
468.038	24155.11
468.244	23282.67
468.449	24234.98
468.654	23671.79
468.859	23108.6
469.064	23147.51
469.269	22400
469.474	22283.27
469.679	22897.66
469.885	22385.66
470.09	22443.01
470.295	22637.56
470.5	21810.18
470.705	21928.97
470.91	21195.79
471.115	21498.89
471.32	22010.89
471.525	21281.81
471.73	21066.77
471.935	20761.62
472.139	20136.99
472.344	20421.66
472.549	20268.06
472.754	19905.57
472.959	19977.25
473.164	19270.7
473.369	18981.94
473.574	19620.91
473.778	19282.99
473.983	19270.7
474.188	19307.57
474.393	18322.49
474.598	18553.91
474.802	17949.76
475.007	18191.42
475.212	18244.67
475.417	17380.43
475.621	17607.75
475.826	17777.73
476.031	17056.85
476.235	17103.95
476.44	17065.04
476.645	16850
476.849	16716.89
477.054	16802.9
477.259	16370.78
477.463	16323.68
477.668	15948.9
477.872	16088.16
478.077	16034.91
478.282	15676.52
478.486	15268.97
478.691	15600.74
478.895	15608.94
479.1	15178.86
479.304	15293.55
479.509	14713.97
479.713	15117.42
479.918	14761.08
480.122	14488.7
480.326	14769.27
480.531	14984.3
480.735	14845.04
480.94	14441.59
481.144	15144.05
481.348	14339.19
481.553	14470.26
481.757	13972.61
481.961	14408.83
482.166	14546.04
482.37	14353.53
482.574	14068.86
482.778	14249.08
482.983	14679.16
483.187	14251.13
483.391	14343.29
483.595	14109.82
483.8	13892.74
484.004	14285.95
484.208	14359.67
484.412	14204.03
484.616	14318.71
484.821	14300.28
485.025	14095.49
485.229	14234.75
485.433	13851.78
485.637	14265.47
485.841	14040.19
486.045	14052.48
486.249	14269.56
486.453	14265.47
486.657	14093.44
486.861	14193.79
487.065	13954.18
487.269	14173.31
487.473	13909.12
487.677	14206.08
487.881	14429.31
488.085	13948.03
488.289	14167.17
488.493	14011.52
488.697	14283.9
488.901	14032
489.105	14288
489.309	14453.88
489.512	14273.66
489.716	14242.94
489.92	14457.98
490.124	14265.47
490.328	14539.9
490.531	14228.6
490.735	14298.24
490.939	14754.93
491.143	14347.39
491.346	14552.18
491.55	14935.15
491.754	14799.99
491.958	14802.04
492.161	15055.98
492.365	14984.3
492.569	14963.83
492.772	15066.22
492.976	15133.81
493.18	15236.2
493.383	15377.51
493.587	15604.84
493.79	15512.68
493.994	15146.09
494.197	15727.72
494.401	15875.17
494.605	15766.63
494.808	16262.24
495.012	16026.72
495.215	16170.08
495.419	16389.21
495.622	16145.5
495.825	16514.14
496.029	16432.22
496.232	16854.1
496.436	16665.69
496.639	17175.63
496.843	17192.01
497.046	17613.9
497.249	17529.93
497.453	17794.12
497.656	17843.27
497.859	18082.88
498.063	18091.07
498.266	18699.32
498.469	18293.82
498.673	18308.16
498.876	18986.04
499.079	19477.55
499.282	19389.49
499.485	19631.15
499.689	20139.04
499.892	20061.22
500.095	20003.88
500.298	20538.4
500.501	20309.02
500.705	21138.45
500.908	21034
501.111	21355.54
501.314	21605.39
501.517	21711.88
501.72	22164.48
501.923	22137.86
502.126	22768.63
502.329	22903.8
502.532	22877.18
502.735	23030.77
502.938	23397.36
503.141	23843.82
503.344	24005.61
503.547	24026.09
503.75	24275.94
503.953	24835.03
504.156	25101.27
504.359	25435.09
504.562	25146.33
504.765	25908.17
504.968	26188.74
505.17	26403.78
505.373	26473.41
505.576	27120.57
505.779	26948.54
505.982	27159.48
506.185	27710.38
506.387	28195.75
506.59	28246.95
506.793	28638.11
506.996	28824.48
507.198	29428.63
507.401	29526.93
507.604	30116.75
507.807	30149.51
508.009	30155.66
508.212	30534.53
508.415	31058.81
508.617	31118.2
508.82	31396.73
509.022	31599.48
509.225	31896.43
509.428	32615.27
509.63	32658.27
509.833	32893.79
510.035	33786.71
510.238	33233.75
510.44	33966.93
510.643	34433.86
510.845	34831.17
511.048	34310.99
511.25	35330.87
511.453	35507
511.655	36944.67
511.858	35840.82
512.06	36655.91
512.262	36723.49
512.465	36956.96
512.667	37780.24
512.87	37919.51
513.072	37626.65
513.274	38781.7
513.477	39215.87
513.679	39410.43
513.881	39717.62
514.084	40579.82
514.286	40329.97
514.488	40481.52
514.69	41605.85
514.893	41362.14
515.095	41798.36
515.297	42371.79
515.499	42341.07
515.701	42824.39
515.904	43176.64
516.106	43602.62
516.308	43954.87
516.51	44325.55
516.712	44399.28
516.914	44946.09
517.116	45478.56
517.318	45490.85
517.52	46033.56
517.722	46576.27
517.925	46912.14
518.127	47719.04
518.329	47856.25
518.531	47370.88
518.733	48673.39
518.935	49371.75
519.136	48927.34
519.338	49824.35
519.54	49746.53
519.742	50328.15
519.944	50403.92
520.146	50836.05
520.348	51591.75
520.55	51417.67
520.752	51741.25
520.954	52830.77
521.155	52580.91
521.357	53355.05
521.559	53522.98
521.761	54325.78
521.963	54297.11
522.164	54602.26
522.366	54972.94
522.568	55292.43
522.77	55130.64
522.971	56390.14
523.173	55632.39
523.375	56398.33
523.576	56240.64
523.778	57020.91
523.98	57504.23
524.181	57938.4
524.383	57489.9
524.584	58800.6
524.786	58130.91
524.988	58649.05
525.189	58894.8
525.391	59675.08
525.592	59613.64
525.794	59650.5
525.995	59769.29
526.197	59822.53
526.398	60195.26
526.6	60449.21
526.801	60944.82
527.003	61067.7
527.204	61145.52
527.406	61591.98
527.607	61630.89
527.808	62001.57
528.01	61219.25
528.211	61651.37
528.412	62847.38
528.614	62439.84
528.815	62609.82
529.016	63345.04
529.218	62525.85
529.419	63033.75
529.62	63328.65
529.822	63189.39
530.023	63173.01
530.224	63580.56
530.425	63611.27
530.626	63316.37
530.828	63267.22
531.029	64086.4
531.23	63746.44
531.431	63877.51
531.632	63885.7
531.833	64086.4
532.035	64086.4
532.236	64086.4
532.437	64086.4
532.638	64086.4
532.839	64086.4
533.04	64086.4
533.241	64086.4
533.442	64086.4
533.643	64086.4
533.844	64086.4
534.045	64086.4
534.246	64086.4
534.447	64086.4
534.648	64086.4
534.849	64086.4
535.05	64086.4
535.251	64086.4
535.451	64086.4
535.652	64086.4
535.853	64086.4
536.054	64086.4
536.255	64086.4
536.456	64086.4
536.657	64086.4
536.857	64086.4
537.058	64086.4
537.259	64086.4
537.46	64086.4
537.66	64086.4
537.861	64086.4
538.062	64086.4
538.263	64086.4
538.463	64086.4
538.664	64086.4
538.865	64086.4
539.065	64086.4
539.266	64086.4
539.466	64086.4
539.667	64086.4
539.868	64086.4
540.068	64086.4
540.269	64086.4
540.469	64086.4
540.67	64086.4
540.87	64086.4
541.071	64086.4
541.271	64086.4
541.472	64086.4
541.672	64086.4
541.873	64086.4
542.073	64086.4
542.274	64086.4
542.474	64086.4
542.675	64086.4
542.875	64086.4
543.075	64086.4
543.276	64086.4
543.476	64086.4
543.676	64086.4
543.877	64086.4
544.077	64086.4
544.277	64086.4
544.478	64086.4
544.678	64086.4
544.878	64086.4
545.078	64086.4
545.279	64086.4
545.479	64086.4
545.679	64086.4
545.879	64086.4
546.079	64086.4
546.28	64086.4
546.48	64086.4
546.68	64086.4
546.88	64086.4
547.08	64086.4
547.28	64086.4
547.48	64086.4
547.68	64086.4
547.88	64086.4
548.081	64086.4
548.281	64086.4
548.481	64086.4
548.681	64086.4
548.881	64086.4
549.081	64086.4
549.28	64086.4
549.48	64086.4
549.68	64086.4
549.88	64086.4
550.08	64086.4
550.28	64086.4
550.48	64086.4
550.68	64086.4
550.88	64086.4
551.08	64086.4
551.279	64086.4
551.479	64086.4
551.679	64086.4
551.879	64086.4
552.079	64086.4
552.278	64086.4
552.478	64086.4
552.678	64086.4
552.878	64086.4
553.077	64086.4
553.277	63826.31
553.477	64086.4
553.676	63926.66
553.876	64086.4
554.076	63914.37
554.275	64067.97
554.475	63676.81
554.674	64086.4
554.874	63889.8
555.074	63738.25
555.273	64006.53
555.473	64059.78
555.672	63533.45
555.872	64016.77
556.071	63668.62
556.271	64043.4
556.47	63836.55
556.67	63625.61
556.869	63275.41
557.068	63623.56
557.268	63410.57
557.467	63598.99
557.667	63316.37
557.866	63641.99
558.065	63205.78
558.265	63062.42
558.464	62714.26
558.663	63658.38
558.863	62579.1
559.062	63553.93
559.261	62488.99
559.461	63635.85
559.66	62269.86
559.859	62564.76
560.058	62460.32
560.258	62790.04
560.457	62515.61
560.656	62548.38
560.855	62415.26
561.054	62464.41
561.253	62144.93
561.453	61917.6
561.652	62058.91
561.851	62265.76
562.05	61661.61
562.249	61215.15
562.448	62101.92
562.647	61956.52
562.846	61469.1
563.045	61444.52
563.244	60549.56
563.443	61411.76
563.642	60860.85
563.841	61231.53
564.04	60889.52
564.239	61385.13
564.438	60420.54
564.637	61213.1
564.836	60981.68
565.035	60563.9
565.234	60518.84
565.432	60051.9
565.631	60086.72
565.83	60111.3
566.029	59949.51
566.228	59957.7
566.427	59904.45
566.625	59652.55
566.824	58657.24
567.023	59283.92
567.222	58630.61
567.42	59634.12
567.619	59541.96
567.818	59105.74
568.016	59118.03
568.215	59279.82
568.414	58556.89
568.612	58921.43
568.811	58567.13
569.01	58827.22
569.208	57776.61
569.407	58163.68
569.605	57784.8
569.804	58231.26
570.002	57500.14
570.201	57680.36
570.4	57453.03
570.598	56955.38
570.797	57102.83
570.995	57489.9
571.193	56848.88
571.392	57334.25
571.59	56611.32
571.789	56707.57
571.987	56312.31
572.186	56152.57
572.384	56066.56
572.582	56429.05
572.781	56302.07
572.979	55505.41
573.177	55742.98
573.376	56037.89
573.574	55314.95
573.772	55673.35
573.971	55140.88
574.169	54829.58
574.367	54800.91
574.565	55007.76
574.763	54641.17
574.962	54684.18
575.16	54352.41
575.358	54555.16
575.556	53688.87
575.754	54702.61
575.952	53840.42
576.151	54258.2
576.349	53269.03
576.547	53776.93
576.745	53535.27
576.943	53877.28
577.141	53572.13
577.339	53291.56
577.537	52808.24
577.735	53336.62
577.933	52253.24
578.131	52691.51
578.329	52179.51
578.527	52404.79
578.725	52482.61
578.923	52503.09
579.121	51733.06
579.319	51962.43
579.516	52345.4
579.714	52089.4
579.912	51130.95
580.11	51417.67
580.308	51663.42
580.506	51135.05
580.704	50790.99
580.901	51081.8
581.099	51233.35
581.297	50870.86
581.495	50516.56
581.692	50805.33
581.89	50133.59
582.088	50338.39
582.285	50049.63
582.483	50332.25
582.681	49900.12
582.878	49742.43
583.076	49379.94
583.274	49857.12
583.471	48896.62
583.669	49365.6
583.866	49189.48
584.064	49492.58
584.262	48509.55
584.459	49123.94
584.657	48667.25
584.854	49226.34
585.052	47788.67
585.249	48415.35
585.447	48251.51
585.644	47682.17
585.841	48171.64
586.039	48044.66
586.236	47661.69
586.434	47409.79
586.631	47321.73
586.828	47059.59
587.026	47166.09
587.223	46838.41
587.42	46944.9
587.618	47123.08
587.815	46420.62
588.012	46183.06
588.21	45961.88
588.407	46717.58
588.604	45945.5
588.801	45656.73
588.999	45961.88
589.196	45994.65
589.393	45617.82
589.59	45429.41
589.787	45150.88
589.984	45197.99
590.182	44466.86
590.379	45470.37
590.576	44909.22
590.773	44997.29
590.97	44432.05
591.167	44909.22
591.364	43985.59
591.561	44636.84
591.758	44321.46
591.955	43934.39
592.152	44143.28
592.349	43924.15
592.546	43580.09
592.743	43528.89
592.94	42900.17
593.137	43195.07
593.334	43412.16
593.531	42562.25
593.727	42828.49
593.924	43221.7
594.121	42367.69
594.318	42873.54
594.515	42369.74
594.712	42566.35
594.908	42304.21
595.105	42990.28
595.302	41808.6
595.499	41831.13
595.696	41689.82
595.892	41530.08
596.089	41667.29
596.286	41317.09
596.482	41138.91
596.679	41364.19
596.876	41442.01
597.072	41241.31
597.269	41253.6
597.466	40733.42
597.662	40510.19
597.859	40809.19
598.055	40436.46
598.252	39912.18
598.448	40192.75
598.645	39885.56
598.841	39863.03
599.038	40016.63
599.234	39731.96
599.431	39195.39
599.627	38892.29
599.824	39359.23
600.02	38818.56
600.217	39414.52
600.413	39146.24
600.609	38757.13
600.806	38556.42
601.002	38966.02
601.198	38810.37
601.395	38601.48
601.591	38327.05
601.787	38130.45
601.984	38003.47
602.18	38597.38
602.376	38009.62
602.572	37847.83
602.769	37540.63
602.965	37532.44
603.161	37729.05
603.357	37384.99
603.553	37059.36
603.75	37333.79
603.946	36862.75
604.142	36786.98
604.338	36459.3
604.534	36940.58
604.73	36289.32
604.926	36326.19
605.122	36395.82
605.318	36264.75
605.514	36076.33
605.71	35633.97
605.906	35951.41
606.102	36141.87
606.298	35783.48
606.494	35771.19
606.69	35681.08
606.886	35629.88
607.082	35429.18
607.278	35513.14
607.474	34849.6
607.67	35414.84
607.866	34831.17
608.062	35271.48
608.257	34894.66
608.453	34739.01
608.649	35033.92
608.845	34653
609.041	34401.1
609.236	34548.55
609.432	34372.42
609.628	34437.96
609.824	34153.29
610.019	34349.9
610.215	34276.17
610.411	34114.38
610.606	33735.51
610.802	33903.44
610.998	33784.66
611.193	34059.09
611.389	33629.01
611.584	33626.96
611.78	33444.69
611.976	33731.41
612.171	33790.8
612.367	33506.13
612.562	33274.71
612.758	32846.69
612.953	32926.56
613.149	33221.47
613.344	32912.22
613.539	33330.01
613.735	33071.96
613.93	33010.53
614.126	32424.81
614.321	33153.88
614.517	32506.73
614.712	32619.36
614.907	32699.23
615.103	32873.31
615.298	32162.67
615.493	32426.85
615.688	31812.46
615.884	32564.07
616.079	31896.43
616.274	32275.3
616.47	31890.29
616.665	32000.88
616.86	31656.82
617.055	31863.66
617.25	31617.91
617.445	32084.84
617.641	31169.4
617.836	31652.72
618.031	30978.94
618.226	31486.84
618.421	31187.83
618.616	31411.06
618.811	30970.75
619.006	31253.37
619.201	30497.67
619.396	30735.23
619.591	30569.35
619.786	30790.53
619.981	29969.29
620.176	30401.41
620.371	29784.97
620.566	29967.24
620.761	29883.28
620.956	30235.53
621.151	29485.97
621.346	29647.76
621.541	29217.69
621.735	29225.88
621.93	29006.75
622.125	29107.1
622.32	28648.35
622.515	28871.58
622.709	28713.89
622.904	28328.87
623.099	28234.66
623.294	28031.91
623.488	28042.15
623.683	28136.36
623.878	27356.08
624.072	27517.87
624.267	27610.03
624.462	27339.7
624.656	26952.63
624.851	27055.03
625.046	26887.1
625.24	26796.99
625.435	26448.83
625.629	26538.94
625.824	26203.08
626.018	26160.07
626.213	25359.31
626.407	25953.23
626.602	25498.58
626.796	25854.92
626.991	25555.92
627.185	25291.73
627.38	25170.9
627.574	24953.82
627.768	25068.5
627.963	24968.15
628.157	24464.35
628.352	24490.98
628.546	24372.19
628.74	24456.16
628.935	24130.53
629.129	24439.78
629.323	23911.4
629.517	23720.94
629.712	23497.71
629.906	23634.92
630.1	23247.86
630.294	23409.65
630.489	23335.92
630.683	23387.12
630.877	22844.41
631.071	22969.33
631.265	22911.99
631.459	22561.79
631.653	22449.15
631.848	22334.46
632.042	22346.75
632.236	22518.78
632.43	21650.44
632.624	22144
632.818	21548.04
633.012	21683.21
633.206	21357.58
633.4	21738.51
633.594	21511.18
633.788	21228.56
633.982	21306.38
634.176	20907.03
634.369	20950.04
634.563	20884.5
634.757	20648.99
634.951	20704.28
635.145	20474.91
635.339	20497.44
635.533	20325.41
635.726	20186.15
635.92	19862.57
636.114	20306.98
636.308	19737.64
636.501	19711.02
636.695	19717.16
636.889	19303.47
637.083	19326
637.276	19463.21
637.47	19354.67
637.664	19252.27
637.857	19182.64
638.051	19063.86
638.244	18859.06
638.438	18945.08
638.632	18560.06
638.825	18646.07
639.019	18668.6
639.212	18400.32
639.406	18392.12
639.599	18170.94
639.793	18119.74
639.986	17781.83
640.18	17857.6
640.373	17808.45
640.567	17304.65
640.76	17804.36
640.954	17462.35
641.147	17466.44
641.34	17331.28
641.534	17173.58
641.727	17220.69
641.92	17290.32
642.114	16692.31
642.307	16532.57
642.5	16874.58
642.694	16577.62
642.887	16348.25
643.08	16532.57
643.273	16563.29
643.467	16086.11
643.66	16184.41
643.853	16061.54
644.046	16082.02
644.239	16041.06
644.432	15926.37
644.626	15783.01
644.819	15682.66
645.012	15711.33
645.205	15658.09
645.398	15578.22
645.591	15088.75
645.784	15402.09
645.977	15221.87
646.17	15197.29
646.363	15058.03
646.556	14906.48
646.749	15012.98
646.942	14941.3
647.135	14689.4
647.328	14859.38
647.521	14623.86
647.714	14285.95
647.907	14441.59
648.099	14439.54
648.292	14519.42
648.485	14175.36
648.678	13941.89
648.871	13970.56
649.064	13952.13
649.256	13927.55
649.449	13999.23
649.642	13919.36
649.835	13509.77
650.027	13751.43
650.22	13675.65
650.413	13737.09
650.605	13456.52
650.798	13397.13
650.991	13206.67
651.183	12838.03
651.376	12944.53
651.568	13223.05
651.761	13012.11
651.954	12864.66
652.146	12829.84
652.339	12803.22
652.531	12678.29
652.724	12829.84
652.916	12573.85
653.109	12655.76
653.301	12786.83
653.494	12555.41
653.686	12213.4
653.879	12303.51
654.071	12086.43
654.263	12350.62
654.456	12121.24
654.648	12229.79
654.84	11981.98
655.033	11986.08
655.225	11746.47
655.417	11660.45
655.61	11635.88
655.802	11742.37
655.994	11689.12
656.186	11490.47
656.379	11396.26
656.571	11517.09
656.763	11158.7
656.955	11398.31
657.148	11469.99
657.34	11353.26
657.532	11074.73
657.724	10876.08
657.916	10912.94
658.108	10882.22
658.3	10855.6
658.492	10906.8
658.684	10636.47
658.876	10505.4
659.068	10847.41
659.26	10677.43
659.452	10695.86
659.644	10699.95
659.836	10435.77
660.028	10267.83
660.22	10316.98
660.412	10220.73
660.604	10101.95
660.796	10167.48
660.988	10228.92
661.18	10063.04
661.372	10009.79
661.563	10261.69
661.755	9936.06
661.947	9997.5
662.139	9927.87
662.331	9626.82
662.522	9600.19
662.714	9833.66
662.906	9749.7
663.097	9718.98
663.289	9499.84
663.481	9411.78
663.673	9526.47
663.864	9399.49
664.056	9321.67
664.247	9311.43
664.439	9313.48
664.631	9010.38
664.822	9237.7
665.014	9016.52
665.205	9067.72
665.397	9051.34
665.588	8989.9
665.78	9088.2
665.971	8826.06
666.163	9032.91
666.354	8793.3
666.546	8774.86
666.737	8781.01
666.929	8703.18
667.12	8762.58
667.311	8717.52
667.503	8662.23
667.694	8565.97
667.885	8451.28
668.077	8414.42
668.268	8355.03
668.459	8307.93
668.651	8309.97
668.842	8133.85
669.033	8191.19
669.224	8154.33
669.416	8121.56
669.607	8168.66
669.798	8080.6
669.989	8133.85
670.18	8139.99
670.371	7996.64
670.563	7984.35
670.754	7945.44
670.945	7834.85
671.136	8035.55
671.327	7791.84
671.518	7718.11
671.709	7838.94
671.9	7640.29
672.091	7746.78
672.282	7595.23
672.473	7574.75
672.664	7689.44
672.855	7449.83
673.046	7584.99
673.237	7642.34
673.428	7466.21
673.619	7349.48
673.809	7398.63
674	7447.78
674.191	7386.34
674.382	7449.83
674.573	7341.29
674.764	7357.67
674.954	7329
675.145	7261.41
675.336	7218.41
675.527	7208.17
675.717	7195.88
675.908	6999.27
676.099	7021.8
676.289	7007.47
676.48	7120.1
676.671	7046.38
676.861	7099.62
677.052	6997.23
677.243	7134.44
677.433	6993.13
677.624	6864.11
677.814	7017.71
678.005	6894.83
678.195	6872.3
678.386	6876.4
678.576	6694.13
678.767	6755.57
678.957	6747.37
679.148	6554.87
679.338	6868.2
679.529	6778.09
679.719	6692.08
679.909	6851.82
680.1	6550.77
680.29	6642.93
680.481	6753.52
680.671	6837.48
680.861	6657.26
681.052	6653.17
681.242	6898.92
681.432	6690.03
681.622	6511.86
681.813	6472.95
682.003	6446.32
682.193	6356.21
682.383	6591.73
682.573	6388.98
682.764	6425.84
682.954	6526.19
683.144	6425.84
683.334	6300.92
683.524	6343.92
683.714	6372.6
683.904	6352.12
684.094	6368.5
684.284	6143.22
684.474	6409.46
684.664	6221.05
684.854	6331.64
685.044	6212.85
685.234	6124.79
685.424	6163.7
685.614	6186.23
685.804	6126.84
685.994	6065.4
686.184	6221.05
686.374	6118.65
686.564	5999.87
686.753	6110.46
686.943	5917.95
687.133	6081.78
687.323	5997.82
687.513	5989.63
687.702	5883.13
687.892	5817.6
688.082	5844.22
688.272	5768.45
688.461	5915.9
688.651	5815.55
688.841	5704.96
689.03	5635.33
689.22	5608.7
689.41	5684.48
689.599	5625.09
689.789	5680.38
689.979	5618.94
690.168	5500.16
690.358	5512.45
690.547	5436.67
690.737	5545.22
690.926	5532.93
691.116	5494.02
691.305	5651.71
691.495	5498.11
691.684	5424.39
691.874	5268.74
692.063	5233.93
692.252	5451.01
692.442	5311.75
692.631	5149.96
692.82	5229.83
693.01	5176.58
693.199	5278.98
693.388	5135.62
693.578	5283.08
693.767	5098.76
693.956	5053.7
694.146	5283.08
694.335	5127.43
694.524	5129.48
694.713	5035.27
694.902	5008.65
695.092	5117.19
695.281	4945.16
695.47	5115.14
695.659	4871.43
695.848	4891.91
696.037	5113.1
696.226	5008.65
696.415	4998.41
696.604	5010.7
696.793	4982.03
696.982	4912.39
697.171	4965.64
697.36	5113.1
697.549	4773.13
697.738	4947.21
697.927	4834.57
698.116	4773.13
698.305	4936.97
698.494	4949.26
698.683	4885.77
698.872	4775.18
699.061	4779.28
699.25	4764.94
699.438	4752.65
699.627	4842.76
699.816	4803.85
700.005	4746.51
700.193	4820.24
700.382	4824.33
700.571	4744.46
700.76	4840.72
700.948	4936.97
701.137	4779.28
701.326	4719.89
701.514	4566.29
701.703	4646.16
701.892	4723.98
702.08	4728.08
702.269	4746.51
702.457	4736.27
702.646	4732.17
702.834	4640.01
703.023	4713.74
703.212	4640.01
703.4	4615.44
703.589	4631.82
703.777	4625.68
703.965	4537.62
704.154	4586.77
704.342	4676.88
704.531	4631.82
704.719	4566.29
704.907	4640.01
705.096	4635.92
705.284	4676.88
705.472	4545.81
705.661	4609.3
705.849	4597.01
706.037	4500.75
706.226	4478.22
706.414	4521.23
706.602	4623.63
706.79	4572.43
706.979	4521.23
707.167	4519.18
707.355	4316.44
707.543	4662.54
707.731	4517.14
707.919	4648.21
708.107	4502.8
708.296	4650.25
708.484	4631.82
708.672	4615.44
708.86	4537.62
709.048	4525.33
709.236	4316.44
709.424	4517.14
709.612	4443.41
709.8	4429.07
709.988	4496.66
710.176	4369.68
710.364	4390.16
710.551	4486.42
710.739	4447.51
710.927	4418.83
711.115	4302.1
711.303	4361.49
711.491	4433.17
711.679	4482.32
711.866	4451.6
712.054	4486.42
712.242	4277.52
712.43	4449.55
712.617	4330.77
712.805	4467.99
712.993	4236.56
713.181	4381.97
713.368	4328.72
713.556	4367.63
713.744	4261.14
713.931	4351.25
714.119	4361.49
714.306	4451.6
714.494	4463.89
714.682	4269.33
714.869	4402.45
715.057	4275.48
715.244	4226.32
715.432	4367.63
715.619	4355.35
715.807	4375.83
715.994	4214.04
716.182	4175.13
716.369	4236.56
716.556	4318.48
716.744	4308.24
716.931	4220.18
717.119	4259.09
717.306	4431.12
717.493	4250.9
717.681	4269.33
717.868	4136.21
718.055	4312.34
718.242	4363.54
718.43	4230.42
718.617	4330.77
718.804	4336.92
718.991	4396.31
719.179	4326.68
719.366	4123.93
719.553	4279.57
719.74	4429.07
719.927	4185.37
720.114	4168.98
720.301	4295.96
720.488	4128.02
720.676	4179.22
720.863	4097.3
721.05	4400.4
721.237	4302.1
721.424	4328.72
721.611	4222.23
721.798	4228.37
721.985	4230.42
722.172	4105.49
722.358	4130.07
722.545	4201.75
722.732	4177.17
722.919	4148.5
723.106	4062.49
723.293	4019.48
723.48	4132.12
723.667	4136.21
723.853	3970.33
724.04	4070.68
724.227	4009.24
724.414	4154.65
724.6	4080.92
724.787	3937.56
724.974	4181.27
725.161	4054.3
725.347	3939.61
725.534	4158.74
725.72	4009.24
725.907	3874.07
726.094	4009.24
726.28	4125.97
726.467	3933.47
726.653	4072.73
726.84	4064.54
727.027	4025.62
727.213	3872.03
727.4	4087.06
727.586	4029.72
727.773	3980.57
727.959	3892.51
728.145	3929.37
728.332	3984.66
728.518	3935.51
728.705	3892.51
728.891	3906.84
729.077	3888.41
729.264	3953.94
729.45	3978.52
729.636	4025.62
729.823	3849.5
730.009	4001.05
730.195	3999
730.382	3964.18
730.568	3976.47
730.754	3894.55
730.94	3992.86
731.126	3964.18
731.313	3853.59
731.499	3831.07
731.685	3798.3
731.871	3923.23
732.057	3697.95
732.243	3824.92
732.429	3861.79
732.615	3876.12
732.801	3843.35
732.987	3867.93
733.173	3927.32
733.359	3884.31
733.545	3775.77
733.731	3779.87
733.917	3878.17
734.103	3882.27
734.289	3798.3
734.475	3644.7
734.661	3777.82
734.847	3951.9
735.033	3783.96
735.219	3566.88
735.404	3812.64
735.59	3773.72
735.776	3708.19
735.962	3665.18
736.148	3740.96
736.333	3702.04
736.519	3642.65
736.705	3706.14
736.89	3681.57
737.076	3640.61
737.262	3702.04
737.447	3613.98
737.633	3593.5
737.819	3706.14
738.004	3464.48
738.19	3566.88
738.375	3519.78
738.561	3605.79
738.747	3538.21
738.932	3519.78
739.118	3659.04
739.303	3644.7
739.489	3656.99
739.674	3599.65
739.859	3327.27
740.045	3599.65
740.23	3362.08
740.416	3343.65
740.601	3386.66
740.786	3441.95
740.972	3403.04
741.157	3292.45
741.342	3392.8
741.528	3335.46
741.713	3423.52
741.898	3364.13
742.084	3343.65
742.269	3378.47
742.454	3317.03
742.639	3390.75
742.824	3237.16
743.01	3380.51
743.195	3355.94
743.38	3228.96
743.565	3261.73
743.75	3341.6
743.935	3132.71
744.12	3175.72
744.305	3083.56
744.49	3220.77
744.675	3124.52
744.86	3116.33
745.045	3087.65
745.23	3011.88
745.415	3079.46
745.6	3032.36
745.785	2985.26
745.97	3108.13
746.155	3054.89
746.34	2911.53
746.525	3022.12
746.71	2968.87
746.895	2968.87
747.079	2977.06
747.264	2866.47
747.449	2940.2
747.634	2880.81
747.819	2800.94
748.003	2809.13
748.188	2841.9
748.373	2889
748.557	2708.78
748.742	2727.21
748.927	2673.96
749.111	2725.16
749.296	2710.83
749.481	2727.21
749.665	2649.39
749.85	2633.01
750.034	2710.83
750.219	2563.37
750.404	2514.22
750.588	2583.85
750.773	2649.39
750.957	2608.43
751.141	2506.03
751.326	2526.51
751.51	2549.04
751.695	2555.18
751.879	2411.82
752.064	2473.26
752.248	2475.31
752.432	2415.92
752.617	2430.26
752.801	2374.96
752.985	2436.4
753.17	2407.73
753.354	2438.45
753.538	2264.37
753.722	2362.67
753.907	2131.25
754.091	2383.15
754.275	2252.08
754.459	2247.99
754.643	2280.75
754.828	2180.4
755.012	2200.88
755.196	2127.16
755.38	2159.92
755.564	2131.25
755.748	2069.81
755.932	2231.6
756.116	2069.81
756.3	2204.98
756.484	2035
756.668	2094.39
756.852	2030.9
757.036	1983.8
757.22	2004.28
757.404	2108.73
757.588	1893.69
757.772	2051.38
757.956	1996.09
758.14	1908.02
758.323	1887.54
758.507	1926.46
758.691	1926.46
758.875	1846.59
759.059	1912.12
759.242	1826.11
759.426	1740.09
759.61	1824.06
759.794	1748.28
759.977	1709.37
760.161	1881.4
760.345	1787.19
760.528	1826.11
760.712	1764.67
760.895	1781.05
761.079	1723.71
761.263	1672.51
761.446	1621.31
761.63	1674.56
761.813	1740.09
761.997	1666.36
762.18	1631.55
762.364	1695.04
762.547	1592.64
762.731	1672.51
762.914	1744.19
763.098	1727.8
763.281	1656.12
763.464	1684.8
763.648	1619.26
763.831	1592.64
764.015	1535.29
764.198	1627.45
764.381	1510.72
764.564	1559.87
764.748	1609.02
764.931	1588.54
765.114	1584.45
765.297	1525.05
765.481	1580.35
765.664	1525.05
765.847	1606.97
766.03	1469.76
766.213	1547.58
766.397	1523.01
766.58	1346.88
766.763	1451.33
766.946	1439.04
767.129	1447.23
767.312	1482.05
767.495	1559.87
767.678	1338.69
767.861	1432.9
768.044	1355.07
768.227	1531.2
768.41	1492.29
768.593	1383.74
768.776	1412.42
768.959	1330.5
769.142	1408.32
769.324	1312.07
769.507	1363.26
769.69	1264.96
769.873	1322.31
770.056	1410.37
770.239	1420.61
770.421	1375.55
770.604	1326.4
770.787	1250.63
770.97	1283.39
771.152	1271.11
771.335	1353.02
771.518	1203.52
771.7	1244.48
771.883	1314.11
772.066	1236.29
772.248	1195.33
772.431	1250.63
772.613	1336.64
772.796	1174.85
772.978	1283.39
773.161	1144.13
773.343	1131.84
773.526	1207.62
773.708	1281.35
773.891	1137.99
774.073	1152.32
774.256	1097.03
774.438	1232.19
774.621	1170.76
774.803	1072.45
774.985	1068.36
775.168	1129.8
775.35	1199.43
775.532	1185.09
775.715	1035.59
775.897	1078.6
776.079	1060.17
776.261	1099.08
776.444	1074.5
776.626	1113.41
776.808	1111.36
776.99	990.53
777.173	994.63
777.355	1082.69
777.537	998.73
777.719	1037.64
777.901	902.47
778.083	1051.97
778.265	884.04
778.447	963.91
778.629	994.63
778.811	1062.21
778.993	951.62
779.175	951.62
779.357	974.15
779.539	865.61
779.721	900.42
779.903	877.9
780.085	945.48
780.267	888.14
780.449	871.75
780.631	916.81
780.812	955.72
780.994	871.75
781.176	826.7
781.358	816.46
781.54	849.22
781.721	859.46
781.903	877.9
782.085	847.18
782.267	822.6
782.448	857.42
782.63	812.36
782.812	851.27
782.993	771.4
783.175	795.98
783.357	832.84
783.538	828.74
783.72	767.31
783.901	761.16
784.083	771.4
784.264	757.07
784.446	722.25
784.627	720.2
784.809	740.68
784.99	675.15
785.172	738.63
785.353	662.86
785.535	714.06
785.716	705.87
785.897	738.63
786.079	732.49
786.26	658.76
786.441	640.33
786.623	623.95
786.804	681.29
786.985	630.09
787.167	662.86
787.348	634.19
787.529	568.65
787.71	783.69
787.891	574.8
788.073	638.28
788.254	632.14
788.435	638.28
788.616	525.65
788.797	568.65
788.978	570.7
789.159	546.12
789.34	646.48
789.522	585.04
789.703	574.8
789.884	568.65
790.065	589.13
790.246	603.47
790.427	560.46
790.607	582.99
790.788	580.94
790.969	556.36
791.15	546.12
791.331	542.03
791.512	576.84
791.693	539.98
791.874	582.99
792.054	609.61
792.235	546.12
792.416	490.83
792.597	564.56
792.778	529.74
792.958	519.5
793.139	478.54
793.32	515.41
793.5	515.41
793.681	560.46
793.862	513.36
794.042	548.17
794.223	544.08
794.404	492.88
794.584	427.34
794.765	462.16
794.945	451.92
795.126	496.97
795.306	390.48
795.487	476.49
795.667	396.62
795.848	486.73
796.028	388.43
796.209	468.3
796.389	419.15
796.57	314.7
796.75	445.77
796.93	427.34
797.111	419.15
797.291	482.64
797.471	437.58
797.652	466.25
797.832	511.31
798.012	386.38
798.192	398.67
798.373	413.01
798.553	347.47
798.733	464.21
798.913	380.24
799.093	372.05
799.274	363.86
799.454	453.97
799.634	380.24
799.814	380.24
799.994	429.39
800.174	396.62
800.354	347.47
800.534	361.81
800.714	357.71
800.894	404.82
801.074	302.42
801.254	329.04
801.434	408.91
801.614	408.91
801.794	357.71
801.974	828.74
802.154	396.62
802.334	314.7
802.514	386.38
802.693	378.19
802.873	357.71
803.053	419.15
803.233	343.38
803.413	413.01
803.592	351.57
803.772	298.32
803.952	312.66
804.131	341.33
804.311	390.48
804.491	390.48
804.67	306.51
804.85	339.28
805.03	353.62
805.209	263.51
805.389	353.62
805.568	331.09
805.748	281.94
805.928	302.42
806.107	283.99
806.287	277.84
806.466	349.52
806.646	288.08
806.825	322.9
807.004	253.27
807.184	363.86
807.363	347.47
807.543	337.23
807.722	236.88
807.901	286.03
808.081	283.99
808.26	220.5
808.439	312.66
808.619	310.61
808.798	275.79
808.977	331.09
809.156	240.98
809.336	269.65
809.515	277.84
809.694	253.27
809.873	253.27
810.052	294.22
810.231	341.33
810.411	275.79
810.59	253.27
810.769	261.46
810.948	300.37
811.127	230.74
811.306	200.02
811.485	308.56
811.664	290.13
811.843	163.15
812.022	257.36
812.201	324.94
812.38	175.44
812.559	238.93
812.737	286.03
812.916	267.6
813.095	240.98
813.274	247.12
813.453	181.59
813.632	249.17
813.811	318.8
813.989	159.06
814.168	343.38
814.347	208.21
814.526	314.7
814.704	189.78
814.883	236.88
815.062	212.31
815.24	247.12
815.419	228.69
815.598	253.27
815.776	171.35
815.955	232.79
816.133	298.32
816.312	228.69
816.49	257.36
816.669	177.49
816.847	173.39
817.026	263.51
817.204	183.63
817.383	187.73
817.561	148.82
817.74	232.79
817.918	263.51
818.097	236.88
818.275	210.26
818.453	236.88
818.632	273.75
818.81	179.54
818.988	181.59
819.167	216.4
819.345	179.54
819.523	68.95
819.701	240.98
819.879	105.81
820.058	144.72
820.236	173.39
820.414	197.97
820.592	208.21
820.77	181.59
820.948	181.59
821.127	191.83
821.305	189.78
821.483	120.15
821.661	208.21
821.839	169.3
822.017	214.35
822.195	179.54
822.373	232.79
822.551	134.48
822.729	167.25
822.907	255.31
823.085	175.44
823.262	253.27
823.44	177.49
823.618	161.11
823.796	204.11
823.974	152.91
824.152	152.91
824.329	200.02
824.507	105.81
824.685	101.72
824.863	177.49
825.04	193.87
825.218	189.78
825.396	216.4
825.574	136.53
825.751	142.68
825.929	109.91
826.107	114
826.284	191.83
826.462	142.68
826.639	191.83
826.817	114
826.994	161.11
827.172	157.01
827.349	136.53
827.527	161.11
827.704	159.06
827.882	200.02
828.059	118.1
828.237	109.91
828.414	136.53
828.591	66.9
828.769	142.68
828.946	154.96
829.124	220.5
829.301	114
829.478	195.92
829.655	130.39
829.833	120.15
830.01	103.76
830.187	97.62
830.364	109.91
830.542	154.96
830.719	187.73
830.896	157.01
831.073	154.96
831.25	95.57
831.427	124.24
831.604	181.59
831.782	175.44
831.959	193.87
832.136	138.58
832.313	144.72
832.49	159.06
832.667	95.57
832.844	99.67
833.021	197.97
833.198	167.25
833.374	161.11
833.551	183.63
833.728	48.47
833.905	157.01
834.082	165.2
834.259	73.04
834.436	101.72
834.612	19.8
834.789	157.01
834.966	89.43
835.143	171.35
835.319	64.85
835.496	142.68
835.673	66.9
835.85	136.53
836.026	91.48
836.203	150.87
836.38	36.18
836.556	116.05
836.733	122.2
836.909	138.58
837.086	89.43
837.262	118.1
837.439	99.67
837.616	75.09
837.792	124.24
837.968	134.48
838.145	144.72
838.321	91.48
838.498	89.43
838.674	128.34
838.851	124.24
839.027	99.67
839.203	208.21
839.38	95.57
839.556	81.24
839.732	118.1
839.909	159.06
840.085	93.52
840.261	103.76
840.437	97.62
840.614	44.37
840.79	105.81
840.966	52.56
841.142	87.38
841.318	87.38
841.494	73.04
841.671	116.05
841.847	36.18
842.023	89.43
842.199	134.48
842.375	93.52
842.551	42.32
842.727	114
842.903	154.96
843.079	77.14
843.255	81.24
843.431	23.89
843.607	42.32
843.783	9.56
843.959	58.71
844.134	40.28
844.31	48.47
844.486	159.06
844.662	40.28
844.838	83.28
845.013	25.94
845.189	7.51
845.365	79.19
845.541	142.68
845.716	77.14
845.892	99.67
846.068	85.33
846.244	1.37
846.419	93.52
846.595	83.28
846.77	56.66
846.946	109.91
847.122	75.09
847.297	-8.87
847.473	105.81
847.648	83.28
847.824	71
847.999	-25.26
848.175	60.76
848.35	93.52
848.526	132.44
848.701	77.14
848.876	95.57
849.052	60.76
849.227	46.42
849.403	56.66
849.578	103.76
849.753	85.33
849.929	30.04
850.104	21.85
850.279	44.37
850.454	54.61
850.63	54.61
850.805	44.37
850.98	91.48
851.155	25.94
851.33	75.09
851.505	-55.98
851.681	66.9
851.856	-37.55
852.031	58.71
852.206	64.85
852.381	60.76
852.556	36.18
852.731	97.62
852.906	87.38
853.081	132.44
853.256	138.58
853.431	75.09
853.606	46.42
853.781	27.99
853.956	19.8
854.131	62.8
854.305	44.37
854.48	25.94
854.655	109.91
854.83	27.99
855.005	50.52
855.18	105.81
855.354	60.76
855.529	13.65
855.704	30.04
855.879	58.71
856.053	73.04
856.228	99.67
856.403	-27.31
856.577	83.28
856.752	-25.26
856.926	134.48
857.101	27.99
857.276	-21.16
857.45	56.66
857.625	97.62
857.799	56.66
857.974	89.43
858.148	-45.74
858.323	32.08
858.497	40.28
858.672	77.14
858.846	66.9
859.02	83.28
859.195	73.04
859.369	13.65
859.543	-4.78
859.718	36.18
859.892	15.7
860.066	77.14
860.241	40.28
860.415	5.46
860.589	19.8
860.763	93.52
860.938	-53.93
861.112	142.68
861.286	56.66
861.46	93.52
861.634	7.51
861.808	64.85
861.982	95.57
862.157	-21.16
862.331	-29.35
862.505	99.67
862.679	64.85
862.853	101.72
863.027	58.71
863.201	140.63
863.375	27.99
863.549	81.24
863.722	36.18
863.896	77.14
864.07	40.28
864.244	52.56
864.418	32.08
864.592	36.18
864.766	50.52
864.939	46.42
865.113	-4.78
865.287	-4.78
865.461	-12.97
865.634	9.56
865.808	79.19
865.982	-41.64
866.156	-23.21
866.329	-82.6
866.503	3.41
866.676	85.33
866.85	-12.97
867.024	54.61
867.197	85.33
867.371	77.14
867.544	64.85
867.718	-4.78
867.891	79.19
868.065	48.47
868.238	-25.26
868.412	91.48
868.585	17.75
868.759	-25.26
868.932	-8.87
869.105	-51.88
869.279	-0.68
869.452	75.09
869.625	17.75
869.799	109.91
869.972	-12.97
870.145	116.05
870.319	58.71
870.492	68.95
870.665	40.28
870.838	-33.45
871.011	-60.07
871.185	25.94
871.358	-25.26
871.531	23.89
871.704	-12.97
871.877	11.61
872.05	52.56
872.223	19.8
872.396	-15.02
872.569	66.9
872.742	-0.68
872.915	36.18
873.088	-12.97
873.261	-49.83
873.434	21.85
873.607	56.66
873.78	13.65
873.953	-25.26
874.126	-6.83
874.299	27.99
874.471	99.67
874.644	-33.45
874.817	27.99
874.99	68.95
875.163	13.65
875.335	19.8
875.508	25.94
875.681	64.85
875.853	-64.17
876.026	66.9
876.199	-37.55
876.371	-4.78
876.544	-0.68
876.717	13.65
876.889	15.7
877.062	1.37
877.234	3.41
877.407	-23.21
877.579	-4.78
877.752	36.18
877.924	44.37
878.097	-37.55
878.269	-21.16
878.442	-47.79
878.614	34.13
878.786	83.28
878.959	-4.78
879.131	-8.87
879.303	19.8
879.476	42.32
879.648	36.18
879.82	15.7
879.993	-60.07
880.165	-0.68
880.337	1.37
880.509	71
880.681	-10.92
880.854	87.38
881.026	105.81
881.198	93.52
881.37	126.29
881.542	87.38
881.714	-23.21
881.886	38.23
882.058	64.85
882.23	15.7
882.402	7.51
882.574	77.14
882.746	93.52
882.918	17.75
883.09	-39.59
883.262	-6.83
883.434	44.37
883.606	-41.64
883.778	46.42
883.95	15.7
884.122	48.47
884.293	58.71
884.465	-47.79
884.637	42.32
884.809	3.41
884.98	66.9
885.152	7.51
885.324	44.37
885.496	-43.69
885.667	17.75
885.839	17.75
886.011	109.91
886.182	52.56
886.354	17.75
886.525	-19.11
886.697	-0.68
886.869	21.85
887.04	-64.17
887.212	38.23
887.383	66.9
887.555	13.65
887.726	56.66
887.897	-19.11
888.069	-35.5
888.24	11.61
888.412	-15.02
888.583	32.08
888.754	-10.92
888.926	9.56
889.097	7.51
889.268	-4.78
889.44	3.41
889.611	-29.35
889.782	25.94
889.953	-78.51
890.125	95.57
890.296	15.7
890.467	-58.03
890.638	11.61
890.809	27.99
890.98	17.75
891.151	-0.68
891.323	71
891.494	50.52
891.665	-35.5
891.836	56.66
892.007	32.08
892.178	36.18
892.349	-6.83
892.52	-2.73
892.691	19.8
892.862	52.56
893.032	-21.16
893.203	68.95
893.374	25.94
893.545	58.71
893.716	-6.83
893.887	9.56
894.057	36.18
894.228	-15.02
894.399	-17.07
894.57	36.18
894.74	3.41
894.911	-12.97
895.082	52.56
895.253	-0.68
895.423	-0.68
895.594	23.89
895.764	52.56
895.935	15.7
896.106	7.51
896.276	56.66
896.447	11.61
896.617	-33.45
896.788	30.04
896.958	5.46
897.129	42.32
897.299	-35.5
897.47	1.37
897.64	-4.78
897.81	-58.03
897.981	79.19
898.151	-12.97
898.322	17.75
898.492	30.04
898.662	-29.35
898.832	-8.87
899.003	-2.73
899.173	66.9
899.343	-10.92
899.513	-53.93
