Data from USB4F104151__279__10-41-12-499.txt Node

Date: Wed Mar 12 10:41:12 EDT 2025
User: louis
Spectrometer: USB4F10415
Trigger mode: 4
Integration Time (sec): 3.000000E-2
Scans to average: 1
Electric dark correction enabled: true
Nonlinearity correction enabled: false
Boxcar width: 0
XAxis mode: Wavelengths
Number of Pixels in Spectrum: 3648
>>>>>Begin Spectral Data<<<<<
178.204	-119.98
178.424	-119.98
178.644	-119.98
178.864	-68.78
179.084	-19.63
179.304	11.09
179.524	-7.34
179.744	-40.11
179.964	68.44
180.184	-15.53
180.404	15.19
180.624	21.33
180.844	-50.35
181.064	2.9
181.283	-15.53
181.503	-46.25
181.723	56.15
181.943	-27.82
182.163	97.11
182.383	-19.63
182.602	90.96
182.822	33.62
183.042	60.24
183.262	88.92
183.482	88.92
183.701	35.67
183.921	-23.72
184.141	56.15
184.361	142.16
184.58	11.09
184.8	58.2
185.02	21.33
185.239	76.63
185.459	103.25
185.679	156.5
185.898	-19.63
186.118	66.39
186.338	29.52
186.557	21.33
186.777	-5.29
186.997	27.48
187.216	60.24
187.436	88.92
187.655	70.48
187.875	70.48
188.095	-42.15
188.314	58.2
188.534	101.2
188.753	103.25
188.973	35.67
189.192	72.53
189.412	-50.35
189.631	62.29
189.851	37.72
190.07	107.35
190.29	27.48
190.509	-3.24
190.729	70.48
190.948	45.91
191.168	162.64
191.387	111.44
191.607	-29.87
191.826	9.05
192.045	-13.48
192.265	-7.34
192.484	43.86
192.704	-27.82
192.923	31.57
193.142	170.83
193.362	82.77
193.581	103.25
193.8	88.92
194.02	41.81
194.239	68.44
194.458	37.72
194.678	-33.96
194.897	121.68
195.116	72.53
195.335	86.87
195.555	99.16
195.774	52.05
195.993	60.24
196.212	41.81
196.432	62.29
196.651	97.11
196.87	45.91
197.089	90.96
197.308	84.82
197.528	17.24
197.747	-13.48
197.966	66.39
198.185	101.2
198.404	4.95
198.623	107.35
198.842	95.06
199.062	150.36
199.281	101.2
199.5	11.09
199.719	13.14
199.938	68.44
200.157	45.91
200.376	105.3
200.595	-13.48
200.814	66.39
201.033	-48.3
201.252	25.43
201.471	95.06
201.69	76.63
201.909	35.67
202.128	74.58
202.347	101.2
202.566	4.95
202.785	-9.39
203.004	2.9
203.223	82.77
203.442	25.43
203.661	64.34
203.879	37.72
204.098	113.49
204.317	33.62
204.536	90.96
204.755	62.29
204.974	41.81
205.193	15.19
205.411	105.3
205.63	103.25
205.849	21.33
206.068	37.72
206.287	47.96
206.505	78.68
206.724	68.44
206.943	13.14
207.162	-3.24
207.381	11.09
207.599	37.72
207.818	93.01
208.037	52.05
208.255	-1.19
208.474	84.82
208.693	78.68
208.911	60.24
209.13	66.39
209.349	95.06
209.567	123.73
209.786	47.96
210.005	23.38
210.223	54.1
210.442	-7.34
210.661	58.2
210.879	47.96
211.098	13.14
211.316	-13.48
211.535	-17.58
211.753	119.64
211.972	2.9
212.191	56.15
212.409	60.24
212.628	84.82
212.846	84.82
213.065	82.77
213.283	97.11
213.502	54.1
213.72	37.72
213.938	9.05
214.157	74.58
214.375	54.1
214.594	68.44
214.812	64.34
215.031	105.3
215.249	13.14
215.467	109.4
215.686	39.76
215.904	21.33
216.122	17.24
216.341	123.73
216.559	86.87
216.778	111.44
216.996	47.96
217.214	-44.2
217.432	47.96
217.651	58.2
217.869	23.38
218.087	-23.72
218.306	70.48
218.524	68.44
218.742	105.3
218.96	88.92
219.179	56.15
219.397	41.81
219.615	45.91
219.833	-17.58
220.051	-52.39
220.27	99.16
220.488	-3.24
220.706	84.82
220.924	11.09
221.142	140.12
221.36	82.77
221.578	60.24
221.796	43.86
222.015	25.43
222.233	74.58
222.451	82.77
222.669	21.33
222.887	86.87
223.105	70.48
223.323	70.48
223.541	35.67
223.759	97.11
223.977	-3.24
224.195	74.58
224.413	103.25
224.631	58.2
224.849	101.2
225.067	72.53
225.285	45.91
225.503	-15.53
225.721	13.14
225.939	84.82
226.157	76.63
226.375	54.1
226.592	62.29
226.81	2.9
227.028	25.43
227.246	105.3
227.464	35.67
227.682	23.38
227.9	13.14
228.117	31.57
228.335	56.15
228.553	86.87
228.771	25.43
228.989	-15.53
229.206	90.96
229.424	82.77
229.642	54.1
229.86	45.91
230.077	78.68
230.295	50
230.513	123.73
230.731	82.77
230.948	72.53
231.166	33.62
231.384	62.29
231.601	-11.43
231.819	72.53
232.037	72.53
232.254	66.39
232.472	7
232.689	125.78
232.907	93.01
233.125	47.96
233.342	43.86
233.56	68.44
233.777	-33.96
233.995	25.43
234.213	54.1
234.43	60.24
234.648	62.29
234.865	115.54
235.083	56.15
235.3	70.48
235.518	103.25
235.735	99.16
235.953	90.96
236.17	21.33
236.388	56.15
236.605	68.44
236.822	54.1
237.04	58.2
237.257	-25.77
237.475	62.29
237.692	74.58
237.909	43.86
238.127	4.95
238.344	78.68
238.562	19.29
238.779	58.2
238.996	-54.44
239.214	95.06
239.431	76.63
239.648	31.57
239.865	123.73
240.083	90.96
240.3	2.9
240.517	-11.43
240.735	56.15
240.952	54.1
241.169	86.87
241.386	-19.63
241.603	37.72
241.821	62.29
242.038	15.19
242.255	41.81
242.472	15.19
242.689	136.02
242.907	31.57
243.124	31.57
243.341	66.39
243.558	50
243.775	84.82
243.992	17.24
244.209	50
244.426	136.02
244.643	52.05
244.86	31.57
245.078	15.19
245.295	78.68
245.512	80.72
245.729	43.86
245.946	74.58
246.163	17.24
246.38	103.25
246.597	37.72
246.814	-7.34
247.031	2.9
247.248	95.06
247.464	45.91
247.681	54.1
247.898	39.76
248.115	72.53
248.332	9.05
248.549	76.63
248.766	136.02
248.983	37.72
249.2	17.24
249.417	80.72
249.633	33.62
249.85	54.1
250.067	43.86
250.284	2.9
250.501	54.1
250.717	41.81
250.934	25.43
251.151	15.19
251.368	113.49
251.585	56.15
251.801	0.85
252.018	54.1
252.235	70.48
252.451	0.85
252.668	-21.67
252.885	62.29
253.102	62.29
253.318	15.19
253.535	86.87
253.752	4.95
253.968	101.2
254.185	19.29
254.401	25.43
254.618	97.11
254.835	9.05
255.051	78.68
255.268	27.48
255.484	72.53
255.701	0.85
255.917	99.16
256.134	43.86
256.351	-3.24
256.567	39.76
256.784	88.92
257	70.48
257.217	-19.63
257.433	115.54
257.65	52.05
257.866	86.87
258.082	50
258.299	52.05
258.515	52.05
258.732	37.72
258.948	-25.77
259.165	95.06
259.381	50
259.597	72.53
259.814	-9.39
260.03	43.86
260.246	27.48
260.463	68.44
260.679	84.82
260.895	31.57
261.112	119.64
261.328	133.97
261.544	29.52
261.761	86.87
261.977	90.96
262.193	21.33
262.409	78.68
262.626	115.54
262.842	123.73
263.058	39.76
263.274	123.73
263.49	60.24
263.707	113.49
263.923	54.1
264.139	37.72
264.355	60.24
264.571	121.68
264.787	70.48
265.004	133.97
265.22	103.25
265.436	41.81
265.652	2.9
265.868	109.4
266.084	86.87
266.3	121.68
266.516	4.95
266.732	86.87
266.948	35.67
267.164	-11.43
267.38	74.58
267.596	99.16
267.812	111.44
268.028	35.67
268.244	4.95
268.46	52.05
268.676	13.14
268.892	68.44
269.108	2.9
269.324	0.85
269.54	84.82
269.756	33.62
269.972	82.77
270.188	88.92
270.403	101.2
270.619	47.96
270.835	17.24
271.051	0.85
271.267	21.33
271.483	88.92
271.698	70.48
271.914	-13.48
272.13	88.92
272.346	103.25
272.562	76.63
272.777	90.96
272.993	35.67
273.209	47.96
273.425	93.01
273.64	-11.43
273.856	82.77
274.072	41.81
274.287	-1.19
274.503	119.64
274.719	31.57
274.934	60.24
275.15	4.95
275.366	70.48
275.581	60.24
275.797	17.24
276.012	70.48
276.228	72.53
276.444	29.52
276.659	52.05
276.875	82.77
277.09	29.52
277.306	23.38
277.521	119.64
277.737	25.43
277.952	121.68
278.168	13.14
278.383	70.48
278.599	-33.96
278.814	27.48
279.03	80.72
279.245	58.2
279.461	105.3
279.676	113.49
279.892	-9.39
280.107	60.24
280.322	-25.77
280.538	21.33
280.753	64.34
280.969	45.91
281.184	43.86
281.399	27.48
281.615	68.44
281.83	86.87
282.045	97.11
282.26	31.57
282.476	56.15
282.691	25.43
282.906	19.29
283.122	13.14
283.337	21.33
283.552	90.96
283.767	47.96
283.983	39.76
284.198	68.44
284.413	43.86
284.628	52.05
284.843	15.19
285.058	82.77
285.274	129.88
285.489	62.29
285.704	119.64
285.919	2.9
286.134	66.39
286.349	43.86
286.564	52.05
286.779	86.87
286.995	7
287.21	-5.29
287.425	0.85
287.64	19.29
287.855	97.11
288.07	-38.06
288.285	54.1
288.5	74.58
288.715	31.57
288.93	4.95
289.145	45.91
289.36	111.44
289.575	99.16
289.79	90.96
290.004	-3.24
290.219	101.2
290.434	35.67
290.649	70.48
290.864	9.05
291.079	-5.29
291.294	-23.72
291.509	90.96
291.724	101.2
291.938	58.2
292.153	72.53
292.368	23.38
292.583	13.14
292.798	25.43
293.012	111.44
293.227	15.19
293.442	23.38
293.657	115.54
293.871	31.57
294.086	123.73
294.301	33.62
294.516	103.25
294.73	66.39
294.945	-13.48
295.16	-23.72
295.374	84.82
295.589	84.82
295.804	113.49
296.018	60.24
296.233	111.44
296.447	41.81
296.662	-9.39
296.877	109.4
297.091	97.11
297.306	-5.29
297.52	31.57
297.735	58.2
297.949	76.63
298.164	105.3
298.378	45.91
298.593	17.24
298.807	15.19
299.022	21.33
299.236	105.3
299.451	90.96
299.665	109.4
299.88	43.86
300.094	41.81
300.309	95.06
300.523	62.29
300.737	29.52
300.952	11.09
301.166	95.06
301.381	25.43
301.595	37.72
301.809	90.96
302.024	76.63
302.238	-13.48
302.452	123.73
302.667	62.29
302.881	90.96
303.095	162.64
303.309	31.57
303.524	43.86
303.738	80.72
303.952	78.68
304.166	76.63
304.381	-29.87
304.595	127.83
304.809	50
305.023	43.86
305.237	7
305.452	37.72
305.666	82.77
305.88	72.53
306.094	111.44
306.308	117.59
306.522	97.11
306.736	60.24
306.95	25.43
307.164	66.39
307.379	33.62
307.593	45.91
307.807	31.57
308.021	107.35
308.235	25.43
308.449	-72.87
308.663	103.25
308.877	76.63
309.091	86.87
309.305	107.35
309.519	29.52
309.733	54.1
309.947	52.05
310.161	35.67
310.374	82.77
310.588	95.06
310.802	-17.58
311.016	-3.24
311.23	74.58
311.444	37.72
311.658	107.35
311.872	70.48
312.085	97.11
312.299	95.06
312.513	99.16
312.727	45.91
312.941	31.57
313.154	70.48
313.368	68.44
313.582	72.53
313.796	97.11
314.009	66.39
314.223	74.58
314.437	50
314.651	123.73
314.864	-11.43
315.078	88.92
315.292	72.53
315.505	19.29
315.719	9.05
315.933	95.06
316.146	86.87
316.36	9.05
316.573	93.01
316.787	33.62
317.001	78.68
317.214	93.01
317.428	25.43
317.641	17.24
317.855	80.72
318.068	70.48
318.282	25.43
318.495	111.44
318.709	39.76
318.922	-11.43
319.136	111.44
319.349	60.24
319.563	156.5
319.776	27.48
319.99	7
320.203	142.16
320.417	13.14
320.63	60.24
320.843	156.5
321.057	88.92
321.27	107.35
321.483	25.43
321.697	156.5
321.91	105.3
322.124	84.82
322.337	70.48
322.55	78.68
322.763	78.68
322.977	133.97
323.19	27.48
323.403	50
323.617	107.35
323.83	88.92
324.043	74.58
324.256	97.11
324.469	76.63
324.683	156.5
324.896	82.77
325.109	90.96
325.322	4.95
325.535	58.2
325.748	78.68
325.962	58.2
326.175	99.16
326.388	52.05
326.601	68.44
326.814	103.25
327.027	80.72
327.24	58.2
327.453	-23.72
327.666	95.06
327.879	121.68
328.092	70.48
328.305	84.82
328.518	13.14
328.731	43.86
328.944	72.53
329.157	25.43
329.37	123.73
329.583	62.29
329.796	86.87
330.009	-5.29
330.222	80.72
330.435	109.4
330.648	74.58
330.861	43.86
331.073	82.77
331.286	107.35
331.499	19.29
331.712	11.09
331.925	72.53
332.138	11.09
332.35	66.39
332.563	82.77
332.776	68.44
332.989	43.86
333.202	29.52
333.414	68.44
333.627	64.34
333.84	111.44
334.053	97.11
334.265	4.95
334.478	-1.19
334.691	39.76
334.903	74.58
335.116	45.91
335.329	35.67
335.541	33.62
335.754	119.64
335.966	21.33
336.179	54.1
336.392	115.54
336.604	123.73
336.817	13.14
337.029	62.29
337.242	33.62
337.454	93.01
337.667	45.91
337.88	142.16
338.092	140.12
338.305	101.2
338.517	84.82
338.729	101.2
338.942	86.87
339.154	111.44
339.367	15.19
339.579	50
339.792	41.81
340.004	72.53
340.217	4.95
340.429	39.76
340.641	15.19
340.854	9.05
341.066	4.95
341.278	97.11
341.491	80.72
341.703	62.29
341.915	117.59
342.128	109.4
342.34	60.24
342.552	-50.35
342.764	105.3
342.977	115.54
343.189	35.67
343.401	23.38
343.613	43.86
343.826	97.11
344.038	62.29
344.25	45.91
344.462	121.68
344.674	29.52
344.886	74.58
345.099	76.63
345.311	58.2
345.523	41.81
345.735	70.48
345.947	80.72
346.159	109.4
346.371	80.72
346.583	62.29
346.795	168.79
347.007	19.29
347.219	105.3
347.431	72.53
347.643	172.88
347.855	66.39
348.067	31.57
348.279	29.52
348.491	74.58
348.703	82.77
348.915	109.4
349.127	115.54
349.339	58.2
349.551	-36.01
349.763	99.16
349.975	33.62
350.187	78.68
350.399	105.3
350.61	127.83
350.822	37.72
351.034	86.87
351.246	45.91
351.458	68.44
351.669	50
351.881	101.2
352.093	58.2
352.305	158.55
352.517	111.44
352.728	101.2
352.94	31.57
353.152	62.29
353.363	54.1
353.575	60.24
353.787	17.24
353.999	148.31
354.21	68.44
354.422	37.72
354.633	93.01
354.845	80.72
355.057	76.63
355.268	66.39
355.48	154.45
355.692	60.24
355.903	27.48
356.115	60.24
356.326	58.2
356.538	136.02
356.749	156.5
356.961	113.49
357.172	52.05
357.384	58.2
357.595	189.27
357.807	29.52
358.018	25.43
358.23	-36.01
358.441	131.92
358.653	131.92
358.864	37.72
359.075	74.58
359.287	84.82
359.498	29.52
359.709	93.01
359.921	70.48
360.132	45.91
360.344	115.54
360.555	103.25
360.766	58.2
360.977	74.58
361.189	121.68
361.4	93.01
361.611	164.69
361.823	29.52
362.034	93.01
362.245	82.77
362.456	78.68
362.667	54.1
362.879	54.1
363.09	41.81
363.301	82.77
363.512	35.67
363.723	41.81
363.935	15.19
364.146	80.72
364.357	21.33
364.568	66.39
364.779	45.91
364.99	103.25
365.201	50
365.412	138.07
365.623	101.2
365.834	72.53
366.045	95.06
366.256	109.4
366.467	119.64
366.678	58.2
366.889	80.72
367.1	74.58
367.311	93.01
367.522	103.25
367.733	125.78
367.944	60.24
368.155	86.87
368.366	60.24
368.577	84.82
368.788	54.1
368.999	35.67
369.209	168.79
369.42	138.07
369.631	138.07
369.842	43.86
370.053	119.64
370.264	88.92
370.474	99.16
370.685	103.25
370.896	39.76
371.107	152.4
371.317	82.77
371.528	78.68
371.739	78.68
371.95	76.63
372.16	115.54
372.371	21.33
372.582	66.39
372.792	109.4
373.003	29.52
373.214	203.6
373.424	97.11
373.635	72.53
373.846	138.07
374.056	60.24
374.267	62.29
374.477	88.92
374.688	93.01
374.898	133.97
375.109	80.72
375.319	-11.43
375.53	58.2
375.74	129.88
375.951	82.77
376.161	78.68
376.372	123.73
376.582	107.35
376.793	97.11
377.003	125.78
377.214	105.3
377.424	74.58
377.635	99.16
377.845	52.05
378.055	152.4
378.266	117.59
378.476	41.81
378.686	103.25
378.897	95.06
379.107	72.53
379.317	109.4
379.528	50
379.738	45.91
379.948	-7.34
380.158	133.97
380.369	66.39
380.579	136.02
380.789	82.77
380.999	37.72
381.21	103.25
381.42	150.36
381.63	25.43
381.84	121.68
382.05	72.53
382.261	164.69
382.471	66.39
382.681	84.82
382.891	156.5
383.101	152.4
383.311	0.85
383.521	111.44
383.731	99.16
383.941	35.67
384.151	13.14
384.361	82.77
384.571	74.58
384.781	119.64
384.991	185.17
385.201	117.59
385.411	107.35
385.621	109.4
385.831	60.24
386.041	50
386.251	62.29
386.461	146.26
386.671	25.43
386.881	15.19
387.091	50
387.301	152.4
387.511	103.25
387.72	43.86
387.93	150.36
388.14	88.92
388.35	136.02
388.56	84.82
388.769	54.1
388.979	152.4
389.189	19.29
389.399	64.34
389.609	78.68
389.818	125.78
390.028	109.4
390.238	84.82
390.447	54.1
390.657	93.01
390.867	62.29
391.076	95.06
391.286	101.2
391.496	129.88
391.705	119.64
391.915	148.31
392.125	86.87
392.334	121.68
392.544	123.73
392.753	97.11
392.963	86.87
393.172	74.58
393.382	90.96
393.591	201.55
393.801	138.07
394.01	158.55
394.22	160.59
394.429	97.11
394.639	115.54
394.848	115.54
395.058	101.2
395.267	99.16
395.477	144.21
395.686	86.87
395.895	234.32
396.105	107.35
396.314	189.27
396.524	174.93
396.733	119.64
396.942	129.88
397.152	133.97
397.361	162.64
397.57	74.58
397.78	109.4
397.989	181.07
398.198	146.26
398.407	172.88
398.617	142.16
398.826	133.97
399.035	172.88
399.244	97.11
399.453	158.55
399.663	170.83
399.872	176.98
400.081	138.07
400.29	185.17
400.499	185.17
400.708	181.07
400.917	172.88
401.127	76.63
401.336	113.49
401.545	209.75
401.754	197.46
401.963	267.09
402.172	164.69
402.381	119.64
402.59	133.97
402.799	107.35
403.008	117.59
403.217	148.31
403.426	234.32
403.635	219.99
403.844	168.79
404.053	152.4
404.262	160.59
404.471	138.07
404.68	254.8
404.888	150.36
405.097	209.75
405.306	179.03
405.515	197.46
405.724	211.79
405.933	334.67
406.142	324.43
406.35	217.94
406.559	230.23
406.768	222.03
406.977	324.43
407.185	297.81
407.394	265.04
407.603	273.23
407.812	258.9
408.02	250.71
408.229	283.47
408.438	195.41
408.646	330.58
408.855	273.23
409.064	404.3
409.272	295.76
409.481	387.92
409.69	359.25
409.898	394.06
410.107	424.78
410.315	406.35
410.524	435.02
410.733	471.89
410.941	377.68
411.15	478.03
411.358	455.5
411.567	510.8
411.775	502.61
411.984	475.98
412.192	518.99
412.401	484.17
412.609	539.47
412.818	527.18
413.026	578.38
413.234	596.81
413.443	637.77
413.651	678.73
413.86	660.3
414.068	717.64
414.276	643.92
414.485	652.11
414.693	789.32
414.901	832.33
415.11	799.56
415.318	758.6
415.526	863.05
415.734	897.86
415.943	985.93
416.151	947.01
416.359	1006.41
416.567	994.12
416.776	996.17
416.984	1090.37
417.192	1149.76
417.4	1178.44
417.608	1088.32
417.817	1112.9
418.025	1286.98
418.233	1299.27
418.441	1309.51
418.649	1424.19
418.857	1401.66
419.065	1551.17
419.273	1416
419.481	1540.93
419.689	1663.8
419.897	1626.94
420.105	1676.09
420.313	1667.9
420.521	1868.6
420.729	1823.55
420.937	1887.03
421.145	1962.81
421.353	1985.34
421.561	2216.76
421.769	2059.06
421.977	2382.64
422.185	2310.96
422.393	2274.1
422.601	2472.75
422.809	2452.27
423.017	2552.62
423.224	2669.36
423.432	2771.76
423.64	2751.28
423.848	2943.78
424.056	2962.22
424.263	3066.66
424.471	3132.2
424.679	3207.97
424.887	3392.29
425.094	3527.46
425.302	3570.46
425.51	3660.57
425.718	3785.5
425.925	3785.5
426.133	3881.75
426.341	4203.29
426.548	4270.87
426.756	4377.36
426.964	4395.79
427.171	4655.89
427.379	4692.75
427.586	4741.9
427.794	5001.99
428.001	5174.02
428.209	5483.27
428.417	5344
428.624	5878.52
428.832	5735.17
429.039	5673.73
429.247	5776.13
429.454	6277.88
429.662	6714.09
429.869	6318.84
430.076	6767.34
430.284	6503.15
430.491	6908.65
430.699	7125.74
430.906	7299.81
431.114	7279.33
431.321	7369.44
431.528	7768.8
431.736	8147.67
431.943	8587.99
432.15	8313.56
432.358	8331.99
432.565	8983.24
432.772	8755.92
432.979	9532.1
433.187	9370.31
433.394	9460.42
433.601	10265.27
433.808	10195.64
434.016	10056.38
434.223	10595
434.43	11260.59
434.637	11115.18
434.844	11719.33
435.052	11760.29
435.259	12022.43
435.466	12024.48
435.673	11612.84
435.88	12706.45
436.087	13177.48
436.294	13380.23
436.501	13083.28
436.708	13218.44
436.915	13857.41
437.122	14172.8
437.329	14248.57
437.537	14617.21
437.743	14955.12
437.95	14865.01
438.157	15876.71
438.364	16470.62
438.571	16108.13
438.778	16192.09
438.985	17631.82
439.192	16953.94
439.399	17482.31
439.606	17293.9
439.813	18457.15
440.02	19296.81
440.227	18950.71
440.433	18917.94
440.64	19427.88
440.847	19198.51
441.054	19597.87
441.261	21258.77
441.467	20877.85
441.674	21494.29
441.881	22051.33
442.088	21887.5
442.294	21627.4
442.501	22411.78
442.708	22600.19
442.914	23792.11
443.121	24556
443.328	23896.55
443.534	25668.05
443.741	25053.66
443.948	24734.17
444.154	26462.66
444.361	26204.61
444.568	26556.86
444.774	26575.3
444.981	26941.88
445.187	27539.89
445.394	28920.22
445.6	28520.87
445.807	31150.46
446.013	29641.11
446.22	30413.19
446.426	31725.94
446.633	31951.21
446.839	32772.45
447.046	31338.87
447.252	33184.09
447.459	33565.01
447.665	33065.31
447.871	34509.13
448.078	35903.79
448.284	34470.22
448.491	35291.45
448.697	36542.76
448.903	37400.86
449.11	37521.69
449.316	36555.05
449.522	37447.96
449.728	38193.42
449.935	38566.15
450.141	37992.72
450.347	39098.62
450.553	38160.66
450.76	38533.39
450.966	39997.68
451.172	39473.4
451.378	40214.77
451.584	39010.56
451.791	40290.54
451.997	40196.34
452.203	40892.65
452.409	40999.14
452.615	40747.24
452.821	38797.57
453.027	38990.08
453.233	40302.83
453.44	38623.5
453.646	39311.61
453.852	39784.69
454.058	39973.11
454.264	38836.48
454.47	39481.59
454.676	38445.32
454.882	39975.16
455.088	36358.44
455.294	36579.62
455.5	37320.99
455.705	37886.23
455.911	36254
456.117	35582.26
456.323	34851.14
456.529	33116.51
456.735	34617.67
456.941	33614.16
457.147	33057.12
457.352	31768.94
457.558	31418.74
457.764	31822.19
457.97	31050.11
458.176	30224.78
458.381	30347.65
458.587	28979.61
458.793	28922.27
458.999	27359.67
459.204	29399.44
459.41	28582.31
459.616	26880.44
459.821	26565.06
460.027	26397.12
460.233	26382.79
460.438	24838.62
460.644	25176.53
460.85	23998.95
461.055	23568.88
461.261	23540.21
461.466	21893.64
461.672	21338.64
461.878	22620.67
462.083	21238.29
462.289	20834.84
462.494	20611.61
462.7	19841.57
462.905	19118.64
463.111	19767.85
463.316	19661.35
463.522	19235.38
463.727	19536.43
463.932	19474.99
464.138	19139.12
464.343	19194.42
464.549	18790.97
464.754	19268.14
464.959	19143.22
465.165	19100.21
465.37	18057.79
465.575	17814.09
465.781	18395.71
465.986	18500.16
466.191	17711.69
466.397	17498.7
466.602	16611.93
466.807	17433.16
467.012	17351.24
467.218	17289.81
467.423	17048.15
467.628	17228.37
467.833	18029.12
468.038	17171.02
468.244	16908.88
468.449	17199.69
468.654	16826.96
468.859	16585.3
469.064	16732.76
469.269	16194.14
469.474	15948.39
469.679	16554.58
469.885	15745.64
470.09	16003.68
470.295	15936.1
470.5	15764.07
470.705	15526.5
470.91	15182.45
471.115	15407.72
471.32	15428.2
471.525	15272.56
471.73	15139.44
471.935	15002.22
472.139	14248.57
472.344	14396.03
472.549	14684.79
472.754	14240.38
472.959	14099.07
473.164	13630.09
473.369	13576.84
473.574	13965.95
473.778	13615.75
473.983	13687.43
474.188	13267.59
474.393	13101.71
474.598	13304.46
474.802	12757.65
475.007	12843.67
475.212	12991.12
475.417	12427.93
475.621	12386.97
475.826	12434.07
476.031	12303
476.235	12055.2
476.44	12225.18
476.645	12079.77
476.849	11936.42
477.054	11762.34
477.259	11698.85
477.463	11578.02
477.668	11385.51
477.872	11459.24
478.077	11362.98
478.282	11012.78
478.486	11104.94
478.691	11084.46
478.895	10875.57
479.1	10705.59
479.304	10912.43
479.509	10564.28
479.713	10719.92
479.918	10457.78
480.122	10371.77
480.326	10455.73
480.531	10543.8
480.735	10410.68
480.94	10306.23
481.144	10719.92
481.348	9923.26
481.553	10107.58
481.757	9867.97
481.961	10056.38
482.166	10332.86
482.37	10166.97
482.574	9941.69
482.778	10074.81
482.983	10408.63
483.187	10019.52
483.391	10169.02
483.595	9810.62
483.8	10015.42
484.004	9927.36
484.208	10142.39
484.412	9939.65
484.616	10046.14
484.821	9863.87
485.025	9990.84
485.229	10085.05
485.433	9788.1
485.637	10142.39
485.841	10093.24
486.045	9896.64
486.249	9902.78
486.453	9962.17
486.657	10009.28
486.861	10080.96
487.065	9867.97
487.269	10117.82
487.473	9644.74
487.677	10083
487.881	10252.98
488.085	9958.08
488.289	10150.59
488.493	10228.41
488.697	10136.25
488.901	10140.35
489.105	9917.12
489.309	10312.38
489.512	10115.77
489.716	10230.46
489.92	10085.05
490.124	10033.85
490.328	10306.23
490.531	10019.52
490.735	10189.5
490.939	10345.14
491.143	10164.92
491.346	10257.08
491.55	10357.43
491.754	10459.83
491.958	10576.56
492.161	10293.94
492.365	10597.04
492.569	10844.85
492.772	10396.34
492.976	10760.88
493.18	10646.19
493.383	10807.98
493.587	10781.36
493.79	10920.62
493.994	10951.34
494.197	10912.43
494.401	11004.59
494.605	11219.63
494.808	11199.15
495.012	11340.46
495.215	11309.74
495.419	11516.58
495.622	11252.39
495.825	11694.75
496.029	11459.24
496.232	11764.39
496.436	11819.68
496.639	12376.73
496.843	11815.59
497.046	12247.71
497.249	12495.51
497.453	12602.01
497.656	12393.11
497.859	12411.54
498.063	12999.31
498.266	13116.05
498.469	13093.52
498.673	13009.55
498.876	13263.5
499.079	13554.31
499.282	13494.92
499.485	13941.38
499.689	13767.3
499.892	13929.09
500.095	14113.41
500.298	14439.03
500.501	14289.53
500.705	14787.19
500.908	14871.15
501.111	14799.48
501.314	15227.5
501.517	15506.02
501.72	15637.09
501.923	15446.63
502.126	16026.21
502.329	16075.36
502.532	16294.49
502.735	16179.81
502.938	16638.55
503.141	16857.68
503.344	17082.96
503.547	17175.12
503.75	16976.47
503.953	17613.38
504.156	17795.65
504.359	17564.23
504.562	18184.77
504.765	18262.59
504.968	18197.06
505.17	18725.43
505.373	18764.34
505.576	19167.79
505.779	19145.27
505.982	19370.54
506.185	19716.65
506.387	19640.87
506.59	19880.49
506.793	20113.95
506.996	20159.01
507.198	20759.06
507.401	20789.78
507.604	20974.1
507.807	21465.61
508.009	21346.83
508.212	21621.26
508.415	22192.64
508.617	22231.55
508.82	22196.74
509.022	21998.09
509.225	22655.48
509.428	23269.87
509.63	23364.08
509.833	23314.93
510.035	23800.3
510.238	23792.11
510.44	24125.93
510.643	24455.65
510.845	24742.36
511.048	24181.22
511.25	24826.33
511.453	25033.18
511.655	25921.99
511.858	25682.38
512.06	25946.57
512.262	26241.48
512.465	26241.48
512.667	26735.04
512.87	26868.16
513.072	27257.27
513.274	27574.7
513.477	27914.67
513.679	27820.46
513.881	28105.13
514.084	28248.49
514.286	28606.88
514.488	28729.76
514.69	29827.47
514.893	29729.17
515.095	29827.47
515.297	29655.44
515.499	30214.54
515.701	30828.93
515.904	31070.59
516.106	30951.81
516.308	31183.23
516.51	31805.81
516.712	31748.46
516.914	31840.62
517.116	32946.53
517.318	32397.67
517.52	33132.89
517.722	33167.71
517.925	33372.5
518.127	34132.3
518.329	34236.75
518.531	34089.29
518.733	34851.14
518.935	35088.7
519.136	34834.75
519.338	35305.79
519.54	35903.79
519.742	35932.47
519.944	35764.53
520.146	36727.08
520.348	36659.49
520.55	37079.33
520.752	37011.74
520.954	37689.62
521.155	37210.4
521.357	38021.39
521.559	38129.94
521.761	39063.81
521.963	38803.72
522.164	39393.53
522.366	39596.28
522.568	39938.29
522.77	39702.78
522.971	40382.7
523.173	40155.38
523.375	40505.58
523.576	40419.56
523.778	40603.88
523.98	41126.11
524.181	41265.38
524.383	41339.1
524.584	41871.57
524.786	41871.57
524.988	41896.15
525.189	42580.17
525.391	42715.34
525.592	42801.35
525.794	42909.89
525.995	42909.89
526.197	43526.33
526.398	43483.33
526.6	43219.14
526.801	43839.67
527.003	44251.31
527.204	44023.99
527.406	44464.3
527.607	44239.03
527.808	44791.98
528.01	44101.81
528.211	44513.45
528.412	45725.85
528.614	45107.37
528.815	45340.83
529.016	45521.05
529.218	45217.96
529.419	45660.32
529.62	45414.56
529.822	45316.26
530.023	45594.78
530.224	45504.67
530.425	45918.36
530.626	45635.74
530.828	45416.61
531.029	46880.91
531.23	45596.83
531.431	46049.43
531.632	46428.3
531.833	46784.65
532.035	46504.08
532.236	46090.39
532.437	46549.14
532.638	46303.38
532.839	46762.12
533.04	47190.15
533.241	45832.35
533.442	47208.58
533.643	46516.37
533.844	46477.46
534.045	46499.98
534.246	46321.81
534.447	46971.02
534.648	46987.4
534.849	47145.09
535.05	46823.56
535.251	47032.46
535.451	46936.2
535.652	47061.13
535.853	46710.92
536.054	47032.46
536.255	47216.77
536.456	46588.05
536.657	47861.88
536.857	47085.7
537.058	46790.8
537.259	47304.84
537.46	46907.53
537.66	47143.05
537.861	47575.17
538.062	46999.69
538.263	47151.24
538.463	46807.18
538.664	47286.4
538.865	47339.65
539.065	47429.76
539.266	46868.62
539.466	47771.77
539.667	46536.85
539.868	47433.86
540.068	46907.53
540.269	46872.71
540.469	47470.72
540.67	46768.27
540.87	46901.39
541.071	46864.52
541.271	46807.18
541.472	46887.05
541.672	46864.52
541.873	46798.99
542.073	46147.73
542.274	47108.23
542.474	46846.09
542.675	46573.71
542.875	47298.69
543.075	47278.21
543.276	46231.7
543.476	47364.23
543.676	46917.77
543.877	46893.19
544.077	46514.32
544.277	46594.19
544.478	46602.38
544.678	47149.19
544.878	46598.29
545.078	46913.67
545.279	46616.72
545.479	46520.46
545.679	46874.76
545.879	46975.11
546.079	46422.16
546.28	46518.42
546.48	46313.62
546.68	46946.44
546.88	46499.98
547.08	46647.44
547.28	46405.78
547.48	46162.07
547.68	46471.31
547.88	46379.15
548.081	46626.96
548.281	46577.81
548.481	46231.7
548.681	46424.21
548.881	46172.31
549.081	46280.85
549.28	46131.35
549.48	46639.25
549.68	46301.33
549.88	46745.74
550.08	46479.5
550.28	46301.33
550.48	46051.48
550.68	46700.68
550.88	46393.49
551.08	46323.86
551.279	46207.12
551.479	45967.51
551.679	46440.59
551.879	45883.55
552.079	46045.33
552.278	45502.62
552.478	46284.95
552.678	45852.83
552.878	46074.01
553.077	45766.81
553.277	45695.13
553.477	46006.42
553.676	45545.63
553.876	45656.22
554.076	45504.67
554.275	45750.43
554.475	45013.16
554.674	45732
554.874	45865.11
555.074	45426.85
555.273	45676.7
555.473	45775
555.672	44988.58
555.872	45136.04
556.071	45289.63
556.271	45598.88
556.47	45177
556.67	44927.14
556.869	45310.11
557.068	45326.5
557.268	45082.79
557.467	44480.69
557.667	45283.49
557.866	44955.82
558.065	44841.13
558.265	44679.34
558.464	44611.76
558.663	44791.98
558.863	44034.23
559.062	44972.2
559.261	44255.41
559.461	45004.97
559.66	44112.05
559.859	44298.42
560.058	43899.06
560.258	44204.21
560.457	43813.05
560.656	44521.65
560.855	43731.13
561.054	44038.33
561.253	44071.09
561.453	43921.59
561.652	44095.67
561.851	43657.4
562.05	43759.8
562.249	43432.13
562.448	43710.65
562.647	43598.01
562.846	43557.05
563.045	43743.42
563.244	42655.95
563.443	43800.76
563.642	42285.26
563.841	43253.95
564.04	42793.16
564.239	43034.82
564.438	42385.61
564.637	42610.89
564.836	42729.67
565.035	42410.19
565.234	42266.83
565.432	41744.6
565.631	41992.4
565.83	42426.57
566.029	41926.87
566.228	41621.72
566.427	42102.99
566.625	41459.93
566.824	41658.59
567.023	41711.83
567.222	41412.83
567.42	41498.84
567.619	41369.82
567.818	41050.34
568.016	41251.04
568.215	41367.77
568.414	40784.1
568.612	40962.28
568.811	40956.13
569.01	40767.72
569.208	40165.62
569.407	40837.35
569.605	40304.88
569.804	40618.22
570.002	39934.2
570.201	40485.1
570.4	40132.85
570.598	39829.75
570.797	39926
570.995	39917.81
571.193	39409.92
571.392	39989.49
571.59	39598.33
571.789	39577.85
571.987	39225.6
572.186	39002.37
572.384	39184.64
572.582	38803.72
572.781	39076.1
572.979	38508.81
573.177	38627.59
573.376	38985.99
573.574	38476.04
573.772	38664.46
573.971	38353.16
574.169	37765.4
574.367	38123.79
574.565	38453.51
574.763	37865.75
574.962	37658.9
575.16	37376.28
575.358	37775.64
575.556	37308.7
575.754	37783.83
575.952	37101.86
576.151	37415.19
576.349	36890.91
576.547	36714.79
576.745	37228.83
576.943	36694.31
577.141	36374.83
577.339	37120.29
577.537	36491.56
577.735	36477.22
577.933	36073.77
578.131	36350.25
578.329	36133.17
578.527	35723.57
578.725	35805.49
578.923	36428.07
579.121	35930.42
579.319	35637.56
579.516	36116.78
579.714	35629.37
579.912	35406.14
580.11	35477.82
580.308	35338.55
580.506	35002.69
580.704	34728.26
580.901	35062.08
581.099	35285.31
581.297	34668.87
581.495	34857.28
581.692	34978.11
581.89	34572.61
582.088	34505.03
582.285	34394.44
582.483	34529.61
582.681	34668.87
582.878	34431.3
583.076	33913.17
583.274	34498.89
583.471	33661.27
583.669	33956.18
583.866	33595.73
584.064	33966.42
584.262	33147.23
584.459	33802.58
584.657	33208.67
584.854	33567.06
585.052	32475.49
585.249	32723.3
585.447	32725.35
585.644	32633.19
585.841	32952.67
586.039	33044.83
586.236	32332.14
586.434	32280.94
586.631	32041.32
586.828	32104.81
587.026	32059.76
587.223	32139.63
587.42	31959.41
587.618	31545.72
587.815	31607.16
588.012	31422.84
588.21	31635.83
588.407	32065.9
588.604	31265.14
588.801	31209.85
588.999	31488.37
589.196	31402.36
589.393	31351.16
589.59	30988.67
589.787	31064.44
589.984	30753.15
590.182	30677.38
590.379	30765.44
590.576	30513.54
590.773	30599.55
590.97	30263.69
591.167	30314.89
591.364	29907.34
591.561	30075.27
591.758	29573.52
591.955	29890.96
592.152	29899.15
592.349	29733.26
592.546	29702.54
592.743	29780.37
592.94	29428.12
593.137	29333.91
593.334	29526.42
593.531	28920.22
593.727	29444.5
593.924	29258.13
594.121	28912.03
594.318	29110.68
594.515	28311.97
594.712	28963.23
594.908	28610.98
595.105	28877.21
595.302	28260.77
595.499	28486.05
595.696	28273.06
595.892	28082.6
596.089	28324.26
596.286	28283.3
596.482	28113.32
596.679	28066.22
596.876	28195.24
597.072	27900.33
597.269	27998.63
597.466	27556.27
597.662	27449.78
597.859	27351.48
598.055	27339.19
598.252	27296.18
598.448	27550.13
598.645	27320.76
598.841	27023.8
599.038	26999.23
599.234	26878.4
599.431	26667.45
599.627	26653.12
599.824	26921.4
600.02	26489.28
600.217	26390.98
600.413	26214.85
600.609	26425.79
600.806	26399.17
601.002	26268.1
601.198	25971.15
601.395	26161.61
601.591	25776.59
601.787	25899.47
601.984	25715.15
602.18	25653.71
602.376	25106.9
602.572	25440.72
602.769	25479.63
602.965	25340.37
603.161	25493.97
603.357	25424.34
603.553	24920.54
603.75	25375.19
603.946	24900.06
604.142	25022.94
604.338	24891.87
604.534	24941.02
604.73	24558.05
604.926	24613.34
605.122	24584.67
605.318	24285.67
605.514	24201.7
605.71	24076.77
605.906	24246.76
606.102	24093.16
606.298	24064.49
606.494	24283.62
606.69	24375.78
606.886	24185.32
607.082	23759.34
607.278	23939.56
607.474	23564.78
607.67	23747.05
607.866	23423.47
608.062	23734.76
608.257	23716.33
608.453	24017.38
608.649	23613.93
608.845	23331.31
609.041	23388.66
609.236	23405.04
609.432	23110.13
609.628	22956.54
609.824	23411.18
610.019	23179.76
610.215	23190
610.411	23308.79
610.606	22919.67
610.802	23241.2
610.998	23237.11
611.193	23028.21
611.389	22915.58
611.584	22575.61
611.78	22563.33
611.976	22516.22
612.171	22653.44
612.367	22462.97
612.562	22383.1
612.758	22219.27
612.953	22125.06
613.149	22663.68
613.344	22141.44
613.539	22446.59
613.735	22309.38
613.93	22440.45
614.126	22340.1
614.321	22450.69
614.517	22180.35
614.712	21838.34
614.907	21799.43
615.103	22016.52
615.298	21969.41
615.493	22032.9
615.688	21797.38
615.884	22211.07
616.079	21451.28
616.274	21944.84
616.47	21529.1
616.665	21633.55
616.86	21518.86
617.055	21617.16
617.25	21477.9
617.445	21725.71
617.641	20888.09
617.836	21428.75
618.031	20996.63
618.226	21381.65
618.421	20994.58
618.616	21160.47
618.811	20843.03
619.006	21258.77
619.201	20795.93
619.396	21006.87
619.591	20681.24
619.786	20656.67
619.981	20494.88
620.176	20808.22
620.371	20136.48
620.566	20326.94
620.761	20488.73
620.956	20181.54
621.151	20154.91
621.346	20195.87
621.541	19849.77
621.735	20142.63
621.93	19696.17
622.125	19749.42
622.32	19405.36
622.515	19638.83
622.709	19298.86
622.904	19604.01
623.099	19026.48
623.294	19370.54
623.488	18928.18
623.683	19151.41
623.878	18881.08
624.072	18858.55
624.267	18498.11
624.462	18588.22
624.656	18436.67
624.851	18530.87
625.046	18160.19
625.24	18199.1
625.435	18217.54
625.629	17842.76
625.824	17965.64
626.018	17916.48
626.213	17414.73
626.407	17838.66
626.602	17433.16
626.796	17418.83
626.991	17379.92
627.185	17484.36
627.38	17136.21
627.574	17193.55
627.768	17214.03
627.963	16964.18
628.157	16843.35
628.352	17031.76
628.546	16433.75
628.74	16826.96
628.935	16392.8
629.129	16437.85
629.323	16165.47
629.517	16454.23
629.712	16140.9
629.906	16212.57
630.1	15921.76
630.294	15966.82
630.489	15880.8
630.683	15985.25
630.877	15768.16
631.071	15358.57
631.265	15690.34
631.459	15624.81
631.653	15243.88
631.848	15315.56
632.042	15256.17
632.236	15182.45
632.43	14967.41
632.624	15293.04
632.818	14893.68
633.012	14838.39
633.206	14865.01
633.4	14592.63
633.594	14428.79
633.788	14566.01
633.982	14572.15
634.176	14574.2
634.369	14434.94
634.563	14310.01
634.757	14197.37
634.951	14332.54
635.145	14125.69
635.339	13830.79
635.533	14156.41
635.726	13871.75
635.92	13378.19
636.114	13490.82
636.308	13654.66
636.501	13564.55
636.695	13648.52
636.889	13523.59
637.083	13283.98
637.276	13443.72
637.47	13316.75
637.664	13107.85
637.857	13183.63
638.051	13220.49
638.244	13189.77
638.438	12872.34
638.632	12950.16
638.825	12735.12
639.019	12743.31
639.212	12694.16
639.406	12679.83
639.599	12563.09
639.793	12743.31
639.986	12235.42
640.18	12298.91
640.373	12337.82
640.567	12141.21
640.76	12118.68
640.954	12147.36
641.147	11870.88
641.34	11872.93
641.534	11946.66
641.727	11872.93
641.92	11860.64
642.114	11711.14
642.307	11641.51
642.5	11711.14
642.694	11424.42
642.887	11414.18
643.08	11506.34
643.273	11461.29
643.467	11381.42
643.66	11344.55
643.853	11180.71
644.046	10926.77
644.239	11059.88
644.432	10945.2
644.626	11002.54
644.819	10783.41
645.012	10969.77
645.205	10828.46
645.398	10896.05
645.591	10658.48
645.784	10478.26
645.977	10451.64
646.17	10515.12
646.363	10365.62
646.556	10425.01
646.749	10310.33
646.942	10324.66
647.135	10324.66
647.328	10209.98
647.521	10052.28
647.714	9882.3
647.907	9999.04
648.099	10195.64
648.292	9923.26
648.485	9880.25
648.678	9753.28
648.871	9786.05
649.064	9712.32
649.256	9691.84
649.449	9706.18
649.642	9675.46
649.835	9517.76
650.027	9351.88
650.22	9482.95
650.413	9362.12
650.605	9288.39
650.798	9165.51
650.991	9296.58
651.183	9153.23
651.376	9003.72
651.568	9204.42
651.761	9009.87
651.954	9018.06
652.146	9075.4
652.339	8817.36
652.531	8893.13
652.724	8669.91
652.916	8669.91
653.109	8680.14
653.301	8610.51
653.494	8649.43
653.686	8321.75
653.879	8663.76
654.071	8407.77
654.263	8544.98
654.456	8260.31
654.648	8356.57
654.84	8323.8
655.033	8250.07
655.225	8063.71
655.417	8155.86
655.61	8096.47
655.802	8057.56
655.994	7975.64
656.186	8088.28
656.379	8075.99
656.571	7969.5
656.763	7809.76
656.955	7701.22
657.148	7764.7
657.34	7817.95
657.532	7666.4
657.724	7645.92
657.916	7498.47
658.108	7518.95
658.3	7604.96
658.492	7477.99
658.684	7557.86
658.876	7342.82
659.068	7398.12
659.26	7348.97
659.452	7052.01
659.644	7301.86
659.836	7314.15
660.028	7217.9
660.22	7150.31
660.412	6988.52
660.604	6966
660.796	7123.69
660.988	7183.08
661.18	6859.5
661.372	6875.88
661.563	6908.65
661.755	6632.18
661.947	6757.1
662.139	6716.14
662.331	6638.32
662.522	6703.86
662.714	6742.77
662.906	6607.6
663.097	6734.57
663.289	6695.66
663.481	6658.8
663.673	6423.28
663.864	6546.16
664.056	6433.52
664.247	6390.52
664.439	6318.84
664.631	6320.88
664.822	6255.35
665.014	6161.14
665.205	6238.97
665.397	6300.41
665.588	6126.33
665.78	6124.28
665.971	6132.47
666.163	6191.86
666.354	5982.97
666.546	6075.13
666.737	5964.54
666.929	5915.39
667.12	5884.67
667.311	6019.83
667.503	5856
667.694	5915.39
667.885	5753.6
668.077	5931.77
668.268	5661.44
668.459	5778.17
668.651	5759.74
668.842	5761.79
669.033	5661.44
669.224	5485.31
669.416	5579.52
669.607	5665.53
669.798	5628.67
669.989	5593.86
670.18	5595.9
670.371	5372.68
670.563	5278.47
670.754	5544.7
670.945	5378.82
671.136	5280.52
671.327	5393.16
671.518	5262.09
671.709	5206.79
671.9	5344
672.091	5352.2
672.282	5198.6
672.473	5190.41
672.664	5131.02
672.855	5182.21
673.046	5190.41
673.237	5145.35
673.428	5042.95
673.619	5063.43
673.809	4971.27
674	5149.45
674.191	4999.95
674.382	4989.71
674.573	4877.07
674.764	4858.64
674.954	4930.31
675.145	4913.93
675.336	4842.25
675.527	4907.79
675.717	4907.79
675.908	4881.16
676.099	4717.33
676.289	4743.95
676.48	4778.76
676.671	4682.51
676.861	4707.09
677.052	4637.45
677.243	4614.93
677.433	4793.1
677.624	4721.42
677.814	4662.03
678.005	4619.02
678.195	4711.18
678.386	4596.5
678.576	4586.26
678.767	4485.9
678.957	4516.62
679.148	4549.39
679.338	4475.67
679.529	4584.21
679.719	4522.77
679.909	4289.3
680.1	4592.4
680.29	4399.89
680.481	4356.88
680.671	4393.75
680.861	4350.74
681.052	4434.71
681.242	4367.12
681.432	4444.95
681.622	4309.78
681.813	4256.53
682.003	4250.39
682.193	4268.82
682.383	4137.75
682.573	4340.5
682.764	4219.67
682.954	4242.2
683.144	4051.74
683.334	4131.61
683.524	4248.34
683.714	4172.57
683.904	4277.01
684.094	4094.74
684.284	4227.86
684.474	4320.02
684.664	3978.01
684.854	4041.5
685.044	4133.65
685.234	3898.14
685.424	3980.06
685.614	3920.67
685.804	4053.78
685.994	4049.69
686.184	3896.09
686.374	4049.69
686.564	3973.91
686.753	4014.87
686.943	3754.78
687.133	3924.76
687.323	3865.37
687.513	3836.7
687.702	3859.23
687.892	3887.9
688.082	3705.63
688.272	3846.94
688.461	3834.65
688.651	3715.87
688.841	3758.88
689.03	3707.68
689.22	3674.91
689.41	3640.09
689.599	3554.08
689.789	3648.29
689.979	3689.25
690.168	3576.61
690.358	3603.23
690.547	3607.33
690.737	3756.83
690.926	3513.12
691.116	3517.22
691.305	3552.03
691.495	3410.72
691.684	3420.96
691.874	3496.74
692.063	3341.09
692.252	3506.98
692.442	3586.85
692.631	3416.87
692.82	3490.59
693.01	3345.19
693.199	3332.9
693.388	3265.32
693.578	3289.89
693.767	3363.62
693.956	3410.72
694.146	3289.89
694.335	3359.52
694.524	3261.22
694.713	3253.03
694.902	3347.23
695.092	3275.56
695.281	3283.75
695.47	3351.33
695.659	3250.98
695.848	3234.6
696.037	3117.86
696.226	3109.67
696.415	3136.29
696.604	3177.25
696.793	3093.29
696.982	3109.67
697.171	3263.27
697.36	3377.95
697.549	3173.16
697.738	3042.09
697.927	3142.44
698.116	3232.55
698.305	3146.53
698.494	3156.77
698.683	3019.56
698.872	2915.11
699.061	3044.13
699.25	3119.91
699.438	3083.05
699.627	3035.94
699.816	3103.53
700.005	2921.26
700.193	3128.1
700.382	3134.25
700.571	3033.9
700.76	2931.5
700.948	2990.89
701.137	2976.55
701.326	2947.88
701.514	3068.71
701.703	3093.29
701.892	3037.99
702.08	3101.48
702.269	2968.36
702.457	3001.13
702.646	2964.26
702.834	3013.42
703.023	3019.56
703.212	2999.08
703.4	2970.41
703.589	2941.74
703.777	2892.59
703.965	2962.22
704.154	2999.08
704.342	2919.21
704.531	2988.84
704.719	2931.5
704.907	2964.26
705.096	2886.44
705.284	2865.96
705.472	2884.39
705.661	2970.41
705.849	2921.26
706.037	2880.3
706.226	2945.83
706.414	2947.88
706.602	2868.01
706.79	2929.45
706.979	2863.91
707.167	2937.64
707.355	2908.97
707.543	2976.55
707.731	2863.91
707.919	2876.2
708.107	2898.73
708.296	2908.97
708.484	2859.82
708.672	2949.93
708.86	2878.25
709.048	2763.56
709.236	2884.39
709.424	2939.69
709.612	2906.92
709.8	2781.99
709.988	2927.4
710.176	2802.47
710.364	2927.4
710.551	2861.87
710.739	2818.86
710.927	2786.09
711.115	2816.81
711.303	2820.91
711.491	2738.99
711.679	2829.1
711.866	2906.92
712.054	2898.73
712.242	2904.87
712.43	2695.98
712.617	2902.83
712.805	2808.62
712.993	2796.33
713.181	2667.31
713.368	2851.63
713.556	2935.59
713.744	2741.04
713.931	2769.71
714.119	2863.91
714.306	2767.66
714.494	2902.83
714.682	2691.88
714.869	2689.84
715.057	2845.48
715.244	2822.95
715.432	2700.08
715.619	2822.95
715.807	2790.19
715.994	2827.05
716.182	2818.86
716.369	2775.85
716.556	2841.39
716.744	2796.33
716.931	2790.19
717.119	2718.51
717.306	2812.71
717.493	2675.5
717.681	2845.48
717.868	2671.4
718.055	2702.12
718.242	2732.84
718.43	2777.9
718.617	2835.24
718.804	2710.32
718.991	2667.31
719.179	2667.31
719.366	2722.6
719.553	2736.94
719.74	2687.79
719.927	2816.81
720.114	2747.18
720.301	2652.97
720.488	2626.35
720.676	2724.65
720.863	2775.85
721.05	2724.65
721.237	2593.58
721.424	2728.75
721.611	2667.31
721.798	2622.25
721.985	2743.08
722.172	2704.17
722.358	2474.8
722.545	2763.56
722.732	2728.75
722.919	2800.43
723.106	2683.69
723.293	2683.69
723.48	2681.64
723.667	2755.37
723.853	2757.42
724.04	2634.54
724.227	2685.74
724.414	2564.91
724.6	2607.92
724.787	2628.4
724.974	2675.5
725.161	2634.54
725.347	2437.94
725.534	2691.88
725.72	2587.44
725.907	2728.75
726.094	2579.25
726.28	2573.1
726.467	2622.25
726.653	2614.06
726.84	2657.07
727.027	2591.53
727.213	2540.33
727.4	2593.58
727.586	2691.88
727.773	2562.86
727.959	2505.52
728.145	2593.58
728.332	2515.76
728.518	2550.57
728.705	2571.05
728.891	2575.15
729.077	2562.86
729.264	2482.99
729.45	2454.32
729.636	2650.92
729.823	2526
730.009	2612.01
730.195	2603.82
730.382	2433.84
730.568	2356.02
730.754	2476.85
730.94	2448.18
731.126	2566.96
731.313	2464.56
731.499	2368.31
731.685	2472.75
731.871	2480.94
732.057	2546.48
732.243	2657.07
732.429	2466.61
732.615	2548.53
732.801	2614.06
732.987	2583.34
733.173	2556.72
733.359	2462.51
733.545	2403.12
733.731	2405.17
733.917	2515.76
734.103	2452.27
734.289	2448.18
734.475	2394.93
734.661	2540.33
734.847	2380.59
735.033	2480.94
735.219	2454.32
735.404	2433.84
735.59	2474.8
735.776	2464.56
735.962	2501.42
736.148	2509.62
736.333	2427.7
736.519	2425.65
736.705	2487.09
736.89	2308.91
737.076	2325.3
737.262	2286.39
737.447	2411.31
737.633	2331.44
737.819	2356.02
738.004	2327.35
738.19	2280.24
738.375	2511.66
738.561	2345.78
738.747	2341.68
738.932	2245.43
739.118	2368.31
739.303	2292.53
739.489	2329.39
739.674	2253.62
739.859	2208.56
740.045	2331.44
740.23	2241.33
740.416	2085.69
740.601	2227
740.786	2313.01
740.972	2126.64
741.157	2210.61
741.342	2227
741.528	2165.56
741.713	2286.39
741.898	2167.6
742.084	2173.75
742.269	2237.24
742.454	2181.94
742.639	2179.89
742.824	2136.88
743.01	2169.65
743.195	2235.19
743.38	2106.17
743.565	2140.98
743.75	2085.69
743.935	2177.84
744.12	2093.88
744.305	2065.21
744.49	1938.23
744.675	1932.09
744.86	2042.68
745.045	2044.73
745.23	1989.43
745.415	1999.67
745.6	2100.02
745.785	1899.32
745.97	2011.96
746.155	1889.08
746.34	1934.14
746.525	1909.56
746.71	2036.53
746.895	1815.35
747.079	1811.26
747.264	1995.57
747.449	2009.91
747.634	1934.14
747.819	1798.97
748.003	1780.54
748.188	1813.31
748.373	1803.07
748.557	1897.27
748.742	1745.72
748.927	1678.14
749.111	1758.01
749.296	1762.11
749.481	1782.59
749.665	1661.76
749.85	1723.2
750.034	1739.58
750.219	1594.17
750.404	1639.23
750.588	1643.32
750.773	1624.89
750.957	1631.04
751.141	1672
751.326	1618.75
751.51	1698.62
751.695	1536.83
751.879	1633.08
752.064	1702.72
752.248	1651.52
752.432	1598.27
752.617	1579.84
752.801	1600.32
752.985	1524.54
753.17	1571.65
753.354	1506.11
753.538	1549.12
753.722	1362.75
753.907	1536.83
754.091	1467.2
754.275	1508.16
754.459	1495.87
754.643	1391.42
754.828	1459.01
755.012	1483.58
755.196	1459.01
755.38	1542.97
755.564	1397.57
755.748	1372.99
755.932	1370.94
756.116	1323.84
756.3	1442.62
756.484	1372.99
756.668	1311.55
756.852	1393.47
757.036	1254.21
757.22	1272.64
757.404	1299.27
757.588	1252.16
757.772	1286.98
757.956	1329.99
758.14	1327.94
758.323	1254.21
758.507	1272.64
758.691	1233.73
758.875	1237.83
759.059	1379.14
759.242	1233.73
759.426	1266.5
759.61	1276.74
759.794	1172.29
759.977	1178.44
760.161	1262.4
760.345	1235.78
760.528	1246.02
760.712	1168.2
760.895	1174.34
761.079	1090.37
761.263	1192.77
761.446	1129.28
761.63	1145.67
761.813	1209.15
761.997	1121.09
762.18	1243.97
762.364	1147.72
762.547	1078.08
762.731	1127.24
762.914	1033.03
763.098	1102.66
763.281	1090.37
763.464	1016.65
763.648	1133.38
763.831	1053.51
764.015	1059.65
764.198	1033.03
764.381	1086.28
764.564	1071.94
764.748	1028.93
764.931	1110.85
765.114	967.49
765.297	987.97
765.481	1006.41
765.664	1026.89
765.847	965.45
766.03	1078.08
766.213	1020.74
766.397	1053.51
766.58	1069.89
766.763	1024.84
766.946	1012.55
767.129	957.25
767.312	959.3
767.495	889.67
767.678	942.92
767.861	1028.93
768.044	934.73
768.227	1057.61
768.41	920.39
768.593	973.64
768.776	979.78
768.959	920.39
769.142	969.54
769.324	932.68
769.507	1051.46
769.69	951.11
769.873	908.1
770.056	955.21
770.239	1000.26
770.421	953.16
770.604	885.58
770.787	975.69
770.97	891.72
771.152	828.23
771.335	861
771.518	869.19
771.7	897.86
771.883	895.82
772.066	824.14
772.248	910.15
772.431	869.19
772.613	865.1
772.796	869.19
772.978	846.66
773.161	953.16
773.343	815.94
773.526	858.95
773.708	875.34
773.891	830.28
774.073	865.1
774.256	895.82
774.438	904.01
774.621	824.14
774.803	770.89
774.985	820.04
775.168	871.24
775.35	817.99
775.532	836.42
775.715	869.19
775.897	817.99
776.079	793.42
776.261	721.74
776.444	709.45
776.626	750.41
776.808	734.03
776.99	754.51
777.173	781.13
777.355	727.88
777.537	662.35
777.719	750.41
777.901	783.18
778.083	738.12
778.265	758.6
778.447	781.13
778.629	709.45
778.811	678.73
778.993	699.21
779.175	736.07
779.357	713.55
779.539	678.73
779.721	609.1
779.903	686.92
780.085	594.76
780.267	582.48
780.449	580.43
780.631	703.31
780.812	680.78
780.994	658.25
781.176	625.48
781.358	514.89
781.54	609.1
781.721	605
781.903	711.5
782.085	551.76
782.267	586.57
782.448	529.23
782.63	576.33
782.812	664.4
782.993	605
783.175	635.72
783.357	631.63
783.538	588.62
783.72	570.19
783.901	564.04
784.083	496.46
784.264	623.44
784.446	574.28
784.627	492.37
784.809	621.39
784.99	502.61
785.172	547.66
785.353	559.95
785.535	592.72
785.716	557.9
785.897	447.31
786.079	488.27
786.26	480.08
786.441	592.72
786.623	428.88
786.804	510.8
786.985	455.5
787.167	469.84
787.348	506.7
787.529	521.04
787.71	490.32
787.891	418.64
788.073	473.93
788.254	469.84
788.435	543.57
788.616	478.03
788.797	514.89
788.978	463.69
789.159	437.07
789.34	463.69
789.522	430.93
789.703	492.37
789.884	488.27
790.065	445.26
790.246	516.94
790.427	379.73
790.607	527.18
790.788	447.31
790.969	482.13
791.15	457.55
791.331	459.6
791.512	465.74
791.693	416.59
791.874	396.11
792.054	484.17
792.235	453.45
792.416	404.3
792.597	389.97
792.778	432.97
792.958	428.88
793.139	344.91
793.32	392.02
793.5	349.01
793.681	398.16
793.862	381.78
794.042	377.68
794.223	301.9
794.404	418.64
794.584	400.21
794.765	385.87
794.945	301.9
795.126	351.06
795.306	365.39
795.487	283.47
795.667	332.62
795.848	389.97
796.028	355.15
796.209	385.87
796.389	318.29
796.57	406.35
796.75	328.53
796.93	299.86
797.111	326.48
797.291	359.25
797.471	277.33
797.652	363.34
797.832	271.19
798.012	310.1
798.192	314.19
798.373	303.95
798.553	338.77
798.733	349.01
798.913	338.77
799.093	322.38
799.274	287.57
799.454	258.9
799.634	353.1
799.814	320.34
799.994	320.34
800.174	295.76
800.354	295.76
800.534	271.19
800.714	332.62
800.894	258.9
801.074	295.76
801.254	258.9
801.434	318.29
801.614	320.34
801.794	189.27
801.974	729.93
802.154	291.66
802.334	394.06
802.514	293.71
802.693	328.53
802.873	265.04
803.053	351.06
803.233	297.81
803.413	232.27
803.592	308.05
803.772	242.51
803.952	195.41
804.131	244.56
804.311	316.24
804.491	258.9
804.67	193.36
804.85	275.28
805.03	277.33
805.209	260.95
805.389	332.62
805.568	242.51
805.748	201.55
805.928	287.57
806.107	310.1
806.287	267.09
806.466	265.04
806.646	224.08
806.825	215.89
807.004	209.75
807.184	281.43
807.363	293.71
807.543	254.8
807.722	168.79
807.901	242.51
808.081	240.47
808.26	195.41
808.439	203.6
808.619	238.42
808.798	199.51
808.977	226.13
809.156	265.04
809.336	230.23
809.515	185.17
809.694	228.18
809.873	199.51
810.052	256.85
810.231	289.62
810.411	152.4
810.59	213.84
810.769	148.31
810.948	160.59
811.127	168.79
811.306	205.65
811.485	195.41
811.664	267.09
811.843	217.94
812.022	211.79
812.201	199.51
812.38	181.07
812.559	234.32
812.737	144.21
812.916	240.47
813.095	170.83
813.274	193.36
813.453	248.66
813.632	224.08
813.811	232.27
813.989	158.55
814.168	205.65
814.347	185.17
814.526	138.07
814.704	105.3
814.883	152.4
815.062	174.93
815.24	213.84
815.419	183.12
815.598	115.54
815.776	133.97
815.955	185.17
816.133	176.98
816.312	187.22
816.49	201.55
816.669	222.03
816.847	136.02
817.026	170.83
817.204	166.74
817.383	121.68
817.561	84.82
817.74	117.59
817.918	172.88
818.097	217.94
818.275	199.51
818.453	170.83
818.632	242.51
818.81	164.69
818.988	152.4
819.167	152.4
819.345	136.02
819.523	183.12
819.701	152.4
819.879	213.84
820.058	226.13
820.236	164.69
820.414	205.65
820.592	185.17
820.77	172.88
820.948	154.45
821.127	82.77
821.305	244.56
821.483	131.92
821.661	123.73
821.839	179.03
822.017	125.78
822.195	256.85
822.373	152.4
822.551	109.4
822.729	185.17
822.907	197.46
823.085	142.16
823.262	152.4
823.44	70.48
823.618	107.35
823.796	136.02
823.974	99.16
824.152	101.2
824.329	127.83
824.507	181.07
824.685	90.96
824.863	125.78
825.04	74.58
825.218	201.55
825.396	166.74
825.574	95.06
825.751	158.55
825.929	170.83
826.107	103.25
826.284	101.2
826.462	119.64
826.639	115.54
826.817	82.77
826.994	156.5
827.172	93.01
827.349	140.12
827.527	62.29
827.704	174.93
827.882	101.2
828.059	88.92
828.237	136.02
828.414	103.25
828.591	58.2
828.769	131.92
828.946	138.07
829.124	129.88
829.301	154.45
829.478	152.4
829.655	166.74
829.833	66.39
830.01	66.39
830.187	154.45
830.364	43.86
830.542	154.45
830.719	148.31
830.896	111.44
831.073	113.49
831.25	158.55
831.427	93.01
831.604	168.79
831.782	129.88
831.959	176.98
832.136	140.12
832.313	82.77
832.49	105.3
832.667	115.54
832.844	56.15
833.021	250.71
833.198	136.02
833.374	109.4
833.551	148.31
833.728	93.01
833.905	62.29
834.082	62.29
834.259	80.72
834.436	111.44
834.612	62.29
834.789	80.72
834.966	74.58
835.143	101.2
835.319	90.96
835.496	117.59
835.673	78.68
835.85	113.49
836.026	86.87
836.203	183.12
836.38	158.55
836.556	43.86
836.733	82.77
836.909	109.4
837.086	86.87
837.262	129.88
837.439	74.58
837.616	80.72
837.792	86.87
837.968	142.16
838.145	86.87
838.321	123.73
838.498	99.16
838.674	41.81
838.851	88.92
839.027	99.16
839.203	146.26
839.38	166.74
839.556	29.52
839.732	93.01
839.909	54.1
840.085	150.36
840.261	90.96
840.437	78.68
840.614	74.58
840.79	72.53
840.966	99.16
841.142	60.24
841.318	123.73
841.494	78.68
841.671	62.29
841.847	37.72
842.023	43.86
842.199	140.12
842.375	82.77
842.551	138.07
842.727	27.48
842.903	123.73
843.079	99.16
843.255	84.82
843.431	84.82
843.607	78.68
843.783	-19.63
843.959	103.25
844.134	60.24
844.31	111.44
844.486	78.68
844.662	4.95
844.838	74.58
845.013	103.25
845.189	68.44
845.365	74.58
845.541	136.02
845.716	78.68
845.892	103.25
846.068	43.86
846.244	15.19
846.419	15.19
846.595	66.39
846.77	50
846.946	-7.34
847.122	86.87
847.297	4.95
847.473	99.16
847.648	19.29
847.824	33.62
847.999	43.86
848.175	56.15
848.35	31.57
848.526	70.48
848.701	29.52
848.876	58.2
849.052	95.06
849.227	23.38
849.403	93.01
849.578	72.53
849.753	37.72
849.929	45.91
850.104	74.58
850.279	45.91
850.454	136.02
850.63	111.44
850.805	109.4
850.98	93.01
851.155	33.62
851.33	119.64
851.505	-17.58
851.681	62.29
851.856	-5.29
852.031	17.24
852.206	95.06
852.381	47.96
852.556	47.96
852.731	52.05
852.906	39.76
853.081	23.38
853.256	76.63
853.431	64.34
853.606	60.24
853.781	31.57
853.956	15.19
854.131	56.15
854.305	76.63
854.48	70.48
854.655	111.44
854.83	66.39
855.005	37.72
855.18	78.68
855.354	27.48
855.529	60.24
855.704	64.34
855.879	0.85
856.053	4.95
856.228	68.44
856.403	31.57
856.577	82.77
856.752	37.72
856.926	31.57
857.101	31.57
857.276	31.57
857.45	-7.34
857.625	39.76
857.799	23.38
857.974	33.62
858.148	27.48
858.323	64.34
858.497	-44.2
858.672	11.09
858.846	-29.87
859.02	78.68
859.195	9.05
859.369	19.29
859.543	109.4
859.718	78.68
859.892	58.2
860.066	78.68
860.241	41.81
860.415	35.67
860.589	58.2
860.763	86.87
860.938	9.05
861.112	115.54
861.286	107.35
861.46	25.43
861.634	15.19
861.808	-7.34
861.982	45.91
862.157	72.53
862.331	4.95
862.505	88.92
862.679	31.57
862.853	-15.53
863.027	9.05
863.201	74.58
863.375	66.39
863.549	99.16
863.722	45.91
863.896	64.34
864.07	21.33
864.244	41.81
864.418	70.48
864.592	23.38
864.766	52.05
864.939	31.57
865.113	62.29
865.287	93.01
865.461	35.67
865.634	-21.67
865.808	35.67
865.982	27.48
866.156	19.29
866.329	54.1
866.503	11.09
866.676	136.02
866.85	68.44
867.024	70.48
867.197	82.77
867.371	11.09
867.544	66.39
867.718	17.24
867.891	33.62
868.065	9.05
868.238	-23.72
868.412	111.44
868.585	52.05
868.759	78.68
868.932	78.68
869.105	-70.83
869.279	43.86
869.452	-11.43
869.625	54.1
869.799	66.39
869.972	0.85
870.145	19.29
870.319	72.53
870.492	-9.39
870.665	119.64
870.838	33.62
871.011	21.33
871.185	31.57
871.358	-5.29
871.531	68.44
871.704	43.86
871.877	52.05
872.05	41.81
872.223	25.43
872.396	25.43
872.569	74.58
872.742	-27.82
872.915	78.68
873.088	78.68
873.261	140.12
873.434	66.39
873.607	17.24
873.78	7
873.953	41.81
874.126	41.81
874.299	-13.48
874.471	54.1
874.644	39.76
874.817	33.62
874.99	54.1
875.163	-9.39
875.335	45.91
875.508	15.19
875.681	74.58
875.853	17.24
876.026	64.34
876.199	2.9
876.371	-52.39
876.544	23.38
876.717	11.09
876.889	-5.29
877.062	27.48
877.234	-38.06
877.407	15.19
877.579	58.2
877.752	62.29
877.924	4.95
878.097	117.59
878.269	25.43
878.442	37.72
878.614	43.86
878.786	-29.87
878.959	31.57
879.131	80.72
879.303	9.05
879.476	21.33
879.648	74.58
879.82	74.58
879.993	25.43
880.165	15.19
880.337	45.91
880.509	43.86
880.681	2.9
880.854	-40.11
881.026	17.24
881.198	66.39
881.37	9.05
881.542	-3.24
881.714	78.68
881.886	41.81
882.058	64.34
882.23	64.34
882.402	-5.29
882.574	76.63
882.746	60.24
882.918	113.49
883.09	86.87
883.262	31.57
883.434	-27.82
883.606	15.19
883.778	37.72
883.95	70.48
884.122	56.15
884.293	86.87
884.465	25.43
884.637	52.05
884.809	9.05
884.98	142.16
885.152	-3.24
885.324	25.43
885.496	95.06
885.667	25.43
885.839	21.33
886.011	37.72
886.182	13.14
886.354	0.85
886.525	31.57
886.697	99.16
886.869	7
887.04	9.05
887.212	39.76
887.383	56.15
887.555	144.21
887.726	37.72
887.897	-13.48
888.069	13.14
888.24	13.14
888.412	-38.06
888.583	-29.87
888.754	60.24
888.926	21.33
889.097	58.2
889.268	-58.54
889.44	37.72
889.611	-62.63
889.782	-44.2
889.953	60.24
890.125	45.91
890.296	-7.34
890.467	47.96
890.638	17.24
890.809	88.92
890.98	25.43
891.151	76.63
891.323	101.2
891.494	47.96
891.665	52.05
891.836	43.86
892.007	23.38
892.178	93.01
892.349	0.85
892.52	66.39
892.691	15.19
892.862	41.81
893.032	-31.91
893.203	95.06
893.374	4.95
893.545	-21.67
893.716	7
893.887	62.29
894.057	-9.39
894.228	-5.29
894.399	2.9
894.57	31.57
894.74	-15.53
894.911	0.85
895.082	27.48
895.253	17.24
895.423	-7.34
895.594	37.72
895.764	103.25
895.935	-1.19
896.106	4.95
896.276	29.52
896.447	27.48
896.617	7
896.788	21.33
896.958	25.43
897.129	-56.49
897.299	21.33
897.47	41.81
897.64	45.91
897.81	-38.06
897.981	74.58
898.151	-11.43
898.322	33.62
898.492	70.48
898.662	74.58
898.832	31.57
899.003	15.19
899.173	39.76
899.343	39.76
899.513	29.52
