Data from USB4F104151__44__10-23-05-898.txt Node

Date: Wed Mar 12 10:23:05 EDT 2025
User: louis
Spectrometer: USB4F10415
Trigger mode: 4
Integration Time (sec): 3.000000E-2
Scans to average: 1
Electric dark correction enabled: true
Nonlinearity correction enabled: false
Boxcar width: 0
XAxis mode: Wavelengths
Number of Pixels in Spectrum: 3648
>>>>>Begin Spectral Data<<<<<
178.204	-147.8
178.424	-147.8
178.644	-147.8
178.864	-135.51
179.084	-69.97
179.304	-12.63
179.524	7.85
179.744	30.38
179.964	28.33
180.184	-0.34
180.404	9.9
180.624	9.9
180.844	24.23
181.064	-100.69
181.283	-10.58
181.503	32.43
181.723	-18.77
181.943	-26.96
182.163	48.81
182.383	-8.53
182.602	40.62
182.822	69.29
183.042	-33.11
183.262	-35.16
183.482	42.67
183.701	11.95
183.921	38.57
184.141	69.29
184.361	48.81
184.58	69.29
184.8	48.81
185.02	7.85
185.239	102.06
185.459	48.81
185.679	22.19
185.898	-59.73
186.118	36.52
186.338	3.75
186.557	-33.11
186.777	-2.39
186.997	69.29
187.216	-0.34
187.436	38.57
187.655	-49.49
187.875	28.33
188.095	-2.39
188.314	65.19
188.534	22.19
188.753	11.95
188.973	-24.92
189.192	61.1
189.412	-12.63
189.631	-35.16
189.851	22.19
190.07	48.81
190.29	20.14
190.509	69.29
190.729	44.71
190.948	69.29
191.168	212.65
191.387	13.99
191.607	-24.92
191.826	36.52
192.045	3.75
192.265	65.19
192.484	7.85
192.704	69.29
192.923	20.14
193.142	20.14
193.362	11.95
193.581	93.87
193.8	65.19
194.02	-33.11
194.239	120.49
194.458	24.23
194.678	-45.4
194.897	40.62
195.116	16.04
195.335	38.57
195.555	67.24
195.774	5.8
195.993	30.38
196.212	-22.87
196.432	-8.53
196.651	44.71
196.87	54.95
197.089	34.47
197.308	93.87
197.528	42.67
197.747	1.71
197.966	24.23
198.185	63.15
198.404	46.76
198.623	112.3
198.842	22.19
199.062	83.63
199.281	3.75
199.5	-14.68
199.719	1.71
199.938	71.34
200.157	40.62
200.376	36.52
200.595	118.44
200.814	5.8
201.033	-57.68
201.252	44.71
201.471	36.52
201.69	100.01
201.909	3.75
202.128	73.39
202.347	89.77
202.566	-0.34
202.785	-67.92
203.004	-12.63
203.223	59.05
203.442	32.43
203.661	54.95
203.879	13.99
204.098	75.43
204.317	7.85
204.536	-10.58
204.755	91.82
204.974	24.23
205.193	-6.49
205.411	93.87
205.63	-29.01
205.849	71.34
206.068	73.39
206.287	91.82
206.505	9.9
206.724	22.19
206.943	11.95
207.162	-0.34
207.381	65.19
207.599	77.48
207.818	-12.63
208.037	42.67
208.255	32.43
208.474	-53.59
208.693	20.14
208.911	85.67
209.13	-39.25
209.349	87.72
209.567	91.82
209.786	69.29
210.005	-0.34
210.223	11.95
210.442	-26.96
210.661	46.76
210.879	18.09
211.098	32.43
211.316	22.19
211.535	26.28
211.753	36.52
211.972	16.04
212.191	48.81
212.409	54.95
212.628	-14.68
212.846	-20.82
213.065	42.67
213.283	77.48
213.502	24.23
213.72	57
213.938	48.81
214.157	-2.39
214.375	89.77
214.594	48.81
214.812	81.58
215.031	79.53
215.249	-45.4
215.467	28.33
215.686	63.15
215.904	32.43
216.122	126.63
216.341	81.58
216.559	11.95
216.778	83.63
216.996	138.92
217.214	48.81
217.432	18.09
217.651	22.19
217.869	-8.53
218.087	-16.73
218.306	-10.58
218.524	50.86
218.742	28.33
218.96	-4.44
219.179	30.38
219.397	40.62
219.615	-33.11
219.833	-2.39
220.051	11.95
220.27	71.34
220.488	24.23
220.706	65.19
220.924	-84.31
221.142	-14.68
221.36	3.75
221.578	-33.11
221.796	-53.59
222.015	75.43
222.233	93.87
222.451	44.71
222.669	7.85
222.887	54.95
223.105	-10.58
223.323	85.67
223.541	-33.11
223.759	48.81
223.977	-2.39
224.195	9.9
224.413	16.04
224.631	-24.92
224.849	71.34
225.067	122.54
225.285	69.29
225.503	-20.82
225.721	11.95
225.939	87.72
226.157	42.67
226.375	91.82
226.592	61.1
226.81	32.43
227.028	85.67
227.246	52.91
227.464	20.14
227.682	97.96
227.9	11.95
228.117	63.15
228.335	5.8
228.553	-8.53
228.771	69.29
228.989	134.82
229.206	93.87
229.424	5.8
229.642	57
229.86	83.63
230.077	-10.58
230.295	-20.82
230.513	97.96
230.731	-8.53
230.948	44.71
231.166	28.33
231.384	24.23
231.601	28.33
231.819	-37.2
232.037	-26.96
232.254	16.04
232.472	38.57
232.689	48.81
232.907	20.14
233.125	-0.34
233.342	-24.92
233.56	9.9
233.777	67.24
233.995	13.99
234.213	63.15
234.43	65.19
234.648	54.95
234.865	-35.16
235.083	38.57
235.3	26.28
235.518	34.47
235.735	57
235.953	110.25
236.17	57
236.388	-8.53
236.605	34.47
236.822	89.77
237.04	85.67
237.257	26.28
237.475	-10.58
237.692	40.62
237.909	18.09
238.127	34.47
238.344	71.34
238.562	26.28
238.779	34.47
238.996	22.19
239.214	-14.68
239.431	40.62
239.648	44.71
239.865	9.9
240.083	116.39
240.3	7.85
240.517	5.8
240.735	30.38
240.952	22.19
241.169	65.19
241.386	38.57
241.603	97.96
241.821	-37.2
242.038	44.71
242.255	61.1
242.472	1.71
242.689	-29.01
242.907	67.24
243.124	102.06
243.341	-8.53
243.558	28.33
243.775	-16.73
243.992	-33.11
244.209	24.23
244.426	89.77
244.643	9.9
244.86	20.14
245.078	-39.25
245.295	7.85
245.512	-29.01
245.729	-45.4
245.946	26.28
246.163	46.76
246.38	13.99
246.597	30.38
246.814	34.47
247.031	44.71
247.248	-12.63
247.464	-16.73
247.681	50.86
247.898	-10.58
248.115	81.58
248.332	-33.11
248.549	57
248.766	-22.87
248.983	73.39
249.2	30.38
249.417	-6.49
249.633	36.52
249.85	102.06
250.067	48.81
250.284	42.67
250.501	7.85
250.717	-8.53
250.934	-49.49
251.151	-8.53
251.368	54.95
251.585	40.62
251.801	5.8
252.018	-16.73
252.235	102.06
252.451	87.72
252.668	-4.44
252.885	16.04
253.102	5.8
253.318	57
253.535	-26.96
253.752	5.8
253.968	-29.01
254.185	11.95
254.401	57
254.618	46.76
254.835	11.95
255.051	93.87
255.268	-8.53
255.484	13.99
255.701	44.71
255.917	-0.34
256.134	-0.34
256.351	40.62
256.567	-8.53
256.784	65.19
257	9.9
257.217	52.91
257.433	3.75
257.65	85.67
257.866	95.91
258.082	30.38
258.299	-20.82
258.515	61.1
258.732	-26.96
258.948	5.8
259.165	7.85
259.381	30.38
259.597	24.23
259.814	-8.53
260.03	28.33
260.246	16.04
260.463	34.47
260.679	3.75
260.895	-4.44
261.112	93.87
261.328	-4.44
261.544	34.47
261.761	73.39
261.977	61.1
262.193	61.1
262.409	48.81
262.626	16.04
262.842	46.76
263.058	-26.96
263.274	50.86
263.49	46.76
263.707	75.43
263.923	-65.88
264.139	24.23
264.355	44.71
264.571	48.81
264.787	-18.77
265.004	-16.73
265.22	32.43
265.436	63.15
265.652	73.39
265.868	11.95
266.084	34.47
266.3	77.48
266.516	30.38
266.732	13.99
266.948	20.14
267.164	63.15
267.38	77.48
267.596	-4.44
267.812	54.95
268.028	67.24
268.244	32.43
268.46	61.1
268.676	5.8
268.892	81.58
269.108	5.8
269.324	54.95
269.54	-53.59
269.756	71.34
269.972	36.52
270.188	16.04
270.403	-20.82
270.619	44.71
270.835	-2.39
271.051	-22.87
271.267	81.58
271.483	36.52
271.698	69.29
271.914	48.81
272.13	26.28
272.346	-26.96
272.562	61.1
272.777	40.62
272.993	114.34
273.209	42.67
273.425	89.77
273.64	65.19
273.856	54.95
274.072	11.95
274.287	-4.44
274.503	-31.06
274.719	34.47
274.934	28.33
275.15	-31.06
275.366	-65.88
275.581	57
275.797	-0.34
276.012	5.8
276.228	11.95
276.444	63.15
276.659	61.1
276.875	-20.82
277.09	28.33
277.306	-35.16
277.521	7.85
277.737	28.33
277.952	30.38
278.168	54.95
278.383	-16.73
278.599	3.75
278.814	52.91
279.03	-14.68
279.245	89.77
279.461	-12.63
279.676	114.34
279.892	16.04
280.107	7.85
280.322	48.81
280.538	-29.01
280.753	48.81
280.969	40.62
281.184	-8.53
281.399	93.87
281.615	36.52
281.83	1.71
282.045	54.95
282.26	75.43
282.476	69.29
282.691	75.43
282.906	9.9
283.122	28.33
283.337	38.57
283.552	67.24
283.767	48.81
283.983	36.52
284.198	48.81
284.413	-53.59
284.628	-80.21
284.843	11.95
285.058	9.9
285.274	7.85
285.489	22.19
285.704	59.05
285.919	-4.44
286.134	18.09
286.349	-0.34
286.564	-33.11
286.779	87.72
286.995	28.33
287.21	-4.44
287.425	81.58
287.64	-47.44
287.855	30.38
288.07	7.85
288.285	57
288.5	73.39
288.715	75.43
288.93	48.81
289.145	-18.77
289.36	16.04
289.575	16.04
289.79	38.57
290.004	-16.73
290.219	71.34
290.434	-22.87
290.649	-14.68
290.864	112.3
291.079	120.49
291.294	77.48
291.509	-4.44
291.724	57
291.938	1.71
292.153	75.43
292.368	114.34
292.583	32.43
292.798	13.99
293.012	11.95
293.227	118.44
293.442	11.95
293.657	57
293.871	1.71
294.086	18.09
294.301	89.77
294.516	48.81
294.73	73.39
294.945	-26.96
295.16	24.23
295.374	50.86
295.589	26.28
295.804	38.57
296.018	81.58
296.233	30.38
296.447	61.1
296.662	9.9
296.877	54.95
297.091	95.91
297.306	3.75
297.52	57
297.735	38.57
297.949	110.25
298.164	71.34
298.378	67.24
298.593	20.14
298.807	32.43
299.022	118.44
299.236	-0.34
299.451	61.1
299.665	83.63
299.88	11.95
300.094	59.05
300.309	30.38
300.523	52.91
300.737	20.14
300.952	44.71
301.166	42.67
301.381	28.33
301.595	100.01
301.809	-6.49
302.024	46.76
302.238	65.19
302.452	61.1
302.667	61.1
302.881	100.01
303.095	63.15
303.309	52.91
303.524	81.58
303.738	32.43
303.952	-74.07
304.166	65.19
304.381	32.43
304.595	30.38
304.809	9.9
305.023	69.29
305.237	34.47
305.452	24.23
305.666	57
305.88	-8.53
306.094	46.76
306.308	11.95
306.522	85.67
306.736	44.71
306.95	1.71
307.164	73.39
307.379	40.62
307.593	110.25
307.807	73.39
308.021	63.15
308.235	40.62
308.449	-0.34
308.663	-2.39
308.877	63.15
309.091	44.71
309.305	65.19
309.519	20.14
309.733	22.19
309.947	-57.68
310.161	-16.73
310.374	65.19
310.588	42.67
310.802	-0.34
311.016	-57.68
311.23	67.24
311.444	13.99
311.658	32.43
311.872	3.75
312.085	-4.44
312.299	20.14
312.513	38.57
312.727	26.28
312.941	-26.96
313.154	-0.34
313.368	42.67
313.582	71.34
313.796	-0.34
314.009	42.67
314.223	36.52
314.437	13.99
314.651	7.85
314.864	-16.73
315.078	-4.44
315.292	42.67
315.505	46.76
315.719	67.24
315.933	38.57
316.146	28.33
316.36	89.77
316.573	65.19
316.787	-6.49
317.001	124.58
317.214	79.53
317.428	20.14
317.641	16.04
317.855	81.58
318.068	20.14
318.282	46.76
318.495	61.1
318.709	28.33
318.922	-20.82
319.136	106.15
319.349	116.39
319.563	-18.77
319.776	63.15
319.99	24.23
320.203	54.95
320.417	46.76
320.63	44.71
320.843	38.57
321.057	63.15
321.27	18.09
321.483	20.14
321.697	89.77
321.91	9.9
322.124	65.19
322.337	20.14
322.55	-18.77
322.763	11.95
322.977	50.86
323.19	-10.58
323.403	126.63
323.617	28.33
323.83	116.39
324.043	7.85
324.256	87.72
324.469	11.95
324.683	40.62
324.896	20.14
325.109	22.19
325.322	18.09
325.535	128.68
325.748	26.28
325.962	9.9
326.175	32.43
326.388	71.34
326.601	22.19
326.814	48.81
327.027	75.43
327.24	32.43
327.453	13.99
327.666	52.91
327.879	61.1
328.092	-8.53
328.305	71.34
328.518	36.52
328.731	-20.82
328.944	32.43
329.157	73.39
329.37	-18.77
329.583	9.9
329.796	34.47
330.009	75.43
330.222	138.92
330.435	77.48
330.648	44.71
330.861	28.33
331.073	26.28
331.286	93.87
331.499	7.85
331.712	-10.58
331.925	-0.34
332.138	-31.06
332.35	81.58
332.563	-0.34
332.776	36.52
332.989	36.52
333.202	-20.82
333.414	65.19
333.627	48.81
333.84	-0.34
334.053	73.39
334.265	11.95
334.478	46.76
334.691	-24.92
334.903	22.19
335.116	91.82
335.329	7.85
335.541	13.99
335.754	118.44
335.966	13.99
336.179	40.62
336.392	57
336.604	-14.68
336.817	-41.3
337.029	46.76
337.242	1.71
337.454	26.28
337.667	13.99
337.88	143.02
338.092	-0.34
338.305	13.99
338.517	-8.53
338.729	11.95
338.942	163.5
339.154	-8.53
339.367	-26.96
339.579	77.48
339.792	7.85
340.004	102.06
340.217	59.05
340.429	11.95
340.641	9.9
340.854	38.57
341.066	-22.87
341.278	26.28
341.491	36.52
341.703	36.52
341.915	9.9
342.128	85.67
342.34	32.43
342.552	54.95
342.764	81.58
342.977	-16.73
343.189	26.28
343.401	65.19
343.613	-26.96
343.826	13.99
344.038	-0.34
344.25	24.23
344.462	-24.92
344.674	77.48
344.886	40.62
345.099	38.57
345.311	20.14
345.523	11.95
345.735	-63.83
345.947	57
346.159	100.01
346.371	32.43
346.583	91.82
346.795	159.4
347.007	11.95
347.219	36.52
347.431	-20.82
347.643	122.54
347.855	32.43
348.067	85.67
348.279	34.47
348.491	38.57
348.703	1.71
348.915	34.47
349.127	-12.63
349.339	89.77
349.551	28.33
349.763	18.09
349.975	77.48
350.187	57
350.399	83.63
350.61	71.34
350.822	-12.63
351.034	9.9
351.246	42.67
351.458	40.62
351.669	81.58
351.881	-51.54
352.093	46.76
352.305	81.58
352.517	57
352.728	-14.68
352.94	69.29
353.152	104.11
353.363	65.19
353.575	118.44
353.787	-0.34
353.999	26.28
354.21	100.01
354.422	63.15
354.633	32.43
354.845	30.38
355.057	-18.77
355.268	44.71
355.48	91.82
355.692	7.85
355.903	91.82
356.115	28.33
356.326	11.95
356.538	32.43
356.749	22.19
356.961	73.39
357.172	42.67
357.384	75.43
357.595	57
357.807	16.04
358.018	69.29
358.23	-12.63
358.441	149.16
358.653	40.62
358.864	110.25
359.075	46.76
359.287	40.62
359.498	48.81
359.709	42.67
359.921	52.91
360.132	87.72
360.344	42.67
360.555	40.62
360.766	63.15
360.977	44.71
361.189	-4.44
361.4	30.38
361.611	65.19
361.823	95.91
362.034	50.86
362.245	-51.54
362.456	28.33
362.667	46.76
362.879	9.9
363.09	22.19
363.301	48.81
363.512	3.75
363.723	3.75
363.935	-4.44
364.146	79.53
364.357	-0.34
364.568	40.62
364.779	24.23
364.99	40.62
365.201	-49.49
365.412	87.72
365.623	1.71
365.834	48.81
366.045	112.3
366.256	95.91
366.467	16.04
366.678	-39.25
366.889	81.58
367.1	-0.34
367.311	32.43
367.522	-47.44
367.733	104.11
367.944	83.63
368.155	-6.49
368.366	3.75
368.577	73.39
368.788	69.29
368.999	-26.96
369.209	87.72
369.42	42.67
369.631	128.68
369.842	108.2
370.053	5.8
370.264	95.91
370.474	73.39
370.685	151.21
370.896	87.72
371.107	89.77
371.317	-10.58
371.528	52.91
371.739	89.77
371.95	63.15
372.16	36.52
372.371	11.95
372.582	-24.92
372.792	24.23
373.003	57
373.214	57
373.424	87.72
373.635	-2.39
373.846	57
374.056	77.48
374.267	7.85
374.477	61.1
374.688	-2.39
374.898	93.87
375.109	48.81
375.319	79.53
375.53	50.86
375.74	-8.53
375.951	63.15
376.161	63.15
376.372	-0.34
376.582	73.39
376.793	54.95
377.003	106.15
377.214	-22.87
377.424	-22.87
377.635	40.62
377.845	42.67
378.055	97.96
378.266	11.95
378.476	40.62
378.686	40.62
378.897	-2.39
379.107	-33.11
379.317	93.87
379.528	22.19
379.738	122.54
379.948	44.71
380.158	128.68
380.369	38.57
380.579	104.11
380.789	67.24
380.999	20.14
381.21	110.25
381.42	175.78
381.63	28.33
381.84	-16.73
382.05	-63.83
382.261	106.15
382.471	110.25
382.681	48.81
382.891	89.77
383.101	114.34
383.311	26.28
383.521	71.34
383.731	71.34
383.941	95.91
384.151	138.92
384.361	61.1
384.571	57
384.781	67.24
384.991	77.48
385.201	40.62
385.411	83.63
385.621	57
385.831	18.09
386.041	57
386.251	16.04
386.461	7.85
386.671	77.48
386.881	73.39
387.091	22.19
387.301	63.15
387.511	36.52
387.72	69.29
387.93	26.28
388.14	7.85
388.35	38.57
388.56	75.43
388.769	5.8
388.979	143.02
389.189	36.52
389.399	30.38
389.609	79.53
389.818	112.3
390.028	110.25
390.238	40.62
390.447	46.76
390.657	79.53
390.867	112.3
391.076	91.82
391.286	89.77
391.496	30.38
391.705	28.33
391.915	143.02
392.125	89.77
392.334	128.68
392.544	100.01
392.753	40.62
392.963	50.86
393.172	132.78
393.382	50.86
393.591	61.1
393.801	54.95
394.01	128.68
394.22	52.91
394.429	97.96
394.639	71.34
394.848	157.35
395.058	-59.73
395.267	106.15
395.477	118.44
395.686	85.67
395.895	77.48
396.105	145.06
396.314	153.26
396.524	65.19
396.733	63.15
396.942	100.01
397.152	128.68
397.361	112.3
397.57	128.68
397.78	126.63
397.989	16.04
398.198	40.62
398.407	112.3
398.617	118.44
398.826	140.97
399.035	77.48
399.244	81.58
399.453	147.11
399.663	159.4
399.872	161.45
400.081	114.34
400.29	106.15
400.499	57
400.708	153.26
400.917	116.39
401.127	145.06
401.336	110.25
401.545	237.22
401.754	208.55
401.963	110.25
402.172	106.15
402.381	122.54
402.59	110.25
402.799	134.82
403.008	171.69
403.217	116.39
403.426	122.54
403.635	161.45
403.844	122.54
404.053	212.65
404.262	112.3
404.471	202.41
404.68	120.49
404.888	167.59
405.097	132.78
405.306	151.21
405.515	188.07
405.724	143.02
405.933	235.18
406.142	186.02
406.35	208.55
406.559	167.59
406.768	106.15
406.977	186.02
407.185	206.5
407.394	226.98
407.603	165.54
407.812	229.03
408.02	204.46
408.229	251.56
408.438	229.03
408.646	263.85
408.855	284.33
409.064	288.42
409.272	274.09
409.481	302.76
409.69	302.76
409.898	396.96
410.107	343.72
410.315	329.38
410.524	288.42
410.733	411.3
410.941	394.92
411.15	386.72
411.358	429.73
411.567	362.15
411.775	425.64
411.984	450.21
412.192	589.47
412.401	454.31
412.609	609.95
412.818	489.12
413.026	501.41
413.234	511.65
413.443	558.75
413.651	566.95
413.86	581.28
414.068	614.05
414.276	618.15
414.485	685.73
414.693	673.44
414.901	702.11
415.11	800.41
415.318	788.13
415.526	841.37
415.734	824.99
415.943	831.13
416.151	913.05
416.359	892.57
416.567	827.04
416.776	992.92
416.984	1064.6
417.192	1085.08
417.4	1021.6
417.608	1080.99
417.817	1228.44
418.025	1218.2
418.233	1291.93
418.441	1308.31
418.649	1275.54
418.857	1427.09
419.065	1410.71
419.273	1431.19
419.481	1447.57
419.689	1611.41
419.897	1605.27
420.105	1683.09
420.313	1773.2
420.521	1803.92
420.729	1744.53
420.937	1941.13
421.145	1930.89
421.353	1994.38
421.561	2180.75
421.769	2057.87
421.977	2252.42
422.185	2178.7
422.393	2406.02
422.601	2416.26
422.809	2477.7
423.017	2514.56
423.224	2594.44
423.432	2772.61
423.64	2799.23
423.848	2950.78
424.056	2909.82
424.263	3051.13
424.471	3145.34
424.679	3212.92
424.887	3309.18
425.094	3575.41
425.302	3522.16
425.51	3643
425.718	3720.82
425.925	3714.67
426.133	3769.97
426.341	4013.68
426.548	4300.39
426.756	4365.93
426.964	4306.54
427.171	4650.6
427.379	4691.56
427.586	4931.17
427.794	4929.12
428.001	5115.48
428.209	5449.3
428.417	5262.94
428.624	5617.24
428.832	5766.74
429.039	5699.16
429.247	5703.25
429.454	6051.41
429.662	6512.2
429.869	6133.33
430.076	6549.06
430.284	6305.35
430.491	6737.48
430.699	6938.18
430.906	7126.59
431.114	7163.45
431.321	7458.36
431.528	7466.55
431.736	8101.42
431.943	8451.63
432.15	8093.23
432.358	8076.85
432.565	8756.77
432.772	8472.11
432.979	9170.46
433.187	9133.6
433.394	9371.16
433.601	9842.2
433.808	10001.94
434.016	9821.72
434.223	10157.58
434.43	10954.24
434.637	10780.17
434.844	11525.63
435.052	11335.17
435.259	11384.32
435.466	11419.13
435.673	11415.04
435.88	12152.31
436.087	12729.83
436.294	12836.33
436.501	12252.66
436.708	12631.53
436.915	13264.35
437.122	13970.9
437.329	13600.22
437.537	14167.51
437.743	14425.55
437.95	14249.43
438.157	15019.46
438.364	15361.47
438.571	15519.17
438.778	15723.96
438.985	17135.01
439.192	16367.02
439.399	16946.6
439.606	16405.94
439.813	17462.69
440.02	18642.32
440.227	18050.46
440.433	18023.83
440.64	18627.98
440.847	18486.67
441.054	18937.23
441.261	19942.78
441.467	19729.79
441.674	20340.08
441.881	20907.37
442.088	20825.45
442.294	20837.74
442.501	21523.81
442.708	21519.71
442.914	22680.91
443.121	23706.94
443.328	23084.36
443.534	24661.3
443.741	23739.71
443.948	23694.66
444.154	25144.62
444.361	24913.2
444.568	25312.55
444.774	25083.18
444.981	25335.08
445.187	25992.48
445.394	27321.61
445.6	26768.66
445.807	29293.8
446.013	28200.19
446.22	28898.55
446.426	29668.58
446.633	29734.12
446.839	30692.57
447.046	29385.96
447.252	31458.51
447.459	31159.5
447.665	31012.05
447.871	32654.52
448.078	33793.19
448.284	32302.27
448.491	33023.15
448.697	34378.91
448.903	35069.08
449.11	34927.77
449.316	34370.72
449.522	34880.66
449.728	36117.64
449.935	35998.85
450.141	36117.64
450.347	36734.07
450.553	35650.7
450.76	36002.95
450.966	37244.02
451.172	36568.19
451.378	37282.93
451.584	36668.54
451.791	37520.49
451.997	37684.33
452.203	38214.76
452.409	38204.52
452.615	37835.88
452.821	36365.44
453.027	36097.16
453.233	37938.28
453.44	36424.83
453.646	36705.4
453.852	37135.48
454.058	37616.75
454.264	36256.9
454.47	37475.44
454.676	36172.93
454.882	37246.07
455.088	33674.41
455.294	34540.7
455.5	34800.79
455.705	35089.56
455.911	33705.13
456.117	32978.1
456.323	32484.54
456.529	31188.17
456.735	32195.78
456.941	31030.48
457.147	30975.19
457.352	30088.42
457.558	29603.05
457.764	29904.1
457.97	28992.75
458.176	28833.01
458.381	28497.14
458.587	27327.75
458.793	27016.46
458.999	25660.71
459.204	27473.16
459.41	26563.86
459.616	24935.73
459.821	24950.06
460.027	25097.52
460.233	24474.93
460.438	23102.79
460.644	23493.96
460.85	22357.33
461.055	22084.95
461.261	21857.63
461.466	20587.89
461.672	19647.87
461.878	21243.24
462.083	19901.82
462.289	19561.86
462.494	19002.76
462.7	18417.04
462.905	17999.26
463.111	18328.98
463.316	18691.47
463.522	18070.93
463.727	18204.05
463.932	17868.19
464.138	18062.74
464.343	18183.57
464.549	17522.08
464.754	18058.65
464.959	18081.17
465.165	17937.82
465.37	17124.77
465.575	16836.01
465.781	17569.18
465.986	17597.85
466.191	16774.57
466.397	16530.86
466.602	15924.66
466.807	16412.08
467.012	16350.64
467.218	16135.6
467.423	15941.05
467.628	16149.94
467.833	16940.46
468.038	15910.33
468.244	15832.51
468.449	16125.36
468.654	15949.24
468.859	15715.77
469.064	15619.52
469.269	14941.64
469.474	15050.18
469.679	15447.49
469.885	14910.92
470.09	15257.03
470.295	15293.89
470.5	14495.18
470.705	14730.7
470.91	14474.7
471.115	14357.97
471.32	14677.45
471.525	14476.75
471.73	14282.19
471.935	13999.57
472.139	13338.08
472.344	13739.48
472.549	13673.95
472.754	13594.08
472.959	13196.77
473.164	12871.14
473.369	12682.73
473.574	13223.39
473.778	13012.45
473.983	13045.22
474.188	12766.7
474.393	12271.09
474.598	12406.25
474.802	12158.45
475.007	12226.03
475.212	12021.24
475.417	11875.83
475.621	11714.04
475.826	11759.1
476.031	11320.83
476.235	11326.97
476.44	11562.49
476.645	11204.1
476.849	11456
477.054	11122.18
477.259	11044.35
477.463	11140.61
477.668	10720.78
477.872	10837.51
478.077	10642.95
478.282	10419.72
478.486	10528.27
478.691	10468.87
478.895	10294.8
479.1	10176.02
479.304	10128.91
479.509	9879.06
479.713	10212.88
479.918	9991.7
480.122	9827.86
480.326	9803.29
480.531	9901.59
480.735	9590.3
480.94	9651.74
481.144	10130.96
481.348	9684.5
481.553	9584.15
481.757	9598.49
481.961	9661.98
482.166	9770.52
482.37	9491.99
482.574	9408.03
482.778	9471.51
482.983	9731.61
483.187	9739.8
483.391	9483.8
483.595	9504.28
483.8	9313.82
484.004	9645.59
484.208	9596.44
484.412	9313.82
484.616	9399.84
484.821	9575.96
485.025	9358.88
485.229	9588.25
485.433	9434.65
485.637	9457.18
485.841	9448.99
486.045	9352.73
486.249	9303.58
486.453	9322.01
486.657	9631.26
486.861	9678.36
487.065	9379.36
487.269	9633.3
487.473	9143.84
487.677	9606.68
487.881	9614.87
488.085	9430.55
488.289	9457.18
488.493	9379.36
488.697	9555.48
488.901	9569.82
489.105	9403.93
489.309	9784.85
489.512	9676.31
489.716	9674.26
489.92	9537.05
490.124	9639.45
490.328	9704.98
490.531	9700.89
490.735	9635.35
490.939	9780.76
491.143	9520.67
491.346	9797.14
491.55	9956.88
491.754	9786.9
491.958	9811.48
492.161	10018.32
492.365	10022.42
492.569	10030.61
492.772	10313.23
492.976	10268.17
493.18	10255.89
493.383	10337.8
493.587	10327.57
493.79	10538.51
493.994	10542.6
494.197	10493.45
494.401	10507.79
494.605	10561.03
494.808	10767.88
495.012	10786.31
495.215	10833.41
495.419	10962.44
495.622	10747.4
495.825	11087.36
496.029	11136.51
496.232	11300.35
496.436	11111.94
496.639	11466.24
496.843	11392.51
497.046	11779.57
497.249	11865.59
497.453	11924.98
497.656	12109.3
497.859	11804.15
498.063	12357.1
498.266	12543.47
498.469	12172.78
498.673	12561.9
498.876	12652.01
499.079	12639.72
499.282	12813.8
499.485	13186.53
499.689	13055.46
499.892	13524.44
500.095	13391.33
500.298	13645.27
500.501	13465.05
500.705	13987.29
500.908	14058.96
501.111	14378.45
501.314	14536.14
501.517	14536.14
501.72	14773.71
501.923	14876.1
502.126	15054.28
502.329	15037.89
502.532	15375.81
502.735	15429.06
502.938	15717.82
503.141	15758.78
503.344	15922.62
503.547	16131.51
503.75	16090.55
503.953	16647.6
504.156	16840.11
504.359	16903.59
504.562	17073.57
504.765	17374.63
504.968	17374.63
505.17	17624.48
505.373	17604
505.576	17745.31
505.779	18154.9
505.982	18400.66
506.185	18634.13
506.387	18775.44
506.59	19043.72
506.793	19467.65
506.996	19082.63
507.198	19764.61
507.401	19541.38
507.604	19713.41
507.807	20045.18
508.009	20331.89
508.212	20487.54
508.415	20860.27
508.617	20929.9
508.82	21138.79
509.022	21114.22
509.225	21556.58
509.428	21677.41
509.63	21816.67
509.833	21968.22
510.035	22584.66
510.238	22371.67
510.44	22605.14
510.643	23268.68
510.845	23444.8
511.048	23338.31
511.25	23641.41
511.453	23434.57
511.655	24649.01
511.858	24438.07
512.06	24522.04
512.262	24870.19
512.465	24767.79
512.667	25156.91
512.87	25703.71
513.072	25507.11
513.274	26146.08
513.477	26326.3
513.679	26504.47
513.881	26670.36
514.084	27038.99
514.286	27071.76
514.488	27147.53
514.69	28300.54
514.893	28120.32
515.095	28396.79
515.297	28491
515.499	28628.21
515.701	28939.51
515.904	29613.29
516.106	29238.51
516.308	29754.6
516.51	29965.54
516.712	30229.73
516.914	30667.99
517.116	31163.6
517.318	31100.11
517.52	31550.67
517.722	31493.32
517.925	31990.98
518.127	32363.71
518.329	32795.83
518.531	32367.8
518.733	32974
518.935	33397.93
519.136	33510.57
519.338	33830.05
519.54	33961.12
519.742	34370.72
519.944	34438.3
520.146	35320.98
520.348	35425.42
520.55	35150.99
520.752	35505.29
520.954	35906.69
521.155	36349.06
521.357	36607.1
521.559	36469.89
521.761	37303.41
521.963	37102.71
522.164	37870.7
522.366	37475.44
522.568	38089.83
522.77	38061.16
522.971	38923.35
523.173	38906.97
523.375	38990.94
523.576	39156.82
523.778	39165.01
523.98	39879.75
524.181	40002.63
524.383	39971.91
524.584	40295.49
524.786	40422.47
524.988	40430.66
525.189	40901.69
525.391	40985.66
525.592	41405.49
525.794	41884.72
525.995	41454.64
526.197	41548.85
526.398	42030.12
526.6	42132.52
526.801	42355.75
527.003	42648.61
527.204	42462.24
527.406	42695.71
527.607	42869.79
527.808	43156.5
528.01	42834.97
528.211	43084.83
528.412	43975.69
528.614	43617.3
528.815	43664.4
529.016	44233.74
529.218	43861.01
529.419	44334.09
529.62	44020.75
529.822	44073.99
530.023	44329.99
530.224	44536.84
530.425	44428.29
530.626	44157.96
530.828	44065.8
531.029	45280.25
531.23	44616.71
531.431	44895.23
531.632	44983.29
531.833	45319.16
532.035	44973.05
532.236	45300.73
532.437	45450.23
532.638	44839.93
532.839	45175.8
533.04	45501.43
533.241	45095.93
533.442	46128.11
533.643	45548.53
533.844	45671.41
534.045	45845.49
534.246	45655.03
534.447	45638.64
534.648	45890.54
534.849	45270.01
535.05	45722.61
535.251	45695.99
535.451	45804.53
535.652	45929.45
535.853	45820.91
536.054	46105.58
536.255	46334.95
536.456	45552.63
536.657	46623.72
536.857	45902.83
537.058	45700.08
537.259	46300.14
537.46	46119.91
537.66	46124.01
537.861	46359.53
538.062	45884.4
538.263	46515.17
538.463	45521.91
538.664	45773.81
538.865	46334.95
539.065	46685.15
539.266	45589.49
539.466	46441.45
539.667	45663.22
539.868	46277.61
540.068	45937.65
540.269	45841.39
540.469	46189.55
540.67	45949.93
540.87	46232.55
541.071	45743.09
541.271	46134.25
541.472	45755.38
541.672	45435.89
541.873	45935.6
542.073	45341.69
542.274	46388.2
542.474	46150.63
542.675	45542.39
542.875	46296.04
543.075	46210.03
543.276	45515.76
543.476	46015.47
543.676	45747.18
543.877	46265.32
544.077	45964.27
544.277	46134.25
544.478	45749.23
544.678	45861.87
544.878	46007.28
545.078	45618.16
545.279	45779.95
545.479	45775.86
545.679	46287.85
545.879	45822.96
546.079	45892.59
546.28	45575.16
546.48	45714.42
546.68	46216.17
546.88	45829.1
547.08	45968.37
547.28	45847.54
547.48	45298.68
547.68	45806.58
547.88	45609.97
548.081	45642.74
548.281	45433.85
548.481	45442.04
548.681	46267.37
548.881	45786.1
549.081	45474.8
549.28	45050.88
549.48	45736.94
549.68	45687.79
549.88	46240.75
550.08	45485.04
550.28	45792.24
550.48	45261.82
550.68	45841.39
550.88	45241.34
551.08	45755.38
551.279	45640.69
551.479	45321.21
551.679	45734.9
551.879	45179.9
552.079	45935.6
552.278	45304.82
552.478	45370.36
552.678	45642.74
552.878	45595.63
553.077	45652.98
553.277	45167.61
553.477	45685.75
553.676	45476.85
553.876	45487.09
554.076	45409.27
554.275	45458.42
554.475	44991.48
554.674	45548.53
554.874	45169.66
555.074	45132.79
555.273	45081.59
555.473	45147.13
555.672	45167.61
555.872	45143.03
556.071	45173.75
556.271	45409.27
556.47	44653.57
556.67	44856.32
556.869	44770.3
557.068	45032.44
557.268	44692.48
557.467	44633.09
557.667	44731.39
557.866	44551.17
558.065	44516.36
558.265	44514.31
558.464	44086.28
558.663	44766.21
558.863	44217.35
559.062	44585.99
559.261	43641.87
559.461	44635.14
559.66	43947.02
559.859	44215.3
560.058	43717.65
560.258	44311.56
560.457	43621.39
560.656	43981.84
560.855	43693.07
561.054	44012.56
561.253	43011.1
561.453	43711.5
561.652	44082.19
561.851	43588.63
562.05	43498.51
562.249	43183.13
562.448	43770.89
562.647	43809.81
562.846	43609.11
563.045	43181.08
563.244	42820.64
563.443	43449.36
563.642	42556.45
563.841	42761.25
564.04	42816.54
564.239	43248.66
564.438	42300.45
564.637	42523.68
564.836	42583.07
565.035	42198.05
565.234	42011.69
565.432	42109.99
565.631	42132.52
565.83	42210.34
566.029	41790.51
566.228	41632.82
566.427	41686.06
566.625	41294.9
566.824	41180.21
567.023	41479.22
567.222	40889.4
567.42	41301.04
567.619	41215.03
567.818	40666.17
568.016	41135.16
568.215	41030.71
568.414	40807.48
568.612	41153.59
568.811	40588.35
569.01	40879.16
569.208	40115.27
569.407	40449.09
569.605	39969.86
569.804	40809.53
570.002	40412.23
570.201	40035.4
570.4	40156.23
570.598	39650.38
570.797	39357.52
570.995	39881.8
571.193	39500.88
571.392	39849.03
571.59	38816.86
571.789	39291.99
571.987	39103.57
572.186	38995.03
572.384	38524
572.582	39320.66
572.781	39011.42
572.979	38261.86
573.177	38665.31
573.376	39001.18
573.574	38407.26
573.772	38696.03
573.971	38057.06
574.169	38030.44
574.367	37889.13
574.565	38294.63
574.763	37958.76
574.962	37950.57
575.16	37387.38
575.358	37616.75
575.556	37473.39
575.754	37880.94
575.952	37225.59
576.151	37639.28
576.349	36631.68
576.547	37053.56
576.745	36971.64
576.943	37102.71
577.141	36762.75
577.339	36635.77
577.537	36570.24
577.735	36596.86
577.933	36447.36
578.131	36545.66
578.329	36162.69
578.527	35865.74
578.725	36168.83
578.923	36250.75
579.121	35699.85
579.319	35935.37
579.516	35818.63
579.714	35556.49
579.912	35089.56
580.11	35507.34
580.308	35456.14
580.506	35583.12
580.704	34614.43
580.901	35241.1
581.099	35640.46
581.297	34706.59
581.495	34548.89
581.692	34989.2
581.89	34665.63
582.088	35007.64
582.285	34512.03
582.483	34968.73
582.681	34526.36
582.878	34155.68
583.076	33957.03
583.274	34518.17
583.471	33963.17
583.669	33850.53
583.866	33791.14
584.064	33731.75
584.262	33383.6
584.459	33637.55
584.657	33383.6
584.854	34026.66
585.052	32830.65
585.249	33520.81
585.447	33186.99
585.644	32988.34
585.841	32994.48
586.039	33082.55
586.236	32844.98
586.434	32662.71
586.631	32244.93
586.828	32490.68
587.026	32402.62
587.223	32410.81
587.42	32234.69
587.618	32404.67
587.815	32101.57
588.012	31943.88
588.21	31847.62
588.407	32122.05
588.604	31872.2
588.801	31798.47
588.999	31665.35
589.196	31497.42
589.393	31503.56
589.59	31743.17
589.787	30991.57
589.984	30942.42
590.182	30747.86
590.379	30899.41
590.576	30854.36
590.773	30694.61
590.97	30792.92
591.167	31030.48
591.364	29943.01
591.561	30678.23
591.758	30393.56
591.955	30123.23
592.152	30205.15
592.349	30016.74
592.546	30213.34
592.743	30133.47
592.94	29621.48
593.137	29910.24
593.334	29410.54
593.531	29209.84
593.727	29465.83
593.924	29222.12
594.121	29072.62
594.318	29410.54
594.515	28941.55
594.712	29291.76
594.908	29183.21
595.105	29002.99
595.302	28726.52
595.499	28757.24
595.696	28480.76
595.892	28239.1
596.089	28536.06
596.286	28531.96
596.482	28341.5
596.679	28480.76
596.876	28400.89
597.072	28218.62
597.269	27985.15
597.466	27485.45
597.662	27766.02
597.859	27458.82
598.055	27454.73
598.252	27407.62
598.448	27632.9
598.645	27249.93
598.841	27292.94
599.038	27374.86
599.234	27125
599.431	26746.13
599.627	27170.06
599.824	26936.59
600.02	26836.24
600.217	26842.39
600.413	26897.68
600.609	26541.33
600.806	26199.32
601.002	26352.92
601.198	26369.3
601.395	26275.1
601.591	26236.19
601.787	26201.37
601.984	26113.31
602.18	26246.43
602.376	25836.83
602.572	25972
602.769	25888.03
602.965	25629.99
603.161	25773.35
603.357	25298.22
603.553	25261.35
603.75	25476.39
603.946	25199.91
604.142	25197.87
604.338	24884.53
604.534	25255.21
604.73	24907.05
604.926	24663.35
605.122	24679.73
605.318	24462.65
605.514	24522.04
605.71	24499.51
605.906	24487.22
606.102	24450.36
606.298	24313.14
606.494	24452.41
606.69	24118.59
606.886	24220.99
607.082	23827.78
607.278	24116.54
607.474	23510.34
607.67	23813.44
607.866	23416.13
608.062	23942.46
608.257	23635.27
608.453	23831.87
608.649	23715.14
608.845	23450.95
609.041	23608.64
609.236	23592.26
609.432	23391.56
609.628	23303.5
609.824	23463.24
610.019	23018.83
610.215	23221.58
610.411	23459.14
610.606	23082.31
610.802	23156.04
610.998	22990.16
611.193	22953.29
611.389	22945.1
611.584	22787.41
611.78	22709.58
611.976	22904.14
612.171	22736.21
612.367	22662.48
612.562	22508.88
612.758	22332.76
612.953	21849.44
613.149	22480.21
613.344	22312.28
613.539	22517.08
613.735	22381.91
613.93	22259.03
614.126	22191.45
614.321	22365.53
614.517	22033.75
614.712	22170.97
614.907	22000.99
615.103	22453.59
615.298	21831.01
615.493	22203.74
615.688	21663.07
615.884	22156.63
616.079	21294.44
616.274	21908.83
616.47	21687.65
616.665	21785.95
616.86	21640.54
617.055	21474.66
617.25	21347.68
617.445	21480.8
617.641	20968.81
617.836	21456.23
618.031	21083.5
618.226	21409.12
618.421	21009.77
618.616	21353.83
618.811	20870.51
619.006	20876.65
619.201	20438.39
619.396	20800.88
619.591	20274.55
619.786	20551.03
619.981	20286.84
620.176	20731.25
620.371	20485.49
620.566	20245.88
620.761	20147.58
620.956	20370.8
621.151	19959.16
621.346	20213.11
621.541	19641.73
621.735	20106.62
621.93	19490.18
622.125	19316.1
622.32	19481.99
622.515	19451.27
622.709	19131.78
622.904	19350.92
623.099	19180.93
623.294	19056.01
623.488	18771.34
623.683	18785.68
623.878	18371.99
624.072	18617.74
624.267	18580.88
624.462	18245.01
624.656	18474.38
624.851	18093.46
625.046	18003.35
625.24	17948.06
625.435	17798.56
625.629	17759.64
625.824	17726.88
626.018	17698.2
626.213	17317.28
626.407	17325.47
626.602	17212.84
626.796	17212.84
626.991	17171.88
627.185	17128.87
627.38	16874.92
627.574	16903.59
627.768	16625.07
627.963	16690.6
628.157	16631.21
628.352	16623.02
628.546	16217.52
628.74	16264.63
628.935	16059.83
629.129	16092.6
629.323	15939
629.517	15949.24
629.712	15934.9
629.906	15723.96
630.1	15607.23
630.294	15605.18
630.489	15396.29
630.683	15566.27
630.877	15216.07
631.071	15234.5
631.265	15314.37
631.459	14966.21
631.653	14994.89
631.848	15173.06
632.042	14992.84
632.236	14867.91
632.43	14742.99
632.624	14564.81
632.818	14628.3
633.012	14607.82
633.206	14331.34
633.4	14482.89
633.594	14061.01
633.788	14233.04
633.982	14300.62
634.176	14026.2
634.369	14081.49
634.563	13739.48
634.757	13899.22
634.951	13798.87
635.145	13536.73
635.339	13800.92
635.533	13327.84
635.726	13389.28
635.92	13127.14
636.114	13196.77
636.308	13096.42
636.501	13077.99
636.695	13057.51
636.889	13082.08
637.083	13022.69
637.276	12891.62
637.47	12715.5
637.664	12613.1
637.857	12574.19
638.051	12678.63
638.244	12420.59
638.438	12475.88
638.632	12346.86
638.825	12357.1
639.019	12156.4
639.212	12004.85
639.406	12254.7
639.599	11898.36
639.793	11959.8
639.986	11750.9
640.18	12113.39
640.373	11931.12
640.567	11623.93
640.76	11550.2
640.954	11656.7
641.147	11417.08
641.34	11251.2
641.534	11650.55
641.727	11488.76
641.92	11341.31
642.114	11202.05
642.307	11103.75
642.5	11120.13
642.694	10944
642.887	10923.52
643.08	11161.09
643.273	10780.17
643.467	10786.31
643.66	10743.3
643.853	10739.21
644.046	10382.86
644.239	10548.75
644.432	10319.37
644.626	10225.17
644.819	10257.93
645.012	10370.57
645.205	10196.5
645.398	10171.92
645.591	10161.68
645.784	9854.48
645.977	9960.98
646.17	10049.04
646.363	10024.47
646.556	9725.46
646.749	9893.4
646.942	9715.22
647.135	9547.29
647.328	9561.62
647.521	9586.2
647.714	9553.43
647.907	9500.19
648.099	9485.85
648.292	9590.3
648.485	9430.55
648.678	9205.28
648.871	9248.29
649.064	9369.12
649.256	9166.37
649.449	9100.83
649.642	9074.21
649.835	9029.15
650.027	8926.75
650.22	8805.92
650.413	8678.95
650.605	8891.94
650.798	8771.11
650.991	8603.18
651.183	8666.66
651.376	8724.01
651.568	8496.68
651.761	8574.5
651.954	8621.61
652.146	8298.03
652.339	8402.47
652.531	8496.68
652.724	8271.4
652.916	8230.45
653.109	8257.07
653.301	8181.29
653.494	8230.45
653.686	8087.09
653.879	8117.81
654.071	7986.74
654.263	8179.25
654.456	8132.14
654.648	7898.67
654.84	7853.62
655.033	7808.56
655.225	7761.46
655.417	7843.38
655.61	7687.73
655.802	7634.49
655.994	7704.12
656.186	7515.7
656.379	7517.75
656.571	7620.15
656.763	7437.88
656.955	7288.38
657.148	7605.81
657.34	7339.58
657.532	7183.93
657.724	7446.07
657.916	7192.12
658.108	7169.6
658.3	7145.02
658.492	7376.44
658.684	7114.3
658.876	6962.75
659.068	7048.77
659.26	6979.14
659.452	6964.8
659.644	6983.23
659.836	6889.03
660.028	6889.03
660.22	6696.52
660.412	6807.11
660.604	6594.12
660.796	6749.76
660.988	6764.1
661.18	6442.57
661.372	6602.31
661.563	6698.56
661.755	6422.09
661.947	6487.62
662.139	6569.54
662.331	6485.58
662.522	6291.02
662.714	6336.07
662.906	6182.48
663.097	6325.83
663.289	6231.63
663.481	6055.5
663.673	6262.35
663.864	6116.94
664.056	6174.28
664.247	6151.76
664.439	5967.44
664.631	6200.91
664.822	6114.89
665.014	6037.07
665.205	5901.9
665.397	5922.38
665.588	5994.06
665.78	5926.48
665.971	5862.99
666.163	5906
666.354	5822.03
666.546	5819.99
666.737	5781.07
666.929	5803.6
667.12	5713.49
667.311	5537.37
667.503	5561.94
667.694	5658.2
667.885	5531.22
668.077	5613.14
668.268	5500.5
668.459	5643.86
668.651	5500.5
668.842	5658.2
669.033	5572.18
669.224	5543.51
669.416	5525.08
669.607	5377.62
669.798	5410.39
669.989	5402.2
670.18	5451.35
670.371	5428.82
670.563	5183.07
670.754	5228.12
670.945	5254.75
671.136	5250.65
671.327	5320.28
671.518	5332.57
671.709	5301.85
671.9	5238.36
672.091	5248.6
672.282	5168.73
672.473	5049.95
672.664	5129.82
672.855	5004.89
673.046	5123.68
673.237	5166.68
673.428	5113.44
673.619	5035.61
673.809	4980.32
674	4879.97
674.191	4847.2
674.382	4949.6
674.573	5052
674.764	4763.23
674.954	4927.07
675.145	4757.09
675.336	4988.51
675.527	4898.4
675.717	4851.3
675.908	4675.17
676.099	4871.78
676.289	4685.41
676.48	4812.39
676.671	4566.63
676.861	4388.46
677.052	4691.56
677.243	4716.13
677.433	4537.96
677.624	4669.03
677.814	4544.1
678.005	4652.64
678.195	4748.9
678.386	4652.64
678.576	4636.26
678.767	4574.82
678.957	4644.45
679.148	4707.94
679.338	4529.77
679.529	4646.5
679.719	4615.78
679.909	4744.8
680.1	4499.05
680.29	4509.29
680.481	4548.2
680.671	4628.07
680.861	4443.75
681.052	4630.12
681.242	4505.19
681.432	4644.45
681.622	4378.22
681.813	4476.52
682.003	4568.68
682.193	4365.93
682.383	4562.53
682.573	4486.76
682.764	4480.61
682.954	4345.45
683.144	4521.57
683.334	4468.33
683.524	4394.6
683.714	4374.12
683.904	4318.82
684.094	4497
684.284	4378.22
684.474	4320.87
684.664	4296.3
684.854	4562.53
685.044	4322.92
685.234	4298.35
685.424	4169.32
685.614	4331.11
685.804	4304.49
685.994	4124.27
686.184	4480.61
686.374	4290.15
686.564	4222.57
686.753	4406.89
686.943	4187.75
687.133	4210.28
687.323	4210.28
687.513	4150.89
687.702	4132.46
687.892	3972.72
688.082	4193.9
688.272	4005.49
688.461	4011.63
688.651	4079.21
688.841	4062.83
689.03	4079.21
689.22	4114.03
689.41	3927.66
689.599	3845.74
689.789	3923.57
689.979	3935.85
690.168	4011.63
690.358	3860.08
690.547	3853.94
690.737	3905.14
690.926	3845.74
691.116	3741.3
691.305	4028.01
691.495	3755.63
691.684	3841.65
691.874	3806.83
692.063	3862.13
692.252	3812.98
692.442	3806.83
692.631	3597.94
692.82	3696.24
693.01	3595.89
693.199	3673.71
693.388	3718.77
693.578	3757.68
693.767	3765.87
693.956	3667.57
694.146	3542.64
694.335	3669.62
694.524	3618.42
694.713	3583.6
694.902	3681.91
695.092	3583.6
695.281	3505.78
695.47	3505.78
695.659	3479.16
695.848	3399.29
696.037	3610.23
696.226	3513.97
696.415	3534.45
696.604	3616.37
696.793	3483.25
696.982	3614.32
697.171	3540.6
697.36	3554.93
697.549	3520.12
697.738	3446.39
697.927	3473.01
698.116	3430.01
698.305	3387
698.494	3485.3
698.683	3530.36
698.872	3559.03
699.061	3587.7
699.25	3419.77
699.438	3530.36
699.627	3516.02
699.816	3423.86
700.005	3419.77
700.193	3493.49
700.382	3397.24
700.571	3387
700.76	3380.86
700.948	3483.25
701.137	3350.14
701.326	3452.53
701.514	3499.64
701.703	3399.29
701.892	3378.81
702.08	3608.18
702.269	3516.02
702.457	3401.33
702.646	3473.01
702.834	3489.4
703.023	3360.38
703.212	3430.01
703.4	3448.44
703.589	3497.59
703.777	3366.52
703.965	3473.01
704.154	3313.27
704.342	3362.42
704.531	3343.99
704.719	3321.46
704.907	3448.44
705.096	3294.84
705.284	3370.62
705.472	3352.18
705.661	3200.63
705.849	3413.62
706.037	3262.07
706.226	3464.82
706.414	3315.32
706.602	3427.96
706.79	3360.38
706.979	3389.05
707.167	3282.55
707.355	3350.14
707.543	3368.57
707.731	3495.54
707.919	3526.26
708.107	3395.19
708.296	3389.05
708.484	3221.11
708.672	3384.95
708.86	3257.98
709.048	3348.09
709.236	3415.67
709.424	3446.39
709.612	3323.51
709.8	3341.94
709.988	3380.86
710.176	3360.38
710.364	3505.78
710.551	3466.87
710.739	3442.29
710.927	3288.7
711.115	3341.94
711.303	3468.92
711.491	3333.75
711.679	3397.24
711.866	3274.36
712.054	3362.42
712.242	3501.69
712.43	3366.52
712.617	3395.19
712.805	3548.79
712.993	3335.8
713.181	3264.12
713.368	3446.39
713.556	3323.51
713.744	3387
713.931	3360.38
714.119	3415.67
714.306	3395.19
714.494	3356.28
714.682	3497.59
714.869	3309.18
715.057	3380.86
715.244	3411.57
715.432	3407.48
715.619	3278.46
715.807	3247.74
715.994	3321.46
716.182	3483.25
716.369	3325.56
716.556	3395.19
716.744	3180.15
716.931	3298.94
717.119	3329.66
717.306	3407.48
717.493	3251.83
717.681	3260.02
717.868	3479.16
718.055	3327.61
718.242	3423.86
718.43	3438.2
718.617	3403.38
718.804	3239.55
718.991	3427.96
719.179	3382.9
719.366	3321.46
719.553	3423.86
719.74	3282.55
719.927	3378.81
720.114	3305.08
720.301	3276.41
720.488	3311.22
720.676	3249.79
720.863	3343.99
721.05	3391.09
721.237	3421.81
721.424	3452.53
721.611	3374.71
721.798	3384.95
721.985	3268.22
722.172	3196.54
722.358	3432.05
722.545	3360.38
722.732	3331.7
722.919	3257.98
723.106	3317.37
723.293	3292.79
723.48	3362.42
723.667	3296.89
723.853	3286.65
724.04	3360.38
724.227	3284.6
724.414	3225.21
724.6	3298.94
724.787	3288.7
724.974	3245.69
725.161	3333.75
725.347	3323.51
725.534	3251.83
725.72	3460.73
725.907	3286.65
726.094	3280.5
726.28	3296.89
726.467	3346.04
726.653	3219.07
726.84	3243.64
727.027	3212.92
727.213	3139.19
727.4	3169.91
727.586	3210.87
727.773	3249.79
727.959	3118.72
728.145	3237.5
728.332	3208.83
728.518	3260.02
728.705	3288.7
728.891	3239.55
729.077	3176.06
729.264	3155.58
729.45	3229.31
729.636	3235.45
729.823	3085.95
730.009	3153.53
730.195	3243.64
730.382	3202.68
730.568	3057.28
730.754	3212.92
730.94	3147.39
731.126	3260.02
731.313	3225.21
731.499	3124.86
731.685	3067.52
731.871	3141.24
732.057	3128.95
732.243	3139.19
732.429	3155.58
732.615	3094.14
732.801	3110.52
732.987	3253.88
733.173	3161.72
733.359	3239.55
733.545	3247.74
733.731	2973.31
733.917	3071.61
734.103	3202.68
734.289	3098.24
734.475	3194.49
734.661	3165.82
734.847	3092.09
735.033	2979.45
735.219	3126.91
735.404	3094.14
735.59	3071.61
735.776	2989.69
735.962	2989.69
736.148	2979.45
736.333	3020.41
736.519	2999.93
736.705	3061.37
736.89	2999.93
737.076	2987.65
737.262	2936.45
737.447	3112.57
737.633	2846.34
737.819	3051.13
738.004	2981.5
738.19	2961.02
738.375	2899.58
738.561	2899.58
738.747	2907.77
738.932	2928.25
739.118	2952.83
739.303	2866.81
739.489	2819.71
739.674	2784.9
739.859	2829.95
740.045	2901.63
740.23	2786.94
740.416	2756.22
740.601	2823.81
740.786	2911.87
740.972	2764.42
741.157	2809.47
741.342	2690.69
741.528	2915.97
741.713	2782.85
741.898	2809.47
742.084	2725.51
742.269	2872.96
742.454	2692.74
742.639	2754.18
742.824	2731.65
743.01	2627.2
743.195	2719.36
743.38	2649.73
743.565	2608.77
743.75	2637.44
743.935	2692.74
744.12	2592.39
744.305	2602.63
744.49	2571.91
744.675	2471.56
744.86	2621.06
745.045	2502.28
745.23	2518.66
745.415	2516.61
745.6	2494.08
745.785	2555.52
745.97	2539.14
746.155	2391.69
746.34	2502.28
746.525	2461.32
746.71	2389.64
746.895	2414.21
747.079	2455.17
747.264	2440.84
747.449	2481.8
747.634	2332.3
747.819	2369.16
748.003	2301.58
748.188	2315.91
748.373	2408.07
748.557	2354.82
748.742	2295.43
748.927	2258.57
749.111	2209.42
749.296	2231.94
749.481	2279.05
749.665	2215.56
749.85	2123.4
750.034	2195.08
750.219	2168.46
750.404	2080.39
750.588	2035.34
750.773	2068.11
750.957	2082.44
751.141	2021
751.326	1969.8
751.51	2051.72
751.695	2029.2
751.879	2027.15
752.064	1969.8
752.248	1928.85
752.432	2072.2
752.617	2006.67
752.801	1990.28
752.985	1994.38
753.17	1924.75
753.354	1955.47
753.538	1951.37
753.722	1769.1
753.907	1838.73
754.091	1883.79
754.275	1846.93
754.459	1928.85
754.643	1822.35
754.828	1844.88
755.012	1719.95
755.196	1701.52
755.38	1687.18
755.564	1703.57
755.748	1699.47
755.932	1771.15
756.116	1676.95
756.3	1621.65
756.484	1705.62
756.668	1646.23
756.852	1633.94
757.036	1629.84
757.22	1666.71
757.404	1539.73
757.588	1689.23
757.772	1611.41
757.956	1547.92
758.14	1658.51
758.323	1631.89
758.507	1654.42
758.691	1574.55
758.875	1529.49
759.059	1431.19
759.242	1586.83
759.426	1535.64
759.61	1615.51
759.794	1511.06
759.977	1519.25
760.161	1455.76
760.345	1437.33
760.528	1500.82
760.712	1525.4
760.895	1492.63
761.079	1375.89
761.263	1451.67
761.446	1410.71
761.63	1347.22
761.813	1310.36
761.997	1474.2
762.18	1357.46
762.364	1398.42
762.547	1375.89
762.731	1420.95
762.914	1347.22
763.098	1328.79
763.281	1293.97
763.464	1330.84
763.648	1365.65
763.831	1279.64
764.015	1279.64
764.198	1463.96
764.381	1359.51
764.564	1273.5
764.748	1189.53
764.931	1257.11
765.114	1283.74
765.297	1232.54
765.481	1281.69
765.664	1257.11
765.847	1312.41
766.03	1277.59
766.213	1173.14
766.397	1263.26
766.58	1103.51
766.763	1154.71
766.946	1101.47
767.129	1257.11
767.312	1212.06
767.495	1103.51
767.678	1224.34
767.861	1218.2
768.044	1207.96
768.227	1228.44
768.41	1146.52
768.593	1195.67
768.776	1169.05
768.959	1158.81
769.142	1162.9
769.324	1052.31
769.507	1167
769.69	1136.28
769.873	1089.18
770.056	1152.67
770.239	1083.03
770.421	1148.57
770.604	1095.32
770.787	1021.6
770.97	1015.45
771.152	1111.71
771.335	1019.55
771.518	1068.7
771.7	1050.27
771.883	1121.95
772.066	1044.12
772.248	1040.03
772.431	1113.75
772.613	1031.83
772.796	941.72
772.978	1072.79
773.161	1040.03
773.343	1087.13
773.526	1068.7
773.708	947.87
773.891	917.15
774.073	982.68
774.256	962.2
774.438	972.44
774.621	943.77
774.803	990.88
774.985	988.83
775.168	937.63
775.35	980.64
775.532	978.59
775.715	1009.31
775.897	978.59
776.079	921.24
776.261	929.44
776.444	870.05
776.626	925.34
776.808	816.8
776.99	859.81
777.173	931.48
777.355	933.53
777.537	827.04
777.719	911
777.901	859.81
778.083	775.84
778.265	800.41
778.447	781.98
778.629	763.55
778.811	853.66
778.993	773.79
779.175	745.12
779.357	843.42
779.539	730.78
779.721	812.7
779.903	794.27
780.085	722.59
780.267	659.1
780.449	777.89
780.631	700.06
780.812	859.81
780.994	695.97
781.176	663.2
781.358	695.97
781.54	706.21
781.721	603.81
781.903	687.78
782.085	704.16
782.267	585.38
782.448	630.43
782.63	671.39
782.812	646.82
782.993	564.9
783.175	689.82
783.357	685.73
783.538	612
783.72	652.96
783.901	593.57
784.083	652.96
784.264	564.9
784.446	511.65
784.627	628.39
784.809	609.95
784.99	585.38
785.172	614.05
785.353	657.06
785.535	595.62
785.716	532.13
785.897	532.13
786.079	517.79
786.26	548.51
786.441	575.14
786.623	485.03
786.804	476.84
786.985	538.27
787.167	523.94
787.348	538.27
787.529	513.7
787.71	593.57
787.891	470.69
788.073	448.16
788.254	399.01
788.435	581.28
788.616	546.47
788.797	499.36
788.978	435.88
789.159	444.07
789.34	581.28
789.522	489.12
789.703	417.44
789.884	485.03
790.065	460.45
790.246	491.17
790.427	462.5
790.607	351.91
790.788	458.4
790.969	450.21
791.15	401.06
791.331	442.02
791.512	437.92
791.693	351.91
791.874	487.08
792.054	493.22
792.235	476.84
792.416	435.88
792.597	417.44
792.778	472.74
792.958	460.45
793.139	386.72
793.32	472.74
793.5	429.73
793.681	323.24
793.862	362.15
794.042	425.64
794.223	300.71
794.404	413.35
794.584	431.78
794.765	384.68
794.945	427.68
795.126	405.16
795.306	331.43
795.487	323.24
795.667	308.9
795.848	341.67
796.028	286.37
796.209	392.87
796.389	347.81
796.57	423.59
796.75	368.29
796.93	368.29
797.111	372.39
797.291	368.29
797.471	362.15
797.652	431.78
797.832	319.14
798.012	315.05
798.192	302.76
798.373	331.43
798.553	380.58
798.733	347.81
798.913	366.25
799.093	337.57
799.274	288.42
799.454	310.95
799.634	337.57
799.814	396.96
799.994	339.62
800.174	331.43
800.354	315.05
800.534	284.33
800.714	339.62
800.894	339.62
801.074	261.8
801.254	376.48
801.434	351.91
801.614	263.85
801.794	216.74
801.974	734.88
802.154	302.76
802.334	310.95
802.514	323.24
802.693	317.09
802.873	278.18
803.053	292.52
803.233	276.13
803.413	274.09
803.592	226.98
803.772	206.5
803.952	298.66
804.131	351.91
804.311	325.29
804.491	218.79
804.67	265.89
804.85	220.84
805.03	188.07
805.209	245.41
805.389	255.65
805.568	286.37
805.748	290.47
805.928	280.23
806.107	292.52
806.287	265.89
806.466	265.89
806.646	259.75
806.825	169.64
807.004	186.02
807.184	226.98
807.363	368.29
807.543	253.61
807.722	255.65
807.901	280.23
808.081	229.03
808.26	239.27
808.439	233.13
808.619	179.88
808.798	194.22
808.977	261.8
809.156	220.84
809.336	229.03
809.515	278.18
809.694	222.89
809.873	212.65
810.052	220.84
810.231	200.36
810.411	210.6
810.59	351.91
810.769	165.54
810.948	220.84
811.127	163.5
811.306	259.75
811.485	188.07
811.664	179.88
811.843	155.3
812.022	269.99
812.201	231.08
812.38	181.93
812.559	212.65
812.737	161.45
812.916	212.65
813.095	138.92
813.274	249.51
813.453	243.37
813.632	235.18
813.811	208.55
813.989	204.46
814.168	175.78
814.347	194.22
814.526	153.26
814.704	126.63
814.883	192.17
815.062	175.78
815.24	196.26
815.419	171.69
815.598	159.4
815.776	95.91
815.955	120.49
816.133	167.59
816.312	175.78
816.49	112.3
816.669	202.41
816.847	126.63
817.026	165.54
817.204	179.88
817.383	122.54
817.561	126.63
817.74	177.83
817.918	165.54
818.097	157.35
818.275	140.97
818.453	163.5
818.632	177.83
818.81	196.26
818.988	106.15
819.167	216.74
819.345	112.3
819.523	102.06
819.701	159.4
819.879	63.15
820.058	89.77
820.236	161.45
820.414	124.58
820.592	175.78
820.77	179.88
820.948	177.83
821.127	100.01
821.305	159.4
821.483	114.34
821.661	226.98
821.839	110.25
822.017	67.24
822.195	147.11
822.373	204.46
822.551	155.3
822.729	175.78
822.907	87.72
823.085	163.5
823.262	118.44
823.44	116.39
823.618	161.45
823.796	143.02
823.974	134.82
824.152	81.58
824.329	73.39
824.507	114.34
824.685	104.11
824.863	147.11
825.04	122.54
825.218	218.79
825.396	138.92
825.574	71.34
825.751	38.57
825.929	126.63
826.107	108.2
826.284	85.67
826.462	130.73
826.639	171.69
826.817	110.25
826.994	73.39
827.172	93.87
827.349	69.29
827.527	116.39
827.704	138.92
827.882	188.07
828.059	114.34
828.237	95.91
828.414	206.5
828.591	79.53
828.769	100.01
828.946	93.87
829.124	110.25
829.301	161.45
829.478	36.52
829.655	143.02
829.833	106.15
830.01	89.77
830.187	100.01
830.364	63.15
830.542	151.21
830.719	151.21
830.896	147.11
831.073	157.35
831.25	83.63
831.427	65.19
831.604	120.49
831.782	54.95
831.959	87.72
832.136	79.53
832.313	134.82
832.49	57
832.667	63.15
832.844	73.39
833.021	151.21
833.198	138.92
833.374	112.3
833.551	59.05
833.728	114.34
833.905	77.48
834.082	-41.3
834.259	69.29
834.436	175.78
834.612	65.19
834.789	106.15
834.966	81.58
835.143	57
835.319	75.43
835.496	75.43
835.673	140.97
835.85	126.63
836.026	100.01
836.203	67.24
836.38	104.11
836.556	24.23
836.733	54.95
836.909	81.58
837.086	69.29
837.262	48.81
837.439	104.11
837.616	110.25
837.792	81.58
837.968	44.71
838.145	57
838.321	106.15
838.498	106.15
838.674	69.29
838.851	89.77
839.027	106.15
839.203	95.91
839.38	155.3
839.556	83.63
839.732	42.67
839.909	87.72
840.085	77.48
840.261	-18.77
840.437	114.34
840.614	69.29
840.79	126.63
840.966	38.57
841.142	36.52
841.318	-8.53
841.494	155.3
841.671	97.96
841.847	114.34
842.023	36.52
842.199	79.53
842.375	26.28
842.551	89.77
842.727	61.1
842.903	106.15
843.079	95.91
843.255	-22.87
843.431	114.34
843.607	-8.53
843.783	24.23
843.959	7.85
844.134	67.24
844.31	165.54
844.486	97.96
844.662	7.85
844.838	28.33
845.013	83.63
845.189	93.87
845.365	24.23
845.541	67.24
845.716	32.43
845.892	48.81
846.068	57
846.244	48.81
846.419	54.95
846.595	-45.4
846.77	44.71
846.946	9.9
847.122	13.99
847.297	79.53
847.473	69.29
847.648	36.52
847.824	48.81
847.999	36.52
848.175	-8.53
848.35	63.15
848.526	61.1
848.701	46.76
848.876	57
849.052	5.8
849.227	16.04
849.403	26.28
849.578	3.75
849.753	89.77
849.929	40.62
850.104	7.85
850.279	32.43
850.454	32.43
850.63	87.72
850.805	16.04
850.98	-0.34
851.155	89.77
851.33	52.91
851.505	-10.58
851.681	95.91
851.856	44.71
852.031	69.29
852.206	65.19
852.381	18.09
852.556	61.1
852.731	57
852.906	79.53
853.081	93.87
853.256	48.81
853.431	32.43
853.606	13.99
853.781	48.81
853.956	7.85
854.131	16.04
854.305	-78.16
854.48	48.81
854.655	-26.96
854.83	24.23
855.005	20.14
855.18	85.67
855.354	38.57
855.529	59.05
855.704	48.81
855.879	102.06
856.053	89.77
856.228	20.14
856.403	-4.44
856.577	44.71
856.752	38.57
856.926	89.77
857.101	16.04
857.276	57
857.45	61.1
857.625	30.38
857.799	28.33
857.974	40.62
858.148	57
858.323	32.43
858.497	13.99
858.672	122.54
858.846	79.53
859.02	28.33
859.195	5.8
859.369	-33.11
859.543	-20.82
859.718	65.19
859.892	-31.06
860.066	89.77
860.241	34.47
860.415	36.52
860.589	-26.96
860.763	26.28
860.938	24.23
861.112	95.91
861.286	16.04
861.46	52.91
861.634	-51.54
861.808	79.53
861.982	1.71
862.157	-16.73
862.331	32.43
862.505	38.57
862.679	-12.63
862.853	65.19
863.027	-37.2
863.201	87.72
863.375	24.23
863.549	-78.16
863.722	61.1
863.896	79.53
864.07	54.95
864.244	30.38
864.418	28.33
864.592	26.28
864.766	50.86
864.939	38.57
865.113	5.8
865.287	87.72
865.461	28.33
865.634	-8.53
865.808	52.91
865.982	34.47
866.156	24.23
866.329	57
866.503	3.75
866.676	42.67
866.85	63.15
867.024	7.85
867.197	75.43
867.371	11.95
867.544	13.99
867.718	61.1
867.891	38.57
868.065	126.63
868.238	7.85
868.412	40.62
868.585	22.19
868.759	95.91
868.932	26.28
869.105	-61.78
869.279	-0.34
869.452	44.71
869.625	5.8
869.799	18.09
869.972	-74.07
870.145	3.75
870.319	97.96
870.492	-10.58
870.665	-16.73
870.838	-0.34
871.011	-29.01
871.185	46.76
871.358	-51.54
871.531	54.95
871.704	18.09
871.877	83.63
872.05	28.33
872.223	-0.34
872.396	126.63
872.569	48.81
872.742	34.47
872.915	-6.49
873.088	20.14
873.261	11.95
873.434	57
873.607	77.48
873.78	40.62
873.953	9.9
874.126	-31.06
874.299	-4.44
874.471	26.28
874.644	-65.88
874.817	32.43
874.99	48.81
875.163	-31.06
875.335	9.9
875.508	-2.39
875.681	22.19
875.853	-10.58
876.026	-47.44
876.199	-26.96
876.371	24.23
876.544	-22.87
876.717	1.71
876.889	-53.59
877.062	48.81
877.234	30.38
877.407	-61.78
877.579	3.75
877.752	18.09
877.924	-12.63
878.097	48.81
878.269	-39.25
878.442	-51.54
878.614	28.33
878.786	-14.68
878.959	7.85
879.131	-2.39
879.303	-31.06
879.476	24.23
879.648	34.47
879.82	-31.06
879.993	-22.87
880.165	-2.39
880.337	7.85
880.509	40.62
880.681	-20.82
880.854	-14.68
881.026	9.9
881.198	-10.58
881.37	-12.63
881.542	30.38
881.714	-26.96
881.886	28.33
882.058	61.1
882.23	20.14
882.402	24.23
882.574	57
882.746	3.75
882.918	100.01
883.09	-49.49
883.262	38.57
883.434	-16.73
883.606	52.91
883.778	81.58
883.95	102.06
884.122	-37.2
884.293	77.48
884.465	3.75
884.637	30.38
884.809	-20.82
884.98	11.95
885.152	-4.44
885.324	87.72
885.496	28.33
885.667	44.71
885.839	-10.58
886.011	69.29
886.182	26.28
886.354	59.05
886.525	26.28
886.697	81.58
886.869	24.23
887.04	52.91
887.212	52.91
887.383	24.23
887.555	-65.88
887.726	11.95
887.897	-33.11
888.069	44.71
888.24	67.24
888.412	44.71
888.583	57
888.754	40.62
888.926	-88.4
889.097	65.19
889.268	-4.44
889.44	-51.54
889.611	9.9
889.782	-57.68
889.953	87.72
890.125	13.99
890.296	-10.58
890.467	-8.53
890.638	3.75
890.809	-22.87
890.98	-37.2
891.151	-2.39
891.323	-14.68
891.494	28.33
891.665	-37.2
891.836	38.57
892.007	26.28
892.178	-18.77
892.349	-29.01
892.52	46.76
892.691	-35.16
892.862	-37.2
893.032	-4.44
893.203	-31.06
893.374	9.9
893.545	-57.68
893.716	-0.34
893.887	89.77
894.057	-90.45
894.228	-49.49
894.399	11.95
894.57	34.47
894.74	-2.39
894.911	-10.58
895.082	44.71
895.253	-47.44
895.423	-20.82
895.594	32.43
895.764	9.9
895.935	-6.49
896.106	-72.02
896.276	-8.53
896.447	5.8
896.617	-65.88
896.788	-6.49
896.958	48.81
897.129	1.71
897.299	-4.44
897.47	-10.58
897.64	57
897.81	-24.92
897.981	7.85
898.151	13.99
898.322	-18.77
898.492	52.91
898.662	-33.11
898.832	-26.96
899.003	59.05
899.173	-51.54
899.343	-16.73
899.513	-0.34
