Data from USB4F104151__34__12-41-18-744.txt Node

Date: Fri Mar 14 12:41:18 EDT 2025
User: louis
Spectrometer: USB4F10415
Trigger mode: 4
Integration Time (sec): 3.000000E-2
Scans to average: 1
Electric dark correction enabled: true
Nonlinearity correction enabled: false
Boxcar width: 0
XAxis mode: Wavelengths
Number of Pixels in Spectrum: 3648
>>>>>Begin Spectral Data<<<<<
178.204	-110.42
178.424	-110.42
178.644	-110.42
178.864	-190.29
179.084	-149.33
179.304	26.79
179.524	-8.02
179.744	32.94
179.964	49.32
180.184	39.08
180.404	39.08
180.624	-3.93
180.844	-36.69
181.064	-128.85
181.283	16.55
181.503	-30.55
181.723	4.27
181.943	-55.12
182.163	127.14
182.383	-12.12
182.602	37.03
182.822	41.13
183.042	22.7
183.262	6.31
183.482	14.51
183.701	16.55
183.921	55.47
184.141	18.6
184.361	63.66
184.58	-51.03
184.8	6.31
185.02	100.52
185.239	22.7
185.459	63.66
185.679	51.37
185.898	20.65
186.118	34.99
186.338	84.14
186.557	30.89
186.777	-36.69
186.997	39.08
187.216	-12.12
187.436	86.19
187.655	110.76
187.875	37.03
188.095	-26.45
188.314	55.47
188.534	61.61
188.753	-10.07
188.973	67.75
189.192	59.56
189.412	-14.17
189.631	-1.88
189.851	73.9
190.07	18.6
190.29	-8.02
190.509	2.22
190.729	-32.6
190.948	24.75
191.168	151.72
191.387	-24.4
191.607	47.27
191.826	51.37
192.045	8.36
192.265	16.55
192.484	18.6
192.704	-40.79
192.923	-48.98
193.142	92.33
193.362	45.23
193.581	45.23
193.8	28.84
194.02	-1.88
194.239	104.62
194.458	92.33
194.678	24.75
194.897	-22.36
195.116	-3.93
195.335	18.6
195.555	26.79
195.774	14.51
195.993	4.27
196.212	-8.02
196.432	-8.02
196.651	-40.79
196.87	61.61
197.089	88.23
197.308	-14.17
197.528	43.18
197.747	14.51
197.966	51.37
198.185	88.23
198.404	47.27
198.623	39.08
198.842	88.23
199.062	69.8
199.281	94.38
199.5	20.65
199.719	47.27
199.938	4.27
200.157	37.03
200.376	51.37
200.595	53.42
200.814	32.94
201.033	-14.17
201.252	47.27
201.471	30.89
201.69	73.9
201.909	65.71
202.128	8.36
202.347	32.94
202.566	-12.12
202.785	32.94
203.004	20.65
203.223	20.65
203.442	100.52
203.661	41.13
203.879	-48.98
204.098	73.9
204.317	39.08
204.536	65.71
204.755	65.71
204.974	39.08
205.193	43.18
205.411	16.55
205.63	14.51
205.849	-34.64
206.068	108.71
206.287	0.17
206.505	-44.88
206.724	-75.6
206.943	-18.26
207.162	24.75
207.381	45.23
207.599	4.27
207.818	14.51
208.037	26.79
208.255	47.27
208.474	94.38
208.693	20.65
208.911	2.22
209.13	-3.93
209.349	18.6
209.567	24.75
209.786	63.66
210.005	69.8
210.223	71.85
210.442	18.6
210.661	55.47
210.879	0.17
211.098	59.56
211.316	49.32
211.535	12.46
211.753	-40.79
211.972	14.51
212.191	47.27
212.409	57.51
212.628	45.23
212.846	28.84
213.065	30.89
213.283	67.75
213.502	102.57
213.72	24.75
213.938	30.89
214.157	6.31
214.375	57.51
214.594	4.27
214.812	14.51
215.031	63.66
215.249	53.42
215.467	59.56
215.686	41.13
215.904	57.51
216.122	47.27
216.341	94.38
216.559	8.36
216.778	0.17
216.996	80.04
217.214	-26.45
217.432	8.36
217.651	-32.6
217.869	61.61
218.087	-12.12
218.306	123.05
218.524	49.32
218.742	-8.02
218.96	84.14
219.179	80.04
219.397	59.56
219.615	39.08
219.833	51.37
220.051	24.75
220.27	69.8
220.488	59.56
220.706	34.99
220.924	2.22
221.142	0.17
221.36	0.17
221.578	75.95
221.796	41.13
222.015	77.99
222.233	92.33
222.451	2.22
222.669	18.6
222.887	22.7
223.105	49.32
223.323	10.41
223.541	28.84
223.759	6.31
223.977	61.61
224.195	41.13
224.413	92.33
224.631	98.47
224.849	69.8
225.067	71.85
225.285	104.62
225.503	94.38
225.721	12.46
225.939	82.09
226.157	88.23
226.375	123.05
226.592	-8.02
226.81	49.32
227.028	71.85
227.246	170.15
227.464	43.18
227.682	116.9
227.9	96.43
228.117	8.36
228.335	43.18
228.553	6.31
228.771	14.51
228.989	100.52
229.206	96.43
229.424	16.55
229.642	39.08
229.86	51.37
230.077	18.6
230.295	57.51
230.513	98.47
230.731	77.99
230.948	96.43
231.166	84.14
231.384	-14.17
231.601	2.22
231.819	59.56
232.037	-14.17
232.254	59.56
232.472	16.55
232.689	-20.31
232.907	-12.12
233.125	-24.4
233.342	-1.88
233.56	-5.97
233.777	47.27
233.995	65.71
234.213	51.37
234.43	-3.93
234.648	82.09
234.865	26.79
235.083	77.99
235.3	-30.55
235.518	-22.36
235.735	39.08
235.953	59.56
236.17	-20.31
236.388	59.56
236.605	8.36
236.822	71.85
237.04	61.61
237.257	88.23
237.475	26.79
237.692	61.61
237.909	96.43
238.127	67.75
238.344	82.09
238.562	-14.17
238.779	14.51
238.996	34.99
239.214	61.61
239.431	112.81
239.648	-24.4
239.865	43.18
240.083	59.56
240.3	59.56
240.517	14.51
240.735	-14.17
240.952	61.61
241.169	59.56
241.386	-12.12
241.603	12.46
241.821	20.65
242.038	84.14
242.255	69.8
242.472	26.79
242.689	-59.22
242.907	75.95
243.124	45.23
243.341	69.8
243.558	-34.64
243.775	10.41
243.992	-18.26
244.209	-30.55
244.426	37.03
244.643	61.61
244.86	20.65
245.078	110.76
245.295	-22.36
245.512	6.31
245.729	-5.97
245.946	-1.88
246.163	75.95
246.38	-20.31
246.597	45.23
246.814	84.14
247.031	49.32
247.248	102.57
247.464	6.31
247.681	24.75
247.898	84.14
248.115	34.99
248.332	69.8
248.549	47.27
248.766	92.33
248.983	168.1
249.2	69.8
249.417	108.71
249.633	-32.6
249.85	26.79
250.067	28.84
250.284	80.04
250.501	51.37
250.717	135.34
250.934	67.75
251.151	57.51
251.368	37.03
251.585	34.99
251.801	-3.93
252.018	-24.4
252.235	34.99
252.451	-3.93
252.668	-5.97
252.885	75.95
253.102	14.51
253.318	102.57
253.535	16.55
253.752	-16.21
253.968	4.27
254.185	-3.93
254.401	61.61
254.618	37.03
254.835	28.84
255.051	96.43
255.268	71.85
255.484	28.84
255.701	16.55
255.917	26.79
256.134	22.7
256.351	49.32
256.567	-83.8
256.784	4.27
257	-1.88
257.217	104.62
257.433	63.66
257.65	24.75
257.866	34.99
258.082	8.36
258.299	24.75
258.515	98.47
258.732	-1.88
258.948	-22.36
259.165	96.43
259.381	18.6
259.597	-24.4
259.814	30.89
260.03	57.51
260.246	43.18
260.463	4.27
260.679	63.66
260.895	10.41
261.112	24.75
261.328	43.18
261.544	30.89
261.761	110.76
261.977	2.22
262.193	22.7
262.409	145.58
262.626	8.36
262.842	55.47
263.058	-30.55
263.274	80.04
263.49	32.94
263.707	41.13
263.923	24.75
264.139	43.18
264.355	-46.93
264.571	106.67
264.787	88.23
265.004	41.13
265.22	32.94
265.436	14.51
265.652	53.42
265.868	-16.21
266.084	49.32
266.3	22.7
266.516	14.51
266.732	57.51
266.948	67.75
267.164	32.94
267.38	51.37
267.596	43.18
267.812	75.95
268.028	26.79
268.244	77.99
268.46	24.75
268.676	51.37
268.892	67.75
269.108	6.31
269.324	30.89
269.54	-30.55
269.756	86.19
269.972	-75.6
270.188	90.28
270.403	-12.12
270.619	0.17
270.835	32.94
271.051	98.47
271.267	30.89
271.483	49.32
271.698	114.86
271.914	32.94
272.13	34.99
272.346	86.19
272.562	41.13
272.777	57.51
272.993	65.71
273.209	67.75
273.425	41.13
273.64	-28.5
273.856	30.89
274.072	39.08
274.287	71.85
274.503	77.99
274.719	14.51
274.934	53.42
275.15	-36.69
275.366	-38.74
275.581	-38.74
275.797	39.08
276.012	0.17
276.228	49.32
276.444	67.75
276.659	22.7
276.875	8.36
277.09	24.75
277.306	39.08
277.521	114.86
277.737	32.94
277.952	114.86
278.168	-5.97
278.383	34.99
278.599	106.67
278.814	39.08
279.03	100.52
279.245	55.47
279.461	10.41
279.676	32.94
279.892	61.61
280.107	4.27
280.322	24.75
280.538	61.61
280.753	10.41
280.969	34.99
281.184	0.17
281.399	104.62
281.615	4.27
281.83	170.15
282.045	73.9
282.26	47.27
282.476	26.79
282.691	55.47
282.906	26.79
283.122	28.84
283.337	16.55
283.552	43.18
283.767	63.66
283.983	73.9
284.198	73.9
284.413	39.08
284.628	-10.07
284.843	63.66
285.058	0.17
285.274	73.9
285.489	59.56
285.704	94.38
285.919	14.51
286.134	-5.97
286.349	26.79
286.564	65.71
286.779	125.1
286.995	34.99
287.21	-24.4
287.425	100.52
287.64	-12.12
287.855	-61.27
288.07	-81.75
288.285	4.27
288.5	100.52
288.715	102.57
288.93	-20.31
289.145	16.55
289.36	8.36
289.575	53.42
289.79	6.31
290.004	49.32
290.219	90.28
290.434	-14.17
290.649	32.94
290.864	24.75
291.079	61.61
291.294	96.43
291.509	-1.88
291.724	57.51
291.938	51.37
292.153	-44.88
292.368	-8.02
292.583	-3.93
292.798	55.47
293.012	102.57
293.227	63.66
293.442	47.27
293.657	69.8
293.871	145.58
294.086	2.22
294.301	-1.88
294.516	53.42
294.73	98.47
294.945	37.03
295.16	37.03
295.374	88.23
295.589	-34.64
295.804	16.55
296.018	67.75
296.233	45.23
296.447	-30.55
296.662	34.99
296.877	73.9
297.091	32.94
297.306	-8.02
297.52	41.13
297.735	16.55
297.949	-5.97
298.164	55.47
298.378	51.37
298.593	16.55
298.807	53.42
299.022	100.52
299.236	8.36
299.451	71.85
299.665	20.65
299.88	94.38
300.094	57.51
300.309	6.31
300.523	37.03
300.737	45.23
300.952	18.6
301.166	139.43
301.381	18.6
301.595	-30.55
301.809	16.55
302.024	61.61
302.238	39.08
302.452	75.95
302.667	32.94
302.881	102.57
303.095	53.42
303.309	57.51
303.524	-10.07
303.738	28.84
303.952	14.51
304.166	32.94
304.381	-53.08
304.595	96.43
304.809	59.56
305.023	39.08
305.237	-1.88
305.452	32.94
305.666	47.27
305.88	80.04
306.094	53.42
306.308	-3.93
306.522	61.61
306.736	37.03
306.95	110.76
307.164	-10.07
307.379	100.52
307.593	16.55
307.807	14.51
308.021	55.47
308.235	84.14
308.449	-3.93
308.663	-5.97
308.877	45.23
309.091	106.67
309.305	110.76
309.519	-59.22
309.733	94.38
309.947	14.51
310.161	47.27
310.374	100.52
310.588	80.04
310.802	-53.08
311.016	-5.97
311.23	98.47
311.444	51.37
311.658	100.52
311.872	125.1
312.085	84.14
312.299	61.61
312.513	22.7
312.727	112.81
312.941	-3.93
313.154	47.27
313.368	-38.74
313.582	45.23
313.796	94.38
314.009	2.22
314.223	112.81
314.437	123.05
314.651	30.89
314.864	139.43
315.078	20.65
315.292	24.75
315.505	41.13
315.719	26.79
315.933	26.79
316.146	-5.97
316.36	26.79
316.573	137.38
316.787	34.99
317.001	-40.79
317.214	-42.84
317.428	30.89
317.641	2.22
317.855	-14.17
318.068	4.27
318.282	2.22
318.495	149.67
318.709	32.94
318.922	61.61
319.136	141.48
319.349	118.95
319.563	110.76
319.776	2.22
319.99	-40.79
320.203	57.51
320.417	6.31
320.63	71.85
320.843	75.95
321.057	24.75
321.27	37.03
321.483	63.66
321.697	80.04
321.91	73.9
322.124	47.27
322.337	49.32
322.55	55.47
322.763	43.18
322.977	-3.93
323.19	2.22
323.403	26.79
323.617	43.18
323.83	16.55
324.043	16.55
324.256	77.99
324.469	51.37
324.683	39.08
324.896	-22.36
325.109	55.47
325.322	45.23
325.535	112.81
325.748	39.08
325.962	71.85
326.175	30.89
326.388	112.81
326.601	59.56
326.814	34.99
327.027	28.84
327.24	80.04
327.453	-36.69
327.666	94.38
327.879	71.85
328.092	49.32
328.305	-3.93
328.518	39.08
328.731	59.56
328.944	61.61
329.157	65.71
329.37	22.7
329.583	102.57
329.796	28.84
330.009	63.66
330.222	100.52
330.435	59.56
330.648	77.99
330.861	80.04
331.073	80.04
331.286	106.67
331.499	86.19
331.712	10.41
331.925	24.75
332.138	12.46
332.35	14.51
332.563	22.7
332.776	20.65
332.989	-69.46
333.202	-22.36
333.414	84.14
333.627	49.32
333.84	26.79
334.053	37.03
334.265	30.89
334.478	67.75
334.691	32.94
334.903	30.89
335.116	34.99
335.329	20.65
335.541	123.05
335.754	55.47
335.966	22.7
336.179	47.27
336.392	88.23
336.604	-3.93
336.817	43.18
337.029	63.66
337.242	2.22
337.454	86.19
337.667	4.27
337.88	92.33
338.092	90.28
338.305	45.23
338.517	39.08
338.729	-18.26
338.942	49.32
339.154	32.94
339.367	-34.64
339.579	63.66
339.792	20.65
340.004	149.67
340.217	34.99
340.429	69.8
340.641	-42.84
340.854	69.8
341.066	-8.02
341.278	137.38
341.491	90.28
341.703	30.89
341.915	32.94
342.128	71.85
342.34	98.47
342.552	6.31
342.764	125.1
342.977	49.32
343.189	110.76
343.401	90.28
343.613	24.75
343.826	-10.07
344.038	-1.88
344.25	82.09
344.462	30.89
344.674	49.32
344.886	-14.17
345.099	39.08
345.311	67.75
345.523	63.66
345.735	-8.02
345.947	96.43
346.159	116.9
346.371	73.9
346.583	-14.17
346.795	67.75
347.007	59.56
347.219	80.04
347.431	94.38
347.643	77.99
347.855	49.32
348.067	53.42
348.279	-12.12
348.491	45.23
348.703	123.05
348.915	14.51
349.127	125.1
349.339	104.62
349.551	-12.12
349.763	51.37
349.975	41.13
350.187	6.31
350.399	67.75
350.61	65.71
350.822	39.08
351.034	4.27
351.246	32.94
351.458	88.23
351.669	14.51
351.881	114.86
352.093	55.47
352.305	90.28
352.517	22.7
352.728	12.46
352.94	77.99
353.152	108.71
353.363	100.52
353.575	45.23
353.787	53.42
353.999	67.75
354.21	69.8
354.422	-36.69
354.633	59.56
354.845	24.75
355.057	71.85
355.268	69.8
355.48	63.66
355.692	41.13
355.903	-8.02
356.115	10.41
356.326	-53.08
356.538	180.39
356.749	-1.88
356.961	-1.88
357.172	51.37
357.384	51.37
357.595	41.13
357.807	32.94
358.018	-14.17
358.23	32.94
358.441	94.38
358.653	65.71
358.864	26.79
359.075	88.23
359.287	37.03
359.498	55.47
359.709	112.81
359.921	16.55
360.132	65.71
360.344	88.23
360.555	-20.31
360.766	75.95
360.977	108.71
361.189	49.32
361.4	-8.02
361.611	41.13
361.823	45.23
362.034	45.23
362.245	39.08
362.456	80.04
362.667	73.9
362.879	59.56
363.09	41.13
363.301	6.31
363.512	55.47
363.723	41.13
363.935	26.79
364.146	55.47
364.357	125.1
364.568	61.61
364.779	71.85
364.99	102.57
365.201	16.55
365.412	157.86
365.623	26.79
365.834	71.85
366.045	34.99
366.256	98.47
366.467	22.7
366.678	22.7
366.889	-1.88
367.1	57.51
367.311	10.41
367.522	53.42
367.733	63.66
367.944	94.38
368.155	-5.97
368.366	32.94
368.577	75.95
368.788	121
368.999	14.51
369.209	84.14
369.42	71.85
369.631	133.29
369.842	112.81
370.053	26.79
370.264	121
370.474	61.61
370.685	104.62
370.896	153.77
371.107	127.14
371.317	49.32
371.528	-46.93
371.739	141.48
371.95	121
372.16	53.42
372.371	-24.4
372.582	37.03
372.792	41.13
373.003	75.95
373.214	32.94
373.424	0.17
373.635	34.99
373.846	51.37
374.056	53.42
374.267	88.23
374.477	51.37
374.688	55.47
374.898	26.79
375.109	77.99
375.319	151.72
375.53	61.61
375.74	88.23
375.951	32.94
376.161	98.47
376.372	69.8
376.582	41.13
376.793	116.9
377.003	63.66
377.214	45.23
377.424	110.76
377.635	61.61
377.845	18.6
378.055	155.82
378.266	18.6
378.476	55.47
378.686	75.95
378.897	65.71
379.107	73.9
379.317	63.66
379.528	8.36
379.738	53.42
379.948	-16.21
380.158	45.23
380.369	28.84
380.579	110.76
380.789	30.89
380.999	84.14
381.21	43.18
381.42	22.7
381.63	51.37
381.84	63.66
382.05	86.19
382.261	71.85
382.471	121
382.681	61.61
382.891	176.3
383.101	45.23
383.311	61.61
383.521	-51.03
383.731	123.05
383.941	145.58
384.151	12.46
384.361	67.75
384.571	77.99
384.781	55.47
384.991	75.95
385.201	77.99
385.411	100.52
385.621	82.09
385.831	6.31
386.041	88.23
386.251	34.99
386.461	63.66
386.671	88.23
386.881	110.76
387.091	112.81
387.301	75.95
387.511	53.42
387.72	22.7
387.93	37.03
388.14	20.65
388.35	43.18
388.56	114.86
388.769	98.47
388.979	63.66
389.189	73.9
389.399	45.23
389.609	77.99
389.818	77.99
390.028	92.33
390.238	37.03
390.447	26.79
390.657	86.19
390.867	51.37
391.076	24.75
391.286	118.95
391.496	53.42
391.705	102.57
391.915	94.38
392.125	80.04
392.334	47.27
392.544	80.04
392.753	96.43
392.963	102.57
393.172	47.27
393.382	53.42
393.591	22.7
393.801	110.76
394.01	51.37
394.22	51.37
394.429	94.38
394.639	127.14
394.848	190.63
395.058	84.14
395.267	41.13
395.477	143.53
395.686	153.77
395.895	143.53
396.105	143.53
396.314	86.19
396.524	86.19
396.733	67.75
396.942	188.58
397.152	71.85
397.361	127.14
397.57	73.9
397.78	45.23
397.989	80.04
398.198	123.05
398.407	61.61
398.617	63.66
398.826	108.71
399.035	110.76
399.244	153.77
399.453	88.23
399.663	82.09
399.872	102.57
400.081	82.09
400.29	114.86
400.499	92.33
400.708	75.95
400.917	186.54
401.127	149.67
401.336	61.61
401.545	155.82
401.754	129.19
401.963	108.71
402.172	51.37
402.381	86.19
402.59	116.9
402.799	118.95
403.008	77.99
403.217	114.86
403.426	98.47
403.635	125.1
403.844	125.1
404.053	166.06
404.262	114.86
404.471	151.72
404.68	139.43
404.888	110.76
405.097	184.49
405.306	186.54
405.515	202.92
405.724	180.39
405.933	98.47
406.142	186.54
406.35	213.16
406.559	184.49
406.768	143.53
406.977	333.99
407.185	192.68
407.394	194.73
407.603	139.43
407.812	241.83
408.02	301.22
408.229	290.98
408.438	278.69
408.646	204.97
408.855	262.31
409.064	284.84
409.272	276.65
409.481	295.08
409.69	245.93
409.898	241.83
410.107	368.81
410.315	403.62
410.524	325.8
410.733	329.89
410.941	362.66
411.15	362.66
411.358	403.62
411.567	422.05
411.775	350.37
411.984	358.57
412.192	460.96
412.401	485.54
412.609	594.08
412.818	598.18
413.026	510.11
413.234	555.17
413.443	440.48
413.651	624.8
413.86	567.46
414.068	630.95
414.276	657.57
414.485	592.03
414.693	676
414.901	741.54
415.11	688.29
415.318	716.96
415.526	776.35
415.734	839.84
415.943	835.74
416.151	940.19
416.359	802.97
416.567	942.24
416.776	899.23
416.984	1136.79
417.192	1003.68
417.4	927.9
417.608	983.2
417.817	1052.83
418.025	1075.35
418.233	1144.99
418.441	1190.04
418.649	1237.14
418.857	1294.49
419.065	1405.08
419.273	1398.93
419.481	1472.66
419.689	1495.19
419.897	1566.87
420.105	1521.81
420.313	1558.67
420.521	1749.14
420.729	1796.24
420.937	1818.77
421.145	1994.89
421.353	1869.97
421.561	2033.8
421.769	2070.67
421.977	2095.24
422.185	2218.12
422.393	2205.83
422.601	2390.15
422.809	2386.05
423.017	2371.72
423.224	2490.5
423.432	2566.28
423.64	2558.08
423.848	2787.46
424.056	2787.46
424.263	3088.51
424.471	3049.6
424.679	2979.97
424.887	3219.58
425.094	3410.04
425.302	3301.5
425.51	3494.01
425.718	3549.3
425.925	3471.48
426.133	3694.71
426.341	4001.9
426.548	4046.96
426.756	4040.81
426.964	4161.64
427.171	4364.39
427.379	4419.69
427.586	4665.44
427.794	4784.23
428.001	4937.82
428.209	4966.49
428.417	5093.47
428.624	5562.45
428.832	5451.86
429.039	5361.75
429.247	5312.6
429.454	5957.71
429.662	6238.28
429.869	6053.97
430.076	6371.4
430.284	6068.3
430.491	6416.46
430.699	6688.84
430.906	6789.19
431.114	6979.65
431.321	7268.41
431.528	7280.7
431.736	7700.53
431.943	8009.78
432.15	7714.87
432.358	7794.74
432.565	8245.29
432.772	8284.2
432.979	8581.16
433.187	8871.97
433.394	8982.56
433.601	9488.41
433.808	9580.57
434.016	9494.55
434.223	9639.96
434.43	10563.59
434.637	10313.74
434.844	10965
435.052	11229.18
435.259	11091.97
435.466	11075.59
435.673	11163.65
435.88	11767.8
436.087	12662.76
436.294	12361.71
436.501	12079.09
436.708	12115.95
436.915	12853.22
437.122	13383.65
437.329	13363.17
437.537	13948.89
437.743	13952.98
437.95	13864.92
438.157	14677.96
438.364	15128.52
438.571	15181.76
438.778	15040.45
438.985	16510.89
439.192	15980.47
439.399	16320.43
439.606	15890.36
439.813	16842.67
440.02	17909.66
440.227	17616.8
440.433	17459.1
440.64	18075.54
440.847	18081.69
441.054	18053.02
441.261	19703.68
441.467	19382.15
441.674	19748.73
441.881	20399.99
442.088	20178.81
442.294	20447.09
442.501	20764.53
442.708	21102.44
442.914	22122.33
443.121	23123.79
443.328	22032.22
443.534	23932.73
443.741	23295.82
443.948	22996.81
444.154	24962.86
444.361	24721.2
444.568	24678.19
444.774	24559.41
444.981	24809.26
445.187	25814.82
445.394	26896.14
445.6	26492.69
445.807	28989.17
446.013	27594.5
446.22	28108.54
446.426	29064.94
446.633	29349.61
446.839	30416.6
447.046	29126.38
447.252	30539.48
447.459	30746.33
447.665	30723.8
447.871	32110.27
448.078	33574.57
448.284	32181.95
448.491	32806.58
448.697	34145.95
448.903	34750.1
449.11	34817.69
449.316	34393.76
449.522	34811.54
449.728	36048.52
449.935	36253.31
450.141	35667.59
450.347	36931.19
450.553	35554.96
450.76	36062.85
450.966	37119.6
451.172	37090.93
451.378	37928.55
451.584	37154.42
451.791	38096.49
451.997	37981.8
452.203	38800.99
452.409	38415.97
452.615	38512.22
452.821	36918.9
453.027	36339.33
453.233	38772.32
453.44	37504.62
453.646	37547.63
453.852	37590.64
454.058	38022.76
454.264	37158.52
454.47	38180.45
454.676	36904.57
454.882	38176.36
455.088	34539.16
455.294	35745.42
455.5	35792.52
455.705	36404.86
455.911	34729.62
456.117	34283.17
456.323	33676.97
456.529	31870.66
456.735	33283.76
456.941	32460.48
457.147	32030.4
457.352	30940.88
457.558	30836.44
457.764	30815.96
457.97	29976.29
458.176	29538.02
458.381	29490.92
458.587	27883.27
458.793	28020.48
458.999	26408.73
459.204	28520.18
459.41	27670.28
459.616	25636.64
459.821	26033.95
460.027	25745.19
460.233	25382.7
460.438	24221.5
460.644	24295.22
460.85	23177.03
461.055	22871.89
461.261	22689.62
461.466	21217.13
461.672	20588.4
461.878	22339.41
462.083	20385.65
462.289	20012.92
462.494	19818.36
462.7	18990.98
462.905	18575.25
463.111	19445.63
463.316	19289.99
463.522	18608.01
463.727	19038.09
463.932	18816.91
464.138	18474.9
464.343	18810.76
464.549	18147.22
464.754	19056.52
464.959	18909.07
465.165	18528.14
465.37	17739.68
465.575	17135.53
465.781	17913.75
465.986	17729.44
466.191	17397.67
466.397	17016.74
466.602	16322.48
466.807	16981.93
467.012	16795.56
467.218	16848.81
467.423	16439.22
467.628	16680.88
467.833	17282.98
468.038	16707.5
468.244	16265.14
468.449	16707.5
468.654	16562.09
468.859	16086.97
469.064	16316.34
469.269	15540.16
469.474	15763.39
469.679	15857.59
469.885	15556.54
470.09	15747
470.295	15552.45
470.5	15302.59
470.705	15441.86
470.91	15042.5
471.115	14950.34
471.32	15149
471.525	15001.54
471.73	14561.23
471.935	14653.39
472.139	14176.21
472.344	14333.9
472.549	14235.6
472.754	14016.47
472.959	13596.64
473.164	13539.29
473.369	13354.97
473.574	13828.06
473.778	13545.44
473.983	13352.93
474.188	13604.83
474.393	12873.7
474.598	12996.58
474.802	12834.79
475.007	12812.26
475.212	12699.62
475.417	12302.32
475.621	12242.93
475.826	12404.72
476.031	12054.51
476.235	11835.38
476.44	11991.03
476.645	11675.64
476.849	11689.98
477.054	11517.95
477.259	11517.95
477.463	11628.54
477.668	11075.59
477.872	11251.71
478.077	11159.55
478.282	10823.69
478.486	10921.99
478.691	10672.14
478.895	10838.02
479.1	10700.81
479.304	10829.83
479.509	10215.44
479.713	10739.72
479.918	10129.42
480.122	10266.64
480.326	10336.27
480.531	10291.21
480.735	10221.58
480.94	9988.11
481.144	10344.46
481.348	9941.01
481.553	10205.2
481.757	9811.99
481.961	10215.44
482.166	10041.36
482.37	9973.78
482.574	9660.44
482.778	9900.05
482.983	10240.01
483.187	9924.63
483.391	9877.52
483.595	9967.63
483.8	9801.75
484.004	10045.46
484.208	10088.46
484.412	9959.44
484.616	9961.49
484.821	9973.78
485.025	9842.71
485.229	10008.59
485.433	9850.9
485.637	9932.82
485.841	9951.25
486.045	9697.3
486.249	9844.76
486.453	9840.66
486.657	9916.44
486.861	10000.4
487.065	9613.34
487.269	9938.96
487.473	9648.15
487.677	10033.17
487.881	10065.94
488.085	9988.11
488.289	10051.6
488.493	9803.8
488.697	9877.52
488.901	9932.82
489.105	9930.77
489.309	10057.75
489.512	10088.46
489.716	9996.31
489.92	10049.55
490.124	9957.39
490.328	10199.06
490.531	10088.46
490.735	10385.42
490.939	10371.08
491.143	10371.08
491.346	10139.66
491.55	10375.18
491.754	10154
491.958	10416.14
492.161	10307.6
492.365	10528.78
492.569	10252.3
492.772	10594.31
492.976	10604.55
493.18	10717.19
493.383	10831.88
493.587	10600.46
493.79	10965
493.994	10659.85
494.197	10686.47
494.401	10997.76
494.605	11038.72
494.808	11155.46
495.012	11245.57
495.215	11106.31
495.419	11384.83
495.622	11259.9
495.825	11450.36
496.029	11638.78
496.232	11692.02
496.436	11788.28
496.639	11837.43
496.843	11948.02
497.046	12224.5
497.249	12197.87
497.453	12357.61
497.656	12462.06
497.859	12605.42
498.063	12720.1
498.266	12785.64
498.469	12972
498.673	12939.24
498.876	13209.57
499.079	13277.15
499.282	13275.1
499.485	13596.64
499.689	13742.04
499.892	13930.45
500.095	14047.19
500.298	14055.38
500.501	14077.91
500.705	14528.46
500.908	14569.42
501.111	14794.7
501.314	14790.6
501.517	15149
501.72	15194.05
501.923	15257.54
502.126	15519.68
502.329	15849.4
502.532	15822.78
502.735	15863.74
502.938	16396.21
503.141	16367.54
503.344	16441.26
503.547	16693.16
503.75	16648.11
503.953	16934.82
504.156	17350.56
504.359	17184.68
504.562	17358.75
504.765	18048.92
504.968	17981.34
505.17	18083.73
505.373	18378.64
505.576	18554.77
505.779	18485.14
505.982	18780.04
506.185	18786.19
506.387	19345.28
506.59	19214.21
506.793	19591.04
506.996	19410.82
507.198	20238.2
507.401	19963.77
507.604	20434.8
507.807	20819.82
508.009	21057.39
508.212	21018.47
508.415	21161.83
508.617	21348.2
508.82	21456.74
509.022	21462.88
509.225	21978.97
509.428	21974.88
509.63	22325.08
509.833	22292.31
510.035	22761.3
510.238	22974.28
510.44	23052.11
510.643	23353.16
510.845	23547.72
511.048	23531.33
511.25	23912.25
511.453	24082.24
511.655	24956.72
511.858	24420.15
512.06	24725.3
512.262	24934.19
512.465	24932.14
512.667	25243.43
512.87	25481
513.072	25673.51
513.274	26193.69
513.477	26451.74
513.679	26677.01
513.881	26760.98
514.084	27297.55
514.286	26992.4
514.488	26976.02
514.69	27471.62
514.893	27686.66
515.095	27891.46
515.297	28264.19
515.499	28169.98
515.701	28919.54
515.904	28978.93
516.106	28991.22
516.308	29208.3
516.51	29595.37
516.712	29761.25
516.914	29933.28
517.116	30404.31
517.318	30594.78
517.52	30787.28
517.722	30611.16
517.925	31008.47
518.127	31465.16
518.329	31383.24
518.531	31383.24
518.733	32059.07
518.935	32487.1
519.136	32282.3
519.338	32626.36
519.54	32675.51
519.742	32882.36
519.944	33083.06
520.146	33730.22
520.348	33855.14
520.55	34131.62
520.752	34066.08
520.954	34700.95
521.155	34219.68
521.357	34723.48
521.559	34967.19
521.761	35329.68
521.963	35208.85
522.164	35696.27
522.366	35581.58
522.568	35591.82
522.77	36167.3
522.971	36996.73
523.173	36501.12
523.375	36777.59
523.576	36361.86
523.778	36925.05
523.98	37287.54
524.181	36982.39
524.383	37543.53
524.584	37824.11
524.786	37842.54
524.988	37686.89
525.189	38096.49
525.391	38014.57
525.592	38123.11
525.794	38501.98
525.995	38489.7
526.197	38874.71
526.398	38637.15
526.6	38616.67
526.801	39202.39
527.003	39204.44
527.204	39132.76
527.406	39446.1
527.607	39634.51
527.808	40031.82
528.01	38950.49
528.211	39333.46
528.412	40304.2
528.614	40123.97
528.815	39730.76
529.016	40717.89
529.218	39900.75
529.419	40111.69
529.62	39956.04
529.822	40037.96
530.023	40091.21
530.224	40465.99
530.425	40115.78
530.626	40107.59
530.828	39759.44
531.029	41027.13
531.23	40304.2
531.431	40705.6
531.632	40621.63
531.833	40803.9
532.035	40427.07
532.236	40658.49
532.437	40844.86
532.638	40539.71
532.839	40932.92
533.04	41121.34
533.241	40435.27
533.442	41008.7
533.643	40818.24
533.844	40504.9
534.045	40592.96
534.246	40480.32
534.447	40697.41
534.648	40799.8
534.849	40785.47
535.05	40560.19
535.251	40758.84
535.451	41098.81
535.652	40797.76
535.853	40265.28
536.054	41029.18
536.255	40756.8
536.456	40611.39
536.657	41016.89
536.857	40668.73
537.058	40504.9
537.259	40824.38
537.46	40668.73
537.66	40547.9
537.861	40685.12
538.062	40455.75
538.263	40648.25
538.463	40357.44
538.664	40529.47
538.865	40699.45
539.065	40871.48
539.266	40042.06
539.466	40799.8
539.667	40205.89
539.868	40959.55
540.068	40754.75
540.269	40375.87
540.469	40803.9
540.67	40298.05
540.87	40459.84
541.071	40472.13
541.271	40670.78
541.472	40093.25
541.672	40136.26
541.873	40199.75
542.073	39812.68
542.274	40369.73
542.474	40302.15
542.675	39896.65
542.875	40742.46
543.075	40009.29
543.276	40121.93
543.476	40775.23
543.676	40386.11
543.877	40500.8
544.077	40310.34
544.277	40304.2
544.478	40007.24
544.678	40404.55
544.878	40074.82
545.078	40091.21
545.279	39521.87
545.479	40123.97
545.679	40220.23
545.879	40031.82
546.079	40330.82
546.28	40169.03
546.48	39599.69
546.68	40576.58
546.88	40250.95
547.08	39999.05
547.28	39986.76
547.48	39497.3
547.68	40029.77
547.88	39622.22
548.081	39892.55
548.281	39779.92
548.481	39538.26
548.681	39945.8
548.881	40037.96
549.081	39841.35
549.28	39429.71
549.48	39994.95
549.68	39341.65
549.88	40334.92
550.08	39456.34
550.28	39837.26
550.48	39364.18
550.68	40089.16
550.88	39493.2
551.08	39454.29
551.279	39609.93
551.479	39276.12
551.679	39865.93
551.879	39542.35
552.079	39546.45
552.278	39423.57
552.478	39814.73
552.678	39509.58
552.878	39984.71
553.077	39657.04
553.277	38942.3
553.477	39724.62
553.676	39067.22
553.876	39382.61
554.076	39482.96
554.275	39157.33
554.475	38760.03
554.674	39415.38
554.874	39220.82
555.074	39089.75
555.273	39151.19
555.473	39077.46
555.672	39179.86
555.872	39056.98
556.071	39106.13
556.271	39419.47
556.47	38911.58
556.67	38641.25
556.869	39200.34
557.068	39509.58
557.268	38747.74
557.467	38823.51
557.667	39288.4
557.866	39001.69
558.065	38440.54
558.265	38315.62
558.464	38530.65
558.663	38858.33
558.863	38209.12
559.062	38862.43
559.261	38377.06
559.461	38819.42
559.66	38190.69
559.859	38485.6
560.058	37992.04
560.258	38344.29
560.457	37989.99
560.656	38501.98
560.855	38004.33
561.054	38301.28
561.253	37953.13
561.453	37908.07
561.652	37924.46
561.851	38293.09
562.05	37916.26
562.249	38172.26
562.448	38014.57
562.647	38022.76
562.846	37488.24
563.045	38073.96
563.244	37402.22
563.443	38028.9
563.642	37351.02
563.841	37789.29
564.04	37297.78
564.239	37828.2
564.438	37428.85
564.637	37455.47
564.836	37312.11
565.035	37027.45
565.234	37434.99
565.432	37062.26
565.631	37133.94
565.83	37246.58
566.029	36970.1
566.228	37191.28
566.427	37328.5
566.625	36648.57
566.824	36458.11
567.023	37291.63
567.222	36509.31
567.42	36773.5
567.619	36673.15
567.818	36355.71
568.016	36400.77
568.215	36591.23
568.414	36697.72
568.612	37039.73
568.811	36292.22
569.01	36507.26
569.208	36355.71
569.407	36179.59
569.605	35999.37
569.804	36449.92
570.002	35980.93
570.201	36474.49
570.4	35948.17
570.598	35765.9
570.797	35524.24
570.995	35747.47
571.193	35262.1
571.392	36007.56
571.59	35514
571.789	35600.01
571.987	35716.75
572.186	35352.21
572.384	35524.24
572.582	35686.03
572.781	35561.1
572.979	34985.62
573.177	35174.03
573.376	35278.48
573.574	34840.22
573.772	35126.93
573.971	34698.91
574.169	34653.85
574.367	34760.34
574.565	34700.95
574.763	34764.44
574.962	34406.05
575.16	34473.63
575.358	34688.67
575.556	34164.39
575.754	34582.17
575.952	34084.51
576.151	34375.33
576.349	34061.99
576.547	34047.65
576.745	34172.58
576.943	34219.68
577.141	33900.2
577.339	34401.95
577.537	33384.11
577.735	33726.12
577.933	33466.03
578.131	33840.81
578.329	33248.94
578.527	33236.66
578.725	33404.59
578.923	33314.48
579.121	33058.48
579.319	32927.41
579.516	33586.86
579.714	33197.74
579.912	32976.56
580.11	32710.33
580.308	32782.01
580.506	32718.52
580.704	32087.75
580.901	32915.12
581.099	32609.98
581.297	32380.6
581.495	32192.19
581.692	32308.93
581.89	32122.56
582.088	32212.67
582.285	32003.78
582.483	32276.16
582.681	32106.18
582.878	32306.88
583.076	31616.71
583.274	31764.17
583.471	31497.93
583.669	31997.63
583.866	31610.57
584.064	31919.81
584.262	31379.15
584.459	31657.67
584.657	31254.22
584.854	31616.71
585.052	30910.16
585.249	30938.83
585.447	31350.48
585.644	30682.84
585.841	31133.39
586.039	31233.74
586.236	30396.12
586.434	30498.52
586.631	30471.9
586.828	30320.35
587.026	30639.83
587.223	30490.33
587.42	30273.24
587.618	30412.51
587.815	30209.76
588.012	29951.71
588.21	30013.15
588.407	30203.61
588.604	29642.47
588.801	29550.31
588.999	29581.03
589.196	29703.91
589.393	29540.07
589.59	29476.58
589.787	29349.61
589.984	29398.76
590.182	29066.99
590.379	29191.92
590.576	29064.94
590.773	29028.08
590.97	28589.81
591.167	28884.72
591.364	28671.73
591.561	28679.93
591.758	28274.43
591.955	28669.69
592.152	28526.33
592.349	28210.94
592.546	28110.59
592.743	28290.81
592.94	27762.44
593.137	28188.41
593.334	28215.04
593.531	27733.76
593.727	28002.05
593.924	27959.04
594.121	27313.93
594.318	27936.51
594.515	27324.17
594.712	27377.42
594.908	27348.75
595.105	27457.29
595.302	27084.56
595.499	27328.27
595.696	27215.63
595.892	27025.17
596.089	27207.44
596.286	27133.71
596.482	26767.12
596.679	26896.14
596.876	26867.47
597.072	26685.2
597.269	26693.4
597.466	26242.84
597.662	26584.85
597.859	26357.53
598.055	26441.5
598.252	25947.93
598.448	26439.45
598.645	25890.59
598.841	25517.86
599.038	25833.25
599.234	25997.09
599.431	25263.91
599.627	25286.44
599.824	25571.11
600.02	25442.09
600.217	25503.53
600.413	25521.96
600.609	25044.78
600.806	25335.59
601.002	25024.3
601.198	24809.26
601.395	24909.61
601.591	24858.42
601.787	24850.22
601.984	24629.04
602.18	24901.42
602.376	24850.22
602.572	24586.04
602.769	24444.73
602.965	24020.8
603.161	24074.04
603.357	24223.55
603.553	24160.06
603.75	24258.36
603.946	24039.23
604.142	24282.94
604.338	23842.62
604.534	23818.05
604.73	23617.35
604.926	23834.43
605.122	23699.27
605.318	23627.59
605.514	23643.97
605.71	23410.5
605.906	23070.54
606.102	23351.11
606.298	23328.58
606.494	23271.24
606.69	23138.12
606.886	23279.43
607.082	22945.61
607.278	23492.42
607.474	22800.21
607.67	22908.75
607.866	22832.97
608.062	23318.34
608.257	22962
608.453	22595.41
608.649	22908.75
608.845	22617.94
609.041	22327.13
609.236	22540.11
609.432	22267.73
609.628	22585.17
609.824	22325.08
610.019	22423.38
610.215	22484.82
610.411	22509.4
610.606	21983.07
610.802	22146.9
610.998	22171.48
611.193	22257.5
611.389	22114.14
611.584	21981.02
611.78	22191.96
611.976	21878.62
612.171	22194.01
612.367	21919.58
612.562	21831.52
612.758	21649.25
612.953	21587.81
613.149	21569.38
613.344	21356.39
613.539	21808.99
613.735	21878.62
613.93	21530.47
614.126	21593.95
614.321	21870.43
614.517	21397.35
614.712	21682.02
614.907	21462.88
615.103	21389.16
615.298	21194.6
615.493	21387.11
615.688	21057.39
615.884	21401.44
616.079	21180.26
616.274	21153.64
616.47	21045.1
616.665	21090.15
616.86	20911.98
617.055	20809.58
617.25	21012.33
617.445	21108.58
617.641	20739.95
617.836	20825.96
618.031	20510.58
618.226	20768.62
618.421	20580.21
618.616	20600.69
618.811	20402.04
619.006	20924.27
619.201	20238.2
619.396	20332.4
619.591	20010.87
619.786	20250.49
619.981	19775.36
620.176	20428.66
620.371	19703.68
620.566	19851.13
620.761	19679.1
620.956	19453.83
621.151	19439.49
621.346	19421.06
621.541	19365.76
621.735	19386.24
621.93	18927.5
622.125	19113.86
622.32	18720.65
622.515	18927.5
622.709	18706.32
622.904	18929.55
623.099	18614.16
623.294	18585.49
623.488	18096.02
623.683	18747.28
623.878	18018.2
624.072	18585.49
624.267	18290.58
624.462	18192.28
624.656	17866.65
624.851	17772.44
625.046	17579.93
625.24	17840.03
625.435	17332.13
625.629	17520.54
625.824	17448.86
626.018	17387.43
626.213	16945.06
626.407	17436.58
626.602	16918.44
626.796	16969.64
626.991	17020.84
627.185	16949.16
627.38	16347.06
627.574	16598.96
627.768	16265.14
627.963	16506.8
628.157	16467.89
628.352	16277.43
628.546	15906.74
628.74	16086.97
628.935	16033.72
629.129	16029.62
629.323	15824.83
629.517	15370.18
629.712	15417.28
629.906	15484.86
630.1	15149
630.294	15302.59
630.489	15290.31
630.683	15415.23
630.877	15013.83
631.071	15161.28
631.265	15153.09
631.459	15015.88
631.653	14647.24
631.848	14700.49
632.042	14532.56
632.236	14536.65
632.43	14610.38
632.624	14378.96
632.818	14559.18
633.012	13924.31
633.206	14102.48
633.4	14323.66
633.594	13981.65
633.788	14069.72
633.982	14010.32
634.176	13930.45
634.369	13615.07
634.563	13764.57
634.757	13600.73
634.951	13887.45
635.145	13580.25
635.339	13629.4
635.533	13463.52
635.726	13623.26
635.92	13242.34
636.114	13105.12
636.308	13174.75
636.501	13225.95
636.695	13082.6
636.889	12820.46
637.083	12728.3
637.276	12777.45
637.47	12654.57
637.664	12576.75
637.857	12675.05
638.051	12713.96
638.244	12455.92
638.438	12677.1
638.632	12283.89
638.825	12402.67
639.019	12130.29
639.212	12218.35
639.406	12130.29
639.599	12138.48
639.793	12007.41
639.986	11988.98
640.18	11956.21
640.373	11794.42
640.567	11737.08
640.76	11704.31
640.954	11769.85
641.147	11419.64
641.34	11538.43
641.534	11552.76
641.727	11329.53
641.92	11339.77
642.114	11352.06
642.307	11300.86
642.5	11321.34
642.694	10917.89
642.887	11026.43
643.08	11083.78
643.273	10928.13
643.467	10844.17
643.66	10831.88
643.853	11028.48
644.046	10645.51
644.239	10627.08
644.432	10498.06
644.626	10258.45
644.819	10463.24
645.012	10315.79
645.205	10657.8
645.398	10246.16
645.591	10223.63
645.784	10381.32
645.977	10086.42
646.17	10086.42
646.363	10164.24
646.556	9814.04
646.749	10207.25
646.942	10135.57
647.135	10027.03
647.328	9902.1
647.521	9793.56
647.714	9832.47
647.907	9685.01
648.099	9725.97
648.292	9650.2
648.485	9621.53
648.678	9443.35
648.871	9418.78
649.064	9289.76
649.256	9467.93
649.449	9072.67
649.642	9138.21
649.835	9164.83
650.027	9181.21
650.22	9162.78
650.413	9097.25
650.605	9119.78
650.798	9080.86
650.991	8833.06
651.183	9013.28
651.376	8814.63
651.568	8984.61
651.761	8587.3
651.954	8624.17
652.146	8646.69
652.339	8609.83
652.531	8595.5
652.724	8634.41
652.916	8253.48
653.109	8503.34
653.301	8343.6
653.494	8523.82
653.686	8073.26
653.879	8276.01
654.071	8304.68
654.263	8050.74
654.456	8235.05
654.648	7983.15
654.84	7968.82
655.033	7983.15
655.225	7925.81
655.417	7907.38
655.61	7845.94
655.802	8001.58
655.994	7729.2
656.186	7919.67
656.379	7757.88
656.571	7780.4
656.763	7596.09
656.955	7579.7
657.148	7559.22
657.34	7469.11
657.532	7503.93
657.724	7417.91
657.916	7381.05
658.108	7446.59
658.3	7307.32
658.492	7471.16
658.684	7168.06
658.876	7159.87
659.068	7153.73
659.26	7024.7
659.452	7049.28
659.644	7145.53
659.836	6932.54
660.028	7196.73
660.22	6805.57
660.412	7131.2
660.604	6940.74
660.796	7012.42
660.988	6821.95
661.18	6756.42
661.372	6686.79
661.563	6830.15
661.755	6668.36
661.947	6629.45
662.139	6660.17
662.331	6578.25
662.522	6463.56
662.714	6475.85
662.906	6492.23
663.097	6449.22
663.289	6422.6
663.481	6404.17
663.673	6457.42
663.864	6420.55
664.056	6346.83
664.247	6418.5
664.439	6178.89
664.631	6244.43
664.822	6219.85
665.014	6045.77
665.205	6285.39
665.397	6023.25
665.588	6142.03
665.78	6068.3
665.971	6062.16
666.163	5875.79
666.354	5933.14
666.546	5781.59
666.737	5847.12
666.929	5847.12
667.12	5812.31
667.311	5779.54
667.503	5777.49
667.694	5765.2
667.885	5584.98
668.077	5695.57
668.268	5720.15
668.459	5519.45
668.651	5615.7
668.842	5607.51
669.033	5603.41
669.224	5494.87
669.416	5517.4
669.607	5501.01
669.798	5451.86
669.989	5529.69
670.18	5353.56
670.371	5367.9
670.563	5249.11
670.754	5400.66
670.945	5458.01
671.136	5404.76
671.327	5245.02
671.518	5324.89
671.709	5193.82
671.9	5236.83
672.091	5199.96
672.282	5208.16
672.473	5027.93
672.664	4941.92
672.855	5146.72
673.046	4939.87
673.237	5036.13
673.428	5011.55
673.619	4956.26
673.809	4943.97
674	5015.65
674.191	5044.32
674.382	4892.77
674.573	4905.06
674.764	4917.34
674.954	4909.15
675.145	4833.38
675.336	4700.26
675.527	4747.36
675.717	4794.47
675.908	4601.96
676.099	4737.12
676.289	4644.96
676.48	4702.31
676.671	4673.64
676.861	4593.76
677.052	4540.52
677.243	4614.24
677.433	4647.01
677.624	4665.44
677.814	4708.45
678.005	4655.2
678.195	4591.72
678.386	4493.41
678.576	4479.08
678.767	4515.94
678.957	4421.74
679.148	4526.18
679.338	4604
679.529	4581.48
679.719	4427.88
679.909	4530.28
680.1	4460.65
680.29	4407.4
680.481	4266.09
680.671	4434.02
680.861	4276.33
681.052	4384.87
681.242	4384.87
681.432	4417.64
681.622	4245.61
681.813	4253.8
682.003	4218.99
682.193	4184.17
682.383	4307.05
682.573	4237.42
682.764	4067.44
682.954	4286.57
683.144	4147.31
683.334	4114.54
683.524	4137.07
683.714	4182.12
683.904	4145.26
684.094	4128.88
684.284	3940.46
684.474	4218.99
684.664	4044.91
684.854	4071.53
685.044	4024.43
685.234	3983.47
685.424	4067.44
685.614	3930.22
685.804	4028.53
685.994	4028.53
686.184	4034.67
686.374	3965.04
686.564	3962.99
686.753	3856.5
686.943	3899.5
687.133	3868.78
687.323	3694.71
687.513	3899.5
687.702	3848.3
687.892	3731.57
688.082	3739.76
688.272	3743.86
688.461	3690.61
688.651	3674.23
688.841	3690.61
689.03	3625.08
689.22	3739.76
689.41	3668.08
689.599	3557.49
689.789	3616.88
689.979	3524.72
690.168	3512.44
690.358	3711.09
690.547	3528.82
690.737	3477.62
690.926	3514.49
691.116	3475.57
691.305	3455.09
691.495	3371.13
691.684	3379.32
691.874	3393.65
692.063	3360.89
692.252	3389.56
692.442	3346.55
692.631	3301.5
692.82	3235.96
693.01	3254.39
693.199	3164.28
693.388	3131.51
693.578	3207.29
693.767	3174.52
693.956	3092.6
694.146	3102.84
694.335	3059.84
694.524	3174.52
694.713	3201.15
694.902	3004.54
695.092	3186.81
695.281	3033.21
695.47	3094.65
695.659	2984.06
695.848	3125.37
696.037	2953.34
696.226	2963.58
696.415	2902.14
696.604	2918.53
696.793	2912.38
696.982	2900.09
697.171	2945.15
697.36	2975.87
697.549	2943.1
697.738	2842.75
697.927	2754.69
698.116	2963.58
698.305	2797.7
698.494	2797.7
698.683	2728.07
698.872	2939.01
699.061	2820.22
699.25	2660.48
699.438	2787.46
699.627	2762.88
699.816	2764.93
700.005	2670.72
700.193	2732.16
700.382	2709.63
700.571	2693.25
700.76	2670.72
700.948	2707.59
701.137	2619.52
701.326	2705.54
701.514	2584.71
701.703	2656.39
701.892	2582.66
702.08	2642.05
702.269	2640
702.457	2482.31
702.646	2674.82
702.834	2640
703.023	2623.62
703.212	2510.98
703.4	2566.28
703.589	2517.12
703.777	2492.55
703.965	2543.75
704.154	2492.55
704.342	2410.63
704.531	2525.32
704.719	2476.16
704.907	2506.88
705.096	2396.29
705.284	2545.8
705.472	2467.97
705.661	2588.8
705.849	2437.25
706.037	2449.54
706.226	2508.93
706.414	2396.29
706.602	2361.48
706.79	2441.35
706.979	2429.06
707.167	2377.86
707.355	2427.01
707.543	2424.97
707.731	2447.49
707.919	2384.01
708.107	2410.63
708.296	2279.56
708.484	2369.67
708.672	2330.76
708.86	2306.18
709.048	2515.08
709.236	2324.62
709.424	2351.24
709.612	2373.77
709.8	2300.04
709.988	2248.84
710.176	2449.54
710.364	2416.77
710.551	2187.4
710.739	2347.14
710.927	2226.31
711.115	2375.81
711.303	2338.95
711.491	2246.79
711.679	2304.14
711.866	2232.46
712.054	2265.22
712.242	2353.29
712.43	2242.7
712.617	2211.98
712.805	2267.27
712.993	2257.03
713.181	2187.4
713.368	2242.7
713.556	2254.98
713.744	2166.92
713.931	2254.98
714.119	2240.65
714.306	2214.02
714.494	2205.83
714.682	2140.3
714.869	2228.36
715.057	2078.86
715.244	2095.24
715.432	2199.69
715.619	2197.64
715.807	2121.87
715.994	2214.02
716.182	2189.45
716.369	2164.87
716.556	2197.64
716.744	2093.19
716.931	2113.67
717.119	2246.79
717.306	2150.54
717.493	2171.02
717.681	2150.54
717.868	2226.31
718.055	2093.19
718.242	2207.88
718.43	2207.88
718.617	2189.45
718.804	2150.54
718.991	2171.02
719.179	2236.55
719.366	2240.65
719.553	2205.83
719.74	2150.54
719.927	1996.94
720.114	2185.35
720.301	2216.07
720.488	2068.62
720.676	2173.07
720.863	2119.82
721.05	2117.77
721.237	2220.17
721.424	2119.82
721.611	2019.47
721.798	2037.9
721.985	2125.96
722.172	2109.58
722.358	2166.92
722.545	2074.76
722.732	2089.1
722.919	2173.07
723.106	2193.55
723.293	2107.53
723.48	2238.6
723.667	2134.15
723.853	2082.95
724.04	2150.54
724.227	2148.49
724.414	2078.86
724.6	2093.19
724.787	2179.21
724.974	2128.01
725.161	2064.52
725.347	2080.91
725.534	2037.9
725.72	2046.09
725.907	2185.35
726.094	2146.44
726.28	2078.86
726.467	2216.07
726.653	2087.05
726.84	2044.04
727.027	2123.91
727.213	2076.81
727.4	2046.09
727.586	2107.53
727.773	2134.15
727.959	2046.09
728.145	2166.92
728.332	2121.87
728.518	2121.87
728.705	2142.35
728.891	2068.62
729.077	2134.15
729.264	2109.58
729.45	2193.55
729.636	2027.66
729.823	2058.38
730.009	2138.25
730.195	2095.24
730.382	2228.36
730.568	2150.54
730.754	2173.07
730.94	2166.92
731.126	2134.15
731.313	2144.39
731.499	2148.49
731.685	2197.64
731.871	2123.91
732.057	2177.16
732.243	2091.15
732.429	2078.86
732.615	2265.22
732.801	2164.87
732.987	2211.98
733.173	2113.67
733.359	2109.58
733.545	2054.28
733.731	2117.77
733.917	2177.16
734.103	2154.63
734.289	2187.4
734.475	2123.91
734.661	2228.36
734.847	2179.21
735.033	2254.98
735.219	2291.85
735.404	2117.77
735.59	2111.63
735.776	2054.28
735.962	2250.89
736.148	2201.74
736.333	2175.11
736.519	2123.91
736.705	2279.56
736.89	2140.3
737.076	2146.44
737.262	2162.83
737.447	2121.87
737.633	2187.4
737.819	2142.35
738.004	2228.36
738.19	2189.45
738.375	2201.74
738.561	2179.21
738.747	2140.3
738.932	2152.59
739.118	2218.12
739.303	2244.74
739.489	2238.6
739.674	2144.39
739.859	2226.31
740.045	2197.64
740.23	2175.11
740.416	2035.85
740.601	2185.35
740.786	2101.39
740.972	2107.53
741.157	2265.22
741.342	2070.67
741.528	2154.63
741.713	2214.02
741.898	2244.74
742.084	2064.52
742.269	2103.43
742.454	2177.16
742.639	2173.07
742.824	2058.38
743.01	2205.83
743.195	2134.15
743.38	2140.3
743.565	2107.53
743.75	2119.82
743.935	2078.86
744.12	2218.12
744.305	1998.99
744.49	2093.19
744.675	2082.95
744.86	2113.67
745.045	2144.39
745.23	2146.44
745.415	2111.63
745.6	2021.52
745.785	2066.57
745.97	2044.04
746.155	2025.61
746.34	1992.84
746.525	1982.6
746.71	2121.87
746.895	2113.67
747.079	1962.12
747.264	2021.52
747.449	2066.57
747.634	2037.9
747.819	2056.33
748.003	2011.28
748.188	2027.66
748.373	1878.16
748.557	2013.32
748.742	1874.06
748.927	1878.16
749.111	1964.17
749.296	1935.5
749.481	1898.64
749.665	1933.45
749.85	1861.77
750.034	1951.88
750.219	1904.78
750.404	1896.59
750.588	1829.01
750.773	1788.05
750.957	1751.18
751.141	1806.48
751.326	1972.36
751.51	1863.82
751.695	1749.14
751.879	1761.42
752.064	1831.05
752.248	1831.05
752.432	1808.53
752.617	1851.53
752.801	1910.93
752.985	1753.23
753.17	1859.73
753.354	1697.94
753.538	1704.08
753.722	1644.69
753.907	1695.89
754.091	1661.07
754.275	1792.14
754.459	1593.49
754.643	1597.59
754.828	1765.52
755.012	1710.22
755.196	1644.69
755.38	1648.79
755.564	1587.35
755.748	1560.72
755.932	1607.83
756.116	1593.49
756.3	1556.63
756.484	1570.96
756.668	1548.44
756.852	1525.91
757.036	1511.57
757.22	1468.56
757.404	1519.76
757.588	1458.32
757.772	1624.21
757.956	1423.51
758.14	1609.87
758.323	1515.67
758.507	1536.15
758.691	1480.85
758.875	1515.67
759.059	1441.94
759.242	1407.13
759.426	1386.65
759.61	1448.08
759.794	1482.9
759.977	1398.93
760.161	1448.08
760.345	1425.56
760.528	1443.99
760.712	1380.5
760.895	1349.78
761.079	1388.69
761.263	1304.73
761.446	1312.92
761.63	1331.35
761.813	1470.61
761.997	1280.15
762.18	1337.49
762.364	1372.31
762.547	1271.96
762.731	1296.53
762.914	1347.73
763.098	1337.49
763.281	1237.14
763.464	1321.11
763.648	1245.34
763.831	1274.01
764.015	1308.82
764.198	1259.67
764.381	1259.67
764.564	1212.57
764.748	1249.43
764.931	1286.3
765.114	1327.25
765.297	1298.58
765.481	1212.57
765.664	1198.23
765.847	1153.18
766.03	1112.22
766.213	1190.04
766.397	1259.67
766.58	1161.37
766.763	1128.6
766.946	1202.33
767.129	1036.44
767.312	1153.18
767.495	1153.18
767.678	1142.94
767.861	1085.59
768.044	1157.27
768.227	1122.46
768.41	1214.62
768.593	1177.75
768.776	1185.94
768.959	1093.79
769.142	1231
769.324	1147.03
769.507	1124.51
769.69	1110.17
769.873	1190.04
770.056	1153.18
770.239	1130.65
770.421	1087.64
770.604	1130.65
770.787	1126.55
770.97	1110.17
771.152	995.48
771.335	1136.79
771.518	1046.68
771.7	1136.79
771.883	1130.65
772.066	1071.26
772.248	981.15
772.431	1097.88
772.613	1116.31
772.796	1044.63
772.978	975
773.161	1003.68
773.343	987.29
773.526	940.19
773.708	934.04
773.891	977.05
774.073	934.04
774.256	966.81
774.438	1020.06
774.621	970.91
774.803	948.38
774.985	981.15
775.168	880.8
775.35	966.81
775.532	858.27
775.715	848.03
775.897	991.39
776.079	923.8
776.261	919.71
776.444	854.17
776.626	911.52
776.808	837.79
776.99	858.27
777.173	880.8
777.355	915.61
777.537	950.43
777.719	774.3
777.901	852.13
778.083	788.64
778.265	790.69
778.447	864.41
778.629	956.57
778.811	807.07
778.993	852.13
779.175	874.65
779.357	798.88
779.539	696.48
779.721	782.49
779.903	905.37
780.085	764.06
780.267	739.49
780.449	780.45
780.631	762.02
780.812	856.22
780.994	696.48
781.176	749.73
781.358	796.83
781.54	698.53
781.721	759.97
781.903	719.01
782.085	706.72
782.267	698.53
782.448	626.85
782.63	684.19
782.812	688.29
782.993	661.66
783.175	743.58
783.357	639.14
783.538	694.43
783.72	624.8
783.901	624.8
784.083	710.82
784.264	637.09
784.446	653.47
784.627	559.27
784.809	598.18
784.99	632.99
785.172	661.66
785.353	579.75
785.535	645.28
785.716	514.21
785.897	565.41
786.079	596.13
786.26	536.74
786.441	641.18
786.623	563.36
786.804	542.88
786.985	551.07
787.167	577.7
787.348	594.08
787.529	465.06
787.71	579.75
787.891	555.17
788.073	579.75
788.254	477.35
788.435	528.55
788.616	540.83
788.797	452.77
788.978	520.35
789.159	512.16
789.34	555.17
789.522	542.88
789.703	544.93
789.884	524.45
790.065	499.88
790.246	589.99
790.427	555.17
790.607	434.34
790.788	587.94
790.969	465.06
791.15	546.98
791.331	430.24
791.512	475.3
791.693	438.44
791.874	456.87
792.054	524.45
792.235	534.69
792.416	374.95
792.597	377
792.778	516.26
792.958	325.8
793.139	446.63
793.32	460.96
793.5	360.61
793.681	407.72
793.862	458.92
794.042	391.33
794.223	383.14
794.404	395.43
794.584	315.56
794.765	356.52
794.945	438.44
795.126	442.53
795.306	360.61
795.487	317.61
795.667	385.19
795.848	352.42
796.028	420
796.209	358.57
796.389	446.63
796.57	438.44
796.75	358.57
796.93	321.7
797.111	370.85
797.291	333.99
797.471	260.26
797.652	374.95
797.832	286.89
798.012	364.71
798.192	315.56
798.373	293.03
798.553	377
798.733	299.17
798.913	319.65
799.093	305.32
799.274	327.85
799.454	364.71
799.634	333.99
799.814	340.13
799.994	264.36
800.174	315.56
800.354	315.56
800.534	362.66
800.714	223.4
800.894	309.41
801.074	252.07
801.254	252.07
801.434	370.85
801.614	321.7
801.794	286.89
801.974	983.2
802.154	280.74
802.334	381.09
802.514	270.5
802.693	237.74
802.873	260.26
803.053	333.99
803.233	299.17
803.413	272.55
803.592	356.52
803.772	233.64
803.952	258.21
804.131	290.98
804.311	280.74
804.491	319.65
804.67	233.64
804.85	293.03
805.03	315.56
805.209	360.61
805.389	213.16
805.568	235.69
805.748	196.78
805.928	243.88
806.107	338.09
806.287	237.74
806.466	268.45
806.646	243.88
806.825	252.07
807.004	280.74
807.184	252.07
807.363	262.31
807.543	254.12
807.722	211.11
807.901	274.6
808.081	282.79
808.26	221.35
808.439	266.41
808.619	188.58
808.798	164.01
808.977	221.35
809.156	225.45
809.336	194.73
809.515	274.6
809.694	180.39
809.873	211.11
810.052	192.68
810.231	155.82
810.411	129.19
810.59	211.11
810.769	204.97
810.948	231.59
811.127	194.73
811.306	239.78
811.485	239.78
811.664	241.83
811.843	164.01
812.022	170.15
812.201	174.25
812.38	178.34
812.559	161.96
812.737	176.3
812.916	151.72
813.095	137.38
813.274	170.15
813.453	235.69
813.632	250.02
813.811	178.34
813.989	207.02
814.168	135.34
814.347	155.82
814.526	151.72
814.704	235.69
814.883	184.49
815.062	153.77
815.24	288.93
815.419	139.43
815.598	168.1
815.776	55.47
815.955	196.78
816.133	200.87
816.312	198.82
816.49	145.58
816.669	159.91
816.847	137.38
817.026	166.06
817.204	110.76
817.383	217.26
817.561	98.47
817.74	125.1
817.918	235.69
818.097	104.62
818.275	229.54
818.453	151.72
818.632	217.26
818.81	116.9
818.988	137.38
819.167	159.91
819.345	139.43
819.523	129.19
819.701	188.58
819.879	100.52
820.058	164.01
820.236	182.44
820.414	180.39
820.592	127.14
820.77	82.09
820.948	176.3
821.127	192.68
821.305	176.3
821.483	121
821.661	186.54
821.839	106.67
822.017	123.05
822.195	129.19
822.373	235.69
822.551	141.48
822.729	190.63
822.907	159.91
823.085	133.29
823.262	211.11
823.44	92.33
823.618	176.3
823.796	166.06
823.974	137.38
824.152	110.76
824.329	133.29
824.507	186.54
824.685	159.91
824.863	98.47
825.04	184.49
825.218	151.72
825.396	182.44
825.574	198.82
825.751	174.25
825.929	229.54
826.107	67.75
826.284	116.9
826.462	207.02
826.639	121
826.817	129.19
826.994	67.75
827.172	110.76
827.349	159.91
827.527	157.86
827.704	112.81
827.882	90.28
828.059	108.71
828.237	102.57
828.414	90.28
828.591	100.52
828.769	112.81
828.946	84.14
829.124	135.34
829.301	116.9
829.478	75.95
829.655	114.86
829.833	172.2
830.01	67.75
830.187	168.1
830.364	88.23
830.542	129.19
830.719	145.58
830.896	100.52
831.073	178.34
831.25	151.72
831.427	57.51
831.604	135.34
831.782	94.38
831.959	149.67
832.136	53.42
832.313	75.95
832.49	108.71
832.667	67.75
832.844	28.84
833.021	143.53
833.198	73.9
833.374	112.81
833.551	155.82
833.728	98.47
833.905	112.81
834.082	104.62
834.259	131.24
834.436	137.38
834.612	57.51
834.789	104.62
834.966	98.47
835.143	80.04
835.319	26.79
835.496	123.05
835.673	114.86
835.85	16.55
836.026	149.67
836.203	69.8
836.38	84.14
836.556	106.67
836.733	161.96
836.909	178.34
837.086	133.29
837.262	53.42
837.439	86.19
837.616	57.51
837.792	121
837.968	65.71
838.145	26.79
838.321	168.1
838.498	102.57
838.674	143.53
838.851	125.1
839.027	88.23
839.203	129.19
839.38	67.75
839.556	100.52
839.732	57.51
839.909	65.71
840.085	116.9
840.261	92.33
840.437	82.09
840.614	98.47
840.79	63.66
840.966	114.86
841.142	137.38
841.318	12.46
841.494	157.86
841.671	118.95
841.847	82.09
842.023	-18.26
842.199	65.71
842.375	47.27
842.551	104.62
842.727	14.51
842.903	143.53
843.079	82.09
843.255	61.61
843.431	61.61
843.607	2.22
843.783	-1.88
843.959	55.47
844.134	61.61
844.31	123.05
844.486	45.23
844.662	51.37
844.838	45.23
845.013	94.38
845.189	34.99
845.365	49.32
845.541	71.85
845.716	75.95
845.892	59.56
846.068	-53.08
846.244	-34.64
846.419	100.52
846.595	69.8
846.77	41.13
846.946	57.51
847.122	80.04
847.297	98.47
847.473	71.85
847.648	8.36
847.824	55.47
847.999	43.18
848.175	47.27
848.35	63.66
848.526	65.71
848.701	102.57
848.876	61.61
849.052	53.42
849.227	59.56
849.403	59.56
849.578	63.66
849.753	34.99
849.929	112.81
850.104	-40.79
850.279	53.42
850.454	2.22
850.63	102.57
850.805	-14.17
850.98	14.51
851.155	112.81
851.33	102.57
851.505	82.09
851.681	65.71
851.856	8.36
852.031	18.6
852.206	114.86
852.381	22.7
852.556	57.51
852.731	131.24
852.906	114.86
853.081	51.37
853.256	55.47
853.431	59.56
853.606	26.79
853.781	73.9
853.956	30.89
854.131	45.23
854.305	71.85
854.48	32.94
854.655	-42.84
854.83	28.84
855.005	6.31
855.18	43.18
855.354	71.85
855.529	77.99
855.704	18.6
855.879	61.61
856.053	-20.31
856.228	34.99
856.403	73.9
856.577	-12.12
856.752	41.13
856.926	37.03
857.101	28.84
857.276	28.84
857.45	37.03
857.625	43.18
857.799	59.56
857.974	41.13
858.148	49.32
858.323	-44.88
858.497	67.75
858.672	8.36
858.846	-12.12
859.02	82.09
859.195	-36.69
859.369	98.47
859.543	8.36
859.718	28.84
859.892	98.47
860.066	47.27
860.241	24.75
860.415	49.32
860.589	82.09
860.763	71.85
860.938	104.62
861.112	12.46
861.286	28.84
861.46	108.71
861.634	-1.88
861.808	-16.21
861.982	37.03
862.157	-87.89
862.331	49.32
862.505	22.7
862.679	94.38
862.853	-53.08
863.027	26.79
863.201	88.23
863.375	16.55
863.549	47.27
863.722	47.27
863.896	55.47
864.07	-69.46
864.244	-16.21
864.418	57.51
864.592	30.89
864.766	-40.79
864.939	80.04
865.113	94.38
865.287	6.31
865.461	51.37
865.634	37.03
865.808	47.27
865.982	4.27
866.156	24.75
866.329	28.84
866.503	47.27
866.676	34.99
866.85	92.33
867.024	75.95
867.197	112.81
867.371	-3.93
867.544	12.46
867.718	-36.69
867.891	20.65
868.065	-18.26
868.238	84.14
868.412	43.18
868.585	6.31
868.759	63.66
868.932	63.66
869.105	6.31
869.279	45.23
869.452	92.33
869.625	-28.5
869.799	82.09
869.972	2.22
870.145	10.41
870.319	108.71
870.492	-14.17
870.665	28.84
870.838	82.09
871.011	-5.97
871.185	-30.55
871.358	-20.31
871.531	114.86
871.704	39.08
871.877	-18.26
872.05	-26.45
872.223	-22.36
872.396	63.66
872.569	4.27
872.742	-20.31
872.915	39.08
873.088	4.27
873.261	-3.93
873.434	-32.6
873.607	20.65
873.78	37.03
873.953	-20.31
874.126	57.51
874.299	57.51
874.471	12.46
874.644	94.38
874.817	-26.45
874.99	63.66
875.163	6.31
875.335	22.7
875.508	-30.55
875.681	59.56
875.853	-28.5
876.026	6.31
876.199	45.23
876.371	22.7
876.544	-1.88
876.717	39.08
876.889	57.51
877.062	0.17
877.234	0.17
877.407	77.99
877.579	-24.4
877.752	84.14
877.924	-1.88
878.097	26.79
878.269	30.89
878.442	32.94
878.614	-14.17
878.786	-3.93
878.959	43.18
879.131	30.89
879.303	47.27
879.476	20.65
879.648	-38.74
879.82	14.51
879.993	47.27
880.165	12.46
880.337	-42.84
880.509	6.31
880.681	34.99
880.854	22.7
881.026	28.84
881.198	98.47
881.37	39.08
881.542	80.04
881.714	12.46
881.886	4.27
882.058	75.95
882.23	67.75
882.402	6.31
882.574	-8.02
882.746	65.71
882.918	51.37
883.09	55.47
883.262	34.99
883.434	49.32
883.606	-69.46
883.778	10.41
883.95	59.56
884.122	-57.17
884.293	80.04
884.465	-1.88
884.637	-28.5
884.809	24.75
884.98	-30.55
885.152	69.8
885.324	-30.55
885.496	45.23
885.667	24.75
885.839	20.65
886.011	28.84
886.182	92.33
886.354	108.71
886.525	0.17
886.697	0.17
886.869	16.55
887.04	0.17
887.212	14.51
887.383	94.38
887.555	-10.07
887.726	12.46
887.897	-14.17
888.069	-5.97
888.24	59.56
888.412	4.27
888.583	-20.31
888.754	14.51
888.926	22.7
889.097	6.31
889.268	-48.98
889.44	-18.26
889.611	-28.5
889.782	-14.17
889.953	8.36
890.125	80.04
890.296	-24.4
890.467	34.99
890.638	-32.6
890.809	-14.17
890.98	10.41
891.151	39.08
891.323	69.8
891.494	12.46
891.665	32.94
891.836	-16.21
892.007	-12.12
892.178	32.94
892.349	12.46
892.52	28.84
892.691	39.08
892.862	10.41
893.032	-63.32
893.203	12.46
893.374	10.41
893.545	45.23
893.716	41.13
893.887	41.13
894.057	-18.26
894.228	45.23
894.399	-40.79
894.57	-14.17
894.74	43.18
894.911	75.95
895.082	10.41
895.253	49.32
895.423	16.55
895.594	-44.88
895.764	2.22
895.935	-28.5
896.106	26.79
896.276	22.7
896.447	22.7
896.617	22.7
896.788	-48.98
896.958	63.66
897.129	49.32
897.299	-61.27
897.47	110.76
897.64	-26.45
897.81	28.84
897.981	104.62
898.151	26.79
898.322	10.41
898.492	55.47
898.662	20.65
898.832	18.6
899.003	-3.93
899.173	6.31
899.343	63.66
899.513	-42.84
